Data from USB4F104151__53__11-05-43-548.txt Node

Date: Wed Mar 12 11:05:43 EDT 2025
User: louis
Spectrometer: USB4F10415
Trigger mode: 4
Integration Time (sec): 2.000000E-2
Scans to average: 1
Electric dark correction enabled: true
Nonlinearity correction enabled: false
Boxcar width: 0
XAxis mode: Wavelengths
Number of Pixels in Spectrum: 3648
>>>>>Begin Spectral Data<<<<<
178.204	-42.84
178.424	-42.84
178.644	-42.84
178.864	-83.8
179.084	-55.12
179.304	20.65
179.524	4.27
179.744	32.94
179.964	-8.02
180.184	-28.5
180.404	39.08
180.624	-40.79
180.844	16.55
181.064	6.31
181.283	-61.27
181.503	14.51
181.723	4.27
181.943	-14.17
182.163	69.8
182.383	67.75
182.602	12.46
182.822	53.42
183.042	37.03
183.262	-94.04
183.482	26.79
183.701	-12.12
183.921	67.75
184.141	10.41
184.361	-38.74
184.58	-1.88
184.8	63.66
185.02	2.22
185.239	65.71
185.459	39.08
185.679	88.23
185.898	-16.21
186.118	-34.64
186.338	-18.26
186.557	53.42
186.777	-32.6
186.997	45.23
187.216	34.99
187.436	41.13
187.655	-1.88
187.875	51.37
188.095	12.46
188.314	63.66
188.534	116.9
188.753	92.33
188.973	22.7
189.192	57.51
189.412	43.18
189.631	4.27
189.851	4.27
190.07	82.09
190.29	-20.31
190.509	14.51
190.729	57.51
190.948	26.79
191.168	75.95
191.387	32.94
191.607	37.03
191.826	14.51
192.045	55.47
192.265	24.75
192.484	49.32
192.704	18.6
192.923	-42.84
193.142	55.47
193.362	114.86
193.581	63.66
193.8	-12.12
194.02	4.27
194.239	-1.88
194.458	26.79
194.678	-14.17
194.897	24.75
195.116	71.85
195.335	14.51
195.555	82.09
195.774	-14.17
195.993	65.71
196.212	26.79
196.432	51.37
196.651	-51.03
196.87	71.85
197.089	0.17
197.308	43.18
197.528	-28.5
197.747	-28.5
197.966	22.7
198.185	65.71
198.404	63.66
198.623	-20.31
198.842	61.61
199.062	71.85
199.281	16.55
199.5	145.58
199.719	16.55
199.938	20.65
200.157	43.18
200.376	-5.97
200.595	20.65
200.814	43.18
201.033	47.27
201.252	88.23
201.471	110.76
201.69	0.17
201.909	18.6
202.128	43.18
202.347	53.42
202.566	80.04
202.785	49.32
203.004	-10.07
203.223	-5.97
203.442	51.37
203.661	24.75
203.879	39.08
204.098	100.52
204.317	24.75
204.536	34.99
204.755	53.42
204.974	73.9
205.193	-5.97
205.411	22.7
205.63	51.37
205.849	57.51
206.068	-12.12
206.287	116.9
206.505	-5.97
206.724	20.65
206.943	-16.21
207.162	53.42
207.381	88.23
207.599	123.05
207.818	22.7
208.037	26.79
208.255	-18.26
208.474	2.22
208.693	-5.97
208.911	43.18
209.13	-3.93
209.349	37.03
209.567	12.46
209.786	47.27
210.005	0.17
210.223	14.51
210.442	-57.17
210.661	71.85
210.879	22.7
211.098	53.42
211.316	69.8
211.535	30.89
211.753	45.23
211.972	61.61
212.191	59.56
212.409	-1.88
212.628	51.37
212.846	-1.88
213.065	10.41
213.283	108.71
213.502	-44.88
213.72	-42.84
213.938	55.47
214.157	41.13
214.375	77.99
214.594	18.6
214.812	28.84
215.031	-14.17
215.249	43.18
215.467	47.27
215.686	45.23
215.904	51.37
216.122	45.23
216.341	0.17
216.559	16.55
216.778	18.6
216.996	-12.12
217.214	110.76
217.432	104.62
217.651	22.7
217.869	30.89
218.087	47.27
218.306	-8.02
218.524	45.23
218.742	8.36
218.96	6.31
219.179	28.84
219.397	0.17
219.615	67.75
219.833	55.47
220.051	55.47
220.27	92.33
220.488	22.7
220.706	59.56
220.924	77.99
221.142	-61.27
221.36	-24.4
221.578	49.32
221.796	16.55
222.015	41.13
222.233	65.71
222.451	-28.5
222.669	-30.55
222.887	59.56
223.105	-14.17
223.323	39.08
223.541	6.31
223.759	125.1
223.977	67.75
224.195	63.66
224.413	80.04
224.631	20.65
224.849	28.84
225.067	61.61
225.285	43.18
225.503	49.32
225.721	0.17
225.939	32.94
226.157	71.85
226.375	102.57
226.592	49.32
226.81	24.75
227.028	-38.74
227.246	67.75
227.464	-1.88
227.682	69.8
227.9	12.46
228.117	43.18
228.335	-16.21
228.553	4.27
228.771	30.89
228.989	2.22
229.206	16.55
229.424	24.75
229.642	51.37
229.86	-63.32
230.077	49.32
230.295	-12.12
230.513	34.99
230.731	57.51
230.948	65.71
231.166	59.56
231.384	-18.26
231.601	65.71
231.819	55.47
232.037	-16.21
232.254	6.31
232.472	4.27
232.689	-18.26
232.907	37.03
233.125	14.51
233.342	63.66
233.56	-28.5
233.777	32.94
233.995	51.37
234.213	39.08
234.43	18.6
234.648	80.04
234.865	-14.17
235.083	8.36
235.3	94.38
235.518	-3.93
235.735	53.42
235.953	-3.93
236.17	77.99
236.388	47.27
236.605	6.31
236.822	26.79
237.04	51.37
237.257	45.23
237.475	37.03
237.692	39.08
237.909	18.6
238.127	47.27
238.344	118.95
238.562	-5.97
238.779	39.08
238.996	14.51
239.214	-8.02
239.431	92.33
239.648	12.46
239.865	51.37
240.083	69.8
240.3	80.04
240.517	51.37
240.735	10.41
240.952	37.03
241.169	-38.74
241.386	63.66
241.603	14.51
241.821	-8.02
242.038	77.99
242.255	10.41
242.472	106.67
242.689	88.23
242.907	110.76
243.124	-5.97
243.341	102.57
243.558	-36.69
243.775	37.03
243.992	26.79
244.209	63.66
244.426	34.99
244.643	32.94
244.86	-20.31
245.078	65.71
245.295	43.18
245.512	30.89
245.729	4.27
245.946	0.17
246.163	14.51
246.38	34.99
246.597	18.6
246.814	63.66
247.031	-18.26
247.248	43.18
247.464	90.28
247.681	22.7
247.898	26.79
248.115	45.23
248.332	-36.69
248.549	43.18
248.766	75.95
248.983	45.23
249.2	100.52
249.417	65.71
249.633	-55.12
249.85	-20.31
250.067	2.22
250.284	39.08
250.501	30.89
250.717	53.42
250.934	8.36
251.151	43.18
251.368	2.22
251.585	53.42
251.801	41.13
252.018	45.23
252.235	47.27
252.451	37.03
252.668	14.51
252.885	75.95
253.102	10.41
253.318	61.61
253.535	-14.17
253.752	20.65
253.968	69.8
254.185	67.75
254.401	41.13
254.618	59.56
254.835	-14.17
255.051	-1.88
255.268	37.03
255.484	61.61
255.701	24.75
255.917	75.95
256.134	47.27
256.351	22.7
256.567	14.51
256.784	10.41
257	-10.07
257.217	37.03
257.433	41.13
257.65	59.56
257.866	61.61
258.082	18.6
258.299	0.17
258.515	127.14
258.732	6.31
258.948	28.84
259.165	61.61
259.381	12.46
259.597	-22.36
259.814	63.66
260.03	-28.5
260.246	32.94
260.463	34.99
260.679	59.56
260.895	41.13
261.112	82.09
261.328	6.31
261.544	82.09
261.761	98.47
261.977	-10.07
262.193	75.95
262.409	26.79
262.626	-26.45
262.842	26.79
263.058	20.65
263.274	86.19
263.49	84.14
263.707	14.51
263.923	47.27
264.139	53.42
264.355	-32.6
264.571	49.32
264.787	16.55
265.004	98.47
265.22	-26.45
265.436	51.37
265.652	43.18
265.868	10.41
266.084	22.7
266.3	37.03
266.516	-40.79
266.732	82.09
266.948	12.46
267.164	69.8
267.38	22.7
267.596	-3.93
267.812	41.13
268.028	77.99
268.244	82.09
268.46	90.28
268.676	-1.88
268.892	98.47
269.108	45.23
269.324	24.75
269.54	43.18
269.756	12.46
269.972	14.51
270.188	94.38
270.403	22.7
270.619	49.32
270.835	8.36
271.051	6.31
271.267	65.71
271.483	71.85
271.698	77.99
271.914	37.03
272.13	28.84
272.346	88.23
272.562	26.79
272.777	43.18
272.993	8.36
273.209	39.08
273.425	14.51
273.64	6.31
273.856	12.46
274.072	-30.55
274.287	69.8
274.503	0.17
274.719	45.23
274.934	39.08
275.15	41.13
275.366	43.18
275.581	6.31
275.797	59.56
276.012	30.89
276.228	28.84
276.444	47.27
276.659	151.72
276.875	-10.07
277.09	6.31
277.306	80.04
277.521	26.79
277.737	2.22
277.952	96.43
278.168	6.31
278.383	63.66
278.599	-32.6
278.814	18.6
279.03	0.17
279.245	84.14
279.461	20.65
279.676	84.14
279.892	57.51
280.107	55.47
280.322	10.41
280.538	34.99
280.753	8.36
280.969	55.47
281.184	98.47
281.399	57.51
281.615	14.51
281.83	45.23
282.045	49.32
282.26	-38.74
282.476	39.08
282.691	84.14
282.906	92.33
283.122	43.18
283.337	59.56
283.552	24.75
283.767	69.8
283.983	61.61
284.198	39.08
284.413	18.6
284.628	-61.27
284.843	0.17
285.058	47.27
285.274	71.85
285.489	73.9
285.704	116.9
285.919	-8.02
286.134	73.9
286.349	90.28
286.564	-5.97
286.779	39.08
286.995	34.99
287.21	-32.6
287.425	20.65
287.64	37.03
287.855	34.99
288.07	30.89
288.285	-1.88
288.5	45.23
288.715	61.61
288.93	57.51
289.145	104.62
289.36	26.79
289.575	16.55
289.79	80.04
290.004	57.51
290.219	43.18
290.434	82.09
290.649	39.08
290.864	32.94
291.079	37.03
291.294	39.08
291.509	10.41
291.724	75.95
291.938	45.23
292.153	67.75
292.368	-10.07
292.583	92.33
292.798	14.51
293.012	-20.31
293.227	-16.21
293.442	73.9
293.657	22.7
293.871	88.23
294.086	73.9
294.301	75.95
294.516	75.95
294.73	80.04
294.945	22.7
295.16	-5.97
295.374	80.04
295.589	84.14
295.804	4.27
296.018	108.71
296.233	63.66
296.447	77.99
296.662	77.99
296.877	-1.88
297.091	90.28
297.306	55.47
297.52	20.65
297.735	-26.45
297.949	80.04
298.164	39.08
298.378	-10.07
298.593	-22.36
298.807	22.7
299.022	43.18
299.236	43.18
299.451	98.47
299.665	63.66
299.88	-8.02
300.094	30.89
300.309	39.08
300.523	84.14
300.737	43.18
300.952	51.37
301.166	43.18
301.381	71.85
301.595	63.66
301.809	-12.12
302.024	10.41
302.238	51.37
302.452	92.33
302.667	10.41
302.881	-22.36
303.095	127.14
303.309	12.46
303.524	6.31
303.738	28.84
303.952	18.6
304.166	30.89
304.381	65.71
304.595	80.04
304.809	12.46
305.023	106.67
305.237	75.95
305.452	67.75
305.666	39.08
305.88	-14.17
306.094	69.8
306.308	18.6
306.522	51.37
306.736	18.6
306.95	30.89
307.164	24.75
307.379	43.18
307.593	22.7
307.807	86.19
308.021	65.71
308.235	45.23
308.449	0.17
308.663	37.03
308.877	88.23
309.091	10.41
309.305	57.51
309.519	-5.97
309.733	26.79
309.947	30.89
310.161	24.75
310.374	-10.07
310.588	108.71
310.802	24.75
311.016	34.99
311.23	55.47
311.444	92.33
311.658	90.28
311.872	30.89
312.085	20.65
312.299	10.41
312.513	59.56
312.727	65.71
312.941	92.33
313.154	10.41
313.368	59.56
313.582	69.8
313.796	12.46
314.009	24.75
314.223	59.56
314.437	34.99
314.651	61.61
314.864	82.09
315.078	53.42
315.292	67.75
315.505	22.7
315.719	12.46
315.933	-16.21
316.146	41.13
316.36	30.89
316.573	69.8
316.787	16.55
317.001	39.08
317.214	14.51
317.428	55.47
317.641	-5.97
317.855	104.62
318.068	106.67
318.282	18.6
318.495	65.71
318.709	168.1
318.922	18.6
319.136	77.99
319.349	59.56
319.563	49.32
319.776	53.42
319.99	-30.55
320.203	80.04
320.417	43.18
320.63	88.23
320.843	75.95
321.057	14.51
321.27	121
321.483	100.52
321.697	100.52
321.91	59.56
322.124	65.71
322.337	73.9
322.55	51.37
322.763	14.51
322.977	20.65
323.19	88.23
323.403	59.56
323.617	94.38
323.83	51.37
324.043	-5.97
324.256	20.65
324.469	22.7
324.683	92.33
324.896	22.7
325.109	22.7
325.322	30.89
325.535	49.32
325.748	71.85
325.962	71.85
326.175	45.23
326.388	125.1
326.601	71.85
326.814	55.47
327.027	108.71
327.24	94.38
327.453	53.42
327.666	75.95
327.879	16.55
328.092	6.31
328.305	24.75
328.518	57.51
328.731	45.23
328.944	28.84
329.157	65.71
329.37	49.32
329.583	32.94
329.796	37.03
330.009	43.18
330.222	55.47
330.435	57.51
330.648	53.42
330.861	51.37
331.073	71.85
331.286	43.18
331.499	67.75
331.712	106.67
331.925	37.03
332.138	67.75
332.35	51.37
332.563	20.65
332.776	-40.79
332.989	0.17
333.202	28.84
333.414	34.99
333.627	77.99
333.84	0.17
334.053	51.37
334.265	55.47
334.478	49.32
334.691	45.23
334.903	86.19
335.116	88.23
335.329	51.37
335.541	14.51
335.754	39.08
335.966	-14.17
336.179	98.47
336.392	-28.5
336.604	24.75
336.817	43.18
337.029	8.36
337.242	61.61
337.454	30.89
337.667	-12.12
337.88	53.42
338.092	82.09
338.305	39.08
338.517	92.33
338.729	51.37
338.942	51.37
339.154	32.94
339.367	34.99
339.579	59.56
339.792	71.85
340.004	49.32
340.217	16.55
340.429	84.14
340.641	-14.17
340.854	57.51
341.066	2.22
341.278	45.23
341.491	90.28
341.703	73.9
341.915	45.23
342.128	118.95
342.34	57.51
342.552	18.6
342.764	67.75
342.977	10.41
343.189	57.51
343.401	0.17
343.613	53.42
343.826	34.99
344.038	80.04
344.25	39.08
344.462	39.08
344.674	-1.88
344.886	49.32
345.099	80.04
345.311	86.19
345.523	90.28
345.735	8.36
345.947	69.8
346.159	34.99
346.371	86.19
346.583	16.55
346.795	104.62
347.007	32.94
347.219	53.42
347.431	108.71
347.643	67.75
347.855	22.7
348.067	67.75
348.279	125.1
348.491	28.84
348.703	88.23
348.915	-12.12
349.127	129.19
349.339	-18.26
349.551	26.79
349.763	67.75
349.975	75.95
350.187	86.19
350.399	24.75
350.61	28.84
350.822	88.23
351.034	10.41
351.246	45.23
351.458	39.08
351.669	116.9
351.881	86.19
352.093	51.37
352.305	45.23
352.517	43.18
352.728	129.19
352.94	112.81
353.152	102.57
353.363	45.23
353.575	37.03
353.787	65.71
353.999	104.62
354.21	92.33
354.422	-38.74
354.633	43.18
354.845	6.31
355.057	129.19
355.268	133.29
355.48	24.75
355.692	55.47
355.903	-1.88
356.115	-1.88
356.326	112.81
356.538	80.04
356.749	108.71
356.961	112.81
357.172	6.31
357.384	51.37
357.595	125.1
357.807	57.51
358.018	39.08
358.23	90.28
358.441	30.89
358.653	39.08
358.864	57.51
359.075	80.04
359.287	-1.88
359.498	147.62
359.709	51.37
359.921	-14.17
360.132	18.6
360.344	61.61
360.555	6.31
360.766	34.99
360.977	-1.88
361.189	75.95
361.4	75.95
361.611	77.99
361.823	112.81
362.034	47.27
362.245	61.61
362.456	8.36
362.667	65.71
362.879	20.65
363.09	26.79
363.301	114.86
363.512	37.03
363.723	12.46
363.935	92.33
364.146	90.28
364.357	-5.97
364.568	110.76
364.779	49.32
364.99	108.71
365.201	92.33
365.412	59.56
365.623	-1.88
365.834	67.75
366.045	80.04
366.256	22.7
366.467	6.31
366.678	59.56
366.889	26.79
367.1	61.61
367.311	65.71
367.522	77.99
367.733	90.28
367.944	84.14
368.155	47.27
368.366	16.55
368.577	96.43
368.788	104.62
368.999	88.23
369.209	14.51
369.42	98.47
369.631	104.62
369.842	59.56
370.053	121
370.264	49.32
370.474	80.04
370.685	75.95
370.896	43.18
371.107	49.32
371.317	108.71
371.528	63.66
371.739	69.8
371.95	61.61
372.16	112.81
372.371	24.75
372.582	45.23
372.792	88.23
373.003	10.41
373.214	14.51
373.424	133.29
373.635	53.42
373.846	84.14
374.056	22.7
374.267	94.38
374.477	2.22
374.688	59.56
374.898	39.08
375.109	26.79
375.319	75.95
375.53	123.05
375.74	51.37
375.951	39.08
376.161	129.19
376.372	104.62
376.582	8.36
376.793	69.8
377.003	100.52
377.214	82.09
377.424	26.79
377.635	75.95
377.845	34.99
378.055	86.19
378.266	84.14
378.476	65.71
378.686	-3.93
378.897	10.41
379.107	28.84
379.317	86.19
379.528	39.08
379.738	145.58
379.948	53.42
380.158	131.24
380.369	82.09
380.579	69.8
380.789	112.81
380.999	96.43
381.21	92.33
381.42	59.56
381.63	20.65
381.84	94.38
382.05	4.27
382.261	71.85
382.471	84.14
382.681	67.75
382.891	65.71
383.101	12.46
383.311	10.41
383.521	57.51
383.731	116.9
383.941	43.18
384.151	55.47
384.361	-5.97
384.571	61.61
384.781	92.33
384.991	118.95
385.201	51.37
385.411	53.42
385.621	67.75
385.831	59.56
386.041	-1.88
386.251	106.67
386.461	88.23
386.671	170.15
386.881	14.51
387.091	55.47
387.301	161.96
387.511	88.23
387.72	151.72
387.93	69.8
388.14	-10.07
388.35	-1.88
388.56	82.09
388.769	63.66
388.979	104.62
389.189	116.9
389.399	133.29
389.609	125.1
389.818	125.1
390.028	12.46
390.238	84.14
390.447	131.24
390.657	59.56
390.867	88.23
391.076	90.28
391.286	59.56
391.496	118.95
391.705	84.14
391.915	108.71
392.125	108.71
392.334	28.84
392.544	149.67
392.753	100.52
392.963	98.47
393.172	63.66
393.382	96.43
393.591	143.53
393.801	129.19
394.01	110.76
394.22	92.33
394.429	71.85
394.639	112.81
394.848	147.62
395.058	34.99
395.267	100.52
395.477	96.43
395.686	123.05
395.895	121
396.105	161.96
396.314	161.96
396.524	6.31
396.733	80.04
396.942	135.34
397.152	112.81
397.361	71.85
397.57	118.95
397.78	86.19
397.989	127.14
398.198	188.58
398.407	77.99
398.617	96.43
398.826	170.15
399.035	182.44
399.244	96.43
399.453	108.71
399.663	127.14
399.872	110.76
400.081	59.56
400.29	82.09
400.499	149.67
400.708	190.63
400.917	73.9
401.127	157.86
401.336	73.9
401.545	155.82
401.754	141.48
401.963	186.54
402.172	102.57
402.381	63.66
402.59	127.14
402.799	131.24
403.008	137.38
403.217	135.34
403.426	141.48
403.635	65.71
403.844	217.26
404.053	141.48
404.262	153.77
404.471	170.15
404.68	118.95
404.888	196.78
405.097	137.38
405.306	247.97
405.515	202.92
405.724	94.38
405.933	174.25
406.142	137.38
406.35	202.92
406.559	170.15
406.768	127.14
406.977	284.84
407.185	106.67
407.394	204.97
407.603	268.45
407.812	190.63
408.02	303.27
408.229	297.13
408.438	280.74
408.646	295.08
408.855	239.78
409.064	272.55
409.272	274.6
409.481	293.03
409.69	282.79
409.898	379.04
410.107	301.22
410.315	372.9
410.524	374.95
410.733	348.33
410.941	346.28
411.15	440.48
411.358	420
411.567	454.82
411.775	432.29
411.984	475.3
412.192	360.61
412.401	442.53
412.609	544.93
412.818	530.59
413.026	546.98
413.234	549.03
413.443	542.88
413.651	524.45
413.86	600.23
414.068	645.28
414.276	696.48
414.485	546.98
414.693	653.47
414.901	712.86
415.11	719.01
415.318	753.82
415.526	747.68
415.734	786.59
415.943	829.6
416.151	932
416.359	903.32
416.567	936.09
416.776	872.61
416.984	946.33
417.192	1032.35
417.4	972.96
417.608	1093.79
417.817	1149.08
418.025	1095.83
418.233	1226.9
418.441	1151.13
418.649	1216.66
418.857	1220.76
419.065	1382.55
419.273	1400.98
419.481	1411.22
419.689	1544.34
419.897	1603.73
420.105	1644.69
420.313	1599.63
420.521	1568.91
420.729	1634.45
420.937	1714.32
421.145	1812.62
421.353	1949.84
421.561	2050.19
421.769	2201.74
421.977	2162.83
422.185	2017.42
422.393	2285.7
422.601	2412.68
422.809	2404.49
423.017	2420.87
423.224	2515.08
423.432	2650.24
423.64	2721.92
423.848	2787.46
424.056	2844.8
424.263	2996.35
424.471	3137.66
424.679	3129.47
424.887	3278.97
425.094	3301.5
425.302	3295.35
425.51	3623.03
425.718	3643.51
425.925	3588.21
426.133	3817.58
426.341	3917.93
426.548	4073.58
426.756	4053.1
426.964	4241.51
427.171	4460.65
427.379	4698.21
427.586	4618.34
427.794	4737.12
428.001	5068.89
428.209	5130.33
428.417	5251.16
428.624	5474.39
428.832	5474.39
429.039	5374.04
429.247	5476.44
429.454	6037.58
429.662	6389.83
429.869	6017.1
430.076	6465.61
430.284	6381.64
430.491	6400.07
430.699	6641.73
430.906	6821.95
431.114	6953.02
431.321	7276.6
431.528	7407.67
431.736	7843.89
431.943	8222.77
432.15	8026.16
432.358	8151.09
432.565	8548.39
432.772	8495.15
432.979	8953.89
433.187	9125.92
433.394	9078.82
433.601	9629.72
433.808	9474.07
434.016	9523.23
434.223	10098.7
434.43	10731.53
434.637	10633.22
434.844	11282.43
435.052	11120.64
435.259	11393.02
435.466	11468.8
435.673	11233.28
435.88	12138.48
436.087	12824.55
436.294	12533.74
436.501	12193.78
436.708	12847.08
436.915	12894.18
437.122	13608.92
437.329	13455.33
437.537	14057.43
437.743	14354.38
437.95	14221.27
438.157	14849.99
438.364	15466.43
438.571	15468.48
438.778	15570.88
438.985	16916.39
439.192	16252.85
439.399	16578.48
439.606	16357.3
439.813	17338.27
440.02	18384.79
440.227	18100.12
440.433	17901.47
440.64	18419.6
440.847	18522
441.054	19083.14
441.261	20051.83
441.467	19726.21
441.674	20043.64
441.881	20920.17
442.088	20684.66
442.294	20801.39
442.501	21139.3
442.708	21653.34
442.914	22458.2
443.121	23324.49
443.328	22951.76
443.534	24508.21
443.741	23926.59
443.948	23578.43
444.154	24901.42
444.361	24903.47
444.568	25114.41
444.774	25222.95
444.981	25765.67
445.187	26378.01
445.394	27258.63
445.6	27006.73
445.807	29843.17
446.013	28280.57
446.22	29026.03
446.426	29650.66
446.633	29914.85
446.839	31532.75
447.046	29892.32
447.252	31667.91
447.459	31489.74
447.665	31321.8
447.871	32589.5
448.078	33957.54
448.284	32360.12
448.491	33388.21
448.697	34277.02
448.903	35045.01
449.11	35542.67
449.316	34596.51
449.522	35354.26
449.728	36261.51
449.935	36177.54
450.141	36451.97
450.347	37002.87
450.553	36023.94
450.76	36322.94
450.966	37463.66
451.172	36710.01
451.378	37817.96
451.584	37609.07
451.791	38043.24
451.997	37772.91
452.203	38461.02
452.409	38622.81
452.615	38438.5
452.821	37080.69
453.027	36060.8
453.233	37875.3
453.44	36460.16
453.646	37185.14
453.852	37179
454.058	38016.61
454.264	36163.2
454.47	37125.75
454.676	36253.31
454.882	37297.78
455.088	34291.36
455.294	34584.22
455.5	35581.58
455.705	35501.71
455.911	34158.24
456.117	33392.3
456.323	32976.56
456.529	31215.31
456.735	32501.43
456.941	31575.75
457.147	31008.47
457.352	30205.66
457.558	29822.69
457.764	30078.69
457.97	28915.44
458.176	28876.53
458.381	28669.69
458.587	27311.88
458.793	27299.59
458.999	25767.71
459.204	27330.31
459.41	26910.48
459.616	25212.71
459.821	25136.94
460.027	25034.54
460.233	24332.09
460.438	23230.28
460.644	23504.71
460.85	22439.76
461.055	22175.58
461.261	22058.84
461.466	20477.81
461.672	20041.59
461.878	21231.46
462.083	19720.06
462.289	19273.6
462.494	19289.99
462.7	18495.38
462.905	17727.39
463.111	18683.79
463.316	18306.96
463.522	18220.95
463.727	18298.77
463.932	18311.06
464.138	18040.73
464.343	18124.69
464.549	17627.04
464.754	18165.65
464.959	18141.08
465.165	17862.55
465.37	17059.75
465.575	16773.03
465.781	17436.58
465.986	17553.31
466.191	16840.62
466.397	16459.7
466.602	15658.94
466.807	16367.54
467.012	16340.91
467.218	16248.75
467.423	15974.33
467.628	15998.9
467.833	16983.98
468.038	16308.15
468.244	15923.13
468.449	16195.51
468.654	15581.12
468.859	15681.47
469.064	15474.62
469.269	15075.27
469.474	15181.76
469.679	15370.18
469.885	15071.17
470.09	15007.69
470.295	14950.34
470.5	14630.86
470.705	14692.3
470.91	14251.99
471.115	14352.34
471.32	14245.84
471.525	14403.53
471.73	14045.14
471.935	14041.04
472.139	13432.8
472.344	13533.15
472.549	13565.92
472.754	13279.2
472.959	13209.57
473.164	12574.7
473.369	12658.67
473.574	13039.59
473.778	12806.12
473.983	12783.59
474.188	12761.06
474.393	12257.26
474.598	12355.57
474.802	12031.99
475.007	12087.28
475.212	12003.32
475.417	11712.5
475.621	11462.65
475.826	11806.71
476.031	11329.53
476.235	11409.4
476.44	11458.56
476.645	11159.55
476.849	11272.19
477.054	10967.04
477.259	10815.49
477.463	10971.14
477.668	10676.23
477.872	10737.67
478.077	10614.79
478.282	10334.22
478.486	10268.69
478.691	10219.53
478.895	10166.29
479.1	9975.83
479.304	9988.11
479.509	9891.86
479.713	9805.85
479.918	9644.06
480.122	9629.72
480.326	9793.56
480.531	9766.93
480.735	9621.53
480.94	9750.55
481.144	9748.5
481.348	9465.88
481.553	9500.7
481.757	9390.11
481.961	9611.29
482.166	9603.1
482.37	9543.71
482.574	9191.45
482.778	9588.76
482.983	9639.96
483.187	9242.65
483.391	9429.02
483.595	9451.55
483.8	9566.23
484.004	9515.03
484.208	9719.83
484.412	9392.16
484.616	9318.43
484.821	9396.25
485.025	9195.55
485.229	9553.94
485.433	9326.62
485.637	9451.55
485.841	9357.34
486.045	9310.24
486.249	9138.21
486.453	9359.39
486.657	9394.2
486.861	9431.07
487.065	9271.33
487.269	9443.35
487.473	9054.24
487.677	9439.26
487.881	9506.84
488.085	9248.8
488.289	9519.13
488.493	9183.26
488.697	9441.31
488.901	9560.09
489.105	9123.87
489.309	9566.23
489.512	9502.75
489.716	9512.99
489.92	9334.81
490.124	9256.99
490.328	9639.96
490.531	9492.51
490.735	9504.79
490.939	9803.8
491.143	9568.28
491.346	9699.35
491.55	9613.34
491.754	9877.52
491.958	9752.6
492.161	9830.42
492.365	9908.24
492.569	9785.37
492.772	9973.78
492.976	9967.63
493.18	9912.34
493.383	10311.69
493.587	10258.45
493.79	10434.57
493.994	10244.11
494.197	10182.67
494.401	10334.22
494.605	10473.48
494.808	10524.68
495.012	10821.64
495.215	10760.2
495.419	10762.25
495.622	10610.7
495.825	10897.41
496.029	10854.41
496.232	11141.12
496.436	11046.91
496.639	11309.05
496.843	11214.85
497.046	11593.72
497.249	11782.13
497.453	11689.98
497.656	11792.37
497.859	11913.2
498.063	12242.93
498.266	12335.09
498.469	12179.44
498.673	12333.04
498.876	12691.43
499.079	12677.1
499.282	12668.91
499.485	13215.71
499.689	12840.93
499.892	13221.86
500.095	13162.47
500.298	13637.59
500.501	13533.15
500.705	13713.37
500.908	13942.74
501.111	14184.4
501.314	14221.27
501.517	14585.8
501.72	14565.32
501.923	14497.74
502.126	15083.46
502.329	15409.09
502.532	15282.11
502.735	15083.46
502.938	15706.04
503.141	15833.02
503.344	15687.61
503.547	16037.81
503.75	16314.29
503.953	16535.47
504.156	16394.16
504.359	16607.15
504.562	16711.6
504.765	17166.24
504.968	17426.34
505.17	17627.04
505.373	17491.87
505.576	17981.34
505.779	17960.86
505.982	18042.78
506.185	18243.48
506.387	18485.14
506.59	18507.66
506.793	18864.01
506.996	19050.38
507.198	19459.97
507.401	19234.69
507.604	19740.54
507.807	20055.93
508.009	19910.52
508.212	20205.43
508.415	20584.3
508.617	20983.66
508.82	21049.19
509.022	20707.18
509.225	21282.66
509.428	21383.01
509.63	21550.95
509.833	21776.22
510.035	22388.57
510.238	22167.38
510.44	22624.08
510.643	22714.19
510.845	22777.68
511.048	22769.49
511.25	23078.73
511.453	23725.89
511.655	24280.89
511.858	23897.92
512.06	24012.6
512.262	24579.89
512.465	24254.26
512.667	24946.48
512.87	25159.47
513.072	25194.28
513.274	25349.93
513.477	26138.4
513.679	26525.46
513.881	26390.3
514.084	26771.22
514.286	26625.81
514.488	27105.04
514.69	27565.83
514.893	27555.59
515.095	27477.77
515.297	28124.93
515.499	28415.74
515.701	28589.81
515.904	28950.26
516.106	29191.92
516.308	29193.97
516.51	29773.54
516.712	29558.5
516.914	30220
517.116	30619.35
517.318	30715.61
517.52	30756.57
517.722	30637.78
517.925	31454.92
518.127	31833.8
518.329	31676.1
518.531	31807.17
518.733	32179.9
518.935	32632.5
519.136	32915.12
519.338	33283.76
519.54	33146.54
519.742	33820.33
519.944	33824.42
520.146	34459.29
520.348	34676.38
520.55	34717.34
520.752	34780.82
520.954	35686.03
521.155	35200.66
521.357	35716.75
521.559	35995.27
521.761	36523.65
521.963	36388.48
522.164	36777.59
522.366	36976.25
522.568	37250.67
522.77	37330.55
522.971	38108.77
523.173	37783.15
523.375	38084.2
523.576	38184.55
523.778	38350.43
523.98	38889.05
524.181	38948.44
524.383	38420.06
524.584	39448.14
524.786	39298.64
524.988	39577.17
525.189	39620.17
525.391	40347.2
525.592	39962.18
525.794	40279.62
525.995	40730.17
526.197	40812.09
526.398	40695.36
526.6	41057.85
526.801	41375.28
527.003	41489.97
527.204	41897.52
527.406	41430.58
527.607	42114.6
527.808	41678.38
528.01	41569.84
528.211	41963.05
528.412	42604.06
528.614	42442.28
528.815	42540.58
529.016	43064.86
529.218	42890.78
529.419	42653.22
529.62	42868.25
529.822	42866.2
530.023	43533.84
530.224	42917.4
530.425	43419.16
530.626	42872.35
530.828	42790.43
531.029	44047.88
531.23	43777.55
531.431	43466.26
531.632	43720.21
531.833	43488.79
532.035	43515.41
532.236	44101.13
532.437	43804.17
532.638	43791.89
532.839	44049.93
533.04	44172.81
533.241	43728.4
533.442	44129.8
533.643	44189.19
533.844	44283.4
534.045	44164.62
534.246	44109.32
534.447	44418.56
534.648	44469.76
534.849	44523.01
535.05	43838.99
535.251	44473.86
535.451	44318.21
535.652	44523.01
535.853	44187.14
536.054	44760.58
536.255	44467.72
536.456	44156.42
536.657	45035
536.857	44439.04
537.058	44054.03
537.259	44867.07
537.46	44355.08
537.66	44533.25
537.861	44383.75
538.062	44297.73
538.263	44832.25
538.463	44287.49
538.664	44404.23
538.865	44416.52
539.065	45071.87
539.266	44258.82
539.466	44654.08
539.667	44056.07
539.868	45055.48
540.068	44287.49
540.269	44701.18
540.469	44678.66
540.67	44228.1
540.87	44193.29
541.071	44420.61
541.271	44666.37
541.472	44508.68
541.672	44310.02
541.873	43892.24
542.073	43838.99
542.274	44805.63
542.474	44080.65
542.675	43884.05
542.875	44684.8
543.075	44428.8
543.276	43847.18
543.476	44873.21
543.676	44236.3
543.877	44473.86
544.077	44289.54
544.277	44015.12
544.478	44158.47
544.678	44406.28
544.878	44260.87
545.078	44361.22
545.279	44125.71
545.479	44301.83
545.679	44553.73
545.879	44242.44
546.079	44068.36
546.28	43845.13
546.48	43691.54
546.68	44121.61
546.88	43855.37
547.08	44101.13
547.28	43912.72
547.48	43546.13
547.68	44092.94
547.88	43367.96
548.081	44205.58
548.281	44197.38
548.481	43687.44
548.681	44414.47
548.881	44189.19
549.081	44154.38
549.28	43773.45
549.48	43951.63
549.68	43789.84
549.88	44367.37
550.08	43685.39
550.28	44031.5
550.48	43802.13
550.68	44232.2
550.88	43785.74
551.08	43302.42
551.279	43970.06
551.479	43351.57
551.679	43699.73
551.879	43580.95
552.079	43832.85
552.278	43398.68
552.478	43552.27
552.678	43572.75
552.878	43636.24
553.077	43810.32
553.277	43327
553.477	43816.46
553.676	43283.99
553.876	43206.17
554.076	43243.03
554.275	43243.03
554.475	42894.88
554.674	43228.7
554.874	43560.47
555.074	43658.77
555.273	43746.83
555.473	43363.86
555.672	43204.12
555.872	43021.85
556.071	42774.05
556.271	43370
556.47	42868.25
556.67	42778.14
556.869	42958.36
557.068	42966.56
557.268	43101.72
557.467	42683.94
557.667	42714.65
557.866	42851.87
558.065	42401.32
558.265	42774.05
558.464	42040.87
558.663	42561.06
558.863	41981.48
559.062	43044.38
559.261	42036.78
559.461	42931.74
559.66	42139.18
559.859	41709.1
560.058	41963.05
560.258	41938.47
560.457	42024.49
560.656	42032.68
560.855	41819.69
561.054	41797.16
561.253	41715.25
561.453	41786.93
561.652	41791.02
561.851	41817.64
562.05	41418.29
562.249	41125.43
562.448	41631.28
562.647	41145.91
562.846	41434.67
563.045	41416.24
563.244	40861.24
563.443	41199.16
563.642	40490.56
563.841	40730.17
564.04	40586.82
564.239	40869.44
564.438	40359.49
564.637	40631.87
564.836	40803.9
565.035	40087.11
565.234	40533.57
565.432	40183.37
565.631	39931.47
565.83	40470.08
566.029	39851.59
566.228	39841.35
566.427	39489.1
566.625	39495.25
566.824	39147.09
567.023	39632.46
567.222	38950.49
567.42	39685.71
567.619	39394.9
567.818	39122.52
568.016	38827.61
568.215	39226.96
568.414	38839.9
568.612	39280.21
568.811	38592.09
569.01	38463.07
569.208	37996.13
569.407	39071.32
569.605	38094.44
569.804	38469.22
570.002	38213.22
570.201	38000.23
570.4	38061.67
570.598	37574.25
570.797	37645.93
570.995	37574.25
571.193	37744.23
571.392	37924.46
571.59	37293.68
571.789	37338.74
571.987	37205.62
572.186	36988.53
572.384	36664.96
572.582	37226.1
572.781	37058.17
572.979	36466.3
573.177	36580.99
573.376	36554.36
573.574	36349.57
573.772	36945.53
573.971	36296.32
574.169	36378.24
574.367	36146.82
574.565	36458.11
574.763	35692.17
574.962	35757.71
575.16	35391.12
575.358	35933.83
575.556	34987.67
575.754	35640.97
575.952	35124.88
576.151	35733.13
576.349	35165.84
576.547	35241.62
576.745	35040.92
576.943	35020.44
577.141	34952.85
577.339	34832.02
577.537	34682.52
577.735	34596.51
577.933	34303.65
578.131	34397.85
578.329	34070.18
578.527	33746.6
578.725	34352.8
578.923	34205.34
579.121	33619.63
579.319	33558.19
579.516	33906.34
579.714	33900.2
579.912	33595.05
580.11	33476.27
580.308	33425.07
580.506	33545.9
580.704	32937.65
580.901	33537.71
581.099	33435.31
581.297	32626.36
581.495	32599.74
581.692	33203.89
581.89	32417.47
582.088	33054.39
582.285	32714.42
582.483	32984.76
582.681	32585.4
582.878	32186.05
583.076	32079.55
583.274	32304.83
583.471	31657.67
583.669	32145.09
583.866	31854.28
584.064	32054.98
584.262	31229.65
584.459	31958.72
584.657	31653.58
584.854	31686.34
585.052	31241.93
585.249	31235.79
585.447	31465.16
585.644	30895.83
585.841	31065.81
586.039	31420.11
586.236	30699.22
586.434	30658.26
586.631	30613.21
586.828	30768.85
587.026	30400.22
587.223	30729.94
587.42	30172.89
587.618	30500.57
587.815	29916.9
588.012	30510.81
588.21	29968.1
588.407	30408.41
588.604	29667.05
588.801	29531.88
588.999	29966.05
589.196	29716.2
589.393	29535.98
589.59	29380.33
589.787	29097.71
589.984	29247.21
590.182	28952.3
590.379	29239.02
590.576	28978.93
590.773	28954.35
590.97	29132.53
591.167	28823.28
591.364	28391.16
591.561	28704.5
591.758	28292.86
591.955	28452.6
592.152	28483.32
592.349	28118.78
592.546	28227.32
592.743	28307.19
592.94	27498.25
593.137	28079.87
593.334	27836.16
593.531	27543.3
593.727	27913.98
593.924	27688.71
594.121	27191.05
594.318	27895.55
594.515	27244.3
594.712	27461.38
594.908	27315.98
595.105	27385.61
595.302	27033.36
595.499	27002.64
595.696	27014.93
595.892	26924.82
596.089	26988.3
596.286	26902.29
596.482	26771.22
596.679	26691.35
596.876	26650.39
597.072	26611.48
597.269	26763.03
597.466	25722.66
597.662	26427.16
597.859	26044.19
598.055	25962.27
598.252	25906.98
598.448	25855.78
598.645	25947.93
598.841	25339.69
599.038	25753.38
599.234	25634.6
599.431	25446.18
599.627	25415.46
599.824	25433.89
600.02	25251.63
600.217	25339.69
600.413	25179.95
600.609	24831.79
600.806	24719.15
601.002	24702.77
601.198	25114.41
601.395	24733.49
601.591	24553.27
601.787	24616.76
601.984	24588.08
602.18	24602.42
602.376	24155.96
602.572	24115
602.769	24065.85
602.965	24022.84
603.161	24211.26
603.357	24213.31
603.553	24028.99
603.75	24153.91
603.946	23772.99
604.142	23899.97
604.338	23363.4
604.534	23449.41
604.73	23412.55
604.926	23379.78
605.122	23635.78
605.318	23236.42
605.514	23351.11
605.71	23236.42
605.906	23060.3
606.102	23093.07
606.298	22841.17
606.494	22597.46
606.69	22976.33
606.886	22648.66
607.082	22445.91
607.278	22832.97
607.474	22146.9
607.67	22783.82
607.866	22155.1
608.062	22765.39
608.257	22433.62
608.453	22308.69
608.649	22353.75
608.845	22210.39
609.041	22128.47
609.236	22284.12
609.432	22116.19
609.628	21792.61
609.824	21751.65
610.019	21995.36
610.215	22034.27
610.411	22114.14
610.606	21725.02
610.802	21708.64
610.998	21737.31
611.193	21354.34
611.389	21532.51
611.584	21348.2
611.78	21389.16
611.976	21528.42
612.171	21507.94
612.367	21297
612.562	21297
612.758	21172.07
612.953	21145.45
613.149	21372.77
613.344	21014.38
613.539	21280.61
613.735	20959.08
613.93	20791.15
614.126	20586.35
614.321	21174.12
614.517	20973.42
614.712	20952.94
614.907	20455.28
615.103	20760.43
615.298	20696.94
615.493	20881.26
615.688	20576.11
615.884	20997.99
616.079	20367.22
616.274	20572.02
616.47	20494.19
616.665	20438.9
616.86	20039.54
617.055	20299.64
617.25	20330.36
617.445	20309.88
617.641	19828.6
617.836	20154.23
618.031	19783.55
618.226	19808.12
618.421	19900.28
618.616	19924.86
618.811	19443.59
619.006	20070.26
619.201	19414.91
619.396	19556.22
619.591	19222.41
619.786	19525.5
619.981	18990.98
620.176	19408.77
620.371	18798.48
620.566	19060.62
620.761	18902.92
620.956	18997.13
621.151	18812.81
621.346	18765.71
621.541	18341.78
621.735	18751.37
621.93	18366.35
622.125	18423.7
622.32	18020.25
622.515	18278.29
622.709	17989.53
622.904	18001.82
623.099	18126.74
623.294	17852.31
623.488	17686.43
623.683	17723.29
623.878	17524.64
624.072	17311.65
624.267	17475.49
624.462	17295.27
624.656	16912.3
624.851	17121.19
625.046	16875.43
625.24	16770.99
625.435	16844.71
625.629	16703.4
625.824	16574.38
626.018	16670.64
626.213	16424.88
626.407	16500.65
626.602	16215.99
626.796	16086.97
626.991	16117.68
627.185	16062.39
627.38	15820.73
627.574	15828.92
627.768	15695.8
627.963	15691.71
628.157	15488.96
628.352	15560.64
628.546	15138.76
628.74	15472.57
628.935	15374.27
629.129	15237.06
629.323	15036.36
629.517	14995.4
629.712	14960.58
629.906	14880.71
630.1	14733.26
630.294	14837.7
630.489	14739.4
630.683	14510.03
630.877	14448.59
631.071	14530.51
631.265	14510.03
631.459	14249.94
631.653	14161.87
631.848	13881.3
632.042	14141.39
632.236	14172.11
632.43	13727.71
632.624	13924.31
632.818	13754.33
633.012	13604.83
633.206	13717.47
633.4	13705.18
633.594	13629.4
633.788	13690.84
633.982	13535.2
634.176	13359.07
634.369	13187.04
634.563	13320.16
634.757	12978.15
634.951	13193.19
635.145	13058.02
635.339	12982.24
635.533	12998.63
635.726	12832.74
635.92	12484.59
636.114	12822.5
636.308	12310.51
636.501	12521.45
636.695	12484.59
636.889	12333.04
637.083	12249.07
637.276	12242.93
637.47	12171.25
637.664	12179.44
637.857	11972.6
638.051	12079.09
638.244	11542.52
638.438	11956.21
638.632	11808.76
638.825	11560.95
639.019	11751.42
639.212	11689.98
639.406	11585.53
639.599	11388.92
639.793	11472.89
639.986	11407.36
640.18	11296.77
640.373	11223.04
640.567	11091.97
640.76	11155.46
640.954	11098.11
641.147	10948.61
641.34	11077.63
641.534	10926.08
641.727	10932.23
641.92	10686.47
642.114	10950.66
642.307	10811.4
642.5	10514.44
642.694	10319.89
642.887	10401.8
643.08	10407.95
643.273	10481.67
643.467	10373.13
643.66	10348.56
643.853	10104.85
644.046	10113.04
644.239	9975.83
644.432	10014.74
644.626	9979.92
644.819	9957.39
645.012	9992.21
645.205	9912.34
645.398	9744.41
645.591	9809.94
645.784	9672.73
645.977	9596.95
646.17	9496.6
646.363	9629.72
646.556	9277.47
646.749	9181.21
646.942	9408.54
647.135	9386.01
647.328	9265.18
647.521	9193.5
647.714	8988.71
647.907	9189.41
648.099	9021.47
648.292	9052.19
648.485	8949.79
648.678	8845.35
648.871	8847.4
649.064	8935.46
649.256	8757.29
649.449	8677.41
649.642	8523.82
649.835	8552.49
650.027	8503.34
650.22	8540.2
650.413	8421.42
650.605	8554.54
650.798	8495.15
650.991	8341.55
651.183	8351.79
651.376	8194.09
651.568	8402.99
651.761	8261.68
651.954	8368.17
652.146	8097.84
652.339	8142.89
652.531	8134.7
652.724	7966.77
652.916	7809.08
653.109	7964.72
653.301	7739.44
653.494	7829.56
653.686	7913.52
653.879	7839.8
654.071	7696.44
654.263	7704.63
654.456	7735.35
654.648	7608.37
654.84	7587.89
655.033	7514.17
655.225	7364.67
655.417	7428.15
655.61	7485.5
655.802	7587.89
655.994	7362.62
656.186	7335.99
656.379	7034.94
656.571	7280.7
656.763	7223.36
656.955	7249.98
657.148	7198.78
657.34	7170.11
657.532	6875.2
657.724	6877.25
657.916	6957.12
658.108	6889.54
658.3	6781
658.492	6932.54
658.684	6762.56
658.876	6854.72
659.068	6783.04
659.26	6660.17
659.452	6514.76
659.644	6670.4
659.836	6629.45
660.028	6606.92
660.22	6438.98
660.412	6303.82
660.604	6461.51
660.796	6330.44
660.988	6211.66
661.18	6336.59
661.372	6207.56
661.563	6250.57
661.755	6170.7
661.947	6105.17
662.139	6172.75
662.331	6103.12
662.522	6133.84
662.714	6176.84
662.906	6002.77
663.097	6060.11
663.289	6043.73
663.481	5941.33
663.673	5998.67
663.864	5978.19
664.056	5863.51
664.247	5920.85
664.439	5711.96
664.631	5826.64
664.822	5783.63
665.014	5838.93
665.205	5812.31
665.397	5589.08
665.588	5634.13
665.78	5638.23
665.971	5578.84
666.163	5550.17
666.354	5470.3
666.546	5390.42
666.737	5593.17
666.929	5480.54
667.12	5439.58
667.311	5417.05
667.503	5402.71
667.694	5376.09
667.885	5281.88
668.077	5464.15
668.268	5263.45
668.459	5183.58
668.651	5300.31
668.842	5210.2
669.033	5077.09
669.224	5126.24
669.416	5228.63
669.607	5116
669.798	5193.82
669.989	5081.18
670.18	5027.93
670.371	5036.13
670.563	4991.07
670.754	5077.09
670.945	4905.06
671.136	4888.67
671.327	5036.13
671.518	4862.05
671.709	4864.1
671.9	4841.57
672.091	4724.83
672.282	4788.32
672.473	4724.83
672.664	4702.31
672.855	4921.44
673.046	4847.71
673.237	4837.47
673.428	4710.5
673.619	4606.05
673.809	4575.33
674	4677.73
674.191	4630.63
674.382	4704.35
674.573	4511.85
674.764	4636.77
674.954	4606.05
675.145	4321.38
675.336	4536.42
675.527	4495.46
675.717	4544.61
675.908	4335.72
676.099	4556.9
676.289	4468.84
676.48	4431.98
676.671	4472.93
676.861	4298.86
677.052	4276.33
677.243	4280.43
677.433	4397.16
677.624	4259.95
677.814	4280.43
678.005	4243.56
678.195	4358.25
678.386	4196.46
678.576	4198.51
678.767	4178.03
678.957	4380.78
679.148	4302.95
679.338	4325.48
679.529	4202.6
679.719	3969.13
679.909	4216.94
680.1	4225.13
680.29	4175.98
680.481	4200.55
680.671	3915.89
680.861	4069.48
681.052	4194.41
681.242	4008.05
681.432	3995.76
681.622	4016.24
681.813	4008.05
682.003	4126.83
682.193	3940.46
682.383	4126.83
682.573	3962.99
682.764	3891.31
682.954	3917.93
683.144	4036.72
683.334	3909.74
683.524	3938.41
683.714	3813.49
683.904	4055.15
684.094	3960.94
684.284	3846.26
684.474	3850.35
684.664	3874.93
684.854	3866.74
685.044	3692.66
685.234	3752.05
685.424	3670.13
685.614	3766.39
685.804	3801.2
685.994	3797.1
686.184	3762.29
686.374	3729.52
686.564	3706.99
686.753	3752.05
686.943	3651.7
687.133	3610.74
687.323	3602.55
687.513	3680.37
687.702	3620.98
687.892	3616.88
688.082	3588.21
688.272	3692.66
688.461	3596.4
688.651	3598.45
688.841	3602.55
689.03	3586.16
689.22	3645.56
689.41	3559.54
689.599	3489.91
689.789	3442.81
689.979	3510.39
690.168	3508.34
690.358	3446.9
690.547	3438.71
690.737	3383.42
690.926	3430.52
691.116	3301.5
691.305	3569.78
691.495	3340.41
691.684	3356.79
691.874	3446.9
692.063	3233.91
692.252	3305.59
692.442	3362.94
692.631	3225.72
692.82	3160.19
693.01	3338.36
693.199	3231.87
693.388	3141.75
693.578	3276.92
693.767	3264.63
693.956	3106.94
694.146	3104.89
694.335	3111.04
694.524	3203.19
694.713	3229.82
694.902	3149.95
695.092	3061.88
695.281	3115.13
695.47	3184.76
695.659	3111.04
695.848	3049.6
696.037	3209.34
696.226	3106.94
696.415	3201.15
696.604	3047.55
696.793	3086.46
696.982	2961.53
697.171	3096.7
697.36	2908.29
697.549	3076.22
697.738	2902.14
697.927	3076.22
698.116	3078.27
698.305	3033.21
698.494	2920.57
698.683	2990.21
698.872	3006.59
699.061	2988.16
699.25	2996.35
699.438	2971.77
699.627	2973.82
699.816	2988.16
700.005	2877.57
700.193	2900.09
700.382	2955.39
700.571	2992.25
700.76	2865.28
700.948	2955.39
701.137	2943.1
701.326	2887.81
701.514	2871.42
701.703	2838.66
701.892	2889.85
702.08	3086.46
702.269	2779.26
702.457	2990.21
702.646	2947.2
702.834	2848.9
703.023	2820.22
703.212	2918.53
703.4	2791.55
703.589	2982.01
703.777	2992.25
703.965	2797.7
704.154	2889.85
704.342	2945.15
704.531	2838.66
704.719	2834.56
704.907	2957.44
705.096	2936.96
705.284	2941.05
705.472	2887.81
705.661	3006.59
705.849	2877.57
706.037	2928.77
706.226	2936.96
706.414	2891.9
706.602	2834.56
706.79	2762.88
706.979	2789.5
707.167	2758.78
707.355	2701.44
707.543	2988.16
707.731	2990.21
707.919	2824.32
708.107	2916.48
708.296	2936.96
708.484	2717.83
708.672	2777.22
708.86	2840.7
709.048	2902.14
709.236	2801.79
709.424	2687.11
709.612	2865.28
709.8	2721.92
709.988	2781.31
710.176	2889.85
710.364	2797.7
710.551	2807.94
710.739	2656.39
710.927	2863.23
711.115	2683.01
711.303	2832.51
711.491	2805.89
711.679	2740.35
711.866	2799.74
712.054	2873.47
712.242	2689.15
712.43	2756.74
712.617	2713.73
712.805	2689.15
712.993	2635.91
713.181	2685.06
713.368	2734.21
713.556	2709.63
713.744	2680.96
713.931	2687.11
714.119	2859.14
714.306	2633.86
714.494	2535.56
714.682	2697.35
714.869	2726.02
715.057	2680.96
715.244	2719.87
715.432	2709.63
715.619	2678.91
715.807	2812.03
715.994	2783.36
716.182	2760.83
716.369	2697.35
716.556	2703.49
716.744	2592.9
716.931	2648.19
717.119	2680.96
717.306	2654.34
717.493	2625.67
717.681	2678.91
717.868	2586.76
718.055	2640
718.242	2678.91
718.43	2656.39
718.617	2713.73
718.804	2715.78
718.991	2701.44
719.179	2680.96
719.366	2621.57
719.553	2658.43
719.74	2541.7
719.927	2654.34
720.114	2717.83
720.301	2635.91
720.488	2615.43
720.676	2531.46
720.863	2633.86
721.05	2656.39
721.237	2613.38
721.424	2650.24
721.611	2674.82
721.798	2574.47
721.985	2619.52
722.172	2572.42
722.358	2689.15
722.545	2582.66
722.732	2644.1
722.919	2613.38
723.106	2656.39
723.293	2652.29
723.48	2646.15
723.667	2502.79
723.853	2570.37
724.04	2576.52
724.227	2533.51
724.414	2594.95
724.6	2443.4
724.787	2500.74
724.974	2625.67
725.161	2674.82
725.347	2508.93
725.534	2498.69
725.72	2588.8
725.907	2637.95
726.094	2488.45
726.28	2605.19
726.467	2566.28
726.653	2586.76
726.84	2562.18
727.027	2578.56
727.213	2529.41
727.4	2519.17
727.586	2496.64
727.773	2533.51
727.959	2494.6
728.145	2496.64
728.332	2490.5
728.518	2562.18
728.705	2574.47
728.891	2586.76
729.077	2429.06
729.264	2439.3
729.45	2545.8
729.636	2445.45
729.823	2431.11
730.009	2619.52
730.195	2431.11
730.382	2515.08
730.568	2551.94
730.754	2472.07
730.94	2537.6
731.126	2470.02
731.313	2494.6
731.499	2461.83
731.685	2541.7
731.871	2537.6
732.057	2482.31
732.243	2617.47
732.429	2474.12
732.615	2449.54
732.801	2510.98
732.987	2472.07
733.173	2539.65
733.359	2455.69
733.545	2510.98
733.731	2435.21
733.917	2424.97
734.103	2519.17
734.289	2486.4
734.475	2429.06
734.661	2498.69
734.847	2431.11
735.033	2400.39
735.219	2384.01
735.404	2408.58
735.59	2388.1
735.776	2416.77
735.962	2408.58
736.148	2324.62
736.333	2418.82
736.519	2347.14
736.705	2375.81
736.89	2330.76
737.076	2535.56
737.262	2515.08
737.447	2486.4
737.633	2406.53
737.819	2367.62
738.004	2320.52
738.19	2357.38
738.375	2240.65
738.561	2437.25
738.747	2449.54
738.932	2304.14
739.118	2457.73
739.303	2300.04
739.489	2275.46
739.674	2338.95
739.859	2259.08
740.045	2357.38
740.23	2347.14
740.416	2203.79
740.601	2392.2
740.786	2248.84
740.972	2232.46
741.157	2304.14
741.342	2322.57
741.528	2162.83
741.713	2312.33
741.898	2244.74
742.084	2228.36
742.269	2265.22
742.454	2271.37
742.639	2312.33
742.824	2281.61
743.01	2207.88
743.195	2066.57
743.38	2183.31
743.565	2162.83
743.75	2248.84
743.935	2164.87
744.12	2185.35
744.305	2140.3
744.49	2054.28
744.675	2011.28
744.86	2138.25
745.045	2166.92
745.23	2152.59
745.415	2134.15
745.6	2072.72
745.785	1972.36
745.97	2164.87
746.155	1982.6
746.34	2072.72
746.525	2050.19
746.71	2037.9
746.895	2048.14
747.079	1941.65
747.264	1865.87
747.449	1890.45
747.634	1960.08
747.819	1972.36
748.003	1941.65
748.188	1896.59
748.373	2017.42
748.557	1855.63
748.742	1855.63
748.927	1898.64
749.111	1824.91
749.296	1800.34
749.481	1820.81
749.665	1898.64
749.85	1757.33
750.034	1843.34
750.219	1794.19
750.404	1759.38
750.588	1814.67
750.773	1716.37
750.957	1661.07
751.141	1691.79
751.326	1699.98
751.51	1699.98
751.695	1755.28
751.879	1685.65
752.064	1611.92
752.248	1665.17
752.432	1706.13
752.617	1622.16
752.801	1597.59
752.985	1552.53
753.17	1665.17
753.354	1583.25
753.538	1706.13
753.722	1573.01
753.907	1464.47
754.091	1552.53
754.275	1530
754.459	1452.18
754.643	1482.9
754.828	1552.53
755.012	1499.28
755.196	1509.52
755.38	1478.8
755.564	1521.81
755.748	1474.71
755.932	1491.09
756.116	1482.9
756.3	1362.07
756.484	1439.89
756.668	1390.74
756.852	1372.31
757.036	1351.83
757.22	1353.88
757.404	1392.79
757.588	1321.11
757.772	1304.73
757.956	1400.98
758.14	1368.21
758.323	1300.63
758.507	1337.49
758.691	1300.63
758.875	1319.06
759.059	1374.36
759.242	1386.65
759.426	1353.88
759.61	1235.1
759.794	1204.38
759.977	1296.53
760.161	1259.67
760.345	1319.06
760.528	1269.91
760.712	1214.62
760.895	1231
761.079	1337.49
761.263	1134.75
761.446	1185.94
761.63	1233.05
761.813	1187.99
761.997	1175.7
762.18	1159.32
762.364	1206.42
762.547	1169.56
762.731	1093.79
762.914	1132.7
763.098	1140.89
763.281	1194.14
763.464	1177.75
763.648	1104.03
763.831	1226.9
764.015	1210.52
764.198	1114.27
764.381	1161.37
764.564	1104.03
764.748	1124.51
764.931	1112.22
765.114	1144.99
765.297	1067.16
765.481	1144.99
765.664	1089.69
765.847	1095.83
766.03	1124.51
766.213	1063.07
766.397	1106.07
766.58	1046.68
766.763	1085.59
766.946	970.91
767.129	1063.07
767.312	1101.98
767.495	1018.01
767.678	1038.49
767.861	956.57
768.044	1069.21
768.227	1038.49
768.41	1056.92
768.593	1063.07
768.776	1050.78
768.959	909.47
769.142	948.38
769.324	921.76
769.507	911.52
769.69	1081.5
769.873	903.32
770.056	1013.92
770.239	970.91
770.421	895.13
770.604	895.13
770.787	1003.68
770.97	977.05
771.152	848.03
771.335	938.14
771.518	899.23
771.7	987.29
771.883	911.52
772.066	829.6
772.248	864.41
772.431	940.19
772.613	833.69
772.796	866.46
772.978	827.55
773.161	848.03
773.343	843.93
773.526	944.28
773.708	876.7
773.891	880.8
774.073	882.85
774.256	911.52
774.438	921.76
774.621	764.06
774.803	837.79
774.985	821.41
775.168	833.69
775.35	721.06
775.532	766.11
775.715	796.83
775.897	776.35
776.079	823.45
776.261	770.21
776.444	708.77
776.626	819.36
776.808	788.64
776.99	833.69
777.173	725.15
777.355	696.48
777.537	794.78
777.719	698.53
777.901	780.45
778.083	759.97
778.265	743.58
778.447	655.52
778.629	700.58
778.811	692.38
778.993	700.58
779.175	688.29
779.357	669.86
779.539	682.14
779.721	723.1
779.903	719.01
780.085	676
780.267	657.57
780.449	659.62
780.631	608.42
780.812	702.62
780.994	669.86
781.176	583.84
781.358	622.75
781.54	624.8
781.721	645.28
781.903	512.16
782.085	579.75
782.267	620.71
782.448	645.28
782.63	667.81
782.812	579.75
782.993	589.99
783.175	587.94
783.357	510.11
783.538	635.04
783.72	608.42
783.901	594.08
784.083	594.08
784.264	516.26
784.446	569.51
784.627	559.27
784.809	559.27
784.99	553.12
785.172	503.97
785.353	520.35
785.535	499.88
785.716	534.69
785.897	438.44
786.079	469.16
786.26	456.87
786.441	467.11
786.623	495.78
786.804	530.59
786.985	497.83
787.167	506.02
787.348	454.82
787.529	536.74
787.71	520.35
787.891	497.83
788.073	377
788.254	383.14
788.435	420
788.616	434.34
788.797	432.29
788.978	465.06
789.159	497.83
789.34	469.16
789.522	403.62
789.703	463.01
789.884	348.33
790.065	417.96
790.246	530.59
790.427	434.34
790.607	463.01
790.788	411.81
790.969	387.24
791.15	399.52
791.331	360.61
791.512	434.34
791.693	358.57
791.874	389.28
792.054	426.15
792.235	370.85
792.416	413.86
792.597	311.46
792.778	311.46
792.958	432.29
793.139	383.14
793.32	368.81
793.5	417.96
793.681	385.19
793.862	311.46
794.042	379.04
794.223	315.56
794.404	352.42
794.584	329.89
794.765	411.81
794.945	397.48
795.126	346.28
795.306	331.94
795.487	385.19
795.667	387.24
795.848	358.57
796.028	381.09
796.209	342.18
796.389	364.71
796.57	379.04
796.75	325.8
796.93	331.94
797.111	340.13
797.291	327.85
797.471	321.7
797.652	278.69
797.832	219.3
798.012	446.63
798.192	270.5
798.373	297.13
798.553	282.79
798.733	370.85
798.913	319.65
799.093	245.93
799.274	348.33
799.454	329.89
799.634	288.93
799.814	268.45
799.994	260.26
800.174	266.41
800.354	293.03
800.534	243.88
800.714	338.09
800.894	262.31
801.074	231.59
801.254	200.87
801.434	323.75
801.614	252.07
801.794	256.17
801.974	696.48
802.154	276.65
802.334	297.13
802.514	247.97
802.693	243.88
802.873	250.02
803.053	247.97
803.233	284.84
803.413	301.22
803.592	233.64
803.772	284.84
803.952	239.78
804.131	231.59
804.311	262.31
804.491	301.22
804.67	272.55
804.85	278.69
805.03	303.27
805.209	268.45
805.389	143.53
805.568	227.5
805.748	276.65
805.928	278.69
806.107	237.74
806.287	217.26
806.466	252.07
806.646	211.11
806.825	168.1
807.004	190.63
807.184	231.59
807.363	235.69
807.543	241.83
807.722	182.44
807.901	237.74
808.081	209.06
808.26	184.49
808.439	209.06
808.619	237.74
808.798	153.77
808.977	202.92
809.156	266.41
809.336	225.45
809.515	299.17
809.694	123.05
809.873	252.07
810.052	239.78
810.231	286.89
810.411	186.54
810.59	254.12
810.769	161.96
810.948	223.4
811.127	207.02
811.306	145.58
811.485	186.54
811.664	211.11
811.843	211.11
812.022	247.97
812.201	170.15
812.38	258.21
812.559	256.17
812.737	182.44
812.916	153.77
813.095	188.58
813.274	118.95
813.453	213.16
813.632	219.3
813.811	198.82
813.989	176.3
814.168	194.73
814.347	153.77
814.526	172.2
814.704	200.87
814.883	153.77
815.062	182.44
815.24	174.25
815.419	227.5
815.598	190.63
815.776	75.95
815.955	168.1
816.133	137.38
816.312	137.38
816.49	114.86
816.669	182.44
816.847	96.43
817.026	149.67
817.204	170.15
817.383	172.2
817.561	139.43
817.74	176.3
817.918	209.06
818.097	125.1
818.275	112.81
818.453	190.63
818.632	129.19
818.81	125.1
818.988	192.68
819.167	227.5
819.345	141.48
819.523	123.05
819.701	65.71
819.879	157.86
820.058	172.2
820.236	151.72
820.414	86.19
820.592	155.82
820.77	211.11
820.948	182.44
821.127	174.25
821.305	121
821.483	137.38
821.661	157.86
821.839	186.54
822.017	166.06
822.195	112.81
822.373	178.34
822.551	63.66
822.729	145.58
822.907	141.48
823.085	106.67
823.262	123.05
823.44	133.29
823.618	137.38
823.796	204.97
823.974	108.71
824.152	145.58
824.329	131.24
824.507	98.47
824.685	157.86
824.863	121
825.04	104.62
825.218	141.48
825.396	98.47
825.574	166.06
825.751	135.34
825.929	180.39
826.107	71.85
826.284	80.04
826.462	77.99
826.639	10.41
826.817	102.57
826.994	139.43
827.172	92.33
827.349	145.58
827.527	88.23
827.704	92.33
827.882	125.1
828.059	141.48
828.237	121
828.414	133.29
828.591	98.47
828.769	69.8
828.946	69.8
829.124	118.95
829.301	166.06
829.478	116.9
829.655	104.62
829.833	104.62
830.01	63.66
830.187	100.52
830.364	53.42
830.542	108.71
830.719	135.34
830.896	57.51
831.073	71.85
831.25	137.38
831.427	69.8
831.604	86.19
831.782	73.9
831.959	94.38
832.136	114.86
832.313	104.62
832.49	80.04
832.667	90.28
832.844	82.09
833.021	127.14
833.198	86.19
833.374	71.85
833.551	153.77
833.728	92.33
833.905	118.95
834.082	84.14
834.259	82.09
834.436	129.19
834.612	61.61
834.789	123.05
834.966	133.29
835.143	116.9
835.319	49.32
835.496	92.33
835.673	102.57
835.85	59.56
836.026	98.47
836.203	100.52
836.38	51.37
836.556	88.23
836.733	47.27
836.909	53.42
837.086	37.03
837.262	73.9
837.439	98.47
837.616	61.61
837.792	180.39
837.968	53.42
838.145	69.8
838.321	82.09
838.498	34.99
838.674	118.95
838.851	45.23
839.027	63.66
839.203	112.81
839.38	57.51
839.556	12.46
839.732	114.86
839.909	16.55
840.085	63.66
840.261	14.51
840.437	90.28
840.614	118.95
840.79	147.62
840.966	71.85
841.142	39.08
841.318	116.9
841.494	80.04
841.671	24.75
841.847	73.9
842.023	51.37
842.199	37.03
842.375	112.81
842.551	-12.12
842.727	121
842.903	108.71
843.079	47.27
843.255	59.56
843.431	104.62
843.607	190.63
843.783	49.32
843.959	108.71
844.134	100.52
844.31	164.01
844.486	43.18
844.662	71.85
844.838	96.43
845.013	0.17
845.189	125.1
845.365	88.23
845.541	-59.22
845.716	129.19
845.892	24.75
846.068	65.71
846.244	63.66
846.419	65.71
846.595	73.9
846.77	108.71
846.946	69.8
847.122	-22.36
847.297	88.23
847.473	86.19
847.648	61.61
847.824	102.57
847.999	2.22
848.175	-8.02
848.35	39.08
848.526	90.28
848.701	57.51
848.876	67.75
849.052	151.72
849.227	67.75
849.403	63.66
849.578	22.7
849.753	12.46
849.929	34.99
850.104	8.36
850.279	84.14
850.454	121
850.63	71.85
850.805	16.55
850.98	22.7
851.155	-3.93
851.33	8.36
851.505	67.75
851.681	65.71
851.856	112.81
852.031	24.75
852.206	75.95
852.381	55.47
852.556	14.51
852.731	71.85
852.906	67.75
853.081	-12.12
853.256	63.66
853.431	71.85
853.606	2.22
853.781	30.89
853.956	32.94
854.131	133.29
854.305	69.8
854.48	137.38
854.655	-46.93
854.83	67.75
855.005	67.75
855.18	59.56
855.354	41.13
855.529	-61.27
855.704	24.75
855.879	82.09
856.053	34.99
856.228	22.7
856.403	45.23
856.577	63.66
856.752	0.17
856.926	-10.07
857.101	88.23
857.276	112.81
857.45	73.9
857.625	-32.6
857.799	55.47
857.974	4.27
858.148	-1.88
858.323	4.27
858.497	24.75
858.672	51.37
858.846	-10.07
859.02	8.36
859.195	61.61
859.369	6.31
859.543	34.99
859.718	49.32
859.892	77.99
860.066	69.8
860.241	51.37
860.415	16.55
860.589	-24.4
860.763	59.56
860.938	90.28
861.112	-57.17
861.286	43.18
861.46	14.51
861.634	24.75
861.808	14.51
861.982	-14.17
862.157	4.27
862.331	37.03
862.505	-1.88
862.679	18.6
862.853	6.31
863.027	34.99
863.201	18.6
863.375	69.8
863.549	71.85
863.722	71.85
863.896	47.27
864.07	32.94
864.244	8.36
864.418	-18.26
864.592	12.46
864.766	4.27
864.939	-28.5
865.113	-57.17
865.287	34.99
865.461	34.99
865.634	45.23
865.808	65.71
865.982	37.03
866.156	28.84
866.329	26.79
866.503	59.56
866.676	96.43
866.85	0.17
867.024	73.9
867.197	65.71
867.371	2.22
867.544	-14.17
867.718	26.79
867.891	47.27
868.065	24.75
868.238	88.23
868.412	28.84
868.585	20.65
868.759	55.47
868.932	98.47
869.105	6.31
869.279	-8.02
869.452	39.08
869.625	45.23
869.799	10.41
869.972	-18.26
870.145	67.75
870.319	30.89
870.492	-14.17
870.665	-22.36
870.838	51.37
871.011	-22.36
871.185	75.95
871.358	22.7
871.531	71.85
871.704	-20.31
871.877	45.23
872.05	18.6
872.223	26.79
872.396	110.76
872.569	26.79
872.742	-34.64
872.915	59.56
873.088	24.75
873.261	2.22
873.434	-16.21
873.607	53.42
873.78	26.79
873.953	32.94
874.126	55.47
874.299	28.84
874.471	14.51
874.644	-16.21
874.817	69.8
874.99	84.14
875.163	-14.17
875.335	-20.31
875.508	12.46
875.681	39.08
875.853	-1.88
876.026	-59.22
876.199	71.85
876.371	65.71
876.544	108.71
876.717	2.22
876.889	84.14
877.062	22.7
877.234	-22.36
877.407	6.31
877.579	8.36
877.752	39.08
877.924	-1.88
878.097	20.65
878.269	26.79
878.442	49.32
878.614	63.66
878.786	18.6
878.959	41.13
879.131	92.33
879.303	-12.12
879.476	-5.97
879.648	-32.6
879.82	71.85
879.993	41.13
880.165	32.94
880.337	16.55
880.509	-8.02
880.681	4.27
880.854	-3.93
881.026	-12.12
881.198	86.19
881.37	8.36
881.542	59.56
881.714	34.99
881.886	28.84
882.058	-3.93
882.23	73.9
882.402	43.18
882.574	24.75
882.746	96.43
882.918	24.75
883.09	32.94
883.262	55.47
883.434	37.03
883.606	6.31
883.778	22.7
883.95	41.13
884.122	24.75
884.293	55.47
884.465	-40.79
884.637	55.47
884.809	-40.79
884.98	47.27
885.152	47.27
885.324	-61.27
885.496	-8.02
885.667	2.22
885.839	-20.31
886.011	92.33
886.182	88.23
886.354	39.08
886.525	-20.31
886.697	-40.79
886.869	-10.07
887.04	-18.26
887.212	47.27
887.383	32.94
887.555	-26.45
887.726	63.66
887.897	8.36
888.069	39.08
888.24	28.84
888.412	30.89
888.583	14.51
888.754	18.6
888.926	12.46
889.097	16.55
889.268	14.51
889.44	24.75
889.611	22.7
889.782	-30.55
889.953	-40.79
890.125	-5.97
890.296	41.13
890.467	63.66
890.638	55.47
890.809	43.18
890.98	-34.64
891.151	-20.31
891.323	94.38
891.494	28.84
891.665	47.27
891.836	24.75
892.007	45.23
892.178	34.99
892.349	-14.17
892.52	-12.12
892.691	-38.74
892.862	84.14
893.032	45.23
893.203	16.55
893.374	22.7
893.545	18.6
893.716	22.7
893.887	71.85
894.057	30.89
894.228	118.95
894.399	-46.93
894.57	2.22
894.74	41.13
894.911	55.47
895.082	53.42
895.253	18.6
895.423	10.41
895.594	-28.5
895.764	16.55
895.935	-16.21
896.106	-10.07
896.276	61.61
896.447	84.14
896.617	4.27
896.788	-18.26
896.958	30.89
897.129	-22.36
897.299	32.94
897.47	34.99
897.64	34.99
897.81	73.9
897.981	12.46
898.151	-67.41
898.322	55.47
898.492	-30.55
898.662	10.41
898.832	24.75
899.003	20.65
899.173	55.47
899.343	39.08
899.513	43.18
