Data from USB4F104151__124__11-07-31-343.txt Node

Date: Wed Mar 12 11:07:31 EDT 2025
User: louis
Spectrometer: USB4F10415
Trigger mode: 4
Integration Time (sec): 2.000000E-2
Scans to average: 1
Electric dark correction enabled: true
Nonlinearity correction enabled: false
Boxcar width: 0
XAxis mode: Wavelengths
Number of Pixels in Spectrum: 3648
>>>>>Begin Spectral Data<<<<<
178.204	-44.2
178.424	-44.2
178.644	-44.2
178.864	-40.11
179.084	-126.12
179.304	-13.48
179.524	27.48
179.744	15.19
179.964	25.43
180.184	70.48
180.404	13.14
180.624	-50.35
180.844	17.24
181.064	-11.43
181.283	-36.01
181.503	-36.01
181.723	-21.67
181.943	-56.49
182.163	9.05
182.383	2.9
182.602	-9.39
182.822	-17.58
183.042	-15.53
183.262	-27.82
183.482	25.43
183.701	35.67
183.921	17.24
184.141	-48.3
184.361	21.33
184.58	-66.73
184.8	56.15
185.02	45.91
185.239	82.77
185.459	39.76
185.679	50
185.898	31.57
186.118	25.43
186.338	72.53
186.557	60.24
186.777	76.63
186.997	19.29
187.216	19.29
187.436	82.77
187.655	4.95
187.875	60.24
188.095	35.67
188.314	13.14
188.534	21.33
188.753	35.67
188.973	9.05
189.192	15.19
189.412	-19.63
189.631	7
189.851	2.9
190.07	31.57
190.29	7
190.509	-33.96
190.729	70.48
190.948	52.05
191.168	99.16
191.387	-9.39
191.607	-29.87
191.826	25.43
192.045	13.14
192.265	35.67
192.484	-25.77
192.704	11.09
192.923	54.1
193.142	74.58
193.362	74.58
193.581	17.24
193.8	60.24
194.02	11.09
194.239	119.64
194.458	-81.07
194.678	31.57
194.897	90.96
195.116	54.1
195.335	-64.68
195.555	82.77
195.774	23.38
195.993	64.34
196.212	43.86
196.432	39.76
196.651	117.59
196.87	29.52
197.089	7
197.308	17.24
197.528	2.9
197.747	37.72
197.966	-27.82
198.185	17.24
198.404	-11.43
198.623	84.82
198.842	-23.72
199.062	-15.53
199.281	39.76
199.5	21.33
199.719	2.9
199.938	88.92
200.157	25.43
200.376	11.09
200.595	56.15
200.814	0.85
201.033	33.62
201.252	52.05
201.471	-1.19
201.69	123.73
201.909	95.06
202.128	60.24
202.347	50
202.566	76.63
202.785	84.82
203.004	11.09
203.223	113.49
203.442	13.14
203.661	43.86
203.879	-31.91
204.098	103.25
204.317	21.33
204.536	97.11
204.755	7
204.974	52.05
205.193	-40.11
205.411	88.92
205.63	-15.53
205.849	19.29
206.068	64.34
206.287	54.1
206.505	33.62
206.724	-60.59
206.943	29.52
207.162	54.1
207.381	21.33
207.599	47.96
207.818	4.95
208.037	35.67
208.255	58.2
208.474	21.33
208.693	31.57
208.911	33.62
209.13	11.09
209.349	-11.43
209.567	4.95
209.786	-38.06
210.005	15.19
210.223	64.34
210.442	23.38
210.661	88.92
210.879	101.2
211.098	-5.29
211.316	78.68
211.535	11.09
211.753	17.24
211.972	52.05
212.191	74.58
212.409	2.9
212.628	47.96
212.846	-1.19
213.065	-25.77
213.283	64.34
213.502	68.44
213.72	68.44
213.938	37.72
214.157	-46.25
214.375	52.05
214.594	-42.15
214.812	95.06
215.031	19.29
215.249	13.14
215.467	35.67
215.686	-66.73
215.904	29.52
216.122	37.72
216.341	56.15
216.559	17.24
216.778	54.1
216.996	-3.24
217.214	43.86
217.432	-21.67
217.651	-66.73
217.869	35.67
218.087	13.14
218.306	-33.96
218.524	70.48
218.742	47.96
218.96	56.15
219.179	-36.01
219.397	62.29
219.615	58.2
219.833	29.52
220.051	-1.19
220.27	115.54
220.488	70.48
220.706	-15.53
220.924	19.29
221.142	82.77
221.36	4.95
221.578	31.57
221.796	17.24
222.015	56.15
222.233	37.72
222.451	80.72
222.669	-5.29
222.887	9.05
223.105	-29.87
223.323	43.86
223.541	-27.82
223.759	21.33
223.977	27.48
224.195	54.1
224.413	35.67
224.631	-33.96
224.849	74.58
225.067	64.34
225.285	25.43
225.503	43.86
225.721	-23.72
225.939	39.76
226.157	19.29
226.375	68.44
226.592	-27.82
226.81	-21.67
227.028	66.39
227.246	56.15
227.464	52.05
227.682	-13.48
227.9	88.92
228.117	50
228.335	64.34
228.553	-38.06
228.771	21.33
228.989	74.58
229.206	39.76
229.424	29.52
229.642	37.72
229.86	29.52
230.077	82.77
230.295	-33.96
230.513	105.3
230.731	37.72
230.948	-3.24
231.166	9.05
231.384	4.95
231.601	-25.77
231.819	72.53
232.037	29.52
232.254	4.95
232.472	31.57
232.689	-7.34
232.907	21.33
233.125	-36.01
233.342	-1.19
233.56	70.48
233.777	-38.06
233.995	27.48
234.213	88.92
234.43	-5.29
234.648	15.19
234.865	78.68
235.083	-15.53
235.3	2.9
235.518	27.48
235.735	52.05
235.953	70.48
236.17	4.95
236.388	54.1
236.605	13.14
236.822	80.72
237.04	64.34
237.257	17.24
237.475	35.67
237.692	31.57
237.909	58.2
238.127	47.96
238.344	58.2
238.562	15.19
238.779	-19.63
238.996	19.29
239.214	-36.01
239.431	86.87
239.648	13.14
239.865	-7.34
240.083	15.19
240.3	41.81
240.517	25.43
240.735	15.19
240.952	60.24
241.169	56.15
241.386	111.44
241.603	21.33
241.821	-7.34
242.038	47.96
242.255	37.72
242.472	-1.19
242.689	25.43
242.907	50
243.124	-1.19
243.341	-5.29
243.558	95.06
243.775	-33.96
243.992	35.67
244.209	72.53
244.426	74.58
244.643	47.96
244.86	37.72
245.078	64.34
245.295	37.72
245.512	72.53
245.729	-9.39
245.946	88.92
246.163	52.05
246.38	45.91
246.597	58.2
246.814	58.2
247.031	54.1
247.248	68.44
247.464	41.81
247.681	31.57
247.898	39.76
248.115	109.4
248.332	64.34
248.549	54.1
248.766	76.63
248.983	68.44
249.2	66.39
249.417	37.72
249.633	33.62
249.85	54.1
250.067	-13.48
250.284	33.62
250.501	47.96
250.717	11.09
250.934	15.19
251.151	-1.19
251.368	2.9
251.585	9.05
251.801	70.48
252.018	19.29
252.235	70.48
252.451	2.9
252.668	29.52
252.885	93.01
253.102	115.54
253.318	17.24
253.535	-33.96
253.752	2.9
253.968	13.14
254.185	-23.72
254.401	37.72
254.618	31.57
254.835	21.33
255.051	-11.43
255.268	47.96
255.484	45.91
255.701	15.19
255.917	17.24
256.134	15.19
256.351	76.63
256.567	-25.77
256.784	13.14
257	60.24
257.217	56.15
257.433	56.15
257.65	66.39
257.866	78.68
258.082	35.67
258.299	33.62
258.515	23.38
258.732	-25.77
258.948	-9.39
259.165	17.24
259.381	29.52
259.597	70.48
259.814	39.76
260.03	19.29
260.246	54.1
260.463	121.68
260.679	88.92
260.895	-1.19
261.112	93.01
261.328	7
261.544	-5.29
261.761	74.58
261.977	-17.58
262.193	70.48
262.409	45.91
262.626	41.81
262.842	56.15
263.058	64.34
263.274	17.24
263.49	-3.24
263.707	60.24
263.923	-13.48
264.139	37.72
264.355	29.52
264.571	25.43
264.787	-1.19
265.004	95.06
265.22	35.67
265.436	-3.24
265.652	43.86
265.868	-7.34
266.084	4.95
266.3	9.05
266.516	29.52
266.732	11.09
266.948	15.19
267.164	47.96
267.38	52.05
267.596	-13.48
267.812	90.96
268.028	97.11
268.244	62.29
268.46	109.4
268.676	-21.67
268.892	-13.48
269.108	-44.2
269.324	7
269.54	45.91
269.756	35.67
269.972	33.62
270.188	76.63
270.403	56.15
270.619	29.52
270.835	52.05
271.051	115.54
271.267	76.63
271.483	93.01
271.698	15.19
271.914	19.29
272.13	74.58
272.346	47.96
272.562	74.58
272.777	-11.43
272.993	62.29
273.209	138.07
273.425	45.91
273.64	39.76
273.856	23.38
274.072	39.76
274.287	33.62
274.503	103.25
274.719	78.68
274.934	54.1
275.15	-66.73
275.366	97.11
275.581	37.72
275.797	15.19
276.012	2.9
276.228	72.53
276.444	68.44
276.659	39.76
276.875	-11.43
277.09	31.57
277.306	33.62
277.521	31.57
277.737	76.63
277.952	66.39
278.168	60.24
278.383	43.86
278.599	47.96
278.814	17.24
279.03	21.33
279.245	103.25
279.461	-36.01
279.676	82.77
279.892	29.52
280.107	43.86
280.322	-48.3
280.538	37.72
280.753	33.62
280.969	58.2
281.184	101.2
281.399	93.01
281.615	80.72
281.83	50
282.045	-23.72
282.26	23.38
282.476	47.96
282.691	-15.53
282.906	-46.25
283.122	27.48
283.337	15.19
283.552	11.09
283.767	54.1
283.983	56.15
284.198	78.68
284.413	60.24
284.628	29.52
284.843	101.2
285.058	37.72
285.274	72.53
285.489	19.29
285.704	4.95
285.919	37.72
286.134	125.78
286.349	15.19
286.564	119.64
286.779	45.91
286.995	-3.24
287.21	43.86
287.425	54.1
287.64	9.05
287.855	99.16
288.07	-9.39
288.285	93.01
288.5	72.53
288.715	23.38
288.93	76.63
289.145	11.09
289.36	33.62
289.575	4.95
289.79	47.96
290.004	-31.91
290.219	76.63
290.434	43.86
290.649	39.76
290.864	27.48
291.079	50
291.294	97.11
291.509	60.24
291.724	43.86
291.938	74.58
292.153	37.72
292.368	33.62
292.583	41.81
292.798	64.34
293.012	33.62
293.227	54.1
293.442	15.19
293.657	64.34
293.871	43.86
294.086	52.05
294.301	84.82
294.516	82.77
294.73	13.14
294.945	-1.19
295.16	33.62
295.374	23.38
295.589	35.67
295.804	56.15
296.018	-9.39
296.233	37.72
296.447	88.92
296.662	-17.58
296.877	52.05
297.091	58.2
297.306	23.38
297.52	27.48
297.735	68.44
297.949	-9.39
298.164	58.2
298.378	9.05
298.593	119.64
298.807	74.58
299.022	80.72
299.236	-7.34
299.451	37.72
299.665	-31.91
299.88	121.68
300.094	23.38
300.309	39.76
300.523	-7.34
300.737	70.48
300.952	-25.77
301.166	72.53
301.381	45.91
301.595	82.77
301.809	9.05
302.024	50
302.238	-1.19
302.452	45.91
302.667	52.05
302.881	68.44
303.095	-5.29
303.309	-21.67
303.524	29.52
303.738	54.1
303.952	62.29
304.166	-17.58
304.381	43.86
304.595	90.96
304.809	41.81
305.023	21.33
305.237	-44.2
305.452	-29.87
305.666	58.2
305.88	47.96
306.094	23.38
306.308	60.24
306.522	111.44
306.736	0.85
306.95	80.72
307.164	60.24
307.379	72.53
307.593	99.16
307.807	-1.19
308.021	76.63
308.235	47.96
308.449	84.82
308.663	43.86
308.877	78.68
309.091	60.24
309.305	47.96
309.519	78.68
309.733	97.11
309.947	35.67
310.161	54.1
310.374	25.43
310.588	2.9
310.802	-9.39
311.016	72.53
311.23	72.53
311.444	-5.29
311.658	43.86
311.872	66.39
312.085	52.05
312.299	29.52
312.513	37.72
312.727	78.68
312.941	27.48
313.154	52.05
313.368	7
313.582	23.38
313.796	103.25
314.009	123.73
314.223	-19.63
314.437	68.44
314.651	56.15
314.864	54.1
315.078	78.68
315.292	37.72
315.505	-38.06
315.719	60.24
315.933	54.1
316.146	35.67
316.36	105.3
316.573	33.62
316.787	62.29
317.001	-1.19
317.214	9.05
317.428	43.86
317.641	-15.53
317.855	84.82
318.068	47.96
318.282	31.57
318.495	19.29
318.709	62.29
318.922	52.05
319.136	60.24
319.349	31.57
319.563	29.52
319.776	74.58
319.99	80.72
320.203	109.4
320.417	66.39
320.63	39.76
320.843	37.72
321.057	-21.67
321.27	31.57
321.483	9.05
321.697	121.68
321.91	103.25
322.124	138.07
322.337	58.2
322.55	45.91
322.763	56.15
322.977	47.96
323.19	-38.06
323.403	66.39
323.617	41.81
323.83	74.58
324.043	64.34
324.256	74.58
324.469	80.72
324.683	45.91
324.896	-79.02
325.109	11.09
325.322	7
325.535	97.11
325.748	21.33
325.962	35.67
326.175	37.72
326.388	76.63
326.601	25.43
326.814	2.9
327.027	52.05
327.24	115.54
327.453	-13.48
327.666	60.24
327.879	95.06
328.092	56.15
328.305	70.48
328.518	93.01
328.731	-15.53
328.944	107.35
329.157	15.19
329.37	2.9
329.583	-9.39
329.796	50
330.009	-42.15
330.222	82.77
330.435	60.24
330.648	7
330.861	47.96
331.073	138.07
331.286	117.59
331.499	68.44
331.712	43.86
331.925	93.01
332.138	27.48
332.35	39.76
332.563	-50.35
332.776	23.38
332.989	60.24
333.202	99.16
333.414	25.43
333.627	17.24
333.84	45.91
334.053	136.02
334.265	-58.54
334.478	76.63
334.691	105.3
334.903	68.44
335.116	84.82
335.329	-17.58
335.541	52.05
335.754	58.2
335.966	2.9
336.179	58.2
336.392	11.09
336.604	-5.29
336.817	39.76
337.029	43.86
337.242	35.67
337.454	76.63
337.667	78.68
337.88	70.48
338.092	127.83
338.305	33.62
338.517	-1.19
338.729	17.24
338.942	-19.63
339.154	125.78
339.367	13.14
339.579	117.59
339.792	60.24
340.004	97.11
340.217	15.19
340.429	2.9
340.641	66.39
340.854	66.39
341.066	125.78
341.278	144.21
341.491	23.38
341.703	23.38
341.915	17.24
342.128	56.15
342.34	-1.19
342.552	13.14
342.764	54.1
342.977	27.48
343.189	7
343.401	72.53
343.613	29.52
343.826	7
344.038	29.52
344.25	35.67
344.462	68.44
344.674	99.16
344.886	11.09
345.099	101.2
345.311	35.67
345.523	21.33
345.735	13.14
345.947	56.15
346.159	54.1
346.371	70.48
346.583	29.52
346.795	90.96
347.007	54.1
347.219	7
347.431	50
347.643	93.01
347.855	13.14
348.067	125.78
348.279	39.76
348.491	107.35
348.703	39.76
348.915	13.14
349.127	11.09
349.339	80.72
349.551	23.38
349.763	84.82
349.975	-21.67
350.187	95.06
350.399	54.1
350.61	-5.29
350.822	125.78
351.034	2.9
351.246	7
351.458	11.09
351.669	97.11
351.881	76.63
352.093	93.01
352.305	7
352.517	66.39
352.728	50
352.94	56.15
353.152	39.76
353.363	97.11
353.575	60.24
353.787	-17.58
353.999	43.86
354.21	35.67
354.422	60.24
354.633	72.53
354.845	21.33
355.057	29.52
355.268	-5.29
355.48	35.67
355.692	7
355.903	101.2
356.115	-9.39
356.326	-33.96
356.538	2.9
356.749	107.35
356.961	58.2
357.172	29.52
357.384	127.83
357.595	41.81
357.807	43.86
358.018	76.63
358.23	84.82
358.441	21.33
358.653	90.96
358.864	13.14
359.075	23.38
359.287	70.48
359.498	113.49
359.709	45.91
359.921	-40.11
360.132	80.72
360.344	29.52
360.555	86.87
360.766	86.87
360.977	88.92
361.189	111.44
361.4	39.76
361.611	74.58
361.823	93.01
362.034	70.48
362.245	93.01
362.456	88.92
362.667	62.29
362.879	99.16
363.09	97.11
363.301	4.95
363.512	138.07
363.723	68.44
363.935	52.05
364.146	103.25
364.357	43.86
364.568	76.63
364.779	-5.29
364.99	43.86
365.201	37.72
365.412	45.91
365.623	2.9
365.834	97.11
366.045	31.57
366.256	45.91
366.467	25.43
366.678	-27.82
366.889	33.62
367.1	95.06
367.311	66.39
367.522	107.35
367.733	72.53
367.944	95.06
368.155	37.72
368.366	54.1
368.577	56.15
368.788	99.16
368.999	11.09
369.209	19.29
369.42	136.02
369.631	146.26
369.842	29.52
370.053	99.16
370.264	72.53
370.474	25.43
370.685	7
370.896	33.62
371.107	111.44
371.317	76.63
371.528	54.1
371.739	27.48
371.95	60.24
372.16	68.44
372.371	-5.29
372.582	45.91
372.792	101.2
373.003	13.14
373.214	93.01
373.424	99.16
373.635	76.63
373.846	50
374.056	97.11
374.267	129.88
374.477	21.33
374.688	29.52
374.898	64.34
375.109	127.83
375.319	64.34
375.53	88.92
375.74	84.82
375.951	111.44
376.161	-33.96
376.372	-13.48
376.582	95.06
376.793	64.34
377.003	105.3
377.214	41.81
377.424	35.67
377.635	166.74
377.845	62.29
378.055	154.45
378.266	47.96
378.476	25.43
378.686	52.05
378.897	84.82
379.107	31.57
379.317	140.12
379.528	13.14
379.738	72.53
379.948	31.57
380.158	93.01
380.369	47.96
380.579	33.62
380.789	-3.24
380.999	60.24
381.21	207.7
381.42	70.48
381.63	52.05
381.84	97.11
382.05	125.78
382.261	109.4
382.471	93.01
382.681	31.57
382.891	37.72
383.101	88.92
383.311	105.3
383.521	97.11
383.731	82.77
383.941	136.02
384.151	19.29
384.361	86.87
384.571	146.26
384.781	76.63
384.991	88.92
385.201	103.25
385.411	84.82
385.621	111.44
385.831	115.54
386.041	23.38
386.251	11.09
386.461	117.59
386.671	21.33
386.881	13.14
387.091	37.72
387.301	105.3
387.511	54.1
387.72	74.58
387.93	115.54
388.14	103.25
388.35	52.05
388.56	84.82
388.769	74.58
388.979	70.48
389.189	45.91
389.399	64.34
389.609	43.86
389.818	140.12
390.028	50
390.238	131.92
390.447	64.34
390.657	148.31
390.867	76.63
391.076	97.11
391.286	78.68
391.496	127.83
391.705	50
391.915	60.24
392.125	101.2
392.334	86.87
392.544	138.07
392.753	160.59
392.963	43.86
393.172	117.59
393.382	88.92
393.591	125.78
393.801	47.96
394.01	88.92
394.22	105.3
394.429	125.78
394.639	156.5
394.848	88.92
395.058	113.49
395.267	138.07
395.477	160.59
395.686	133.97
395.895	142.16
396.105	107.35
396.314	127.83
396.524	181.07
396.733	111.44
396.942	181.07
397.152	117.59
397.361	105.3
397.57	123.73
397.78	93.01
397.989	154.45
398.198	197.46
398.407	150.36
398.617	129.88
398.826	111.44
399.035	154.45
399.244	144.21
399.453	107.35
399.663	193.36
399.872	133.97
400.081	43.86
400.29	201.55
400.499	117.59
400.708	142.16
400.917	80.72
401.127	109.4
401.336	183.12
401.545	154.45
401.754	213.84
401.963	195.41
402.172	105.3
402.381	125.78
402.59	144.21
402.799	164.69
403.008	146.26
403.217	176.98
403.426	222.03
403.635	152.4
403.844	215.89
404.053	181.07
404.262	164.69
404.471	209.75
404.68	252.75
404.888	226.13
405.097	103.25
405.306	262.99
405.515	199.51
405.724	158.55
405.933	224.08
406.142	236.37
406.35	230.23
406.559	258.9
406.768	224.08
406.977	267.09
407.185	250.71
407.394	252.75
407.603	234.32
407.812	387.92
408.02	357.2
408.229	299.86
408.438	273.23
408.646	344.91
408.855	248.66
409.064	338.77
409.272	375.63
409.481	306
409.69	408.4
409.898	404.3
410.107	355.15
410.315	432.97
410.524	385.87
410.733	539.47
410.941	545.61
411.15	453.45
411.358	516.94
411.567	494.41
411.775	535.37
411.984	510.8
412.192	605
412.401	551.76
412.609	590.67
412.818	680.78
413.026	664.4
413.234	738.12
413.443	662.35
413.651	746.31
413.86	756.55
414.068	826.18
414.276	858.95
414.485	852.81
414.693	828.23
414.901	1004.36
415.11	901.96
415.318	992.07
415.526	971.59
415.734	1073.99
415.943	996.17
416.151	1073.99
416.359	1168.2
416.567	1127.24
416.776	1213.25
416.984	1338.18
417.192	1305.41
417.4	1332.03
417.608	1315.65
417.817	1409.86
418.025	1534.78
418.233	1549.12
418.441	1469.25
418.649	1682.24
418.857	1733.43
419.065	1710.91
419.273	1708.86
419.481	1805.11
419.689	1987.38
419.897	1962.81
420.105	2057.01
420.313	2210.61
420.521	2239.28
420.729	2292.53
420.937	2288.43
421.145	2333.49
421.353	2569.01
421.561	2683.69
421.769	2771.76
421.977	2822.95
422.185	2753.32
422.393	3052.33
422.601	3158.82
422.809	3187.49
423.017	3347.23
423.224	3275.56
423.432	3451.68
423.64	3293.99
423.848	3695.39
424.056	3674.91
424.263	3898.14
424.471	3928.86
424.679	3937.05
424.887	4272.92
425.094	4338.45
425.302	4379.41
425.51	4393.75
425.718	4475.67
425.925	4805.39
426.133	4844.3
426.341	5200.65
426.548	5397.25
426.756	5249.8
426.964	5329.67
427.171	5817.08
427.379	6058.74
427.586	6005.5
427.794	6200.05
428.001	6468.34
428.209	6798.06
428.417	6540.02
428.624	7043.82
428.832	7281.38
429.039	6937.32
429.247	7035.63
429.454	7688.93
429.662	8270.55
429.869	7643.87
430.076	8366.81
430.284	8131.29
430.491	8354.52
430.699	8886.99
430.906	9110.22
431.114	8923.85
431.321	9448.13
431.528	9591.49
431.736	10113.72
431.943	10551.99
432.15	10478.26
432.358	10425.01
432.565	11203.24
432.772	10926.77
432.979	11410.09
433.187	11686.56
433.394	11852.45
433.601	12468.89
433.808	12567.19
434.016	12511.89
434.223	12817.04
434.43	13795.97
434.637	13550.21
434.844	14451.32
435.052	14703.22
435.259	14555.77
435.466	14779
435.673	14658.17
435.88	15600.23
436.087	16288.35
436.294	16415.32
436.501	15950.43
436.708	16306.78
436.915	17033.81
437.122	17613.38
437.329	17748.55
437.537	18117.18
437.743	18668.09
437.95	18336.32
438.157	19339.82
438.364	19847.72
438.571	19778.09
438.778	19913.25
438.985	22153.73
439.192	20869.65
439.399	21651.98
439.606	21262.86
439.813	22022.66
440.02	23861.74
440.227	23452.14
440.433	22938.1
440.64	23747.05
440.847	23814.63
441.054	24158.69
441.261	25696.72
441.467	25289.17
441.674	26044.87
441.881	27031.99
442.088	26618.3
442.294	26429.89
442.501	27423.15
442.708	27849.13
442.914	28991.9
443.121	30179.72
443.328	29446.55
443.534	31627.63
443.741	30708.1
443.948	30460.29
444.154	32434.53
444.361	32158.06
444.568	32350.57
444.774	32477.54
444.981	32639.33
445.187	33947.98
445.394	35240.25
445.6	35035.45
445.807	38023.44
446.013	36290.86
446.22	36792.61
446.426	38396.17
446.633	38748.42
446.839	39971.06
447.046	38371.6
447.252	40591.59
447.459	40526.06
447.665	40304.88
447.871	41965.78
448.078	43567.29
448.284	41685.21
448.491	42686.67
448.697	44214.45
448.903	44888.23
449.11	45273.25
449.316	44236.98
449.522	45301.92
449.728	46313.62
449.935	46659.73
450.141	46330
450.347	47337.6
450.553	46092.44
450.76	46475.41
450.966	47990.91
451.172	47558.78
451.378	48799.85
451.584	48369.78
451.791	49037.42
451.997	48752.75
452.203	49504.35
452.409	49209.45
452.615	49274.98
452.821	47093.89
453.027	46878.86
453.233	49193.06
453.44	47261.83
453.646	47665.28
453.852	48279.67
454.058	48500.85
454.264	46989.45
454.47	47947.9
454.676	46903.43
454.882	48511.09
455.088	43980.98
455.294	45256.87
455.5	45318.31
455.705	45944.98
455.911	44146.87
456.117	42938.57
456.323	42606.8
456.529	40628.46
456.735	42139.86
456.941	41246.94
457.147	40397.04
457.352	39409.92
457.558	38766.85
457.764	38758.66
457.97	37792.02
458.176	37349.66
458.381	37374.24
458.587	35664.18
458.793	35385.66
458.999	33696.08
459.204	35834.16
459.41	34928.96
459.616	32567.65
459.821	32706.91
460.027	32588.13
460.233	32026.99
460.438	30456.2
460.644	30593.41
460.85	29391.25
461.055	28836.25
461.261	28875.16
461.466	27013.56
461.672	25618.89
461.878	27642.29
462.083	25989.58
462.289	25709.01
462.494	25459.15
462.7	24146.4
462.905	23634.41
463.111	24152.55
463.316	24541.66
463.522	23757.29
463.727	23792.11
463.932	23824.87
464.138	23648.75
464.343	23861.74
464.549	23120.37
464.754	24146.4
464.959	23497.2
465.165	23151.09
465.37	22422.02
465.575	21783.05
465.781	22663.68
465.986	22944.25
466.191	22034.95
466.397	21668.36
466.602	20537.88
466.807	21363.22
467.012	21496.33
467.218	21084.69
467.423	20959.77
467.628	21049.88
467.833	21666.31
468.038	21160.47
468.244	20718.11
468.449	21303.82
468.654	20720.15
468.859	20611.61
469.064	20279.84
469.269	19235.38
469.474	19874.34
469.679	20247.07
469.885	19642.92
470.09	19831.33
470.295	19692.07
470.5	19323.44
470.705	19335.73
470.91	18645.56
471.115	18612.79
471.32	19180.08
471.525	18846.26
471.73	18670.14
471.935	18205.25
472.139	17517.13
472.344	17574.47
472.549	17715.78
472.754	17742.41
472.959	17054.29
473.164	16992.85
473.369	16570.97
473.574	17185.36
473.778	16980.56
473.983	16941.65
474.188	17019.47
474.393	16058.98
474.598	16198.24
474.802	15956.58
475.007	16083.55
475.212	15938.15
475.417	15315.56
475.621	15499.88
475.826	15288.94
476.031	15129.2
476.235	15094.38
476.44	15139.44
476.645	14502.52
476.849	14801.52
477.054	14705.27
477.259	14205.56
477.463	14412.41
477.668	13961.86
477.872	14365.31
478.077	13963.9
478.282	13460.1
478.486	13460.1
478.691	13419.14
478.895	13400.71
479.1	13263.5
479.304	13531.78
479.509	12911.25
479.713	13326.99
479.918	12987.02
480.122	12694.16
480.326	12880.53
480.531	12720.79
480.735	12720.79
480.94	12446.36
481.144	13046.41
481.348	12501.65
481.553	12602.01
481.757	12231.32
481.961	12647.06
482.166	12817.04
482.37	12751.51
482.574	12448.41
482.778	12104.35
482.983	12554.9
483.187	12477.08
483.391	12274.33
483.595	12362.39
483.8	12118.68
484.004	12370.58
484.208	12397.21
484.412	12366.49
484.616	12235.42
484.821	12495.51
485.025	12090.01
485.229	12548.76
485.433	12280.47
485.637	12225.18
485.841	12235.42
486.045	11981.47
486.249	12235.42
486.453	12040.86
486.657	12368.54
486.861	12307.1
487.065	11954.85
487.269	12362.39
487.473	12233.37
487.677	12386.97
487.881	12495.51
488.085	12214.94
488.289	12444.31
488.493	12458.65
488.697	12536.47
488.901	12348.06
489.105	12233.37
489.309	12391.06
489.512	12313.24
489.716	12397.21
489.92	12307.1
490.124	12595.86
490.328	12581.53
490.531	12554.9
490.735	12690.07
490.939	12622.48
491.143	12622.48
491.346	12702.36
491.55	12806.8
491.754	12864.15
491.958	12950.16
492.161	12606.1
492.365	12939.92
492.569	13015.69
492.772	12894.86
492.976	13265.55
493.18	13314.7
493.383	13462.15
493.587	13179.53
493.79	13462.15
493.994	13230.73
494.197	13460.1
494.401	13646.47
494.605	13609.61
494.808	14076.54
495.012	14185.08
495.215	14054.01
495.419	14154.37
495.622	14060.16
495.825	14238.33
496.029	14301.82
496.232	14609.01
496.436	14502.52
496.639	15014.51
496.843	14858.87
497.046	15125.1
497.249	14938.74
497.453	15286.89
497.656	15571.56
497.859	15735.4
498.063	15706.73
498.266	16054.88
498.469	15819.36
498.673	16192.09
498.876	16382.56
499.079	16476.76
499.282	16624.22
499.485	17105.49
499.689	17187.41
499.892	17228.37
500.095	17252.94
500.298	18000.45
500.501	17390.16
500.705	18010.69
500.908	18258.49
501.111	18674.23
501.314	18680.38
501.517	18508.35
501.72	18852.41
501.923	18874.93
502.126	19454.51
502.329	19579.43
502.532	19528.24
502.735	19896.87
502.938	20113.95
503.141	20101.67
503.344	20324.9
503.547	20464.16
503.75	20972.05
503.953	21443.09
504.156	21326.35
504.359	21506.57
504.562	21848.58
504.765	22438.4
504.968	22356.48
505.17	22837.75
505.373	22678.01
505.576	23525.87
505.779	23366.13
505.982	23732.72
506.185	23988.71
506.387	23902.7
506.59	24035.81
506.793	24971.74
506.996	24668.64
507.198	25299.41
507.401	25113.05
507.604	25373.14
507.807	25899.47
508.009	26020.3
508.212	26223.05
508.415	26644.93
508.617	26599.87
508.82	26995.13
509.022	26771.9
509.225	27632.05
509.428	27582.9
509.63	28058.03
509.833	28436.9
510.035	28991.9
510.238	28907.93
510.44	28926.36
510.643	29553.04
510.845	29548.95
511.048	29827.47
511.25	29909.39
511.453	30427.53
511.655	31287.67
511.858	30947.71
512.06	31457.65
512.262	31883.63
512.465	31342.97
512.667	32072.04
512.87	32246.12
513.072	32631.14
513.274	33079.64
513.477	33538.39
513.679	33603.92
513.881	34394.44
514.084	34302.28
514.286	34521.41
514.488	34918.72
514.69	35608.89
514.893	35531.06
515.095	35553.59
515.297	36372.78
515.499	36317.48
515.701	36880.67
515.904	36968.74
516.106	37402.91
516.308	37792.02
516.51	38043.92
516.712	37921.04
516.914	38459.66
517.116	39024.9
517.318	38985.99
517.52	39733.5
517.722	39848.18
517.925	39928.05
518.127	40409.32
518.329	41029.86
518.531	40681.7
518.733	41353.44
518.935	42090.71
519.136	41773.27
519.338	42574.03
519.54	42750.15
519.742	43067.59
519.944	43133.12
520.146	43798.71
520.348	43655.36
520.55	44366
520.752	44488.88
520.954	45060.26
521.155	45045.93
521.357	45717.66
521.559	45629.6
521.761	46420.11
521.963	46315.67
522.164	46915.72
522.366	46956.68
522.568	47022.22
522.77	47300.74
522.971	48046.2
523.173	47476.86
523.375	48279.67
523.576	48013.43
523.778	48236.66
523.98	48601.2
524.181	49567.84
524.383	49070.18
524.584	49852.51
524.786	49891.42
524.988	49901.66
525.189	49809.5
525.391	50841.68
525.592	50987.08
525.794	51073.1
525.995	51241.03
526.197	50962.51
526.398	51284.04
526.6	51589.19
526.801	51843.13
527.003	51998.78
527.204	52179
527.406	52455.48
527.607	52523.06
527.808	52521.01
528.01	51855.42
528.211	52561.97
528.412	53321.77
528.614	53092.4
528.815	53327.91
529.016	53569.57
529.218	53536.8
529.419	53624.87
529.62	53948.45
529.822	53577.76
530.023	53444.65
530.224	53932.06
530.425	54405.14
530.626	53579.81
530.828	53954.59
531.029	54972.43
531.23	53782.56
531.431	54509.59
531.632	54665.24
531.833	54603.8
532.035	54153.24
532.236	54794.26
532.437	54794.26
532.638	54579.22
532.839	54534.17
533.04	55140.36
533.241	54360.09
533.442	55414.79
533.643	55189.52
533.844	55250.95
534.045	54812.69
534.246	54855.7
534.447	55302.15
534.648	54861.84
534.849	55287.82
535.05	54648.85
535.251	54822.93
535.451	54714.39
535.652	54943.76
535.853	54890.51
536.054	55123.98
536.255	55189.52
536.456	54341.66
536.657	55506.95
536.857	54986.77
537.058	54599.7
537.259	55418.89
537.46	55363.59
537.66	54872.08
537.861	55336.97
538.062	54761.49
538.263	55291.91
538.463	55087.12
538.664	55298.06
538.865	54710.29
539.065	55339.02
539.266	54976.53
539.466	55576.58
539.667	54124.57
539.868	55250.95
540.068	55013.39
540.269	54933.52
540.469	55447.56
540.67	54824.98
540.87	54761.49
541.071	54775.83
541.271	54747.15
541.472	54882.32
541.672	54927.38
541.873	54734.87
542.073	54640.66
542.274	55672.84
542.474	54468.63
542.675	54251.55
542.875	55152.65
543.075	54964.24
543.276	54525.97
543.476	54935.57
543.676	54521.88
543.877	55019.53
544.077	54394.9
544.277	54706.19
544.478	54802.45
544.678	54882.32
544.878	54566.93
545.078	54779.92
545.279	54220.83
545.479	54224.92
545.679	54509.59
545.879	54399
546.079	54413.34
546.28	54593.56
546.48	54034.46
546.68	54489.11
546.88	54233.11
547.08	54312.98
547.28	54372.38
547.48	53545
547.68	54241.31
547.88	54063.13
548.081	54460.44
548.281	54534.17
548.481	54100
548.681	54059.04
548.881	54304.79
549.081	53995.55
549.28	53698.59
549.48	54267.93
549.68	54077.47
549.88	54974.48
550.08	53927.97
550.28	54341.66
550.48	53446.69
550.68	54274.07
550.88	53747.75
551.08	53710.88
551.279	54124.57
551.479	53831.71
551.679	54214.68
551.879	53657.63
552.079	53936.16
552.278	53825.57
552.478	53950.49
552.678	53637.15
552.878	54288.41
553.077	53661.73
553.277	53516.32
553.477	54216.73
553.676	53850.14
553.876	53547.04
554.076	53594.15
554.275	53534.76
554.475	52752.43
554.674	53471.27
554.874	53655.59
555.074	53391.4
555.273	53442.6
555.473	53764.13
555.672	53125.16
555.872	53166.12
556.071	53465.13
556.271	53557.28
556.47	53086.25
556.67	52719.66
556.869	52938.8
557.068	53012.52
557.268	52486.2
557.467	53211.18
557.667	52744.24
557.866	52609.07
558.065	52535.35
558.265	52672.56
558.464	52547.64
558.663	53135.4
558.863	51871.81
559.062	52936.75
559.261	52568.12
559.461	52625.46
559.66	51978.3
559.859	52318.26
560.058	51144.78
560.258	52138.04
560.457	51458.12
560.656	51277.89
560.855	51591.23
561.054	51939.39
561.253	51417.16
561.453	51138.63
561.652	51759.17
561.851	51660.87
562.05	50966.6
562.249	50954.32
562.448	52019.26
562.647	51331.14
562.846	51208.26
563.045	51365.96
563.244	50258.01
563.443	51271.75
563.642	50430.04
563.841	50667.6
564.04	50075.74
564.239	50786.38
564.438	50075.74
564.637	50872.4
564.836	50604.11
565.035	50399.32
565.234	50104.41
565.432	49690.72
565.631	49694.82
565.83	50118.74
566.029	49774.69
566.228	49477.73
566.427	49094.76
566.625	49307.75
566.824	48597.1
567.023	49711.2
567.222	48633.97
567.42	49717.34
567.619	48947.31
567.818	48691.31
568.016	48636.02
568.215	49102.95
568.414	48799.85
568.612	49215.59
568.811	48259.19
569.01	48752.75
569.208	47845.5
569.407	48732.27
569.605	47511.68
569.804	48248.95
570.002	47399.04
570.201	47757.44
570.4	47507.58
570.598	47634.56
570.797	47274.12
570.995	47491.2
571.193	47114.37
571.392	47306.88
571.59	46876.81
571.789	47046.79
571.987	46930.06
572.186	46928.01
572.384	46399.63
572.582	46768.27
572.781	46311.57
572.979	46223.51
573.177	46219.41
573.376	46475.41
573.574	45891.74
573.772	46497.94
573.971	45822.11
574.169	45490.34
574.367	45476
574.565	45426.85
574.763	45199.52
574.962	45287.59
575.16	44523.69
575.358	45115.56
575.556	44687.53
575.754	45625.5
575.952	44265.65
576.151	44929.19
576.349	44404.91
576.547	44216.5
576.745	44519.6
576.943	44822.7
577.141	44445.87
577.339	43827.38
577.537	44302.51
577.735	43864.25
577.933	43372.74
578.131	43649.21
578.329	43524.29
578.527	43280.58
578.725	43356.35
578.923	43368.64
579.121	43227.33
579.319	42555.6
579.516	43329.73
579.714	42926.28
579.912	42561.74
580.11	42275.02
580.308	42461.39
580.506	42524.88
580.704	41984.21
580.901	42258.64
581.099	42266.83
581.297	41451.74
581.495	41472.22
581.692	41826.52
581.89	41685.21
582.088	42084.56
582.285	41390.3
582.483	41767.13
582.681	41529.56
582.878	41541.85
583.076	40804.58
583.274	41304.29
583.471	40368.37
583.669	40386.8
583.866	40440.04
584.064	40794.34
584.262	39956.72
584.459	40689.9
584.657	40462.57
584.854	40456.43
585.052	39645.43
585.249	40227.06
585.447	39983.35
585.644	39465.21
585.841	39551.23
586.039	39825.65
586.236	39094.53
586.434	38975.75
586.631	39149.82
586.828	39246.08
587.026	39125.25
587.223	38691.08
587.42	39080.19
587.618	38762.76
587.815	38469.9
588.012	38418.7
588.21	38312.2
588.407	38543.63
588.604	38146.32
588.801	38072.59
588.999	37982.48
589.196	38111.5
589.393	37818.64
589.59	37787.92
589.787	37443.87
589.984	37413.15
590.182	37308.7
590.379	37740.82
590.576	37153.05
590.773	37400.86
590.97	36647.21
591.167	36765.99
591.364	36268.33
591.561	36931.87
591.758	36370.73
591.955	36581.67
592.152	36874.53
592.349	36063.54
592.546	36434.22
592.743	36299.05
592.94	35471.67
593.137	35856.69
593.334	35963.18
593.531	35586.36
593.727	35776.82
593.924	35060.03
594.121	35393.85
594.318	35475.77
594.515	34656.58
594.712	35137.85
594.908	35070.27
595.105	35111.23
595.302	34533.7
595.499	34849.09
595.696	34439.5
595.892	34527.56
596.089	34259.27
596.286	34425.16
596.482	34081.1
596.679	34339.15
596.876	34492.74
597.072	34167.12
597.269	34197.84
597.466	33657.17
597.662	33558.87
597.859	33509.72
598.055	33685.84
598.252	33175.9
598.448	33435.99
598.645	33341.78
598.841	32876.9
599.038	32825.7
599.234	33003.87
599.431	32899.42
599.627	32452.97
599.824	32463.21
600.02	32207.21
600.217	32647.52
600.413	32418.15
600.609	32276.84
600.806	31873.39
601.002	32231.79
601.198	32176.49
601.395	31852.91
601.591	31578.48
601.787	31934.83
601.984	31412.6
602.18	31478.13
602.376	31291.77
602.572	31195.51
602.769	31349.11
602.965	31086.97
603.161	31103.35
603.357	30812.54
603.553	30779.78
603.75	30861.69
603.946	30685.57
604.142	30810.5
604.338	30116.23
604.534	30806.4
604.73	29847.95
604.926	30181.77
605.122	30062.99
605.318	30128.52
605.514	29606.29
605.71	29878.67
605.906	29737.36
606.102	29544.85
606.298	29802.89
606.494	29727.12
606.69	29266.33
606.886	29620.63
607.082	29295
607.278	29759.89
607.474	28717.47
607.67	29112.73
607.866	28639.65
608.062	29239.7
608.257	29077.91
608.453	28926.36
608.649	29229.46
608.845	28858.78
609.041	28508.58
609.236	28762.53
609.432	28807.58
609.628	28637.6
609.824	28438.95
610.019	28406.18
610.215	28207.53
610.411	28465.57
610.606	28131.75
610.802	28037.55
610.998	28035.5
611.193	28426.66
611.389	27707.82
611.584	27937.2
611.78	27656.62
611.976	28266.92
612.171	27722.16
612.367	27929
612.562	27707.82
612.758	27404.72
612.953	27355.57
613.149	27929
613.344	27257.27
613.539	27808.17
613.735	27607.47
613.93	27707.82
614.126	27384.24
614.321	27312.56
614.517	27140.54
614.712	27206.07
614.907	27490.74
615.103	27374
615.298	27122.1
615.493	27220.41
615.688	26640.83
615.884	26993.08
616.079	26405.31
616.274	27034.04
616.47	26716.61
616.665	26423.75
616.86	26577.34
617.055	26741.18
617.25	26358.21
617.445	26741.18
617.641	26268.1
617.836	26415.55
618.031	25940.43
618.226	26225.09
618.421	25878.99
618.616	26194.37
618.811	25461.2
619.006	26145.22
619.201	25520.59
619.396	25876.94
619.591	25328.08
619.786	25622.99
619.981	25002.46
620.176	25428.43
620.371	25070.04
620.566	25111
620.761	24730.08
620.956	25027.03
621.151	24668.64
621.346	24705.5
621.541	24644.06
621.735	24631.77
621.93	24185.32
622.125	24332.77
622.32	24093.16
622.515	24087.01
622.709	23751.15
622.904	23871.98
623.099	23597.55
623.294	23812.59
623.488	23556.59
623.683	23362.03
623.878	23325.17
624.072	23380.46
624.267	23073.27
624.462	22790.65
624.656	22639.1
624.851	22602.24
625.046	22448.64
625.24	22706.68
625.435	22395.39
625.629	22241.79
625.824	22034.95
626.018	22118.92
626.213	21996.04
626.407	21981.7
626.602	21389.84
626.796	21993.99
626.991	21570.06
627.185	21467.66
627.38	21324.3
627.574	21008.92
627.768	21051.92
627.963	20843.03
628.157	20591.13
628.352	20673.05
628.546	20363.81
628.74	20501.02
628.935	20320.8
629.129	20236.83
629.323	20068.9
629.517	20070.95
629.712	19763.75
629.906	19687.98
630.1	19632.68
630.294	19769.9
630.489	19513.9
630.683	19489.32
630.877	19108.4
631.071	19094.07
631.265	19262
631.459	19057.2
631.653	18942.52
631.848	18809.4
632.042	18799.16
632.236	18674.23
632.43	18500.16
632.624	18397.76
632.818	18477.63
633.012	18088.51
633.206	18033.22
633.4	18219.58
633.594	17924.68
633.788	17977.92
633.982	17834.57
634.176	17801.8
634.369	17723.97
634.563	17408.59
634.757	17558.09
634.951	17420.88
635.145	17287.76
635.339	17408.59
635.533	17023.57
635.726	17017.43
635.92	17060.43
636.114	16783.96
636.308	16976.47
636.501	16753.24
636.695	16837.2
636.889	16314.97
637.083	16177.76
637.276	16296.54
637.47	16392.8
637.664	16239.2
637.857	16274.01
638.051	16190.05
638.244	15827.56
638.438	15821.41
638.632	15735.4
638.825	15692.39
639.019	15614.57
639.212	15184.49
639.406	15759.97
639.599	15389.29
639.793	15223.41
639.986	15223.41
640.18	15110.77
640.373	15116.91
640.567	15121.01
640.76	14920.31
640.954	14867.06
641.147	14697.08
641.34	14709.36
641.534	14727.8
641.727	14580.34
641.92	14541.43
642.114	14336.63
642.307	14361.21
642.5	14144.13
642.694	14082.69
642.887	13824.64
643.08	14158.46
643.273	13963.9
643.467	14021.25
643.66	13562.5
643.853	13822.59
644.046	13361.8
644.239	13658.76
644.432	13542.02
644.626	13357.71
644.819	13312.65
645.012	13445.77
645.205	13359.75
645.398	13288.07
645.591	13122.19
645.784	13171.34
645.977	13134.48
646.17	12620.44
646.363	12913.3
646.556	12778.13
646.749	12894.86
646.942	12739.22
647.135	12583.57
647.328	12528.28
647.521	12503.7
647.714	12202.65
647.907	12241.56
648.099	12288.67
648.292	12167.84
648.485	12206.75
648.678	12051.1
648.871	11993.76
649.064	12010.14
649.256	12008.09
649.449	11969.18
649.642	11600.55
649.835	11813.54
650.027	11686.56
650.22	11541.16
650.413	11563.68
650.605	11371.18
650.798	11582.12
650.991	11483.81
651.183	11150
651.376	11352.74
651.568	11168.43
651.761	11131.56
651.954	11162.28
652.146	11223.72
652.339	11004.59
652.531	10873.52
652.724	10781.36
652.916	10693.3
653.109	10824.37
653.301	10717.87
653.494	10767.03
653.686	10470.07
653.879	10603.19
654.071	10367.67
654.263	10359.48
654.456	10234.55
654.648	10306.23
654.84	10134.2
655.033	10203.83
655.225	9917.12
655.417	10099.39
655.61	9976.51
655.802	10111.68
655.994	9962.17
656.186	10062.52
656.379	9745.09
656.571	9757.38
656.763	9704.13
656.955	9437.89
657.148	9736.9
657.34	9628.35
657.532	9456.33
657.724	9452.23
657.916	9482.95
658.108	9407.17
658.3	9458.37
658.492	9501.38
658.684	9329.35
658.876	9388.74
659.068	9263.82
659.26	8856.27
659.452	9159.37
659.644	9122.51
659.836	8899.28
660.028	8983.24
660.22	8989.39
660.412	8757.97
660.604	8635.09
660.796	8624.85
660.988	8678.1
661.18	8727.25
661.372	8598.23
661.563	8567.51
661.755	8397.53
661.947	8596.18
662.139	8471.25
662.331	8463.06
662.522	8164.06
662.714	8295.13
662.906	8168.15
663.097	8227.54
663.289	8133.34
663.481	8272.6
663.673	7975.64
663.864	7971.55
664.056	8114.91
664.247	7963.36
664.439	7756.51
664.631	7953.12
664.822	7795.42
665.014	8084.19
665.205	7840.48
665.397	7750.37
665.588	7690.98
665.78	7641.82
665.971	7656.16
666.163	7652.06
666.354	7666.4
666.546	7564
666.737	7273.19
666.929	7506.66
667.12	7363.3
667.311	7455.46
667.503	7424.74
667.694	7332.58
667.885	7297.77
668.077	7322.34
668.268	7262.95
668.459	7240.42
668.651	6976.23
668.842	7066.35
669.033	7105.26
669.224	7066.35
669.416	7103.21
669.607	7019.24
669.798	6937.32
669.989	6902.51
670.18	6710
670.371	6845.16
670.563	6730.48
670.754	6879.98
670.945	6800.11
671.136	6796.01
671.327	6589.17
671.518	6519.54
671.709	6710
671.9	6726.38
672.091	6617.84
672.282	6544.11
672.473	6488.82
672.664	6515.44
672.855	6525.68
673.046	6331.12
673.237	6349.56
673.428	6327.03
673.619	6247.16
673.809	6175.48
674	6396.66
674.191	6386.42
674.382	6064.89
674.573	6099.7
674.764	6101.75
674.954	6132.47
675.145	6165.24
675.336	6071.03
675.527	6028.03
675.717	6193.91
675.908	6068.98
676.099	6292.21
676.289	5911.29
676.48	5991.16
676.671	5915.39
676.861	5980.92
677.052	6093.56
677.243	5862.14
677.433	5819.13
677.624	5810.94
677.814	5812.99
678.005	5942.01
678.195	5731.07
678.386	5856
678.576	5622.53
678.767	5798.65
678.957	5812.99
679.148	5659.39
679.338	5651.2
679.529	5524.23
679.719	5575.42
679.909	5628.67
680.1	5796.6
680.29	5464.83
680.481	5413.63
680.671	5454.59
680.861	5368.58
681.052	5577.47
681.242	5231.37
681.432	5264.13
681.622	5344
681.813	5397.25
682.003	5339.91
682.193	5272.32
682.383	5303.04
682.573	5321.48
682.764	5157.64
682.954	5440.26
683.144	5323.52
683.334	5280.52
683.524	5198.6
683.714	5196.55
683.904	5243.65
684.094	5249.8
684.284	5210.89
684.474	5204.74
684.664	5200.65
684.854	5194.5
685.044	5108.49
685.234	4844.3
685.424	5153.54
685.614	5004.04
685.804	5149.45
685.994	5057.29
686.184	5022.47
686.374	5229.32
686.564	4907.79
686.753	4815.63
686.943	4756.24
687.133	4987.66
687.323	4903.69
687.513	4889.35
687.702	4907.79
687.892	4891.4
688.082	4768.52
688.272	4829.96
688.461	4702.99
688.651	4684.56
688.841	4608.78
689.03	4838.16
689.22	4670.22
689.41	4629.26
689.599	4782.86
689.789	4684.56
689.979	4408.08
690.168	4772.62
690.358	4600.59
690.547	4561.68
690.737	4594.45
690.926	4418.32
691.116	4530.96
691.305	4512.53
691.495	4436.75
691.684	4455.19
691.874	4260.63
692.063	4537.1
692.252	4420.37
692.442	4240.15
692.631	4324.12
692.82	4315.92
693.01	4324.12
693.199	4399.89
693.388	4352.79
693.578	4307.73
693.767	4301.59
693.956	4191
694.146	4231.96
694.335	4170.52
694.524	4080.41
694.713	4211.48
694.902	4119.32
695.092	4129.56
695.281	4061.98
695.47	4283.16
695.659	4023.06
695.848	3992.34
696.037	4162.33
696.226	4172.57
696.415	4072.22
696.604	4164.37
696.793	4074.26
696.982	4188.95
697.171	4066.07
697.36	4053.78
697.549	4039.45
697.738	4037.4
697.927	4049.69
698.116	4174.61
698.305	3939.1
698.494	4053.78
698.683	4033.3
698.872	4086.55
699.061	4053.78
699.25	3955.48
699.438	3947.29
699.627	3762.97
699.816	3916.57
700.005	4018.97
700.193	3926.81
700.382	3986.2
700.571	3992.34
700.76	3926.81
700.948	3871.51
701.137	3869.47
701.326	3971.86
701.514	3898.14
701.703	3910.43
701.892	3816.22
702.08	3799.84
702.269	3871.51
702.457	3810.08
702.646	3887.9
702.834	3656.48
703.023	3838.75
703.212	3795.74
703.4	3824.41
703.589	3648.29
703.777	3896.09
703.965	3805.98
704.154	3666.72
704.342	3875.61
704.531	3758.88
704.719	3805.98
704.907	3801.88
705.096	3808.03
705.284	3781.4
705.472	3611.42
705.661	3597.09
705.849	3724.06
706.037	3609.37
706.226	3699.48
706.414	3740.44
706.602	3717.92
706.79	3871.51
706.979	3627.81
707.167	3672.86
707.355	3738.4
707.543	3644.19
707.731	3691.29
707.919	3689.25
708.107	3722.01
708.296	3748.64
708.484	3724.06
708.672	3509.02
708.86	3549.98
709.048	3599.13
709.236	3656.48
709.424	3619.61
709.612	3599.13
709.8	3529.5
709.988	3562.27
710.176	3455.78
710.364	3629.85
710.551	3541.79
710.739	3533.6
710.927	3619.61
711.115	3531.55
711.303	3498.78
711.491	3390.24
711.679	3539.74
711.866	3572.51
712.054	3494.69
712.242	3502.88
712.43	3496.74
712.617	3576.61
712.805	3504.93
712.993	3445.54
713.181	3474.21
713.368	3482.4
713.556	3527.46
713.744	3453.73
713.931	3455.78
714.119	3351.33
714.306	3435.3
714.494	3414.82
714.682	3484.45
714.869	3293.99
715.057	3365.67
715.244	3427.11
715.432	3400.48
715.619	3347.23
715.807	3369.76
715.994	3394.34
716.182	3484.45
716.369	3308.32
716.556	3425.06
716.744	3382.05
716.931	3394.34
717.119	3418.91
717.306	3404.58
717.493	3375.91
717.681	3347.23
717.868	3265.32
718.055	3336.99
718.242	3351.33
718.43	3220.26
718.617	3365.67
718.804	3349.28
718.991	3339.04
719.179	3328.8
719.366	3250.98
719.553	3318.56
719.74	3236.64
719.927	3324.71
720.114	3318.56
720.301	3164.97
720.488	3263.27
720.676	3250.98
720.863	3324.71
721.05	3418.91
721.237	3267.36
721.424	3281.7
721.611	3359.52
721.798	3199.78
721.985	3291.94
722.172	3144.49
722.358	3240.74
722.545	3105.57
722.732	3212.07
722.919	3111.72
723.106	3201.83
723.293	3152.68
723.48	3072.81
723.667	3248.93
723.853	3138.34
724.04	3273.51
724.227	3072.81
724.414	3169.06
724.6	2999.08
724.787	3175.2
724.974	3109.67
725.161	3126.05
725.347	3060.52
725.534	3087.14
725.72	3250.98
725.907	3027.75
726.094	3003.18
726.28	3113.77
726.467	3234.6
726.653	3001.13
726.84	3130.15
727.027	3095.33
727.213	3093.29
727.4	3134.25
727.586	3195.68
727.773	3085.09
727.959	3109.67
728.145	3062.57
728.332	3029.8
728.518	3146.53
728.705	3054.37
728.891	2976.55
729.077	3085.09
729.264	3054.37
729.45	2990.89
729.636	3005.22
729.823	2943.78
730.009	3087.14
730.195	3126.05
730.382	3048.23
730.568	3035.94
730.754	2997.03
730.94	3095.33
731.126	2954.02
731.313	3144.49
731.499	2960.17
731.685	3095.33
731.871	2964.26
732.057	2980.65
732.243	3027.75
732.429	2894.63
732.615	2984.74
732.801	3052.33
732.987	2884.39
733.173	2929.45
733.359	2902.83
733.545	2886.44
733.731	2749.23
733.917	2925.35
734.103	2878.25
734.289	2925.35
734.475	3037.99
734.661	2943.78
734.847	2900.78
735.033	2855.72
735.219	2878.25
735.404	2984.74
735.59	2876.2
735.776	2855.72
735.962	2933.54
736.148	2902.83
736.333	2951.98
736.519	2894.63
736.705	2997.03
736.89	2792.23
737.076	2908.97
737.262	2835.24
737.447	2825
737.633	2900.78
737.819	2939.69
738.004	2859.82
738.19	2792.23
738.375	2997.03
738.561	2921.26
738.747	2724.65
738.932	2810.67
739.118	2870.06
739.303	2712.36
739.489	2906.92
739.674	2814.76
739.859	2693.93
740.045	2767.66
740.23	2724.65
740.416	2685.74
740.601	2841.39
740.786	2773.8
740.972	2667.31
741.157	2812.71
741.342	2616.11
741.528	2706.22
741.713	2751.28
741.898	2667.31
742.084	2777.9
742.269	2695.98
742.454	2636.59
742.639	2644.78
742.824	2554.67
743.01	2566.96
743.195	2734.89
743.38	2532.14
743.565	2677.55
743.75	2646.83
743.935	2564.91
744.12	2485.04
744.305	2521.9
744.49	2460.46
744.675	2493.23
744.86	2429.74
745.045	2544.43
745.23	2513.71
745.415	2353.97
745.6	2386.74
745.785	2353.97
745.97	2472.75
746.155	2503.47
746.34	2464.56
746.525	2454.32
746.71	2245.43
746.895	2390.83
747.079	2208.56
747.264	2265.91
747.449	2353.97
747.634	2310.96
747.819	2321.2
748.003	2306.87
748.188	2218.8
748.373	2245.43
748.557	2200.37
748.742	2186.04
748.927	2321.2
749.111	2167.6
749.296	2110.26
749.481	2241.33
749.665	2212.66
749.85	1944.38
750.034	2130.74
750.219	2085.69
750.404	2181.94
750.588	2116.41
750.773	2038.58
750.957	2032.44
751.141	2079.54
751.326	2132.79
751.51	2016.05
751.695	2001.72
751.879	1878.84
752.064	1983.29
752.248	2022.2
752.432	1962.81
752.617	1915.7
752.801	1901.37
752.985	1991.48
753.17	1915.7
753.354	1882.94
753.538	1876.79
753.722	1815.35
753.907	1833.79
754.091	1741.63
754.275	1835.83
754.459	1700.67
754.643	1727.29
754.828	1749.82
755.012	1760.06
755.196	1686.33
755.38	1766.2
755.564	1774.39
755.748	1770.3
755.932	1805.11
756.116	1735.48
756.3	1569.6
756.484	1676.09
756.668	1622.84
756.852	1647.42
757.036	1686.33
757.22	1669.95
757.404	1545.02
757.588	1577.79
757.772	1577.79
757.956	1557.31
758.14	1665.85
758.323	1561.41
758.507	1612.6
758.691	1545.02
758.875	1579.84
759.059	1577.79
759.242	1545.02
759.426	1506.11
759.61	1497.92
759.794	1508.16
759.977	1596.22
760.161	1465.15
760.345	1473.34
760.528	1409.86
760.712	1397.57
760.895	1561.41
761.079	1401.66
761.263	1434.43
761.446	1461.06
761.63	1411.9
761.813	1424.19
761.997	1262.4
762.18	1397.57
762.364	1344.32
762.547	1370.94
762.731	1340.22
762.914	1385.28
763.098	1332.03
763.281	1325.89
763.464	1352.51
763.648	1205.06
763.831	1342.27
764.015	1254.21
764.198	1291.07
764.381	1184.58
764.564	1270.59
764.748	1203.01
764.931	1344.32
765.114	1237.83
765.297	1262.4
765.481	1243.97
765.664	1346.37
765.847	1260.35
766.03	1336.13
766.213	1246.02
766.397	1233.73
766.58	1252.16
766.763	1254.21
766.946	1219.39
767.129	1227.59
767.312	1137.48
767.495	1203.01
767.678	1221.44
767.861	1203.01
768.044	1260.35
768.227	1135.43
768.41	1170.24
768.593	1190.72
768.776	1182.53
768.959	1186.63
769.142	1162.05
769.324	1162.05
769.507	1155.91
769.69	1067.85
769.873	1104.71
770.056	1223.49
770.239	1123.14
770.421	1033.03
770.604	1149.76
770.787	1127.24
770.97	1164.1
771.152	1082.18
771.335	1006.41
771.518	1035.08
771.7	1078.08
771.883	1049.41
772.066	1123.14
772.248	1166.15
772.431	1035.08
772.613	1055.56
772.796	1018.69
772.978	1063.75
773.161	961.35
773.343	1039.17
773.526	938.82
773.708	998.21
773.891	979.78
774.073	1006.41
774.256	998.21
774.438	992.07
774.621	996.17
774.803	1030.98
774.985	897.86
775.168	938.82
775.35	936.78
775.532	895.82
775.715	977.73
775.897	967.49
776.079	920.39
776.261	899.91
776.444	942.92
776.626	940.87
776.808	949.06
776.99	846.66
777.173	824.14
777.355	817.99
777.537	842.57
777.719	850.76
777.901	844.62
778.083	873.29
778.265	758.6
778.447	709.45
778.629	795.47
778.811	838.47
778.993	817.99
779.175	875.34
779.357	815.94
779.539	820.04
779.721	854.86
779.903	883.53
780.085	760.65
780.267	826.18
780.449	772.94
780.631	754.51
780.812	699.21
780.994	701.26
781.176	783.18
781.358	715.59
781.54	598.86
781.721	691.02
781.903	664.4
782.085	662.35
782.267	680.78
782.448	670.54
782.63	758.6
782.812	605
782.993	684.87
783.175	703.31
783.357	576.33
783.538	701.26
783.72	617.29
783.901	637.77
784.083	643.92
784.264	631.63
784.446	596.81
784.627	625.48
784.809	598.86
784.99	551.76
785.172	684.87
785.353	539.47
785.535	551.76
785.716	584.52
785.897	555.85
786.079	568.14
786.26	559.95
786.441	588.62
786.623	506.7
786.804	598.86
786.985	543.57
787.167	584.52
787.348	586.57
787.529	574.28
787.71	602.96
787.891	562
788.073	492.37
788.254	547.66
788.435	496.46
788.616	549.71
788.797	457.55
788.978	555.85
789.159	521.04
789.34	553.8
789.522	387.92
789.703	496.46
789.884	486.22
790.065	494.41
790.246	461.65
790.427	486.22
790.607	559.95
790.788	484.17
790.969	457.55
791.15	418.64
791.331	424.78
791.512	404.3
791.693	408.4
791.874	518.99
792.054	514.89
792.235	543.57
792.416	432.97
792.597	416.59
792.778	400.21
792.958	516.94
793.139	478.03
793.32	367.44
793.5	357.2
793.681	437.07
793.862	334.67
794.042	461.65
794.223	369.49
794.404	473.93
794.584	365.39
794.765	363.34
794.945	316.24
795.126	410.45
795.306	342.86
795.487	369.49
795.667	416.59
795.848	361.3
796.028	424.78
796.209	430.93
796.389	392.02
796.57	473.93
796.75	412.5
796.93	385.87
797.111	301.9
797.291	322.38
797.471	365.39
797.652	306
797.832	273.23
798.012	336.72
798.192	351.06
798.373	387.92
798.553	387.92
798.733	445.26
798.913	326.48
799.093	400.21
799.274	371.54
799.454	326.48
799.634	344.91
799.814	262.99
799.994	367.44
800.174	375.63
800.354	242.51
800.534	306
800.714	289.62
800.894	203.6
801.074	308.05
801.254	336.72
801.434	365.39
801.614	295.76
801.794	285.52
801.974	654.16
802.154	289.62
802.334	324.43
802.514	285.52
802.693	316.24
802.873	330.58
803.053	291.66
803.233	252.75
803.413	293.71
803.592	289.62
803.772	240.47
803.952	275.28
804.131	230.23
804.311	332.62
804.491	293.71
804.67	318.29
804.85	240.47
805.03	273.23
805.209	283.47
805.389	273.23
805.568	203.6
805.748	244.56
805.928	244.56
806.107	336.72
806.287	318.29
806.466	254.8
806.646	295.76
806.825	250.71
807.004	252.75
807.184	248.66
807.363	230.23
807.543	179.03
807.722	199.51
807.901	203.6
808.081	248.66
808.26	250.71
808.439	314.19
808.619	316.24
808.798	248.66
808.977	207.7
809.156	201.55
809.336	236.37
809.515	297.81
809.694	205.65
809.873	211.79
810.052	256.85
810.231	295.76
810.411	197.46
810.59	230.23
810.769	279.38
810.948	191.31
811.127	144.21
811.306	244.56
811.485	185.17
811.664	191.31
811.843	234.32
812.022	201.55
812.201	113.49
812.38	181.07
812.559	187.22
812.737	195.41
812.916	117.59
813.095	234.32
813.274	189.27
813.453	262.99
813.632	164.69
813.811	240.47
813.989	170.83
814.168	150.36
814.347	181.07
814.526	176.98
814.704	265.04
814.883	256.85
815.062	125.78
815.24	215.89
815.419	183.12
815.598	150.36
815.776	228.18
815.955	215.89
816.133	166.74
816.312	113.49
816.49	103.25
816.669	199.51
816.847	148.31
817.026	170.83
817.204	109.4
817.383	115.54
817.561	183.12
817.74	72.53
817.918	207.7
818.097	181.07
818.275	209.75
818.453	129.88
818.632	160.59
818.81	193.36
818.988	133.97
819.167	176.98
819.345	136.02
819.523	88.92
819.701	201.55
819.879	170.83
820.058	187.22
820.236	138.07
820.414	140.12
820.592	146.26
820.77	191.31
820.948	176.98
821.127	133.97
821.305	166.74
821.483	133.97
821.661	101.2
821.839	150.36
822.017	129.88
822.195	136.02
822.373	144.21
822.551	195.41
822.729	129.88
822.907	164.69
823.085	179.03
823.262	82.77
823.44	152.4
823.618	80.72
823.796	103.25
823.974	179.03
824.152	207.7
824.329	154.45
824.507	183.12
824.685	158.55
824.863	103.25
825.04	168.79
825.218	131.92
825.396	215.89
825.574	191.31
825.751	154.45
825.929	127.83
826.107	39.76
826.284	66.39
826.462	166.74
826.639	119.64
826.817	19.29
826.994	146.26
827.172	162.64
827.349	168.79
827.527	146.26
827.704	144.21
827.882	86.87
828.059	93.01
828.237	140.12
828.414	168.79
828.591	95.06
828.769	185.17
828.946	172.88
829.124	117.59
829.301	150.36
829.478	119.64
829.655	88.92
829.833	68.44
830.01	60.24
830.187	76.63
830.364	93.01
830.542	88.92
830.719	136.02
830.896	78.68
831.073	115.54
831.25	201.55
831.427	62.29
831.604	68.44
831.782	33.62
831.959	146.26
832.136	50
832.313	127.83
832.49	136.02
832.667	64.34
832.844	95.06
833.021	138.07
833.198	136.02
833.374	54.1
833.551	54.1
833.728	66.39
833.905	101.2
834.082	62.29
834.259	121.68
834.436	101.2
834.612	50
834.789	95.06
834.966	70.48
835.143	68.44
835.319	68.44
835.496	39.76
835.673	109.4
835.85	170.83
836.026	95.06
836.203	133.97
836.38	80.72
836.556	50
836.733	68.44
836.909	191.31
837.086	78.68
837.262	31.57
837.439	66.39
837.616	97.11
837.792	56.15
837.968	37.72
838.145	127.83
838.321	80.72
838.498	111.44
838.674	97.11
838.851	115.54
839.027	93.01
839.203	27.48
839.38	115.54
839.556	103.25
839.732	144.21
839.909	47.96
840.085	99.16
840.261	101.2
840.437	35.67
840.614	54.1
840.79	115.54
840.966	64.34
841.142	33.62
841.318	17.24
841.494	101.2
841.671	109.4
841.847	54.1
842.023	31.57
842.199	17.24
842.375	54.1
842.551	68.44
842.727	52.05
842.903	35.67
843.079	123.73
843.255	109.4
843.431	58.2
843.607	113.49
843.783	19.29
843.959	76.63
844.134	-21.67
844.31	127.83
844.486	72.53
844.662	68.44
844.838	60.24
845.013	72.53
845.189	97.11
845.365	68.44
845.541	4.95
845.716	47.96
845.892	68.44
846.068	93.01
846.244	4.95
846.419	152.4
846.595	76.63
846.77	72.53
846.946	43.86
847.122	35.67
847.297	43.86
847.473	88.92
847.648	31.57
847.824	123.73
847.999	4.95
848.175	4.95
848.35	13.14
848.526	99.16
848.701	64.34
848.876	58.2
849.052	56.15
849.227	21.33
849.403	23.38
849.578	84.82
849.753	78.68
849.929	101.2
850.104	2.9
850.279	13.14
850.454	68.44
850.63	127.83
850.805	33.62
850.98	41.81
851.155	99.16
851.33	31.57
851.505	17.24
851.681	97.11
851.856	25.43
852.031	33.62
852.206	54.1
852.381	31.57
852.556	39.76
852.731	31.57
852.906	56.15
853.081	11.09
853.256	88.92
853.431	80.72
853.606	-13.48
853.781	25.43
853.956	97.11
854.131	54.1
854.305	29.52
854.48	-3.24
854.655	54.1
854.83	99.16
855.005	-15.53
855.18	97.11
855.354	45.91
855.529	25.43
855.704	58.2
855.879	52.05
856.053	19.29
856.228	-21.67
856.403	101.2
856.577	76.63
856.752	7
856.926	13.14
857.101	35.67
857.276	-29.87
857.45	41.81
857.625	74.58
857.799	-3.24
857.974	109.4
858.148	-33.96
858.323	101.2
858.497	7
858.672	13.14
858.846	21.33
859.02	23.38
859.195	19.29
859.369	35.67
859.543	84.82
859.718	47.96
859.892	-29.87
860.066	62.29
860.241	76.63
860.415	50
860.589	47.96
860.763	52.05
860.938	13.14
861.112	80.72
861.286	43.86
861.46	21.33
861.634	-5.29
861.808	35.67
861.982	60.24
862.157	7
862.331	23.38
862.505	-13.48
862.679	39.76
862.853	9.05
863.027	41.81
863.201	45.91
863.375	99.16
863.549	39.76
863.722	17.24
863.896	119.64
864.07	37.72
864.244	97.11
864.418	9.05
864.592	-5.29
864.766	54.1
864.939	-42.15
865.113	41.81
865.287	39.76
865.461	37.72
865.634	68.44
865.808	27.48
865.982	-17.58
866.156	-9.39
866.329	33.62
866.503	113.49
866.676	7
866.85	23.38
867.024	15.19
867.197	37.72
867.371	58.2
867.544	68.44
867.718	11.09
867.891	60.24
868.065	23.38
868.238	52.05
868.412	19.29
868.585	52.05
868.759	84.82
868.932	23.38
869.105	-7.34
869.279	11.09
869.452	27.48
869.625	39.76
869.799	76.63
869.972	-19.63
870.145	13.14
870.319	41.81
870.492	45.91
870.665	-38.06
870.838	41.81
871.011	64.34
871.185	76.63
871.358	-56.49
871.531	97.11
871.704	33.62
871.877	-11.43
872.05	33.62
872.223	-1.19
872.396	82.77
872.569	29.52
872.742	-13.48
872.915	15.19
873.088	56.15
873.261	7
873.434	88.92
873.607	-25.77
873.78	-40.11
873.953	-7.34
874.126	17.24
874.299	-36.01
874.471	52.05
874.644	-1.19
874.817	29.52
874.99	27.48
875.163	7
875.335	25.43
875.508	43.86
875.681	74.58
875.853	-9.39
876.026	-25.77
876.199	31.57
876.371	84.82
876.544	70.48
876.717	74.58
876.889	13.14
877.062	-52.39
877.234	-17.58
877.407	-11.43
877.579	56.15
877.752	4.95
877.924	-15.53
878.097	54.1
878.269	62.29
878.442	68.44
878.614	-7.34
878.786	15.19
878.959	-76.97
879.131	13.14
879.303	0.85
879.476	27.48
879.648	-19.63
879.82	31.57
879.993	33.62
880.165	35.67
880.337	4.95
880.509	66.39
880.681	43.86
880.854	88.92
881.026	31.57
881.198	21.33
881.37	9.05
881.542	15.19
881.714	17.24
881.886	-46.25
882.058	64.34
882.23	25.43
882.402	54.1
882.574	-9.39
882.746	78.68
882.918	-25.77
883.09	60.24
883.262	45.91
883.434	-33.96
883.606	58.2
883.778	4.95
883.95	-29.87
884.122	-19.63
884.293	-15.53
884.465	19.29
884.637	80.72
884.809	56.15
884.98	90.96
885.152	15.19
885.324	-11.43
885.496	-50.35
885.667	60.24
885.839	62.29
886.011	60.24
886.182	9.05
886.354	-5.29
886.525	54.1
886.697	39.76
886.869	0.85
887.04	27.48
887.212	0.85
887.383	76.63
887.555	-23.72
887.726	-33.96
887.897	17.24
888.069	76.63
888.24	86.87
888.412	-7.34
888.583	21.33
888.754	58.2
888.926	11.09
889.097	76.63
889.268	-27.82
889.44	0.85
889.611	31.57
889.782	43.86
889.953	-23.72
890.125	64.34
890.296	-38.06
890.467	-54.44
890.638	-36.01
890.809	19.29
890.98	-11.43
891.151	27.48
891.323	58.2
891.494	62.29
891.665	-29.87
891.836	7
892.007	19.29
892.178	74.58
892.349	37.72
892.52	-33.96
892.691	47.96
892.862	23.38
893.032	-3.24
893.203	45.91
893.374	-13.48
893.545	31.57
893.716	-27.82
893.887	47.96
894.057	-27.82
894.228	-13.48
894.399	21.33
894.57	68.44
894.74	27.48
894.911	15.19
895.082	-36.01
895.253	19.29
895.423	37.72
895.594	19.29
895.764	41.81
895.935	-5.29
896.106	17.24
896.276	-23.72
896.447	35.67
896.617	-11.43
896.788	-44.2
896.958	33.62
897.129	27.48
897.299	39.76
897.47	119.64
897.64	7
897.81	37.72
897.981	41.81
898.151	-5.29
898.322	-25.77
898.492	-33.96
898.662	-21.67
898.832	62.29
899.003	19.29
899.173	-23.72
899.343	-48.3
899.513	-70.83
