Data from USB4F104151__207__11-10-21-557.txt Node

Date: Wed Mar 12 11:10:21 EDT 2025
User: louis
Spectrometer: USB4F10415
Trigger mode: 4
Integration Time (sec): 2.000000E-2
Scans to average: 1
Electric dark correction enabled: true
Nonlinearity correction enabled: false
Boxcar width: 0
XAxis mode: Wavelengths
Number of Pixels in Spectrum: 3648
>>>>>Begin Spectral Data<<<<<
178.204	-44.03
178.424	-44.03
178.644	-44.03
178.864	-111.61
179.084	-140.29
179.304	-7.17
179.524	21.5
179.744	-35.84
179.964	7.17
180.184	-44.03
180.404	-1.02
180.624	-25.6
180.844	-1.02
181.064	-5.12
181.283	29.7
181.503	17.41
181.723	44.03
181.943	-23.55
182.163	19.46
182.383	15.36
182.602	105.47
182.822	27.65
183.042	68.61
183.262	31.74
183.482	1.02
183.701	-17.41
183.921	58.37
184.141	31.74
184.361	62.46
184.58	1.02
184.8	82.94
185.02	15.36
185.239	70.65
185.459	72.7
185.679	41.98
185.898	-33.79
186.118	56.32
186.338	48.13
186.557	80.89
186.777	1.02
186.997	15.36
187.216	29.7
187.436	9.22
187.655	9.22
187.875	9.22
188.095	37.89
188.314	78.85
188.534	52.22
188.753	17.41
188.973	52.22
189.192	54.27
189.412	-31.74
189.631	-27.65
189.851	31.74
190.07	21.5
190.29	-11.26
190.509	17.41
190.729	23.55
190.948	109.57
191.168	56.32
191.387	93.18
191.607	-5.12
191.826	35.84
192.045	72.7
192.265	48.13
192.484	48.13
192.704	84.99
192.923	-33.79
193.142	62.46
193.362	15.36
193.581	80.89
193.8	101.37
194.02	15.36
194.239	44.03
194.458	-70.65
194.678	46.08
194.897	41.98
195.116	58.37
195.335	78.85
195.555	15.36
195.774	27.65
195.993	-9.22
196.212	-48.13
196.432	25.6
196.651	31.74
196.87	3.07
197.089	84.99
197.308	-9.22
197.528	50.18
197.747	31.74
197.966	70.65
198.185	56.32
198.404	50.18
198.623	70.65
198.842	11.26
199.062	27.65
199.281	56.32
199.5	58.37
199.719	17.41
199.938	111.61
200.157	23.55
200.376	-46.08
200.595	-1.02
200.814	64.51
201.033	31.74
201.252	33.79
201.471	13.31
201.69	1.02
201.909	117.76
202.128	27.65
202.347	39.94
202.566	-7.17
202.785	-25.6
203.004	48.13
203.223	117.76
203.442	23.55
203.661	37.89
203.879	68.61
204.098	39.94
204.317	-33.79
204.536	-11.26
204.755	25.6
204.974	7.17
205.193	-52.22
205.411	58.37
205.63	91.13
205.849	44.03
206.068	56.32
206.287	103.42
206.505	44.03
206.724	11.26
206.943	-3.07
207.162	3.07
207.381	35.84
207.599	-31.74
207.818	-87.04
208.037	35.84
208.255	9.22
208.474	52.22
208.693	-31.74
208.911	62.46
209.13	-27.65
209.349	50.18
209.567	21.5
209.786	50.18
210.005	25.6
210.223	46.08
210.442	-29.7
210.661	17.41
210.879	1.02
211.098	21.5
211.316	52.22
211.535	80.89
211.753	33.79
211.972	48.13
212.191	56.32
212.409	39.94
212.628	74.75
212.846	17.41
213.065	84.99
213.283	56.32
213.502	19.46
213.72	56.32
213.938	64.51
214.157	-1.02
214.375	72.7
214.594	117.76
214.812	-5.12
215.031	9.22
215.249	37.89
215.467	29.7
215.686	9.22
215.904	31.74
216.122	-17.41
216.341	44.03
216.559	48.13
216.778	76.8
216.996	3.07
217.214	-3.07
217.432	-19.46
217.651	44.03
217.869	54.27
218.087	-23.55
218.306	-7.17
218.524	60.42
218.742	-11.26
218.96	89.09
219.179	25.6
219.397	44.03
219.615	-3.07
219.833	9.22
220.051	-41.98
220.27	21.5
220.488	66.56
220.706	48.13
220.924	7.17
221.142	-72.7
221.36	68.61
221.578	-9.22
221.796	44.03
222.015	-23.55
222.233	52.22
222.451	33.79
222.669	-13.31
222.887	62.46
223.105	-11.26
223.323	13.31
223.541	-1.02
223.759	25.6
223.977	44.03
224.195	128
224.413	91.13
224.631	84.99
224.849	3.07
225.067	117.76
225.285	68.61
225.503	74.75
225.721	46.08
225.939	35.84
226.157	52.22
226.375	109.57
226.592	-1.02
226.81	-7.17
227.028	87.04
227.246	52.22
227.464	-17.41
227.682	39.94
227.9	-29.7
228.117	52.22
228.335	-7.17
228.553	35.84
228.771	89.09
228.989	78.85
229.206	-15.36
229.424	1.02
229.642	31.74
229.86	29.7
230.077	11.26
230.295	23.55
230.513	62.46
230.731	91.13
230.948	78.85
231.166	19.46
231.384	-41.98
231.601	52.22
231.819	33.79
232.037	60.42
232.254	-13.31
232.472	-19.46
232.689	80.89
232.907	66.56
233.125	-37.89
233.342	48.13
233.56	31.74
233.777	44.03
233.995	76.8
234.213	37.89
234.43	52.22
234.648	44.03
234.865	52.22
235.083	-27.65
235.3	111.61
235.518	84.99
235.735	37.89
235.953	27.65
236.17	37.89
236.388	54.27
236.605	80.89
236.822	109.57
237.04	66.56
237.257	52.22
237.475	-9.22
237.692	78.85
237.909	44.03
238.127	44.03
238.344	60.42
238.562	31.74
238.779	68.61
238.996	-84.99
239.214	39.94
239.431	68.61
239.648	-33.79
239.865	105.47
240.083	62.46
240.3	-1.02
240.517	13.31
240.735	1.02
240.952	109.57
241.169	93.18
241.386	39.94
241.603	-23.55
241.821	5.12
242.038	74.75
242.255	39.94
242.472	-17.41
242.689	78.85
242.907	95.23
243.124	56.32
243.341	19.46
243.558	3.07
243.775	19.46
243.992	39.94
244.209	84.99
244.426	76.8
244.643	-25.6
244.86	13.31
245.078	-11.26
245.295	25.6
245.512	56.32
245.729	15.36
245.946	60.42
246.163	-15.36
246.38	50.18
246.597	62.46
246.814	-7.17
247.031	56.32
247.248	13.31
247.464	68.61
247.681	37.89
247.898	-1.02
248.115	35.84
248.332	74.75
248.549	33.79
248.766	142.33
248.983	68.61
249.2	23.55
249.417	89.09
249.633	21.5
249.85	115.71
250.067	41.98
250.284	105.47
250.501	121.85
250.717	52.22
250.934	78.85
251.151	93.18
251.368	39.94
251.585	66.56
251.801	23.55
252.018	48.13
252.235	31.74
252.451	33.79
252.668	-7.17
252.885	142.33
253.102	27.65
253.318	52.22
253.535	62.46
253.752	-27.65
253.968	9.22
254.185	70.65
254.401	21.5
254.618	58.37
254.835	29.7
255.051	101.37
255.268	-5.12
255.484	3.07
255.701	27.65
255.917	-11.26
256.134	68.61
256.351	60.42
256.567	-19.46
256.784	37.89
257	46.08
257.217	-1.02
257.433	72.7
257.65	58.37
257.866	72.7
258.082	-1.02
258.299	1.02
258.515	70.65
258.732	-3.07
258.948	21.5
259.165	68.61
259.381	44.03
259.597	74.75
259.814	25.6
260.03	60.42
260.246	27.65
260.463	60.42
260.679	33.79
260.895	33.79
261.112	27.65
261.328	9.22
261.544	48.13
261.761	60.42
261.977	-7.17
262.193	3.07
262.409	80.89
262.626	15.36
262.842	76.8
263.058	78.85
263.274	68.61
263.49	11.26
263.707	35.84
263.923	-1.02
264.139	58.37
264.355	78.85
264.571	11.26
264.787	19.46
265.004	27.65
265.22	11.26
265.436	78.85
265.652	93.18
265.868	76.8
266.084	-1.02
266.3	25.6
266.516	29.7
266.732	97.28
266.948	64.51
267.164	11.26
267.38	-15.36
267.596	17.41
267.812	74.75
268.028	44.03
268.244	46.08
268.46	54.27
268.676	3.07
268.892	17.41
269.108	33.79
269.324	46.08
269.54	-50.18
269.756	31.74
269.972	7.17
270.188	29.7
270.403	-19.46
270.619	23.55
270.835	-52.22
271.051	44.03
271.267	15.36
271.483	33.79
271.698	-17.41
271.914	148.48
272.13	48.13
272.346	-25.6
272.562	-3.07
272.777	89.09
272.993	76.8
273.209	-17.41
273.425	41.98
273.64	-39.94
273.856	41.98
274.072	52.22
274.287	-19.46
274.503	95.23
274.719	27.65
274.934	33.79
275.15	-5.12
275.366	-13.31
275.581	95.23
275.797	48.13
276.012	31.74
276.228	105.47
276.444	23.55
276.659	52.22
276.875	41.98
277.09	-31.74
277.306	19.46
277.521	82.94
277.737	44.03
277.952	78.85
278.168	48.13
278.383	80.89
278.599	39.94
278.814	101.37
279.03	76.8
279.245	31.74
279.461	35.84
279.676	41.98
279.892	31.74
280.107	3.07
280.322	27.65
280.538	13.31
280.753	1.02
280.969	-19.46
281.184	-29.7
281.399	113.66
281.615	62.46
281.83	58.37
282.045	17.41
282.26	17.41
282.476	109.57
282.691	72.7
282.906	105.47
283.122	70.65
283.337	44.03
283.552	17.41
283.767	84.99
283.983	89.09
284.198	-3.07
284.413	35.84
284.628	128
284.843	54.27
285.058	37.89
285.274	48.13
285.489	13.31
285.704	72.7
285.919	-31.74
286.134	60.42
286.349	39.94
286.564	50.18
286.779	70.65
286.995	44.03
287.21	41.98
287.425	21.5
287.64	35.84
287.855	-1.02
288.07	-3.07
288.285	25.6
288.5	-11.26
288.715	48.13
288.93	29.7
289.145	11.26
289.36	84.99
289.575	-11.26
289.79	29.7
290.004	52.22
290.219	109.57
290.434	33.79
290.649	35.84
290.864	33.79
291.079	21.5
291.294	62.46
291.509	76.8
291.724	48.13
291.938	48.13
292.153	78.85
292.368	58.37
292.583	87.04
292.798	9.22
293.012	101.37
293.227	11.26
293.442	23.55
293.657	101.37
293.871	121.85
294.086	31.74
294.301	97.28
294.516	-27.65
294.73	66.56
294.945	-37.89
295.16	23.55
295.374	54.27
295.589	27.65
295.804	-58.37
296.018	82.94
296.233	-7.17
296.447	23.55
296.662	97.28
296.877	66.56
297.091	70.65
297.306	87.04
297.52	50.18
297.735	33.79
297.949	111.61
298.164	48.13
298.378	68.61
298.593	17.41
298.807	60.42
299.022	19.46
299.236	93.18
299.451	7.17
299.665	-23.55
299.88	78.85
300.094	103.42
300.309	-35.84
300.523	-7.17
300.737	21.5
300.952	48.13
301.166	21.5
301.381	19.46
301.595	35.84
301.809	15.36
302.024	80.89
302.238	23.55
302.452	72.7
302.667	50.18
302.881	35.84
303.095	48.13
303.309	19.46
303.524	60.42
303.738	27.65
303.952	7.17
304.166	25.6
304.381	-9.22
304.595	46.08
304.809	1.02
305.023	91.13
305.237	17.41
305.452	5.12
305.666	91.13
305.88	-19.46
306.094	105.47
306.308	-39.94
306.522	37.89
306.736	46.08
306.95	-3.07
307.164	44.03
307.379	7.17
307.593	101.37
307.807	41.98
308.021	7.17
308.235	50.18
308.449	19.46
308.663	66.56
308.877	97.28
309.091	-3.07
309.305	-5.12
309.519	-19.46
309.733	60.42
309.947	58.37
310.161	80.89
310.374	33.79
310.588	74.75
310.802	7.17
311.016	17.41
311.23	105.47
311.444	3.07
311.658	-1.02
311.872	39.94
312.085	48.13
312.299	-5.12
312.513	54.27
312.727	35.84
312.941	-29.7
313.154	105.47
313.368	113.66
313.582	23.55
313.796	72.7
314.009	21.5
314.223	70.65
314.437	68.61
314.651	19.46
314.864	-7.17
315.078	-15.36
315.292	-17.41
315.505	60.42
315.719	56.32
315.933	39.94
316.146	41.98
316.36	95.23
316.573	68.61
316.787	60.42
317.001	44.03
317.214	35.84
317.428	111.61
317.641	25.6
317.855	15.36
318.068	29.7
318.282	17.41
318.495	113.66
318.709	17.41
318.922	80.89
319.136	39.94
319.349	23.55
319.563	39.94
319.776	-17.41
319.99	50.18
320.203	78.85
320.417	60.42
320.63	111.61
320.843	72.7
321.057	95.23
321.27	68.61
321.483	107.52
321.697	41.98
321.91	72.7
322.124	44.03
322.337	5.12
322.55	31.74
322.763	31.74
322.977	50.18
323.19	13.31
323.403	66.56
323.617	89.09
323.83	89.09
324.043	21.5
324.256	48.13
324.469	-39.94
324.683	39.94
324.896	-9.22
325.109	113.66
325.322	7.17
325.535	39.94
325.748	111.61
325.962	3.07
326.175	3.07
326.388	44.03
326.601	115.71
326.814	56.32
327.027	74.75
327.24	113.66
327.453	15.36
327.666	84.99
327.879	70.65
328.092	39.94
328.305	60.42
328.518	29.7
328.731	56.32
328.944	80.89
329.157	46.08
329.37	25.6
329.583	60.42
329.796	33.79
330.009	3.07
330.222	48.13
330.435	15.36
330.648	41.98
330.861	33.79
331.073	52.22
331.286	-35.84
331.499	7.17
331.712	50.18
331.925	19.46
332.138	103.42
332.35	44.03
332.563	70.65
332.776	60.42
332.989	50.18
333.202	5.12
333.414	62.46
333.627	74.75
333.84	80.89
334.053	54.27
334.265	11.26
334.478	68.61
334.691	-46.08
334.903	-5.12
335.116	66.56
335.329	33.79
335.541	84.99
335.754	37.89
335.966	9.22
336.179	29.7
336.392	5.12
336.604	56.32
336.817	-9.22
337.029	23.55
337.242	70.65
337.454	58.37
337.667	-19.46
337.88	68.61
338.092	64.51
338.305	58.37
338.517	52.22
338.729	60.42
338.942	70.65
339.154	-1.02
339.367	-11.26
339.579	44.03
339.792	-37.89
340.004	33.79
340.217	44.03
340.429	13.31
340.641	-5.12
340.854	44.03
341.066	105.47
341.278	103.42
341.491	35.84
341.703	48.13
341.915	19.46
342.128	72.7
342.34	54.27
342.552	33.79
342.764	60.42
342.977	37.89
343.189	76.8
343.401	41.98
343.613	64.51
343.826	7.17
344.038	39.94
344.25	68.61
344.462	1.02
344.674	117.76
344.886	72.7
345.099	13.31
345.311	23.55
345.523	-29.7
345.735	23.55
345.947	-29.7
346.159	11.26
346.371	62.46
346.583	76.8
346.795	89.09
347.007	35.84
347.219	82.94
347.431	-5.12
347.643	76.8
347.855	-5.12
348.067	76.8
348.279	7.17
348.491	54.27
348.703	64.51
348.915	44.03
349.127	7.17
349.339	37.89
349.551	48.13
349.763	21.5
349.975	56.32
350.187	48.13
350.399	13.31
350.61	62.46
350.822	9.22
351.034	3.07
351.246	35.84
351.458	-9.22
351.669	78.85
351.881	-21.5
352.093	-9.22
352.305	136.19
352.517	44.03
352.728	142.33
352.94	15.36
353.152	60.42
353.363	35.84
353.575	25.6
353.787	113.66
353.999	13.31
354.21	-25.6
354.422	64.51
354.633	35.84
354.845	7.17
355.057	23.55
355.268	60.42
355.48	111.61
355.692	60.42
355.903	11.26
356.115	-9.22
356.326	-60.42
356.538	23.55
356.749	99.33
356.961	72.7
357.172	33.79
357.384	150.53
357.595	91.13
357.807	74.75
358.018	50.18
358.23	68.61
358.441	64.51
358.653	15.36
358.864	54.27
359.075	19.46
359.287	80.89
359.498	46.08
359.709	105.47
359.921	48.13
360.132	123.9
360.344	-5.12
360.555	3.07
360.766	76.8
360.977	-11.26
361.189	54.27
361.4	80.89
361.611	23.55
361.823	44.03
362.034	-3.07
362.245	-5.12
362.456	54.27
362.667	35.84
362.879	52.22
363.09	89.09
363.301	37.89
363.512	101.37
363.723	1.02
363.935	64.51
364.146	17.41
364.357	54.27
364.568	113.66
364.779	89.09
364.99	29.7
365.201	17.41
365.412	58.37
365.623	41.98
365.834	23.55
366.045	54.27
366.256	48.13
366.467	27.65
366.678	173.05
366.889	107.52
367.1	64.51
367.311	80.89
367.522	35.84
367.733	91.13
367.944	35.84
368.155	64.51
368.366	50.18
368.577	-13.31
368.788	146.43
368.999	44.03
369.209	72.7
369.42	41.98
369.631	31.74
369.842	66.56
370.053	62.46
370.264	54.27
370.474	-5.12
370.685	33.79
370.896	31.74
371.107	39.94
371.317	-19.46
371.528	-5.12
371.739	31.74
371.95	3.07
372.16	39.94
372.371	58.37
372.582	97.28
372.792	52.22
373.003	107.52
373.214	72.7
373.424	33.79
373.635	31.74
373.846	56.32
374.056	103.42
374.267	62.46
374.477	95.23
374.688	41.98
374.898	97.28
375.109	25.6
375.319	58.37
375.53	121.85
375.74	41.98
375.951	31.74
376.161	-15.36
376.372	76.8
376.582	13.31
376.793	60.42
377.003	-21.5
377.214	150.53
377.424	60.42
377.635	130.05
377.845	11.26
378.055	97.28
378.266	-37.89
378.476	97.28
378.686	72.7
378.897	29.7
379.107	134.14
379.317	62.46
379.528	9.22
379.738	39.94
379.948	80.89
380.158	121.85
380.369	132.09
380.579	64.51
380.789	41.98
380.999	58.37
381.21	66.56
381.42	66.56
381.63	44.03
381.84	41.98
382.05	134.14
382.261	138.24
382.471	84.99
382.681	128
382.891	125.95
383.101	72.7
383.311	-15.36
383.521	50.18
383.731	68.61
383.941	9.22
384.151	39.94
384.361	33.79
384.571	46.08
384.781	62.46
384.991	48.13
385.201	128
385.411	66.56
385.621	84.99
385.831	15.36
386.041	1.02
386.251	31.74
386.461	66.56
386.671	128
386.881	84.99
387.091	68.61
387.301	80.89
387.511	56.32
387.72	52.22
387.93	101.37
388.14	11.26
388.35	74.75
388.56	64.51
388.769	138.24
388.979	50.18
389.189	35.84
389.399	130.05
389.609	78.85
389.818	103.42
390.028	76.8
390.238	66.56
390.447	58.37
390.657	128
390.867	19.46
391.076	80.89
391.286	80.89
391.496	76.8
391.705	46.08
391.915	48.13
392.125	107.52
392.334	82.94
392.544	39.94
392.753	105.47
392.963	64.51
393.172	52.22
393.382	48.13
393.591	146.43
393.801	64.51
394.01	89.09
394.22	115.71
394.429	130.05
394.639	111.61
394.848	95.23
395.058	150.53
395.267	80.89
395.477	138.24
395.686	19.46
395.895	142.33
396.105	62.46
396.314	-3.07
396.524	97.28
396.733	89.09
396.942	84.99
397.152	93.18
397.361	150.53
397.57	125.95
397.78	27.65
397.989	111.61
398.198	44.03
398.407	113.66
398.617	119.81
398.826	89.09
399.035	119.81
399.244	146.43
399.453	123.9
399.663	66.56
399.872	134.14
400.081	74.75
400.29	44.03
400.499	48.13
400.708	134.14
400.917	97.28
401.127	134.14
401.336	78.85
401.545	130.05
401.754	146.43
401.963	125.95
402.172	117.76
402.381	76.8
402.59	109.57
402.799	185.34
403.008	130.05
403.217	125.95
403.426	152.57
403.635	150.53
403.844	130.05
404.053	146.43
404.262	125.95
404.471	199.68
404.68	117.76
404.888	134.14
405.097	144.38
405.306	142.33
405.515	175.1
405.724	168.96
405.933	156.67
406.142	125.95
406.35	191.49
406.559	164.86
406.768	238.59
406.977	207.87
407.185	257.02
407.394	226.3
407.603	144.38
407.812	244.73
408.02	211.96
408.229	173.05
408.438	283.64
408.646	205.82
408.855	273.4
409.064	285.69
409.272	267.26
409.481	238.59
409.69	236.54
409.898	285.69
410.107	269.31
410.315	273.4
410.524	365.56
410.733	340.99
410.941	355.32
411.15	398.33
411.358	349.18
411.567	373.75
411.775	379.9
411.984	412.67
412.192	420.86
412.401	424.95
412.609	482.3
412.818	490.49
413.026	388.09
413.234	504.82
413.443	486.39
413.651	609.27
413.86	596.98
414.068	617.46
414.276	654.33
414.485	594.93
414.693	564.22
414.901	685.05
415.11	738.29
415.318	732.15
415.526	723.96
415.734	709.62
415.943	799.73
416.151	902.13
416.359	799.73
416.567	785.4
416.776	924.66
416.984	969.71
417.192	961.52
417.4	951.28
417.608	912.37
417.817	957.43
418.025	969.71
418.233	1102.83
418.441	1039.34
418.649	1154.03
418.857	1254.38
419.065	1223.66
419.273	1281
419.481	1309.68
419.689	1416.17
419.897	1418.22
420.105	1534.95
420.313	1598.44
420.521	1618.92
420.729	1510.38
420.937	1676.26
421.145	1670.12
421.353	1666.02
421.561	1897.44
421.769	1950.69
421.977	1995.75
422.185	2042.85
422.393	2075.62
422.601	2216.93
422.809	2173.92
423.017	2155.49
423.224	2272.22
423.432	2374.62
423.64	2364.38
423.848	2726.87
424.056	2630.62
424.263	2728.92
424.471	2763.73
424.679	2796.5
424.887	2984.91
425.094	3036.11
425.302	3060.69
425.51	3154.9
425.718	3337.17
425.925	3335.12
426.133	3541.96
426.341	3630.02
426.548	3896.26
426.756	3822.53
426.964	3951.56
427.171	4074.43
427.379	4121.54
427.586	4287.42
427.794	4494.27
428.001	4535.23
428.209	4776.89
428.417	4717.5
428.624	5016.5
428.832	4946.87
429.039	4864.95
429.247	4991.92
429.454	5362.61
429.662	5710.76
429.869	5569.45
430.076	5880.74
430.284	5583.79
430.491	5966.76
430.699	6255.52
430.906	6167.46
431.114	6400.93
431.321	6499.23
431.528	6804.38
431.736	7230.35
431.943	7406.48
432.15	7203.73
432.358	7451.53
432.565	7750.54
432.772	7682.95
432.979	7992.2
433.187	8117.12
433.394	8287.11
433.601	8751.99
433.808	8917.88
434.016	8727.42
434.223	9204.6
434.43	9775.98
434.637	9593.71
434.844	9991.02
435.052	10175.33
435.259	10259.3
435.466	10373.99
435.673	10240.87
435.88	10906.46
436.087	11537.23
436.294	11623.25
436.501	11184.98
436.708	11471.7
436.915	11836.24
437.122	12657.47
437.329	12469.06
437.537	12905.28
437.743	13118.26
437.95	12716.86
438.157	13527.86
438.364	14035.75
438.571	13714.22
438.778	13947.69
438.985	15448.85
439.192	14682.91
439.399	15110.94
439.606	14877.47
439.813	15637.27
440.02	16458.5
440.227	16235.27
440.433	16145.16
440.64	16567.04
440.847	16302.86
441.054	16997.12
441.261	17988.33
441.467	17711.86
441.674	18127.6
441.881	18920.16
442.088	18778.85
442.294	18535.14
442.501	19280.6
442.708	19665.62
442.914	20415.18
443.121	20961.98
443.328	20699.84
443.534	22033.07
443.741	21656.25
443.948	21263.04
444.154	22731.43
444.361	22416.04
444.568	22608.55
444.774	22590.12
444.981	22792.87
445.187	23794.32
445.394	24879.75
445.6	24408.72
445.807	26976.87
446.013	25346.69
446.22	26024.56
446.426	26813.03
446.633	27312.74
446.839	27908.69
447.046	26806.89
447.252	28306
447.459	28394.06
447.665	28238.42
447.871	29422.14
448.078	30804.52
448.284	29180.48
448.491	29952.57
448.697	31384.1
448.903	31988.25
449.11	31916.57
449.316	31164.96
449.522	32037.4
449.728	32764.43
449.935	33325.57
450.141	32846.35
450.347	33882.62
450.553	32621.07
450.76	32987.66
450.966	33972.73
451.172	33978.87
451.378	34372.08
451.584	33743.36
451.791	34456.05
451.997	34531.83
452.203	35009
452.409	35142.12
452.615	35101.16
452.821	33745.41
453.027	33356.29
453.233	34912.75
453.44	33481.22
453.646	33974.78
453.852	34324.98
454.058	34490.87
454.264	33212.93
454.47	34509.3
454.676	33382.91
454.882	34247.16
455.088	31695.39
455.294	31541.79
455.5	32526.86
455.705	32645.65
455.911	31642.14
456.117	30743.08
456.323	30259.76
456.529	28873.29
456.735	29669.95
456.941	29155.91
457.147	28713.55
457.352	27898.45
457.558	27429.47
457.764	27642.46
457.97	27155.04
458.176	26462.83
458.381	26374.77
458.587	25217.66
458.793	25219.71
458.999	23790.23
459.204	25717.37
459.41	24666.76
459.616	23286.43
459.821	23317.15
460.027	23108.26
460.233	22698.66
460.438	21508.79
460.644	22031.02
460.85	20628.17
461.055	20304.59
461.261	20259.53
461.466	18903.78
461.672	18291.43
461.878	19383
462.083	18049.77
462.289	18227.95
462.494	17758.96
462.7	17277.69
462.905	16487.17
463.111	17191.67
463.316	17271.54
463.522	17109.75
463.727	16878.33
463.932	16704.26
464.138	16712.45
464.343	16876.29
464.549	16341.77
464.754	16653.06
464.959	16800.51
465.165	16464.64
465.37	16010
465.575	15473.43
465.781	16036.62
465.986	16225.03
466.191	15647.51
466.397	15346.45
466.602	14543.65
466.807	15174.42
467.012	15158.04
467.218	14871.33
467.423	14897.95
467.628	15082.27
467.833	15506.2
468.038	15289.11
468.244	14701.34
468.449	15313.69
468.654	14631.71
468.859	14412.58
469.064	14476.07
469.269	13833
469.474	13857.58
469.679	13949.74
469.885	13787.95
470.09	14062.38
470.295	14025.51
470.5	13818.67
470.705	13677.36
470.91	13611.82
471.115	13247.29
471.32	13300.53
471.525	13439.79
471.73	13042.49
471.935	12946.23
472.139	12684.09
472.344	12804.92
472.549	12497.73
472.754	12565.31
472.959	11928.39
473.164	12092.23
473.369	11875.15
473.574	12327.75
473.778	12067.66
473.983	11946.83
474.188	12077.9
474.393	11512.66
474.598	11400.02
474.802	11172.69
475.007	11447.12
475.212	11187.03
475.417	10984.28
475.621	11012.95
475.826	11178.84
476.031	10644.32
476.235	10566.49
476.44	10599.26
476.645	10406.75
476.849	10447.71
477.054	10298.21
477.259	10120.04
477.463	10187.62
477.668	10060.65
477.872	10093.41
478.077	9894.76
478.282	9636.72
478.486	9642.86
478.691	9487.22
478.895	9579.37
479.1	9489.26
479.304	9493.36
479.509	9143.16
479.713	9530.22
479.918	9100.15
480.122	8975.22
480.326	9100.15
480.531	9102.2
480.735	9061.24
480.94	9036.66
481.144	9415.54
481.348	8878.97
481.553	8866.68
481.757	8751.99
481.961	8772.47
482.166	8897.4
482.37	8993.65
482.574	8786.81
482.778	8827.77
482.983	8860.54
483.187	8745.85
483.391	8987.51
483.595	8739.71
483.8	8682.36
484.004	8852.34
484.208	8864.63
484.412	8776.57
484.616	8772.47
484.821	8698.75
485.025	8825.72
485.229	8821.63
485.433	8856.44
485.637	8668.03
485.841	8661.88
486.045	8694.65
486.249	8842.11
486.453	8739.71
486.657	8711.04
486.861	8678.27
487.065	8506.24
487.269	8768.38
487.473	8696.7
487.677	8762.23
487.881	8846.2
488.085	8741.75
488.289	8846.2
488.493	8655.74
488.697	8930.17
488.901	8813.43
489.105	8751.99
489.309	8772.47
489.512	8881.02
489.716	8915.83
489.92	8911.74
490.124	8737.66
490.328	8926.07
490.531	8915.83
490.735	8946.55
490.939	9040.76
491.143	8934.26
491.346	8866.68
491.55	9106.29
491.754	9298.8
491.958	9304.95
492.161	9190.26
492.365	9401.2
492.569	9206.64
492.772	9202.55
492.976	9548.65
493.18	9464.69
493.383	9472.88
493.587	9528.17
493.79	9548.65
493.994	9397.1
494.197	9517.93
494.401	9816.94
494.605	9548.65
494.808	10083.17
495.012	9876.33
495.215	9968.49
495.419	10009.45
495.622	10011.5
495.825	10128.23
496.029	10156.9
496.232	10253.16
496.436	10511.2
496.639	10840.92
496.843	10441.57
497.046	10697.56
497.249	11072.34
497.453	10888.03
497.656	11094.87
497.859	10969.94
498.063	11119.45
498.266	11225.94
498.469	11440.98
498.673	11512.66
498.876	11617.1
499.079	11928.39
499.282	11858.76
499.485	12204.87
499.689	12168.01
499.892	12079.94
500.095	12464.96
500.298	12862.27
500.501	12634.94
500.705	12886.84
500.908	12929.85
501.111	13255.48
501.314	13390.64
501.517	13292.34
501.72	13755.18
501.923	13374.26
502.126	13720.37
502.329	14097.19
502.532	14328.61
502.735	14072.62
502.938	14502.69
503.141	14512.93
503.344	14986.01
503.547	14926.62
503.75	15166.23
503.953	15291.16
504.156	15485.72
504.359	15553.3
504.562	15481.62
504.765	16085.77
504.968	16044.81
505.17	16243.46
505.373	16198.41
505.576	16737.02
505.779	16995.07
505.982	16777.98
506.185	17253.11
506.387	17255.16
506.59	17304.31
506.793	17646.32
506.996	17681.14
507.198	18164.46
507.401	18006.77
507.604	18387.69
507.807	18668.26
508.009	18690.79
508.212	18893.54
508.415	19448.54
508.617	19405.53
508.82	19526.36
509.022	19366.62
509.225	19970.77
509.428	20163.28
509.63	20288.2
509.833	20153.04
510.035	20972.22
510.238	20796.1
510.44	21033.66
510.643	21469.88
510.845	21463.74
511.048	21508.79
511.25	21736.12
511.453	21924.53
511.655	22669.99
511.858	22534.82
512.06	22792.87
512.262	22710.95
512.465	23151.26
512.667	23358.11
512.87	23773.85
513.072	23704.21
513.274	24162.96
513.477	24433.29
513.679	24603.27
513.881	24734.34
514.084	25219.71
514.286	25131.65
514.488	25209.47
514.69	26094.19
514.893	26272.37
515.095	26237.55
515.297	26608.23
515.499	26534.51
515.701	27095.65
515.904	27341.41
516.106	27419.23
516.308	27640.41
516.51	27794.01
516.712	28084.82
516.914	28385.87
517.116	28971.59
517.318	28936.77
517.52	29293.12
517.722	29385.28
517.925	29585.98
518.127	29999.67
518.329	30239.28
518.531	29958.71
518.733	30706.22
518.935	31001.13
519.136	31070.76
519.338	31691.29
519.54	31851.03
519.742	32391.7
519.944	32377.36
520.146	32924.17
520.348	32926.22
520.55	32676.37
520.752	33309.19
520.954	34036.22
521.155	33411.59
521.357	34255.35
521.559	34542.06
521.761	35013.1
521.963	34642.42
522.164	34972.14
522.366	35330.53
522.568	35770.85
522.77	35932.64
522.971	36252.12
523.173	36346.33
523.375	36409.81
523.576	36542.93
523.778	36766.16
523.98	37030.35
524.181	37624.26
524.383	37765.57
524.584	37829.05
524.786	38109.63
524.988	37900.73
525.189	38302.14
525.391	38875.57
525.592	38717.87
525.794	39141.8
525.995	39199.15
526.197	38828.46
526.398	39254.44
526.6	39612.84
526.801	40030.62
527.003	39973.28
527.204	40216.99
527.406	40251.8
527.607	39872.93
527.808	40595.86
528.01	40325.53
528.211	40718.74
528.412	41671.04
528.614	41216.4
528.815	41595.27
529.016	41765.25
529.218	41120.14
529.419	41853.31
529.62	41496.97
529.822	41552.26
530.023	41296.27
530.224	41673.09
530.425	42430.84
530.626	41693.57
530.828	41294.22
531.029	42875.25
531.23	42144.12
531.431	42396.03
531.632	42545.53
531.833	42760.56
532.035	42649.97
532.236	42754.42
532.437	42649.97
532.638	42625.4
532.839	43084.14
533.04	42920.31
533.241	42324.35
533.442	43467.11
533.643	43098.48
533.844	42932.59
534.045	42969.46
534.246	42672.5
534.447	43331.95
534.648	43121.01
534.849	43100.53
535.05	42860.91
535.251	42981.74
535.451	43245.93
535.652	43606.37
535.853	43317.61
536.054	43331.95
536.255	43303.28
536.456	42951.02
536.657	43962.72
536.857	43536.74
537.058	43393.39
537.259	43338.09
537.46	43503.98
537.66	43454.82
537.861	43454.82
538.062	43426.15
538.263	43549.03
538.463	43209.07
538.664	43430.25
538.865	43913.57
539.065	43739.49
539.266	43235.69
539.466	43293.04
539.667	42774.9
539.868	43780.45
540.068	43596.13
540.269	43567.46
540.469	43944.29
540.67	43479.4
540.87	43415.91
541.071	43651.43
541.271	43702.63
541.472	43207.02
541.672	42910.07
541.873	42834.29
542.073	42953.07
542.274	43749.73
542.474	43059.57
542.675	42994.03
542.875	43798.88
543.075	43565.42
543.276	43157.87
543.476	43540.84
543.676	43026.8
543.877	43164.01
544.077	43192.68
544.277	43110.77
544.478	43141.49
544.678	43372.91
544.878	43393.39
545.078	43450.73
545.279	43100.53
545.479	43196.78
545.679	43649.38
545.879	43139.44
546.079	43127.15
546.28	43485.54
546.48	42822
546.68	43524.46
546.88	43131.25
547.08	43321.71
547.28	43266.41
547.48	43153.77
547.68	43096.43
547.88	42627.45
548.081	43401.58
548.281	43333.99
548.481	42822
548.681	43209.07
548.881	43315.56
549.081	42844.53
549.28	42983.79
549.48	42971.5
549.68	43022.7
549.88	43381.1
550.08	42760.56
550.28	42942.83
550.48	42744.18
550.68	43348.33
550.88	42828.15
551.08	42957.17
551.279	43231.6
551.479	42858.87
551.679	42733.94
551.879	42776.95
552.079	43481.45
552.278	42688.88
552.478	42910.07
552.678	42451.32
552.878	42838.39
553.077	43069.81
553.277	42637.69
553.477	42815.86
553.676	42424.7
553.876	42877.3
554.076	42862.96
554.275	42764.66
554.475	42217.85
554.674	42692.98
554.874	42570.1
555.074	42180.99
555.273	42520.95
555.473	42809.71
555.672	42180.99
555.872	42379.64
556.071	42197.37
556.271	42344.83
556.47	42365.31
556.67	41666.95
556.869	42017.15
557.068	41695.62
557.268	41812.35
557.467	42035.58
557.667	41675.14
557.866	42238.33
558.065	41359.75
558.265	41617.8
558.464	41732.48
558.663	41691.52
558.863	41595.27
559.062	41767.3
559.261	41347.47
559.461	42021.25
559.66	41021.84
559.859	41537.93
560.058	40812.95
560.258	40587.67
560.457	40698.26
560.656	40925.58
560.855	41048.46
561.054	41204.11
561.253	40630.68
561.453	40935.82
561.652	40862.1
561.851	40728.98
562.05	40692.12
562.249	40370.58
562.448	40610.2
562.647	40362.39
562.846	40313.24
563.045	39883.17
563.244	40126.88
563.443	40520.09
563.642	39389.61
563.841	40065.44
564.04	39684.51
564.239	40081.82
564.438	39481.77
564.637	39502.25
564.836	39758.24
565.035	39006.64
565.234	39340.46
565.432	39201.19
565.631	39117.23
565.83	39418.28
566.029	38885.81
566.228	38779.31
566.427	38584.76
566.625	38810.03
566.824	38455.73
567.023	38484.4
567.222	37898.69
567.42	38535.6
567.619	38322.62
567.818	38312.38
568.016	37687.74
568.215	38070.72
568.414	37835.2
568.612	38017.47
568.811	37790.14
569.01	37835.2
569.208	37294.53
569.407	37540.29
569.605	37474.76
569.804	37853.63
570.002	36852.17
570.201	37587.39
570.4	36874.7
570.598	36671.95
570.797	36565.46
570.995	36520.4
571.193	36065.75
571.392	36342.23
571.59	36405.72
571.789	36305.37
571.987	36221.4
572.186	35946.97
572.384	36213.21
572.582	35779.04
572.781	36082.14
572.979	35619.3
573.177	35584.48
573.376	35645.92
573.574	35062.25
573.772	35371.49
573.971	35258.85
574.169	35119.59
574.367	34742.77
574.565	35265
574.763	35101.16
574.962	34765.29
575.16	34310.64
575.358	34533.87
575.556	34134.52
575.754	34808.3
575.952	34120.18
576.151	34449.91
576.349	34038.26
576.547	33626.62
576.745	33964.54
576.943	33868.28
577.141	33839.61
577.339	34021.88
577.537	33485.31
577.735	33755.64
577.933	33206.79
578.131	33350.15
578.329	33114.63
578.527	32733.71
578.725	32870.92
578.923	33333.76
579.121	32864.78
579.319	32872.97
579.516	32782.86
579.714	32875.02
579.912	32469.52
580.11	32469.52
580.308	32262.68
580.506	32090.65
580.704	31668.76
580.901	31963.67
581.099	32176.66
581.297	31621.66
581.495	31580.7
581.692	31949.34
581.89	31562.27
582.088	31775.26
582.285	31431.2
582.483	31498.78
582.681	31318.56
582.878	31312.42
583.076	30802.47
583.274	31101.48
583.471	30431.79
583.669	30810.67
583.866	30847.53
584.064	30927.4
584.262	30485.04
584.459	30630.44
584.657	30226.99
584.854	30564.91
585.052	29764.15
585.249	30216.75
585.447	30237.23
585.644	29653.56
585.841	29893.18
586.039	30175.8
586.236	29577.79
586.434	29483.58
586.631	29411.9
586.828	29243.97
587.026	29661.76
587.223	29270.59
587.42	29332.03
587.618	29182.53
587.815	29065.8
588.012	28774.98
588.21	28539.47
588.407	28891.72
588.604	28684.87
588.801	28543.56
588.999	28559.95
589.196	28480.08
589.393	28596.81
589.59	28299.86
589.787	28232.27
589.984	28054.1
590.182	27980.37
590.379	28410.45
590.576	27906.65
590.773	27996.76
590.97	27726.42
591.167	27800.15
591.364	27619.93
591.561	27626.07
591.758	27173.47
591.955	27490.91
592.152	27335.26
592.349	27146.85
592.546	27286.11
592.743	27171.43
592.94	26944.1
593.137	26878.57
593.334	27095.65
593.531	26696.3
593.727	27050.6
593.924	26684.01
594.121	26004.08
594.318	26092.15
594.515	26462.83
594.712	26350.19
594.908	25780.85
595.105	26253.94
595.302	25795.19
595.499	26167.92
595.696	25993.84
595.892	25881.21
596.089	25995.89
596.286	25821.81
596.482	25625.21
596.679	25514.62
596.876	25524.86
597.072	25330.3
597.269	25492.09
597.466	25100.93
597.662	24861.32
597.859	25141.89
598.055	24971.91
598.252	24633.99
598.448	24910.47
598.645	24781.45
598.841	24652.42
599.038	24689.29
599.234	24562.31
599.431	24584.84
599.627	24132.24
599.824	24281.74
600.02	24179.34
600.217	24334.99
600.413	24011.41
600.609	24136.34
600.806	23962.26
601.002	24072.85
601.198	23775.89
601.395	23825.04
601.591	23698.07
601.787	23712.41
601.984	23546.52
602.18	23515.8
602.376	23360.16
602.572	23241.37
602.769	23659.16
602.965	22938.27
603.161	23077.54
603.357	22831.78
603.553	22766.24
603.75	22923.94
603.946	22839.97
604.142	22796.96
604.338	22319.79
604.534	22766.24
604.73	22344.36
604.926	22375.08
605.122	22338.22
605.318	22442.67
605.514	22084.27
605.71	21918.39
605.906	21959.34
606.102	22024.88
606.298	21990.06
606.494	22043.31
606.69	21930.67
606.886	21854.9
607.082	21519.03
607.278	21865.14
607.474	21424.83
607.67	21744.31
607.866	21185.21
608.062	21533.37
608.257	21467.83
608.453	21220.03
608.649	21252.8
608.845	21279.42
609.041	21183.16
609.236	21265.08
609.432	21160.64
609.628	21099.2
609.824	21109.44
610.019	20937.41
610.215	20775.62
610.411	20894.4
610.606	20597.45
610.802	20583.11
610.998	20404.94
611.193	20667.08
611.389	20437.7
611.584	20675.27
611.78	20335.31
611.976	20579.01
612.171	20257.48
612.367	20296.39
612.562	20181.71
612.758	20030.16
612.953	20132.56
613.149	20384.46
613.344	20060.88
613.539	20533.96
613.735	20110.03
613.93	20204.24
614.126	19665.62
614.321	20269.77
614.517	19942.1
614.712	19931.86
614.907	19647.19
615.103	19872.46
615.298	19493.59
615.493	19722.96
615.688	19516.12
615.884	19845.84
616.079	19354.33
616.274	19583.7
616.47	19305.18
616.665	19651.28
616.86	19526.36
617.055	19278.55
617.25	19225.31
617.445	19532.5
617.641	19049.18
617.836	19077.85
618.031	18705.12
618.226	18727.65
618.421	19057.37
618.616	19180.25
618.811	18586.34
619.006	19133.15
619.201	18645.73
619.396	18760.42
619.591	18557.67
619.786	18580.2
619.981	18277.1
620.176	18397.93
620.371	18217.71
620.566	18207.47
620.761	18129.64
620.956	18352.87
621.151	17732.34
621.346	17957.61
621.541	17756.91
621.735	17896.17
621.93	17236.73
622.125	17457.91
622.32	17201.91
622.515	17392.37
622.709	17019.64
622.904	17163
623.099	16997.12
623.294	17091.32
623.488	16849.66
623.683	16974.59
623.878	16630.53
624.072	16567.04
624.267	16685.83
624.462	16397.06
624.656	16427.78
624.851	16464.64
625.046	16014.09
625.24	16161.55
625.435	16038.67
625.629	15969.04
625.824	15876.88
626.018	15762.19
626.213	15624.98
626.407	15610.64
626.602	15588.11
626.796	15598.35
626.991	15272.73
627.185	15678.22
627.38	15186.71
627.574	15166.23
627.768	15026.97
627.963	14856.99
628.157	14709.54
628.352	14897.95
628.546	14623.52
628.74	14820.13
628.935	14471.97
629.129	14439.2
629.323	14457.64
629.517	14308.13
629.712	14353.19
629.906	14181.16
630.1	14041.9
630.294	14074.67
630.489	13984.55
630.683	14089
630.877	13781.81
631.071	13611.82
631.265	13632.3
631.459	13685.55
631.653	13527.86
631.848	13609.78
632.042	13550.39
632.236	13425.46
632.43	13067.06
632.624	13368.12
632.818	13355.83
633.012	12938.04
633.206	12917.56
633.4	13042.49
633.594	12669.76
633.788	12917.56
633.982	12800.83
634.176	12620.61
634.369	12350.28
634.563	12571.46
634.757	12434.24
634.951	12616.51
635.145	12311.36
635.339	12553.02
635.533	12434.24
635.726	12114.76
635.92	12084.04
636.114	12065.61
636.308	12172.1
636.501	12002.12
636.695	11858.76
636.889	11762.51
637.083	11578.19
637.276	11766.6
637.47	11633.49
637.664	11512.66
637.857	11424.59
638.051	11465.55
638.244	11248.47
638.438	11338.58
638.632	11336.53
638.825	11293.52
639.019	11131.73
639.212	11004.76
639.406	10814.3
639.599	11029.34
639.793	11025.24
639.986	10838.87
640.18	10910.55
640.373	10677.09
640.567	10457.95
640.76	10414.95
640.954	10455.9
641.147	10347.36
641.34	10277.73
641.534	10400.61
641.727	10173.28
641.92	10290.02
642.114	10054.5
642.307	10040.17
642.5	9886.57
642.694	9841.51
642.887	9861.99
643.08	9913.19
643.273	9970.54
643.467	9765.74
643.66	9562.99
643.853	9720.68
644.046	9352.05
644.239	9556.85
644.432	9618.29
644.626	9466.74
644.819	9417.58
645.012	9405.3
645.205	9108.34
645.398	9188.21
645.591	9153.4
645.784	9124.72
645.977	9057.14
646.17	9116.53
646.363	9022.33
646.556	8829.82
646.749	8934.26
646.942	8987.51
647.135	8964.98
647.328	8817.53
647.521	8711.04
647.714	8672.12
647.907	8743.8
648.099	8481.66
648.292	8479.61
648.485	8373.12
648.678	8366.98
648.871	8297.35
649.064	8225.67
649.256	8309.63
649.449	8227.71
649.642	8145.8
649.835	8086.4
650.027	7996.29
650.22	7967.62
650.413	8031.11
650.605	7971.72
650.798	7865.22
650.991	7965.57
651.183	7832.46
651.376	7707.53
651.568	7793.55
651.761	7648.14
651.954	7617.42
652.146	7793.55
652.339	7623.56
652.531	7512.97
652.724	7568.27
652.916	7328.66
653.109	7392.14
653.301	7455.63
653.494	7314.32
653.686	7191.44
653.879	7377.81
654.071	7173.01
654.263	7347.09
654.456	7136.15
654.648	7324.56
654.84	7058.32
655.033	7068.56
655.225	7078.8
655.417	6878.1
655.61	6914.97
655.802	6902.68
655.994	6843.29
656.186	7037.84
656.379	6732.7
656.571	6837.14
656.763	6845.34
656.955	6790.04
657.148	6732.7
657.34	6564.76
657.532	6591.39
657.724	6478.75
657.916	6570.91
658.108	6464.41
658.3	6450.08
658.492	6523.8
658.684	6505.37
658.876	6366.11
659.068	6536.09
659.26	6400.93
659.452	6216.61
659.644	6177.7
659.836	6120.35
660.028	6286.24
660.22	6030.24
660.412	5985.19
660.604	6124.45
660.796	5917.61
660.988	6026.15
661.18	5770.15
661.372	5786.54
661.563	6099.87
661.755	5940.13
661.947	5977
662.139	5864.36
662.331	5931.94
662.522	5729.19
662.714	5893.03
662.906	5757.86
663.097	5704.62
663.289	5565.36
663.481	5651.37
663.673	5596.07
663.864	5546.92
664.056	5483.44
664.247	5655.47
664.439	5526.44
664.631	5505.96
664.822	5434.29
665.014	5510.06
665.205	5335.98
665.397	5417.9
665.588	5249.97
665.78	5180.34
665.971	5190.58
666.163	5368.75
666.354	5100.47
666.546	5192.62
666.737	5254.06
666.929	5268.4
667.12	5139.38
667.311	4920.24
667.503	4979.64
667.694	5079.99
667.885	5004.21
668.077	5002.16
668.268	4969.4
668.459	4946.87
668.651	4961.2
668.842	4887.48
669.033	4920.24
669.224	4783.03
669.416	4914.1
669.607	4799.41
669.798	4791.22
669.989	4733.88
670.18	4592.57
670.371	4828.09
670.563	4567.99
670.754	4635.58
670.945	4594.62
671.136	4813.75
671.327	4527.03
671.518	4522.94
671.709	4553.66
671.9	4713.4
672.091	4580.28
672.282	4477.88
672.473	4508.6
672.664	4469.69
672.855	4410.3
673.046	4412.35
673.237	4449.21
673.428	4479.93
673.619	4492.22
673.809	4389.82
674	4385.73
674.191	4352.96
674.382	4211.65
674.573	4299.71
674.764	4275.13
674.954	4312
675.145	4191.17
675.336	4176.83
675.527	4289.47
675.717	4232.13
675.908	4152.26
676.099	4268.99
676.289	4144.06
676.48	4103.11
676.671	4170.69
676.861	4117.44
677.052	4162.5
677.243	4049.86
677.433	4125.63
677.624	4068.29
677.814	4049.86
678.005	4027.33
678.195	3994.56
678.386	4051.91
678.576	3959.75
678.767	3947.46
678.957	4053.95
679.148	3988.42
679.338	4008.9
679.529	3912.64
679.719	3818.44
679.909	3994.56
680.1	3937.22
680.29	3994.56
680.481	3953.6
680.671	3894.21
680.861	3976.13
681.052	3873.73
681.242	3943.36
681.432	3845.06
681.622	3947.46
681.813	3881.92
682.003	3781.57
682.193	3777.48
682.383	3924.93
682.573	3947.46
682.764	3849.16
682.954	3771.33
683.144	3808.2
683.334	3804.1
683.524	3843.01
683.714	3740.61
683.904	3851.21
684.094	3775.43
684.284	3619.78
684.474	3759.05
684.664	3670.98
684.854	3734.47
685.044	3754.95
685.234	3685.32
685.424	3439.56
685.614	3648.46
685.804	3535.82
685.994	3552.2
686.184	3527.63
686.374	3580.87
686.564	3574.73
686.753	3662.79
686.943	3541.96
687.133	3513.29
687.323	3398.6
687.513	3523.53
687.702	3554.25
687.892	3548.11
688.082	3394.51
688.272	3501
688.461	3427.28
688.651	3328.97
688.841	3423.18
689.03	3382.22
689.22	3288.01
689.41	3396.56
689.599	3232.72
689.789	3398.6
689.979	3398.6
690.168	3388.36
690.358	3222.48
690.547	3417.04
690.737	3423.18
690.926	3345.36
691.116	3197.9
691.305	3337.17
691.495	3177.42
691.684	3322.83
691.874	3136.46
692.063	3177.42
692.252	3075.03
692.442	3128.27
692.631	3210.19
692.82	3263.44
693.01	3103.7
693.199	3042.26
693.388	3097.55
693.578	3109.84
693.767	3023.83
693.956	3095.5
694.146	3029.97
694.335	3167.18
694.524	2958.29
694.713	3113.94
694.902	3091.41
695.092	3050.45
695.281	3077.07
695.47	3007.44
695.659	3156.94
695.848	2968.53
696.037	2966.48
696.226	3095.5
696.415	2984.91
696.604	2919.38
696.793	3029.97
696.982	3027.92
697.171	3029.97
697.36	2986.96
697.549	2995.15
697.738	3003.35
697.927	2923.48
698.116	2974.67
698.305	3054.55
698.494	2993.11
698.683	2882.52
698.872	2991.06
699.061	2978.77
699.25	3027.92
699.438	2915.28
699.627	2882.52
699.816	2958.29
700.005	2896.85
700.193	2946
700.382	2898.9
700.571	3056.59
700.76	2870.23
700.948	2954.19
701.137	2819.03
701.326	3044.31
701.514	2894.8
701.703	3105.74
701.892	2991.06
702.08	2974.67
702.269	2989.01
702.457	2919.38
702.646	2913.24
702.834	2968.53
703.023	2958.29
703.212	2915.28
703.4	3044.31
703.589	2972.63
703.777	2995.15
703.965	2876.37
704.154	2853.84
704.342	2792.41
704.531	2833.36
704.719	3021.78
704.907	2941.91
705.096	2894.8
705.284	2843.6
705.472	2812.89
705.661	2857.94
705.849	3023.83
706.037	2943.96
706.226	2935.76
706.414	2900.95
706.602	2839.51
706.79	2919.38
706.979	2786.26
707.167	2915.28
707.355	2919.38
707.543	2884.56
707.731	2970.58
707.919	2907.09
708.107	2868.18
708.296	2888.66
708.484	2995.15
708.672	2810.84
708.86	2870.23
709.048	2855.89
709.236	2911.19
709.424	2798.55
709.612	2837.46
709.8	2806.74
709.988	2780.12
710.176	2923.48
710.364	2819.03
710.551	2874.32
710.739	2718.68
710.927	2919.38
711.115	2792.41
711.303	2831.32
711.491	2724.82
711.679	2773.97
711.866	2724.82
712.054	2679.77
712.242	2745.3
712.43	2814.93
712.617	2810.84
712.805	2800.6
712.993	2778.07
713.181	2698.2
713.368	2728.92
713.556	2849.75
713.744	2665.43
713.931	2800.6
714.119	2767.83
714.306	2710.49
714.494	2673.62
714.682	2784.21
714.869	2733.01
715.057	2694.1
715.244	2694.1
715.432	2708.44
715.619	2730.97
715.807	2724.82
715.994	2782.17
716.182	2739.16
716.369	2714.58
716.556	2776.02
716.744	2726.87
716.931	2792.41
717.119	2810.84
717.306	2669.53
717.493	2788.31
717.681	2757.59
717.868	2603.99
718.055	2739.16
718.242	2755.54
718.43	2730.97
718.617	2782.17
718.804	2704.34
718.991	2745.3
719.179	2771.93
719.366	2651.1
719.553	2628.57
719.74	2683.86
719.927	2700.25
720.114	2714.58
720.301	2640.86
720.488	2704.34
720.676	2751.45
720.863	2739.16
721.05	2759.64
721.237	2724.82
721.424	2603.99
721.611	2661.34
721.798	2618.33
721.985	2618.33
722.172	2624.47
722.358	2651.1
722.545	2698.2
722.732	2616.28
722.919	2644.95
723.106	2554.84
723.293	2634.71
723.48	2565.08
723.667	2620.38
723.853	2698.2
724.04	2737.11
724.227	2597.85
724.414	2546.65
724.6	2503.64
724.787	2626.52
724.974	2628.57
725.161	2583.51
725.347	2501.59
725.534	2681.82
725.72	2462.68
725.907	2601.94
726.094	2483.16
726.28	2554.84
726.467	2661.34
726.653	2606.04
726.84	2565.08
727.027	2593.75
727.213	2528.22
727.4	2651.1
727.586	2442.2
727.773	2501.59
727.959	2571.22
728.145	2556.89
728.332	2632.66
728.518	2618.33
728.705	2538.46
728.891	2569.18
729.077	2565.08
729.264	2446.3
729.45	2610.14
729.636	2509.79
729.823	2528.22
730.009	2534.36
730.195	2563.03
730.382	2577.37
730.568	2513.88
730.754	2530.27
730.94	2515.93
731.126	2546.65
731.313	2477.02
731.499	2421.72
731.685	2583.51
731.871	2446.3
732.057	2550.75
732.243	2497.5
732.429	2579.42
732.615	2524.12
732.801	2513.88
732.987	2468.83
733.173	2538.46
733.359	2477.02
733.545	2440.15
733.731	2487.26
733.917	2444.25
734.103	2546.65
734.289	2411.48
734.475	2448.35
734.661	2497.5
734.847	2370.52
735.033	2376.67
735.219	2350.04
735.404	2407.39
735.59	2448.35
735.776	2423.77
735.962	2436.06
736.148	2436.06
736.333	2362.33
736.519	2231.26
736.705	2415.58
736.89	2380.76
737.076	2329.56
737.262	2487.26
737.447	2370.52
737.633	2401.24
737.819	2309.08
738.004	2276.32
738.19	2280.41
738.375	2253.79
738.561	2382.81
738.747	2300.89
738.932	2360.28
739.118	2464.73
739.303	2325.47
739.489	2382.81
739.674	2350.04
739.859	2368.48
740.045	2401.24
740.23	2208.73
740.416	2178.01
740.601	2382.81
740.786	2221.02
740.972	2245.6
741.157	2122.72
741.342	2132.96
741.528	2239.45
741.713	2190.3
741.898	2317.28
742.084	2317.28
742.269	2223.07
742.454	2165.73
742.639	2233.31
742.824	2155.49
743.01	2223.07
743.195	2210.78
743.38	2194.4
743.565	2227.17
743.75	2057.18
743.935	2155.49
744.12	2317.28
744.305	2182.11
744.49	2100.19
744.675	2126.82
744.86	2178.01
745.045	2100.19
745.23	2051.04
745.415	2034.66
745.6	2124.77
745.785	2155.49
745.97	1942.5
746.155	1991.65
746.34	2071.52
746.525	1956.83
746.71	2061.28
746.895	2034.66
747.079	1936.35
747.264	1838.05
747.449	1948.64
747.634	1889.25
747.819	1977.31
748.003	1971.17
748.188	1844.2
748.373	1985.51
748.557	1844.2
748.742	1842.15
748.927	1956.83
749.111	1825.76
749.296	1883.11
749.481	1836
749.665	1737.7
749.85	1815.52
750.034	1797.09
750.219	1772.52
750.404	1786.85
750.588	1817.57
750.773	1620.97
750.957	1678.31
751.141	1764.33
751.326	1864.68
751.51	1661.93
751.695	1637.35
751.879	1653.73
752.064	1663.97
752.248	1801.19
752.432	1620.97
752.617	1559.53
752.801	1694.69
752.985	1571.82
753.17	1616.87
753.354	1678.31
753.538	1522.66
753.722	1641.45
753.907	1602.54
754.091	1498.09
754.275	1467.37
754.459	1459.18
754.643	1571.82
754.828	1526.76
755.012	1563.62
755.196	1418.22
755.38	1481.71
755.564	1485.8
755.748	1358.83
755.932	1362.92
756.116	1465.32
756.3	1389.55
756.484	1405.93
756.668	1422.31
756.852	1471.47
757.036	1358.83
757.22	1399.79
757.404	1330.16
757.588	1340.4
757.772	1305.58
757.956	1321.96
758.14	1281
758.323	1256.43
758.507	1338.35
758.691	1313.77
758.875	1289.2
759.059	1340.4
759.242	1297.39
759.426	1258.48
759.61	1344.49
759.794	1182.7
759.977	1238
760.161	1199.09
760.345	1209.33
760.528	1244.14
760.712	1287.15
760.895	1270.76
761.079	1215.47
761.263	1209.33
761.446	1225.71
761.63	1199.09
761.813	1264.62
761.997	1088.5
762.18	1201.13
762.364	1108.98
762.547	1199.09
762.731	1278.96
762.914	1219.57
763.098	1139.69
763.281	1049.58
763.464	1113.07
763.648	1119.21
763.831	1070.06
764.015	1104.88
764.198	1121.26
764.381	1108.98
764.564	1154.03
764.748	988.14
764.931	1104.88
765.114	1121.26
765.297	1123.31
765.481	1094.64
765.664	1063.92
765.847	1043.44
766.03	1151.98
766.213	1133.55
766.397	1039.34
766.58	1063.92
766.763	979.95
766.946	1063.92
767.129	984.05
767.312	982
767.495	965.62
767.678	1002.48
767.861	1100.78
768.044	1008.62
768.227	1035.25
768.41	984.05
768.593	1059.82
768.776	984.05
768.959	965.62
769.142	936.95
769.324	998.38
769.507	1027.06
769.69	867.31
769.873	926.71
770.056	1061.87
770.239	1010.67
770.421	965.62
770.604	1012.72
770.787	1057.78
770.97	924.66
771.152	936.95
771.335	904.18
771.518	912.37
771.7	906.23
771.883	871.41
772.066	953.33
772.248	996.34
772.431	920.56
772.613	924.66
772.796	748.53
772.978	904.18
773.161	785.4
773.343	885.75
773.526	906.23
773.708	855.03
773.891	881.65
774.073	871.41
774.256	785.4
774.438	846.84
774.621	836.6
774.803	850.93
774.985	781.3
775.168	828.4
775.35	701.43
775.532	799.73
775.715	740.34
775.897	838.64
776.079	832.5
776.261	777.2
776.444	795.64
776.626	883.7
776.808	740.34
776.99	773.11
777.173	707.57
777.355	848.88
777.537	742.39
777.719	726
777.901	625.65
778.083	719.86
778.265	721.91
778.447	697.33
778.629	701.43
778.811	699.38
778.993	703.48
779.175	779.25
779.357	685.05
779.539	599.03
779.721	611.32
779.903	668.66
780.085	662.52
780.267	666.61
780.449	637.94
780.631	719.86
780.812	658.42
780.994	662.52
781.176	629.75
781.358	566.26
781.54	568.31
781.721	656.37
781.903	609.27
782.085	537.59
782.267	570.36
782.448	584.7
782.63	580.6
782.812	566.26
782.993	543.74
783.175	547.83
783.357	564.22
783.538	576.5
783.72	529.4
783.901	541.69
784.083	533.5
784.264	582.65
784.446	545.78
784.627	472.06
784.809	515.06
784.99	562.17
785.172	529.4
785.353	519.16
785.535	562.17
785.716	498.68
785.897	424.95
786.079	482.3
786.26	496.63
786.441	443.39
786.623	449.53
786.804	461.82
786.985	480.25
787.167	527.35
787.348	449.53
787.529	449.53
787.71	465.91
787.891	510.97
788.073	494.58
788.254	400.38
788.435	429.05
788.616	463.86
788.797	506.87
788.978	418.81
789.159	441.34
789.34	465.91
789.522	478.2
789.703	359.42
789.884	441.34
790.065	453.63
790.246	453.63
790.427	357.37
790.607	427
790.788	416.76
790.969	396.28
791.15	455.67
791.331	396.28
791.512	431.1
791.693	416.76
791.874	398.33
792.054	457.72
792.235	406.52
792.416	373.75
792.597	302.08
792.778	306.17
792.958	332.79
793.139	381.95
793.32	318.46
793.5	369.66
793.681	449.53
793.862	422.91
794.042	429.05
794.223	334.84
794.404	308.22
794.584	310.27
794.765	386.04
794.945	351.23
795.126	355.32
795.306	340.99
795.487	340.99
795.667	261.12
795.848	230.4
796.028	308.22
796.209	328.7
796.389	388.09
796.57	312.32
796.75	365.56
796.93	336.89
797.111	252.92
797.291	291.84
797.471	345.08
797.652	361.47
797.832	285.69
798.012	326.65
798.192	283.64
798.373	230.4
798.553	291.84
798.733	332.79
798.913	283.64
799.093	277.5
799.274	228.35
799.454	277.5
799.634	349.18
799.814	230.4
799.994	332.79
800.174	277.5
800.354	318.46
800.534	291.84
800.714	302.08
800.894	211.96
801.074	179.2
801.254	224.25
801.434	291.84
801.614	291.84
801.794	195.58
801.974	631.8
802.154	220.16
802.334	326.65
802.514	273.4
802.693	199.68
802.873	263.16
803.053	285.69
803.233	263.16
803.413	216.06
803.592	211.96
803.772	209.92
803.952	216.06
804.131	259.07
804.311	293.88
804.491	291.84
804.67	216.06
804.85	203.77
805.03	209.92
805.209	293.88
805.389	211.96
805.568	263.16
805.748	211.96
805.928	234.49
806.107	285.69
806.287	252.92
806.466	207.87
806.646	214.01
806.825	195.58
807.004	238.59
807.184	250.88
807.363	293.88
807.543	179.2
807.722	144.38
807.901	203.77
808.081	345.08
808.26	175.1
808.439	175.1
808.619	267.26
808.798	220.16
808.977	207.87
809.156	164.86
809.336	191.49
809.515	179.2
809.694	179.2
809.873	185.34
810.052	156.67
810.231	216.06
810.411	201.72
810.59	179.2
810.769	199.68
810.948	230.4
811.127	123.9
811.306	173.05
811.485	220.16
811.664	138.24
811.843	240.64
812.022	254.97
812.201	220.16
812.38	218.11
812.559	156.67
812.737	183.29
812.916	187.39
813.095	160.77
813.274	162.81
813.453	142.33
813.632	158.72
813.811	224.25
813.989	150.53
814.168	173.05
814.347	121.85
814.526	158.72
814.704	187.39
814.883	199.68
815.062	101.37
815.24	162.81
815.419	95.23
815.598	248.83
815.776	148.48
815.955	162.81
816.133	119.81
816.312	150.53
816.49	121.85
816.669	128
816.847	183.29
817.026	175.1
817.204	220.16
817.383	144.38
817.561	154.62
817.74	173.05
817.918	154.62
818.097	183.29
818.275	140.29
818.453	123.9
818.632	97.28
818.81	115.71
818.988	220.16
819.167	185.34
819.345	222.2
819.523	164.86
819.701	156.67
819.879	107.52
820.058	148.48
820.236	164.86
820.414	87.04
820.592	119.81
820.77	162.81
820.948	138.24
821.127	89.09
821.305	238.59
821.483	140.29
821.661	146.43
821.839	144.38
822.017	142.33
822.195	181.25
822.373	152.57
822.551	130.05
822.729	89.09
822.907	183.29
823.085	191.49
823.262	166.91
823.44	80.89
823.618	166.91
823.796	158.72
823.974	107.52
824.152	64.51
824.329	80.89
824.507	54.27
824.685	93.18
824.863	107.52
825.04	130.05
825.218	121.85
825.396	146.43
825.574	78.85
825.751	76.8
825.929	134.14
826.107	105.47
826.284	101.37
826.462	23.55
826.639	111.61
826.817	87.04
826.994	119.81
827.172	97.28
827.349	125.95
827.527	136.19
827.704	189.44
827.882	144.38
828.059	152.57
828.237	101.37
828.414	107.52
828.591	31.74
828.769	158.72
828.946	70.65
829.124	95.23
829.301	44.03
829.478	64.51
829.655	142.33
829.833	93.18
830.01	136.19
830.187	91.13
830.364	82.94
830.542	150.53
830.719	152.57
830.896	123.9
831.073	80.89
831.25	78.85
831.427	84.99
831.604	117.76
831.782	117.76
831.959	113.66
832.136	-17.41
832.313	117.76
832.49	84.99
832.667	130.05
832.844	64.51
833.021	187.39
833.198	15.36
833.374	132.09
833.551	62.46
833.728	119.81
833.905	74.75
834.082	19.46
834.259	99.33
834.436	154.62
834.612	136.19
834.789	109.57
834.966	109.57
835.143	156.67
835.319	52.22
835.496	84.99
835.673	160.77
835.85	107.52
836.026	80.89
836.203	68.61
836.38	74.75
836.556	152.57
836.733	80.89
836.909	146.43
837.086	128
837.262	68.61
837.439	48.13
837.616	25.6
837.792	58.37
837.968	119.81
838.145	31.74
838.321	113.66
838.498	113.66
838.674	56.32
838.851	113.66
839.027	115.71
839.203	103.42
839.38	52.22
839.556	56.32
839.732	160.77
839.909	35.84
840.085	146.43
840.261	121.85
840.437	119.81
840.614	95.23
840.79	66.56
840.966	52.22
841.142	76.8
841.318	56.32
841.494	109.57
841.671	111.61
841.847	91.13
842.023	87.04
842.199	109.57
842.375	74.75
842.551	15.36
842.727	70.65
842.903	134.14
843.079	95.23
843.255	29.7
843.431	89.09
843.607	84.99
843.783	-7.17
843.959	7.17
844.134	7.17
844.31	123.9
844.486	68.61
844.662	93.18
844.838	35.84
845.013	101.37
845.189	105.47
845.365	54.27
845.541	21.5
845.716	33.79
845.892	115.71
846.068	46.08
846.244	19.46
846.419	21.5
846.595	78.85
846.77	105.47
846.946	-27.65
847.122	39.94
847.297	44.03
847.473	74.75
847.648	15.36
847.824	64.51
847.999	-23.55
848.175	35.84
848.35	62.46
848.526	27.65
848.701	105.47
848.876	95.23
849.052	17.41
849.227	48.13
849.403	89.09
849.578	82.94
849.753	13.31
849.929	72.7
850.104	76.8
850.279	107.52
850.454	54.27
850.63	3.07
850.805	-52.22
850.98	5.12
851.155	56.32
851.33	97.28
851.505	44.03
851.681	87.04
851.856	-19.46
852.031	58.37
852.206	-11.26
852.381	21.5
852.556	70.65
852.731	50.18
852.906	82.94
853.081	66.56
853.256	97.28
853.431	13.31
853.606	17.41
853.781	-5.12
853.956	-48.13
854.131	80.89
854.305	70.65
854.48	31.74
854.655	21.5
854.83	35.84
855.005	41.98
855.18	35.84
855.354	17.41
855.529	89.09
855.704	-1.02
855.879	-3.07
856.053	72.7
856.228	76.8
856.403	82.94
856.577	62.46
856.752	52.22
856.926	84.99
857.101	23.55
857.276	93.18
857.45	68.61
857.625	91.13
857.799	58.37
857.974	54.27
858.148	54.27
858.323	15.36
858.497	-1.02
858.672	35.84
858.846	3.07
859.02	62.46
859.195	70.65
859.369	35.84
859.543	39.94
859.718	78.85
859.892	119.81
860.066	-7.17
860.241	21.5
860.415	-66.56
860.589	74.75
860.763	3.07
860.938	-58.37
861.112	101.37
861.286	29.7
861.46	84.99
861.634	21.5
861.808	138.24
861.982	-41.98
862.157	76.8
862.331	54.27
862.505	91.13
862.679	-27.65
862.853	44.03
863.027	-29.7
863.201	74.75
863.375	-11.26
863.549	13.31
863.722	3.07
863.896	31.74
864.07	7.17
864.244	52.22
864.418	23.55
864.592	-52.22
864.766	15.36
864.939	54.27
865.113	3.07
865.287	107.52
865.461	19.46
865.634	97.28
865.808	23.55
865.982	52.22
866.156	7.17
866.329	3.07
866.503	48.13
866.676	64.51
866.85	3.07
867.024	-23.55
867.197	76.8
867.371	15.36
867.544	62.46
867.718	60.42
867.891	60.42
868.065	-44.03
868.238	19.46
868.412	72.7
868.585	1.02
868.759	72.7
868.932	80.89
869.105	80.89
869.279	62.46
869.452	35.84
869.625	136.19
869.799	48.13
869.972	-1.02
870.145	3.07
870.319	46.08
870.492	54.27
870.665	72.7
870.838	41.98
871.011	7.17
871.185	-13.31
871.358	25.6
871.531	115.71
871.704	37.89
871.877	46.08
872.05	87.04
872.223	-46.08
872.396	74.75
872.569	123.9
872.742	29.7
872.915	62.46
873.088	17.41
873.261	-1.02
873.434	11.26
873.607	56.32
873.78	19.46
873.953	-3.07
874.126	-39.94
874.299	9.22
874.471	19.46
874.644	13.31
874.817	-35.84
874.99	46.08
875.163	21.5
875.335	62.46
875.508	-13.31
875.681	103.42
875.853	-17.41
876.026	76.8
876.199	27.65
876.371	19.46
876.544	-15.36
876.717	39.94
876.889	-11.26
877.062	-21.5
877.234	7.17
877.407	23.55
877.579	-33.79
877.752	80.89
877.924	52.22
878.097	64.51
878.269	44.03
878.442	105.47
878.614	-25.6
878.786	23.55
878.959	23.55
879.131	62.46
879.303	37.89
879.476	-60.42
879.648	27.65
879.82	44.03
879.993	87.04
880.165	-29.7
880.337	-29.7
880.509	23.55
880.681	3.07
880.854	-29.7
881.026	-37.89
881.198	68.61
881.37	64.51
881.542	44.03
881.714	11.26
881.886	-44.03
882.058	-11.26
882.23	11.26
882.402	84.99
882.574	27.65
882.746	-29.7
882.918	48.13
883.09	31.74
883.262	89.09
883.434	46.08
883.606	23.55
883.778	-11.26
883.95	11.26
884.122	44.03
884.293	17.41
884.465	-9.22
884.637	35.84
884.809	31.74
884.98	7.17
885.152	41.98
885.324	-13.31
885.496	-48.13
885.667	21.5
885.839	-25.6
886.011	-5.12
886.182	44.03
886.354	29.7
886.525	15.36
886.697	80.89
886.869	-41.98
887.04	-13.31
887.212	60.42
887.383	19.46
887.555	-35.84
887.726	27.65
887.897	52.22
888.069	58.37
888.24	27.65
888.412	-5.12
888.583	46.08
888.754	-29.7
888.926	23.55
889.097	134.14
889.268	-5.12
889.44	19.46
889.611	3.07
889.782	9.22
889.953	60.42
890.125	-19.46
890.296	-37.89
890.467	1.02
890.638	19.46
890.809	31.74
890.98	52.22
891.151	33.79
891.323	9.22
891.494	66.56
891.665	15.36
891.836	-13.31
892.007	-13.31
892.178	17.41
892.349	56.32
892.52	-27.65
892.691	7.17
892.862	-35.84
893.032	-9.22
893.203	37.89
893.374	52.22
893.545	64.51
893.716	-33.79
893.887	72.7
894.057	-23.55
894.228	3.07
894.399	52.22
894.57	-1.02
894.74	11.26
894.911	27.65
895.082	70.65
895.253	-9.22
895.423	39.94
895.594	23.55
895.764	25.6
895.935	64.51
896.106	-19.46
896.276	52.22
896.447	7.17
896.617	-82.94
896.788	19.46
896.958	39.94
897.129	23.55
897.299	19.46
897.47	58.37
897.64	33.79
897.81	-19.46
897.981	17.41
898.151	19.46
898.322	52.22
898.492	23.55
898.662	-9.22
898.832	15.36
899.003	25.6
899.173	23.55
899.343	-5.12
899.513	13.31
