Data from USB4F104151__251__11-11-43-609.txt Node

Date: Wed Mar 12 11:11:43 EDT 2025
User: louis
Spectrometer: USB4F10415
Trigger mode: 4
Integration Time (sec): 2.000000E-2
Scans to average: 1
Electric dark correction enabled: true
Nonlinearity correction enabled: false
Boxcar width: 0
XAxis mode: Wavelengths
Number of Pixels in Spectrum: 3648
>>>>>Begin Spectral Data<<<<<
178.204	-77.48
178.424	-77.48
178.644	-77.48
178.864	-83.63
179.084	-73.39
179.304	26.96
179.524	33.11
179.744	-18.09
179.964	-28.33
180.184	-38.57
180.404	35.16
180.624	29.01
180.844	-7.85
181.064	-57
181.283	4.44
181.503	-3.75
181.723	24.92
181.943	-63.15
182.163	96.6
182.383	63.83
182.602	35.16
182.822	-13.99
183.042	6.49
183.262	-59.05
183.482	31.06
183.701	-63.15
183.921	-34.47
184.141	2.39
184.361	14.68
184.58	-18.09
184.8	31.06
185.02	-18.09
185.239	29.01
185.459	18.77
185.679	67.92
185.898	-18.09
186.118	16.73
186.338	-3.75
186.557	33.11
186.777	-13.99
186.997	31.06
187.216	0.34
187.436	51.54
187.655	29.01
187.875	31.06
188.095	-20.14
188.314	31.06
188.534	14.68
188.753	-54.95
188.973	6.49
189.192	86.36
189.412	-30.38
189.631	53.59
189.851	-1.71
190.07	14.68
190.29	-63.15
190.509	-1.71
190.729	0.34
190.948	43.35
191.168	110.93
191.387	26.96
191.607	-3.75
191.826	35.16
192.045	-65.19
192.265	4.44
192.484	-87.72
192.704	2.39
192.923	-1.71
193.142	80.21
193.362	-11.95
193.581	-1.71
193.8	-30.38
194.02	2.39
194.239	-5.8
194.458	33.11
194.678	8.53
194.897	-26.28
195.116	-46.76
195.335	57.68
195.555	-71.34
195.774	47.44
195.993	37.2
196.212	-16.04
196.432	-16.04
196.651	-1.71
196.87	12.63
197.089	16.73
197.308	-7.85
197.528	33.11
197.747	-44.71
197.966	-44.71
198.185	22.87
198.404	-1.71
198.623	-5.8
198.842	-91.82
199.062	20.82
199.281	-7.85
199.5	-18.09
199.719	45.4
199.938	61.78
200.157	20.82
200.376	-16.04
200.595	31.06
200.814	-40.62
201.033	31.06
201.252	18.77
201.471	-54.95
201.69	-18.09
201.909	29.01
202.128	26.96
202.347	16.73
202.566	8.53
202.785	-83.63
203.004	-24.23
203.223	20.82
203.442	45.4
203.661	43.35
203.879	10.58
204.098	31.06
204.317	57.68
204.536	43.35
204.755	-44.71
204.974	-13.99
205.193	61.78
205.411	106.84
205.63	-30.38
205.849	67.92
206.068	90.45
206.287	12.63
206.505	-1.71
206.724	22.87
206.943	-34.47
207.162	14.68
207.381	-1.71
207.599	8.53
207.818	-11.95
208.037	57.68
208.255	-46.76
208.474	47.44
208.693	67.92
208.911	2.39
209.13	61.78
209.349	2.39
209.567	26.96
209.786	6.49
210.005	26.96
210.223	-11.95
210.442	-38.57
210.661	31.06
210.879	-28.33
211.098	8.53
211.316	12.63
211.535	-9.9
211.753	-18.09
211.972	0.34
212.191	-13.99
212.409	-42.67
212.628	49.49
212.846	-13.99
213.065	-28.33
213.283	22.87
213.502	18.77
213.72	-13.99
213.938	14.68
214.157	-7.85
214.375	37.2
214.594	2.39
214.812	-22.19
215.031	31.06
215.249	-20.14
215.467	0.34
215.686	-7.85
215.904	74.07
216.122	4.44
216.341	-28.33
216.559	-44.71
216.778	49.49
216.996	0.34
217.214	29.01
217.432	4.44
217.651	-52.91
217.869	43.35
218.087	35.16
218.306	6.49
218.524	26.96
218.742	14.68
218.96	-22.19
219.179	47.44
219.397	-18.09
219.615	125.27
219.833	39.25
220.051	-1.71
220.27	65.88
220.488	29.01
220.706	8.53
220.924	63.83
221.142	2.39
221.36	-22.19
221.578	0.34
221.796	14.68
222.015	63.83
222.233	43.35
222.451	0.34
222.669	-5.8
222.887	0.34
223.105	-63.15
223.323	80.21
223.541	-44.71
223.759	-40.62
223.977	-3.75
224.195	80.21
224.413	-7.85
224.631	14.68
224.849	-18.09
225.067	20.82
225.285	6.49
225.503	69.97
225.721	-59.05
225.939	86.36
226.157	8.53
226.375	57.68
226.592	37.2
226.81	-57
227.028	35.16
227.246	74.07
227.464	-50.86
227.682	61.78
227.9	41.3
228.117	112.98
228.335	-20.14
228.553	10.58
228.771	39.25
228.989	8.53
229.206	39.25
229.424	-42.67
229.642	26.96
229.86	-9.9
230.077	43.35
230.295	12.63
230.513	80.21
230.731	2.39
230.948	53.59
231.166	49.49
231.384	16.73
231.601	22.87
231.819	74.07
232.037	-7.85
232.254	-48.81
232.472	8.53
232.689	-42.67
232.907	63.83
233.125	6.49
233.342	80.21
233.56	20.82
233.777	39.25
233.995	22.87
234.213	67.92
234.43	8.53
234.648	-32.43
234.865	10.58
235.083	92.5
235.3	-34.47
235.518	-30.38
235.735	4.44
235.953	24.92
236.17	31.06
236.388	6.49
236.605	-3.75
236.822	69.97
237.04	18.77
237.257	8.53
237.475	-91.82
237.692	20.82
237.909	-40.62
238.127	53.59
238.344	-24.23
238.562	-3.75
238.779	12.63
238.996	-1.71
239.214	8.53
239.431	22.87
239.648	-16.04
239.865	33.11
240.083	-44.71
240.3	49.49
240.517	-13.99
240.735	-30.38
240.952	57.68
241.169	24.92
241.386	51.54
241.603	14.68
241.821	-36.52
242.038	55.64
242.255	-30.38
242.472	22.87
242.689	41.3
242.907	-18.09
243.124	-7.85
243.341	26.96
243.558	33.11
243.775	35.16
243.992	20.82
244.209	53.59
244.426	39.25
244.643	-1.71
244.86	-67.24
245.078	12.63
245.295	39.25
245.512	102.74
245.729	49.49
245.946	31.06
246.163	-13.99
246.38	-3.75
246.597	31.06
246.814	-40.62
247.031	6.49
247.248	0.34
247.464	29.01
247.681	47.44
247.898	33.11
248.115	18.77
248.332	-46.76
248.549	16.73
248.766	33.11
248.983	0.34
249.2	35.16
249.417	29.01
249.633	-5.8
249.85	20.82
250.067	16.73
250.284	2.39
250.501	90.45
250.717	35.16
250.934	35.16
251.151	-26.28
251.368	67.92
251.585	67.92
251.801	51.54
252.018	43.35
252.235	18.77
252.451	-1.71
252.668	-30.38
252.885	63.83
253.102	90.45
253.318	-3.75
253.535	-22.19
253.752	-9.9
253.968	72.02
254.185	-34.47
254.401	-40.62
254.618	37.2
254.835	12.63
255.051	84.31
255.268	45.4
255.484	18.77
255.701	-42.67
255.917	92.5
256.134	43.35
256.351	90.45
256.567	82.26
256.784	-22.19
257	31.06
257.217	110.93
257.433	-16.04
257.65	18.77
257.866	-26.28
258.082	18.77
258.299	59.73
258.515	26.96
258.732	-57
258.948	43.35
259.165	-46.76
259.381	10.58
259.597	35.16
259.814	29.01
260.03	26.96
260.246	-20.14
260.463	-1.71
260.679	-11.95
260.895	49.49
261.112	61.78
261.328	61.78
261.544	10.58
261.761	37.2
261.977	37.2
262.193	-5.8
262.409	-1.71
262.626	16.73
262.842	-38.57
263.058	-18.09
263.274	22.87
263.49	63.83
263.707	51.54
263.923	-30.38
264.139	22.87
264.355	-22.19
264.571	10.58
264.787	6.49
265.004	2.39
265.22	65.88
265.436	8.53
265.652	-20.14
265.868	82.26
266.084	26.96
266.3	51.54
266.516	-16.04
266.732	47.44
266.948	-7.85
267.164	33.11
267.38	61.78
267.596	16.73
267.812	33.11
268.028	-16.04
268.244	-1.71
268.46	55.64
268.676	8.53
268.892	61.78
269.108	-42.67
269.324	49.49
269.54	10.58
269.756	-30.38
269.972	-9.9
270.188	-34.47
270.403	-26.28
270.619	96.6
270.835	0.34
271.051	-11.95
271.267	-5.8
271.483	-13.99
271.698	106.84
271.914	31.06
272.13	-73.39
272.346	39.25
272.562	-5.8
272.777	8.53
272.993	20.82
273.209	-5.8
273.425	-11.95
273.64	-1.71
273.856	20.82
274.072	57.68
274.287	-3.75
274.503	74.07
274.719	8.53
274.934	10.58
275.15	67.92
275.366	16.73
275.581	-5.8
275.797	39.25
276.012	96.6
276.228	2.39
276.444	31.06
276.659	43.35
276.875	0.34
277.09	0.34
277.306	-7.85
277.521	41.3
277.737	-26.28
277.952	-36.52
278.168	14.68
278.383	-3.75
278.599	-11.95
278.814	18.77
279.03	-1.71
279.245	92.5
279.461	-9.9
279.676	69.97
279.892	86.36
280.107	45.4
280.322	-13.99
280.538	84.31
280.753	-1.71
280.969	-42.67
281.184	-34.47
281.399	100.69
281.615	-38.57
281.83	20.82
282.045	2.39
282.26	47.44
282.476	18.77
282.691	-61.1
282.906	22.87
283.122	6.49
283.337	-20.14
283.552	80.21
283.767	2.39
283.983	2.39
284.198	-13.99
284.413	18.77
284.628	-63.15
284.843	47.44
285.058	35.16
285.274	-1.71
285.489	-20.14
285.704	59.73
285.919	69.97
286.134	26.96
286.349	-20.14
286.564	47.44
286.779	24.92
286.995	41.3
287.21	-9.9
287.425	16.73
287.64	18.77
287.855	10.58
288.07	-42.67
288.285	24.92
288.5	-16.04
288.715	37.2
288.93	117.08
289.145	10.58
289.36	47.44
289.575	-5.8
289.79	31.06
290.004	-7.85
290.219	-9.9
290.434	26.96
290.649	-18.09
290.864	63.83
291.079	51.54
291.294	39.25
291.509	22.87
291.724	4.44
291.938	-7.85
292.153	41.3
292.368	-28.33
292.583	-3.75
292.798	39.25
293.012	39.25
293.227	43.35
293.442	29.01
293.657	-16.04
293.871	61.78
294.086	49.49
294.301	74.07
294.516	20.82
294.73	-24.23
294.945	8.53
295.16	-9.9
295.374	-1.71
295.589	45.4
295.804	10.58
296.018	26.96
296.233	24.92
296.447	76.12
296.662	29.01
296.877	-9.9
297.091	20.82
297.306	2.39
297.52	-30.38
297.735	37.2
297.949	-7.85
298.164	31.06
298.378	61.78
298.593	53.59
298.807	20.82
299.022	49.49
299.236	49.49
299.451	-87.72
299.665	-30.38
299.88	49.49
300.094	43.35
300.309	57.68
300.523	78.16
300.737	18.77
300.952	-52.91
301.166	86.36
301.381	6.49
301.595	2.39
301.809	63.83
302.024	47.44
302.238	26.96
302.452	29.01
302.667	59.73
302.881	12.63
303.095	-7.85
303.309	-13.99
303.524	33.11
303.738	59.73
303.952	-20.14
304.166	31.06
304.381	35.16
304.595	12.63
304.809	35.16
305.023	33.11
305.237	59.73
305.452	-46.76
305.666	92.5
305.88	74.07
306.094	51.54
306.308	-44.71
306.522	-9.9
306.736	18.77
306.95	-11.95
307.164	0.34
307.379	20.82
307.593	-28.33
307.807	39.25
308.021	24.92
308.235	43.35
308.449	10.58
308.663	-32.43
308.877	0.34
309.091	-7.85
309.305	14.68
309.519	-16.04
309.733	2.39
309.947	22.87
310.161	-5.8
310.374	12.63
310.588	-13.99
310.802	-20.14
311.016	18.77
311.23	24.92
311.444	33.11
311.658	4.44
311.872	63.83
312.085	43.35
312.299	92.5
312.513	26.96
312.727	-1.71
312.941	6.49
313.154	59.73
313.368	-26.28
313.582	108.88
313.796	-26.28
314.009	29.01
314.223	59.73
314.437	78.16
314.651	-30.38
314.864	-22.19
315.078	-9.9
315.292	26.96
315.505	0.34
315.719	18.77
315.933	-22.19
316.146	26.96
316.36	18.77
316.573	41.3
316.787	12.63
317.001	47.44
317.214	10.58
317.428	39.25
317.641	-13.99
317.855	6.49
318.068	47.44
318.282	26.96
318.495	39.25
318.709	22.87
318.922	-7.85
319.136	74.07
319.349	-5.8
319.563	39.25
319.776	41.3
319.99	10.58
320.203	74.07
320.417	-16.04
320.63	20.82
320.843	61.78
321.057	67.92
321.27	-26.28
321.483	69.97
321.697	-3.75
321.91	59.73
322.124	33.11
322.337	-44.71
322.55	26.96
322.763	80.21
322.977	-32.43
323.19	-38.57
323.403	45.4
323.617	-22.19
323.83	16.73
324.043	35.16
324.256	41.3
324.469	-16.04
324.683	65.88
324.896	10.58
325.109	67.92
325.322	39.25
325.535	63.83
325.748	49.49
325.962	57.68
326.175	-9.9
326.388	102.74
326.601	-44.71
326.814	24.92
327.027	63.83
327.24	-3.75
327.453	-40.62
327.666	14.68
327.879	43.35
328.092	31.06
328.305	90.45
328.518	14.68
328.731	84.31
328.944	47.44
329.157	37.2
329.37	82.26
329.583	2.39
329.796	51.54
330.009	-20.14
330.222	8.53
330.435	53.59
330.648	-34.47
330.861	14.68
331.073	53.59
331.286	108.88
331.499	78.16
331.712	14.68
331.925	86.36
332.138	10.58
332.35	-5.8
332.563	72.02
332.776	47.44
332.989	8.53
333.202	-13.99
333.414	26.96
333.627	0.34
333.84	61.78
334.053	59.73
334.265	59.73
334.478	18.77
334.691	39.25
334.903	-40.62
335.116	-24.23
335.329	14.68
335.541	37.2
335.754	2.39
335.966	-48.81
336.179	98.64
336.392	24.92
336.604	20.82
336.817	117.08
337.029	-34.47
337.242	-1.71
337.454	16.73
337.667	-20.14
337.88	80.21
338.092	-22.19
338.305	86.36
338.517	98.64
338.729	-11.95
338.942	24.92
339.154	-3.75
339.367	-11.95
339.579	72.02
339.792	14.68
340.004	96.6
340.217	-59.05
340.429	-3.75
340.641	35.16
340.854	47.44
341.066	53.59
341.278	84.31
341.491	98.64
341.703	59.73
341.915	39.25
342.128	55.64
342.34	57.68
342.552	53.59
342.764	82.26
342.977	-3.75
343.189	41.3
343.401	47.44
343.613	76.12
343.826	115.03
344.038	18.77
344.25	-5.8
344.462	-7.85
344.674	4.44
344.886	14.68
345.099	47.44
345.311	26.96
345.523	29.01
345.735	29.01
345.947	-13.99
346.159	2.39
346.371	78.16
346.583	51.54
346.795	78.16
347.007	49.49
347.219	57.68
347.431	29.01
347.643	147.8
347.855	-26.28
348.067	-18.09
348.279	-24.23
348.491	33.11
348.703	-20.14
348.915	55.64
349.127	-9.9
349.339	61.78
349.551	-28.33
349.763	45.4
349.975	59.73
350.187	82.26
350.399	76.12
350.61	88.4
350.822	-71.34
351.034	53.59
351.246	-30.38
351.458	76.12
351.669	65.88
351.881	43.35
352.093	49.49
352.305	63.83
352.517	96.6
352.728	37.2
352.94	12.63
353.152	72.02
353.363	0.34
353.575	2.39
353.787	51.54
353.999	53.59
354.21	14.68
354.422	29.01
354.633	41.3
354.845	22.87
355.057	26.96
355.268	82.26
355.48	-3.75
355.692	-44.71
355.903	0.34
356.115	22.87
356.326	4.44
356.538	14.68
356.749	10.58
356.961	80.21
357.172	78.16
357.384	20.82
357.595	18.77
357.807	31.06
358.018	18.77
358.23	104.79
358.441	18.77
358.653	12.63
358.864	41.3
359.075	65.88
359.287	-48.81
359.498	94.55
359.709	4.44
359.921	8.53
360.132	55.64
360.344	43.35
360.555	33.11
360.766	18.77
360.977	2.39
361.189	26.96
361.4	31.06
361.611	29.01
361.823	147.8
362.034	18.77
362.245	16.73
362.456	39.25
362.667	-73.39
362.879	43.35
363.09	24.92
363.301	14.68
363.512	-11.95
363.723	35.16
363.935	26.96
364.146	76.12
364.357	4.44
364.568	69.97
364.779	24.92
364.99	39.25
365.201	-9.9
365.412	69.97
365.623	-59.05
365.834	47.44
366.045	45.4
366.256	86.36
366.467	12.63
366.678	20.82
366.889	29.01
367.1	102.74
367.311	16.73
367.522	14.68
367.733	-22.19
367.944	33.11
368.155	-54.95
368.366	57.68
368.577	37.2
368.788	57.68
368.999	80.21
369.209	108.88
369.42	98.64
369.631	141.65
369.842	29.01
370.053	29.01
370.264	94.55
370.474	-26.28
370.685	41.3
370.896	26.96
371.107	155.99
371.317	96.6
371.528	-11.95
371.739	43.35
371.95	16.73
372.16	41.3
372.371	2.39
372.582	31.06
372.792	-22.19
373.003	33.11
373.214	35.16
373.424	59.73
373.635	2.39
373.846	35.16
374.056	-5.8
374.267	4.44
374.477	63.83
374.688	-11.95
374.898	33.11
375.109	-28.33
375.319	61.78
375.53	12.63
375.74	-7.85
375.951	12.63
376.161	61.78
376.372	41.3
376.582	45.4
376.793	61.78
377.003	24.92
377.214	72.02
377.424	57.68
377.635	57.68
377.845	4.44
378.055	43.35
378.266	43.35
378.476	37.2
378.686	51.54
378.897	20.82
379.107	39.25
379.317	47.44
379.528	35.16
379.738	45.4
379.948	-9.9
380.158	33.11
380.369	20.82
380.579	61.78
380.789	59.73
380.999	-5.8
381.21	63.83
381.42	72.02
381.63	35.16
381.84	-1.71
382.05	26.96
382.261	100.69
382.471	65.88
382.681	-36.52
382.891	135.51
383.101	76.12
383.311	53.59
383.521	55.64
383.731	69.97
383.941	88.4
384.151	63.83
384.361	106.84
384.571	0.34
384.781	100.69
384.991	26.96
385.201	108.88
385.411	57.68
385.621	82.26
385.831	121.17
386.041	61.78
386.251	51.54
386.461	24.92
386.671	-13.99
386.881	164.18
387.091	67.92
387.301	47.44
387.511	133.46
387.72	49.49
387.93	112.98
388.14	14.68
388.35	76.12
388.56	41.3
388.769	37.2
388.979	4.44
389.189	14.68
389.399	39.25
389.609	35.16
389.818	174.42
390.028	49.49
390.238	74.07
390.447	43.35
390.657	74.07
390.867	33.11
391.076	31.06
391.286	-9.9
391.496	51.54
391.705	14.68
391.915	14.68
392.125	14.68
392.334	108.88
392.544	67.92
392.753	84.31
392.963	90.45
393.172	69.97
393.382	-28.33
393.591	37.2
393.801	31.06
394.01	168.27
394.22	65.88
394.429	51.54
394.639	26.96
394.848	76.12
395.058	94.55
395.267	14.68
395.477	65.88
395.686	61.78
395.895	90.45
396.105	80.21
396.314	67.92
396.524	31.06
396.733	59.73
396.942	96.6
397.152	80.21
397.361	104.79
397.57	80.21
397.78	121.17
397.989	108.88
398.198	115.03
398.407	82.26
398.617	84.31
398.826	61.78
399.035	49.49
399.244	153.94
399.453	104.79
399.663	176.47
399.872	88.4
400.081	160.08
400.29	172.37
400.499	55.64
400.708	94.55
400.917	90.45
401.127	96.6
401.336	26.96
401.545	117.08
401.754	170.32
401.963	176.47
402.172	88.4
402.381	125.27
402.59	106.84
402.799	26.96
403.008	164.18
403.217	67.92
403.426	100.69
403.635	162.13
403.844	125.27
404.053	145.75
404.262	190.8
404.471	125.27
404.68	125.27
404.888	125.27
405.097	184.66
405.306	149.84
405.515	125.27
405.724	160.08
405.933	194.9
406.142	209.23
406.35	164.18
406.559	172.37
406.768	313.68
406.977	219.47
407.185	190.8
407.394	242
407.603	213.33
407.812	237.91
408.02	217.43
408.229	289.1
408.438	182.61
408.646	188.75
408.855	325.97
409.064	258.39
409.272	270.67
409.481	309.58
409.69	328.02
409.898	301.39
410.107	358.74
410.315	342.35
410.524	407.89
410.733	377.17
410.941	389.46
411.15	356.69
411.358	373.07
411.567	411.98
411.775	477.52
411.984	553.29
412.192	391.5
412.401	416.08
412.609	498
412.818	518.48
413.026	547.15
413.234	520.53
413.443	629.07
413.651	567.63
413.86	627.02
414.068	713.03
414.276	706.89
414.485	700.75
414.693	710.99
414.901	854.34
415.11	665.93
415.318	772.43
415.526	835.91
415.734	846.15
415.943	950.6
416.151	934.22
416.359	1001.8
416.567	876.87
416.776	1046.85
416.984	1096
417.192	1106.24
417.4	1083.72
417.608	1149.25
417.817	1083.72
418.025	1220.93
418.233	1276.23
418.441	1216.83
418.649	1341.76
418.857	1438.02
419.065	1409.34
419.273	1419.58
419.481	1491.26
419.689	1632.57
419.897	1691.96
420.105	1659.2
420.313	1769.79
420.521	1870.14
420.729	1835.32
420.937	1927.48
421.145	1943.86
421.353	2124.08
421.561	2197.81
421.769	2326.83
421.977	2324.79
422.185	2314.55
422.393	2480.43
422.601	2505.01
422.809	2693.42
423.017	2568.49
423.224	2654.51
423.432	2816.3
423.64	2830.63
423.848	3078.44
424.056	2898.22
424.263	3238.18
424.471	3410.21
424.679	3479.84
424.887	3541.28
425.094	3537.18
425.302	3647.77
425.51	3709.21
425.718	3782.94
425.925	3965.21
426.133	4057.37
426.341	4344.08
426.548	4526.35
426.756	4399.38
426.964	4616.46
427.171	4829.45
427.379	4813.07
427.586	5038.34
427.794	5155.08
428.001	5413.12
428.209	5585.15
428.417	5484.8
428.624	6099.19
428.832	5996.79
429.039	5923.07
429.247	5806.33
429.454	6418.68
429.662	6836.46
429.869	6480.11
430.076	7018.73
430.284	6639.86
430.491	7006.44
430.699	7495.91
430.906	7317.73
431.114	7391.46
431.321	7813.34
431.528	7956.7
431.736	8306.9
431.943	8741.07
432.15	8714.45
432.358	8648.91
432.565	9097.42
432.772	9046.22
432.979	9488.58
433.187	9660.61
433.394	9681.09
433.601	10477.75
433.808	10404.02
434.016	10279.1
434.223	10961.07
434.43	11557.03
434.637	11227.31
434.844	11927.71
435.052	12458.14
435.259	12087.45
435.466	12484.76
435.673	12003.49
435.88	12931.22
436.087	13473.93
436.294	13568.13
436.501	13445.26
436.708	13615.24
436.915	14196.86
437.122	14749.81
437.329	14667.89
437.537	15173.74
437.743	15695.97
437.95	15351.92
438.157	16343.13
438.364	16599.13
438.571	16654.42
438.778	16545.88
438.985	17999.94
439.192	17463.37
439.399	18077.76
439.606	17371.21
439.813	18704.44
440.02	19841.06
440.227	19206.19
440.433	19222.58
440.64	19566.63
440.847	19669.03
441.054	20080.67
441.261	21739.53
441.467	21231.63
441.674	21862.41
441.881	22284.29
442.088	22296.58
442.294	22120.45
442.501	22728.7
442.708	23177.2
442.914	24055.78
443.121	24883.16
443.328	24559.58
443.534	26212.29
443.741	25489.36
443.948	25176.02
444.154	27045.82
444.361	26681.28
444.568	27017.15
444.774	26998.71
444.981	26959.8
445.187	28016.55
445.394	29069.21
445.6	28880.8
445.807	31596.4
446.013	29783.95
446.22	30715.78
446.426	32008.04
446.633	31702.9
446.839	33179.48
447.046	31815.54
447.252	33263.45
447.459	33554.26
447.665	33163.1
447.871	35153.72
448.078	36286.25
448.284	34619.21
448.491	35663.67
448.697	37023.52
448.903	37345.05
449.11	37826.32
449.316	36704.04
449.522	37322.52
449.728	38665.99
449.935	39003.91
450.141	38694.66
450.347	39595.77
450.553	38244.11
450.76	38665.99
450.966	40034.03
451.172	39501.56
451.378	40505.07
451.584	39929.59
451.791	40578.79
451.997	40206.06
452.203	41549.53
452.409	40789.73
452.615	40849.13
452.821	39628.54
453.027	38850.31
453.233	41184.99
453.44	38743.81
453.646	39763.7
453.852	39935.73
454.058	40767.21
454.264	38946.56
454.47	40085.23
454.676	39145.22
454.882	40247.02
455.088	36708.13
455.294	37435.16
455.5	38104.85
455.705	38481.67
455.911	36910.88
456.117	35989.3
456.323	35538.74
456.529	33675.09
456.735	34926.4
456.941	34328.39
457.147	33488.73
457.352	32847.71
457.558	32200.55
457.764	32354.15
457.97	31821.68
458.176	30977.92
458.381	30906.24
458.587	29220.76
458.793	29296.53
458.999	27877.29
459.204	29943.69
459.41	29112.22
459.616	27361.2
459.821	27158.45
460.027	27213.75
460.233	26644.41
460.438	25190.36
460.644	25597.9
460.85	24567.77
461.055	24356.83
461.261	24035.3
461.466	22196.23
461.672	21475.34
461.878	23123.96
462.083	21147.67
462.289	21207.06
462.494	20858.9
462.7	19851.3
462.905	19503.15
463.111	20062.24
463.316	20095.01
463.522	19961.89
463.727	19986.47
463.932	19695.66
464.138	19701.8
464.343	19896.36
464.549	19025.97
464.754	19693.61
464.959	19666.99
465.165	19314.73
465.37	18702.39
465.575	17877.06
465.781	18974.77
465.986	18923.57
466.191	18364.48
466.397	18151.49
466.602	17107.02
466.807	17592.39
467.012	17741.89
467.218	17750.09
467.423	17309.77
467.628	17451.08
467.833	18116.67
468.038	17578.06
468.244	17125.46
468.449	17764.42
468.654	17051.73
468.859	16711.77
469.064	16959.57
469.269	16160.86
469.474	16216.16
469.679	16810.07
469.885	16154.72
470.09	16492.63
470.295	16586.84
470.5	15937.63
470.705	15962.21
470.91	15644.77
471.115	15304.81
471.32	15700.07
471.525	15738.98
471.73	15263.85
471.935	15204.46
472.139	14649.46
472.344	14837.87
472.549	14739.57
472.754	14694.52
472.959	14217.34
473.164	13858.95
473.369	13953.15
473.574	14448.76
473.778	14223.48
473.983	13893.76
474.188	14024.83
474.393	13457.54
474.598	13457.54
474.802	13351.05
475.007	13369.48
475.212	13291.66
475.417	12707.99
475.621	12693.65
475.826	12613.78
476.031	12245.15
476.235	12222.62
476.44	12400.79
476.645	12161.18
476.849	12269.72
477.054	12015.77
477.259	11753.63
477.463	11884.7
477.668	11499.69
477.872	12083.36
478.077	11628.71
478.282	11079.85
478.486	11251.88
478.691	11106.48
478.895	10977.45
479.1	10973.36
479.304	10969.26
479.509	10653.87
479.713	11098.28
479.918	10680.5
480.122	10395.83
480.326	10559.67
480.531	10727.6
480.735	10584.24
480.94	10487.99
481.144	10741.94
481.348	10244.28
481.553	10365.11
481.757	10174.65
481.961	10275
482.166	10311.86
482.37	10207.42
482.574	10156.22
482.778	10209.47
482.983	10436.79
483.187	10242.23
483.391	10250.42
483.595	10225.85
483.8	9976
484.004	10137.79
484.208	10248.38
484.412	9955.52
484.616	10168.51
484.821	9994.43
485.025	10076.35
485.229	10105.02
485.433	10100.92
485.637	10234.04
485.841	10145.98
486.045	10037.44
486.249	10182.84
486.453	10154.17
486.657	10100.92
486.861	10211.51
487.065	9949.37
487.269	10037.44
487.473	9967.81
487.677	10053.82
487.881	9967.81
488.085	10029.24
488.289	10309.82
488.493	10080.44
488.697	10021.05
488.901	10221.75
489.105	10283.19
489.309	10109.12
489.512	10324.15
489.716	10397.88
489.92	10383.54
490.124	10111.16
490.328	10426.55
490.531	10283.19
490.735	10395.83
490.939	10238.14
491.143	10164.41
491.346	10449.08
491.55	10418.36
491.754	10389.69
491.958	10614.96
492.161	10543.28
492.365	10531
492.569	10436.79
492.772	10580.15
492.976	10909.87
493.18	10743.99
493.383	11030.7
493.587	11061.42
493.79	10940.59
493.994	11028.65
494.197	11110.57
494.401	11006.13
494.605	11124.91
494.808	11237.55
495.012	11331.75
495.215	11397.29
495.419	11628.71
495.622	11688.1
495.825	11604.13
496.029	11567.27
496.232	11790.5
496.436	11753.63
496.639	12087.45
496.843	12091.55
497.046	12294.3
497.249	12449.94
497.453	12556.44
497.656	12671.12
497.859	12390.55
498.063	12710.04
498.266	12886.16
498.469	13166.73
498.673	13054.09
498.876	13256.84
499.079	13734.02
499.282	13535.37
499.485	13789.31
499.689	13901.95
499.892	14049.41
500.095	14194.81
500.298	14418.04
500.501	14229.63
500.705	14674.04
500.908	14643.32
501.111	14925.94
501.314	15147.12
501.517	15065.2
501.72	15192.17
501.923	15183.98
502.126	15569
502.329	15868
502.532	16121.95
502.735	16164.96
502.938	16539.74
503.141	16445.53
503.344	16662.62
503.547	16701.53
503.75	17004.63
503.953	17479.75
504.156	17346.64
504.359	17459.27
504.562	17791.05
504.765	18171.97
504.968	18075.71
505.17	18436.16
505.373	18595.9
505.576	18823.22
505.779	18878.52
505.982	18845.75
506.185	19212.34
506.387	19361.84
506.59	19537.96
506.793	19685.42
506.996	19683.37
507.198	19992.61
507.401	20148.26
507.604	20506.65
507.807	21168.15
508.009	21106.71
508.212	21049.36
508.415	21463.05
508.617	21532.68
508.82	21973
509.022	21741.58
509.225	22360.06
509.428	22390.78
509.63	22693.88
509.833	22573.05
510.035	23425.01
510.238	22999.03
510.44	23304.18
510.643	23947.24
510.845	23924.71
511.048	23885.8
511.25	24246.24
511.453	24371.17
511.655	25313.24
511.858	25065.43
512.06	25100.25
512.262	25608.14
512.465	25272.28
512.667	25907.15
512.87	26052.55
513.072	26027.98
513.274	26732.48
513.477	27121.59
513.679	27058.1
513.881	27307.96
514.084	27797.42
514.286	27830.19
514.488	27858.86
514.69	28536.74
514.893	28379.04
515.095	28665.76
515.297	28966.81
515.499	29231
515.701	29790.09
515.904	29564.82
516.106	30111.63
516.308	30064.52
516.51	30771.07
516.712	30439.3
516.914	30932.86
517.116	31195
517.318	31319.93
517.52	31668.08
517.722	31397.75
517.925	32116.59
518.127	32698.21
518.329	32440.17
518.531	32436.07
518.733	33312.6
518.935	33580.88
519.136	33103.71
519.338	33974.09
519.54	34182.99
519.742	34258.76
519.944	34608.97
520.146	34844.48
520.348	35288.89
520.55	35391.29
520.752	35319.61
520.954	36138.8
521.155	35796.79
521.357	36300.59
521.559	36462.38
521.761	37349.15
521.963	36951.84
522.164	37099.3
522.366	37267.23
522.568	37828.37
522.77	37625.62
522.971	38024.98
523.173	38190.86
523.375	38584.07
523.576	38627.08
523.778	38493.96
523.98	38897.41
524.181	39325.44
524.383	39276.29
524.584	40025.84
524.786	39708.41
524.988	39769.85
525.189	40279.79
525.391	40210.16
525.592	40251.12
525.794	40423.15
525.995	40816.36
526.197	40507.12
526.398	40961.76
526.6	41496.28
526.801	41250.53
527.003	41160.42
527.204	41191.14
527.406	41828.06
527.607	42135.25
527.808	42315.47
528.01	41692.89
528.211	42010.32
528.412	43124.42
528.614	42786.5
528.815	42532.56
529.016	42749.64
529.218	42405.58
529.419	42788.55
529.62	43044.55
529.822	42979.01
530.023	43488.96
530.224	42802.89
530.425	43001.54
530.626	42782.41
530.828	42538.7
531.029	44009.14
531.23	42966.73
531.431	43046.6
531.632	43415.23
531.833	43792.06
532.035	43290.3
532.236	43837.11
532.437	43767.48
532.638	43505.34
532.839	43343.55
533.04	44015.29
533.241	43495.1
533.442	44422.83
533.643	44013.24
533.844	43869.88
534.045	43652.8
534.246	43613.88
534.447	44123.83
534.648	43992.76
534.849	43863.74
535.05	43718.33
535.251	43724.47
535.451	44027.57
535.652	44471.98
535.853	43912.89
536.054	44066.48
536.255	44074.68
536.456	43421.37
536.657	44234.42
536.857	43718.33
537.058	43640.51
537.259	44123.83
537.46	44187.32
537.66	43763.39
537.861	43929.27
538.062	43462.33
538.263	44072.63
538.463	43710.14
538.664	43751.1
538.865	44119.73
539.065	44326.58
539.266	43712.19
539.466	44117.68
539.667	43857.59
539.868	44179.12
540.068	43871.93
540.269	43648.7
540.469	44023.48
540.67	43577.02
540.87	43611.84
541.071	43654.84
541.271	44252.85
541.472	43757.24
541.672	43536.06
541.873	43515.58
542.073	43353.79
542.274	43906.74
542.474	43687.61
542.675	43484.86
542.875	43830.97
543.075	43411.13
543.276	43206.34
543.476	44396.21
543.676	43804.34
543.877	43675.32
544.077	43595.45
544.277	43736.76
544.478	43384.51
544.678	43724.47
544.878	43470.53
545.078	43441.85
545.279	43130.56
545.479	43577.02
545.679	43835.06
545.879	43511.49
546.079	43187.91
546.28	43411.13
546.48	43069.12
546.68	43183.81
546.88	43464.38
547.08	43192
547.28	43036.36
547.48	43245.25
547.68	43036.36
547.88	43163.33
548.081	43241.15
548.281	42929.86
548.481	43079.36
548.681	43757.24
548.881	43220.67
549.081	43421.37
549.28	43075.27
549.48	43304.64
549.68	42882.76
549.88	43374.27
550.08	43007.69
550.28	42856.14
550.48	43105.99
550.68	43460.29
550.88	42528.46
551.08	42993.35
551.279	43056.84
551.479	42862.28
551.679	42733.26
551.879	42634.95
552.079	43073.22
552.278	42329.81
552.478	42761.93
552.678	42819.27
552.878	42645.19
553.077	42645.19
553.277	42393.29
553.477	43140.8
553.676	42882.76
553.876	42391.25
554.076	42131.15
554.275	42481.36
554.475	41811.67
554.674	42618.57
554.874	42626.76
555.074	42131.15
555.273	42471.12
555.473	42438.35
555.672	42176.21
555.872	42202.83
556.071	42708.68
556.271	42331.86
556.47	41930.45
556.67	42202.83
556.869	42039
557.068	42069.72
557.268	41586.39
557.467	41936.6
557.667	41619.16
557.866	41574.11
558.065	41721.56
558.265	41561.82
558.464	41541.34
558.663	41948.89
558.863	41234.14
559.062	41643.74
559.261	41092.83
559.461	41893.59
559.66	40904.42
559.859	41453.28
560.058	41098.98
560.258	41219.81
560.457	41006.82
560.656	41494.24
560.855	41187.04
561.054	41244.38
561.253	40351.47
561.453	40797.93
561.652	40722.15
561.851	40980.2
562.05	40658.66
562.249	40562.41
562.448	40799.97
562.647	40593.13
562.846	40195.82
563.045	40570.6
563.244	39923.44
563.443	40691.43
563.642	39771.89
563.841	39931.64
564.04	40029.94
564.239	40244.98
564.438	39692.02
564.637	39966.45
564.836	39763.7
565.035	39317.25
565.234	39610.1
565.432	39585.53
565.631	39440.12
565.83	39268.09
566.029	39366.4
566.228	39421.69
566.427	38850.31
566.625	38911.75
566.824	38461.19
567.023	39118.59
567.222	38403.85
567.42	38752.01
567.619	38383.37
567.818	38700.81
568.016	38741.77
568.215	39169.79
568.414	38399.76
568.612	38393.61
568.811	38135.57
569.01	38092.56
569.208	37828.37
569.407	38090.51
569.605	37474.07
569.804	37975.83
570.002	37386.01
570.201	37900.05
570.4	37330.72
570.598	37101.34
570.797	37326.62
570.995	37549.85
571.193	36757.28
571.392	37408.54
571.59	36724.52
571.789	37127.97
571.987	36806.44
572.186	36556.58
572.384	36646.69
572.582	36581.16
572.781	37136.16
572.979	36259.63
573.177	36343.59
573.376	36601.64
573.574	36128.56
573.772	36273.96
573.971	36110.13
574.169	35786.55
574.367	35876.66
574.565	35968.82
574.763	35911.47
574.962	35655.48
575.16	35346.23
575.358	35542.84
575.556	34840.39
575.754	35850.03
575.952	35006.27
576.151	35292.99
576.349	34654.02
576.547	34737.99
576.745	34830.15
576.943	35073.85
577.141	34355.02
577.339	34813.76
577.537	34619.21
577.735	34785.09
577.933	34103.12
578.131	34516.81
578.329	34553.67
578.527	34197.32
578.725	34021.2
578.923	34156.36
579.121	34148.17
579.319	33691.48
579.516	34219.85
579.714	33648.47
579.912	33666.9
580.11	33826.64
580.308	33390.42
580.506	33380.18
580.704	32915.3
580.901	33324.89
581.099	33263.45
581.297	33103.71
581.495	33156.96
581.692	33093.47
581.89	32464.74
582.088	32845.66
582.285	32358.25
582.483	32769.89
582.681	32704.35
582.878	32550.76
583.076	31995.76
583.274	32667.49
583.471	31891.31
583.669	32358.25
583.866	32036.72
584.064	32477.03
584.262	31428.47
584.459	31944.56
584.657	31559.54
584.854	32006
585.052	31037.31
585.249	31477.62
585.447	31500.15
585.644	30996.35
585.841	31285.11
586.039	31545.2
586.236	30781.31
586.434	31004.54
586.631	30814.08
586.828	30963.58
587.026	30705.54
587.223	30498.69
587.42	30154.63
587.618	30715.78
587.815	30023.56
588.012	30140.3
588.21	29966.22
588.407	30490.5
588.604	30099.34
588.801	29714.32
588.999	29822.86
589.196	29859.73
589.393	29747.09
589.59	29609.87
589.787	29247.38
589.984	29300.63
590.182	29134.74
590.379	29591.44
590.576	28747.68
590.773	29388.69
590.97	28995.48
591.167	29099.93
591.364	28768.16
591.561	28831.65
591.758	28530.59
591.955	28714.91
592.152	28952.48
592.349	28309.41
592.546	28465.06
592.743	28608.42
592.94	27848.62
593.137	28217.25
593.334	27877.29
593.531	27703.21
593.727	28059.56
593.924	27893.68
594.121	27490.23
594.318	27897.77
594.515	27174.84
594.712	27553.71
594.908	27473.84
595.105	27525.04
595.302	27299.76
595.499	27185.08
595.696	26734.53
595.892	26744.77
596.089	27209.65
596.286	27008.95
596.482	26664.89
596.679	27094.97
596.876	26687.42
597.072	26845.12
597.269	26595.26
597.466	26171.33
597.662	26376.13
597.859	26105.8
598.055	26228.68
598.252	26109.89
598.448	26091.46
598.645	25610.19
598.841	25720.78
599.038	25778.12
599.234	25888.71
599.431	25116.63
599.627	25303
599.824	25403.35
600.02	25415.63
600.217	25606.09
600.413	25153.49
600.609	25001.94
600.806	25153.49
601.002	25214.93
601.198	24999.9
601.395	24729.56
601.591	24793.05
601.787	24631.26
601.984	24731.61
602.18	24834.01
602.376	24494.05
602.572	24434.66
602.769	24526.82
602.965	24258.53
603.161	24123.37
603.357	24188.9
603.553	24342.5
603.75	24041.45
603.946	23769.07
604.142	23975.91
604.338	23463.92
604.534	24049.64
604.73	23343.09
604.926	23556.08
605.122	23783.4
605.318	23453.68
605.514	23515.12
605.71	23511.02
605.906	23232.5
606.102	23195.64
606.298	23267.31
606.494	23060.47
606.69	23128.05
606.886	23093.24
607.082	22788.09
607.278	23304.18
607.474	22644.73
607.67	22538.24
607.866	22376.45
608.062	22845.43
608.257	22343.68
608.453	22437.89
608.649	22673.4
608.845	22497.28
609.041	22312.96
609.236	22525.95
609.432	22276.1
609.628	22069.25
609.824	22282.24
610.019	22124.55
610.215	22214.66
610.411	22360.06
610.606	22042.63
610.802	21800.97
610.998	21977.09
611.193	21837.83
611.389	21964.81
611.584	21782.54
611.78	21409.81
611.976	21729.29
612.171	21671.95
612.367	21686.28
612.562	21837.83
612.758	21116.95
612.953	21409.81
613.149	21622.8
613.344	21293.07
613.539	21366.8
613.735	21405.71
613.93	21731.34
614.126	21196.82
614.321	21286.93
614.517	21307.41
614.712	20992.02
614.907	20891.67
615.103	20934.68
615.298	21049.36
615.493	21360.66
615.688	20576.28
615.884	21133.33
616.079	20836.38
616.274	21016.6
616.47	20768.79
616.665	20738.07
616.86	20625.43
617.055	20817.94
617.25	20670.49
617.445	20934.68
617.641	20404.25
617.836	20541.47
618.031	20330.53
618.226	20381.73
618.421	20176.93
618.616	20609.05
618.811	20004.9
619.006	20338.72
619.201	19875.88
619.396	19955.75
619.591	19724.33
619.786	20021.28
619.981	19728.42
620.176	19722.28
620.371	19511.34
620.566	19636.27
620.761	19357.74
620.956	19865.64
621.151	18876.47
621.346	19064.88
621.541	18985.01
621.735	19378.22
621.93	18860.09
622.125	19036.21
622.32	18591.8
622.515	18892.85
622.709	18513.98
622.904	18645.05
623.099	18249.79
623.294	18399.29
623.488	18030.66
623.683	17913.92
623.878	17655.88
624.072	17840.2
624.267	18012.23
624.462	17766.47
624.656	17641.54
624.851	17543.24
625.046	17500.23
625.24	17250.38
625.435	17066.06
625.629	17147.98
625.824	16830.55
626.018	17279.05
626.213	16943.19
626.407	16887.89
626.602	16420.95
626.796	16574.55
626.991	16705.62
627.185	16447.58
627.38	16330.84
627.574	16107.62
627.768	16033.89
627.963	16238.69
628.157	15898.72
628.352	15951.97
628.546	15847.52
628.74	15767.65
628.935	15530.09
629.129	15681.64
629.323	15595.62
629.517	15317.1
629.712	15374.44
629.906	15159.41
630.1	14907.51
630.294	15089.78
630.489	14823.54
630.683	15161.45
630.877	14727.28
631.071	14880.88
631.265	15005.81
631.459	14688.37
631.653	14489.72
631.848	14645.37
632.042	14164.09
632.236	14624.89
632.43	14192.76
632.624	14448.76
632.818	14119.04
633.012	14102.65
633.206	13871.23
633.4	14059.65
633.594	13961.34
633.788	13938.82
633.982	13680.77
634.176	13791.36
634.369	13463.69
634.563	13566.09
634.757	13392.01
634.951	13351.05
635.145	13338.76
635.339	13183.12
635.533	13146.25
635.726	13140.11
635.92	12920.98
636.114	12963.98
636.308	12896.4
636.501	12910.74
636.695	12538.01
636.889	12654.74
637.083	12767.38
637.276	12466.33
637.47	12396.7
637.664	12439.7
637.857	12499.09
638.051	12245.15
638.244	12200.09
638.438	12349.59
638.632	12081.31
638.825	11888.8
639.019	11870.37
639.212	11948.19
639.406	11735.2
639.599	11849.89
639.793	11727.01
639.986	11432.1
640.18	11684
640.373	11503.78
640.567	11229.35
640.76	11651.24
640.954	11421.86
641.147	11301.03
641.34	11243.69
641.534	11153.58
641.727	11204.78
641.92	11071.66
642.114	11112.62
642.307	10981.55
642.5	10901.68
642.694	10649.78
642.887	10909.87
643.08	10739.89
643.273	10764.47
643.467	10784.94
643.66	10686.64
643.853	10397.88
644.046	10256.57
644.239	10565.81
644.432	10381.49
644.626	10299.58
644.819	10098.88
645.012	10076.35
645.205	10162.36
645.398	10043.58
645.591	9836.74
645.784	9904.32
645.977	9937.09
646.17	10129.59
646.363	9760.96
646.556	9851.07
646.749	9781.44
646.942	9713.86
647.135	9836.74
647.328	9676.99
647.521	9533.64
647.714	9357.51
647.907	9464
648.099	9117.9
648.292	9494.72
648.485	9275.59
648.678	9165
648.871	9298.12
649.064	9158.86
649.256	9144.52
649.449	8964.3
649.642	8976.59
649.835	8904.91
650.027	8962.25
650.22	8966.35
650.413	8943.82
650.605	8827.09
650.798	8710.35
650.991	8675.54
651.183	8636.63
651.376	8589.52
651.568	8593.62
651.761	8564.95
651.954	8466.64
652.146	8450.26
652.339	8337.62
652.531	8259.8
652.724	8030.43
652.916	8151.26
653.109	8038.62
653.301	7991.52
653.494	8055
653.686	8003.8
653.879	7981.28
654.071	7813.34
654.263	7872.73
654.456	8020.19
654.648	7833.82
654.84	7649.5
655.033	7715.04
655.225	7860.45
655.417	7581.92
655.61	7776.48
655.802	7563.49
655.994	7493.86
656.186	7563.49
656.379	7338.21
656.571	7244.01
656.763	7444.71
656.955	7418.08
657.148	7194.86
657.34	7274.73
657.532	7252.2
657.724	7053.55
657.916	7215.34
658.108	7291.11
658.3	6990.06
658.492	6922.48
658.684	6983.91
658.876	6893.8
659.068	6930.67
659.26	6785.26
659.452	6920.43
659.644	6822.13
659.836	6713.58
660.028	7086.31
660.22	6684.91
660.412	6752.49
660.604	6775.02
660.796	6824.17
660.988	6551.79
661.18	6643.95
661.372	6502.64
661.563	6408.44
661.755	6416.63
661.947	6377.72
662.139	6291.7
662.331	6467.83
662.522	6287.61
662.714	6306.04
662.906	6222.07
663.097	6228.21
663.289	6199.54
663.481	6025.47
663.673	6154.49
663.864	6109.43
664.056	6037.75
664.247	5990.65
664.439	6072.57
664.631	6230.26
664.822	6015.23
665.014	5953.79
665.205	5787.9
665.397	5841.15
665.588	5765.37
665.78	5734.65
665.971	5681.41
666.163	5792
666.354	5744.89
666.546	5703.93
666.737	5687.55
666.929	5632.26
667.12	5552.38
667.311	5589.25
667.503	5445.89
667.694	5529.86
667.885	5540.1
668.077	5398.79
668.268	5374.21
668.459	5476.61
668.651	5374.21
668.842	5402.88
669.033	5310.72
669.224	5417.22
669.416	5320.96
669.607	5234.95
669.798	5120.26
669.989	5333.25
670.18	4989.19
670.371	5175.56
670.563	5187.85
670.754	5226.76
670.945	5024.01
671.136	5009.67
671.327	4897.03
671.518	4987.15
671.709	5021.96
671.9	4923.66
672.091	4958.47
672.282	4919.56
672.473	4950.28
672.664	4776.2
672.855	4860.17
673.046	4942.09
673.237	4854.03
673.428	4735.25
673.619	4864.27
673.809	4788.49
674	4780.3
674.191	4888.84
674.382	4727.05
674.573	4641.04
674.764	4616.46
674.954	4647.18
675.145	4514.06
675.336	4632.85
675.527	4546.83
675.717	4618.51
675.908	4698.38
676.099	4301.08
676.289	4292.88
676.48	4454.67
676.671	4423.95
676.861	4507.92
677.052	4542.74
677.243	4186.39
677.433	4319.51
677.624	4364.56
677.814	4225.3
678.005	4546.83
678.195	4239.64
678.386	4352.27
678.576	4088.09
678.767	4264.21
678.957	4112.66
679.148	4378.9
679.338	4350.23
679.529	4204.82
679.719	4309.27
679.909	4206.87
680.1	4323.6
680.29	4163.86
680.481	4055.32
680.671	4139.29
680.861	4110.61
681.052	4036.89
681.242	3987.74
681.432	4149.53
681.622	4210.97
681.813	4151.57
682.003	4069.66
682.193	3971.35
682.383	4079.9
682.573	4049.18
682.764	3879.19
682.954	4010.26
683.144	3932.44
683.334	3936.54
683.524	3866.91
683.714	3952.92
683.904	3944.73
684.094	3959.06
684.284	3836.19
684.474	3727.64
684.664	3836.19
684.854	3774.75
685.044	3862.81
685.234	3852.57
685.424	3866.91
685.614	3639.58
685.804	3694.88
685.994	3666.21
686.184	3707.16
686.374	3655.97
686.564	3688.73
686.753	3866.91
686.943	3643.68
687.133	3688.73
687.323	3590.43
687.513	3713.31
687.702	3555.62
687.892	3512.61
688.082	3463.46
688.272	3623.2
688.461	3588.38
688.651	3520.8
688.841	3469.6
689.03	3440.93
689.22	3582.24
689.41	3424.55
689.599	3387.68
689.789	3594.53
689.979	3479.84
690.168	3494.18
690.358	3361.06
690.547	3326.24
690.737	3217.7
690.926	3328.29
691.116	3307.81
691.305	3328.29
691.495	3459.36
691.684	3248.42
691.874	3258.66
692.063	3160.36
692.252	3252.52
692.442	3227.94
692.631	3201.32
692.82	3133.73
693.01	3096.87
693.199	3160.36
693.388	3166.5
693.578	3088.68
693.767	3098.92
693.956	3156.26
694.146	3062.05
694.335	2976.04
694.524	3105.06
694.713	3100.97
694.902	3014.95
695.092	3037.48
695.281	2988.33
695.47	3043.62
695.659	2973.99
695.848	2926.89
696.037	2918.7
696.226	2945.32
696.415	2896.17
696.604	2967.85
696.793	2965.8
696.982	2937.13
697.171	2908.46
697.36	2976.04
697.549	2978.09
697.738	2973.99
697.927	2828.59
698.116	2912.55
698.305	2814.25
698.494	2851.11
698.683	2887.98
698.872	2836.78
699.061	2758.96
699.25	2777.39
699.438	2875.69
699.627	2820.39
699.816	2689.32
700.005	2861.35
700.193	2808.11
700.382	2849.07
700.571	2767.15
700.76	2763.05
700.948	2830.63
701.137	2820.39
701.326	2896.17
701.514	2720.04
701.703	2816.3
701.892	2722.09
702.08	2832.68
702.269	2681.13
702.457	2804.01
702.646	2779.43
702.834	2750.76
703.023	2828.59
703.212	2718
703.4	2734.38
703.589	2664.75
703.777	2709.8
703.965	2615.6
704.154	2615.6
704.342	2615.6
704.531	2652.46
704.719	2736.43
704.907	2656.56
705.096	2691.37
705.284	2670.89
705.472	2707.76
705.661	2636.08
705.849	2613.55
706.037	2588.97
706.226	2582.83
706.414	2648.36
706.602	2627.89
706.79	2695.47
706.979	2783.53
707.167	2703.66
707.355	2572.59
707.543	2677.04
707.731	2593.07
707.919	2574.64
708.107	2662.7
708.296	2552.11
708.484	2554.16
708.672	2693.42
708.86	2695.47
709.048	2548.01
709.236	2609.45
709.424	2701.61
709.612	2453.81
709.8	2668.84
709.988	2558.25
710.176	2562.35
710.364	2582.83
710.551	2672.94
710.739	2531.63
710.927	2457.9
711.115	2545.97
711.303	2611.5
711.491	2550.06
711.679	2511.15
711.866	2636.08
712.054	2543.92
712.242	2418.99
712.43	2595.12
712.617	2658.6
712.805	2515.25
712.993	2607.41
713.181	2631.98
713.368	2601.26
713.556	2392.37
713.744	2462
713.931	2611.5
714.119	2517.29
714.306	2582.83
714.494	2472.24
714.682	2406.7
714.869	2505.01
715.057	2488.62
715.244	2511.15
715.432	2535.73
715.619	2535.73
715.807	2601.26
715.994	2642.22
716.182	2515.25
716.369	2502.96
716.556	2484.53
716.744	2478.38
716.931	2545.97
717.119	2449.71
717.306	2572.59
717.493	2447.66
717.681	2533.68
717.868	2378.03
718.055	2437.42
718.242	2525.49
718.43	2517.29
718.617	2439.47
718.804	2406.7
718.991	2433.33
719.179	2488.62
719.366	2455.86
719.553	2543.92
719.74	2498.86
719.927	2525.49
720.114	2509.1
720.301	2459.95
720.488	2472.24
720.676	2306.35
720.863	2423.09
721.05	2525.49
721.237	2265.39
721.424	2468.14
721.611	2435.38
721.798	2439.47
721.985	2423.09
722.172	2449.71
722.358	2507.06
722.545	2472.24
722.732	2492.72
722.919	2447.66
723.106	2435.38
723.293	2261.3
723.48	2337.07
723.667	2238.77
723.853	2308.4
724.04	2402.61
724.227	2279.73
724.414	2486.58
724.6	2324.79
724.787	2468.14
724.974	2314.55
725.161	2279.73
725.347	2457.9
725.534	2324.79
725.72	2414.9
725.907	2429.23
726.094	2275.63
726.28	2462
726.467	2322.74
726.653	2404.66
726.84	2433.33
727.027	2308.4
727.213	2263.35
727.4	2363.7
727.586	2312.5
727.773	2296.11
727.959	2355.51
728.145	2470.19
728.332	2378.03
728.518	2359.6
728.705	2384.18
728.891	2324.79
729.077	2369.84
729.264	2418.99
729.45	2265.39
729.636	2283.83
729.823	2373.94
730.009	2275.63
730.195	2468.14
730.382	2320.69
730.568	2443.57
730.754	2369.84
730.94	2203.96
731.126	2324.79
731.313	2263.35
731.499	2212.15
731.685	2339.12
731.871	2365.75
732.057	2427.18
732.243	2298.16
732.429	2306.35
732.615	2296.11
732.801	2228.53
732.987	2294.07
733.173	2285.87
733.359	2343.22
733.545	2230.58
733.731	2218.29
733.917	2349.36
734.103	2148.66
734.289	2312.5
734.475	2320.69
734.661	2267.44
734.847	2289.97
735.033	2378.03
735.219	2294.07
735.404	2261.3
735.59	2369.84
735.776	2107.7
735.962	2226.48
736.148	2238.77
736.333	2208.05
736.519	2226.48
736.705	2193.72
736.89	2189.62
737.076	2230.58
737.262	2156.85
737.447	2206
737.633	2160.95
737.819	2232.63
738.004	2341.17
738.19	2183.48
738.375	2132.28
738.561	2193.72
738.747	2214.2
738.932	2105.65
739.118	2236.72
739.303	2148.66
739.489	2177.33
739.674	2255.15
739.859	2230.58
740.045	2085.17
740.23	2165.04
740.416	2154.8
740.601	2189.62
740.786	2216.24
740.972	2167.09
741.157	2169.14
741.342	2095.41
741.528	2148.66
741.713	2105.65
741.898	2099.51
742.084	2056.5
742.269	2103.61
742.454	2179.38
742.639	2122.04
742.824	1990.97
743.01	2066.74
743.195	2025.78
743.38	2040.12
743.565	2066.74
743.75	2031.93
743.935	1943.86
744.12	2197.81
744.305	1880.38
744.49	2040.12
744.675	1929.53
744.86	1952.06
745.045	1974.58
745.23	1954.1
745.415	1986.87
745.6	1978.68
745.785	1812.79
745.97	1947.96
746.155	1866.04
746.34	1919.29
746.525	2005.3
746.71	1902.9
746.895	1820.99
747.079	1831.23
747.264	1917.24
747.449	1843.51
747.634	1847.61
747.819	1818.94
748.003	1788.22
748.188	1847.61
748.373	1859.9
748.557	1812.79
748.742	1841.47
748.927	1806.65
749.111	1775.93
749.296	1669.44
749.481	1714.49
749.665	1777.98
749.85	1718.59
750.034	1696.06
750.219	1640.76
750.404	1763.64
750.588	1630.52
750.773	1550.65
750.957	1667.39
751.141	1622.33
751.326	1567.04
751.51	1577.28
751.695	1663.29
751.879	1712.44
752.064	1597.76
752.248	1521.98
752.432	1556.8
752.617	1435.97
752.801	1616.19
752.985	1485.12
753.17	1499.45
753.354	1501.5
753.538	1497.41
753.722	1472.83
753.907	1507.65
754.091	1583.42
754.275	1536.32
754.459	1384.77
754.643	1454.4
754.828	1427.78
755.012	1466.69
755.196	1435.97
755.38	1329.47
755.564	1427.78
755.748	1431.87
755.932	1450.3
756.116	1349.95
756.3	1329.47
756.484	1331.52
756.668	1364.29
756.852	1300.8
757.036	1270.08
757.22	1327.43
757.404	1317.19
757.588	1261.89
757.772	1335.62
757.956	1216.83
758.14	1253.7
758.323	1179.97
758.507	1198.4
758.691	1200.45
758.875	1233.22
759.059	1225.03
759.242	1247.55
759.426	1192.26
759.61	1288.51
759.794	1214.79
759.977	1255.75
760.161	1175.88
760.345	1169.73
760.528	1222.98
760.712	1114.44
760.895	1220.93
761.079	1102.15
761.263	1171.78
761.446	1204.55
761.63	1089.86
761.813	1120.58
761.997	1116.48
762.18	1073.48
762.364	1093.96
762.547	1053
762.731	1139.01
762.914	1077.57
763.098	1093.96
763.281	1053
763.464	993.61
763.648	1061.19
763.831	1059.14
764.015	1026.37
764.198	1100.1
764.381	958.79
764.564	1081.67
764.748	1007.94
764.931	1077.57
765.114	1046.85
765.297	1030.47
765.481	1071.43
765.664	991.56
765.847	1061.19
766.03	1059.14
766.213	1065.29
766.397	1038.66
766.58	995.65
766.763	1014.09
766.946	1003.85
767.129	948.55
767.312	944.45
767.495	1050.95
767.678	1012.04
767.861	907.59
768.044	1030.47
768.227	952.65
768.41	1044.81
768.593	921.93
768.776	960.84
768.959	987.46
769.142	977.22
769.324	903.5
769.507	1018.18
769.69	895.3
769.873	899.4
770.056	989.51
770.239	928.07
770.421	928.07
770.604	878.92
770.787	923.98
770.97	928.07
771.152	944.45
771.335	862.54
771.518	866.63
771.7	858.44
771.883	819.53
772.066	866.63
772.248	745.8
772.431	977.22
772.613	876.87
772.796	770.38
772.978	753.99
773.161	862.54
773.343	837.96
773.526	872.78
773.708	864.58
773.891	862.54
774.073	870.73
774.256	727.37
774.438	786.76
774.621	706.89
774.803	792.91
774.985	729.42
775.168	797
775.35	733.51
775.532	942.41
775.715	784.71
775.897	815.43
776.079	794.95
776.261	815.43
776.444	737.61
776.626	715.08
776.808	674.12
776.99	729.42
777.173	743.75
777.355	710.99
777.537	725.32
777.719	696.65
777.901	690.51
778.083	710.99
778.265	657.74
778.447	678.22
778.629	690.51
778.811	700.75
778.993	657.74
779.175	698.7
779.357	661.84
779.539	655.69
779.721	581.96
779.903	698.7
780.085	729.42
780.267	622.92
780.449	596.3
780.631	618.83
780.812	602.44
780.994	567.63
781.176	688.46
781.358	653.64
781.54	657.74
781.721	604.49
781.903	530.77
782.085	541.01
782.267	614.73
782.448	553.29
782.63	577.87
782.812	569.68
782.993	481.61
783.175	530.77
783.357	577.87
783.538	551.24
783.72	473.42
783.901	588.11
784.083	551.24
784.264	526.67
784.446	536.91
784.627	454.99
784.809	512.33
784.99	500.05
785.172	465.23
785.353	463.18
785.535	549.2
785.716	526.67
785.897	432.46
786.079	541.01
786.26	538.96
786.441	448.85
786.623	457.04
786.804	459.09
786.985	475.47
787.167	407.89
787.348	416.08
787.529	407.89
787.71	510.29
787.891	477.52
788.073	436.56
788.254	450.89
788.435	444.75
788.616	473.42
788.797	416.08
788.978	424.27
789.159	399.7
789.34	418.13
789.522	399.7
789.703	399.7
789.884	328.02
790.065	387.41
790.246	469.33
790.427	344.4
790.607	330.06
790.788	416.08
790.969	315.73
791.15	393.55
791.331	418.13
791.512	360.78
791.693	352.59
791.874	346.45
792.054	428.37
792.235	291.15
792.416	305.49
792.597	346.45
792.778	401.74
792.958	373.07
793.139	321.87
793.32	444.75
793.5	366.93
793.681	342.35
793.862	385.36
794.042	323.92
794.223	344.4
794.404	375.12
794.584	280.91
794.765	297.3
794.945	328.02
795.126	358.74
795.306	352.59
795.487	276.82
795.667	278.87
795.848	317.78
796.028	297.3
796.209	299.34
796.389	307.54
796.57	346.45
796.75	256.34
796.93	303.44
797.111	303.44
797.291	330.06
797.471	289.1
797.652	280.91
797.832	244.05
798.012	348.5
798.192	295.25
798.373	274.77
798.553	309.58
798.733	336.21
798.913	285.01
799.093	299.34
799.274	231.76
799.454	295.25
799.634	239.95
799.814	254.29
799.994	211.28
800.174	237.91
800.354	178.51
800.534	217.43
800.714	250.19
800.894	192.85
801.074	270.67
801.254	233.81
801.434	278.87
801.614	223.57
801.794	235.86
801.974	633.16
802.154	223.57
802.334	239.95
802.514	223.57
802.693	250.19
802.873	172.37
803.053	254.29
803.233	237.91
803.413	166.23
803.592	192.85
803.772	237.91
803.952	172.37
804.131	233.81
804.311	237.91
804.491	256.34
804.67	258.39
804.85	213.33
805.03	227.67
805.209	239.95
805.389	207.19
805.568	209.23
805.748	223.57
805.928	217.43
806.107	215.38
806.287	211.28
806.466	133.46
806.646	244.05
806.825	244.05
807.004	223.57
807.184	166.23
807.363	246.1
807.543	186.71
807.722	149.84
807.901	178.51
808.081	209.23
808.26	147.8
808.439	256.34
808.619	170.32
808.798	229.71
808.977	225.62
809.156	184.66
809.336	166.23
809.515	207.19
809.694	219.47
809.873	246.1
810.052	221.52
810.231	104.79
810.411	151.89
810.59	227.67
810.769	133.46
810.948	149.84
811.127	129.36
811.306	153.94
811.485	137.56
811.664	141.65
811.843	112.98
812.022	149.84
812.201	182.61
812.38	190.8
812.559	166.23
812.737	209.23
812.916	135.51
813.095	88.4
813.274	147.8
813.453	235.86
813.632	106.84
813.811	178.51
813.989	131.41
814.168	141.65
814.347	139.6
814.526	123.22
814.704	170.32
814.883	129.36
815.062	74.07
815.24	94.55
815.419	135.51
815.598	178.51
815.776	59.73
815.955	129.36
816.133	104.79
816.312	141.65
816.49	158.03
816.669	125.27
816.847	155.99
817.026	135.51
817.204	182.61
817.383	131.41
817.561	94.55
817.74	129.36
817.918	127.32
818.097	137.56
818.275	121.17
818.453	182.61
818.632	186.71
818.81	98.64
818.988	125.27
819.167	100.69
819.345	100.69
819.523	158.03
819.701	131.41
819.879	145.75
820.058	176.47
820.236	139.6
820.414	98.64
820.592	131.41
820.77	123.22
820.948	106.84
821.127	112.98
821.305	145.75
821.483	117.08
821.661	121.17
821.839	112.98
822.017	112.98
822.195	110.93
822.373	145.75
822.551	153.94
822.729	61.78
822.907	108.88
823.085	141.65
823.262	158.03
823.44	121.17
823.618	158.03
823.796	160.08
823.974	39.25
824.152	96.6
824.329	41.3
824.507	151.89
824.685	108.88
824.863	65.88
825.04	125.27
825.218	125.27
825.396	72.02
825.574	14.68
825.751	121.17
825.929	100.69
826.107	139.6
826.284	106.84
826.462	69.97
826.639	125.27
826.817	123.22
826.994	43.35
827.172	51.54
827.349	145.75
827.527	151.89
827.704	117.08
827.882	106.84
828.059	125.27
828.237	72.02
828.414	59.73
828.591	41.3
828.769	143.7
828.946	69.97
829.124	76.12
829.301	35.16
829.478	108.88
829.655	160.08
829.833	115.03
830.01	49.49
830.187	65.88
830.364	160.08
830.542	22.87
830.719	119.12
830.896	59.73
831.073	33.11
831.25	153.94
831.427	10.58
831.604	63.83
831.782	63.83
831.959	10.58
832.136	104.79
832.313	112.98
832.49	-38.57
832.667	-11.95
832.844	59.73
833.021	72.02
833.198	141.65
833.374	82.26
833.551	12.63
833.728	72.02
833.905	78.16
834.082	-5.8
834.259	41.3
834.436	72.02
834.612	16.73
834.789	84.31
834.966	78.16
835.143	55.64
835.319	10.58
835.496	143.7
835.673	80.21
835.85	96.6
836.026	80.21
836.203	86.36
836.38	102.74
836.556	24.92
836.733	127.32
836.909	4.44
837.086	96.6
837.262	84.31
837.439	74.07
837.616	55.64
837.792	65.88
837.968	4.44
838.145	45.4
838.321	16.73
838.498	96.6
838.674	102.74
838.851	-9.9
839.027	88.4
839.203	102.74
839.38	63.83
839.556	-36.52
839.732	100.69
839.909	29.01
840.085	94.55
840.261	106.84
840.437	86.36
840.614	47.44
840.79	80.21
840.966	84.31
841.142	74.07
841.318	-1.71
841.494	76.12
841.671	78.16
841.847	20.82
842.023	33.11
842.199	53.59
842.375	49.49
842.551	47.44
842.727	110.93
842.903	43.35
843.079	41.3
843.255	82.26
843.431	59.73
843.607	84.31
843.783	6.49
843.959	86.36
844.134	82.26
844.31	41.3
844.486	115.03
844.662	43.35
844.838	39.25
845.013	31.06
845.189	49.49
845.365	119.12
845.541	-13.99
845.716	43.35
845.892	67.92
846.068	6.49
846.244	-18.09
846.419	49.49
846.595	-44.71
846.77	33.11
846.946	59.73
847.122	10.58
847.297	108.88
847.473	106.84
847.648	55.64
847.824	67.92
847.999	14.68
848.175	-22.19
848.35	35.16
848.526	20.82
848.701	22.87
848.876	67.92
849.052	98.64
849.227	84.31
849.403	6.49
849.578	67.92
849.753	45.4
849.929	80.21
850.104	8.53
850.279	80.21
850.454	47.44
850.63	41.3
850.805	-16.04
850.98	-42.67
851.155	49.49
851.33	2.39
851.505	-7.85
851.681	45.4
851.856	6.49
852.031	26.96
852.206	26.96
852.381	47.44
852.556	14.68
852.731	86.36
852.906	51.54
853.081	47.44
853.256	6.49
853.431	80.21
853.606	-67.24
853.781	41.3
853.956	47.44
854.131	108.88
854.305	63.83
854.48	43.35
854.655	106.84
854.83	65.88
855.005	45.4
855.18	61.78
855.354	-3.75
855.529	6.49
855.704	6.49
855.879	112.98
856.053	-1.71
856.228	53.59
856.403	10.58
856.577	-44.71
856.752	16.73
856.926	-18.09
857.101	18.77
857.276	-54.95
857.45	-5.8
857.625	-16.04
857.799	6.49
857.974	10.58
858.148	2.39
858.323	16.73
858.497	20.82
858.672	80.21
858.846	2.39
859.02	-11.95
859.195	-18.09
859.369	41.3
859.543	18.77
859.718	18.77
859.892	12.63
860.066	20.82
860.241	119.12
860.415	-89.77
860.589	10.58
860.763	39.25
860.938	31.06
861.112	22.87
861.286	22.87
861.46	24.92
861.634	24.92
861.808	104.79
861.982	0.34
862.157	24.92
862.331	-18.09
862.505	14.68
862.679	2.39
862.853	22.87
863.027	-38.57
863.201	-24.23
863.375	39.25
863.549	-11.95
863.722	24.92
863.896	-9.9
864.07	-73.39
864.244	41.3
864.418	-42.67
864.592	22.87
864.766	-9.9
864.939	-5.8
865.113	-30.38
865.287	57.68
865.461	18.77
865.634	31.06
865.808	22.87
865.982	31.06
866.156	57.68
866.329	-18.09
866.503	-36.52
866.676	12.63
866.85	63.83
867.024	10.58
867.197	14.68
867.371	61.78
867.544	-5.8
867.718	-9.9
867.891	-44.71
868.065	-122.54
868.238	-50.86
868.412	61.78
868.585	-7.85
868.759	51.54
868.932	-5.8
869.105	-52.91
869.279	-67.24
869.452	-61.1
869.625	-34.47
869.799	29.01
869.972	2.39
870.145	-3.75
870.319	57.68
870.492	12.63
870.665	10.58
870.838	-20.14
871.011	-1.71
871.185	-9.9
871.358	-30.38
871.531	2.39
871.704	-5.8
871.877	22.87
872.05	-13.99
872.223	-3.75
872.396	37.2
872.569	20.82
872.742	-1.71
872.915	51.54
873.088	-57
873.261	29.01
873.434	10.58
873.607	-1.71
873.78	51.54
873.953	-48.81
874.126	-1.71
874.299	45.4
874.471	10.58
874.644	-18.09
874.817	57.68
874.99	31.06
875.163	-18.09
875.335	29.01
875.508	-5.8
875.681	29.01
875.853	16.73
876.026	-48.81
876.199	-9.9
876.371	4.44
876.544	-24.23
876.717	20.82
876.889	-9.9
877.062	-18.09
877.234	-36.52
877.407	-34.47
877.579	12.63
877.752	-20.14
877.924	-5.8
878.097	-5.8
878.269	31.06
878.442	90.45
878.614	51.54
878.786	-18.09
878.959	39.25
879.131	-22.19
879.303	-54.95
879.476	26.96
879.648	-1.71
879.82	16.73
879.993	-11.95
880.165	-13.99
880.337	-42.67
880.509	63.83
880.681	35.16
880.854	39.25
881.026	-3.75
881.198	-20.14
881.37	6.49
881.542	0.34
881.714	-59.05
881.886	-24.23
882.058	-36.52
882.23	-24.23
882.402	-32.43
882.574	-48.81
882.746	12.63
882.918	37.2
883.09	12.63
883.262	-26.28
883.434	-57
883.606	-16.04
883.778	-18.09
883.95	-3.75
884.122	2.39
884.293	31.06
884.465	-79.53
884.637	8.53
884.809	-18.09
884.98	-34.47
885.152	-7.85
885.324	6.49
885.496	-3.75
885.667	-73.39
885.839	8.53
886.011	41.3
886.182	8.53
886.354	0.34
886.525	49.49
886.697	-46.76
886.869	14.68
887.04	45.4
887.212	4.44
887.383	59.73
887.555	-20.14
887.726	22.87
887.897	6.49
888.069	-5.8
888.24	-1.71
888.412	-34.47
888.583	-44.71
888.754	88.4
888.926	35.16
889.097	-87.72
889.268	-9.9
889.44	29.01
889.611	-57
889.782	-93.87
889.953	-1.71
890.125	10.58
890.296	-24.23
890.467	-1.71
890.638	-9.9
890.809	-22.19
890.98	-28.33
891.151	51.54
891.323	10.58
891.494	43.35
891.665	-38.57
891.836	59.73
892.007	-28.33
892.178	74.07
892.349	-5.8
892.52	12.63
892.691	10.58
892.862	22.87
893.032	-46.76
893.203	41.3
893.374	-89.77
893.545	59.73
893.716	51.54
893.887	31.06
894.057	41.3
894.228	31.06
894.399	-5.8
894.57	35.16
894.74	26.96
894.911	-7.85
895.082	14.68
895.253	18.77
895.423	65.88
895.594	0.34
895.764	45.4
895.935	2.39
896.106	0.34
896.276	-44.71
896.447	-1.71
896.617	-24.23
896.788	-48.81
896.958	24.92
897.129	-30.38
897.299	-65.19
897.47	10.58
897.64	18.77
897.81	4.44
897.981	76.12
898.151	-50.86
898.322	12.63
898.492	-36.52
898.662	-3.75
898.832	-48.81
899.003	0.34
899.173	-40.62
899.343	-16.04
899.513	33.11
