Data from USB4F104151__173__11-09-23-024.txt Node

Date: Wed Mar 12 11:09:23 EDT 2025
User: louis
Spectrometer: USB4F10415
Trigger mode: 4
Integration Time (sec): 2.000000E-2
Scans to average: 1
Electric dark correction enabled: true
Nonlinearity correction enabled: false
Boxcar width: 0
XAxis mode: Wavelengths
Number of Pixels in Spectrum: 3648
>>>>>Begin Spectral Data<<<<<
178.204	-106.32
178.424	-106.32
178.644	-106.32
178.864	-69.46
179.084	-73.56
179.304	-10.07
179.524	37.03
179.744	10.41
179.964	26.79
180.184	-71.51
180.404	26.79
180.624	26.79
180.844	20.65
181.064	-57.17
181.283	-46.93
181.503	24.75
181.723	12.46
181.943	-3.93
182.163	77.99
182.383	-1.88
182.602	77.99
182.822	39.08
183.042	0.17
183.262	16.55
183.482	-16.21
183.701	-3.93
183.921	-42.84
184.141	-1.88
184.361	-32.6
184.58	77.99
184.8	34.99
185.02	16.55
185.239	28.84
185.459	-30.55
185.679	41.13
185.898	-8.02
186.118	0.17
186.338	32.94
186.557	69.8
186.777	26.79
186.997	-1.88
187.216	-16.21
187.436	92.33
187.655	18.6
187.875	63.66
188.095	12.46
188.314	8.36
188.534	67.75
188.753	18.6
188.973	75.95
189.192	37.03
189.412	16.55
189.631	-79.7
189.851	-1.88
190.07	8.36
190.29	20.65
190.509	-1.88
190.729	14.51
190.948	61.61
191.168	104.62
191.387	12.46
191.607	2.22
191.826	4.27
192.045	6.31
192.265	-1.88
192.484	0.17
192.704	-55.12
192.923	43.18
193.142	69.8
193.362	-20.31
193.581	8.36
193.8	90.28
194.02	32.94
194.239	-16.21
194.458	18.6
194.678	8.36
194.897	-18.26
195.116	-42.84
195.335	6.31
195.555	102.57
195.774	69.8
195.993	49.32
196.212	10.41
196.432	-3.93
196.651	8.36
196.87	-16.21
197.089	20.65
197.308	8.36
197.528	71.85
197.747	10.41
197.966	-3.93
198.185	28.84
198.404	51.37
198.623	59.56
198.842	32.94
199.062	98.47
199.281	14.51
199.5	63.66
199.719	-32.6
199.938	59.56
200.157	63.66
200.376	12.46
200.595	53.42
200.814	61.61
201.033	-55.12
201.252	-65.36
201.471	0.17
201.69	-22.36
201.909	90.28
202.128	43.18
202.347	47.27
202.566	84.14
202.785	-16.21
203.004	-53.08
203.223	90.28
203.442	43.18
203.661	28.84
203.879	49.32
204.098	10.41
204.317	-26.45
204.536	32.94
204.755	39.08
204.974	-1.88
205.193	59.56
205.411	106.67
205.63	20.65
205.849	65.71
206.068	-14.17
206.287	28.84
206.505	22.7
206.724	-3.93
206.943	-16.21
207.162	45.23
207.381	45.23
207.599	14.51
207.818	4.27
208.037	-10.07
208.255	-20.31
208.474	16.55
208.693	-16.21
208.911	-10.07
209.13	67.75
209.349	59.56
209.567	-22.36
209.786	-46.93
210.005	67.75
210.223	12.46
210.442	12.46
210.661	-71.51
210.879	37.03
211.098	10.41
211.316	75.95
211.535	92.33
211.753	16.55
211.972	6.31
212.191	26.79
212.409	47.27
212.628	-34.64
212.846	6.31
213.065	41.13
213.283	12.46
213.502	-67.41
213.72	61.61
213.938	-26.45
214.157	82.09
214.375	43.18
214.594	-40.79
214.812	-55.12
215.031	-3.93
215.249	-40.79
215.467	14.51
215.686	-16.21
215.904	18.6
216.122	57.51
216.341	96.43
216.559	-26.45
216.778	61.61
216.996	63.66
217.214	63.66
217.432	8.36
217.651	84.14
217.869	-8.02
218.087	10.41
218.306	20.65
218.524	-20.31
218.742	-14.17
218.96	37.03
219.179	24.75
219.397	-5.97
219.615	32.94
219.833	80.04
220.051	-30.55
220.27	59.56
220.488	30.89
220.706	80.04
220.924	57.51
221.142	51.37
221.36	0.17
221.578	-28.5
221.796	-5.97
222.015	-16.21
222.233	-8.02
222.451	71.85
222.669	14.51
222.887	41.13
223.105	-20.31
223.323	75.95
223.541	2.22
223.759	-12.12
223.977	18.6
224.195	94.38
224.413	47.27
224.631	8.36
224.849	-40.79
225.067	-10.07
225.285	-36.69
225.503	57.51
225.721	4.27
225.939	20.65
226.157	69.8
226.375	-22.36
226.592	39.08
226.81	47.27
227.028	20.65
227.246	65.71
227.464	55.47
227.682	8.36
227.9	88.23
228.117	30.89
228.335	-42.84
228.553	-34.64
228.771	-30.55
228.989	92.33
229.206	71.85
229.424	26.79
229.642	0.17
229.86	34.99
230.077	12.46
230.295	49.32
230.513	16.55
230.731	26.79
230.948	57.51
231.166	22.7
231.384	43.18
231.601	55.47
231.819	-57.17
232.037	77.99
232.254	-22.36
232.472	4.27
232.689	-24.4
232.907	-40.79
233.125	4.27
233.342	71.85
233.56	-12.12
233.777	0.17
233.995	53.42
234.213	28.84
234.43	26.79
234.648	32.94
234.865	8.36
235.083	12.46
235.3	-18.26
235.518	39.08
235.735	8.36
235.953	-18.26
236.17	-12.12
236.388	4.27
236.605	8.36
236.822	41.13
237.04	-36.69
237.257	65.71
237.475	-16.21
237.692	-28.5
237.909	53.42
238.127	26.79
238.344	0.17
238.562	63.66
238.779	-18.26
238.996	-16.21
239.214	53.42
239.431	82.09
239.648	41.13
239.865	32.94
240.083	61.61
240.3	69.8
240.517	22.7
240.735	-5.97
240.952	47.27
241.169	80.04
241.386	28.84
241.603	24.75
241.821	39.08
242.038	69.8
242.255	-12.12
242.472	61.61
242.689	51.37
242.907	88.23
243.124	57.51
243.341	49.32
243.558	10.41
243.775	-12.12
243.992	2.22
244.209	18.6
244.426	108.71
244.643	94.38
244.86	104.62
245.078	8.36
245.295	65.71
245.512	39.08
245.729	34.99
245.946	73.9
246.163	-3.93
246.38	28.84
246.597	-24.4
246.814	-8.02
247.031	32.94
247.248	4.27
247.464	22.7
247.681	116.9
247.898	16.55
248.115	4.27
248.332	-14.17
248.549	8.36
248.766	8.36
248.983	65.71
249.2	2.22
249.417	65.71
249.633	12.46
249.85	131.24
250.067	-34.64
250.284	51.37
250.501	37.03
250.717	104.62
250.934	28.84
251.151	0.17
251.368	-26.45
251.585	16.55
251.801	16.55
252.018	69.8
252.235	-20.31
252.451	-5.97
252.668	34.99
252.885	71.85
253.102	-12.12
253.318	-3.93
253.535	24.75
253.752	-8.02
253.968	24.75
254.185	53.42
254.401	45.23
254.618	26.79
254.835	-59.22
255.051	61.61
255.268	61.61
255.484	71.85
255.701	10.41
255.917	51.37
256.134	0.17
256.351	63.66
256.567	86.19
256.784	4.27
257	-48.98
257.217	26.79
257.433	39.08
257.65	32.94
257.866	-18.26
258.082	-46.93
258.299	28.84
258.515	-18.26
258.732	6.31
258.948	34.99
259.165	-10.07
259.381	4.27
259.597	30.89
259.814	14.51
260.03	53.42
260.246	47.27
260.463	24.75
260.679	53.42
260.895	90.28
261.112	14.51
261.328	57.51
261.544	37.03
261.761	106.67
261.977	28.84
262.193	61.61
262.409	49.32
262.626	-3.93
262.842	12.46
263.058	12.46
263.274	69.8
263.49	69.8
263.707	-26.45
263.923	20.65
264.139	51.37
264.355	86.19
264.571	16.55
264.787	26.79
265.004	18.6
265.22	57.51
265.436	32.94
265.652	32.94
265.868	30.89
266.084	-57.17
266.3	90.28
266.516	-44.88
266.732	-14.17
266.948	-22.36
267.164	-1.88
267.38	39.08
267.596	49.32
267.812	10.41
268.028	45.23
268.244	49.32
268.46	-42.84
268.676	-51.03
268.892	67.75
269.108	75.95
269.324	16.55
269.54	37.03
269.756	61.61
269.972	-34.64
270.188	-28.5
270.403	110.76
270.619	-5.97
270.835	24.75
271.051	6.31
271.267	32.94
271.483	86.19
271.698	-14.17
271.914	0.17
272.13	12.46
272.346	-12.12
272.562	24.75
272.777	6.31
272.993	22.7
273.209	63.66
273.425	32.94
273.64	-32.6
273.856	-8.02
274.072	24.75
274.287	-36.69
274.503	61.61
274.719	-40.79
274.934	22.7
275.15	-20.31
275.366	80.04
275.581	-26.45
275.797	2.22
276.012	-30.55
276.228	45.23
276.444	16.55
276.659	67.75
276.875	14.51
277.09	-34.64
277.306	-12.12
277.521	47.27
277.737	6.31
277.952	59.56
278.168	-40.79
278.383	43.18
278.599	-22.36
278.814	-34.64
279.03	12.46
279.245	57.51
279.461	32.94
279.676	53.42
279.892	16.55
280.107	-18.26
280.322	32.94
280.538	39.08
280.753	-10.07
280.969	88.23
281.184	37.03
281.399	45.23
281.615	71.85
281.83	20.65
282.045	26.79
282.26	10.41
282.476	10.41
282.691	61.61
282.906	20.65
283.122	53.42
283.337	-128.85
283.552	49.32
283.767	-81.75
283.983	30.89
284.198	47.27
284.413	14.51
284.628	-42.84
284.843	-48.98
285.058	94.38
285.274	59.56
285.489	43.18
285.704	24.75
285.919	47.27
286.134	-61.27
286.349	2.22
286.564	47.27
286.779	65.71
286.995	24.75
287.21	20.65
287.425	32.94
287.64	24.75
287.855	2.22
288.07	26.79
288.285	-12.12
288.5	30.89
288.715	45.23
288.93	22.7
289.145	16.55
289.36	34.99
289.575	37.03
289.79	49.32
290.004	-16.21
290.219	75.95
290.434	69.8
290.649	16.55
290.864	-28.5
291.079	-10.07
291.294	14.51
291.509	77.99
291.724	-30.55
291.938	2.22
292.153	16.55
292.368	22.7
292.583	4.27
292.798	12.46
293.012	39.08
293.227	37.03
293.442	-1.88
293.657	73.9
293.871	69.8
294.086	34.99
294.301	4.27
294.516	32.94
294.73	-16.21
294.945	6.31
295.16	59.56
295.374	-10.07
295.589	84.14
295.804	6.31
296.018	16.55
296.233	37.03
296.447	28.84
296.662	47.27
296.877	-14.17
297.091	49.32
297.306	-24.4
297.52	0.17
297.735	8.36
297.949	-12.12
298.164	14.51
298.378	8.36
298.593	55.47
298.807	-40.79
299.022	53.42
299.236	32.94
299.451	51.37
299.665	10.41
299.88	10.41
300.094	-57.17
300.309	102.57
300.523	-22.36
300.737	-12.12
300.952	92.33
301.166	-3.93
301.381	53.42
301.595	63.66
301.809	18.6
302.024	-61.27
302.238	28.84
302.452	10.41
302.667	-5.97
302.881	34.99
303.095	41.13
303.309	82.09
303.524	10.41
303.738	49.32
303.952	37.03
304.166	94.38
304.381	-12.12
304.595	0.17
304.809	82.09
305.023	55.47
305.237	49.32
305.452	-63.32
305.666	32.94
305.88	102.57
306.094	-20.31
306.308	-22.36
306.522	73.9
306.736	39.08
306.95	-12.12
307.164	20.65
307.379	28.84
307.593	39.08
307.807	80.04
308.021	-8.02
308.235	14.51
308.449	47.27
308.663	63.66
308.877	37.03
309.091	26.79
309.305	77.99
309.519	49.32
309.733	45.23
309.947	-28.5
310.161	32.94
310.374	10.41
310.588	8.36
310.802	-38.74
311.016	49.32
311.23	51.37
311.444	0.17
311.658	39.08
311.872	77.99
312.085	53.42
312.299	-12.12
312.513	2.22
312.727	67.75
312.941	-65.36
313.154	43.18
313.368	69.8
313.582	-3.93
313.796	8.36
314.009	30.89
314.223	-18.26
314.437	22.7
314.651	28.84
314.864	28.84
315.078	12.46
315.292	20.65
315.505	-38.74
315.719	69.8
315.933	-14.17
316.146	-3.93
316.36	30.89
316.573	26.79
316.787	53.42
317.001	59.56
317.214	24.75
317.428	30.89
317.641	28.84
317.855	22.7
318.068	37.03
318.282	-8.02
318.495	32.94
318.709	2.22
318.922	39.08
319.136	53.42
319.349	59.56
319.563	18.6
319.776	-10.07
319.99	69.8
320.203	75.95
320.417	39.08
320.63	16.55
320.843	86.19
321.057	14.51
321.27	16.55
321.483	55.47
321.697	51.37
321.91	2.22
322.124	-18.26
322.337	57.51
322.55	8.36
322.763	71.85
322.977	65.71
323.19	-38.74
323.403	45.23
323.617	88.23
323.83	71.85
324.043	12.46
324.256	71.85
324.469	-53.08
324.683	67.75
324.896	67.75
325.109	2.22
325.322	-34.64
325.535	-3.93
325.748	0.17
325.962	14.51
326.175	90.28
326.388	-30.55
326.601	-12.12
326.814	-3.93
327.027	98.47
327.24	110.76
327.453	-3.93
327.666	69.8
327.879	98.47
328.092	-12.12
328.305	-30.55
328.518	65.71
328.731	-16.21
328.944	71.85
329.157	53.42
329.37	41.13
329.583	16.55
329.796	51.37
330.009	10.41
330.222	114.86
330.435	-46.93
330.648	45.23
330.861	14.51
331.073	47.27
331.286	112.81
331.499	32.94
331.712	-28.5
331.925	49.32
332.138	16.55
332.35	57.51
332.563	26.79
332.776	106.67
332.989	37.03
333.202	-3.93
333.414	57.51
333.627	67.75
333.84	28.84
334.053	84.14
334.265	-30.55
334.478	30.89
334.691	92.33
334.903	39.08
335.116	63.66
335.329	-8.02
335.541	-61.27
335.754	55.47
335.966	-14.17
336.179	30.89
336.392	59.56
336.604	45.23
336.817	26.79
337.029	65.71
337.242	16.55
337.454	82.09
337.667	22.7
337.88	39.08
338.092	-26.45
338.305	67.75
338.517	30.89
338.729	77.99
338.942	-24.4
339.154	55.47
339.367	59.56
339.579	94.38
339.792	6.31
340.004	45.23
340.217	-12.12
340.429	12.46
340.641	-12.12
340.854	2.22
341.066	63.66
341.278	53.42
341.491	82.09
341.703	-8.02
341.915	45.23
342.128	51.37
342.34	-32.6
342.552	-3.93
342.764	14.51
342.977	-69.46
343.189	2.22
343.401	-34.64
343.613	4.27
343.826	57.51
344.038	8.36
344.25	32.94
344.462	-28.5
344.674	26.79
344.886	24.75
345.099	57.51
345.311	14.51
345.523	82.09
345.735	-59.22
345.947	43.18
346.159	12.46
346.371	80.04
346.583	59.56
346.795	94.38
347.007	69.8
347.219	-5.97
347.431	-40.79
347.643	82.09
347.855	6.31
348.067	-18.26
348.279	45.23
348.491	63.66
348.703	53.42
348.915	-3.93
349.127	-87.89
349.339	12.46
349.551	45.23
349.763	73.9
349.975	28.84
350.187	-20.31
350.399	82.09
350.61	20.65
350.822	2.22
351.034	127.14
351.246	-12.12
351.458	45.23
351.669	-3.93
351.881	55.47
352.093	47.27
352.305	43.18
352.517	32.94
352.728	45.23
352.94	-30.55
353.152	12.46
353.363	10.41
353.575	10.41
353.787	159.91
353.999	4.27
354.21	69.8
354.422	75.95
354.633	32.94
354.845	30.89
355.057	-12.12
355.268	26.79
355.48	20.65
355.692	-8.02
355.903	16.55
356.115	41.13
356.326	-40.79
356.538	104.62
356.749	80.04
356.961	90.28
357.172	8.36
357.384	88.23
357.595	4.27
357.807	98.47
358.018	45.23
358.23	22.7
358.441	69.8
358.653	51.37
358.864	8.36
359.075	12.46
359.287	30.89
359.498	30.89
359.709	-42.84
359.921	32.94
360.132	51.37
360.344	-8.02
360.555	-79.7
360.766	45.23
360.977	53.42
361.189	59.56
361.4	96.43
361.611	32.94
361.823	110.76
362.034	4.27
362.245	53.42
362.456	59.56
362.667	22.7
362.879	63.66
363.09	10.41
363.301	24.75
363.512	34.99
363.723	32.94
363.935	-3.93
364.146	73.9
364.357	75.95
364.568	98.47
364.779	84.14
364.99	47.27
365.201	12.46
365.412	69.8
365.623	2.22
365.834	49.32
366.045	26.79
366.256	47.27
366.467	37.03
366.678	67.75
366.889	57.51
367.1	-8.02
367.311	32.94
367.522	47.27
367.733	-12.12
367.944	2.22
368.155	14.51
368.366	55.47
368.577	26.79
368.788	69.8
368.999	8.36
369.209	39.08
369.42	43.18
369.631	127.14
369.842	8.36
370.053	-3.93
370.264	0.17
370.474	14.51
370.685	12.46
370.896	57.51
371.107	86.19
371.317	59.56
371.528	57.51
371.739	82.09
371.95	75.95
372.16	53.42
372.371	41.13
372.582	8.36
372.792	8.36
373.003	55.47
373.214	65.71
373.424	37.03
373.635	18.6
373.846	114.86
374.056	39.08
374.267	43.18
374.477	49.32
374.688	-30.55
374.898	73.9
375.109	57.51
375.319	69.8
375.53	4.27
375.74	53.42
375.951	20.65
376.161	57.51
376.372	45.23
376.582	41.13
376.793	2.22
377.003	63.66
377.214	-16.21
377.424	-36.69
377.635	-30.55
377.845	20.65
378.055	106.67
378.266	-24.4
378.476	159.91
378.686	8.36
378.897	34.99
379.107	90.28
379.317	96.43
379.528	22.7
379.738	34.99
379.948	26.79
380.158	16.55
380.369	39.08
380.579	30.89
380.789	0.17
380.999	94.38
381.21	26.79
381.42	135.34
381.63	24.75
381.84	26.79
382.05	55.47
382.261	92.33
382.471	57.51
382.681	59.56
382.891	71.85
383.101	47.27
383.311	65.71
383.521	49.32
383.731	-16.21
383.941	47.27
384.151	-44.88
384.361	75.95
384.571	0.17
384.781	55.47
384.991	-18.26
385.201	80.04
385.411	28.84
385.621	37.03
385.831	37.03
386.041	59.56
386.251	45.23
386.461	98.47
386.671	57.51
386.881	6.31
387.091	20.65
387.301	69.8
387.511	67.75
387.72	114.86
387.93	39.08
388.14	65.71
388.35	0.17
388.56	65.71
388.769	53.42
388.979	80.04
389.189	12.46
389.399	57.51
389.609	65.71
389.818	63.66
390.028	45.23
390.238	16.55
390.447	67.75
390.657	151.72
390.867	51.37
391.076	69.8
391.286	69.8
391.496	96.43
391.705	-14.17
391.915	98.47
392.125	65.71
392.334	57.51
392.544	34.99
392.753	88.23
392.963	-1.88
393.172	10.41
393.382	39.08
393.591	112.81
393.801	37.03
394.01	104.62
394.22	65.71
394.429	80.04
394.639	77.99
394.848	28.84
395.058	18.6
395.267	77.99
395.477	86.19
395.686	20.65
395.895	18.6
396.105	118.95
396.314	-32.6
396.524	73.9
396.733	98.47
396.942	67.75
397.152	118.95
397.361	100.52
397.57	47.27
397.78	153.77
397.989	51.37
398.198	90.28
398.407	55.47
398.617	114.86
398.826	45.23
399.035	69.8
399.244	73.9
399.453	67.75
399.663	67.75
399.872	116.9
400.081	125.1
400.29	155.82
400.499	102.57
400.708	104.62
400.917	73.9
401.127	61.61
401.336	82.09
401.545	139.43
401.754	131.24
401.963	49.32
402.172	45.23
402.381	47.27
402.59	141.48
402.799	116.9
403.008	41.13
403.217	39.08
403.426	75.95
403.635	2.22
403.844	86.19
404.053	45.23
404.262	16.55
404.471	135.34
404.68	90.28
404.888	77.99
405.097	118.95
405.306	73.9
405.515	118.95
405.724	69.8
405.933	98.47
406.142	102.57
406.35	229.54
406.559	188.58
406.768	104.62
406.977	182.44
407.185	166.06
407.394	86.19
407.603	231.59
407.812	96.43
408.02	215.21
408.229	139.43
408.438	151.72
408.646	151.72
408.855	153.77
409.064	184.49
409.272	182.44
409.481	241.83
409.69	176.3
409.898	155.82
410.107	266.41
410.315	219.3
410.524	225.45
410.733	204.97
410.941	274.6
411.15	235.69
411.358	276.65
411.567	280.74
411.775	241.83
411.984	295.08
412.192	372.9
412.401	288.93
412.609	368.81
412.818	409.76
413.026	401.57
413.234	370.85
413.443	311.46
413.651	473.25
413.86	440.48
414.068	442.53
414.276	409.76
414.485	530.59
414.693	409.76
414.901	489.64
415.11	518.31
415.318	524.45
415.526	520.35
415.734	594.08
415.943	612.51
416.151	581.79
416.359	635.04
416.567	639.14
416.776	596.13
416.984	712.86
417.192	727.2
417.4	624.8
417.608	729.25
417.817	759.97
418.025	860.32
418.233	983.2
418.441	839.84
418.649	827.55
418.857	850.08
419.065	1036.44
419.273	919.71
419.481	983.2
419.689	993.44
419.897	1052.83
420.105	1116.31
420.313	1161.37
420.521	1269.91
420.729	1220.76
420.937	1208.47
421.145	1278.1
421.353	1353.88
421.561	1421.46
421.769	1425.56
421.977	1536.15
422.185	1458.32
422.393	1681.55
422.601	1648.79
422.809	1751.18
423.017	1626.26
423.224	1812.62
423.432	1921.17
423.64	1802.38
423.848	1939.6
424.056	1917.07
424.263	2119.82
424.471	2140.3
424.679	2140.3
424.887	2179.21
425.094	2371.72
425.302	2295.94
425.51	2408.58
425.718	2506.88
425.925	2631.81
426.133	2594.95
426.341	2672.77
426.548	2908.29
426.756	2861.18
426.964	2799.74
427.171	3041.4
427.379	3223.67
427.586	3278.97
427.794	3217.53
428.001	3508.34
428.209	3678.32
428.417	3502.2
428.624	3797.1
428.832	3780.72
429.039	3795.06
429.247	3948.65
429.454	4030.57
429.662	4323.43
429.869	4073.58
430.076	4479.08
430.284	4257.9
430.491	4434.02
430.699	4692.07
430.906	4880.48
431.114	4634.72
431.321	5034.08
431.528	4980.83
431.736	5406.81
431.943	5627.99
432.15	5398.62
432.358	5625.94
432.565	5908.56
432.772	5744.72
432.979	6113.36
433.187	6328.39
433.394	6246.48
433.601	6678.6
433.808	6737.99
434.016	6684.74
434.223	6821.95
434.43	7092.29
434.637	6914.11
434.844	7688.25
435.052	7612.47
435.259	7635
435.466	7815.22
435.673	7704.63
435.88	8196.14
436.087	8570.92
436.294	8763.43
436.501	8474.67
436.708	8628.26
436.915	8843.3
437.122	9320.48
437.329	9392.16
437.537	9465.88
437.743	9599
437.95	9682.97
438.157	10186.77
438.364	10430.48
438.571	10272.78
438.778	10399.76
438.985	11540.47
439.192	11083.78
439.399	11671.54
439.606	11237.38
439.813	11698.17
440.02	12349.42
440.227	12247.02
440.433	12224.5
440.64	12374
440.847	12683.24
441.054	12742.63
441.261	13533.15
441.467	13463.52
441.674	13803.48
441.881	14401.49
442.088	14196.69
442.294	14290.9
442.501	14440.4
442.708	14837.7
442.914	15361.98
443.121	15900.6
443.328	15579.07
443.534	16750.51
443.741	16187.32
443.948	16005.05
444.154	17379.23
444.361	17174.44
444.568	17395.62
444.774	16977.83
444.981	17381.28
445.187	17794.97
445.394	18632.59
445.6	18159.51
445.807	20166.52
446.013	19160.97
446.22	19715.97
446.426	20320.12
446.633	20371.32
446.839	21100.39
447.046	19965.82
447.252	21444.45
447.459	21768.03
447.665	21423.97
447.871	22646.61
448.078	23258.95
448.284	22101.85
448.491	22755.15
448.697	23605.06
448.903	24284.98
449.11	23998.27
449.316	23582.53
449.522	24145.72
449.728	24778.54
449.935	24923.95
450.141	24842.03
450.347	25433.89
450.553	24538.93
450.76	25149.23
450.966	25472.81
451.172	25421.61
451.378	26289.95
451.584	25626.4
451.791	26339.1
451.997	26220.31
452.203	26627.86
452.409	26566.42
452.615	26392.34
452.821	25470.76
453.027	25261.87
453.233	26500.89
453.44	25278.25
453.646	25833.25
453.852	25681.7
454.058	26210.07
454.264	25593.64
454.47	26171.16
454.676	25171.75
454.882	26079
455.088	23762.75
455.294	24016.7
455.5	24833.84
455.705	24594.23
455.911	23478.08
456.117	23355.21
456.323	22918.99
456.529	21829.47
456.735	22923.08
456.941	21931.87
457.147	21675.87
457.352	21098.34
457.558	20985.71
457.764	21092.2
457.97	20565.87
458.176	20000.63
458.381	19971.96
458.587	19242.89
458.793	19064.71
458.999	18007.96
459.204	19218.31
459.41	18831.24
459.616	17612.7
459.821	17807.26
460.027	17737.63
460.233	16981.93
460.438	16297.91
460.644	16699.31
460.85	15796.15
461.055	15833.02
461.261	15417.28
461.466	14565.32
461.672	14055.38
461.878	14776.27
462.083	13965.27
462.289	13727.71
462.494	13631.45
462.7	12818.41
462.905	12687.34
463.111	13162.47
463.316	13172.71
463.522	12658.67
463.727	12908.52
463.932	13033.44
464.138	12566.51
464.343	12875.75
464.549	12220.4
464.754	12720.1
464.959	12591.08
465.165	12378.09
465.37	12013.56
465.575	11771.9
465.781	12175.34
465.986	12333.04
466.191	11882.49
466.397	11767.8
466.602	10973.19
466.807	11384.83
467.012	11352.06
467.218	11257.85
467.423	11372.54
467.628	11229.18
467.833	11741.18
468.038	11401.21
468.244	10872.84
468.449	11653.11
468.654	11110.4
468.859	11034.63
469.064	11010.05
469.269	10426.38
469.474	10539.02
469.679	10776.58
469.885	10309.65
470.09	10555.4
470.295	10424.33
470.5	10373.13
470.705	10528.78
470.91	10104.85
471.115	10170.38
471.32	10037.27
471.525	10119.18
471.73	9814.04
471.935	9859.09
472.139	9287.71
472.344	9639.96
472.549	9463.83
472.754	9390.11
472.959	9205.79
473.164	9027.62
473.369	9041.95
473.574	9156.64
473.778	9279.52
473.983	9035.81
474.188	9037.86
474.393	8751.14
474.598	8720.42
474.802	8652.84
475.007	8474.67
475.212	8673.32
475.417	8073.26
475.621	8478.76
475.826	8257.58
476.031	8103.98
476.235	8181.81
476.44	7917.62
476.645	7856.18
476.849	7995.44
477.054	7925.81
477.259	7571.51
477.463	7540.79
477.668	7573.56
477.872	7639.09
478.077	7596.09
478.282	7434.3
478.486	7358.52
478.691	7383.1
478.895	7145.53
479.1	7178.3
479.304	7022.66
479.509	7059.52
479.713	7088.19
479.918	6983.74
480.122	6748.23
480.326	6963.26
480.531	6922.31
480.735	6762.56
480.94	6649.93
481.144	7000.13
481.348	6676.55
481.553	6776.9
481.757	6692.93
481.961	6950.98
482.166	6924.35
482.37	6813.76
482.574	6574.15
482.778	6576.2
482.983	6754.37
483.187	6729.8
483.391	6668.36
483.595	6475.85
483.8	6490.18
484.004	6668.36
484.208	6647.88
484.412	6545.48
484.616	6563.91
484.821	6578.25
485.025	6502.47
485.229	6670.4
485.433	6438.98
485.637	6821.95
485.841	6533.19
486.045	6664.26
486.249	6533.19
486.453	6729.8
486.657	6574.15
486.861	6699.08
487.065	6385.74
487.269	6574.15
487.473	6385.74
487.677	6498.38
487.881	6666.31
488.085	6514.76
488.289	6694.98
488.493	6666.31
488.697	6703.17
488.901	6772.8
489.105	6590.53
489.309	6664.26
489.512	6758.47
489.716	6600.77
489.92	6774.85
490.124	6455.37
490.328	6701.12
490.531	6791.24
490.735	6654.02
490.939	6758.47
491.143	6750.28
491.346	6572.1
491.55	6979.65
491.754	6914.11
491.958	6930.5
492.161	6940.74
492.365	7012.42
492.569	6867.01
492.772	6971.46
492.976	6924.35
493.18	7155.77
493.383	7217.21
493.587	7213.12
493.79	7235.64
493.994	7176.25
494.197	7307.32
494.401	7307.32
494.605	7276.6
494.808	7489.59
495.012	7362.62
495.215	7325.75
495.419	7622.71
495.622	7530.55
495.825	7512.12
496.029	7698.49
496.232	7802.93
496.436	7761.97
496.639	7919.67
496.843	7893.04
497.046	8093.74
497.249	8185.9
497.453	8179.76
497.656	8296.49
497.859	8474.67
498.063	8327.21
498.266	8607.78
498.469	8583.21
498.673	8532.01
498.876	8751.14
499.079	8843.3
499.282	8781.86
499.485	9226.27
499.689	9091.1
499.892	9508.89
500.095	9289.76
500.298	9705.49
500.501	9461.79
500.705	9664.54
500.908	9740.31
501.111	9863.19
501.314	9916.44
501.517	9996.31
501.72	9963.54
501.923	10154
502.126	10332.17
502.329	10469.39
502.532	10645.51
502.735	10600.46
502.938	10870.79
503.141	10907.65
503.344	11089.92
503.547	11102.21
503.75	11372.54
503.953	11476.99
504.156	11460.6
504.359	11698.17
504.562	11804.66
504.765	11988.98
504.968	12064.75
505.17	12144.63
505.373	12185.58
505.576	12478.44
505.779	12660.71
505.982	12722.15
506.185	12730.34
506.387	12888.04
506.59	13021.16
506.793	13369.31
506.996	13156.32
507.198	13424.61
507.401	13516.76
507.604	13815.77
507.807	13961.17
508.009	14106.58
508.212	14223.31
508.415	14165.97
508.617	14440.4
508.82	14575.56
509.022	14364.62
509.225	14942.15
509.428	14964.68
509.63	14989.25
509.833	15144.9
510.035	15687.61
510.238	15333.31
510.44	15663.04
510.643	16181.17
510.845	16027.57
511.048	15919.03
511.25	16285.62
511.453	16447.41
511.655	16957.35
511.858	16775.08
512.06	17047.46
512.262	17143.72
512.465	17113
512.667	17235.88
512.87	17543.07
513.072	17479.58
513.274	18065.3
513.477	17860.51
513.679	18407.31
513.881	18343.83
514.084	18589.58
514.286	18532.24
514.488	18778
514.69	19619.71
514.893	19320.71
515.095	19398.53
515.297	19791.74
515.499	19660.67
515.701	19957.63
515.904	20262.77
516.106	20438.9
516.308	20545.39
516.51	21030.76
516.712	20764.53
516.914	21061.48
517.116	21497.7
517.318	21448.55
517.52	21491.55
517.722	21614.43
517.925	21972.83
518.127	22318.93
518.329	22234.97
518.531	22280.02
518.733	22693.71
518.935	22755.15
519.136	22998.86
519.338	23629.63
519.54	23680.83
519.742	23351.11
519.944	23768.9
520.146	23961.41
520.348	24287.03
520.55	24395.57
520.752	24385.33
520.954	25044.78
521.155	24803.12
521.357	25188.14
521.559	25294.63
521.761	25691.94
521.963	25687.84
522.164	25700.13
522.366	26369.82
522.568	26255.13
522.77	26136.35
522.971	26773.27
523.173	26752.79
523.375	27150.09
523.576	27019.02
523.778	26758.93
523.98	27338.51
524.181	27041.55
524.383	27514.63
524.584	27621.13
524.786	27918.08
524.988	27936.51
525.189	28196.6
525.391	28581.62
525.592	28159.74
525.794	29050.61
525.995	28354.3
526.197	28890.87
526.398	28845.81
526.6	29296.36
526.801	29382.38
527.003	29181.68
527.204	29140.72
527.406	29800.16
527.607	29775.59
527.808	29918.95
528.01	29669.09
528.211	29871.84
528.412	30441.18
528.614	30430.94
528.815	30144.22
529.016	30656.21
529.218	30103.26
529.419	30392.03
529.62	30805.72
529.822	30228.19
530.023	30473.95
530.224	30916.31
530.425	30809.81
530.626	30748.37
530.828	30523.1
531.029	31432.4
531.23	30688.98
531.431	31051.47
531.632	31282.89
531.833	31194.83
532.035	30928.59
532.236	31065.81
532.437	31819.46
532.638	31397.58
532.839	31301.33
533.04	31635.14
533.241	31119.06
533.442	31477.45
533.643	31393.48
533.844	31438.54
534.045	31516.36
534.246	31563.47
534.447	31368.91
534.648	31743.69
534.849	31774.41
535.05	31352.52
535.251	31725.25
535.451	31434.44
535.652	31788.74
535.853	31629
536.054	31549.13
536.255	32014.02
536.456	31688.39
536.657	32175.81
536.857	31717.06
537.058	31667.91
537.259	31424.2
537.46	32003.78
537.66	31459.02
537.861	31530.7
538.062	31377.1
538.263	31727.3
538.463	31741.64
538.664	31635.14
538.865	31465.16
539.065	31872.71
539.266	31631.05
539.466	31956.68
539.667	31508.17
539.868	32106.18
540.068	31647.43
540.269	31510.22
540.469	32057.03
540.67	31608.52
540.87	31696.58
541.071	31766.21
541.271	31856.32
541.472	31960.77
541.672	31645.38
541.873	31712.97
542.073	31528.65
542.274	31889.09
542.474	31655.62
542.675	31653.58
542.875	32040.64
543.075	31680.2
543.276	31143.63
543.476	31508.17
543.676	31090.38
543.877	31835.84
544.077	31930.05
544.277	31569.61
544.478	32220.86
544.678	31733.45
544.878	31710.92
545.078	31532.75
545.279	31282.89
545.479	31235.79
545.679	31645.38
545.879	31436.49
546.079	31583.94
546.28	31612.62
546.48	31000.27
546.68	31641.29
546.88	31366.86
547.08	31536.84
547.28	31348.43
547.48	31413.96
547.68	31491.79
547.88	31286.99
548.081	31450.83
548.281	31323.85
548.481	31213.26
548.681	31710.92
548.881	31817.41
549.081	31117.01
549.28	31143.63
549.48	31600.33
549.68	31110.86
549.88	31700.68
550.08	31340.24
550.28	31092.43
550.48	30994.13
550.68	31362.76
550.88	31074
551.08	31184.59
551.279	31375.05
551.479	30990.03
551.679	31241.93
551.879	31583.94
552.079	31600.33
552.278	31067.86
552.478	31407.82
552.678	31151.82
552.878	31403.72
553.077	31153.87
553.277	30664.41
553.477	31284.94
553.676	31043.28
553.876	30955.22
554.076	30744.28
554.275	31004.37
554.475	30600.92
554.674	30965.46
554.874	31078.1
555.074	31100.62
555.273	31162.06
555.473	30961.36
555.672	30260.96
555.872	31030.99
556.071	30621.4
556.271	30824.15
556.47	30574.3
556.67	30592.73
556.869	30455.51
557.068	30897.88
557.268	30465.75
557.467	30416.6
557.667	30686.93
557.866	30318.3
558.065	30209.76
558.265	30119.65
558.464	30002.91
558.663	30514.91
558.863	29955.81
559.062	30297.82
559.261	29906.66
559.461	30355.16
559.66	29791.97
559.859	30011.1
560.058	29757.16
560.258	29740.77
560.457	29583.08
560.656	29961.95
560.855	29933.28
561.054	29908.71
561.253	29544.17
561.453	29617.89
561.652	29845.22
561.851	29669.09
562.05	28997.36
562.249	29171.44
562.448	29193.97
562.647	29161.2
562.846	29351.66
563.045	29308.65
563.244	28759.8
563.443	29464.3
563.642	28837.62
563.841	28985.07
564.04	28731.12
564.239	29224.68
564.438	28370.68
564.637	28638.97
564.836	28743.41
565.035	28491.51
565.234	28761.84
565.432	28493.56
565.631	28485.37
565.83	28346.11
566.029	28366.59
566.228	28108.54
566.427	28174.08
566.625	27975.42
566.824	27772.67
567.023	28165.88
567.222	27449.1
567.42	28225.28
567.619	27834.11
567.818	27827.97
568.016	27649.8
568.215	27965.18
568.414	27709.19
568.612	27760.39
568.811	27367.18
569.01	27447.05
569.208	26726.16
569.407	27488.01
569.605	26605.33
569.804	26765.07
570.002	26898.19
570.201	27252.49
570.4	26625.81
570.598	26543.89
570.797	26552.09
570.995	26459.93
571.193	26400.54
571.392	26646.29
571.59	26093.34
571.789	26224.41
571.987	26543.89
572.186	26171.16
572.384	25962.27
572.582	25888.54
572.781	26119.96
572.979	25593.64
573.177	25708.32
573.376	25937.69
573.574	25569.06
573.772	25974.56
573.971	25587.49
574.169	25235.24
574.367	25374.5
574.565	25528.1
574.763	25425.7
574.962	25401.13
575.16	24706.87
575.358	25022.25
575.556	24926
575.754	25077.55
575.952	24768.3
576.151	24991.53
576.349	24543.03
576.547	24665.91
576.745	24975.15
576.943	24917.81
577.141	24327.99
577.339	24592.18
577.537	24305.46
577.735	24493.88
577.933	24102.71
578.131	24532.79
578.329	24012.6
578.527	23920.45
578.725	23881.53
578.923	24049.47
579.121	24053.56
579.319	23760.7
579.516	23926.59
579.714	23623.49
579.912	23418.69
580.11	23437.13
580.308	23523.14
580.506	23451.46
580.704	23095.11
580.901	23465.8
581.099	23344.97
581.297	22904.65
581.495	22990.67
581.692	23422.79
581.89	23062.35
582.088	23261
582.285	23064.39
582.483	23197.51
582.681	22638.42
582.878	22619.99
583.076	22523.73
583.274	23025.48
583.471	22470.48
583.669	22558.55
583.866	22286.17
584.064	22409.04
584.262	22347.61
584.459	22587.22
584.657	22148.95
584.854	22171.48
585.052	21983.07
585.249	21974.88
585.447	22243.16
585.644	21579.62
585.841	21919.58
586.039	22112.09
586.236	21471.08
586.434	21526.37
586.631	21483.36
586.828	21708.64
587.026	21323.62
587.223	21141.35
587.42	21258.09
587.618	21405.54
587.815	21057.39
588.012	20868.97
588.21	20916.08
588.407	20731.76
588.604	20764.53
588.801	20725.61
588.999	20940.65
589.196	20862.83
589.393	20920.17
589.59	20625.26
589.787	20449.14
589.984	20518.77
590.182	20162.42
590.379	20709.23
590.576	20420.47
590.773	20299.64
590.97	20232.05
591.167	20492.15
591.364	19931
591.561	20119.42
591.758	19715.97
591.955	19824.51
592.152	20281.21
592.349	19677.05
592.546	20092.79
592.743	19742.59
592.94	19320.71
593.137	19611.52
593.334	19781.5
593.531	19328.9
593.727	19533.7
593.924	19505.03
594.121	19521.41
594.318	19335.04
594.515	19255.17
594.712	19273.6
594.908	19212.17
595.105	19263.36
595.302	18837.39
595.499	19210.12
595.696	18810.76
595.892	18755.47
596.089	18796.43
596.286	18886.54
596.482	18816.91
596.679	18757.52
596.876	18546.58
597.072	18272.15
597.269	18294.68
597.466	18288.53
597.662	18431.89
597.859	18253.72
598.055	18415.51
598.252	18087.83
598.448	18225.04
598.645	18024.34
598.841	18077.59
599.038	18155.41
599.234	18026.39
599.431	17762.2
599.627	17643.42
599.824	17760.16
600.02	17506.21
600.217	17659.81
600.413	17579.93
600.609	17559.45
600.806	17358.75
601.002	17659.81
601.198	17350.56
601.395	16986.02
601.591	17416.1
601.787	17385.38
601.984	17100.71
602.18	17323.94
602.376	17084.33
602.572	16893.86
602.769	16830.38
602.965	16990.12
603.161	16750.51
603.357	16639.92
603.553	16691.12
603.75	16709.55
603.946	16465.84
604.142	16809.9
604.338	16349.11
604.534	16543.66
604.73	16172.98
604.926	16287.67
605.122	16424.88
605.318	15994.81
605.514	16261.04
605.71	16248.75
605.906	16103.35
606.102	15943.61
606.298	15923.13
606.494	16076.73
606.69	15775.67
606.886	15962.04
607.082	15640.51
607.278	16084.92
607.474	15763.39
607.67	15734.71
607.866	15200.19
608.062	15986.61
608.257	15630.27
608.453	15357.89
608.649	15482.81
608.845	15212.48
609.041	15380.42
609.236	15306.69
609.432	15450.05
609.628	15501.25
609.824	15335.36
610.019	15370.18
610.215	15323.07
610.411	15241.15
610.606	15173.57
610.802	15312.83
610.998	15050.69
611.193	15306.69
611.389	15095.75
611.584	15044.55
611.78	14929.86
611.976	14714.83
612.171	15175.62
612.367	15075.27
612.562	14731.21
612.758	14555.08
612.953	14817.22
613.149	14852.04
613.344	14757.83
613.539	14960.58
613.735	14581.71
613.93	14843.85
614.126	14653.39
614.321	14696.39
614.517	14729.16
614.712	14526.41
614.907	14661.58
615.103	14575.56
615.298	14241.75
615.493	14774.22
615.688	14131.16
615.884	14530.51
616.079	14315.47
616.274	14251.99
616.47	14303.18
616.665	13965.27
616.86	14245.84
617.055	14321.62
617.25	14170.07
617.445	14159.83
617.641	13934.55
617.836	14125.01
618.031	13998.04
618.226	14288.85
618.421	13893.59
618.616	14092.24
618.811	13729.75
619.006	13819.86
619.201	13748.18
619.396	13912.02
619.591	13699.03
619.786	13643.74
619.981	13342.69
620.176	13694.94
620.371	13293.54
620.566	13256.67
620.761	13365.21
620.956	13277.15
621.151	13064.16
621.346	13244.38
621.541	12834.79
621.735	13168.61
621.93	12822.5
622.125	12865.51
622.32	12611.56
622.515	12885.99
622.709	12615.66
622.904	12531.69
623.099	12607.47
623.294	12759.02
623.488	12500.97
623.683	12552.17
623.878	12300.27
624.072	12224.5
624.267	12468.2
624.462	12105.71
624.656	11894.77
624.851	12113.91
625.046	11937.78
625.24	11894.77
625.435	11853.81
625.629	11902.97
625.824	11669.5
626.018	11751.42
626.213	11376.64
626.407	11782.13
626.602	11460.6
626.796	11511.8
626.991	11386.88
627.185	11327.49
627.38	11167.74
627.574	11055.11
627.768	11034.63
627.963	11003.91
628.157	10805.25
628.352	11061.25
628.546	10797.06
628.74	10676.23
628.935	10665.99
629.129	10483.72
629.323	10627.08
629.517	10657.8
629.712	10381.32
629.906	10227.73
630.1	10369.04
630.294	10174.48
630.489	10125.33
630.683	10395.66
630.877	10174.48
631.071	10061.84
631.265	10190.86
631.459	10141.71
631.653	10031.12
631.848	10178.58
632.042	10123.28
632.236	10047.51
632.43	9719.83
632.624	9732.12
632.818	9713.69
633.012	9609.24
633.206	9756.69
633.4	9435.16
633.594	9660.44
633.788	9396.25
633.982	9289.76
634.176	9392.16
634.369	9324.57
634.563	9117.73
634.757	9123.87
634.951	9230.37
635.145	9076.77
635.339	9148.45
635.533	8953.89
635.726	8978.47
635.92	8714.28
636.114	8718.37
636.308	8888.36
636.501	8726.57
636.695	8699.94
636.889	8792.1
637.083	8732.71
637.276	8497.19
637.47	8714.28
637.664	8445.99
637.857	8464.43
638.051	8409.13
638.244	8235.05
638.438	8280.11
638.632	8314.92
638.825	8327.21
639.019	8290.35
639.212	8060.98
639.406	8112.17
639.599	7977.01
639.793	7974.96
639.986	7856.18
640.18	7917.62
640.373	7739.44
640.567	7934
640.76	7718.96
640.954	7880.75
641.147	7610.42
641.34	7483.45
641.534	7710.77
641.727	7581.75
641.92	7700.53
642.114	7643.19
642.307	7391.29
642.5	7415.87
642.694	7239.74
642.887	7370.81
643.08	7458.87
643.273	7319.61
643.467	7170.11
643.66	7202.88
643.853	7352.38
644.046	6963.26
644.239	7067.71
644.432	7030.85
644.626	7024.7
644.819	6991.94
645.012	6955.07
645.205	7039.04
645.398	6924.35
645.591	6793.28
645.784	6826.05
645.977	6600.77
646.17	6848.58
646.363	6606.92
646.556	6586.44
646.749	6813.76
646.942	6572.1
647.135	6604.87
647.328	6467.66
647.521	6373.45
647.714	6455.37
647.907	6320.2
648.099	6484.04
648.292	6383.69
648.485	6223.95
648.678	6275.15
648.871	6219.85
649.064	6193.23
649.256	6039.63
649.449	6008.91
649.642	6195.28
649.835	6023.25
650.027	6096.97
650.22	6039.63
650.413	6049.87
650.605	5951.57
650.798	5886.03
650.991	5787.73
651.183	5883.98
651.376	5609.56
651.568	5787.73
651.761	5697.62
651.954	5783.63
652.146	5904.46
652.339	5607.51
652.531	5652.56
652.724	5705.81
652.916	5517.4
653.109	5539.93
653.301	5521.49
653.494	5427.29
653.686	5294.17
653.879	5627.99
654.071	5376.09
654.263	5259.35
654.456	5388.38
654.648	5445.72
654.84	5281.88
655.033	5396.57
655.225	5341.27
655.417	5116
655.61	5083.23
655.802	5136.48
655.994	5210.2
656.186	5202.01
656.379	5034.08
656.571	5111.9
656.763	5019.74
656.955	5146.72
657.148	4946.02
657.34	5005.41
657.532	4884.58
657.724	4941.92
657.916	4843.62
658.108	4763.75
658.3	4796.51
658.492	4780.13
658.684	4851.81
658.876	4735.07
659.068	4634.72
659.26	4659.3
659.452	4698.21
659.644	4638.82
659.836	4491.37
660.028	4526.18
660.22	4673.64
660.412	4505.7
660.604	4550.76
660.796	4491.37
660.988	4487.27
661.18	4442.21
661.372	4399.21
661.563	4214.89
661.755	4401.26
661.947	4460.65
662.139	4300.91
662.331	4155.5
662.522	4178.03
662.714	4354.15
662.906	4188.27
663.097	4188.27
663.289	4153.45
663.481	4130.92
663.673	4122.73
663.864	4143.21
664.056	4124.78
664.247	4094.06
664.439	3928.17
664.631	4137.07
664.822	4141.16
665.014	4046.96
665.205	4051.05
665.397	3956.85
665.588	3895.41
665.78	3842.16
665.971	4032.62
666.163	3973.23
666.354	3987.57
666.546	3844.21
666.737	3723.38
666.929	3799.15
667.12	3983.47
667.311	3833.97
667.503	3643.51
667.694	3723.38
667.885	3655.79
668.077	3731.57
668.268	3471.48
668.459	3733.62
668.651	3584.12
668.842	3596.4
669.033	3668.08
669.224	3487.86
669.416	3584.12
669.607	3582.07
669.798	3465.33
669.989	3616.88
670.18	3612.79
670.371	3496.05
670.563	3434.61
670.754	3455.09
670.945	3229.82
671.136	3508.34
671.327	3479.67
671.518	3362.94
671.709	3313.78
671.9	3334.26
672.091	3285.11
672.282	3332.22
672.473	3405.94
672.664	3254.39
672.855	3297.4
673.046	3117.18
673.237	3203.19
673.428	3240.06
673.619	3330.17
673.809	3285.11
674	3100.8
674.191	3131.51
674.382	3170.43
674.573	3127.42
674.764	3192.95
674.954	3184.76
675.145	2963.58
675.336	3205.24
675.527	3158.14
675.717	3033.21
675.908	3100.8
676.099	2949.25
676.289	3033.21
676.48	3074.17
676.671	3047.55
676.861	2967.68
677.052	3014.78
677.243	2916.48
677.433	2920.57
677.624	2889.85
677.814	2975.87
678.005	2971.77
678.195	3068.03
678.386	2986.11
678.576	2826.37
678.767	2963.58
678.957	2891.9
679.148	2953.34
679.338	2771.07
679.529	2871.42
679.719	2719.87
679.909	2773.12
680.1	2930.81
680.29	2869.37
680.481	2896
680.671	2771.07
680.861	2820.22
681.052	2787.46
681.242	2830.46
681.432	2754.69
681.622	2723.97
681.813	2605.19
682.003	2783.36
682.193	2756.74
682.383	2773.12
682.573	2773.12
682.764	2672.77
682.954	2771.07
683.144	2756.74
683.334	2820.22
683.524	2607.23
683.714	2646.15
683.904	2713.73
684.094	2738.3
684.284	2658.43
684.474	2728.07
684.664	2734.21
684.854	2707.59
685.044	2588.8
685.234	2539.65
685.424	2558.08
685.614	2605.19
685.804	2562.18
685.994	2560.13
686.184	2637.95
686.374	2463.88
686.564	2508.93
686.753	2498.69
686.943	2590.85
687.133	2361.48
687.323	2496.64
687.513	2398.34
687.702	2510.98
687.892	2443.4
688.082	2437.25
688.272	2527.36
688.461	2517.12
688.651	2490.5
688.841	2396.29
689.03	2363.53
689.22	2556.04
689.41	2459.78
689.599	2271.37
689.789	2351.24
689.979	2500.74
690.168	2273.42
690.358	2412.68
690.547	2263.18
690.737	2379.91
690.926	2412.68
691.116	2259.08
691.305	2281.61
691.495	2259.08
691.684	2232.46
691.874	2316.42
692.063	2345.09
692.252	2250.89
692.442	2228.36
692.631	2273.42
692.82	2199.69
693.01	2189.45
693.199	2248.84
693.388	2171.02
693.578	2214.02
693.767	2234.5
693.956	2121.87
694.146	2187.4
694.335	2218.12
694.524	2095.24
694.713	2259.08
694.902	2148.49
695.092	2171.02
695.281	2199.69
695.47	2211.98
695.659	2166.92
695.848	2238.6
696.037	2142.35
696.226	2113.67
696.415	2054.28
696.604	2087.05
696.793	2101.39
696.982	2166.92
697.171	2134.15
697.36	2078.86
697.549	2074.76
697.738	2117.77
697.927	2109.58
698.116	2082.95
698.305	2064.52
698.494	2037.9
698.683	2105.48
698.872	2132.11
699.061	2072.72
699.25	2166.92
699.438	2076.81
699.627	2191.5
699.816	2017.42
700.005	2078.86
700.193	2037.9
700.382	2113.67
700.571	2029.71
700.76	2076.81
700.948	2142.35
701.137	2164.87
701.326	2085
701.514	1990.8
701.703	2117.77
701.892	2048.14
702.08	2009.23
702.269	2021.52
702.457	1921.17
702.646	1972.36
702.834	1978.51
703.023	2035.85
703.212	2130.06
703.4	1964.17
703.589	1982.6
703.777	1984.65
703.965	2005.13
704.154	2107.53
704.342	2097.29
704.531	1951.88
704.719	2125.96
704.907	2091.15
705.096	1902.73
705.284	2060.43
705.472	1998.99
705.661	2011.28
705.849	2025.61
706.037	2060.43
706.226	1988.75
706.414	2087.05
706.602	2060.43
706.79	1951.88
706.979	1958.03
707.167	2007.18
707.355	2058.38
707.543	2042
707.731	1949.84
707.919	1943.69
708.107	1949.84
708.296	1972.36
708.484	1996.94
708.672	2011.28
708.86	2068.62
709.048	1994.89
709.236	2027.66
709.424	1986.7
709.612	1925.26
709.8	2082.95
709.988	1915.02
710.176	1990.8
710.364	2035.85
710.551	2072.72
710.739	1962.12
710.927	2025.61
711.115	1998.99
711.303	2009.23
711.491	2037.9
711.679	1884.3
711.866	1990.8
712.054	2060.43
712.242	1996.94
712.43	2068.62
712.617	2095.24
712.805	1984.65
712.993	2046.09
713.181	1960.08
713.368	1908.88
713.556	1925.26
713.744	1958.03
713.931	2037.9
714.119	1925.26
714.306	1955.98
714.494	2027.66
714.682	2003.08
714.869	1910.93
715.057	2013.32
715.244	1945.74
715.432	2050.19
715.619	1980.56
715.807	1955.98
715.994	2001.04
716.182	1917.07
716.369	2007.18
716.556	1904.78
716.744	1998.99
716.931	1978.51
717.119	1982.6
717.306	1894.54
717.493	1982.6
717.681	1990.8
717.868	1892.49
718.055	1988.75
718.242	1978.51
718.43	1917.07
718.617	1816.72
718.804	1941.65
718.991	1849.49
719.179	1851.53
719.366	1984.65
719.553	1990.8
719.74	1966.22
719.927	1863.82
720.114	1892.49
720.301	1966.22
720.488	1904.78
720.676	1964.17
720.863	1912.97
721.05	1884.3
721.237	1904.78
721.424	1939.6
721.611	1962.12
721.798	1845.39
721.985	1902.73
722.172	1869.97
722.358	1841.29
722.545	1867.92
722.732	1790.1
722.919	1923.21
723.106	1974.41
723.293	2042
723.48	1908.88
723.667	1847.44
723.853	1908.88
724.04	1798.29
724.227	1904.78
724.414	1831.05
724.6	1958.03
724.787	1982.6
724.974	1947.79
725.161	1902.73
725.347	1865.87
725.534	1931.41
725.72	1783.95
725.907	1865.87
726.094	1974.41
726.28	1869.97
726.467	1833.1
726.653	1929.36
726.84	1863.82
727.027	1888.4
727.213	1896.59
727.4	1912.97
727.586	1888.4
727.773	1892.49
727.959	1892.49
728.145	1890.45
728.332	1886.35
728.518	1757.33
728.705	1929.36
728.891	1812.62
729.077	1921.17
729.264	1835.15
729.45	1761.42
729.636	1951.88
729.823	1923.21
730.009	1759.38
730.195	1880.21
730.382	1773.71
730.568	1822.86
730.754	1814.67
730.94	1835.15
731.126	1863.82
731.313	1767.57
731.499	1732.75
731.685	1865.87
731.871	1867.92
732.057	1831.05
732.243	1736.85
732.429	1943.69
732.615	1880.21
732.801	1749.14
732.987	1765.52
733.173	1781.9
733.359	1839.25
733.545	1880.21
733.731	1894.54
733.917	1806.48
734.103	1794.19
734.289	1802.38
734.475	1857.68
734.661	1794.19
734.847	1810.58
735.033	1833.1
735.219	1796.24
735.404	1798.29
735.59	1794.19
735.776	1699.98
735.962	1714.32
736.148	1779.86
736.333	1786
736.519	1831.05
736.705	1831.05
736.89	1769.62
737.076	1812.62
737.262	1777.81
737.447	1773.71
737.633	1761.42
737.819	1736.85
738.004	1730.7
738.19	1693.84
738.375	1704.08
738.561	1755.28
738.747	1689.74
738.932	1749.14
739.118	1794.19
739.303	1575.06
739.489	1706.13
739.674	1626.26
739.859	1730.7
740.045	1751.18
740.23	1656.98
740.416	1652.88
740.601	1691.79
740.786	1667.22
740.972	1650.83
741.157	1734.8
741.342	1589.39
741.528	1708.18
741.713	1597.59
741.898	1716.37
742.084	1585.3
742.269	1642.64
742.454	1570.96
742.639	1597.59
742.824	1654.93
743.01	1667.22
743.195	1706.13
743.38	1515.67
743.565	1599.63
743.75	1634.45
743.935	1579.15
744.12	1585.3
744.305	1495.19
744.49	1554.58
744.675	1534.1
744.86	1568.91
745.045	1579.15
745.23	1544.34
745.415	1538.2
745.6	1478.8
745.785	1525.91
745.97	1517.72
746.155	1421.46
746.34	1493.14
746.525	1423.51
746.71	1595.54
746.895	1491.09
747.079	1419.41
747.264	1347.73
747.449	1405.08
747.634	1366.17
747.819	1484.95
748.003	1394.84
748.188	1458.32
748.373	1415.32
748.557	1411.22
748.742	1450.13
748.927	1513.62
749.111	1294.49
749.296	1405.08
749.481	1380.5
749.665	1267.86
749.85	1298.58
750.034	1364.12
750.219	1400.98
750.404	1366.17
750.588	1314.97
750.773	1362.07
750.957	1216.66
751.141	1296.53
751.326	1292.44
751.51	1212.57
751.695	1210.52
751.879	1257.62
752.064	1321.11
752.248	1253.53
752.432	1220.76
752.617	1136.79
752.801	1231
752.985	1237.14
753.17	1228.95
753.354	1200.28
753.538	1161.37
753.722	1112.22
753.907	1144.99
754.091	1077.4
754.275	1038.49
754.459	1202.33
754.643	1144.99
754.828	1149.08
755.012	1163.42
755.196	1101.98
755.38	1124.51
755.564	1155.23
755.748	1065.11
755.932	1030.3
756.116	1091.74
756.3	1065.11
756.484	1030.3
756.668	1015.96
756.852	997.53
757.036	1110.17
757.22	1079.45
757.404	977.05
757.588	1011.87
757.772	1020.06
757.956	1046.68
758.14	995.48
758.323	948.38
758.507	987.29
758.691	991.39
758.875	1040.54
759.059	966.81
759.242	1011.87
759.426	964.76
759.61	1026.2
759.794	989.34
759.977	960.67
760.161	1007.77
760.345	985.24
760.528	972.96
760.712	979.1
760.895	944.28
761.079	839.84
761.263	833.69
761.446	856.22
761.63	860.32
761.813	907.42
761.997	874.65
762.18	813.21
762.364	860.32
762.547	864.41
762.731	964.76
762.914	798.88
763.098	878.75
763.281	882.85
763.464	823.45
763.648	919.71
763.831	901.28
764.015	796.83
764.198	884.89
764.381	839.84
764.564	788.64
764.748	813.21
764.931	891.04
765.114	796.83
765.297	850.08
765.481	882.85
765.664	829.6
765.847	819.36
766.03	807.07
766.213	780.45
766.397	854.17
766.58	841.89
766.763	745.63
766.946	825.5
767.129	755.87
767.312	762.02
767.495	841.89
767.678	798.88
767.861	802.97
768.044	762.02
768.227	706.72
768.41	676
768.593	805.02
768.776	704.67
768.959	745.63
769.142	831.65
769.324	796.83
769.507	780.45
769.69	716.96
769.873	731.3
770.056	702.62
770.239	649.38
770.421	698.53
770.604	716.96
770.787	764.06
770.97	700.58
771.152	678.05
771.335	665.76
771.518	673.95
771.7	702.62
771.883	725.15
772.066	663.71
772.248	667.81
772.431	708.77
772.613	659.62
772.796	721.06
772.978	676
773.161	757.92
773.343	669.86
773.526	696.48
773.708	630.95
773.891	667.81
774.073	731.3
774.256	612.51
774.438	721.06
774.621	628.9
774.803	606.37
774.985	653.47
775.168	571.55
775.35	589.99
775.532	549.03
775.715	637.09
775.897	563.36
776.079	651.42
776.261	606.37
776.444	614.56
776.626	540.83
776.808	553.12
776.99	669.86
777.173	503.97
777.355	628.9
777.537	573.6
777.719	583.84
777.901	604.32
778.083	510.11
778.265	524.45
778.447	589.99
778.629	544.93
778.811	518.31
778.993	610.47
779.175	585.89
779.357	532.64
779.539	518.31
779.721	485.54
779.903	497.83
780.085	555.17
780.267	467.11
780.449	465.06
780.631	438.44
780.812	639.14
780.994	422.05
781.176	483.49
781.358	499.88
781.54	479.4
781.721	463.01
781.903	411.81
782.085	508.07
782.267	463.01
782.448	485.54
782.63	485.54
782.812	491.68
782.993	467.11
783.175	454.82
783.357	444.58
783.538	450.72
783.72	381.09
783.901	458.92
784.083	430.24
784.264	409.76
784.446	475.3
784.627	350.37
784.809	442.53
784.99	401.57
785.172	358.57
785.353	434.34
785.535	436.39
785.716	452.77
785.897	350.37
786.079	452.77
786.26	385.19
786.441	424.1
786.623	389.28
786.804	309.41
786.985	448.68
787.167	307.37
787.348	372.9
787.529	420
787.71	428.2
787.891	387.24
788.073	327.85
788.254	254.12
788.435	350.37
788.616	387.24
788.797	313.51
788.978	350.37
789.159	307.37
789.34	422.05
789.522	356.52
789.703	358.57
789.884	348.33
790.065	401.57
790.246	391.33
790.427	233.64
790.607	325.8
790.788	321.7
790.969	278.69
791.15	282.79
791.331	305.32
791.512	305.32
791.693	266.41
791.874	309.41
792.054	405.67
792.235	329.89
792.416	293.03
792.597	276.65
792.778	272.55
792.958	317.61
793.139	293.03
793.32	319.65
793.5	233.64
793.681	270.5
793.862	256.17
794.042	305.32
794.223	235.69
794.404	207.02
794.584	268.45
794.765	284.84
794.945	174.25
795.126	260.26
795.306	239.78
795.487	256.17
795.667	268.45
795.848	262.31
796.028	241.83
796.209	303.27
796.389	286.89
796.57	245.93
796.75	192.68
796.93	297.13
797.111	286.89
797.291	207.02
797.471	258.21
797.652	227.5
797.832	225.45
798.012	233.64
798.192	186.54
798.373	229.54
798.553	227.5
798.733	280.74
798.913	260.26
799.093	213.16
799.274	231.59
799.454	233.64
799.634	272.55
799.814	221.35
799.994	217.26
800.174	313.51
800.354	202.92
800.534	213.16
800.714	241.83
800.894	233.64
801.074	229.54
801.254	258.21
801.434	159.91
801.614	213.16
801.794	262.31
801.974	555.17
802.154	213.16
802.334	168.1
802.514	151.72
802.693	207.02
802.873	223.4
803.053	280.74
803.233	250.02
803.413	215.21
803.592	221.35
803.772	139.43
803.952	170.15
804.131	184.49
804.311	276.65
804.491	178.34
804.67	192.68
804.85	123.05
805.03	211.11
805.209	200.87
805.389	219.3
805.568	180.39
805.748	184.49
805.928	170.15
806.107	184.49
806.287	112.81
806.466	143.53
806.646	198.82
806.825	125.1
807.004	211.11
807.184	151.72
807.363	155.82
807.543	143.53
807.722	166.06
807.901	190.63
808.081	176.3
808.26	57.51
808.439	192.68
808.619	159.91
808.798	151.72
808.977	73.9
809.156	168.1
809.336	110.76
809.515	127.14
809.694	135.34
809.873	127.14
810.052	198.82
810.231	180.39
810.411	94.38
810.59	172.2
810.769	75.95
810.948	129.19
811.127	135.34
811.306	118.95
811.485	172.2
811.664	182.44
811.843	155.82
812.022	149.67
812.201	180.39
812.38	118.95
812.559	92.33
812.737	73.9
812.916	147.62
813.095	147.62
813.274	135.34
813.453	166.06
813.632	178.34
813.811	194.73
813.989	135.34
814.168	84.14
814.347	67.75
814.526	92.33
814.704	82.09
814.883	237.74
815.062	161.96
815.24	110.76
815.419	98.47
815.598	166.06
815.776	28.84
815.955	45.23
816.133	159.91
816.312	168.1
816.49	110.76
816.669	71.85
816.847	61.61
817.026	69.8
817.204	141.48
817.383	176.3
817.561	102.57
817.74	174.25
817.918	143.53
818.097	112.81
818.275	80.04
818.453	114.86
818.632	125.1
818.81	123.05
818.988	133.29
819.167	157.86
819.345	139.43
819.523	96.43
819.701	67.75
819.879	47.27
820.058	67.75
820.236	100.52
820.414	147.62
820.592	80.04
820.77	147.62
820.948	141.48
821.127	112.81
821.305	168.1
821.483	108.71
821.661	139.43
821.839	63.66
822.017	131.24
822.195	110.76
822.373	127.14
822.551	57.51
822.729	73.9
822.907	80.04
823.085	123.05
823.262	82.09
823.44	106.67
823.618	18.6
823.796	155.82
823.974	55.47
824.152	28.84
824.329	112.81
824.507	104.62
824.685	75.95
824.863	137.38
825.04	102.57
825.218	118.95
825.396	96.43
825.574	73.9
825.751	75.95
825.929	24.75
826.107	67.75
826.284	75.95
826.462	45.23
826.639	94.38
826.817	104.62
826.994	86.19
827.172	65.71
827.349	100.52
827.527	100.52
827.704	67.75
827.882	39.08
828.059	90.28
828.237	98.47
828.414	121
828.591	61.61
828.769	155.82
828.946	57.51
829.124	55.47
829.301	28.84
829.478	131.24
829.655	49.32
829.833	184.49
830.01	4.27
830.187	43.18
830.364	24.75
830.542	65.71
830.719	98.47
830.896	129.19
831.073	100.52
831.25	112.81
831.427	110.76
831.604	92.33
831.782	69.8
831.959	114.86
832.136	63.66
832.313	55.47
832.49	94.38
832.667	114.86
832.844	59.56
833.021	114.86
833.198	53.42
833.374	41.13
833.551	16.55
833.728	65.71
833.905	114.86
834.082	49.32
834.259	51.37
834.436	84.14
834.612	39.08
834.789	69.8
834.966	104.62
835.143	82.09
835.319	24.75
835.496	92.33
835.673	12.46
835.85	104.62
836.026	16.55
836.203	53.42
836.38	41.13
836.556	71.85
836.733	-22.36
836.909	129.19
837.086	53.42
837.262	37.03
837.439	12.46
837.616	4.27
837.792	28.84
837.968	12.46
838.145	61.61
838.321	-5.97
838.498	20.65
838.674	100.52
838.851	49.32
839.027	71.85
839.203	-30.55
839.38	86.19
839.556	65.71
839.732	90.28
839.909	80.04
840.085	39.08
840.261	-14.17
840.437	100.52
840.614	-10.07
840.79	65.71
840.966	75.95
841.142	145.58
841.318	69.8
841.494	22.7
841.671	10.41
841.847	39.08
842.023	24.75
842.199	135.34
842.375	2.22
842.551	14.51
842.727	65.71
842.903	71.85
843.079	57.51
843.255	84.14
843.431	43.18
843.607	16.55
843.783	61.61
843.959	51.37
844.134	65.71
844.31	102.57
844.486	41.13
844.662	49.32
844.838	59.56
845.013	39.08
845.189	39.08
845.365	159.91
845.541	94.38
845.716	8.36
845.892	37.03
846.068	67.75
846.244	-20.31
846.419	-16.21
846.595	18.6
846.77	61.61
846.946	114.86
847.122	77.99
847.297	53.42
847.473	43.18
847.648	28.84
847.824	77.99
847.999	39.08
848.175	59.56
848.35	-22.36
848.526	71.85
848.701	59.56
848.876	12.46
849.052	14.51
849.227	4.27
849.403	16.55
849.578	37.03
849.753	2.22
849.929	10.41
850.104	69.8
850.279	28.84
850.454	-10.07
850.63	0.17
850.805	-32.6
850.98	-36.69
851.155	-8.02
851.33	65.71
851.505	14.51
851.681	86.19
851.856	-28.5
852.031	-5.97
852.206	51.37
852.381	6.31
852.556	86.19
852.731	55.47
852.906	-16.21
853.081	67.75
853.256	53.42
853.431	-44.88
853.606	12.46
853.781	-8.02
853.956	2.22
854.131	-22.36
854.305	63.66
854.48	71.85
854.655	-16.21
854.83	65.71
855.005	-46.93
855.18	30.89
855.354	45.23
855.529	-14.17
855.704	20.65
855.879	69.8
856.053	55.47
856.228	51.37
856.403	-40.79
856.577	8.36
856.752	6.31
856.926	94.38
857.101	22.7
857.276	20.65
857.45	-1.88
857.625	73.9
857.799	53.42
857.974	-3.93
858.148	2.22
858.323	67.75
858.497	-8.02
858.672	51.37
858.846	-26.45
859.02	32.94
859.195	-8.02
859.369	80.04
859.543	2.22
859.718	37.03
859.892	53.42
860.066	-71.51
860.241	67.75
860.415	77.99
860.589	16.55
860.763	10.41
860.938	-8.02
861.112	77.99
861.286	26.79
861.46	41.13
861.634	28.84
861.808	10.41
861.982	0.17
862.157	82.09
862.331	-26.45
862.505	51.37
862.679	-61.27
862.853	-16.21
863.027	71.85
863.201	90.28
863.375	4.27
863.549	69.8
863.722	43.18
863.896	51.37
864.07	-36.69
864.244	26.79
864.418	73.9
864.592	26.79
864.766	90.28
864.939	43.18
865.113	-8.02
865.287	77.99
865.461	26.79
865.634	73.9
865.808	32.94
865.982	49.32
866.156	-1.88
866.329	-40.79
866.503	-10.07
866.676	-3.93
866.85	30.89
867.024	37.03
867.197	-12.12
867.371	73.9
867.544	-3.93
867.718	-48.98
867.891	-36.69
868.065	71.85
868.238	-1.88
868.412	20.65
868.585	-8.02
868.759	-8.02
868.932	28.84
869.105	6.31
869.279	-3.93
869.452	-38.74
869.625	-8.02
869.799	-8.02
869.972	20.65
870.145	47.27
870.319	53.42
870.492	14.51
870.665	43.18
870.838	45.23
871.011	-57.17
871.185	16.55
871.358	63.66
871.531	53.42
871.704	-44.88
871.877	61.61
872.05	-26.45
872.223	-44.88
872.396	-22.36
872.569	0.17
872.742	-16.21
872.915	55.47
873.088	-26.45
873.261	-5.97
873.434	-12.12
873.607	-1.88
873.78	22.7
873.953	10.41
874.126	71.85
874.299	47.27
874.471	34.99
874.644	37.03
874.817	45.23
874.99	20.65
875.163	41.13
875.335	-1.88
875.508	26.79
875.681	73.9
875.853	18.6
876.026	-5.97
876.199	26.79
876.371	80.04
876.544	10.41
876.717	-69.46
876.889	24.75
877.062	-8.02
877.234	24.75
877.407	14.51
877.579	20.65
877.752	92.33
877.924	24.75
878.097	24.75
878.269	137.38
878.442	-44.88
878.614	49.32
878.786	18.6
878.959	26.79
879.131	37.03
879.303	-57.17
879.476	-5.97
879.648	14.51
879.82	75.95
879.993	-8.02
880.165	41.13
880.337	0.17
880.509	61.61
880.681	0.17
880.854	-32.6
881.026	71.85
881.198	37.03
881.37	39.08
881.542	55.47
881.714	20.65
881.886	-51.03
882.058	-38.74
882.23	22.7
882.402	30.89
882.574	0.17
882.746	-20.31
882.918	53.42
883.09	4.27
883.262	65.71
883.434	61.61
883.606	-32.6
883.778	47.27
883.95	-16.21
884.122	4.27
884.293	10.41
884.465	-10.07
884.637	22.7
884.809	-26.45
884.98	-18.26
885.152	-16.21
885.324	18.6
885.496	8.36
885.667	-26.45
885.839	32.94
886.011	-5.97
886.182	0.17
886.354	28.84
886.525	28.84
886.697	8.36
886.869	37.03
887.04	16.55
887.212	75.95
887.383	6.31
887.555	53.42
887.726	45.23
887.897	-63.32
888.069	32.94
888.24	-22.36
888.412	28.84
888.583	30.89
888.754	90.28
888.926	-3.93
889.097	10.41
889.268	0.17
889.44	-22.36
889.611	-71.51
889.782	-5.97
889.953	16.55
890.125	61.61
890.296	28.84
890.467	55.47
890.638	0.17
890.809	39.08
890.98	45.23
891.151	94.38
891.323	65.71
891.494	-16.21
891.665	-36.69
891.836	-1.88
892.007	32.94
892.178	10.41
892.349	-34.64
892.52	-12.12
892.691	65.71
892.862	22.7
893.032	20.65
893.203	-18.26
893.374	24.75
893.545	0.17
893.716	-36.69
893.887	30.89
894.057	4.27
894.228	8.36
894.399	-14.17
894.57	4.27
894.74	6.31
894.911	37.03
895.082	32.94
895.253	-16.21
895.423	4.27
895.594	-26.45
895.764	-5.97
895.935	2.22
896.106	16.55
896.276	-12.12
896.447	59.56
896.617	55.47
896.788	-16.21
896.958	-5.97
897.129	-44.88
897.299	-20.31
897.47	-24.4
897.64	2.22
897.81	12.46
897.981	-89.94
898.151	-26.45
898.322	0.17
898.492	0.17
898.662	-87.89
898.832	-12.12
899.003	65.71
899.173	-40.79
899.343	6.31
899.513	-59.22
