Data from USB4F104151__100__11-07-01-799.txt Node

Date: Wed Mar 12 11:07:01 EDT 2025
User: louis
Spectrometer: USB4F10415
Trigger mode: 4
Integration Time (sec): 2.000000E-2
Scans to average: 1
Electric dark correction enabled: true
Nonlinearity correction enabled: false
Boxcar width: 0
XAxis mode: Wavelengths
Number of Pixels in Spectrum: 3648
>>>>>Begin Spectral Data<<<<<
178.204	-102.06
178.424	-102.06
178.644	-102.06
178.864	-61.1
179.084	-57
179.304	-36.52
179.524	2.39
179.744	-26.28
179.964	41.3
180.184	8.53
180.404	-34.47
180.624	-44.71
180.844	18.77
181.064	43.35
181.283	8.53
181.503	6.49
181.723	12.63
181.943	39.25
182.163	51.54
182.383	-7.85
182.602	65.88
182.822	12.63
183.042	22.87
183.262	-7.85
183.482	10.58
183.701	-18.09
183.921	-32.43
184.141	-13.99
184.361	82.26
184.58	31.06
184.8	8.53
185.02	16.73
185.239	88.4
185.459	72.02
185.679	55.64
185.898	10.58
186.118	22.87
186.338	22.87
186.557	33.11
186.777	24.92
186.997	-11.95
187.216	35.16
187.436	61.78
187.655	-18.09
187.875	-5.8
188.095	29.01
188.314	49.49
188.534	37.2
188.753	24.92
188.973	-36.52
189.192	-26.28
189.412	-1.71
189.631	14.68
189.851	-5.8
190.07	61.78
190.29	-3.75
190.509	-3.75
190.729	76.12
190.948	24.92
191.168	84.31
191.387	-24.23
191.607	-46.76
191.826	-7.85
192.045	86.36
192.265	63.83
192.484	63.83
192.704	57.68
192.923	2.39
193.142	2.39
193.362	18.77
193.581	90.45
193.8	22.87
194.02	29.01
194.239	22.87
194.458	31.06
194.678	47.44
194.897	47.44
195.116	22.87
195.335	-16.04
195.555	63.83
195.774	22.87
195.993	67.92
196.212	51.54
196.432	-11.95
196.651	37.2
196.87	-67.24
197.089	57.68
197.308	33.11
197.528	0.34
197.747	-32.43
197.966	53.59
198.185	14.68
198.404	-77.48
198.623	41.3
198.842	12.63
199.062	18.77
199.281	55.64
199.5	-7.85
199.719	61.78
199.938	41.3
200.157	39.25
200.376	-26.28
200.595	18.77
200.814	55.64
201.033	-5.8
201.252	57.68
201.471	53.59
201.69	-36.52
201.909	57.68
202.128	33.11
202.347	26.96
202.566	-20.14
202.785	-16.04
203.004	-1.71
203.223	49.49
203.442	125.27
203.661	-34.47
203.879	29.01
204.098	-28.33
204.317	41.3
204.536	20.82
204.755	-11.95
204.974	29.01
205.193	-24.23
205.411	35.16
205.63	26.96
205.849	16.73
206.068	-32.43
206.287	-1.71
206.505	33.11
206.724	-13.99
206.943	-24.23
207.162	8.53
207.381	33.11
207.599	22.87
207.818	-52.91
208.037	61.78
208.255	-5.8
208.474	-28.33
208.693	-9.9
208.911	0.34
209.13	35.16
209.349	31.06
209.567	-13.99
209.786	78.16
210.005	-36.52
210.223	69.97
210.442	-42.67
210.661	51.54
210.879	41.3
211.098	88.4
211.316	4.44
211.535	74.07
211.753	-24.23
211.972	92.5
212.191	84.31
212.409	49.49
212.628	33.11
212.846	29.01
213.065	10.58
213.283	57.68
213.502	55.64
213.72	59.73
213.938	18.77
214.157	-16.04
214.375	22.87
214.594	2.39
214.812	74.07
215.031	29.01
215.249	-7.85
215.467	51.54
215.686	18.77
215.904	31.06
216.122	31.06
216.341	35.16
216.559	-24.23
216.778	45.4
216.996	76.12
217.214	39.25
217.432	53.59
217.651	-59.05
217.869	-16.04
218.087	-13.99
218.306	-16.04
218.524	35.16
218.742	41.3
218.96	88.4
219.179	31.06
219.397	10.58
219.615	80.21
219.833	53.59
220.051	-13.99
220.27	37.2
220.488	29.01
220.706	12.63
220.924	-69.29
221.142	67.92
221.36	47.44
221.578	57.68
221.796	112.98
222.015	53.59
222.233	-22.19
222.451	55.64
222.669	18.77
222.887	37.2
223.105	115.03
223.323	55.64
223.541	12.63
223.759	-34.47
223.977	31.06
224.195	59.73
224.413	96.6
224.631	-13.99
224.849	29.01
225.067	59.73
225.285	-48.81
225.503	4.44
225.721	18.77
225.939	0.34
226.157	37.2
226.375	80.21
226.592	-3.75
226.81	6.49
227.028	-30.38
227.246	84.31
227.464	-22.19
227.682	67.92
227.9	16.73
228.117	72.02
228.335	-32.43
228.553	51.54
228.771	-42.67
228.989	-7.85
229.206	24.92
229.424	69.97
229.642	-16.04
229.86	39.25
230.077	33.11
230.295	-11.95
230.513	37.2
230.731	39.25
230.948	16.73
231.166	39.25
231.384	-11.95
231.601	69.97
231.819	63.83
232.037	-22.19
232.254	-77.48
232.472	57.68
232.689	-9.9
232.907	-28.33
233.125	12.63
233.342	12.63
233.56	82.26
233.777	18.77
233.995	92.5
234.213	37.2
234.43	29.01
234.648	-36.52
234.865	65.88
235.083	6.49
235.3	26.96
235.518	14.68
235.735	59.73
235.953	55.64
236.17	-46.76
236.388	22.87
236.605	45.4
236.822	41.3
237.04	-20.14
237.257	-3.75
237.475	-7.85
237.692	8.53
237.909	0.34
238.127	-5.8
238.344	104.79
238.562	14.68
238.779	49.49
238.996	22.87
239.214	16.73
239.431	43.35
239.648	-9.9
239.865	24.92
240.083	43.35
240.3	-3.75
240.517	-61.1
240.735	31.06
240.952	-11.95
241.169	39.25
241.386	20.82
241.603	37.2
241.821	-52.91
242.038	55.64
242.255	16.73
242.472	-16.04
242.689	29.01
242.907	39.25
243.124	-50.86
243.341	37.2
243.558	-5.8
243.775	53.59
243.992	20.82
244.209	47.44
244.426	59.73
244.643	35.16
244.86	67.92
245.078	4.44
245.295	63.83
245.512	43.35
245.729	49.49
245.946	74.07
246.163	22.87
246.38	53.59
246.597	39.25
246.814	82.26
247.031	-50.86
247.248	16.73
247.464	37.2
247.681	24.92
247.898	20.82
248.115	43.35
248.332	-28.33
248.549	72.02
248.766	12.63
248.983	53.59
249.2	29.01
249.417	22.87
249.633	29.01
249.85	0.34
250.067	4.44
250.284	33.11
250.501	16.73
250.717	41.3
250.934	0.34
251.151	35.16
251.368	78.16
251.585	51.54
251.801	65.88
252.018	37.2
252.235	-3.75
252.451	-44.71
252.668	61.78
252.885	78.16
253.102	51.54
253.318	33.11
253.535	-32.43
253.752	-18.09
253.968	74.07
254.185	29.01
254.401	0.34
254.618	33.11
254.835	6.49
255.051	29.01
255.268	43.35
255.484	24.92
255.701	-11.95
255.917	76.12
256.134	-7.85
256.351	0.34
256.567	74.07
256.784	18.77
257	10.58
257.217	29.01
257.433	51.54
257.65	29.01
257.866	76.12
258.082	0.34
258.299	14.68
258.515	41.3
258.732	-20.14
258.948	20.82
259.165	67.92
259.381	26.96
259.597	-20.14
259.814	35.16
260.03	35.16
260.246	102.74
260.463	33.11
260.679	106.84
260.895	0.34
261.112	49.49
261.328	-1.71
261.544	45.4
261.761	80.21
261.977	-5.8
262.193	4.44
262.409	-18.09
262.626	63.83
262.842	51.54
263.058	-50.86
263.274	24.92
263.49	-13.99
263.707	74.07
263.923	-16.04
264.139	-18.09
264.355	84.31
264.571	49.49
264.787	61.78
265.004	102.74
265.22	0.34
265.436	37.2
265.652	-7.85
265.868	16.73
266.084	41.3
266.3	47.44
266.516	29.01
266.732	-3.75
266.948	41.3
267.164	-30.38
267.38	-34.47
267.596	24.92
267.812	14.68
268.028	37.2
268.244	-13.99
268.46	-28.33
268.676	4.44
268.892	96.6
269.108	51.54
269.324	18.77
269.54	-54.95
269.756	74.07
269.972	-1.71
270.188	26.96
270.403	-73.39
270.619	37.2
270.835	12.63
271.051	29.01
271.267	-7.85
271.483	63.83
271.698	125.27
271.914	55.64
272.13	22.87
272.346	-42.67
272.562	41.3
272.777	61.78
272.993	106.84
273.209	12.63
273.425	14.68
273.64	18.77
273.856	61.78
274.072	82.26
274.287	37.2
274.503	90.45
274.719	-28.33
274.934	8.53
275.15	-3.75
275.366	-32.43
275.581	-7.85
275.797	67.92
276.012	8.53
276.228	31.06
276.444	43.35
276.659	33.11
276.875	4.44
277.09	35.16
277.306	65.88
277.521	24.92
277.737	29.01
277.952	102.74
278.168	26.96
278.383	37.2
278.599	20.82
278.814	80.21
279.03	20.82
279.245	72.02
279.461	41.3
279.676	-20.14
279.892	45.4
280.107	-5.8
280.322	4.44
280.538	24.92
280.753	-13.99
280.969	57.68
281.184	37.2
281.399	59.73
281.615	12.63
281.83	-3.75
282.045	80.21
282.26	69.97
282.476	-44.71
282.691	45.4
282.906	47.44
283.122	-26.28
283.337	22.87
283.552	-3.75
283.767	49.49
283.983	-9.9
284.198	-30.38
284.413	53.59
284.628	39.25
284.843	35.16
285.058	45.4
285.274	-16.04
285.489	39.25
285.704	82.26
285.919	51.54
286.134	31.06
286.349	29.01
286.564	0.34
286.779	57.68
286.995	84.31
287.21	-40.62
287.425	76.12
287.64	31.06
287.855	-9.9
288.07	31.06
288.285	-13.99
288.5	112.98
288.715	41.3
288.93	20.82
289.145	108.88
289.36	-32.43
289.575	78.16
289.79	39.25
290.004	69.97
290.219	33.11
290.434	16.73
290.649	65.88
290.864	-5.8
291.079	0.34
291.294	63.83
291.509	-3.75
291.724	35.16
291.938	39.25
292.153	24.92
292.368	35.16
292.583	121.17
292.798	47.44
293.012	49.49
293.227	8.53
293.442	43.35
293.657	-11.95
293.871	-16.04
294.086	6.49
294.301	33.11
294.516	84.31
294.73	0.34
294.945	-20.14
295.16	-3.75
295.374	24.92
295.589	45.4
295.804	-28.33
296.018	2.39
296.233	-9.9
296.447	45.4
296.662	47.44
296.877	88.4
297.091	49.49
297.306	78.16
297.52	18.77
297.735	125.27
297.949	41.3
298.164	33.11
298.378	-63.15
298.593	-20.14
298.807	14.68
299.022	16.73
299.236	149.84
299.451	33.11
299.665	33.11
299.88	51.54
300.094	43.35
300.309	-24.23
300.523	61.78
300.737	-50.86
300.952	57.68
301.166	45.4
301.381	0.34
301.595	31.06
301.809	94.55
302.024	22.87
302.238	49.49
302.452	22.87
302.667	-7.85
302.881	57.68
303.095	-50.86
303.309	-18.09
303.524	12.63
303.738	53.59
303.952	14.68
304.166	29.01
304.381	8.53
304.595	74.07
304.809	80.21
305.023	2.39
305.237	65.88
305.452	12.63
305.666	20.82
305.88	20.82
306.094	22.87
306.308	47.44
306.522	51.54
306.736	24.92
306.95	74.07
307.164	53.59
307.379	12.63
307.593	59.73
307.807	98.64
308.021	65.88
308.235	-7.85
308.449	0.34
308.663	8.53
308.877	84.31
309.091	8.53
309.305	67.92
309.519	-9.9
309.733	22.87
309.947	29.01
310.161	57.68
310.374	41.3
310.588	61.78
310.802	41.3
311.016	72.02
311.23	20.82
311.444	119.12
311.658	24.92
311.872	119.12
312.085	8.53
312.299	0.34
312.513	-13.99
312.727	-11.95
312.941	55.64
313.154	16.73
313.368	41.3
313.582	55.64
313.796	29.01
314.009	-61.1
314.223	31.06
314.437	43.35
314.651	39.25
314.864	2.39
315.078	-3.75
315.292	-28.33
315.505	-13.99
315.719	35.16
315.933	12.63
316.146	-48.81
316.36	41.3
316.573	94.55
316.787	20.82
317.001	57.68
317.214	6.49
317.428	24.92
317.641	-24.23
317.855	86.36
318.068	10.58
318.282	-9.9
318.495	82.26
318.709	92.5
318.922	18.77
319.136	61.78
319.349	139.6
319.563	59.73
319.776	33.11
319.99	-26.28
320.203	106.84
320.417	72.02
320.63	-13.99
320.843	74.07
321.057	47.44
321.27	18.77
321.483	45.4
321.697	57.68
321.91	74.07
322.124	92.5
322.337	67.92
322.55	47.44
322.763	65.88
322.977	33.11
323.19	29.01
323.403	88.4
323.617	8.53
323.83	53.59
324.043	47.44
324.256	51.54
324.469	47.44
324.683	69.97
324.896	63.83
325.109	-22.19
325.322	41.3
325.535	-54.95
325.748	29.01
325.962	-11.95
326.175	20.82
326.388	-3.75
326.601	20.82
326.814	119.12
327.027	51.54
327.24	61.78
327.453	-1.71
327.666	72.02
327.879	90.45
328.092	35.16
328.305	16.73
328.518	0.34
328.731	53.59
328.944	29.01
329.157	4.44
329.37	49.49
329.583	-32.43
329.796	24.92
330.009	61.78
330.222	45.4
330.435	49.49
330.648	55.64
330.861	-26.28
331.073	61.78
331.286	14.68
331.499	108.88
331.712	47.44
331.925	35.16
332.138	94.55
332.35	78.16
332.563	125.27
332.776	57.68
332.989	69.97
333.202	-18.09
333.414	-20.14
333.627	47.44
333.84	-5.8
334.053	57.68
334.265	31.06
334.478	0.34
334.691	6.49
334.903	65.88
335.116	35.16
335.329	72.02
335.541	-73.39
335.754	35.16
335.966	-73.39
336.179	14.68
336.392	-22.19
336.604	41.3
336.817	84.31
337.029	55.64
337.242	65.88
337.454	51.54
337.667	-16.04
337.88	127.32
338.092	84.31
338.305	-5.8
338.517	-24.23
338.729	69.97
338.942	49.49
339.154	20.82
339.367	-20.14
339.579	26.96
339.792	39.25
340.004	78.16
340.217	-3.75
340.429	84.31
340.641	20.82
340.854	63.83
341.066	14.68
341.278	45.4
341.491	78.16
341.703	-3.75
341.915	72.02
342.128	47.44
342.34	47.44
342.552	-3.75
342.764	-3.75
342.977	2.39
343.189	125.27
343.401	47.44
343.613	0.34
343.826	20.82
344.038	20.82
344.25	6.49
344.462	-16.04
344.674	98.64
344.886	6.49
345.099	20.82
345.311	18.77
345.523	78.16
345.735	57.68
345.947	92.5
346.159	8.53
346.371	69.97
346.583	49.49
346.795	47.44
347.007	8.53
347.219	112.98
347.431	86.36
347.643	49.49
347.855	86.36
348.067	86.36
348.279	31.06
348.491	20.82
348.703	82.26
348.915	2.39
349.127	63.83
349.339	112.98
349.551	47.44
349.763	2.39
349.975	39.25
350.187	119.12
350.399	123.22
350.61	20.82
350.822	24.92
351.034	31.06
351.246	26.96
351.458	49.49
351.669	59.73
351.881	59.73
352.093	4.44
352.305	18.77
352.517	-32.43
352.728	80.21
352.94	39.25
353.152	129.36
353.363	16.73
353.575	76.12
353.787	102.74
353.999	16.73
354.21	67.92
354.422	12.63
354.633	37.2
354.845	12.63
355.057	6.49
355.268	110.93
355.48	51.54
355.692	-1.71
355.903	65.88
356.115	-5.8
356.326	-24.23
356.538	69.97
356.749	29.01
356.961	47.44
357.172	88.4
357.384	-24.23
357.595	29.01
357.807	39.25
358.018	127.32
358.23	26.96
358.441	72.02
358.653	65.88
358.864	-11.95
359.075	37.2
359.287	49.49
359.498	-9.9
359.709	16.73
359.921	22.87
360.132	104.79
360.344	51.54
360.555	49.49
360.766	45.4
360.977	-44.71
361.189	33.11
361.4	69.97
361.611	63.83
361.823	6.49
362.034	35.16
362.245	41.3
362.456	88.4
362.667	35.16
362.879	35.16
363.09	-9.9
363.301	67.92
363.512	65.88
363.723	61.78
363.935	-57
364.146	55.64
364.357	117.08
364.568	31.06
364.779	0.34
364.99	24.92
365.201	33.11
365.412	67.92
365.623	45.4
365.834	61.78
366.045	88.4
366.256	41.3
366.467	41.3
366.678	22.87
366.889	84.31
367.1	-13.99
367.311	31.06
367.522	8.53
367.733	16.73
367.944	86.36
368.155	26.96
368.366	29.01
368.577	57.68
368.788	98.64
368.999	-9.9
369.209	39.25
369.42	108.88
369.631	92.5
369.842	-34.47
370.053	45.4
370.264	49.49
370.474	63.83
370.685	63.83
370.896	49.49
371.107	-5.8
371.317	61.78
371.528	51.54
371.739	74.07
371.95	47.44
372.16	108.88
372.371	88.4
372.582	-7.85
372.792	53.59
373.003	12.63
373.214	29.01
373.424	55.64
373.635	39.25
373.846	102.74
374.056	47.44
374.267	8.53
374.477	37.2
374.688	24.92
374.898	90.45
375.109	41.3
375.319	80.21
375.53	45.4
375.74	82.26
375.951	6.49
376.161	92.5
376.372	74.07
376.582	-1.71
376.793	43.35
377.003	29.01
377.214	61.78
377.424	-57
377.635	41.3
377.845	12.63
378.055	39.25
378.266	55.64
378.476	86.36
378.686	69.97
378.897	-13.99
379.107	31.06
379.317	57.68
379.528	0.34
379.738	127.32
379.948	96.6
380.158	76.12
380.369	110.93
380.579	78.16
380.789	12.63
380.999	59.73
381.21	65.88
381.42	72.02
381.63	47.44
381.84	65.88
382.05	78.16
382.261	69.97
382.471	16.73
382.681	39.25
382.891	102.74
383.101	41.3
383.311	84.31
383.521	4.44
383.731	98.64
383.941	127.32
384.151	90.45
384.361	80.21
384.571	20.82
384.781	96.6
384.991	57.68
385.201	39.25
385.411	-28.33
385.621	41.3
385.831	88.4
386.041	61.78
386.251	29.01
386.461	100.69
386.671	67.92
386.881	18.77
387.091	59.73
387.301	22.87
387.511	47.44
387.72	88.4
387.93	82.26
388.14	59.73
388.35	26.96
388.56	-18.09
388.769	41.3
388.979	98.64
389.189	16.73
389.399	39.25
389.609	53.59
389.818	67.92
390.028	59.73
390.238	59.73
390.447	31.06
390.657	16.73
390.867	59.73
391.076	8.53
391.286	82.26
391.496	20.82
391.705	61.78
391.915	37.2
392.125	49.49
392.334	14.68
392.544	102.74
392.753	69.97
392.963	-20.14
393.172	174.42
393.382	-7.85
393.591	92.5
393.801	20.82
394.01	55.64
394.22	104.79
394.429	63.83
394.639	90.45
394.848	84.31
395.058	29.01
395.267	57.68
395.477	65.88
395.686	147.8
395.895	117.08
396.105	110.93
396.314	80.21
396.524	43.35
396.733	117.08
396.942	133.46
397.152	115.03
397.361	104.79
397.57	80.21
397.78	63.83
397.989	153.94
398.198	119.12
398.407	92.5
398.617	117.08
398.826	51.54
399.035	90.45
399.244	139.6
399.453	55.64
399.663	170.32
399.872	67.92
400.081	117.08
400.29	141.65
400.499	65.88
400.708	141.65
400.917	145.75
401.127	121.17
401.336	90.45
401.545	162.13
401.754	51.54
401.963	127.32
402.172	88.4
402.381	78.16
402.59	104.79
402.799	145.75
403.008	112.98
403.217	72.02
403.426	139.6
403.635	153.94
403.844	139.6
404.053	143.7
404.262	82.26
404.471	127.32
404.68	180.56
404.888	176.47
405.097	106.84
405.306	158.03
405.515	112.98
405.724	237.91
405.933	211.28
406.142	127.32
406.35	180.56
406.559	178.51
406.768	151.89
406.977	127.32
407.185	186.71
407.394	219.47
407.603	194.9
407.812	244.05
408.02	227.67
408.229	237.91
408.438	188.75
408.646	219.47
408.855	268.63
409.064	260.43
409.272	115.03
409.481	356.69
409.69	282.96
409.898	287.06
410.107	295.25
410.315	276.82
410.524	285.01
410.733	258.39
410.941	305.49
411.15	317.78
411.358	344.4
411.567	416.08
411.775	440.65
411.984	432.46
412.192	391.5
412.401	424.27
412.609	416.08
412.818	502.09
413.026	487.76
413.234	538.96
413.443	504.14
413.651	477.52
413.86	489.81
414.068	555.34
414.276	553.29
414.485	500.05
414.693	610.64
414.901	641.36
415.11	624.97
415.318	667.98
415.526	647.5
415.734	680.27
415.943	790.86
416.151	702.79
416.359	700.75
416.567	862.54
416.776	825.67
416.984	893.26
417.192	936.26
417.4	981.32
417.608	860.49
417.817	989.51
418.025	1016.13
418.233	1085.76
418.441	1079.62
418.649	1149.25
418.857	1161.54
419.065	1130.82
419.273	1073.48
419.481	1274.18
419.689	1268.03
419.897	1362.24
420.105	1454.4
420.313	1435.97
420.521	1493.31
420.729	1454.4
420.937	1593.66
421.145	1528.13
421.353	1620.28
421.561	1745.21
421.769	1802.55
421.977	1902.9
422.185	1841.47
422.393	1900.86
422.601	2171.19
422.809	2070.84
423.017	2066.74
423.224	2316.59
423.432	2203.96
423.64	2388.27
423.848	2470.19
424.056	2435.38
424.263	2539.82
424.471	2617.65
424.679	2791.72
424.887	2898.22
425.094	2887.98
425.302	3037.48
425.51	3096.87
425.718	3227.94
425.925	3205.41
426.133	3422.5
426.341	3481.89
426.548	3643.68
426.756	3629.34
426.964	3756.32
427.171	3871
427.379	3881.24
427.586	4032.79
427.794	4112.66
428.001	4260.12
428.209	4514.06
428.417	4495.63
428.624	4854.03
428.832	4759.82
429.039	4690.19
429.247	4725.01
429.454	5333.25
429.662	5673.21
429.869	5234.95
430.076	5533.95
430.284	5443.84
430.491	5824.76
430.699	5894.4
430.906	6013.18
431.114	6035.71
431.321	6234.36
431.528	6469.87
431.736	6828.27
431.943	6969.58
432.15	6969.58
432.358	7065.83
432.565	7342.31
432.772	7225.58
432.979	7586.02
433.187	7977.18
433.394	7934.17
433.601	8581.33
433.808	8241.37
434.016	8329.43
434.223	8843.47
434.43	9410.76
434.637	9185.48
434.844	9717.95
435.052	9765.06
435.259	9994.43
435.466	9943.23
435.673	9814.21
435.88	10387.64
436.087	11155.63
436.294	11083.95
436.501	10811.57
436.708	11016.37
436.915	11358.38
437.122	11882.66
437.329	11700.39
437.537	12208.28
437.743	12343.45
437.95	12218.52
438.157	13078.67
438.364	13228.17
438.571	13297.8
438.778	13510.79
438.985	14813.3
439.192	14141.57
439.399	14643.32
439.606	14383.23
439.813	15077.49
440.02	15847.52
440.227	15913.06
440.433	15562.86
440.64	16341.08
440.847	15974.5
441.054	16357.47
441.261	17307.73
441.467	17293.39
441.674	17797.19
441.881	18096.19
442.088	18114.62
442.294	17872.96
442.501	18657.34
442.708	18890.81
442.914	19687.46
443.121	20441.12
443.328	19939.37
443.534	21483.53
443.741	20664.35
443.948	20348.96
444.154	22134.79
444.361	21757.96
444.568	22059.01
444.774	22018.05
444.981	22181.89
445.187	22812.67
445.394	23676.91
445.6	23439.34
445.807	25731.02
446.013	24758.24
446.22	25110.49
446.426	26113.99
446.633	26146.76
446.839	26795.96
447.046	26126.28
447.252	27465.65
447.459	27641.78
447.665	27408.31
447.871	28544.93
448.078	29874.06
448.284	28336.04
448.491	29294.49
448.697	30238.6
448.903	30652.29
449.11	30908.29
449.316	30015.37
449.522	30971.77
449.728	31694.71
449.935	31979.37
450.141	31860.59
450.347	32421.73
450.553	31797.1
450.76	31911.79
450.966	33093.47
451.172	32548.71
451.378	33199.96
451.584	32806.75
451.791	33662.8
451.997	33488.73
452.203	34004.81
452.409	33845.07
452.615	33998.67
452.821	32558.95
453.027	32536.42
453.233	33865.55
453.44	32184.17
453.646	33001.31
453.852	33480.53
454.058	33636.18
454.264	32264.04
454.47	33261.4
454.676	32376.68
454.882	33556.31
455.088	30711.68
455.294	31119.23
455.5	31168.38
455.705	31602.55
455.911	30504.84
456.117	29824.91
456.323	29427.6
456.529	27568.05
456.735	29202.33
456.941	28405.67
457.147	27592.62
457.352	26996.67
457.558	26558.4
457.764	26693.57
457.97	26322.88
458.176	25626.57
458.381	26087.37
458.587	24352.74
458.793	24266.72
458.999	23343.09
459.204	24657.89
459.41	24238.05
459.616	22493.18
459.821	22507.52
460.027	22429.7
460.233	22020.1
460.438	21084.18
460.644	21241.87
460.85	20330.53
461.055	20277.28
461.261	19814.44
461.466	18376.76
461.672	17954.88
461.878	19247.15
462.083	17821.77
462.289	17645.64
462.494	17520.71
462.7	16658.52
462.905	16089.18
463.111	16351.32
463.316	16660.57
463.522	16146.53
463.727	16349.28
463.932	16322.65
464.138	16117.86
464.343	16103.52
464.549	15575.14
464.754	16412.76
464.959	16076.9
465.165	15911.01
465.37	15415.4
465.575	15011.95
465.781	15487.08
465.986	15837.28
466.191	14956.66
466.397	15061.1
466.602	14266.49
466.807	14717.04
467.012	14684.28
467.218	14661.75
467.423	14231.68
467.628	14526.58
467.833	15018.1
468.038	14581.88
468.244	14354.55
468.449	14778.48
468.654	14168.19
468.859	14110.85
469.064	14014.59
469.269	13475.98
469.474	13623.43
469.679	13887.62
469.885	13455.5
470.09	13447.3
470.295	13566.09
470.5	13250.7
470.705	13463.69
470.91	13058.19
471.115	12861.59
471.32	13254.8
471.525	12966.03
471.73	12759.19
471.935	12687.51
472.139	12310.68
472.344	12517.53
472.549	12351.64
472.754	12161.18
472.959	11876.51
473.164	11655.33
473.369	11509.93
473.574	11874.46
473.778	11806.88
473.983	11757.73
474.188	11798.69
474.393	11225.26
474.598	11129
474.802	11178.15
475.007	11090.09
475.212	11215.02
475.417	10551.48
475.621	10782.9
475.826	10743.99
476.031	10571.96
476.235	10318.01
476.44	10387.64
476.645	10166.46
476.849	10487.99
477.054	10098.88
477.259	9894.08
477.463	10201.27
477.668	9511.11
477.872	9744.58
478.077	9689.28
478.282	9490.63
478.486	9513.16
478.691	9244.87
478.895	9287.88
479.1	9318.6
479.304	9078.99
479.509	9126.09
479.713	9134.28
479.918	9005.26
480.122	8892.62
480.326	8863.95
480.531	8995.02
480.735	8743.12
480.94	8722.64
481.144	9085.13
481.348	8464.6
481.553	8755.41
481.757	8511.7
481.961	8605.91
482.166	8800.46
482.37	8595.67
482.574	8411.35
482.778	8464.6
482.983	8650.96
483.187	8550.61
483.391	8564.95
483.595	8696.02
483.8	8370.39
484.004	8564.95
484.208	8706.26
484.412	8605.91
484.616	8564.95
484.821	8507.6
485.025	8390.87
485.229	8626.39
485.433	8542.42
485.637	8605.91
485.841	8575.19
486.045	8566.99
486.249	8591.57
486.453	8368.34
486.657	8630.48
486.861	8648.91
487.065	8337.62
487.269	8470.74
487.473	8462.55
487.677	8614.1
487.881	8728.78
488.085	8607.95
488.289	8587.47
488.493	8636.63
488.697	8603.86
488.901	8712.4
489.105	8616.15
489.309	8562.9
489.512	8669.39
489.716	8626.39
489.92	8843.47
490.124	8696.02
490.328	8710.35
490.531	8790.22
490.735	8857.81
490.939	8874.19
491.143	8753.36
491.346	8788.18
491.55	9044.17
491.754	8911.05
491.958	9085.13
492.161	8945.87
492.365	8939.72
492.569	9150.67
492.772	9027.79
492.976	9265.35
493.18	9238.73
493.383	9253.06
493.587	9412.81
493.79	9165
493.994	9412.81
494.197	9408.71
494.401	9701.57
494.605	9611.46
494.808	9894.08
495.012	9701.57
495.215	9820.35
495.419	9859.26
495.622	9750.72
495.825	10049.72
496.029	9924.8
496.232	10141.88
496.436	10113.21
496.639	10279.1
496.843	10498.23
497.046	10537.14
497.249	10531
497.453	10668.21
497.656	10813.62
497.859	10959.02
498.063	10973.36
498.266	11452.58
498.469	11016.37
498.673	11063.47
498.876	11563.17
499.079	11325.61
499.282	11507.88
499.485	11815.07
499.689	11929.76
499.892	12118.17
500.095	12107.93
500.298	12454.04
500.501	12413.08
500.705	12538.01
500.908	12785.81
501.111	12814.48
501.314	12959.89
501.517	13078.67
501.72	13432.97
501.923	13156.49
502.126	13504.65
502.329	14041.22
502.532	13858.95
502.735	13983.87
502.938	13985.92
503.141	14432.38
503.344	14671.99
503.547	14448.76
503.75	14815.35
503.953	15241.32
504.156	14917.75
504.359	15259.76
504.562	15442.03
504.765	15665.25
504.968	15902.82
505.17	15962.21
505.373	15964.26
505.576	16302.17
505.779	16629.85
505.982	16580.7
506.185	16959.57
506.387	17102.93
506.59	17195.09
506.793	17334.35
506.996	17453.13
507.198	17743.94
507.401	17778.76
507.604	18047.04
507.807	18188.35
508.009	18149.44
508.212	18675.77
508.415	18702.39
508.617	19042.35
508.82	18894.9
509.022	19220.53
509.225	19800.1
509.428	19832.87
509.63	20011.04
509.833	20039.72
510.035	20445.21
510.238	20240.42
510.44	20809.75
510.643	21114.9
510.845	21270.54
511.048	20799.51
511.25	21331.98
511.453	21723.15
511.655	22190.08
511.858	21995.53
512.06	22228.99
512.262	22560.77
512.465	22507.52
512.667	22775.8
512.87	23429.1
513.072	23205.88
513.274	23607.28
513.477	23584.75
513.679	23810.03
513.881	24154.08
514.084	24760.28
514.286	24604.64
514.488	24938.46
514.69	25059.29
514.893	25440.21
515.095	25761.74
515.297	25737.16
515.499	26052.55
515.701	26466.24
515.904	26611.65
516.106	26871.74
516.308	27041.72
516.51	27461.55
516.712	27684.78
516.914	27819.95
517.116	28268.45
517.318	28168.1
517.52	28643.23
517.722	28424.1
517.925	28845.98
518.127	29009.82
518.329	29226.9
518.531	29179.8
518.733	30015.37
518.935	30578.56
519.136	30306.18
519.338	30955.39
519.54	30930.81
519.742	31618.93
519.944	31663.99
520.146	32067.44
520.348	31960.94
520.55	32335.72
520.752	32278.38
520.954	33072.99
521.155	32698.21
521.357	33343.32
521.559	33466.2
521.761	34006.86
521.963	33914.7
522.164	34223.95
522.366	34506.57
522.568	34799.43
522.77	34877.25
522.971	35147.58
523.173	34838.34
523.375	35682.1
523.576	35637.05
523.778	36050.74
523.98	36415.27
524.181	36263.72
524.383	36372.27
524.584	36769.57
524.786	36628.26
524.988	36974.37
525.189	37510.94
525.391	37496.6
525.592	37312.28
525.794	38201.1
525.995	37771.03
526.197	37857.04
526.398	38250.25
526.6	38602.5
526.801	38635.27
527.003	38743.81
527.204	38909.7
527.406	39495.42
527.607	39149.31
527.808	39552.76
528.01	38899.46
528.211	39606.01
528.412	40367.85
528.614	39737.08
528.815	39929.59
529.016	40220.4
529.218	40036.08
529.419	40228.59
529.62	40220.4
529.822	40447.72
530.023	40625.9
530.224	40847.08
530.425	40429.29
530.626	40556.27
530.828	40134.38
531.029	41529.05
531.23	40613.61
531.431	40908.52
531.632	41113.31
531.833	41058.02
532.035	41305.82
532.236	41518.81
532.437	41522.91
532.638	41529.05
532.839	41547.48
533.04	41600.73
533.241	41170.66
533.442	41987.8
533.643	42129.11
533.844	41264.86
534.045	41948.89
534.246	41625.31
534.447	41971.41
534.648	41772.76
534.849	41983.7
535.05	41524.96
535.251	41938.65
535.451	41649.88
535.652	42079.96
535.853	41527
536.054	41666.27
536.255	42110.67
536.456	41670.36
536.657	42364.62
536.857	41383.65
537.058	41727.7
537.259	41801.43
537.46	42163.92
537.66	42196.69
537.861	42008.28
538.062	41694.94
538.263	41832.15
538.463	41649.88
538.664	42182.35
538.865	42280.66
539.065	42149.59
539.266	41496.28
539.466	42284.75
539.667	41639.64
539.868	42299.09
540.068	42039
540.269	41633.5
540.469	42094.29
540.67	41846.49
540.87	41772.76
541.071	42057.43
541.271	42362.57
541.472	41891.54
541.672	41848.53
541.873	41889.49
542.073	41019.11
542.274	41873.11
542.474	42012.37
542.675	41510.62
542.875	42039
543.075	41596.63
543.276	41305.82
543.476	41971.41
543.676	41365.21
543.877	41852.63
544.077	41686.75
544.277	41758.42
544.478	41993.94
544.678	42141.39
544.878	41527
545.078	42178.26
545.279	41592.54
545.479	41977.56
545.679	41682.65
545.879	41862.87
546.079	41789.14
546.28	41486.04
546.48	41397.98
546.68	41840.34
546.88	41625.31
547.08	41739.99
547.28	41379.55
547.48	41658.07
547.68	41707.22
547.88	41117.41
548.081	41785.05
548.281	41498.33
548.481	41455.32
548.681	41518.81
548.881	41721.56
549.081	41815.77
549.28	41387.74
549.48	41504.48
549.68	41215.71
549.88	42020.56
550.08	41481.95
550.28	41447.13
550.48	41043.68
550.68	41727.7
550.88	41359.07
551.08	41365.21
551.279	41219.81
551.479	41058.02
551.679	41336.54
551.879	41352.93
552.079	41539.29
552.278	41119.46
552.478	41309.92
552.678	41084.64
552.878	41359.07
553.077	41041.64
553.277	41029.35
553.477	41627.35
553.676	40767.21
553.876	40814.31
554.076	41035.49
554.275	41156.32
554.475	40591.08
554.674	40896.23
554.874	40990.44
555.074	40929
555.273	40914.66
555.473	40943.33
555.672	40791.78
555.872	40677.1
556.071	40945.38
556.271	41094.88
556.47	40285.93
556.67	40351.47
556.869	40457.96
557.068	41242.34
557.268	39993.08
557.467	40736.49
557.667	40382.19
557.866	40042.23
558.065	40134.38
558.265	40185.58
558.464	40193.78
558.663	40316.65
558.863	39823.09
559.062	40451.82
559.261	39917.3
559.461	40097.52
559.66	39694.07
559.859	40011.51
560.058	39788.28
560.258	39974.64
560.457	39759.61
560.656	40189.68
560.855	39290.62
561.054	39460.6
561.253	39364.35
561.453	39438.08
561.652	39491.32
561.851	39626.49
562.05	38971.14
562.249	38924.04
562.448	39307.01
562.647	39290.62
562.846	38940.42
563.045	38962.95
563.244	38702.85
563.443	39507.71
563.642	38317.84
563.841	38493.96
564.04	38498.06
564.239	38594.31
564.438	38618.89
564.637	38389.52
564.836	38401.8
565.035	38205.2
565.234	38012.69
565.432	37906.19
565.631	37611.29
565.83	38129.42
566.029	37904.15
566.228	37711.64
566.427	37979.92
566.625	37467.93
566.824	36638.5
567.023	37555.99
567.222	36837.16
567.42	37375.77
567.619	37000.99
567.818	36865.83
568.016	36800.29
568.215	37222.17
568.414	36867.87
568.612	37291.8
568.811	36505.38
569.01	36914.98
569.208	36499.24
569.407	36716.33
569.605	36044.59
569.804	36472.62
570.002	35944.24
570.201	36204.33
570.4	36011.82
570.598	35829.55
570.797	35729.2
570.995	35735.35
571.193	35393.34
571.392	35821.36
571.59	35149.63
571.789	35653.43
571.987	34871.11
572.186	35268.41
572.384	35163.96
572.582	35481.4
572.781	35581.75
572.979	34651.97
573.177	34862.91
573.376	34617.16
573.574	34484.04
573.772	34680.64
573.971	34522.95
574.169	34422.6
574.367	33990.48
574.565	34248.52
574.763	34082.64
574.962	33714
575.16	33728.34
575.358	33607.51
575.556	33236.83
575.754	33939.28
575.952	33396.57
576.151	33853.26
576.349	33103.71
576.547	33105.76
576.745	33222.49
576.943	32591.72
577.141	32847.71
577.339	33265.5
577.537	33048.41
577.735	33021.79
577.933	32687.97
578.131	32786.27
578.329	32749.41
578.527	32259.95
578.725	32403.3
578.923	32378.73
579.121	32415.59
579.319	32083.82
579.516	32425.83
579.714	32261.99
579.912	32026.48
580.11	31829.87
580.308	32003.95
580.506	31975.28
580.704	31463.29
580.901	31784.82
581.099	31369.08
581.297	31348.6
581.495	31623.03
581.692	31567.73
581.89	31108.99
582.088	31227.77
582.285	31059.84
582.483	31299.45
582.681	31027.07
582.878	30785.41
583.076	30361.48
583.274	30676.87
583.471	30275.46
583.669	30592.9
583.866	30154.63
584.064	30678.91
584.262	29878.16
584.459	30232.46
584.657	30152.59
584.854	30218.12
585.052	29654.93
585.249	29947.79
585.447	29804.43
585.644	29644.69
585.841	29886.35
586.039	29738.9
586.236	29142.94
586.434	29456.28
586.631	29454.23
586.828	29378.45
587.026	29198.23
587.223	29099.93
587.42	29120.41
587.618	28802.97
587.815	28559.27
588.012	28596.13
588.21	28710.82
588.407	29151.13
588.604	28657.57
588.801	28278.69
588.999	28520.35
589.196	28577.7
589.393	28612.51
589.59	28147.62
589.787	28204.97
589.984	27955.11
590.182	27799.47
590.379	28166.06
590.576	27588.53
590.773	27516.85
590.97	27539.38
591.167	27557.81
591.364	27398.07
591.561	27299.76
591.758	27191.22
591.955	27289.52
592.152	27312.05
592.349	27185.08
592.546	27191.22
592.743	27436.98
592.94	26525.63
593.137	26931.13
593.334	26984.38
593.531	26472.39
593.727	26808.25
593.924	26712
594.121	26513.34
594.318	26435.52
594.515	26087.37
594.712	26458.05
594.908	26109.89
595.105	26433.47
595.302	25993.16
595.499	26216.39
595.696	25868.23
595.892	25743.31
596.089	25563.09
596.286	26054.6
596.482	25573.33
596.679	25720.78
596.876	25628.62
597.072	25268.18
597.269	25618.38
597.466	25319.38
597.662	24897.5
597.859	25145.3
598.055	25413.59
598.252	25214.93
598.448	25003.99
598.645	24973.27
598.841	24682.46
599.038	24920.03
599.234	24618.97
599.431	24117.22
599.627	24223.72
599.824	24543.2
600.02	24279.01
600.217	24530.91
600.413	24223.72
600.609	24301.54
600.806	24049.64
601.002	24059.88
601.198	23859.18
601.395	23879.66
601.591	23685.1
601.787	23820.27
601.984	23363.57
602.18	23889.9
602.376	23537.65
602.572	23265.27
602.769	23603.18
602.965	23410.67
603.161	23289.84
603.357	22974.45
603.553	23101.43
603.75	23119.86
603.946	22982.65
604.142	23138.29
604.338	22548.48
604.534	22730.75
604.73	22517.76
604.926	22501.37
605.122	22667.26
605.318	22374.4
605.514	22394.88
605.71	22386.69
605.906	22558.72
606.102	22196.23
606.298	21981.19
606.494	22157.32
606.69	22212.61
606.886	22310.91
607.082	21886.98
607.278	22312.96
607.474	21735.43
607.67	21813.26
607.866	21686.28
608.062	22126.6
608.257	21655.56
608.453	21755.91
608.649	21717
608.845	21385.23
609.041	21798.92
609.236	21665.8
609.432	21215.25
609.628	21198.87
609.824	21159.95
610.019	21442.57
610.215	21440.53
610.411	21489.68
610.606	20977.69
610.802	21149.71
610.998	20891.67
611.193	21368.85
611.389	21274.64
611.584	21159.95
611.78	20901.91
611.976	20725.79
612.171	21235.73
612.367	20643.87
612.562	20418.59
612.758	20420.64
612.953	20584.48
613.149	20705.31
613.344	20551.71
613.539	20893.72
613.735	20639.77
613.93	20529.18
614.126	20131.87
614.321	20441.12
614.517	20449.31
614.712	20330.53
614.907	20279.33
615.103	20312.1
615.298	20131.87
615.493	20391.97
615.688	19773.48
615.884	20572.19
616.079	19892.26
616.274	20178.98
616.47	20064.29
616.665	19890.21
616.86	19984.42
617.055	20029.48
617.25	20045.86
617.445	19877.93
617.641	19300.4
617.836	19908.65
618.031	19451.95
618.226	19542.06
618.421	19277.87
618.616	19718.18
618.811	19195.95
619.006	19509.29
619.201	19005.49
619.396	19339.31
619.591	18952.24
619.786	19304.49
619.981	18759.74
620.176	19038.26
620.371	18509.88
620.566	18917.43
620.761	18737.21
620.956	18882.61
621.151	18694.2
621.346	18550.84
621.541	18382.91
621.735	18528.31
621.93	18059.33
622.125	18262.08
622.32	18077.76
622.515	18083.91
622.709	17805.38
622.904	17698.89
623.099	17801.29
623.294	17940.55
623.488	17504.33
623.683	17643.59
623.878	17326.16
624.072	17373.26
624.267	17137.74
624.462	17016.91
624.656	17113.17
624.851	16980.05
625.046	16822.36
625.24	16980.05
625.435	16265.31
625.629	16685.14
625.824	16752.73
626.018	16394.33
626.213	16056.42
626.407	16285.79
626.602	15927.39
626.796	16302.17
626.991	16054.37
627.185	15974.5
627.38	15667.3
627.574	15698.02
627.768	15802.47
627.963	15642.73
628.157	15581.29
628.352	15581.29
628.546	15093.87
628.74	15356.01
628.935	15063.15
629.129	15427.69
629.323	14819.44
629.517	14698.61
629.712	15032.43
629.906	14880.88
630.1	14473.34
630.294	14708.85
630.489	14456.95
630.683	14669.94
630.877	14299.26
631.071	14237.82
631.265	14391.42
631.459	13990.02
631.653	14020.74
631.848	14162.05
632.042	13977.73
632.236	14053.5
632.43	13717.64
632.624	13639.81
632.818	13799.55
633.012	13670.53
633.206	13289.61
633.4	13656.2
633.594	13392.01
633.788	13418.63
633.982	13351.05
634.176	13432.97
634.369	13076.62
634.563	13097.1
634.757	13037.71
634.951	12912.78
635.145	12980.37
635.339	12951.7
635.533	12669.08
635.726	12882.06
635.92	12550.29
636.114	12578.97
636.308	12476.57
636.501	12456.09
636.695	12425.37
636.889	12312.73
637.083	12292.25
637.276	12095.64
637.47	11942.05
637.664	12210.33
637.857	11901.09
638.051	12060.83
638.244	11819.17
638.438	11774.11
638.632	11585.7
638.825	11815.07
639.019	11772.07
639.212	11655.33
639.406	11581.6
639.599	11501.73
639.793	11395.24
639.986	11303.08
640.18	11286.7
640.373	11241.64
640.567	11110.57
640.76	11094.19
640.954	10920.11
641.147	11141.29
641.34	10973.36
641.534	11061.42
641.727	10940.59
641.92	10756.27
642.114	10752.18
642.307	10651.83
642.5	10506.42
642.694	10492.09
642.887	10342.58
643.08	10463.41
643.273	10422.45
643.467	10238.14
643.66	10150.07
643.853	10256.57
644.046	10168.51
644.239	9943.23
644.432	9832.64
644.626	10014.91
644.819	9750.72
645.012	9844.93
645.205	9883.84
645.398	9758.91
645.591	9603.27
645.784	9674.95
645.977	9521.35
646.17	9310.41
646.363	9556.16
646.556	9375.94
646.749	9443.53
646.942	9533.64
647.135	9300.17
647.328	9230.54
647.521	9187.53
647.714	9187.53
647.907	9246.92
648.099	8982.73
648.292	9162.95
648.485	8943.82
648.678	8886.48
648.871	8992.97
649.064	8831.18
649.256	8861.9
649.449	8714.45
649.642	8769.74
649.835	8722.64
650.027	8601.81
650.22	8691.92
650.413	8442.07
650.605	8454.36
650.798	8339.67
650.991	8378.58
651.183	8489.17
651.376	8059.1
651.568	8267.99
651.761	8247.51
651.954	8024.28
652.146	8009.95
652.339	8167.64
652.531	8100.06
652.724	8061.15
652.916	7887.07
653.109	7940.32
653.301	7743.71
653.494	7946.46
653.686	7780.57
653.879	7885.02
654.071	7975.13
654.263	7680.22
654.456	7672.03
654.648	7489.76
654.84	7518.43
655.033	7540.96
655.225	7483.62
655.417	7209.19
655.61	7401.7
655.802	7471.33
655.994	7368.93
656.186	7297.25
656.379	7258.34
656.571	7219.43
656.763	7162.09
656.955	7057.64
657.148	7123.18
657.34	7012.59
657.532	7145.7
657.724	6926.57
657.916	6938.86
658.108	6934.76
658.3	6820.08
658.492	6887.66
658.684	6744.3
658.876	6787.31
659.068	6809.84
659.26	6695.15
659.452	6723.82
659.644	6631.66
659.836	6699.25
660.028	6461.68
660.22	6394.1
660.412	6627.57
660.604	6447.35
660.796	6422.77
660.988	6357.24
661.18	6240.5
661.372	6258.93
661.563	6426.87
661.755	6230.26
661.947	6371.57
662.139	6273.27
662.331	6308.09
662.522	6121.72
662.714	6209.78
662.906	5992.7
663.097	6082.81
663.289	5923.07
663.481	6105.34
663.673	6148.34
663.864	5910.78
664.056	5849.34
664.247	5800.19
664.439	5806.33
664.631	5579.01
664.822	5976.31
665.014	5757.18
665.205	5755.13
665.397	5728.51
665.588	5837.05
665.78	5579.01
665.971	5875.96
666.163	5765.37
666.354	5550.34
666.546	5515.52
666.737	5476.61
666.929	5521.67
667.12	5277.96
667.311	5503.23
667.503	5372.16
667.694	5353.73
667.885	5398.79
668.077	5353.73
668.268	5406.98
668.459	5282.05
668.651	5189.89
668.842	5212.42
669.033	5251.33
669.224	5101.83
669.416	5267.72
669.607	4972.81
669.798	5261.57
669.989	5118.22
670.18	5075.21
670.371	5083.4
670.563	5069.06
670.754	4966.67
670.945	4851.98
671.136	4948.23
671.327	5093.64
671.518	4806.92
671.709	5085.45
671.9	4915.47
672.091	4841.74
672.282	4733.2
672.473	4757.77
672.664	4712.72
672.855	4727.05
673.046	4763.92
673.237	4991.24
673.428	4743.44
673.619	4743.44
673.809	4698.38
674	4630.8
674.191	4669.71
674.382	4661.52
674.573	4675.85
674.764	4593.94
674.954	4569.36
675.145	4507.92
675.336	4477.2
675.527	4544.78
675.717	4530.45
675.908	4452.63
676.099	4397.33
676.289	4565.26
676.48	4380.95
676.671	4311.32
676.861	4446.48
677.052	4311.32
677.243	4432.15
677.433	4419.86
677.624	4417.81
677.814	4270.36
678.005	4350.23
678.195	4188.44
678.386	4194.58
678.576	4339.99
678.767	4241.68
678.957	4153.62
679.148	4448.53
679.338	4163.86
679.529	4272.4
679.719	4077.85
679.909	4452.63
680.1	4118.81
680.29	4229.4
680.481	4157.72
680.671	4178.2
680.861	4210.97
681.052	4006.17
681.242	4194.58
681.432	4040.98
681.622	4077.85
681.813	3977.5
682.003	4112.66
682.193	4112.66
682.383	3959.06
682.573	4028.7
682.764	3895.58
682.954	4038.94
683.144	3903.77
683.334	3967.26
683.524	3985.69
683.714	3954.97
683.904	3987.74
684.094	3973.4
684.284	3840.28
684.474	4098.33
684.664	4000.02
684.854	3895.58
685.044	3891.48
685.234	3844.38
685.424	3752.22
685.614	3950.87
685.804	3791.13
685.994	3885.34
686.184	3727.64
686.374	3801.37
686.564	3805.47
686.753	3801.37
686.943	3703.07
687.133	3744.03
687.323	3748.12
687.513	3664.16
687.702	3717.4
687.892	3569.95
688.082	3471.65
688.272	3471.65
688.461	3631.39
688.651	3578.14
688.841	3572
689.03	3528.99
689.22	3498.27
689.41	3528.99
689.599	3565.85
689.789	3459.36
689.979	3342.63
690.168	3535.14
690.358	3485.98
690.547	3389.73
690.737	3414.31
690.926	3475.74
691.116	3352.87
691.305	3459.36
691.495	3338.53
691.684	3432.74
691.874	3365.15
692.063	3234.08
692.252	3289.38
692.442	3430.69
692.631	3324.19
692.82	3344.67
693.01	3299.62
693.199	3135.78
693.388	3301.67
693.578	3260.71
693.767	3260.71
693.956	3225.89
694.146	3174.69
694.335	3111.21
694.524	3295.52
694.713	3178.79
694.902	3148.07
695.092	3258.66
695.281	3223.84
695.47	3113.25
695.659	3146.02
695.848	3092.77
696.037	3170.6
696.226	3088.68
696.415	3176.74
696.604	3184.93
696.793	3227.94
696.982	3133.73
697.171	3090.73
697.36	3150.12
697.549	2973.99
697.738	3062.05
697.927	3082.53
698.116	3047.72
698.305	3119.4
698.494	3027.24
698.683	3051.81
698.872	3066.15
699.061	3076.39
699.25	3057.96
699.438	2988.33
699.627	3033.38
699.816	3014.95
700.005	3119.4
700.193	3100.97
700.382	2996.52
700.571	3082.53
700.76	3088.68
700.948	3096.87
701.137	3123.49
701.326	2933.03
701.514	3027.24
701.703	2937.13
701.892	3064.1
702.08	3014.95
702.269	2988.33
702.457	3029.29
702.646	3008.81
702.834	2824.49
703.023	2955.56
703.212	3006.76
703.4	2945.32
703.589	2935.08
703.777	3021.1
703.965	3043.62
704.154	3100.97
704.342	3010.86
704.531	2871.59
704.719	2963.75
704.907	3053.86
705.096	3014.95
705.284	2933.03
705.472	2920.74
705.661	2922.79
705.849	3088.68
706.037	3039.53
706.226	2914.6
706.414	3010.86
706.602	2900.27
706.79	2922.79
706.979	2902.31
707.167	2988.33
707.355	2912.55
707.543	2883.88
707.731	2961.7
707.919	3010.86
708.107	2853.16
708.296	2844.97
708.484	2851.11
708.672	2904.36
708.86	2804.01
709.048	2869.55
709.236	2898.22
709.424	2947.37
709.612	2871.59
709.8	2918.7
709.988	2900.27
710.176	2795.82
710.364	2847.02
710.551	2750.76
710.739	2832.68
710.927	2818.35
711.115	2912.55
711.303	2930.98
711.491	2847.02
711.679	2928.94
711.866	2842.92
712.054	2842.92
712.242	2730.28
712.43	2865.45
712.617	2744.62
712.805	2861.35
712.993	2654.51
713.181	2840.87
713.368	2758.96
713.556	2875.69
713.744	2787.63
713.931	2883.88
714.119	2847.02
714.306	2902.31
714.494	2834.73
714.682	2818.35
714.869	2822.44
715.057	2851.11
715.244	2879.79
715.432	2826.54
715.619	2773.29
715.807	2822.44
715.994	2836.78
716.182	2765.1
716.369	2943.27
716.556	2761
716.744	2638.13
716.931	2728.24
717.119	2799.91
717.306	2740.52
717.493	2668.84
717.681	2752.81
717.868	2707.76
718.055	2695.47
718.242	2775.34
718.43	2791.72
718.617	2775.34
718.804	2785.58
718.991	2789.67
719.179	2705.71
719.366	2785.58
719.553	2722.09
719.74	2744.62
719.927	2715.95
720.114	2789.67
720.301	2599.21
720.488	2785.58
720.676	2724.14
720.863	2756.91
721.05	2681.13
721.237	2765.1
721.424	2674.99
721.611	2720.04
721.798	2730.28
721.985	2568.49
722.172	2664.75
722.358	2554.16
722.545	2720.04
722.732	2484.53
722.919	2724.14
723.106	2593.07
723.293	2634.03
723.48	2736.43
723.667	2535.73
723.853	2677.04
724.04	2576.69
724.227	2718
724.414	2679.08
724.6	2607.41
724.787	2722.09
724.974	2732.33
725.161	2644.27
725.347	2656.56
725.534	2552.11
725.72	2662.7
725.907	2623.79
726.094	2742.57
726.28	2470.19
726.467	2631.98
726.653	2629.93
726.84	2584.88
727.027	2611.5
727.213	2558.25
727.4	2564.4
727.586	2617.65
727.773	2613.55
727.959	2593.07
728.145	2584.88
728.332	2574.64
728.518	2584.88
728.705	2619.69
728.891	2541.87
729.077	2564.4
729.264	2623.79
729.45	2545.97
729.636	2490.67
729.823	2627.89
730.009	2662.7
730.195	2605.36
730.382	2720.04
730.568	2634.03
730.754	2591.02
730.94	2500.91
731.126	2658.6
731.313	2562.35
731.499	2568.49
731.685	2482.48
731.871	2576.69
732.057	2513.2
732.243	2433.33
732.429	2537.77
732.615	2545.97
732.801	2629.93
732.987	2439.47
733.173	2625.84
733.359	2537.77
733.545	2552.11
733.731	2484.53
733.917	2533.68
734.103	2515.25
734.289	2560.3
734.475	2398.51
734.661	2539.82
734.847	2443.57
735.033	2507.06
735.219	2388.27
735.404	2449.71
735.59	2443.57
735.776	2431.28
735.962	2511.15
736.148	2445.62
736.333	2421.04
736.519	2462
736.705	2447.66
736.89	2435.38
737.076	2453.81
737.262	2375.99
737.447	2490.67
737.633	2478.38
737.819	2455.86
738.004	2416.94
738.19	2294.07
738.375	2357.55
738.561	2392.37
738.747	2244.92
738.932	2392.37
739.118	2423.09
739.303	2349.36
739.489	2384.18
739.674	2308.4
739.859	2322.74
740.045	2437.42
740.23	2238.77
740.416	2341.17
740.601	2361.65
740.786	2365.75
740.972	2275.63
741.157	2261.3
741.342	2300.21
741.528	2320.69
741.713	2271.54
741.898	2294.07
742.084	2279.73
742.269	2187.57
742.454	2335.03
742.639	2257.2
742.824	2285.87
743.01	2244.92
743.195	2124.08
743.38	2169.14
743.565	2138.42
743.75	2130.23
743.935	2191.67
744.12	2249.01
744.305	2238.77
744.49	2103.61
744.675	2117.94
744.86	2111.8
745.045	2142.52
745.23	2117.94
745.415	2033.97
745.6	2165.04
745.785	2095.41
745.97	2134.32
746.155	2064.69
746.34	1982.78
746.525	2025.78
746.71	2076.98
746.895	1878.33
747.079	1917.24
747.264	2013.49
747.449	2017.59
747.634	1988.92
747.819	1831.23
748.003	1939.77
748.188	2036.02
748.373	1907
748.557	1886.52
748.742	1886.52
748.927	1880.38
749.111	1933.62
749.296	1886.52
749.481	1798.46
749.665	1892.66
749.85	1700.16
750.034	1841.47
750.219	1820.99
750.404	1829.18
750.588	1843.51
750.773	1788.22
750.957	1823.03
751.141	1745.21
751.326	1814.84
751.51	1782.07
751.695	1804.6
751.879	1685.82
752.064	1681.72
752.248	1620.28
752.432	1687.87
752.617	1687.87
752.801	1683.77
752.985	1554.75
753.17	1595.71
753.354	1638.72
753.538	1608
753.722	1534.27
753.907	1575.23
754.091	1556.8
754.275	1630.52
754.459	1458.5
754.643	1519.93
754.828	1419.58
755.012	1530.17
755.196	1433.92
755.38	1573.18
755.564	1474.88
755.748	1544.51
755.932	1452.35
756.116	1411.39
756.3	1405.25
756.484	1454.4
756.668	1401.15
756.852	1442.11
757.036	1335.62
757.22	1384.77
757.404	1364.29
757.588	1313.09
757.772	1294.66
757.956	1329.47
758.14	1298.75
758.323	1458.5
758.507	1315.14
758.691	1263.94
758.875	1337.66
759.059	1347.9
759.242	1311.04
759.426	1368.38
759.61	1354.05
759.794	1347.9
759.977	1245.51
760.161	1261.89
760.345	1274.18
760.528	1315.14
760.712	1188.16
760.895	1325.38
761.079	1192.26
761.263	1212.74
761.446	1155.4
761.63	1161.54
761.813	1263.94
761.997	1134.92
762.18	1093.96
762.364	1253.7
762.547	1149.25
762.731	1188.16
762.914	1253.7
763.098	1136.96
763.281	1112.39
763.464	1065.29
763.648	1177.92
763.831	1120.58
764.015	1108.29
764.198	1132.87
764.381	1159.49
764.564	1182.02
764.748	1143.11
764.931	1149.25
765.114	1114.44
765.297	1128.77
765.481	1034.57
765.664	1096
765.847	1079.62
766.03	1042.76
766.213	1022.28
766.397	1157.44
766.58	1034.57
766.763	1050.95
766.946	1063.24
767.129	977.22
767.312	1098.05
767.495	999.75
767.678	981.32
767.861	1151.3
768.044	1040.71
768.227	1024.33
768.41	956.74
768.593	1040.71
768.776	1040.71
768.959	985.41
769.142	1124.68
769.324	868.68
769.507	1018.18
769.69	962.89
769.873	1012.04
770.056	1057.09
770.239	989.51
770.421	981.32
770.604	1050.95
770.787	960.84
770.97	938.31
771.152	936.26
771.335	911.69
771.518	840.01
771.7	932.17
771.883	897.35
772.066	981.32
772.248	891.21
772.431	880.97
772.613	936.26
772.796	778.57
772.978	903.5
773.161	999.75
773.343	946.5
773.526	985.41
773.708	837.96
773.891	852.3
774.073	870.73
774.256	969.03
774.438	833.86
774.621	866.63
774.803	827.72
774.985	835.91
775.168	885.06
775.35	835.91
775.532	780.62
775.715	692.55
775.897	917.83
776.079	788.81
776.261	788.81
776.444	760.14
776.626	813.38
776.808	770.38
776.99	725.32
777.173	706.89
777.355	747.85
777.537	766.28
777.719	737.61
777.901	704.84
778.083	710.99
778.265	684.36
778.447	766.28
778.629	659.79
778.811	657.74
778.993	676.17
779.175	680.27
779.357	651.6
779.539	627.02
779.721	751.95
779.903	676.17
780.085	670.03
780.267	633.16
780.449	751.95
780.631	620.88
780.812	594.25
780.994	561.48
781.176	653.64
781.358	647.5
781.54	565.58
781.721	639.31
781.903	598.35
782.085	538.96
782.267	645.45
782.448	518.48
782.63	577.87
782.812	522.57
782.993	618.83
783.175	579.92
783.357	588.11
783.538	532.81
783.72	498
783.901	567.63
784.083	590.16
784.264	524.62
784.446	536.91
784.627	526.67
784.809	524.62
784.99	610.64
785.172	549.2
785.353	487.76
785.535	448.85
785.716	526.67
785.897	479.57
786.079	557.39
786.26	422.22
786.441	541.01
786.623	524.62
786.804	506.19
786.985	471.37
787.167	526.67
787.348	448.85
787.529	457.04
787.71	463.18
787.891	397.65
788.073	438.61
788.254	440.65
788.435	457.04
788.616	452.94
788.797	356.69
788.978	442.7
789.159	428.37
789.34	446.8
789.522	416.08
789.703	422.22
789.884	422.22
790.065	381.26
790.246	393.55
790.427	409.94
790.607	461.13
790.788	371.02
790.969	338.26
791.15	450.89
791.331	358.74
791.512	442.7
791.693	420.17
791.874	430.41
792.054	389.46
792.235	385.36
792.416	391.5
792.597	321.87
792.778	377.17
792.958	362.83
793.139	422.22
793.32	416.08
793.5	375.12
793.681	366.93
793.862	338.26
794.042	346.45
794.223	411.98
794.404	356.69
794.584	321.87
794.765	307.54
794.945	397.65
795.126	307.54
795.306	328.02
795.487	344.4
795.667	293.2
795.848	313.68
796.028	354.64
796.209	307.54
796.389	317.78
796.57	278.87
796.75	301.39
796.93	389.46
797.111	346.45
797.291	264.53
797.471	334.16
797.652	188.75
797.832	250.19
798.012	266.58
798.192	305.49
798.373	268.63
798.553	254.29
798.733	274.77
798.913	227.67
799.093	254.29
799.274	270.67
799.454	289.1
799.634	280.91
799.814	258.39
799.994	325.97
800.174	354.64
800.354	270.67
800.534	201.04
800.714	250.19
800.894	272.72
801.074	297.3
801.254	246.1
801.434	233.81
801.614	137.56
801.794	293.2
801.974	549.2
802.154	295.25
802.334	180.56
802.514	160.08
802.693	242
802.873	278.87
803.053	188.75
803.233	270.67
803.413	196.95
803.592	219.47
803.772	190.8
803.952	295.25
804.131	186.71
804.311	221.52
804.491	223.57
804.67	192.85
804.85	225.62
805.03	282.96
805.209	323.92
805.389	235.86
805.568	196.95
805.748	217.43
805.928	297.3
806.107	258.39
806.287	207.19
806.466	246.1
806.646	276.82
806.825	196.95
807.004	205.14
807.184	221.52
807.363	264.53
807.543	219.47
807.722	166.23
807.901	332.11
808.081	287.06
808.26	184.66
808.439	207.19
808.619	246.1
808.798	233.81
808.977	137.56
809.156	237.91
809.336	248.15
809.515	219.47
809.694	242
809.873	223.57
810.052	213.33
810.231	268.63
810.411	258.39
810.59	168.27
810.769	133.46
810.948	242
811.127	172.37
811.306	221.52
811.485	153.94
811.664	115.03
811.843	178.51
812.022	184.66
812.201	158.03
812.38	188.75
812.559	158.03
812.737	252.24
812.916	139.6
813.095	205.14
813.274	217.43
813.453	147.8
813.632	155.99
813.811	164.18
813.989	102.74
814.168	205.14
814.347	217.43
814.526	133.46
814.704	221.52
814.883	209.23
815.062	172.37
815.24	203.09
815.419	121.17
815.598	164.18
815.776	145.75
815.955	158.03
816.133	102.74
816.312	172.37
816.49	162.13
816.669	160.08
816.847	102.74
817.026	141.65
817.204	80.21
817.383	135.51
817.561	65.88
817.74	192.85
817.918	55.64
818.097	78.16
818.275	178.51
818.453	125.27
818.632	115.03
818.81	127.32
818.988	104.79
819.167	166.23
819.345	84.31
819.523	88.4
819.701	131.41
819.879	133.46
820.058	123.22
820.236	121.17
820.414	98.64
820.592	162.13
820.77	147.8
820.948	131.41
821.127	74.07
821.305	155.99
821.483	110.93
821.661	119.12
821.839	51.54
822.017	147.8
822.195	47.44
822.373	135.51
822.551	127.32
822.729	135.51
822.907	78.16
823.085	139.6
823.262	135.51
823.44	88.4
823.618	59.73
823.796	162.13
823.974	121.17
824.152	182.61
824.329	98.64
824.507	92.5
824.685	106.84
824.863	100.69
825.04	76.12
825.218	133.46
825.396	55.64
825.574	166.23
825.751	123.22
825.929	182.61
826.107	65.88
826.284	115.03
826.462	86.36
826.639	69.97
826.817	127.32
826.994	158.03
827.172	108.88
827.349	168.27
827.527	133.46
827.704	82.26
827.882	141.65
828.059	63.83
828.237	121.17
828.414	135.51
828.591	37.2
828.769	153.94
828.946	123.22
829.124	141.65
829.301	82.26
829.478	149.84
829.655	123.22
829.833	98.64
830.01	96.6
830.187	78.16
830.364	74.07
830.542	76.12
830.719	127.32
830.896	29.01
831.073	80.21
831.25	96.6
831.427	86.36
831.604	121.17
831.782	76.12
831.959	90.45
832.136	78.16
832.313	121.17
832.49	69.97
832.667	106.84
832.844	145.75
833.021	119.12
833.198	29.01
833.374	49.49
833.551	43.35
833.728	59.73
833.905	80.21
834.082	55.64
834.259	106.84
834.436	57.68
834.612	92.5
834.789	49.49
834.966	59.73
835.143	94.55
835.319	67.92
835.496	205.14
835.673	151.89
835.85	61.78
836.026	168.27
836.203	123.22
836.38	37.2
836.556	143.7
836.733	82.26
836.909	61.78
837.086	74.07
837.262	106.84
837.439	104.79
837.616	123.22
837.792	90.45
837.968	45.4
838.145	129.36
838.321	84.31
838.498	129.36
838.674	102.74
838.851	121.17
839.027	69.97
839.203	117.08
839.38	90.45
839.556	82.26
839.732	84.31
839.909	90.45
840.085	41.3
840.261	72.02
840.437	92.5
840.614	-16.04
840.79	168.27
840.966	86.36
841.142	121.17
841.318	16.73
841.494	33.11
841.671	98.64
841.847	-30.38
842.023	69.97
842.199	74.07
842.375	119.12
842.551	90.45
842.727	4.44
842.903	53.59
843.079	55.64
843.255	106.84
843.431	78.16
843.607	92.5
843.783	-20.14
843.959	31.06
844.134	76.12
844.31	88.4
844.486	35.16
844.662	39.25
844.838	80.21
845.013	82.26
845.189	-1.71
845.365	61.78
845.541	-18.09
845.716	98.64
845.892	41.3
846.068	12.63
846.244	59.73
846.419	41.3
846.595	4.44
846.77	20.82
846.946	26.96
847.122	59.73
847.297	12.63
847.473	100.69
847.648	74.07
847.824	26.96
847.999	-13.99
848.175	6.49
848.35	88.4
848.526	55.64
848.701	94.55
848.876	61.78
849.052	69.97
849.227	39.25
849.403	20.82
849.578	67.92
849.753	24.92
849.929	16.73
850.104	82.26
850.279	43.35
850.454	53.59
850.63	55.64
850.805	63.83
850.98	18.77
851.155	78.16
851.33	102.74
851.505	35.16
851.681	82.26
851.856	65.88
852.031	4.44
852.206	6.49
852.381	16.73
852.556	80.21
852.731	49.49
852.906	35.16
853.081	76.12
853.256	6.49
853.431	-13.99
853.606	55.64
853.781	16.73
853.956	61.78
854.131	100.69
854.305	12.63
854.48	4.44
854.655	37.2
854.83	-20.14
855.005	-34.47
855.18	-16.04
855.354	35.16
855.529	-34.47
855.704	35.16
855.879	4.44
856.053	-89.77
856.228	26.96
856.403	-36.52
856.577	-26.28
856.752	6.49
856.926	-24.23
857.101	-13.99
857.276	-5.8
857.45	94.55
857.625	37.2
857.799	18.77
857.974	53.59
858.148	69.97
858.323	41.3
858.497	-5.8
858.672	57.68
858.846	39.25
859.02	43.35
859.195	33.11
859.369	14.68
859.543	80.21
859.718	0.34
859.892	45.4
860.066	37.2
860.241	0.34
860.415	45.4
860.589	-11.95
860.763	51.54
860.938	-7.85
861.112	37.2
861.286	78.16
861.46	49.49
861.634	16.73
861.808	37.2
861.982	-7.85
862.157	-20.14
862.331	24.92
862.505	39.25
862.679	18.77
862.853	47.44
863.027	61.78
863.201	57.68
863.375	24.92
863.549	59.73
863.722	29.01
863.896	92.5
864.07	84.31
864.244	35.16
864.418	18.77
864.592	8.53
864.766	0.34
864.939	55.64
865.113	16.73
865.287	80.21
865.461	-36.52
865.634	65.88
865.808	41.3
865.982	0.34
866.156	20.82
866.329	35.16
866.503	61.78
866.676	8.53
866.85	-20.14
867.024	55.64
867.197	69.97
867.371	53.59
867.544	-50.86
867.718	-18.09
867.891	47.44
868.065	84.31
868.238	80.21
868.412	-3.75
868.585	-7.85
868.759	26.96
868.932	-100.01
869.105	10.58
869.279	29.01
869.452	0.34
869.625	-13.99
869.799	41.3
869.972	14.68
870.145	-38.57
870.319	84.31
870.492	-24.23
870.665	33.11
870.838	-13.99
871.011	2.39
871.185	-11.95
871.358	-5.8
871.531	-54.95
871.704	20.82
871.877	-5.8
872.05	55.64
872.223	4.44
872.396	43.35
872.569	2.39
872.742	12.63
872.915	8.53
873.088	63.83
873.261	57.68
873.434	61.78
873.607	12.63
873.78	65.88
873.953	4.44
874.126	29.01
874.299	-5.8
874.471	29.01
874.644	-44.71
874.817	24.92
874.99	74.07
875.163	-3.75
875.335	49.49
875.508	-32.43
875.681	61.78
875.853	-24.23
876.026	-1.71
876.199	37.2
876.371	106.84
876.544	45.4
876.717	39.25
876.889	24.92
877.062	-48.81
877.234	-54.95
877.407	-57
877.579	39.25
877.752	-22.19
877.924	37.2
878.097	59.73
878.269	35.16
878.442	-3.75
878.614	4.44
878.786	-61.1
878.959	-50.86
879.131	31.06
879.303	6.49
879.476	-7.85
879.648	29.01
879.82	31.06
879.993	-34.47
880.165	63.83
880.337	-32.43
880.509	65.88
880.681	65.88
880.854	14.68
881.026	100.69
881.198	69.97
881.37	8.53
881.542	-28.33
881.714	-30.38
881.886	76.12
882.058	24.92
882.23	0.34
882.402	63.83
882.574	39.25
882.746	-9.9
882.918	82.26
883.09	-50.86
883.262	-3.75
883.434	-79.53
883.606	-30.38
883.778	26.96
883.95	33.11
884.122	31.06
884.293	-3.75
884.465	-11.95
884.637	-26.28
884.809	4.44
884.98	8.53
885.152	-30.38
885.324	47.44
885.496	-83.63
885.667	-1.71
885.839	67.92
886.011	51.54
886.182	-7.85
886.354	35.16
886.525	57.68
886.697	-44.71
886.869	-20.14
887.04	67.92
887.212	14.68
887.383	74.07
887.555	-34.47
887.726	-18.09
887.897	-24.23
888.069	4.44
888.24	-85.67
888.412	65.88
888.583	4.44
888.754	37.2
888.926	20.82
889.097	-44.71
889.268	49.49
889.44	37.2
889.611	31.06
889.782	2.39
889.953	10.58
890.125	39.25
890.296	-7.85
890.467	-24.23
890.638	-20.14
890.809	-11.95
890.98	2.39
891.151	-52.91
891.323	-13.99
891.494	65.88
891.665	-11.95
891.836	31.06
892.007	65.88
892.178	96.6
892.349	-11.95
892.52	35.16
892.691	22.87
892.862	-7.85
893.032	-32.43
893.203	55.64
893.374	63.83
893.545	20.82
893.716	-32.43
893.887	-5.8
894.057	-54.95
894.228	53.59
894.399	-32.43
894.57	90.45
894.74	6.49
894.911	-26.28
895.082	59.73
895.253	-48.81
895.423	-102.06
895.594	10.58
895.764	57.68
895.935	-16.04
896.106	37.2
896.276	35.16
896.447	10.58
896.617	-5.8
896.788	8.53
896.958	-9.9
897.129	-1.71
897.299	33.11
897.47	31.06
897.64	-28.33
897.81	31.06
897.981	8.53
898.151	12.63
898.322	-65.19
898.492	16.73
898.662	-3.75
898.832	16.73
899.003	-7.85
899.173	-1.71
899.343	-3.75
899.513	-67.24
