Data from USB4F104151__299__11-13-10-098.txt Node

Date: Wed Mar 12 11:13:10 EDT 2025
User: louis
Spectrometer: USB4F10415
Trigger mode: 4
Integration Time (sec): 2.000000E-2
Scans to average: 1
Electric dark correction enabled: true
Nonlinearity correction enabled: false
Boxcar width: 0
XAxis mode: Wavelengths
Number of Pixels in Spectrum: 3648
>>>>>Begin Spectral Data<<<<<
178.204	-59.9
178.424	-59.9
178.644	-59.9
178.864	-37.38
179.084	-66.05
179.304	-12.8
179.524	-59.9
179.744	22.02
179.964	38.4
180.184	-4.61
180.404	22.02
180.624	13.82
180.844	15.87
181.064	22.02
181.283	-8.7
181.503	-45.57
181.723	-2.56
181.943	-37.38
182.163	-16.9
182.383	19.97
182.602	85.5
182.822	28.16
183.042	32.26
183.262	24.06
183.482	28.16
183.701	-12.8
183.921	-12.8
184.141	-29.18
184.361	7.68
184.58	-25.09
184.8	3.58
185.02	-55.81
185.239	5.63
185.459	60.93
185.679	-14.85
185.898	-12.8
186.118	-2.56
186.338	24.06
186.557	62.98
186.777	3.58
186.997	-0.51
187.216	-23.04
187.436	65.02
187.655	52.74
187.875	36.35
188.095	-31.23
188.314	42.5
188.534	73.21
188.753	11.78
188.973	22.02
189.192	30.21
189.412	65.02
189.631	-25.09
189.851	11.78
190.07	122.37
190.29	17.92
190.509	-29.18
190.729	17.92
190.948	11.78
191.168	77.31
191.387	56.83
191.607	40.45
191.826	-4.61
192.045	1.54
192.265	-8.7
192.484	58.88
192.704	71.17
192.923	-88.57
193.142	105.98
193.362	-35.33
193.581	-10.75
193.8	77.31
194.02	50.69
194.239	116.22
194.458	-51.71
194.678	-25.09
194.897	30.21
195.116	-0.51
195.335	-31.23
195.555	44.54
195.774	15.87
195.993	40.45
196.212	101.89
196.432	28.16
196.651	7.68
196.87	48.64
197.089	-6.66
197.308	48.64
197.528	58.88
197.747	5.63
197.966	32.26
198.185	32.26
198.404	11.78
198.623	28.16
198.842	28.16
199.062	54.78
199.281	36.35
199.5	7.68
199.719	44.54
199.938	28.16
200.157	50.69
200.376	52.74
200.595	58.88
200.814	40.45
201.033	19.97
201.252	73.21
201.471	-33.28
201.69	67.07
201.909	-51.71
202.128	26.11
202.347	9.73
202.566	67.07
202.785	-14.85
203.004	-33.28
203.223	89.6
203.442	-33.28
203.661	120.32
203.879	-12.8
204.098	81.41
204.317	11.78
204.536	79.36
204.755	-20.99
204.974	69.12
205.193	19.97
205.411	5.63
205.63	52.74
205.849	108.03
206.068	67.07
206.287	-45.57
206.505	30.21
206.724	30.21
206.943	13.82
207.162	11.78
207.381	3.58
207.599	56.83
207.818	11.78
208.037	34.3
208.255	85.5
208.474	28.16
208.693	19.97
208.911	54.78
209.13	67.07
209.349	-25.09
209.567	22.02
209.786	93.69
210.005	105.98
210.223	-8.7
210.442	-6.66
210.661	91.65
210.879	-2.56
211.098	36.35
211.316	15.87
211.535	34.3
211.753	91.65
211.972	22.02
212.191	-16.9
212.409	46.59
212.628	19.97
212.846	56.83
213.065	1.54
213.283	58.88
213.502	15.87
213.72	42.5
213.938	28.16
214.157	7.68
214.375	1.54
214.594	52.74
214.812	32.26
215.031	3.58
215.249	13.82
215.467	30.21
215.686	56.83
215.904	19.97
216.122	38.4
216.341	62.98
216.559	17.92
216.778	9.73
216.996	138.75
217.214	-0.51
217.432	7.68
217.651	-49.66
217.869	22.02
218.087	40.45
218.306	34.3
218.524	73.21
218.742	30.21
218.96	79.36
219.179	-33.28
219.397	34.3
219.615	105.98
219.833	-12.8
220.051	-6.66
220.27	11.78
220.488	38.4
220.706	75.26
220.924	-0.51
221.142	67.07
221.36	77.31
221.578	48.64
221.796	24.06
222.015	-0.51
222.233	30.21
222.451	83.45
222.669	-8.7
222.887	93.69
223.105	11.78
223.323	11.78
223.541	11.78
223.759	36.35
223.977	32.26
224.195	13.82
224.413	40.45
224.631	71.17
224.849	22.02
225.067	-4.61
225.285	1.54
225.503	-2.56
225.721	-29.18
225.939	-10.75
226.157	62.98
226.375	26.11
226.592	-66.05
226.81	28.16
227.028	1.54
227.246	132.61
227.464	46.59
227.682	62.98
227.9	60.93
228.117	22.02
228.335	54.78
228.553	19.97
228.771	7.68
228.989	77.31
229.206	-49.66
229.424	-57.86
229.642	-123.39
229.86	-43.52
230.077	81.41
230.295	58.88
230.513	36.35
230.731	15.87
230.948	-43.52
231.166	77.31
231.384	-4.61
231.601	19.97
231.819	89.6
232.037	83.45
232.254	60.93
232.472	40.45
232.689	97.79
232.907	62.98
233.125	77.31
233.342	30.21
233.56	46.59
233.777	5.63
233.995	40.45
234.213	75.26
234.43	24.06
234.648	11.78
234.865	60.93
235.083	36.35
235.3	24.06
235.518	58.88
235.735	46.59
235.953	65.02
236.17	-20.99
236.388	9.73
236.605	48.64
236.822	60.93
237.04	46.59
237.257	40.45
237.475	1.54
237.692	52.74
237.909	28.16
238.127	32.26
238.344	56.83
238.562	67.07
238.779	-14.85
238.996	34.3
239.214	36.35
239.431	69.12
239.648	48.64
239.865	19.97
240.083	99.84
240.3	36.35
240.517	9.73
240.735	36.35
240.952	15.87
241.169	-41.47
241.386	110.08
241.603	-14.85
241.821	-20.99
242.038	83.45
242.255	-2.56
242.472	5.63
242.689	69.12
242.907	5.63
243.124	3.58
243.341	13.82
243.558	-8.7
243.775	-66.05
243.992	15.87
244.209	97.79
244.426	91.65
244.643	34.3
244.86	-16.9
245.078	32.26
245.295	99.84
245.512	42.5
245.729	32.26
245.946	-8.7
246.163	79.36
246.38	112.13
246.597	-18.94
246.814	-29.18
247.031	11.78
247.248	75.26
247.464	65.02
247.681	46.59
247.898	40.45
248.115	116.22
248.332	34.3
248.549	101.89
248.766	65.02
248.983	60.93
249.2	-31.23
249.417	97.79
249.633	9.73
249.85	46.59
250.067	40.45
250.284	30.21
250.501	-2.56
250.717	75.26
250.934	5.63
251.151	-53.76
251.368	52.74
251.585	44.54
251.801	36.35
252.018	-14.85
252.235	36.35
252.451	60.93
252.668	85.5
252.885	60.93
253.102	24.06
253.318	15.87
253.535	46.59
253.752	36.35
253.968	85.5
254.185	58.88
254.401	-12.8
254.618	-2.56
254.835	48.64
255.051	30.21
255.268	-20.99
255.484	7.68
255.701	65.02
255.917	7.68
256.134	1.54
256.351	46.59
256.567	24.06
256.784	60.93
257	-33.28
257.217	87.55
257.433	26.11
257.65	40.45
257.866	58.88
258.082	69.12
258.299	44.54
258.515	7.68
258.732	46.59
258.948	-25.09
259.165	-6.66
259.381	69.12
259.597	7.68
259.814	36.35
260.03	50.69
260.246	50.69
260.463	17.92
260.679	81.41
260.895	28.16
261.112	89.6
261.328	-4.61
261.544	48.64
261.761	81.41
261.977	-0.51
262.193	7.68
262.409	89.6
262.626	48.64
262.842	38.4
263.058	54.78
263.274	110.08
263.49	83.45
263.707	60.93
263.923	44.54
264.139	38.4
264.355	46.59
264.571	58.88
264.787	24.06
265.004	-0.51
265.22	44.54
265.436	19.97
265.652	81.41
265.868	32.26
266.084	44.54
266.3	38.4
266.516	9.73
266.732	3.58
266.948	3.58
267.164	9.73
267.38	52.74
267.596	46.59
267.812	89.6
268.028	-45.57
268.244	30.21
268.46	15.87
268.676	19.97
268.892	-20.99
269.108	-6.66
269.324	32.26
269.54	15.87
269.756	-10.75
269.972	-29.18
270.188	9.73
270.403	11.78
270.619	32.26
270.835	-37.38
271.051	97.79
271.267	-37.38
271.483	28.16
271.698	52.74
271.914	32.26
272.13	95.74
272.346	11.78
272.562	71.17
272.777	30.21
272.993	7.68
273.209	81.41
273.425	46.59
273.64	122.37
273.856	52.74
274.072	65.02
274.287	17.92
274.503	-2.56
274.719	44.54
274.934	-18.94
275.15	32.26
275.366	65.02
275.581	5.63
275.797	9.73
276.012	36.35
276.228	32.26
276.444	34.3
276.659	34.3
276.875	-20.99
277.09	-20.99
277.306	19.97
277.521	110.08
277.737	3.58
277.952	99.84
278.168	-47.62
278.383	42.5
278.599	95.74
278.814	7.68
279.03	48.64
279.245	81.41
279.461	26.11
279.676	42.5
279.892	17.92
280.107	114.17
280.322	15.87
280.538	132.61
280.753	73.21
280.969	97.79
281.184	87.55
281.399	22.02
281.615	95.74
281.83	50.69
282.045	-10.75
282.26	24.06
282.476	42.5
282.691	5.63
282.906	44.54
283.122	46.59
283.337	38.4
283.552	69.12
283.767	75.26
283.983	42.5
284.198	-16.9
284.413	30.21
284.628	-18.94
284.843	87.55
285.058	30.21
285.274	134.65
285.489	50.69
285.704	-39.42
285.919	52.74
286.134	85.5
286.349	13.82
286.564	38.4
286.779	42.5
286.995	46.59
287.21	-6.66
287.425	105.98
287.64	-6.66
287.855	46.59
288.07	15.87
288.285	75.26
288.5	34.3
288.715	17.92
288.93	13.82
289.145	-27.14
289.36	108.03
289.575	-33.28
289.79	153.09
290.004	77.31
290.219	-43.52
290.434	77.31
290.649	85.5
290.864	75.26
291.079	-6.66
291.294	87.55
291.509	-4.61
291.724	42.5
291.938	5.63
292.153	65.02
292.368	40.45
292.583	19.97
292.798	-53.76
293.012	19.97
293.227	108.03
293.442	75.26
293.657	65.02
293.871	-6.66
294.086	48.64
294.301	38.4
294.516	65.02
294.73	77.31
294.945	81.41
295.16	36.35
295.374	42.5
295.589	83.45
295.804	-39.42
296.018	38.4
296.233	81.41
296.447	58.88
296.662	13.82
296.877	69.12
297.091	30.21
297.306	75.26
297.52	-8.7
297.735	19.97
297.949	36.35
298.164	67.07
298.378	58.88
298.593	-27.14
298.807	46.59
299.022	112.13
299.236	95.74
299.451	85.5
299.665	26.11
299.88	71.17
300.094	85.5
300.309	3.58
300.523	-8.7
300.737	13.82
300.952	77.31
301.166	46.59
301.381	46.59
301.595	30.21
301.809	56.83
302.024	26.11
302.238	38.4
302.452	28.16
302.667	-0.51
302.881	32.26
303.095	110.08
303.309	7.68
303.524	36.35
303.738	28.16
303.952	-51.71
304.166	83.45
304.381	7.68
304.595	83.45
304.809	15.87
305.023	38.4
305.237	19.97
305.452	36.35
305.666	58.88
305.88	52.74
306.094	75.26
306.308	40.45
306.522	65.02
306.736	60.93
306.95	36.35
307.164	-55.81
307.379	9.73
307.593	17.92
307.807	97.79
308.021	42.5
308.235	44.54
308.449	85.5
308.663	60.93
308.877	62.98
309.091	34.3
309.305	62.98
309.519	15.87
309.733	91.65
309.947	-18.94
310.161	54.78
310.374	11.78
310.588	52.74
310.802	40.45
311.016	24.06
311.23	42.5
311.444	17.92
311.658	32.26
311.872	157.18
312.085	44.54
312.299	48.64
312.513	42.5
312.727	26.11
312.941	42.5
313.154	124.41
313.368	9.73
313.582	38.4
313.796	-14.85
314.009	60.93
314.223	-0.51
314.437	69.12
314.651	28.16
314.864	60.93
315.078	-45.57
315.292	46.59
315.505	-10.75
315.719	75.26
315.933	58.88
316.146	28.16
316.36	42.5
316.573	36.35
316.787	71.17
317.001	60.93
317.214	26.11
317.428	48.64
317.641	19.97
317.855	81.41
318.068	-61.95
318.282	46.59
318.495	67.07
318.709	3.58
318.922	-20.99
319.136	46.59
319.349	138.75
319.563	-41.47
319.776	7.68
319.99	28.16
320.203	-4.61
320.417	71.17
320.63	46.59
320.843	69.12
321.057	34.3
321.27	-72.19
321.483	26.11
321.697	87.55
321.91	28.16
322.124	97.79
322.337	65.02
322.55	62.98
322.763	32.26
322.977	71.17
323.19	-12.8
323.403	36.35
323.617	83.45
323.83	87.55
324.043	93.69
324.256	-20.99
324.469	28.16
324.683	85.5
324.896	36.35
325.109	13.82
325.322	97.79
325.535	11.78
325.748	89.6
325.962	69.12
326.175	44.54
326.388	56.83
326.601	91.65
326.814	-4.61
327.027	58.88
327.24	50.69
327.453	-94.72
327.666	1.54
327.879	-0.51
328.092	56.83
328.305	13.82
328.518	58.88
328.731	56.83
328.944	-16.9
329.157	32.26
329.37	65.02
329.583	81.41
329.796	52.74
330.009	-31.23
330.222	83.45
330.435	24.06
330.648	32.26
330.861	9.73
331.073	30.21
331.286	11.78
331.499	75.26
331.712	15.87
331.925	79.36
332.138	81.41
332.35	73.21
332.563	48.64
332.776	87.55
332.989	44.54
333.202	32.26
333.414	11.78
333.627	34.3
333.84	-16.9
334.053	46.59
334.265	81.41
334.478	50.69
334.691	30.21
334.903	42.5
335.116	32.26
335.329	3.58
335.541	138.75
335.754	130.56
335.966	60.93
336.179	26.11
336.392	75.26
336.604	-47.62
336.817	17.92
337.029	73.21
337.242	32.26
337.454	97.79
337.667	-0.51
337.88	89.6
338.092	17.92
338.305	56.83
338.517	-8.7
338.729	46.59
338.942	34.3
339.154	-37.38
339.367	9.73
339.579	36.35
339.792	34.3
340.004	91.65
340.217	-14.85
340.429	101.89
340.641	69.12
340.854	28.16
341.066	50.69
341.278	-6.66
341.491	40.45
341.703	19.97
341.915	-18.94
342.128	54.78
342.34	62.98
342.552	58.88
342.764	38.4
342.977	36.35
343.189	5.63
343.401	9.73
343.613	-12.8
343.826	9.73
344.038	11.78
344.25	46.59
344.462	-33.28
344.674	-6.66
344.886	40.45
345.099	22.02
345.311	71.17
345.523	17.92
345.735	42.5
345.947	30.21
346.159	19.97
346.371	11.78
346.583	11.78
346.795	95.74
347.007	93.69
347.219	116.22
347.431	1.54
347.643	-14.85
347.855	30.21
348.067	56.83
348.279	42.5
348.491	34.3
348.703	24.06
348.915	75.26
349.127	34.3
349.339	38.4
349.551	32.26
349.763	50.69
349.975	44.54
350.187	36.35
350.399	-47.62
350.61	15.87
350.822	116.22
351.034	13.82
351.246	34.3
351.458	62.98
351.669	52.74
351.881	75.26
352.093	77.31
352.305	75.26
352.517	46.59
352.728	163.33
352.94	24.06
353.152	26.11
353.363	26.11
353.575	40.45
353.787	83.45
353.999	58.88
354.21	11.78
354.422	26.11
354.633	122.37
354.845	-0.51
355.057	34.3
355.268	17.92
355.48	44.54
355.692	52.74
355.903	44.54
356.115	28.16
356.326	1.54
356.538	110.08
356.749	32.26
356.961	42.5
357.172	50.69
357.384	36.35
357.595	7.68
357.807	93.69
358.018	26.11
358.23	77.31
358.441	22.02
358.653	73.21
358.864	32.26
359.075	26.11
359.287	69.12
359.498	52.74
359.709	52.74
359.921	-0.51
360.132	56.83
360.344	99.84
360.555	19.97
360.766	132.61
360.977	-41.47
361.189	140.8
361.4	19.97
361.611	-6.66
361.823	65.02
362.034	62.98
362.245	89.6
362.456	65.02
362.667	65.02
362.879	40.45
363.09	77.31
363.301	1.54
363.512	48.64
363.723	-29.18
363.935	50.69
364.146	116.22
364.357	28.16
364.568	93.69
364.779	-47.62
364.99	11.78
365.201	28.16
365.412	48.64
365.623	48.64
365.834	32.26
366.045	118.27
366.256	108.03
366.467	32.26
366.678	32.26
366.889	44.54
367.1	65.02
367.311	73.21
367.522	75.26
367.733	24.06
367.944	56.83
368.155	105.98
368.366	7.68
368.577	67.07
368.788	52.74
368.999	5.63
369.209	50.69
369.42	83.45
369.631	87.55
369.842	1.54
370.053	60.93
370.264	89.6
370.474	85.5
370.685	28.16
370.896	44.54
371.107	60.93
371.317	50.69
371.528	71.17
371.739	58.88
371.95	3.58
372.16	34.3
372.371	32.26
372.582	103.93
372.792	128.51
373.003	3.58
373.214	32.26
373.424	-25.09
373.635	54.78
373.846	140.8
374.056	19.97
374.267	26.11
374.477	77.31
374.688	-51.71
374.898	32.26
375.109	73.21
375.319	9.73
375.53	91.65
375.74	75.26
375.951	120.32
376.161	114.17
376.372	65.02
376.582	73.21
376.793	62.98
377.003	110.08
377.214	26.11
377.424	58.88
377.635	34.3
377.845	40.45
378.055	24.06
378.266	-0.51
378.476	44.54
378.686	3.58
378.897	9.73
379.107	38.4
379.317	54.78
379.528	67.07
379.738	50.69
379.948	65.02
380.158	-70.14
380.369	5.63
380.579	58.88
380.789	85.5
380.999	52.74
381.21	9.73
381.42	93.69
381.63	48.64
381.84	134.65
382.05	3.58
382.261	9.73
382.471	24.06
382.681	32.26
382.891	69.12
383.101	99.84
383.311	48.64
383.521	60.93
383.731	17.92
383.941	32.26
384.151	40.45
384.361	17.92
384.571	7.68
384.781	85.5
384.991	103.93
385.201	99.84
385.411	26.11
385.621	69.12
385.831	42.5
386.041	73.21
386.251	38.4
386.461	-4.61
386.671	81.41
386.881	50.69
387.091	-31.23
387.301	67.07
387.511	40.45
387.72	22.02
387.93	52.74
388.14	97.79
388.35	24.06
388.56	77.31
388.769	28.16
388.979	62.98
389.189	34.3
389.399	52.74
389.609	44.54
389.818	28.16
390.028	95.74
390.238	15.87
390.447	89.6
390.657	38.4
390.867	13.82
391.076	19.97
391.286	44.54
391.496	83.45
391.705	-31.23
391.915	101.89
392.125	44.54
392.334	81.41
392.544	67.07
392.753	7.68
392.963	75.26
393.172	46.59
393.382	65.02
393.591	118.27
393.801	32.26
394.01	77.31
394.22	75.26
394.429	89.6
394.639	52.74
394.848	91.65
395.058	110.08
395.267	93.69
395.477	83.45
395.686	69.12
395.895	136.7
396.105	110.08
396.314	75.26
396.524	-8.7
396.733	155.13
396.942	136.7
397.152	89.6
397.361	105.98
397.57	118.27
397.78	93.69
397.989	101.89
398.198	93.69
398.407	13.82
398.617	99.84
398.826	34.3
399.035	83.45
399.244	114.17
399.453	167.42
399.663	81.41
399.872	69.12
400.081	151.04
400.29	93.69
400.499	73.21
400.708	146.94
400.917	128.51
401.127	142.85
401.336	73.21
401.545	128.51
401.754	140.8
401.963	114.17
402.172	87.55
402.381	77.31
402.59	108.03
402.799	114.17
403.008	220.67
403.217	105.98
403.426	134.65
403.635	169.47
403.844	136.7
404.053	157.18
404.262	126.46
404.471	175.61
404.68	142.85
404.888	192
405.097	210.43
405.306	192
405.515	151.04
405.724	136.7
405.933	192
406.142	87.55
406.35	179.71
406.559	116.22
406.768	87.55
406.977	179.71
407.185	189.95
407.394	177.66
407.603	161.28
407.812	232.96
408.02	187.9
408.229	151.04
408.438	251.39
408.646	185.85
408.855	298.49
409.064	220.67
409.272	202.24
409.481	241.15
409.69	204.28
409.898	206.33
410.107	329.21
410.315	306.68
410.524	364.03
410.733	464.38
410.941	310.78
411.15	321.02
411.358	386.55
411.567	353.79
411.775	396.79
411.984	374.27
412.192	415.23
412.401	423.42
412.609	402.94
412.818	450.04
413.026	421.37
413.234	429.56
413.443	404.99
413.651	488.95
413.86	544.25
414.068	562.68
414.276	640.5
414.485	534.01
414.693	523.77
414.901	634.36
415.11	699.89
415.318	660.98
415.526	650.74
415.734	753.14
415.943	675.32
416.151	740.85
416.359	785.91
416.567	816.63
416.776	837.11
416.984	861.68
417.192	859.63
417.4	904.69
417.608	876.02
417.817	953.84
418.025	1025.52
418.233	1046
418.441	957.94
418.649	947.7
418.857	1132.01
419.065	1220.08
419.273	1164.78
419.481	1232.37
419.689	1302
419.897	1332.72
420.105	1330.67
420.313	1367.53
420.521	1506.79
420.729	1426.92
420.937	1517.03
421.145	1656.29
421.353	1713.64
421.561	1699.3
421.769	1740.26
421.977	2008.55
422.185	1904.1
422.393	1924.58
422.601	2088.42
422.809	2059.74
423.017	2055.65
423.224	2201.05
423.432	2289.12
423.64	2239.97
423.848	2399.71
424.056	2293.21
424.263	2592.22
424.471	2557.4
424.679	2493.91
424.887	2686.42
425.094	2819.54
425.302	2960.85
425.51	2915.8
425.718	3112.4
425.925	3098.06
426.133	3309.01
426.341	3429.84
426.548	3468.75
426.756	3378.64
426.964	3513.8
427.171	3888.58
427.379	3966.4
427.586	4056.51
427.794	4056.51
428.001	4218.3
428.209	4525.5
428.417	4476.35
428.624	4697.53
428.832	4709.82
429.039	4597.18
429.247	4662.71
429.454	5283.25
429.662	5510.57
429.869	4996.53
430.076	5516.72
430.284	5334.45
430.491	5596.59
430.699	5819.82
430.906	5918.12
431.114	5967.27
431.321	6133.15
431.528	6237.6
431.736	6415.77
431.943	7019.92
432.15	6851.99
432.358	7075.22
432.565	7204.24
432.772	7218.58
432.979	7552.4
433.187	7675.27
433.394	7824.78
433.601	8318.34
433.808	8275.33
434.016	8320.39
434.223	8586.62
434.43	9196.92
434.637	8869.24
434.844	9637.23
435.052	9710.96
435.259	9745.77
435.466	9602.41
435.673	9741.68
435.88	10425.7
436.087	10628.45
436.294	10872.15
436.501	10413.41
436.708	10607.97
436.915	11240.79
437.122	11572.56
437.329	11658.57
437.537	11695.44
437.743	12152.13
437.95	12143.94
438.157	12827.96
438.364	13090.1
438.571	13108.54
438.778	13051.19
438.985	14316.84
439.192	13487.41
439.399	14210.34
439.606	14052.65
439.813	14589.22
440.02	15488.28
440.227	15244.57
440.433	15187.22
440.64	15871.25
440.847	15529.24
441.054	15877.39
441.261	16968.96
441.467	16635.14
441.674	17046.78
441.881	17640.69
442.088	17763.57
442.294	17587.44
442.501	18152.68
442.708	18447.59
442.914	19119.32
443.121	19692.76
443.328	19156.19
443.534	20653.25
443.741	20227.28
443.948	19881.17
444.154	21537.98
444.361	20933.82
444.568	21392.57
444.774	21396.67
444.981	21566.65
445.187	22377.64
445.394	23268.51
445.6	22772.9
445.807	24943.75
446.013	23899.28
446.22	24407.18
446.426	25760.89
446.633	25502.84
446.839	26295.41
447.046	25058.43
447.252	26877.03
447.459	27118.69
447.665	26459.24
447.871	27931.73
448.078	28709.96
448.284	27579.48
448.491	28537.93
448.697	29576.25
448.903	30104.63
449.11	30170.16
449.316	29627.45
449.522	29922.36
449.728	30944.3
449.935	30712.88
450.141	30903.34
450.347	31718.43
450.553	30639.15
450.76	31360.03
450.966	32224.28
451.172	31591.45
451.378	32373.78
451.584	32054.29
451.791	32597.01
451.997	32093.21
452.203	33065.99
452.409	33139.72
452.615	32977.93
452.821	31704.09
453.027	31052.84
453.233	32994.31
453.44	31437.86
453.646	32166.93
453.852	32115.73
454.058	32498.7
454.264	31353.89
454.47	32279.57
454.676	31450.14
454.882	32521.23
455.088	29709.37
455.294	30032.95
455.5	30395.44
455.705	30587.95
455.911	29158.47
456.117	29217.86
456.323	28906.57
456.529	27067.49
456.735	28314.7
456.941	27438.17
457.147	26938.47
457.352	26301.55
457.558	25681.02
457.764	26115.19
457.97	25412.73
458.176	24970.37
458.381	24863.88
458.587	23798.93
458.793	23610.52
458.999	22539.43
459.204	24224.91
459.41	23342.24
459.616	21742.77
459.821	21802.16
460.027	21746.87
460.233	21537.98
460.438	20350.15
460.644	20434.12
460.85	19772.63
461.055	19344.6
461.261	19289.31
461.466	17806.58
461.672	17292.54
461.878	18506.98
462.083	17562.87
462.289	16952.57
462.494	16661.76
462.7	16102.67
462.905	15783.18
463.111	15820.05
463.316	16268.55
463.522	15752.46
463.727	15985.93
463.932	16030.99
464.138	15748.37
464.343	15699.22
464.549	15648.02
464.754	16225.54
464.959	15676.69
465.165	15725.84
465.37	14992.67
465.575	14531.87
465.781	15156.5
465.986	15353.11
466.191	14863.65
466.397	14347.56
466.602	14030.12
466.807	14333.22
467.012	14427.43
467.218	14109.99
467.423	14146.86
467.628	14216.49
467.833	14744.86
468.038	14009.64
468.244	13712.69
468.449	14427.43
468.654	13878.57
468.859	13767.98
469.064	13602.1
469.269	13090.1
469.474	13399.35
469.679	13374.77
469.885	13206.84
470.09	13430.07
470.295	13155.64
470.5	12952.89
470.705	13047.1
470.91	12768.57
471.115	12516.67
471.32	12713.28
471.525	12703.04
471.73	12406.08
471.935	12313.92
472.139	11992.39
472.344	11996.49
472.549	11986.25
472.754	11945.29
472.959	11560.27
473.164	11277.65
473.369	11302.23
473.574	11640.14
473.778	11398.48
473.983	11410.77
474.188	11234.64
474.393	10870.11
474.598	10759.52
474.802	10581.34
475.007	10571.1
475.212	10958.17
475.417	10472.8
475.621	10214.76
475.826	10284.39
476.031	10050.92
476.235	10042.73
476.44	10022.25
476.645	9897.32
476.849	10069.35
477.054	9850.22
477.259	9723.24
477.463	9723.24
477.668	9368.95
477.872	9604.46
478.077	9305.46
478.282	9225.59
478.486	9061.75
478.691	8883.58
478.895	9016.69
479.1	8897.91
479.304	8863.1
479.509	8701.31
479.713	9004.41
479.918	8764.79
480.122	8508.8
480.326	8785.27
480.531	8846.71
480.735	8379.78
480.94	8408.45
481.144	8717.69
481.348	8269.19
481.553	8449.41
481.757	8271.23
481.961	8525.18
482.166	8437.12
482.37	8453.5
482.574	8306.05
482.778	8220.03
482.983	8502.65
483.187	8136.07
483.391	8455.55
483.595	8525.18
483.8	8332.67
484.004	8541.57
484.208	8260.99
484.412	8467.84
484.616	8256.9
484.821	8361.34
485.025	8199.55
485.229	8482.17
485.433	8203.65
485.637	8414.59
485.841	8191.36
486.045	8428.93
486.249	8138.12
486.453	8138.12
486.657	8420.74
486.861	8301.95
487.065	8072.58
487.269	8267.14
487.473	8189.32
487.677	8342.91
487.881	8277.38
488.085	8201.6
488.289	8267.14
488.493	8158.6
488.697	8279.43
488.901	8304
489.105	8265.09
489.309	8564.09
489.512	8463.74
489.716	8412.54
489.92	8453.5
490.124	8324.48
490.328	8418.69
490.531	8340.86
490.735	8658.3
490.939	8674.68
491.143	8691.07
491.346	8471.93
491.55	8611.2
491.754	8504.7
491.958	8693.12
492.161	8781.18
492.365	8662.4
492.569	8738.17
492.772	8740.22
492.976	8859
493.18	9020.79
493.383	8965.5
493.587	8955.26
493.79	9127.28
493.994	8949.11
494.197	9096.57
494.401	9061.75
494.605	9172.34
494.808	9368.95
495.012	9309.55
495.215	9334.13
495.419	9577.84
495.622	9563.5
495.825	9438.58
496.029	9655.66
496.232	9919.85
496.436	9569.65
496.639	10050.92
496.843	10061.16
497.046	10339.68
497.249	10235.24
497.453	10108.26
497.656	10388.83
497.859	10403.17
498.063	10800.48
498.266	10753.37
498.469	10560.86
498.673	10827.1
498.876	10995.03
499.079	11158.87
499.282	11054.42
499.485	11230.55
499.689	11466.07
499.892	11603.28
500.095	11736.4
500.298	12000.58
500.501	11898.19
500.705	11881.8
500.908	12115.27
501.111	12307.78
501.314	12576.06
501.517	12686.65
501.72	12598.59
501.923	12830.01
502.126	12852.54
502.329	13339.96
502.532	13188.41
502.735	13172.02
502.938	13456.69
503.141	13657.39
503.344	14009.64
503.547	13755.69
503.75	14136.62
503.953	14310.69
504.156	14441.76
504.359	14515.49
504.562	14679.33
504.765	15031.58
504.968	15191.32
505.17	15283.48
505.373	15310.1
505.576	15478.04
505.779	15787.28
505.982	15977.74
506.185	16127.24
506.387	16272.65
506.59	16342.28
506.793	16639.23
506.996	16381.19
507.198	17085.69
507.401	17001.72
507.604	17251.58
507.807	17442.04
508.009	17784.05
508.212	17503.48
508.415	18087.15
508.617	18308.33
508.82	17900.78
509.022	17954.03
509.225	18662.63
509.428	18793.7
509.63	19088.6
509.833	19035.36
510.035	19424.47
510.238	19440.86
510.44	19420.38
510.643	19705.04
510.845	20233.42
511.048	19897.55
511.25	20092.11
511.453	20307.15
511.655	20929.73
511.858	20974.78
512.06	20974.78
512.262	21218.49
512.465	21513.4
512.667	21906.61
512.87	22002.86
513.072	21853.36
513.274	22224.04
513.477	22588.58
513.679	22738.09
513.881	23069.86
514.084	22918.31
514.286	23239.84
514.488	23272.6
514.69	24050.83
514.893	23936.15
515.095	23868.56
515.297	24243.34
515.499	24247.44
515.701	24945.8
515.904	25169.02
516.106	25353.34
516.308	25488.51
516.51	25734.26
516.712	25648.25
516.914	25994.36
517.116	26383.47
517.318	26719.34
517.52	26645.61
517.722	26688.62
517.925	27409.5
518.127	27653.21
518.329	27700.31
518.531	27634.78
518.733	28095.57
518.935	28535.88
519.136	27804.76
519.338	28812.36
519.54	28763.21
519.742	29207.62
519.944	29209.67
520.146	29496.38
520.348	29482.05
520.55	30100.53
520.752	30094.39
520.954	30583.85
521.155	30233.65
521.357	30692.4
521.559	30950.44
521.761	31511.58
521.963	31247.4
522.164	31693.85
522.366	32037.91
522.568	32148.5
522.77	31861.79
522.971	33068.04
523.173	32201.75
523.375	32689.17
523.576	32758.8
523.778	32646.16
523.98	33162.25
524.181	33065.99
524.383	33399.81
524.584	33678.33
524.786	33987.58
524.988	33731.58
525.189	34122.74
525.391	34227.19
525.592	34534.39
525.794	34659.31
525.995	34182.13
526.197	34685.93
526.398	34368.5
526.6	35079.14
526.801	35214.31
527.003	35242.98
527.204	35879.9
527.406	35513.31
527.607	35408.87
527.808	35873.76
528.01	35304.42
528.211	35550.18
528.412	36119.51
528.614	36193.24
528.815	35941.34
529.016	36680.66
529.218	36096.99
529.419	36445.14
529.62	36512.72
529.822	36273.11
530.023	36692.94
530.224	36883.41
530.425	36617.17
530.626	36117.46
530.828	36242.39
531.029	37137.35
531.23	36631.51
531.431	37088.2
531.632	37014.48
531.833	36979.66
532.035	37231.56
532.236	37227.46
532.437	37106.63
532.638	36905.93
532.839	37473.22
533.04	37508.04
533.241	36965.32
533.442	37770.18
533.643	37813.18
533.844	37639.11
534.045	37282.76
534.246	37086.15
534.447	37428.16
534.648	37247.94
534.849	37465.03
535.05	37303.24
535.251	37624.77
535.451	37340.1
535.652	37239.75
535.853	37235.66
536.054	37520.32
536.255	37467.08
536.456	37311.43
536.657	38042.56
536.857	37540.8
537.058	37307.33
537.259	37782.46
537.46	37338.05
537.66	37301.19
537.861	37497.8
538.062	37649.35
538.263	37637.06
538.463	36934.6
538.664	37358.53
538.865	37288.9
539.065	37616.58
539.266	37424.07
539.466	37854.14
539.667	37297.09
539.868	37669.83
540.068	37614.53
540.269	37475.27
540.469	37655.49
540.67	37127.11
540.87	37413.83
541.071	37403.59
541.271	37516.23
541.472	37389.25
541.672	37452.74
541.873	37133.26
542.073	36795.34
542.274	37632.96
542.474	37610.43
542.675	37247.94
542.875	37737.41
543.075	37319.62
543.276	36795.34
543.476	37788.61
543.676	37057.48
543.877	37432.26
544.077	37364.68
544.277	37317.57
544.478	37163.98
544.678	37510.08
544.878	36869.07
545.078	37514.18
545.279	36729.81
545.479	37225.42
545.679	37692.35
545.879	36932.56
546.079	37317.57
546.28	36934.6
546.48	36778.96
546.68	37346.25
546.88	36787.15
547.08	37327.81
547.28	37180.36
547.48	36795.34
547.68	37039.05
547.88	36918.22
548.081	37155.79
548.281	37139.4
548.481	36938.7
548.681	37278.66
548.881	37168.07
549.081	36864.97
549.28	37039.05
549.48	37110.73
549.68	36901.84
549.88	37364.68
550.08	36803.53
550.28	37188.55
550.48	37041.1
550.68	37098.44
550.88	36772.81
551.08	37041.1
551.279	36907.98
551.479	36719.57
551.679	37010.38
551.879	36830.16
552.079	36916.17
552.278	36791.25
552.478	36576.21
552.678	36973.52
552.878	37155.79
553.077	36549.59
553.277	36539.35
553.477	36946.89
553.676	36377.56
553.876	36860.88
554.076	36883.41
554.275	36738
554.475	36320.21
554.674	36987.85
554.874	36713.42
555.074	36297.69
555.273	36635.6
555.473	36525.01
555.672	36621.27
555.872	36361.17
556.071	36615.12
556.271	36754.38
556.47	36529.11
556.67	36350.93
556.869	36041.69
557.068	36373.46
557.268	35898.33
557.467	36338.65
557.667	36221.91
557.866	36371.41
558.065	36221.91
558.265	35558.37
558.464	35886.04
558.663	35845.09
558.863	35761.12
559.062	36328.41
559.261	35574.75
559.461	36137.94
559.66	35288.04
559.859	35834.85
560.058	35533.79
560.258	35675.1
560.457	35335.14
560.656	35533.79
560.855	35380.2
561.054	35419.11
561.253	35294.18
561.453	35347.43
561.652	35273.7
561.851	35648.48
562.05	35316.71
562.249	34661.36
562.448	35345.38
562.647	34733.04
562.846	35331.04
563.045	34677.74
563.244	34522.1
563.443	35058.67
563.642	34405.36
563.841	35068.9
564.04	34321.4
564.239	34835.44
564.438	34683.89
564.637	34796.53
564.836	34434.03
565.035	34235.38
565.234	34698.22
565.432	34290.68
565.631	34100.22
565.83	34253.81
566.029	33872.89
566.228	34024.44
566.427	34073.59
566.625	33821.69
566.824	33539.07
567.023	33846.27
567.222	33334.28
567.42	33891.32
567.619	33530.88
567.818	33201.16
568.016	33291.27
568.215	33557.5
568.414	33250.31
568.612	33924.09
568.811	33258.5
569.01	33307.65
569.208	32699.41
569.407	33504.26
569.605	33010.7
569.804	32967.69
570.002	32570.38
570.201	33068.04
570.4	32726.03
570.598	32525.33
570.797	32314.39
570.995	32338.96
571.193	32183.32
571.392	32662.54
571.59	32156.69
571.789	31872.03
571.987	32193.56
572.186	32345.11
572.384	32199.7
572.582	31820.83
572.781	32230.42
572.979	31427.62
573.177	31663.13
573.376	31616.03
573.574	31124.52
573.772	31593.5
573.971	31667.23
574.169	31208.48
574.367	30858.28
574.565	31349.79
574.763	31192.1
574.962	31282.21
575.16	31052.84
575.358	30833.71
575.556	30465.07
575.754	31261.73
575.952	30874.66
576.151	30737.45
576.349	30538.8
576.547	30608.43
576.745	30209.08
576.943	30473.26
577.141	30307.38
577.339	30391.34
577.537	30071.86
577.735	30288.95
577.933	30022.71
578.131	30080.05
578.329	29789.24
578.527	29672.51
578.725	29815.87
578.923	29834.3
579.121	29488.19
579.319	29422.66
579.516	29783.1
579.714	29453.37
579.912	29615.16
580.11	29611.07
580.308	29252.67
580.506	29166.66
580.704	28695.63
580.901	29447.23
581.099	29355.07
581.297	28826.7
581.495	28750.92
581.692	29422.66
581.89	28558.41
582.088	28828.74
582.285	28779.59
582.483	28513.36
582.681	28884.04
582.878	28697.67
583.076	28060.76
583.274	28370
583.471	28099.67
583.669	28036.18
583.866	28079.19
584.064	28210.26
584.262	28003.41
584.459	28005.46
584.657	27518.04
584.854	28202.07
585.052	27354.21
585.249	27743.32
585.447	27389.02
585.644	27094.11
585.841	27341.92
586.039	27630.68
586.236	27104.35
586.434	26936.42
586.631	27247.71
586.828	26973.28
587.026	26963.04
587.223	26782.82
587.42	26543.21
587.618	26760.3
587.815	26440.81
588.012	26506.35
588.21	26463.34
588.407	26479.72
588.604	26365.04
588.801	26295.41
588.999	26330.22
589.196	26262.64
589.393	26102.9
589.59	25957.49
589.787	25582.71
589.984	25898.1
590.182	25764.98
590.379	25869.43
590.576	25418.88
590.773	25513.08
590.97	25416.83
591.167	25539.71
591.364	25148.54
591.561	25595
591.758	24978.56
591.955	24968.32
592.152	25148.54
592.349	25158.78
592.546	24870.02
592.743	25087.11
592.94	24609.93
593.137	24829.06
593.334	24896.64
593.531	24448.14
593.727	24673.42
593.924	24392.84
594.121	24429.71
594.318	24734.85
594.515	24138.9
594.712	24403.08
594.908	23606.42
595.105	24091.79
595.302	23975.06
595.499	24382.6
595.696	23737.49
595.892	23671.96
596.089	23653.53
596.286	24022.16
596.482	23567.51
596.679	23745.69
596.876	23508.12
597.072	23229.6
597.269	23256.22
597.466	22828.2
597.662	23162.01
597.859	23319.71
598.055	22928.55
598.252	22750.37
598.448	23137.44
598.645	23012.51
598.841	22723.75
599.038	22944.93
599.234	22787.24
599.431	22543.53
599.627	22199.47
599.824	22629.54
600.02	22246.57
600.217	22348.97
600.413	22152.37
600.609	22152.37
600.806	22240.43
601.002	22459.56
601.198	22189.23
601.395	21716.15
601.591	21734.58
601.787	21773.49
601.984	21726.39
602.18	22156.46
602.376	21355.71
602.572	21755.06
602.769	21415.1
602.965	21470.39
603.161	21488.82
603.357	21533.88
603.553	21179.58
603.75	21585.08
603.946	21099.71
604.142	21423.29
604.338	21034.18
604.534	21038.27
604.73	20982.98
604.926	20878.53
605.122	20968.64
605.318	20866.24
605.514	20530.37
605.71	20493.51
605.906	20939.97
606.102	20194.51
606.298	20698.31
606.494	20155.6
606.69	20462.79
606.886	20442.31
607.082	19850.45
607.278	20485.32
607.474	20030.67
607.67	20163.79
607.866	19928.27
608.062	20366.54
608.257	19983.57
608.453	19924.18
608.649	20106.45
608.845	20022.48
609.041	19950.8
609.236	19891.41
609.432	19825.87
609.628	19537.11
609.824	19668.18
610.019	19602.64
610.215	19551.45
610.411	19526.87
610.606	19483.86
610.802	19533.01
610.998	19403.99
611.193	19385.56
611.389	19467.48
611.584	19516.63
611.78	19086.56
611.976	19516.63
612.171	19248.35
612.367	19080.41
612.562	19010.78
612.758	18859.23
612.953	18701.54
613.149	19057.89
613.344	18889.95
613.539	19328.22
613.735	19199.2
613.93	18838.75
614.126	19016.93
614.321	18920.67
614.517	18640.1
614.712	18943.2
614.907	18750.69
615.103	18820.32
615.298	18672.87
615.493	18754.79
615.688	18701.54
615.884	18746.59
616.079	18728.16
616.274	18896.1
616.47	18746.59
616.665	18537.7
616.86	18293.99
617.055	18574.56
617.25	18347.24
617.445	18447.59
617.641	18083.05
617.836	18246.89
618.031	17900.78
618.226	18220.27
618.421	18033.9
618.616	18324.71
618.811	17632.5
619.006	17880.3
619.201	17700.08
619.396	17937.65
619.591	17304.82
619.786	17644.79
619.981	17362.17
620.176	17411.32
620.371	17491.19
620.566	17466.61
620.761	17265.91
620.956	17097.98
621.151	17028.35
621.346	17304.82
621.541	16682.24
621.735	17351.93
621.93	16575.75
622.125	16899.33
622.32	16778.5
622.515	16860.41
622.709	16575.75
622.904	16405.77
623.099	16344.33
623.294	16274.7
623.488	15942.92
623.683	16162.06
623.878	15947.02
624.072	16108.81
624.267	15867.15
624.462	15971.6
624.656	15791.38
624.851	15705.36
625.046	15375.64
625.24	15320.34
625.435	15543.57
625.629	15418.64
625.824	15346.97
626.018	15166.74
626.213	14968.09
626.407	15017.24
626.602	14826.78
626.796	15013.15
626.991	14685.47
627.185	14763.29
627.38	14517.54
627.574	14535.97
627.768	14570.79
627.963	14398.76
628.157	14370.08
628.352	14169.38
628.546	13933.87
628.74	14089.51
628.935	13907.24
629.129	14030.12
629.323	13612.34
629.517	13751.6
629.712	13684.02
629.906	13606.19
630.1	13438.26
630.294	13483.31
630.489	13378.87
630.683	13514.03
630.877	13264.18
631.071	13155.64
631.265	13182.26
631.459	13045.05
631.653	12932.41
631.848	12916.03
632.042	12961.08
632.236	13081.91
632.43	12727.61
632.624	12408.13
632.818	12762.43
633.012	12492.1
633.206	12383.56
633.4	12346.69
633.594	12406.08
633.788	12080.46
633.982	12088.65
634.176	12299.59
634.369	12100.94
634.563	12109.13
634.757	11957.58
634.951	12111.18
635.145	11754.83
635.339	11828.56
635.533	11793.74
635.726	11693.39
635.92	11537.74
636.114	11685.2
636.308	11472.21
636.501	11562.32
636.695	11728.21
636.889	11433.3
637.083	11205.97
637.276	11167.06
637.47	11302.23
637.664	11101.53
637.857	11113.81
638.051	11023.7
638.244	11038.04
638.438	10718.56
638.632	10825.05
638.825	10753.37
639.019	10683.74
639.212	10513.76
639.406	10734.94
639.599	10560.86
639.793	10534.24
639.986	10378.59
640.18	10413.41
640.373	10329.44
640.567	10237.28
640.76	10341.73
640.954	10114.41
641.147	10079.59
641.34	9938.28
641.534	10145.13
641.727	9899.37
641.92	9956.71
642.114	9872.75
642.307	9975.14
642.5	9682.28
642.694	9776.49
642.887	9624.94
643.08	9506.16
643.273	9477.49
643.467	9516.4
643.66	9370.99
643.853	9444.72
644.046	9416.05
644.239	9330.03
644.432	9405.81
644.626	9446.77
644.819	9186.68
645.012	9225.59
645.205	8920.44
645.398	9096.57
645.591	9178.48
645.784	8945.02
645.977	9043.32
646.17	8953.21
646.363	8871.29
646.556	8912.25
646.749	8756.6
646.942	8750.46
647.135	8668.54
647.328	8570.24
647.521	8578.43
647.714	8451.46
647.907	8387.97
648.099	8398.21
648.292	8312.19
648.485	8336.77
648.678	8152.45
648.871	8310.15
649.064	8412.54
649.256	8166.79
649.449	7953.8
649.642	8211.84
649.835	7976.33
650.027	8107.4
650.22	7906.7
650.413	7884.17
650.605	7755.15
650.798	7843.21
650.991	7826.82
651.183	7777.67
651.376	7665.04
651.568	7665.04
651.761	7644.56
651.954	7529.87
652.146	7634.32
652.339	7615.88
652.531	7548.3
652.724	7533.97
652.916	7370.13
653.109	7425.42
653.301	7404.94
653.494	7417.23
653.686	7177.62
653.879	7181.71
654.071	7071.12
654.263	7136.66
654.456	7073.17
654.648	7130.52
654.84	6815.13
655.033	7042.45
655.225	6909.33
655.417	6581.66
655.61	6710.68
655.802	6831.51
655.994	6753.69
656.186	6964.63
656.379	6720.92
656.571	6716.83
656.763	6708.63
656.955	6722.97
657.148	6757.78
657.34	6532.51
657.532	6454.69
657.724	6583.71
657.916	6561.18
658.108	6507.93
658.3	6485.41
658.492	6393.25
658.684	6270.37
658.876	6266.27
659.068	6260.13
659.26	6378.91
659.452	6165.92
659.644	6127.01
659.836	6135.2
660.028	6286.75
660.22	5946.79
660.412	6104.48
660.604	6167.97
660.796	6024.61
660.988	5975.46
661.18	5922.21
661.372	5760.42
661.563	5842.34
661.755	5752.23
661.947	5815.72
662.139	5862.82
662.331	5879.21
662.522	5643.69
662.714	5764.52
662.906	5617.07
663.097	5680.55
663.289	5690.79
663.481	5590.44
663.673	5602.73
663.864	5565.87
664.056	5322.16
664.247	5635.5
664.439	5410.22
664.631	5399.98
664.822	5473.71
665.014	5449.13
665.205	5389.74
665.397	5295.54
665.588	5344.69
665.78	5242.29
665.971	5244.34
666.163	5260.72
666.354	5268.91
666.546	5088.69
666.737	5017.01
666.929	5254.58
667.12	5025.2
667.311	5107.12
667.503	5019.06
667.694	4988.34
667.885	5170.61
668.077	5045.68
668.268	5035.44
668.459	4951.48
668.651	4996.53
668.842	4931
669.033	4793.78
669.224	4783.54
669.416	4851.13
669.607	4838.84
669.798	4767.16
669.989	4890.04
670.18	4844.98
670.371	4670.9
670.563	4679.1
670.754	4644.28
670.945	4644.28
671.136	4644.28
671.327	4560.31
671.518	4511.16
671.709	4560.31
671.9	4603.32
672.091	4560.31
672.282	4498.88
672.473	4513.21
672.664	4576.7
672.855	4343.23
673.046	4564.41
673.237	4439.48
673.428	4367.81
673.619	4619.71
673.809	4414.91
674	4535.74
674.191	4402.62
674.382	4343.23
674.573	4300.22
674.764	4339.13
674.954	4345.28
675.145	4195.78
675.336	4150.72
675.527	4130.24
675.717	4289.98
675.908	4203.97
676.099	4017.6
676.289	4185.54
676.48	4242.88
676.671	4240.83
676.861	4109.76
677.052	4163.01
677.243	4130.24
677.433	3999.17
677.624	4191.68
677.814	4087.23
678.005	4122.05
678.195	4183.49
678.386	4062.66
678.576	4076.99
678.767	4033.99
678.957	4081.09
679.148	4249.02
679.338	4076.99
679.529	4001.22
679.719	4040.13
679.909	4054.47
680.1	3964.36
680.29	3939.78
680.481	3878.34
680.671	4013.51
680.861	3964.36
681.052	3937.73
681.242	3829.19
681.432	3952.07
681.622	3790.28
681.813	3876.29
682.003	3841.48
682.193	3827.14
682.383	3878.34
682.573	3722.7
682.764	3751.37
682.954	3751.37
683.144	3786.18
683.334	3829.19
683.524	3792.33
683.714	3554.76
683.904	3806.66
684.094	3710.41
684.284	3763.65
684.474	3825.09
684.664	3771.85
684.854	3638.73
685.044	3687.88
685.234	3720.65
685.424	3622.34
685.614	3597.77
685.804	3622.34
685.994	3730.89
686.184	3671.5
686.374	3741.13
686.564	3562.95
686.753	3614.15
686.943	3478.99
687.133	3612.1
687.323	3610.06
687.513	3562.95
687.702	3446.22
687.892	3476.94
688.082	3521.99
688.272	3446.22
688.461	3446.22
688.651	3327.44
688.841	3370.44
689.03	3380.68
689.22	3325.39
689.41	3313.1
689.599	3413.45
689.789	3343.82
689.979	3261.9
690.168	3204.56
690.358	3294.67
690.547	3395.02
690.737	3419.6
690.926	3192.27
691.116	3229.13
691.305	3268.05
691.495	3083.73
691.684	2989.52
691.874	3200.46
692.063	3161.55
692.252	3136.98
692.442	3208.66
692.631	3024.34
692.82	3141.07
693.01	2952.66
693.199	2969.04
693.388	2948.56
693.578	3034.58
693.767	2991.57
693.956	3149.26
694.146	2973.14
694.335	3053.01
694.524	2862.55
694.713	2987.47
694.902	2860.5
695.092	2862.55
695.281	2891.22
695.47	2829.78
695.659	2923.99
695.848	2862.55
696.037	2868.69
696.226	2946.52
696.415	2821.59
696.604	2835.92
696.793	2829.78
696.982	2754.01
697.171	2764.25
697.36	2940.37
697.549	2768.34
697.738	2813.4
697.927	2786.77
698.116	2768.34
698.305	2803.16
698.494	2756.05
698.683	2641.37
698.872	2817.49
699.061	2721.24
699.25	2661.85
699.438	2563.54
699.627	2684.38
699.816	2713.05
700.005	2633.18
700.193	2608.6
700.382	2729.43
700.571	2665.94
700.76	2616.79
700.948	2629.08
701.137	2616.79
701.326	2768.34
701.514	2616.79
701.703	2563.54
701.892	2545.11
702.08	2610.65
702.269	2653.66
702.457	2545.11
702.646	2655.7
702.834	2547.16
703.023	2538.97
703.212	2627.03
703.4	2622.94
703.589	2487.77
703.777	2586.07
703.965	2440.67
704.154	2586.07
704.342	2637.27
704.531	2526.68
704.719	2446.81
704.907	2590.17
705.096	2457.05
705.284	2629.08
705.472	2534.87
705.661	2483.67
705.849	2534.87
706.037	2551.26
706.226	2555.35
706.414	2438.62
706.602	2420.19
706.79	2459.1
706.979	2428.38
707.167	2450.91
707.355	2612.7
707.543	2338.27
707.731	2471.39
707.919	2446.81
708.107	2452.95
708.296	2483.67
708.484	2362.84
708.672	2457.05
708.86	2506.2
709.048	2446.81
709.236	2379.23
709.424	2514.39
709.612	2551.26
709.8	2489.82
709.988	2493.91
710.176	2391.52
710.364	2391.52
710.551	2317.79
710.739	2352.6
710.927	2383.32
711.115	2428.38
711.303	2334.17
711.491	2323.93
711.679	2399.71
711.866	2381.28
712.054	2422.24
712.242	2403.8
712.43	2412
712.617	2393.56
712.805	2264.54
712.993	2338.27
713.181	2430.43
713.368	2373.08
713.556	2362.84
713.744	2395.61
713.931	2471.39
714.119	2489.82
714.306	2289.12
714.494	2375.13
714.682	2397.66
714.869	2362.84
715.057	2366.94
715.244	2346.46
715.432	2364.89
715.619	2330.08
715.807	2403.8
715.994	2319.84
716.182	2465.24
716.369	2457.05
716.556	2485.72
716.744	2346.46
716.931	2379.23
717.119	2375.13
717.306	2506.2
717.493	2282.97
717.681	2387.42
717.868	2430.43
718.055	2463.19
718.242	2368.99
718.43	2338.27
718.617	2477.53
718.804	2311.64
718.991	2424.28
719.179	2297.31
719.366	2379.23
719.553	2340.32
719.74	2438.62
719.927	2305.5
720.114	2315.74
720.301	2223.58
720.488	2235.87
720.676	2307.55
720.863	2409.95
721.05	2377.18
721.237	2289.12
721.424	2348.51
721.611	2325.98
721.798	2207.2
721.985	2235.87
722.172	2260.45
722.358	2346.46
722.545	2414.04
722.732	2350.56
722.919	2332.12
723.106	2338.27
723.293	2375.13
723.48	2252.25
723.667	2395.61
723.853	2268.64
724.04	2420.19
724.227	2352.6
724.414	2262.49
724.6	2375.13
724.787	2338.27
724.974	2330.08
725.161	2289.12
725.347	2346.46
725.534	2299.36
725.72	2334.17
725.907	2422.24
726.094	2305.5
726.28	2172.38
726.467	2360.8
726.653	2280.93
726.84	2354.65
727.027	2299.36
727.213	2315.74
727.4	2334.17
727.586	2373.08
727.773	2285.02
727.959	2383.32
728.145	2289.12
728.332	2344.41
728.518	2340.32
728.705	2420.19
728.891	2225.63
729.077	2215.39
729.264	2377.18
729.45	2332.12
729.636	2483.67
729.823	2315.74
730.009	2303.45
730.195	2280.93
730.382	2362.84
730.568	2276.83
730.754	2276.83
730.94	2201.05
731.126	2422.24
731.313	2254.3
731.499	2350.56
731.685	2278.88
731.871	2262.49
732.057	2428.38
732.243	2362.84
732.429	2207.2
732.615	2442.71
732.801	2381.28
732.987	2317.79
733.173	2422.24
733.359	2344.41
733.545	2262.49
733.731	2416.09
733.917	2338.27
734.103	2239.97
734.289	2371.04
734.475	2264.54
734.661	2479.58
734.847	2352.6
735.033	2162.14
735.219	2270.69
735.404	2293.21
735.59	2379.23
735.776	2311.64
735.962	2391.52
736.148	2368.99
736.333	2377.18
736.519	2366.94
736.705	2383.32
736.89	2262.49
737.076	2364.89
737.262	2334.17
737.447	2342.36
737.633	2209.25
737.819	2291.17
738.004	2291.17
738.19	2371.04
738.375	2260.45
738.561	2276.83
738.747	2295.26
738.932	2141.66
739.118	2287.07
739.303	2233.82
739.489	2250.21
739.674	2166.24
739.859	2254.3
740.045	2469.34
740.23	2184.67
740.416	2201.05
740.601	2229.73
740.786	2229.73
740.972	2121.18
741.157	2190.81
741.342	2223.58
741.528	2186.72
741.713	2295.26
741.898	2162.14
742.084	2045.41
742.269	2172.38
742.454	2094.56
742.639	2246.11
742.824	2133.47
743.01	2149.86
743.195	2153.95
743.38	2147.81
743.565	2024.93
743.75	2106.85
743.935	2067.94
744.12	2196.96
744.305	2010.59
744.49	2141.66
744.675	2063.84
744.86	2051.55
745.045	2031.07
745.23	2035.17
745.415	2076.13
745.6	2002.4
745.785	2151.9
745.97	1994.21
746.155	2108.9
746.34	2026.98
746.525	1940.96
746.71	1996.26
746.895	1940.96
747.079	1953.25
747.264	1904.1
747.449	2012.64
747.634	1988.07
747.819	1885.67
748.003	1975.78
748.188	1904.1
748.373	1889.76
748.557	1803.75
748.742	1908.19
748.927	1912.29
749.111	1891.81
749.296	1756.65
749.481	1799.65
749.665	1883.62
749.85	1791.46
750.034	1865.19
750.219	1781.22
750.404	1789.41
750.588	1764.84
750.773	1709.54
750.957	1689.06
751.141	1674.73
751.326	1752.55
751.51	1693.16
751.695	1650.15
751.879	1695.21
752.064	1842.66
752.248	1689.06
752.432	1727.97
752.617	1646.05
752.801	1687.01
752.985	1648.1
753.17	1564.14
753.354	1605.1
753.538	1627.62
753.722	1521.13
753.907	1535.46
754.091	1521.13
754.275	1555.94
754.459	1494.51
754.643	1527.27
754.828	1504.75
755.012	1478.12
755.196	1494.51
755.38	1506.79
755.564	1422.83
755.748	1510.89
755.932	1431.02
756.116	1469.93
756.3	1490.41
756.484	1455.59
756.668	1424.87
756.852	1381.87
757.036	1304.04
757.22	1363.44
757.404	1379.82
757.588	1252.84
757.772	1353.2
757.956	1238.51
758.14	1336.81
758.323	1277.42
758.507	1287.66
758.691	1269.23
758.875	1357.29
759.059	1338.86
759.242	1244.65
759.426	1404.39
759.61	1310.19
759.794	1275.37
759.977	1316.33
760.161	1236.46
760.345	1283.56
760.528	1312.24
760.712	1242.61
760.895	1179.12
761.079	1244.65
761.263	1277.42
761.446	1277.42
761.63	1254.89
761.813	1164.78
761.997	1244.65
762.18	1228.27
762.364	1215.98
762.547	1203.69
762.731	1150.45
762.914	1129.97
763.098	1132.01
763.281	1129.97
763.464	1199.6
763.648	1146.35
763.831	1154.54
764.015	1125.87
764.198	1119.73
764.381	1160.69
764.564	1080.82
764.748	1064.43
764.931	1056.24
765.114	1146.35
765.297	1048.05
765.481	1056.24
765.664	1076.72
765.847	1046
766.03	1089.01
766.213	1089.01
766.397	1093.1
766.58	990.7
766.763	1009.14
766.946	1052.14
767.129	1033.71
767.312	986.61
767.495	1058.29
767.678	992.75
767.861	1060.34
768.044	994.8
768.227	1052.14
768.41	1076.72
768.593	959.99
768.776	1052.14
768.959	964.08
769.142	1064.43
769.324	986.61
769.507	966.13
769.69	978.42
769.873	906.74
770.056	966.13
770.239	1019.38
770.421	980.47
770.604	921.07
770.787	970.23
770.97	910.83
771.152	933.36
771.335	955.89
771.518	974.32
771.7	898.55
771.883	986.61
772.066	814.58
772.248	902.64
772.431	955.89
772.613	1025.52
772.796	853.49
772.978	890.35
773.161	933.36
773.343	888.31
773.526	855.54
773.708	841.2
773.891	880.11
774.073	880.11
774.256	869.87
774.438	882.16
774.621	833.01
774.803	892.4
774.985	785.91
775.168	810.48
775.35	781.81
775.532	896.5
775.715	777.72
775.897	818.68
776.079	798.2
776.261	839.16
776.444	769.52
776.626	833.01
776.808	716.28
776.99	730.61
777.173	742.9
777.355	783.86
777.537	785.91
777.719	755.19
777.901	650.74
778.083	736.76
778.265	740.85
778.447	744.95
778.629	691.7
778.811	716.28
778.993	767.48
779.175	638.45
779.357	695.8
779.539	648.69
779.721	663.03
779.903	753.14
780.085	609.78
780.267	699.89
780.449	736.76
780.631	714.23
780.812	671.22
780.994	708.09
781.176	689.65
781.358	681.46
781.54	579.06
781.721	628.21
781.903	677.37
782.085	572.92
782.267	581.11
782.448	548.34
782.63	589.3
782.812	689.65
782.993	542.2
783.175	585.21
783.357	632.31
783.538	597.49
783.72	538.1
783.901	636.41
784.083	540.15
784.264	527.86
784.446	503.29
784.627	474.62
784.809	597.49
784.99	562.68
785.172	566.78
785.353	511.48
785.535	531.96
785.716	566.78
785.897	519.67
786.079	617.97
786.26	552.44
786.441	501.24
786.623	433.66
786.804	554.49
786.985	445.95
787.167	468.47
787.348	474.62
787.529	439.8
787.71	445.95
787.891	577.02
788.073	429.56
788.254	413.18
788.435	417.27
788.616	478.71
788.797	427.51
788.978	466.42
789.159	460.28
789.34	361.98
789.522	443.9
789.703	464.38
789.884	404.99
790.065	413.18
790.246	419.32
790.427	417.27
790.607	474.62
790.788	486.9
790.969	423.42
791.15	452.09
791.331	458.23
791.512	400.89
791.693	384.51
791.874	476.66
792.054	486.9
792.235	337.4
792.416	384.51
792.597	343.55
792.778	364.03
792.958	421.37
793.139	386.55
793.32	329.21
793.5	409.08
793.681	415.23
793.862	378.36
794.042	388.6
794.223	452.09
794.404	327.16
794.584	318.97
794.765	298.49
794.945	364.03
795.126	349.69
795.306	427.51
795.487	351.74
795.667	290.3
795.848	384.51
796.028	288.25
796.209	347.64
796.389	286.2
796.57	374.27
796.75	302.59
796.93	259.58
797.111	298.49
797.291	351.74
797.471	273.92
797.652	306.68
797.832	310.78
798.012	353.79
798.192	226.81
798.373	298.49
798.553	261.63
798.733	310.78
798.913	245.24
799.093	308.73
799.274	308.73
799.454	265.72
799.634	376.31
799.814	306.68
799.994	335.35
800.174	292.35
800.354	316.92
800.534	282.11
800.714	323.07
800.894	310.78
801.074	257.53
801.254	267.77
801.434	284.16
801.614	239.1
801.794	321.02
801.974	585.21
802.154	302.59
802.334	265.72
802.514	163.33
802.693	316.92
802.873	198.14
803.053	321.02
803.233	228.86
803.413	224.76
803.592	271.87
803.772	290.3
803.952	286.2
804.131	132.61
804.311	278.01
804.491	278.01
804.67	222.72
804.85	288.25
805.03	321.02
805.209	339.45
805.389	202.24
805.568	247.29
805.748	206.33
805.928	202.24
806.107	226.81
806.287	237.05
806.466	202.24
806.646	241.15
806.825	312.83
807.004	196.09
807.184	185.85
807.363	282.11
807.543	230.91
807.722	185.85
807.901	237.05
808.081	247.29
808.26	132.61
808.439	183.81
808.619	280.06
808.798	187.9
808.977	239.1
809.156	239.1
809.336	247.29
809.515	286.2
809.694	126.46
809.873	204.28
810.052	214.52
810.231	257.53
810.411	183.81
810.59	210.43
810.769	208.38
810.948	214.52
811.127	181.76
811.306	212.48
811.485	192
811.664	200.19
811.843	200.19
812.022	237.05
812.201	214.52
812.38	144.89
812.559	151.04
812.737	93.69
812.916	165.37
813.095	148.99
813.274	206.33
813.453	208.38
813.632	189.95
813.811	112.13
813.989	173.57
814.168	179.71
814.347	218.62
814.526	181.76
814.704	183.81
814.883	198.14
815.062	167.42
815.24	126.46
815.419	216.57
815.598	89.6
815.776	103.93
815.955	192
816.133	91.65
816.312	181.76
816.49	136.7
816.669	179.71
816.847	134.65
817.026	155.13
817.204	101.89
817.383	144.89
817.561	148.99
817.74	110.08
817.918	116.22
818.097	175.61
818.275	116.22
818.453	183.81
818.632	134.65
818.81	144.89
818.988	122.37
819.167	134.65
819.345	103.93
819.523	132.61
819.701	40.45
819.879	183.81
820.058	122.37
820.236	159.23
820.414	181.76
820.592	101.89
820.77	138.75
820.948	120.32
821.127	97.79
821.305	153.09
821.483	110.08
821.661	134.65
821.839	81.41
822.017	206.33
822.195	138.75
822.373	179.71
822.551	130.56
822.729	167.42
822.907	228.86
823.085	175.61
823.262	208.38
823.44	161.28
823.618	202.24
823.796	120.32
823.974	97.79
824.152	126.46
824.329	144.89
824.507	132.61
824.685	155.13
824.863	91.65
825.04	124.41
825.218	140.8
825.396	114.17
825.574	120.32
825.751	146.94
825.929	175.61
826.107	144.89
826.284	148.99
826.462	118.27
826.639	126.46
826.817	126.46
826.994	151.04
827.172	36.35
827.349	167.42
827.527	58.88
827.704	122.37
827.882	99.84
828.059	48.64
828.237	159.23
828.414	155.13
828.591	110.08
828.769	120.32
828.946	95.74
829.124	118.27
829.301	114.17
829.478	81.41
829.655	95.74
829.833	103.93
830.01	93.69
830.187	105.98
830.364	124.41
830.542	101.89
830.719	126.46
830.896	173.57
831.073	65.02
831.25	95.74
831.427	99.84
831.604	122.37
831.782	56.83
831.959	114.17
832.136	108.03
832.313	97.79
832.49	132.61
832.667	83.45
832.844	-0.51
833.021	155.13
833.198	77.31
833.374	146.94
833.551	99.84
833.728	60.93
833.905	130.56
834.082	-0.51
834.259	28.16
834.436	91.65
834.612	105.98
834.789	81.41
834.966	71.17
835.143	140.8
835.319	81.41
835.496	7.68
835.673	9.73
835.85	171.52
836.026	52.74
836.203	48.64
836.38	77.31
836.556	138.75
836.733	60.93
836.909	159.23
837.086	52.74
837.262	11.78
837.439	89.6
837.616	44.54
837.792	28.16
837.968	26.11
838.145	110.08
838.321	110.08
838.498	15.87
838.674	99.84
838.851	89.6
839.027	97.79
839.203	44.54
839.38	71.17
839.556	99.84
839.732	38.4
839.909	56.83
840.085	67.07
840.261	17.92
840.437	62.98
840.614	75.26
840.79	60.93
840.966	126.46
841.142	148.99
841.318	44.54
841.494	65.02
841.671	69.12
841.847	42.5
842.023	28.16
842.199	105.98
842.375	77.31
842.551	36.35
842.727	19.97
842.903	17.92
843.079	-14.85
843.255	101.89
843.431	54.78
843.607	52.74
843.783	15.87
843.959	58.88
844.134	48.64
844.31	126.46
844.486	89.6
844.662	60.93
844.838	83.45
845.013	38.4
845.189	65.02
845.365	24.06
845.541	36.35
845.716	112.13
845.892	52.74
846.068	77.31
846.244	52.74
846.419	95.74
846.595	36.35
846.77	97.79
846.946	118.27
847.122	85.5
847.297	-6.66
847.473	87.55
847.648	40.45
847.824	28.16
847.999	17.92
848.175	7.68
848.35	87.55
848.526	108.03
848.701	165.37
848.876	54.78
849.052	17.92
849.227	60.93
849.403	116.22
849.578	79.36
849.753	58.88
849.929	73.21
850.104	30.21
850.279	79.36
850.454	54.78
850.63	110.08
850.805	97.79
850.98	38.4
851.155	3.58
851.33	69.12
851.505	-45.57
851.681	134.65
851.856	75.26
852.031	-27.14
852.206	-12.8
852.381	46.59
852.556	69.12
852.731	81.41
852.906	73.21
853.081	11.78
853.256	118.27
853.431	36.35
853.606	81.41
853.781	48.64
853.956	-37.38
854.131	97.79
854.305	-8.7
854.48	42.5
854.655	134.65
854.83	75.26
855.005	54.78
855.18	26.11
855.354	-16.9
855.529	101.89
855.704	36.35
855.879	112.13
856.053	38.4
856.228	81.41
856.403	-14.85
856.577	69.12
856.752	-2.56
856.926	44.54
857.101	34.3
857.276	-0.51
857.45	-2.56
857.625	67.07
857.799	5.63
857.974	3.58
858.148	17.92
858.323	81.41
858.497	-47.62
858.672	44.54
858.846	30.21
859.02	46.59
859.195	75.26
859.369	81.41
859.543	42.5
859.718	13.82
859.892	46.59
860.066	48.64
860.241	13.82
860.415	-6.66
860.589	73.21
860.763	46.59
860.938	30.21
861.112	32.26
861.286	-10.75
861.46	71.17
861.634	42.5
861.808	13.82
861.982	36.35
862.157	15.87
862.331	93.69
862.505	34.3
862.679	65.02
862.853	81.41
863.027	-0.51
863.201	122.37
863.375	17.92
863.549	89.6
863.722	50.69
863.896	17.92
864.07	-20.99
864.244	-25.09
864.418	75.26
864.592	-2.56
864.766	24.06
864.939	83.45
865.113	48.64
865.287	73.21
865.461	36.35
865.634	62.98
865.808	-18.94
865.982	13.82
866.156	-49.66
866.329	5.63
866.503	-8.7
866.676	13.82
866.85	-2.56
867.024	54.78
867.197	48.64
867.371	58.88
867.544	28.16
867.718	-23.04
867.891	85.5
868.065	87.55
868.238	-0.51
868.412	30.21
868.585	34.3
868.759	11.78
868.932	71.17
869.105	-31.23
869.279	-20.99
869.452	-29.18
869.625	26.11
869.799	69.12
869.972	-41.47
870.145	32.26
870.319	52.74
870.492	-43.52
870.665	22.02
870.838	-0.51
871.011	-31.23
871.185	110.08
871.358	9.73
871.531	26.11
871.704	22.02
871.877	-10.75
872.05	42.5
872.223	-10.75
872.396	71.17
872.569	122.37
872.742	-0.51
872.915	11.78
873.088	-18.94
873.261	-53.76
873.434	99.84
873.607	1.54
873.78	60.93
873.953	-47.62
874.126	-6.66
874.299	24.06
874.471	56.83
874.644	-8.7
874.817	28.16
874.99	26.11
875.163	38.4
875.335	-0.51
875.508	65.02
875.681	44.54
875.853	-18.94
876.026	91.65
876.199	-4.61
876.371	26.11
876.544	54.78
876.717	19.97
876.889	54.78
877.062	1.54
877.234	-20.99
877.407	3.58
877.579	-18.94
877.752	54.78
877.924	24.06
878.097	62.98
878.269	71.17
878.442	11.78
878.614	-25.09
878.786	40.45
878.959	28.16
879.131	44.54
879.303	48.64
879.476	32.26
879.648	15.87
879.82	5.63
879.993	-18.94
880.165	19.97
880.337	7.68
880.509	50.69
880.681	-8.7
880.854	26.11
881.026	30.21
881.198	24.06
881.37	-8.7
881.542	-14.85
881.714	93.69
881.886	-6.66
882.058	-20.99
882.23	24.06
882.402	73.21
882.574	3.58
882.746	46.59
882.918	50.69
883.09	87.55
883.262	-51.71
883.434	71.17
883.606	-2.56
883.778	28.16
883.95	75.26
884.122	42.5
884.293	85.5
884.465	3.58
884.637	28.16
884.809	-2.56
884.98	1.54
885.152	36.35
885.324	103.93
885.496	50.69
885.667	52.74
885.839	11.78
886.011	62.98
886.182	77.31
886.354	60.93
886.525	42.5
886.697	48.64
886.869	-29.18
887.04	5.63
887.212	15.87
887.383	62.98
887.555	9.73
887.726	11.78
887.897	46.59
888.069	-6.66
888.24	108.03
888.412	44.54
888.583	7.68
888.754	9.73
888.926	-51.71
889.097	-4.61
889.268	-0.51
889.44	58.88
889.611	36.35
889.782	-4.61
889.953	46.59
890.125	26.11
890.296	-14.85
890.467	56.83
890.638	34.3
890.809	-25.09
890.98	1.54
891.151	50.69
891.323	-100.86
891.494	46.59
891.665	13.82
891.836	44.54
892.007	15.87
892.178	11.78
892.349	-12.8
892.52	-55.81
892.691	-4.61
892.862	50.69
893.032	-33.28
893.203	24.06
893.374	5.63
893.545	36.35
893.716	-18.94
893.887	28.16
894.057	-43.52
894.228	-0.51
894.399	-4.61
894.57	50.69
894.74	-41.47
894.911	-18.94
895.082	17.92
895.253	34.3
895.423	-29.18
895.594	30.21
895.764	-72.19
895.935	-33.28
896.106	1.54
896.276	-6.66
896.447	48.64
896.617	-41.47
896.788	24.06
896.958	9.73
897.129	42.5
897.299	-53.76
897.47	38.4
897.64	-6.66
897.81	54.78
897.981	11.78
898.151	-31.23
898.322	-4.61
898.492	26.11
898.662	-10.75
898.832	-25.09
899.003	7.68
899.173	-10.75
899.343	89.6
899.513	7.68
