Data from USB4F104151__74__11-06-19-884.txt Node

Date: Wed Mar 12 11:06:19 EDT 2025
User: louis
Spectrometer: USB4F10415
Trigger mode: 4
Integration Time (sec): 2.000000E-2
Scans to average: 1
Electric dark correction enabled: true
Nonlinearity correction enabled: false
Boxcar width: 0
XAxis mode: Wavelengths
Number of Pixels in Spectrum: 3648
>>>>>Begin Spectral Data<<<<<
178.204	-75.77
178.424	-75.77
178.644	-75.77
178.864	-131.07
179.084	-36.86
179.304	53.25
179.524	-36.86
179.744	30.72
179.964	55.3
180.184	-12.29
180.404	12.29
180.624	-24.58
180.844	-20.48
181.064	-59.39
181.283	16.38
181.503	-40.96
181.723	26.62
181.943	-47.1
182.163	28.67
182.383	-18.43
182.602	-2.05
182.822	22.53
183.042	45.06
183.262	-4.1
183.482	-55.3
183.701	-59.39
183.921	-55.3
184.141	-36.86
184.361	36.86
184.58	-38.91
184.8	-4.1
185.02	-4.1
185.239	30.72
185.459	-30.72
185.679	-16.38
185.898	0
186.118	55.3
186.338	-65.53
186.557	6.14
186.777	8.19
186.997	-8.19
187.216	18.43
187.436	-28.67
187.655	28.67
187.875	-32.77
188.095	-22.53
188.314	-59.39
188.534	38.91
188.753	0
188.973	88.06
189.192	18.43
189.412	-63.49
189.631	14.34
189.851	4.1
190.07	-55.3
190.29	-2.05
190.509	-38.91
190.729	8.19
190.948	0
191.168	16.38
191.387	118.78
191.607	73.73
191.826	59.39
192.045	-28.67
192.265	94.21
192.484	12.29
192.704	-14.34
192.923	20.48
193.142	43.01
193.362	53.25
193.581	137.21
193.8	26.62
194.02	20.48
194.239	14.34
194.458	14.34
194.678	-20.48
194.897	2.05
195.116	-14.34
195.335	26.62
195.555	49.15
195.774	-2.05
195.993	94.21
196.212	-40.96
196.432	14.34
196.651	40.96
196.87	-30.72
197.089	45.06
197.308	24.58
197.528	24.58
197.747	-38.91
197.966	10.24
198.185	28.67
198.404	-45.06
198.623	16.38
198.842	-18.43
199.062	-4.1
199.281	-2.05
199.5	-16.38
199.719	-4.1
199.938	-8.19
200.157	67.58
200.376	47.1
200.595	59.39
200.814	-8.19
201.033	-2.05
201.252	71.68
201.471	32.77
201.69	22.53
201.909	-12.29
202.128	49.15
202.347	-22.53
202.566	-22.53
202.785	-36.86
203.004	12.29
203.223	6.14
203.442	30.72
203.661	-14.34
203.879	6.14
204.098	22.53
204.317	-47.1
204.536	65.54
204.755	61.44
204.974	-32.77
205.193	26.62
205.411	67.58
205.63	-36.86
205.849	10.24
206.068	8.19
206.287	45.06
206.505	59.39
206.724	-20.48
206.943	45.06
207.162	-38.91
207.381	53.25
207.599	-12.29
207.818	24.58
208.037	-8.19
208.255	-4.1
208.474	43.01
208.693	53.25
208.911	-6.14
209.13	-18.43
209.349	88.06
209.567	16.38
209.786	59.39
210.005	6.14
210.223	26.62
210.442	57.34
210.661	18.43
210.879	-16.38
211.098	92.16
211.316	18.43
211.535	22.53
211.753	-73.73
211.972	8.19
212.191	-22.53
212.409	65.54
212.628	59.39
212.846	12.29
213.065	20.48
213.283	71.68
213.502	26.62
213.72	4.1
213.938	36.86
214.157	-2.05
214.375	38.91
214.594	14.34
214.812	12.29
215.031	-8.19
215.249	57.34
215.467	59.39
215.686	34.82
215.904	18.43
216.122	47.1
216.341	30.72
216.559	-2.05
216.778	61.44
216.996	18.43
217.214	-36.86
217.432	38.91
217.651	49.15
217.869	61.44
218.087	61.44
218.306	-16.38
218.524	73.73
218.742	28.67
218.96	18.43
219.179	4.1
219.397	20.48
219.615	61.44
219.833	40.96
220.051	-36.86
220.27	88.06
220.488	28.67
220.706	47.1
220.924	-4.1
221.142	49.15
221.36	61.44
221.578	-65.53
221.796	43.01
222.015	14.34
222.233	36.86
222.451	-69.63
222.669	-18.43
222.887	-57.34
223.105	-10.24
223.323	-8.19
223.541	-22.53
223.759	8.19
223.977	-6.14
224.195	-12.29
224.413	12.29
224.631	8.19
224.849	86.01
225.067	126.97
225.285	-26.62
225.503	-45.06
225.721	-65.53
225.939	-49.15
226.157	-32.77
226.375	51.2
226.592	-2.05
226.81	28.67
227.028	4.1
227.246	59.39
227.464	-6.14
227.682	10.24
227.9	-16.38
228.117	-81.92
228.335	-16.38
228.553	2.05
228.771	110.59
228.989	45.06
229.206	20.48
229.424	14.34
229.642	-45.06
229.86	8.19
230.077	0
230.295	-8.19
230.513	-32.77
230.731	-18.43
230.948	75.77
231.166	69.63
231.384	-16.38
231.601	16.38
231.819	30.72
232.037	-14.34
232.254	69.63
232.472	53.25
232.689	18.43
232.907	71.68
233.125	0
233.342	-24.58
233.56	-67.58
233.777	-12.29
233.995	36.86
234.213	2.05
234.43	71.68
234.648	-57.34
234.865	36.86
235.083	40.96
235.3	-18.43
235.518	6.14
235.735	34.82
235.953	53.25
236.17	45.06
236.388	73.73
236.605	49.15
236.822	81.92
237.04	-16.38
237.257	65.54
237.475	12.29
237.692	81.92
237.909	24.58
238.127	22.53
238.344	34.82
238.562	-22.53
238.779	-24.58
238.996	-4.1
239.214	96.25
239.431	36.86
239.648	-49.15
239.865	73.73
240.083	26.62
240.3	4.1
240.517	-38.91
240.735	-10.24
240.952	63.49
241.169	53.25
241.386	30.72
241.603	38.91
241.821	18.43
242.038	49.15
242.255	32.77
242.472	-4.1
242.689	49.15
242.907	20.48
243.124	36.86
243.341	36.86
243.558	59.39
243.775	-28.67
243.992	69.63
244.209	6.14
244.426	40.96
244.643	22.53
244.86	2.05
245.078	8.19
245.295	14.34
245.512	12.29
245.729	32.77
245.946	26.62
246.163	106.49
246.38	-53.25
246.597	-12.29
246.814	71.68
247.031	0
247.248	10.24
247.464	51.2
247.681	-12.29
247.898	16.38
248.115	8.19
248.332	-22.53
248.549	71.68
248.766	16.38
248.983	55.3
249.2	63.49
249.417	55.3
249.633	43.01
249.85	12.29
250.067	2.05
250.284	-6.14
250.501	67.58
250.717	36.86
250.934	40.96
251.151	-30.72
251.368	2.05
251.585	47.1
251.801	49.15
252.018	26.62
252.235	-20.48
252.451	-32.77
252.668	75.77
252.885	43.01
253.102	81.92
253.318	-2.05
253.535	-22.53
253.752	28.67
253.968	53.25
254.185	-20.48
254.401	-59.39
254.618	12.29
254.835	28.67
255.051	94.21
255.268	-2.05
255.484	88.06
255.701	77.82
255.917	26.62
256.134	-4.1
256.351	-6.14
256.567	18.43
256.784	28.67
257	-38.91
257.217	92.16
257.433	4.1
257.65	22.53
257.866	34.82
258.082	69.63
258.299	22.53
258.515	-12.29
258.732	8.19
258.948	-24.58
259.165	-4.1
259.381	34.82
259.597	-6.14
259.814	18.43
260.03	0
260.246	49.15
260.463	-4.1
260.679	38.91
260.895	38.91
261.112	36.86
261.328	20.48
261.544	40.96
261.761	73.73
261.977	-10.24
262.193	-57.34
262.409	75.77
262.626	-28.67
262.842	-34.82
263.058	-12.29
263.274	40.96
263.49	24.58
263.707	-12.29
263.923	-26.62
264.139	4.1
264.355	-53.25
264.571	65.54
264.787	-8.19
265.004	71.68
265.22	26.62
265.436	86.01
265.652	47.1
265.868	22.53
266.084	-59.39
266.3	47.1
266.516	-14.34
266.732	32.77
266.948	-22.53
267.164	-75.77
267.38	-6.14
267.596	-6.14
267.812	32.77
268.028	59.39
268.244	22.53
268.46	73.73
268.676	20.48
268.892	112.64
269.108	0
269.324	61.44
269.54	43.01
269.756	49.15
269.972	-61.44
270.188	53.25
270.403	-34.82
270.619	61.44
270.835	-24.58
271.051	-28.67
271.267	-18.43
271.483	51.2
271.698	65.54
271.914	36.86
272.13	-20.48
272.346	0
272.562	57.34
272.777	38.91
272.993	-6.14
273.209	-18.43
273.425	67.58
273.64	-30.72
273.856	73.73
274.072	22.53
274.287	16.38
274.503	75.77
274.719	40.96
274.934	34.82
275.15	-53.25
275.366	36.86
275.581	40.96
275.797	38.91
276.012	-4.1
276.228	77.82
276.444	-2.05
276.659	45.06
276.875	51.2
277.09	-14.34
277.306	-22.53
277.521	-40.96
277.737	8.19
277.952	4.1
278.168	96.25
278.383	28.67
278.599	-30.72
278.814	16.38
279.03	102.4
279.245	43.01
279.461	30.72
279.676	-14.34
279.892	20.48
280.107	-28.67
280.322	16.38
280.538	51.2
280.753	-2.05
280.969	-18.43
281.184	8.19
281.399	-10.24
281.615	36.86
281.83	40.96
282.045	-34.82
282.26	34.82
282.476	14.34
282.691	-36.86
282.906	47.1
283.122	-8.19
283.337	-24.58
283.552	-20.48
283.767	-14.34
283.983	47.1
284.198	18.43
284.413	28.67
284.628	81.92
284.843	59.39
285.058	4.1
285.274	40.96
285.489	61.44
285.704	63.49
285.919	51.2
286.134	49.15
286.349	24.58
286.564	6.14
286.779	77.82
286.995	67.58
287.21	-24.58
287.425	24.58
287.64	-14.34
287.855	40.96
288.07	-2.05
288.285	59.39
288.5	45.06
288.715	0
288.93	-6.14
289.145	-18.43
289.36	-4.1
289.575	83.97
289.79	-30.72
290.004	-10.24
290.219	122.88
290.434	2.05
290.649	22.53
290.864	-2.05
291.079	45.06
291.294	36.86
291.509	73.73
291.724	18.43
291.938	61.44
292.153	40.96
292.368	28.67
292.583	-26.62
292.798	20.48
293.012	47.1
293.227	14.34
293.442	47.1
293.657	36.86
293.871	45.06
294.086	-16.38
294.301	71.68
294.516	57.34
294.73	57.34
294.945	-24.58
295.16	-22.53
295.374	18.43
295.589	69.63
295.804	43.01
296.018	36.86
296.233	4.1
296.447	-16.38
296.662	-4.1
296.877	69.63
297.091	45.06
297.306	53.25
297.52	28.67
297.735	12.29
297.949	2.05
298.164	10.24
298.378	49.15
298.593	14.34
298.807	86.01
299.022	8.19
299.236	28.67
299.451	28.67
299.665	100.35
299.88	-2.05
300.094	20.48
300.309	63.49
300.523	-14.34
300.737	-65.53
300.952	30.72
301.166	8.19
301.381	-6.14
301.595	20.48
301.809	61.44
302.024	8.19
302.238	-43.01
302.452	36.86
302.667	86.01
302.881	102.4
303.095	59.39
303.309	-16.38
303.524	43.01
303.738	20.48
303.952	-20.48
304.166	-40.96
304.381	-6.14
304.595	92.16
304.809	2.05
305.023	8.19
305.237	36.86
305.452	67.58
305.666	6.14
305.88	102.4
306.094	57.34
306.308	14.34
306.522	8.19
306.736	-20.48
306.95	79.87
307.164	-20.48
307.379	73.73
307.593	45.06
307.807	51.2
308.021	43.01
308.235	8.19
308.449	45.06
308.663	71.68
308.877	38.91
309.091	67.58
309.305	20.48
309.519	-12.29
309.733	55.3
309.947	22.53
310.161	38.91
310.374	43.01
310.588	28.67
310.802	-8.19
311.016	49.15
311.23	36.86
311.444	61.44
311.658	2.05
311.872	32.77
312.085	116.73
312.299	71.68
312.513	-18.43
312.727	2.05
312.941	40.96
313.154	30.72
313.368	-45.06
313.582	-12.29
313.796	-47.1
314.009	-18.43
314.223	59.39
314.437	20.48
314.651	0
314.864	-16.38
315.078	71.68
315.292	-59.39
315.505	69.63
315.719	24.58
315.933	114.69
316.146	6.14
316.36	2.05
316.573	26.62
316.787	67.58
317.001	96.25
317.214	34.82
317.428	55.3
317.641	-38.91
317.855	47.1
318.068	16.38
318.282	8.19
318.495	43.01
318.709	65.54
318.922	59.39
319.136	147.45
319.349	40.96
319.563	53.25
319.776	86.01
319.99	77.82
320.203	-22.53
320.417	112.64
320.63	2.05
320.843	73.73
321.057	30.72
321.27	-8.19
321.483	20.48
321.697	112.64
321.91	81.92
322.124	12.29
322.337	63.49
322.55	-65.53
322.763	43.01
322.977	30.72
323.19	32.77
323.403	77.82
323.617	20.48
323.83	30.72
324.043	53.25
324.256	53.25
324.469	-26.62
324.683	61.44
324.896	16.38
325.109	4.1
325.322	59.39
325.535	106.49
325.748	20.48
325.962	-8.19
326.175	14.34
326.388	-26.62
326.601	67.58
326.814	65.54
327.027	92.16
327.24	112.64
327.453	-22.53
327.666	92.16
327.879	106.49
328.092	-14.34
328.305	-4.1
328.518	45.06
328.731	2.05
328.944	-104.45
329.157	73.73
329.37	73.73
329.583	34.82
329.796	24.58
330.009	30.72
330.222	75.77
330.435	45.06
330.648	18.43
330.861	43.01
331.073	100.35
331.286	92.16
331.499	104.45
331.712	22.53
331.925	-2.05
332.138	30.72
332.35	26.62
332.563	45.06
332.776	24.58
332.989	94.21
333.202	-45.06
333.414	51.2
333.627	79.87
333.84	-36.86
334.053	6.14
334.265	12.29
334.478	36.86
334.691	73.73
334.903	8.19
335.116	-20.48
335.329	102.4
335.541	45.06
335.754	36.86
335.966	-12.29
336.179	-40.96
336.392	57.34
336.604	24.58
336.817	32.77
337.029	77.82
337.242	12.29
337.454	30.72
337.667	34.82
337.88	14.34
338.092	57.34
338.305	-14.34
338.517	38.91
338.729	71.68
338.942	79.87
339.154	-61.44
339.367	22.53
339.579	14.34
339.792	26.62
340.004	69.63
340.217	12.29
340.429	69.63
340.641	45.06
340.854	90.11
341.066	-4.1
341.278	143.36
341.491	32.77
341.703	79.87
341.915	47.1
342.128	6.14
342.34	16.38
342.552	-6.14
342.764	83.97
342.977	79.87
343.189	34.82
343.401	47.1
343.613	14.34
343.826	86.01
344.038	51.2
344.25	8.19
344.462	28.67
344.674	92.16
344.886	-24.58
345.099	26.62
345.311	24.58
345.523	38.91
345.735	77.82
345.947	-2.05
346.159	-38.91
346.371	-4.1
346.583	28.67
346.795	88.06
347.007	40.96
347.219	22.53
347.431	59.39
347.643	135.17
347.855	8.19
348.067	55.3
348.279	45.06
348.491	69.63
348.703	104.45
348.915	47.1
349.127	12.29
349.339	22.53
349.551	88.06
349.763	57.34
349.975	36.86
350.187	86.01
350.399	28.67
350.61	77.82
350.822	73.73
351.034	51.2
351.246	47.1
351.458	104.45
351.669	51.2
351.881	20.48
352.093	69.63
352.305	81.92
352.517	92.16
352.728	14.34
352.94	45.06
353.152	92.16
353.363	61.44
353.575	20.48
353.787	110.59
353.999	10.24
354.21	49.15
354.422	36.86
354.633	20.48
354.845	-65.53
355.057	26.62
355.268	20.48
355.48	43.01
355.692	77.82
355.903	34.82
356.115	-4.1
356.326	-6.14
356.538	30.72
356.749	47.1
356.961	110.59
357.172	34.82
357.384	32.77
357.595	43.01
357.807	57.34
358.018	73.73
358.23	-47.1
358.441	-18.43
358.653	67.58
358.864	45.06
359.075	32.77
359.287	32.77
359.498	137.21
359.709	-2.05
359.921	-12.29
360.132	10.24
360.344	110.59
360.555	36.86
360.766	34.82
360.977	159.74
361.189	106.49
361.4	2.05
361.611	22.53
361.823	36.86
362.034	40.96
362.245	10.24
362.456	83.97
362.667	51.2
362.879	67.58
363.09	26.62
363.301	53.25
363.512	45.06
363.723	-12.29
363.935	43.01
364.146	30.72
364.357	83.97
364.568	133.12
364.779	-18.43
364.99	98.3
365.201	53.25
365.412	92.16
365.623	83.97
365.834	14.34
366.045	12.29
366.256	2.05
366.467	65.54
366.678	2.05
366.889	22.53
367.1	28.67
367.311	51.2
367.522	-45.06
367.733	6.14
367.944	65.54
368.155	65.54
368.366	83.97
368.577	4.1
368.788	55.3
368.999	131.07
369.209	-18.43
369.42	81.92
369.631	116.73
369.842	32.77
370.053	-24.58
370.264	36.86
370.474	8.19
370.685	-24.58
370.896	49.15
371.107	75.77
371.317	90.11
371.528	28.67
371.739	151.55
371.95	96.25
372.16	108.54
372.371	36.86
372.582	-65.53
372.792	61.44
373.003	12.29
373.214	40.96
373.424	106.49
373.635	-36.86
373.846	4.1
374.056	47.1
374.267	106.49
374.477	-18.43
374.688	-24.58
374.898	67.58
375.109	47.1
375.319	49.15
375.53	100.35
375.74	61.44
375.951	-10.24
376.161	-32.77
376.372	71.68
376.582	67.58
376.793	16.38
377.003	34.82
377.214	71.68
377.424	53.25
377.635	104.45
377.845	71.68
378.055	96.25
378.266	8.19
378.476	30.72
378.686	102.4
378.897	26.62
379.107	94.21
379.317	67.58
379.528	96.25
379.738	86.01
379.948	81.92
380.158	45.06
380.369	65.54
380.579	6.14
380.789	32.77
380.999	34.82
381.21	49.15
381.42	118.78
381.63	43.01
381.84	53.25
382.05	61.44
382.261	112.64
382.471	110.59
382.681	59.39
382.891	79.87
383.101	86.01
383.311	45.06
383.521	-8.19
383.731	57.34
383.941	40.96
384.151	57.34
384.361	77.82
384.571	96.25
384.781	145.41
384.991	116.73
385.201	73.73
385.411	61.44
385.621	0
385.831	63.49
386.041	38.91
386.251	43.01
386.461	43.01
386.671	12.29
386.881	20.48
387.091	55.3
387.301	28.67
387.511	55.3
387.72	116.73
387.93	45.06
388.14	14.34
388.35	65.54
388.56	178.17
388.769	40.96
388.979	77.82
389.189	110.59
389.399	73.73
389.609	83.97
389.818	57.34
390.028	86.01
390.238	40.96
390.447	51.2
390.657	106.49
390.867	65.54
391.076	45.06
391.286	106.49
391.496	73.73
391.705	100.35
391.915	59.39
392.125	126.97
392.334	133.12
392.544	129.02
392.753	124.93
392.963	43.01
393.172	32.77
393.382	57.34
393.591	167.93
393.801	47.1
394.01	124.93
394.22	108.54
394.429	63.49
394.639	86.01
394.848	63.49
395.058	86.01
395.267	112.64
395.477	86.01
395.686	90.11
395.895	198.65
396.105	126.97
396.314	192.51
396.524	155.65
396.733	65.54
396.942	192.51
397.152	86.01
397.361	137.21
397.57	126.97
397.78	94.21
397.989	65.54
398.198	108.54
398.407	116.73
398.617	86.01
398.826	16.38
399.035	112.64
399.244	141.31
399.453	110.59
399.663	157.69
399.872	192.51
400.081	110.59
400.29	96.25
400.499	124.93
400.708	108.54
400.917	129.02
401.127	79.87
401.336	151.55
401.545	188.41
401.754	137.21
401.963	145.41
402.172	137.21
402.381	75.77
402.59	96.25
402.799	194.56
403.008	139.26
403.217	167.93
403.426	176.13
403.635	182.27
403.844	184.32
404.053	159.74
404.262	126.97
404.471	204.8
404.68	174.08
404.888	147.45
405.097	180.22
405.306	233.47
405.515	245.76
405.724	196.61
405.933	192.51
406.142	210.94
406.35	217.08
406.559	192.51
406.768	215.04
406.977	288.76
407.185	264.19
407.394	260.09
407.603	233.47
407.812	296.96
408.02	245.76
408.229	260.09
408.438	391.16
408.646	299
408.855	305.15
409.064	284.67
409.272	284.67
409.481	378.87
409.69	372.73
409.898	376.83
410.107	423.93
410.315	391.16
410.524	335.87
410.733	473.08
410.941	344.06
411.15	434.17
411.358	501.75
411.567	528.38
411.775	534.52
411.984	507.9
412.192	632.82
412.401	509.94
412.609	575.48
412.818	653.3
413.026	583.67
413.234	677.88
413.443	747.51
413.651	616.44
413.86	686.07
414.068	800.76
414.276	921.59
414.485	825.33
414.693	860.15
414.901	868.34
415.11	890.87
415.318	882.67
415.526	978.93
415.734	1019.89
415.943	980.98
416.151	1042.42
416.359	1064.94
416.567	1054.7
416.776	1279.98
416.984	1306.6
417.192	1433.58
417.4	1363.95
417.608	1353.71
417.817	1392.62
418.025	1509.35
418.233	1654.76
418.441	1515.5
418.649	1619.94
418.857	1738.73
419.065	1742.82
419.273	1673.19
419.481	1787.88
419.689	1861.6
419.897	2078.69
420.105	2058.21
420.313	2099.17
420.521	2111.46
420.729	2250.72
420.937	2263.01
421.145	2318.3
421.353	2412.51
421.561	2574.3
421.769	2830.29
421.977	2674.65
422.185	2719.7
422.393	2770.9
422.601	3069.91
422.809	3172.3
423.017	3059.67
423.224	3129.3
423.432	3403.72
423.64	3194.83
423.848	3553.23
424.056	3626.95
424.263	3811.27
424.471	3831.75
424.679	4061.12
424.887	4186.05
425.094	4235.2
425.302	4235.2
425.51	4528.06
425.718	4534.2
425.925	4730.81
426.133	4951.99
426.341	5134.26
426.548	5089.2
426.756	5347.25
426.964	5322.67
427.171	5646.25
427.379	5965.73
427.586	5994.4
427.794	6180.77
428.001	6406.05
428.209	6477.73
428.417	6569.88
428.624	7002.01
428.832	6913.94
429.039	6907.8
429.247	7165.84
429.454	7733.13
429.662	8210.31
429.869	7782.28
430.076	8114.05
430.284	8007.56
430.491	8341.38
430.699	8847.22
430.906	8775.55
431.114	8941.43
431.321	9066.36
431.528	9408.37
431.736	10176.36
431.943	10479.46
432.15	10344.29
432.358	10424.16
432.565	10819.42
432.772	10985.3
432.979	11667.28
433.187	11708.24
433.394	11605.84
433.601	12439.36
433.808	12461.89
434.016	12666.69
434.223	12945.21
434.43	13719.34
434.637	13377.33
434.844	14272.29
435.052	14849.82
435.259	14352.16
435.466	14583.59
435.673	14604.07
435.88	15453.97
436.087	16211.72
436.294	16381.7
436.501	15910.67
436.708	16432.9
436.915	16664.32
437.122	17551.09
437.329	17481.46
437.537	18085.61
437.743	18282.22
437.95	18116.33
438.157	19109.6
438.364	19766.99
438.571	19513.05
438.778	20045.52
438.985	21685.94
439.192	20862.66
439.399	21741.24
439.606	21114.56
439.813	22286
440.02	23815.83
440.227	22996.64
440.433	22955.68
440.64	23938.71
440.847	23516.83
441.054	24059.54
441.261	25951.86
441.467	25161.34
441.674	25960.05
441.881	26842.73
442.088	26783.34
442.294	26574.44
442.501	27156.07
442.708	27809.37
442.914	29154.88
443.121	30170.68
443.328	29431.36
443.534	31600.16
443.741	30694.96
443.948	30158.39
444.154	32253.46
444.361	32278.04
444.568	32353.81
444.774	32149.01
444.981	32931.34
445.187	33498.62
445.394	35380.71
445.6	34207.22
445.807	38174.14
446.013	36191.7
446.22	37156.3
446.426	38591.92
446.633	38540.72
446.839	39806.37
447.046	38622.64
447.252	40277.4
447.459	40586.64
447.665	40367.51
447.871	42067.33
448.078	43722.08
448.284	41424.26
448.491	42941.81
448.697	44471.64
448.903	45075.79
449.11	45413.71
449.316	44203.36
449.522	45129.04
449.728	46302.53
449.935	46449.98
450.141	46708.02
450.347	47637.8
450.553	46519.61
450.76	46507.32
450.966	48225.57
451.172	47289.65
451.378	48694.55
451.584	47990.05
451.791	48510.24
451.997	48160.03
452.203	49288.46
452.409	49157.39
452.615	48766.23
452.821	47256.88
453.027	46691.64
453.233	48835.86
453.44	46773.56
453.646	47957.28
453.852	47662.38
454.058	48481.56
454.264	46560.57
454.47	47906.08
454.676	46865.72
454.882	48311.58
455.088	44240.22
455.294	44825.94
455.5	45589.83
455.705	45753.67
455.911	43937.12
456.117	43038.06
456.323	42900.85
456.529	40220.06
456.735	41627.01
456.941	40687
457.147	40226.2
457.352	39003.56
457.558	38497.72
457.764	38481.33
457.97	37832.13
458.176	36994.51
458.381	37045.71
458.587	35112.42
458.793	35464.67
458.999	33594.88
459.204	35816.93
459.41	34862.57
459.616	32243.22
459.821	32525.84
460.027	32417.3
460.233	31682.08
460.438	30336.56
460.644	30512.69
460.85	29042.24
461.055	29011.53
461.261	28681.8
461.466	26361.45
461.672	25656.95
461.878	27588.19
462.083	25839.22
462.289	25251.45
462.494	25026.18
462.7	24200.85
462.905	23588.5
463.111	24229.52
463.316	24299.15
463.522	23867.03
463.727	23725.72
463.932	23936.66
464.138	23457.43
464.343	23565.98
464.549	22877.86
464.754	23731.86
464.959	23350.94
465.165	23465.63
465.37	22492.84
465.575	21714.61
465.781	22666.92
465.986	22832.8
466.191	21919.41
466.397	21610.17
466.602	20596.42
466.807	21216.96
467.012	21520.06
467.218	21145.28
467.423	21104.32
467.628	21393.08
467.833	21948.08
468.038	21128.89
468.244	20469.45
468.449	21675.7
468.654	20725.44
468.859	20772.55
469.064	20524.74
469.269	19572.44
469.474	19789.52
469.679	20084.43
469.885	19834.58
470.09	20000.46
470.295	19990.22
470.5	19027.68
470.705	19406.55
470.91	19308.25
471.115	18636.52
471.32	19154.65
471.525	18896.61
471.73	18374.38
471.935	18310.89
472.139	17993.45
472.344	18097.9
472.549	17684.21
472.754	17692.4
472.959	17481.46
473.164	16899.84
473.369	16881.41
473.574	17282.81
473.778	17295.1
473.983	17035
474.188	16783.1
474.393	16176.91
474.598	16447.24
474.802	16068.36
475.007	16262.92
475.212	15884.05
475.417	15165.21
475.621	15537.94
475.826	15580.95
476.031	15331.09
476.235	14858.01
476.44	15177.5
476.645	14745.37
476.849	14792.48
477.054	14665.5
477.259	14485.28
477.463	14628.64
477.668	14188.33
477.872	14241.57
478.077	13920.04
478.282	13719.34
478.486	13727.53
478.691	13479.73
478.895	13612.85
479.1	13494.07
479.304	13381.43
479.509	13074.23
479.713	13297.46
479.918	12992.31
480.122	12986.17
480.326	13311.8
480.531	13242.17
480.735	12635.97
480.94	12519.23
481.144	13231.93
481.348	12267.33
481.553	12781.37
481.757	12404.55
481.961	12650.3
482.166	12873.53
482.37	12769.09
482.574	12560.19
482.778	12457.79
482.983	12961.59
483.187	12586.82
483.391	12816.19
483.595	12627.78
483.8	12224.33
484.004	12529.47
484.208	12453.7
484.412	12240.71
484.616	12566.34
484.821	12758.85
485.025	12527.42
485.229	12758.85
485.433	12631.87
485.637	12457.79
485.841	12523.33
486.045	12271.43
486.249	12603.2
486.453	12482.37
486.657	12590.91
486.861	12799.8
487.065	12365.64
487.269	12418.88
487.473	12316.48
487.677	12590.91
487.881	12873.53
488.085	12476.23
488.289	12623.68
488.493	12296
488.697	12631.87
488.901	12588.86
489.105	12672.83
489.309	12830.52
489.512	12701.5
489.716	12468.03
489.92	12658.49
490.124	12586.82
490.328	12988.22
490.531	12732.22
490.735	12945.21
490.939	13008.7
491.143	12812.09
491.346	12840.76
491.55	13135.67
491.754	13016.89
491.958	13137.72
492.161	13113.14
492.365	13143.86
492.569	12945.21
492.772	13246.26
492.976	13446.96
493.18	13393.72
493.383	13709.1
493.587	13737.77
493.79	13782.83
493.994	13770.54
494.197	13782.83
494.401	14217
494.605	13899.56
494.808	14067.5
495.012	14247.72
495.215	14499.62
495.419	14290.73
495.622	14487.33
495.825	14552.87
496.029	14657.31
496.232	14968.6
496.436	14819.1
496.639	15173.4
496.843	15187.74
497.046	15675.15
497.249	15613.71
497.453	15740.69
497.656	15675.15
497.859	16047.88
498.063	16125.71
498.266	16510.72
498.469	16350.98
498.673	16815.87
498.876	16740.1
499.079	17272.57
499.282	16887.55
499.485	17465.08
499.689	17477.37
499.892	17606.39
500.095	17891.06
500.298	18343.66
500.501	18061.04
500.705	18161.39
500.908	18861.79
501.111	19054.3
501.314	19072.73
501.517	19363.54
501.72	19695.32
501.923	19599.06
502.126	19951.31
502.329	20219.6
502.532	20491.98
502.735	20362.95
502.938	20872.9
503.141	20821.7
503.344	21247.68
503.547	21173.95
503.75	21374.65
503.953	21989.04
504.156	22095.53
504.359	22628.01
504.562	22458.03
504.765	23094.94
504.968	23051.94
505.17	23359.13
505.373	23402.14
505.576	23631.51
505.779	24329.87
505.982	24252.05
506.185	24772.23
506.387	24628.87
506.59	24884.87
506.793	25521.79
506.996	25128.58
507.198	26041.97
507.401	25845.37
507.604	26332.78
507.807	26861.16
508.009	26949.22
508.212	27043.43
508.415	27776.6
508.617	27807.32
508.82	27768.41
509.022	27876.95
509.225	28786.25
509.428	28859.98
509.63	29111.88
509.833	29034.05
510.035	29703.74
510.238	29687.35
510.44	29916.73
510.643	30608.94
510.845	30930.47
511.048	30733.87
511.25	31159.84
511.453	31227.43
511.655	32390.67
511.858	32058.9
512.06	32380.43
512.262	32570.89
512.465	32882.19
512.667	33424.9
512.87	33781.24
513.072	33302.02
513.274	34276.85
513.477	34571.76
513.679	35010.03
513.881	35374.56
514.084	35632.61
514.286	35374.56
514.488	35829.21
514.69	36791.76
514.893	36705.74
515.095	36410.84
515.297	37467.59
515.499	37832.13
515.701	38329.78
515.904	38368.69
516.106	38880.69
516.308	38890.93
516.51	39388.58
516.712	39116.2
516.914	40113.56
517.116	40373.66
517.318	40803.73
517.52	40945.04
517.722	41076.11
517.925	41481.61
518.127	42333.56
518.329	42302.84
518.531	42182.01
518.733	43093.36
518.935	43541.86
519.136	43152.75
519.338	44135.77
519.54	43992.42
519.742	44823.89
519.944	44594.52
520.146	45397.32
520.348	45602.12
520.55	45598.02
520.752	45763.91
520.954	46748.98
521.155	46236.99
521.357	47322.41
521.559	47705.38
521.761	47983.91
521.963	48252.19
522.164	48293.15
522.366	48780.57
522.568	49222.93
522.77	49280.27
522.971	49691.91
523.173	49259.79
523.375	50162.95
523.576	50275.58
523.778	50017.54
523.98	50750.71
524.181	51195.12
524.383	51014.9
524.584	51852.52
524.786	51729.64
524.988	51449.07
525.189	52274.4
525.391	52579.55
525.592	52655.32
525.794	52419.81
525.995	52950.23
526.197	52995.29
526.398	53077.21
526.6	53785.8
526.801	53875.91
527.003	53976.26
527.204	53851.34
527.406	54439.11
527.607	54678.72
527.808	54598.85
528.01	54222.02
528.211	54512.83
528.412	55366.84
528.614	55297.2
528.815	55286.96
529.016	56030.38
529.218	55116.98
529.419	55573.68
529.62	55983.27
529.822	55729.33
530.023	55637.17
530.224	55829.68
530.425	55872.68
530.626	55743.66
530.828	55665.84
531.029	56923.29
531.23	55911.59
531.431	56310.95
531.632	56755.36
531.833	56519.84
532.035	56464.55
532.236	56376.48
532.437	56792.22
532.638	56343.72
532.839	57087.13
533.04	56935.58
533.241	55989.42
533.442	57554.07
533.643	56878.24
533.844	57066.65
534.045	56943.77
534.246	56902.81
534.447	57328.79
534.648	57173.14
534.849	56837.28
535.05	56706.21
535.251	57273.49
535.451	56609.95
535.652	57281.69
535.853	56757.41
536.054	57128.09
536.255	57248.92
536.456	56755.36
536.657	57996.43
536.857	56972.44
537.058	56964.25
537.259	57846.93
537.46	57648.27
537.66	57185.43
537.861	57064.6
538.062	57332.89
538.263	57316.5
538.463	57136.28
538.664	57398.42
538.865	57455.76
539.065	57844.88
539.266	56456.35
539.466	57666.7
539.667	56724.64
539.868	57289.88
540.068	56767.65
540.269	57466
540.469	57173.14
540.67	56865.95
540.87	57033.88
541.071	57136.28
541.271	57382.04
541.472	57035.93
541.672	56986.78
541.873	57099.42
542.073	56333.48
542.274	57410.71
542.474	56698.01
542.675	56859.8
542.875	56884.38
543.075	56908.96
543.276	56155.3
543.476	57191.58
543.676	56675.49
543.877	57173.14
544.077	56808.61
544.277	56775.84
544.478	56908.96
544.678	57345.17
544.878	56831.13
545.078	56997.02
545.279	56493.22
545.479	56485.03
545.679	56843.42
545.879	56878.24
546.079	56597.66
546.28	56591.52
546.48	56048.81
546.68	56538.27
546.88	56820.89
547.08	57021.59
547.28	56394.92
547.48	56233.13
547.68	56800.41
547.88	56521.89
548.081	56886.43
548.281	56689.82
548.481	56460.45
548.681	56734.88
548.881	56878.24
549.081	56399.01
549.28	56128.68
549.48	56650.91
549.68	56384.68
549.88	57187.48
550.08	56466.59
550.28	56616.1
550.48	56663.2
550.68	56464.55
550.88	56464.55
551.08	56208.55
551.279	56437.92
551.479	56179.88
551.679	56464.55
551.879	56155.3
552.079	56646.82
552.278	56272.04
552.478	56169.64
552.678	56378.53
552.878	56693.92
553.077	56087.72
553.277	55880.88
553.477	56988.83
553.676	56120.49
553.876	55540.91
554.076	56018.09
554.275	56081.58
554.475	54822.08
554.674	56040.62
554.874	55917.74
555.074	55719.09
555.273	55811.24
555.473	56284.33
555.672	55329.97
555.872	56042.66
556.071	55704.75
556.271	55977.13
556.47	55545.01
556.67	55235.77
556.869	55811.24
557.068	55276.72
557.268	55221.43
557.467	55379.12
557.667	55579.82
557.866	55344.31
558.065	55303.35
558.265	54777.02
558.464	55063.74
558.663	55774.38
558.863	54752.44
559.062	55389.36
559.261	54680.77
559.461	55030.97
559.66	54283.46
559.859	54932.67
560.058	54670.53
560.258	54891.71
560.457	54461.63
560.656	54549.7
560.855	54238.4
561.054	54492.35
561.253	54318.28
561.453	54508.74
561.652	54219.97
561.851	54191.3
562.05	53945.54
562.249	53710.03
562.448	54381.76
562.647	53789.9
562.846	53736.65
563.045	53576.91
563.244	53525.71
563.443	53806.28
563.642	53083.35
563.841	53357.78
564.04	53077.21
564.239	53624.01
564.438	53152.98
564.637	53195.99
564.836	53474.51
565.035	52436.19
565.234	52669.66
565.432	52524.25
565.631	52536.54
565.83	52606.17
566.029	52032.74
566.228	52485.34
566.427	52432.1
566.625	52192.48
566.824	51672.3
567.023	52516.06
567.222	51274.99
567.42	52563.17
567.619	51586.28
567.818	52217.06
568.016	51213.55
568.215	51987.69
568.414	51610.86
568.612	51770.6
568.811	51092.72
569.01	51367.15
569.208	50459.9
569.407	51019
569.605	50873.59
569.804	51201.27
570.002	50642.17
570.201	50846.97
570.4	50590.97
570.598	50210.05
570.797	50115.84
570.995	50533.63
571.193	49835.27
571.392	50445.57
571.59	50025.73
571.789	49923.33
571.987	50148.61
572.186	50308.35
572.384	49519.88
572.582	49992.97
572.781	50009.35
572.979	49317.14
573.177	49251.6
573.376	49427.73
573.574	48747.8
573.772	49390.86
573.971	48917.78
574.169	48899.35
574.367	48383.26
574.565	48936.21
574.763	48293.15
574.962	48516.38
575.16	47793.45
575.358	48215.33
575.556	47740.2
575.754	48360.73
575.952	47961.38
576.151	48010.53
576.349	47658.28
576.547	47267.12
576.745	47365.42
576.943	47494.44
577.141	47371.57
577.339	47600.94
577.537	46957.88
577.735	47207.73
577.933	46732.6
578.131	46916.92
578.329	46814.52
578.527	46505.27
578.725	46773.56
578.923	46646.58
579.121	46431.55
579.319	45964.61
579.516	46388.54
579.714	46097.73
579.912	45763.91
580.11	45593.93
580.308	46097.73
580.506	45788.49
580.704	45020.5
580.901	45509.96
581.099	45944.13
581.297	45258.06
581.495	45090.13
581.692	45317.45
581.89	44924.24
582.088	45210.96
582.285	44684.63
582.483	45057.36
582.681	44774.74
582.878	44129.63
583.076	44148.06
583.274	44488.03
583.471	43824.48
583.669	44399.96
583.866	43849.06
584.064	44266.84
584.262	43566.44
584.459	44356.96
584.657	43648.36
584.854	43734.37
585.052	42911.09
585.249	43152.75
585.447	43384.17
585.644	42349.95
585.841	43218.28
586.039	43304.3
586.236	42663.28
586.434	42530.17
586.631	42440.06
586.828	42687.86
587.026	42577.27
587.223	42407.29
587.42	42003.84
587.618	42196.35
587.815	41799.04
588.012	41532.81
588.21	41481.61
588.407	42104.19
588.604	41297.29
588.801	41430.41
588.999	41706.88
589.196	41168.27
589.393	41325.96
589.59	40730
589.787	41031.05
589.984	40865.17
590.182	40736.15
590.379	40721.81
590.576	40332.7
590.773	40707.47
590.97	40461.72
591.167	40211.87
591.364	39871.9
591.561	39794.08
591.758	39523.75
591.955	39964.06
592.152	40177.05
592.349	39540.13
592.546	39843.23
592.743	39634.34
592.94	39026.09
593.137	39304.62
593.334	39198.12
593.531	39017.9
593.727	38974.89
593.924	38970.8
594.121	38475.19
594.318	38669.75
594.515	38219.19
594.712	38563.25
594.908	38010.3
595.105	38831.54
595.302	38041.02
595.499	38266.3
595.696	37887.42
595.892	37899.71
596.089	38022.59
596.286	37815.74
596.482	37615.04
596.679	37408.2
596.876	37696.96
597.072	37166.54
597.269	37307.85
597.466	36984.27
597.662	37066.19
597.859	37184.97
598.055	37000.65
598.252	36433.36
598.448	36640.21
598.645	36406.74
598.841	36439.51
599.038	36320.73
599.234	36193.75
599.431	35968.48
599.627	36265.43
599.824	36122.07
600.02	35489.25
600.217	35948
600.413	35538.4
600.609	35597.79
600.806	35616.22
601.002	35522.02
601.198	35296.74
601.395	34625.01
601.591	34895.34
601.787	35206.63
601.984	34706.93
602.18	34895.34
602.376	34909.68
602.572	34493.94
602.769	34395.64
602.965	34567.66
603.161	34840.04
603.357	34354.68
603.553	34383.35
603.75	34444.79
603.946	33949.18
604.142	34090.49
604.338	33668.61
604.534	34106.87
604.73	33187.33
604.926	33226.24
605.122	33598.98
605.318	33551.87
605.514	33404.42
605.71	32851.47
605.906	32822.8
606.102	33332.74
606.298	33183.24
606.494	32710.16
606.69	32876.04
606.886	32863.75
607.082	32378.39
607.278	33027.59
607.474	31888.92
607.67	32552.46
607.866	32015.9
608.062	32394.77
608.257	32077.33
608.453	32081.43
608.649	32296.47
608.845	31925.78
609.041	32032.28
609.236	31981.08
609.432	31942.17
609.628	31755.8
609.824	31858.2
610.019	31698.46
610.215	31598.11
610.411	31817.24
610.606	31393.31
610.802	31514.14
610.998	31362.59
611.193	31915.54
611.389	31397.41
611.584	31260.19
611.78	30907.94
611.976	31043.11
612.171	31172.13
612.367	30842.41
612.562	31102.5
612.758	30567.98
612.953	30737.96
613.149	30963.24
613.344	30643.76
613.539	31116.84
613.735	30801.45
613.93	30762.54
614.126	30541.36
614.321	31249.96
614.517	30719.53
614.712	30389.81
614.907	30498.35
615.103	30768.68
615.298	30074.42
615.493	30592.56
615.688	29939.26
615.884	30647.85
616.079	30250.55
616.274	30148.15
616.47	29777.47
616.665	30361.14
616.86	29840.95
617.055	29965.88
617.25	29976.12
617.445	30070.33
617.641	29089.35
617.836	29771.32
618.031	29267.52
618.226	29423.17
618.421	29146.69
618.616	29638.2
618.811	29148.74
619.006	29849.14
619.201	28587.6
619.396	29222.47
619.591	28583.5
619.786	29021.77
619.981	28431.95
620.176	28767.82
620.371	28331.6
620.566	28329.55
620.761	27752.02
620.956	28374.61
621.151	27643.48
621.346	28122.71
621.541	27401.82
621.735	28026.45
621.93	27379.29
622.125	27663.96
622.32	26943.08
622.515	27254.37
622.709	26547.82
622.904	27016.8
623.099	26553.96
623.294	26623.59
623.488	26551.91
623.683	26670.7
623.878	26019.44
624.072	26211.95
624.267	25906.8
624.462	25849.46
624.656	25581.18
624.851	25525.88
625.046	25353.85
625.24	25372.28
625.435	25122.43
625.629	24876.68
625.824	24749.7
626.018	24776.33
626.213	24221.33
626.407	24596.1
626.602	24397.45
626.796	24581.77
626.991	24104.59
627.185	24028.82
627.38	23932.56
627.574	23674.52
627.768	23469.72
627.963	23430.81
628.157	23465.63
628.352	23479.96
628.546	23414.43
628.74	23414.43
628.935	22918.82
629.129	22951.59
629.323	22716.07
629.517	22841
629.712	22431.4
629.906	22417.07
630.1	22075.06
630.294	21986.99
630.489	22091.44
630.683	21941.94
630.877	21659.32
631.071	21272.25
631.265	22019.76
631.459	21288.64
631.653	21190.33
631.848	21319.35
632.042	20983.49
632.236	21290.68
632.43	20747.97
632.624	21196.48
632.818	20846.27
633.012	20489.93
633.206	20553.41
633.4	20528.84
633.594	20215.5
633.788	20162.25
633.982	20141.77
634.176	20315.85
634.369	19945.17
634.563	19812.05
634.757	19635.92
634.951	19758.8
635.145	19793.62
635.339	19891.92
635.533	19095.26
635.726	19463.9
635.92	19144.41
636.114	19502.81
636.308	18757.35
636.501	19025.63
636.695	18773.73
636.889	18552.55
637.083	18347.75
637.276	18351.85
637.47	18403.05
637.664	18329.32
637.857	18452.2
638.051	18108.14
638.244	18140.91
638.438	17956.59
638.632	17905.39
638.825	17942.25
639.019	17725.17
639.212	17577.72
639.406	17534.71
639.599	17485.56
639.793	17403.64
639.986	17241.85
640.18	17303.29
640.373	16992
640.567	17043.2
640.76	16789.25
640.954	16697.09
641.147	16774.91
641.34	16643.84
641.534	16770.82
641.727	16617.22
641.92	16561.92
642.114	16256.78
642.307	16152.33
642.5	16224.01
642.694	16019.21
642.887	15720.21
643.08	15994.64
643.273	15779.6
643.467	15619.86
643.66	15712.02
643.853	15593.23
644.046	15447.83
644.239	15267.61
644.432	15283.99
644.626	15339.29
644.819	15220.5
645.012	15081.24
645.205	15318.81
645.398	15062.81
645.591	14755.61
645.784	14927.64
645.977	14583.59
646.17	14610.21
646.363	14339.88
646.556	14624.54
646.749	14251.81
646.942	14491.43
647.135	14214.95
647.328	14266.15
647.521	14069.55
647.714	13764.4
647.907	13883.18
648.099	14057.26
648.292	14020.39
648.485	13643.57
648.678	13659.95
648.871	13598.51
649.064	13477.68
649.256	13502.26
649.449	13532.98
649.642	13174.58
649.835	13043.51
650.027	13104.95
650.22	12994.36
650.413	12904.25
650.605	12973.88
650.798	12908.35
650.991	12705.6
651.183	12717.89
651.376	12773.18
651.568	12785.47
651.761	12664.64
651.954	12644.16
652.146	12248.9
652.339	12635.97
652.531	12296
652.724	12218.18
652.916	12015.43
653.109	12236.61
653.301	12181.32
653.494	12216.13
653.686	11704.14
653.879	12074.82
654.071	11841.36
654.263	11749.2
654.456	11857.74
654.648	11726.67
654.84	11495.25
655.033	11685.71
655.225	11546.45
655.417	11206.48
655.61	11229.01
655.802	11411.28
655.994	11034.46
656.186	11325.27
656.379	11186.01
656.571	11134.81
656.763	10968.92
656.955	11040.6
657.148	10905.43
657.34	10962.78
657.532	10919.77
657.724	10665.82
657.916	10772.32
658.108	10661.73
658.3	10631.01
658.492	10610.53
658.684	10516.32
658.876	10426.21
659.068	10579.81
659.26	10245.99
659.452	10291.04
659.644	10325.86
659.836	10147.69
660.028	10188.64
660.22	10008.42
660.412	10002.28
660.604	9744.24
660.796	9885.55
660.988	9703.28
661.18	9789.29
661.372	9523.05
661.563	9746.28
661.755	9715.56
661.947	9529.2
662.139	9486.19
662.331	9275.25
662.522	9342.83
662.714	9357.17
662.906	9242.48
663.097	9414.51
663.289	9101.17
663.481	9174.9
663.673	9277.3
663.864	9107.32
664.056	8951.67
664.247	8931.19
664.439	8689.53
664.631	8961.91
664.822	8886.14
665.014	8728.44
665.205	8669.05
665.397	8945.53
665.588	8759.16
665.78	8671.1
665.971	8408.96
666.163	8513.41
666.354	8247.17
666.546	8648.57
666.737	8286.08
666.929	8558.46
667.12	8595.32
667.311	8232.83
667.503	8286.08
667.694	8187.78
667.885	8095.62
668.077	8292.23
668.268	7925.64
668.459	8062.85
668.651	8048.52
668.842	8036.23
669.033	7987.08
669.224	7894.92
669.416	8081.28
669.607	7798.66
669.798	7620.49
669.989	7876.49
670.18	7710.6
670.371	7743.37
670.563	7731.08
670.754	7511.95
670.945	7552.91
671.136	7491.47
671.327	7620.49
671.518	7434.13
671.709	7608.2
671.9	7294.86
672.091	7477.13
672.282	7274.38
672.473	7264.15
672.664	7260.05
672.855	7264.15
673.046	7182.23
673.237	7337.87
673.428	7139.22
673.619	7067.54
673.809	7126.93
674	6981.53
674.191	6938.52
674.382	6959
674.573	6885.27
674.764	6913.94
674.954	6903.7
675.145	6963.09
675.336	6823.83
675.527	6959
675.717	6762.39
675.908	6721.43
676.099	6682.52
676.289	6625.18
676.48	6612.89
676.671	6672.28
676.861	6711.19
677.052	6418.33
677.243	6623.13
677.433	6672.28
677.624	6578.08
677.814	6395.81
678.005	6610.84
678.195	6490.01
678.386	6404
678.576	6260.64
678.767	6301.6
678.957	6498.2
679.148	6461.34
679.338	6389.66
679.529	6242.21
679.719	6330.27
679.909	6313.89
680.1	6084.52
680.29	6156.19
680.481	6027.17
680.671	6207.39
680.861	5949.35
681.052	5965.73
681.242	5988.26
681.432	6094.76
681.622	5996.45
681.813	6049.7
682.003	5973.92
682.193	5724.07
682.383	5932.97
682.573	6006.69
682.764	5840.81
682.954	5922.73
683.144	5875.62
683.334	5762.98
683.524	5783.46
683.714	5765.03
683.904	5787.56
684.094	5824.42
684.284	5746.6
684.474	5865.38
684.664	5664.68
684.854	5656.49
685.044	5785.51
685.234	5605.29
685.424	5543.85
685.614	5451.69
685.804	5404.59
685.994	5660.59
686.184	5617.58
686.374	5500.84
686.564	5361.58
686.753	5513.13
686.943	5316.53
687.133	5314.48
687.323	5509.04
687.513	5431.21
687.702	5324.72
687.892	5308.34
688.082	5289.9
688.272	5216.18
688.461	5296.05
688.651	5277.62
688.841	5130.16
689.03	5054.39
689.22	5138.35
689.41	5029.81
689.599	5044.15
689.789	5101.49
689.979	5052.34
690.168	5025.72
690.358	5078.96
690.547	4951.99
690.737	5023.67
690.926	5038
691.116	4878.26
691.305	4933.56
691.495	4822.97
691.684	4849.59
691.874	4919.22
692.063	4851.64
692.252	4782.01
692.442	4929.46
692.631	4845.49
692.82	4810.68
693.01	4827.06
693.199	4478.91
693.388	4734.9
693.578	4726.71
693.767	4624.31
693.956	4632.51
694.146	4622.27
694.335	4526.01
694.524	4521.91
694.713	4652.99
694.902	4577.21
695.092	4489.15
695.281	4546.49
695.47	4446.14
695.659	4396.99
695.848	4495.29
696.037	4472.76
696.226	4431.8
696.415	4392.89
696.604	4433.85
696.793	4489.15
696.982	4538.3
697.171	4278.21
697.36	4376.51
697.549	4499.39
697.738	4298.69
697.927	4308.93
698.116	4474.81
698.305	4169.66
698.494	4310.97
698.683	4425.66
698.872	4433.85
699.061	4202.43
699.25	4239.3
699.438	4265.92
699.627	4251.58
699.816	4315.07
700.005	4198.34
700.193	4270.01
700.382	4386.75
700.571	4270.01
700.76	4136.9
700.948	4167.62
701.137	4227.01
701.326	4095.94
701.514	4167.62
701.703	4140.99
701.892	4138.94
702.08	4227.01
702.269	4038.59
702.457	4036.55
702.646	4204.48
702.834	4136.9
703.023	4044.74
703.212	4081.6
703.4	3983.3
703.589	4087.75
703.777	3979.2
703.965	4020.16
704.154	4007.87
704.342	4194.24
704.531	4147.14
704.719	3973.06
704.907	4116.42
705.096	3956.68
705.284	4093.89
705.472	3952.58
705.661	4009.92
705.849	3950.53
706.037	3913.67
706.226	4044.74
706.414	3887.04
706.602	3997.64
706.79	4003.78
706.979	3981.25
707.167	3925.96
707.355	4005.83
707.543	3940.29
707.731	3942.34
707.919	3930.05
708.107	3895.24
708.296	3850.18
708.484	3753.93
708.672	3952.58
708.86	3981.25
709.048	3829.7
709.236	3874.76
709.424	3807.17
709.612	3739.59
709.8	3682.25
709.988	3661.77
710.176	3807.17
710.364	3768.26
710.551	3682.25
710.739	3774.41
710.927	3774.41
711.115	3821.51
711.303	3835.85
711.491	3643.34
711.679	3616.71
711.866	3741.64
712.054	3667.91
712.242	3729.35
712.43	3827.65
712.617	3723.21
712.805	3682.25
712.993	3579.85
713.181	3647.43
713.368	3649.48
713.556	3692.49
713.744	3594.19
713.931	3637.19
714.119	3620.81
714.306	3676.1
714.494	3626.95
714.682	3751.88
714.869	3563.47
715.057	3583.95
715.244	3532.75
715.432	3520.46
715.619	3549.13
715.807	3575.75
715.994	3561.42
716.182	3538.89
716.369	3569.61
716.556	3467.21
716.744	3514.31
716.931	3499.98
717.119	3577.8
717.306	3579.85
717.493	3518.41
717.681	3508.17
717.868	3461.07
718.055	3506.12
718.242	3264.46
718.43	3506.12
718.617	3428.3
718.804	3575.75
718.991	3506.12
719.179	3481.55
719.366	3495.88
719.553	3456.97
719.74	3487.69
719.927	3332.05
720.114	3422.16
720.301	3409.87
720.488	3311.57
720.676	3379.15
720.863	3424.2
721.05	3368.91
721.237	3383.24
721.424	3362.76
721.611	3325.9
721.798	3248.08
721.985	3256.27
722.172	3178.45
722.358	3387.34
722.545	3325.9
722.732	3198.93
722.919	3305.42
723.106	3258.32
723.293	3246.03
723.48	3323.85
723.667	3207.12
723.853	3311.57
724.04	3254.22
724.227	3213.26
724.414	3170.26
724.6	3186.64
724.787	3225.55
724.974	3319.76
725.161	3143.63
725.347	3178.45
725.534	3221.45
725.72	3149.78
725.907	3170.26
726.094	3061.71
726.28	3200.98
726.467	3067.86
726.653	3082.19
726.84	3225.55
727.027	3170.26
727.213	3192.78
727.4	3110.86
727.586	3065.81
727.773	3074
727.959	3149.78
728.145	3227.6
728.332	3047.38
728.518	3256.27
728.705	3157.97
728.891	3045.33
729.077	3071.95
729.264	3049.43
729.45	3184.59
729.636	3096.53
729.823	3117.01
730.009	3151.82
730.195	3172.3
730.382	3080.15
730.568	3098.58
730.754	3055.57
730.94	2869.2
731.126	3102.67
731.313	3090.38
731.499	3035.09
731.685	3008.47
731.871	3030.99
732.057	2994.13
732.243	2934.74
732.429	2994.13
732.615	3028.95
732.801	3016.66
732.987	3074
733.173	2869.2
733.359	2951.12
733.545	2877.4
733.731	2883.54
733.917	2975.7
734.103	2965.46
734.289	3063.76
734.475	2877.4
734.661	2957.27
734.847	2881.49
735.033	2895.83
735.219	2994.13
735.404	2949.08
735.59	2975.7
735.776	2965.46
735.962	2994.13
736.148	2830.29
736.333	2983.89
736.519	2836.44
736.705	2883.54
736.89	2906.07
737.076	2942.93
737.262	2813.91
737.447	2848.72
737.633	2781.14
737.819	2928.6
738.004	2805.72
738.19	2789.33
738.375	2678.74
738.561	2826.2
738.747	2801.62
738.932	2678.74
739.118	2830.29
739.303	2791.38
739.489	2789.33
739.674	2793.43
739.859	2738.13
740.045	2881.49
740.23	2734.04
740.416	2691.03
740.601	2623.45
740.786	2740.18
740.972	2605.02
741.157	2662.36
741.342	2682.84
741.528	2678.74
741.713	2627.54
741.898	2772.95
742.084	2670.55
742.269	2691.03
742.454	2570.2
742.639	2582.49
742.824	2590.68
743.01	2670.55
743.195	2547.67
743.38	2557.91
743.565	2625.5
743.75	2527.19
743.935	2437.08
744.12	2549.72
744.305	2562.01
744.49	2398.17
744.675	2482.14
744.86	2506.71
745.045	2498.52
745.23	2430.94
745.415	2412.51
745.6	2289.63
745.785	2492.38
745.97	2506.71
746.155	2306.01
746.34	2418.65
746.525	2287.58
746.71	2396.12
746.895	2240.48
747.079	2336.73
747.264	2422.75
747.449	2299.87
747.634	2138.08
747.819	2265.05
748.003	2224.09
748.188	2176.99
748.373	2133.98
748.557	2228.19
748.742	2234.33
748.927	2140.13
749.111	2109.41
749.296	2244.57
749.481	2160.61
749.665	2119.65
749.85	2047.97
750.034	2138.08
750.219	2070.5
750.404	1990.63
750.588	1980.39
750.773	2074.59
750.957	2068.45
751.141	2119.65
751.326	2019.3
751.51	1925.09
751.695	2080.74
751.879	1871.84
752.064	2015.2
752.248	1941.47
752.432	1884.13
752.617	1906.66
752.801	1964
752.985	1927.14
753.17	1837.03
753.354	1994.72
753.538	1830.88
753.722	1902.56
753.907	1898.47
754.091	1748.97
754.275	1845.22
754.459	1802.21
754.643	1722.34
754.828	1806.31
755.012	1791.97
755.196	1644.52
755.38	1742.82
755.564	1720.29
755.748	1658.85
755.932	1601.51
756.116	1613.8
756.3	1714.15
756.484	1660.9
756.668	1673.19
756.852	1685.48
757.036	1679.33
757.22	1691.62
757.404	1515.5
757.588	1581.03
757.772	1648.61
757.956	1595.37
758.14	1515.5
758.323	1515.5
758.507	1525.74
758.691	1515.5
758.875	1419.24
759.059	1599.46
759.242	1445.87
759.426	1495.02
759.61	1415.15
759.794	1585.13
759.977	1525.74
760.161	1538.02
760.345	1435.63
760.528	1458.15
760.712	1447.91
760.895	1331.18
761.079	1515.5
761.263	1327.08
761.446	1417.19
761.63	1415.15
761.813	1495.02
761.997	1306.6
762.18	1368.04
762.364	1277.93
762.547	1263.6
762.731	1359.85
762.914	1286.12
763.098	1292.27
763.281	1322.99
763.464	1402.86
763.648	1228.78
763.831	1310.7
764.015	1298.41
764.198	1208.3
764.381	1306.6
764.564	1325.04
764.748	1263.6
764.931	1269.74
765.114	1173.49
765.297	1413.1
765.481	1277.93
765.664	1146.86
765.847	1267.69
766.03	1253.36
766.213	1159.15
766.397	1284.08
766.58	1288.17
766.763	1341.42
766.946	1198.06
767.129	1196.01
767.312	1165.29
767.495	1085.42
767.678	1216.49
767.861	1198.06
768.044	1226.73
768.227	1212.4
768.41	1196.01
768.593	1288.17
768.776	1173.49
768.959	1232.88
769.142	1142.77
769.324	1251.31
769.507	1001.46
769.69	1175.53
769.873	1134.57
770.056	1146.86
770.239	1169.39
770.421	1087.47
770.604	1150.96
770.787	1118.19
770.97	1066.99
771.152	1132.53
771.335	1087.47
771.518	1083.38
771.7	1142.77
771.883	1069.04
772.066	1101.81
772.248	1089.52
772.431	1054.7
772.613	1021.94
772.796	952.31
772.978	1048.56
773.161	1032.18
773.343	1038.32
773.526	968.69
773.708	1030.13
773.891	1050.61
774.073	1030.13
774.256	976.88
774.438	991.22
774.621	968.69
774.803	1003.5
774.985	880.63
775.168	954.35
775.35	909.3
775.532	954.35
775.715	864.24
775.897	997.36
776.079	987.12
776.261	935.92
776.444	948.21
776.626	923.63
776.808	921.59
776.99	894.96
777.173	913.39
777.355	845.81
777.537	845.81
777.719	761.84
777.901	915.44
778.083	874.48
778.265	901.11
778.447	845.81
778.629	788.47
778.811	825.33
778.993	841.72
779.175	792.56
779.357	860.15
779.539	815.09
779.721	759.8
779.903	765.94
780.085	710.65
780.267	706.55
780.449	761.84
780.631	706.55
780.812	761.84
780.994	665.59
781.176	720.89
781.358	788.47
781.54	671.73
781.721	651.25
781.903	747.51
782.085	630.77
782.267	720.89
782.448	675.83
782.63	659.45
782.812	729.08
782.993	649.21
783.175	720.89
783.357	681.97
783.538	665.59
783.72	694.26
783.901	616.44
784.083	722.93
784.264	624.63
784.446	581.62
784.627	600.05
784.809	532.47
784.99	641.01
785.172	624.63
785.353	598.01
785.535	647.16
785.716	616.44
785.897	493.56
786.079	624.63
786.26	606.2
786.441	606.2
786.623	561.14
786.804	540.66
786.985	536.57
787.167	600.05
787.348	516.09
787.529	561.14
787.71	589.82
787.891	598.01
788.073	462.84
788.254	477.18
788.435	468.98
788.616	522.23
788.797	446.46
788.978	507.9
789.159	481.27
789.34	538.62
789.522	446.46
789.703	561.14
789.884	456.7
790.065	430.07
790.246	491.51
790.427	448.51
790.607	495.61
790.788	499.7
790.969	438.27
791.15	477.18
791.331	425.98
791.512	530.42
791.693	376.83
791.874	481.27
792.054	485.37
792.235	442.36
792.416	391.16
792.597	442.36
792.778	448.51
792.958	411.64
793.139	428.03
793.32	454.65
793.5	403.45
793.681	501.75
793.862	452.6
794.042	522.23
794.223	364.54
794.404	419.83
794.584	389.11
794.765	319.48
794.945	409.59
795.126	405.5
795.306	399.35
795.487	397.31
795.667	421.88
795.848	409.59
796.028	313.34
796.209	397.31
796.389	389.11
796.57	344.06
796.75	393.21
796.93	415.74
797.111	307.2
797.291	311.29
797.471	372.73
797.652	360.44
797.832	344.06
798.012	337.91
798.192	292.86
798.373	266.24
798.553	352.25
798.733	294.91
798.913	319.48
799.093	374.78
799.274	350.2
799.454	311.29
799.634	411.64
799.814	350.2
799.994	305.15
800.174	270.33
800.354	217.08
800.534	395.26
800.714	292.86
800.894	200.7
801.074	290.81
801.254	376.83
801.434	342.01
801.614	311.29
801.794	233.47
801.974	712.69
802.154	288.76
802.334	317.44
802.514	253.95
802.693	206.84
802.873	303.1
803.053	296.96
803.233	268.28
803.413	323.58
803.592	309.24
803.772	225.28
803.952	292.86
804.131	305.15
804.311	294.91
804.491	260.09
804.67	288.76
804.85	266.24
805.03	339.96
805.209	335.87
805.389	286.72
805.568	202.75
805.748	290.81
805.928	344.06
806.107	225.28
806.287	241.66
806.466	225.28
806.646	284.67
806.825	249.85
807.004	231.42
807.184	249.85
807.363	327.68
807.543	221.18
807.722	212.99
807.901	235.52
808.081	212.99
808.26	180.22
808.439	231.42
808.619	280.57
808.798	272.38
808.977	192.51
809.156	249.85
809.336	200.7
809.515	305.15
809.694	180.22
809.873	172.03
810.052	219.13
810.231	290.81
810.411	204.8
810.59	186.37
810.769	200.7
810.948	200.7
811.127	264.19
811.306	229.37
811.485	290.81
811.664	200.7
811.843	178.17
812.022	204.8
812.201	137.21
812.38	221.18
812.559	155.65
812.737	206.84
812.916	137.21
813.095	227.32
813.274	210.94
813.453	215.04
813.632	196.61
813.811	229.37
813.989	151.55
814.168	157.69
814.347	137.21
814.526	182.27
814.704	167.93
814.883	165.89
815.062	161.79
815.24	253.95
815.419	163.84
815.598	180.22
815.776	147.45
815.955	223.23
816.133	219.13
816.312	208.89
816.49	133.12
816.669	139.26
816.847	161.79
817.026	161.79
817.204	137.21
817.383	159.74
817.561	73.73
817.74	237.56
817.918	137.21
818.097	143.36
818.275	200.7
818.453	143.36
818.632	262.14
818.81	186.37
818.988	190.46
819.167	108.54
819.345	178.17
819.523	182.27
819.701	172.03
819.879	159.74
820.058	81.92
820.236	129.02
820.414	169.98
820.592	204.8
820.77	196.61
820.948	49.15
821.127	161.79
821.305	161.79
821.483	137.21
821.661	194.56
821.839	184.32
822.017	161.79
822.195	118.78
822.373	167.93
822.551	129.02
822.729	165.89
822.907	81.92
823.085	169.98
823.262	131.07
823.44	65.54
823.618	110.59
823.796	131.07
823.974	122.88
824.152	126.97
824.329	104.45
824.507	223.23
824.685	184.32
824.863	174.08
825.04	94.21
825.218	174.08
825.396	90.11
825.574	172.03
825.751	114.69
825.929	122.88
826.107	155.65
826.284	108.54
826.462	69.63
826.639	122.88
826.817	126.97
826.994	88.06
827.172	71.68
827.349	129.02
827.527	90.11
827.704	108.54
827.882	102.4
828.059	104.45
828.237	116.73
828.414	65.54
828.591	55.3
828.769	73.73
828.946	90.11
829.124	67.58
829.301	94.21
829.478	200.7
829.655	30.72
829.833	174.08
830.01	110.59
830.187	153.6
830.364	122.88
830.542	43.01
830.719	77.82
830.896	102.4
831.073	100.35
831.25	120.83
831.427	110.59
831.604	114.69
831.782	81.92
831.959	116.73
832.136	81.92
832.313	96.25
832.49	65.54
832.667	100.35
832.844	55.3
833.021	143.36
833.198	88.06
833.374	169.98
833.551	53.25
833.728	98.3
833.905	108.54
834.082	139.26
834.259	61.44
834.436	86.01
834.612	67.58
834.789	55.3
834.966	61.44
835.143	131.07
835.319	61.44
835.496	135.17
835.673	126.97
835.85	147.45
836.026	122.88
836.203	141.31
836.38	40.96
836.556	75.77
836.733	34.82
836.909	100.35
837.086	65.54
837.262	102.4
837.439	104.45
837.616	12.29
837.792	165.89
837.968	116.73
838.145	20.48
838.321	100.35
838.498	75.77
838.674	100.35
838.851	118.78
839.027	-40.96
839.203	30.72
839.38	96.25
839.556	43.01
839.732	57.34
839.909	90.11
840.085	77.82
840.261	40.96
840.437	69.63
840.614	51.2
840.79	79.87
840.966	32.77
841.142	88.06
841.318	28.67
841.494	90.11
841.671	90.11
841.847	20.48
842.023	65.54
842.199	63.49
842.375	53.25
842.551	18.43
842.727	10.24
842.903	88.06
843.079	104.45
843.255	79.87
843.431	40.96
843.607	30.72
843.783	-16.38
843.959	-28.67
844.134	63.49
844.31	61.44
844.486	69.63
844.662	55.3
844.838	55.3
845.013	24.58
845.189	40.96
845.365	65.54
845.541	86.01
845.716	30.72
845.892	129.02
846.068	40.96
846.244	43.01
846.419	30.72
846.595	-45.06
846.77	49.15
846.946	61.44
847.122	83.97
847.297	16.38
847.473	153.6
847.648	0
847.824	-36.86
847.999	102.4
848.175	32.77
848.35	63.49
848.526	122.88
848.701	86.01
848.876	-22.53
849.052	36.86
849.227	32.77
849.403	61.44
849.578	73.73
849.753	65.54
849.929	67.58
850.104	12.29
850.279	-20.48
850.454	16.38
850.63	30.72
850.805	63.49
850.98	100.35
851.155	63.49
851.33	4.1
851.505	67.58
851.681	38.91
851.856	45.06
852.031	28.67
852.206	36.86
852.381	30.72
852.556	71.68
852.731	69.63
852.906	45.06
853.081	73.73
853.256	30.72
853.431	0
853.606	-6.14
853.781	32.77
853.956	-38.91
854.131	18.43
854.305	0
854.48	110.59
854.655	30.72
854.83	28.67
855.005	20.48
855.18	26.62
855.354	38.91
855.529	94.21
855.704	8.19
855.879	65.54
856.053	45.06
856.228	102.4
856.403	53.25
856.577	102.4
856.752	-18.43
856.926	26.62
857.101	-18.43
857.276	71.68
857.45	79.87
857.625	12.29
857.799	32.77
857.974	-12.29
858.148	24.58
858.323	100.35
858.497	92.16
858.672	81.92
858.846	53.25
859.02	45.06
859.195	32.77
859.369	79.87
859.543	-2.05
859.718	36.86
859.892	73.73
860.066	49.15
860.241	8.19
860.415	16.38
860.589	53.25
860.763	0
860.938	45.06
861.112	0
861.286	10.24
861.46	26.62
861.634	-16.38
861.808	10.24
861.982	22.53
862.157	-16.38
862.331	-57.34
862.505	-34.82
862.679	65.54
862.853	57.34
863.027	45.06
863.201	75.77
863.375	0
863.549	36.86
863.722	43.01
863.896	83.97
864.07	-20.48
864.244	53.25
864.418	34.82
864.592	124.93
864.766	-8.19
864.939	-24.58
865.113	8.19
865.287	45.06
865.461	-20.48
865.634	8.19
865.808	-8.19
865.982	47.1
866.156	-4.1
866.329	-14.34
866.503	30.72
866.676	49.15
866.85	0
867.024	69.63
867.197	-6.14
867.371	10.24
867.544	-6.14
867.718	0
867.891	71.68
868.065	-32.77
868.238	30.72
868.412	30.72
868.585	12.29
868.759	77.82
868.932	-8.19
869.105	-59.39
869.279	-18.43
869.452	-40.96
869.625	61.44
869.799	75.77
869.972	77.82
870.145	2.05
870.319	16.38
870.492	-38.91
870.665	-18.43
870.838	30.72
871.011	-24.58
871.185	34.82
871.358	6.14
871.531	77.82
871.704	-24.58
871.877	-20.48
872.05	6.14
872.223	-40.96
872.396	-28.67
872.569	45.06
872.742	-4.1
872.915	2.05
873.088	-26.62
873.261	-61.44
873.434	24.58
873.607	45.06
873.78	-67.58
873.953	71.68
874.126	-24.58
874.299	0
874.471	-43.01
874.644	38.91
874.817	-2.05
874.99	16.38
875.163	22.53
875.335	22.53
875.508	63.49
875.681	51.2
875.853	-16.38
876.026	32.77
876.199	-8.19
876.371	55.3
876.544	10.24
876.717	40.96
876.889	6.14
877.062	49.15
877.234	-38.91
877.407	-8.19
877.579	-14.34
877.752	-24.58
877.924	-18.43
878.097	8.19
878.269	-6.14
878.442	18.43
878.614	32.77
878.786	0
878.959	57.34
879.131	-26.62
879.303	26.62
879.476	51.2
879.648	4.1
879.82	10.24
879.993	4.1
880.165	-43.01
880.337	-36.86
880.509	38.91
880.681	-73.73
880.854	40.96
881.026	-20.48
881.198	36.86
881.37	12.29
881.542	-30.72
881.714	-34.82
881.886	40.96
882.058	14.34
882.23	53.25
882.402	20.48
882.574	-24.58
882.746	-20.48
882.918	0
883.09	43.01
883.262	-16.38
883.434	-32.77
883.606	16.38
883.778	38.91
883.95	45.06
884.122	-16.38
884.293	-51.2
884.465	20.48
884.637	45.06
884.809	-55.3
884.98	28.67
885.152	-14.34
885.324	45.06
885.496	-24.58
885.667	-18.43
885.839	-43.01
886.011	47.1
886.182	-6.14
886.354	-63.49
886.525	14.34
886.697	-36.86
886.869	-77.82
887.04	8.19
887.212	40.96
887.383	92.16
887.555	-57.34
887.726	-45.06
887.897	2.05
888.069	-4.1
888.24	57.34
888.412	49.15
888.583	24.58
888.754	2.05
888.926	-69.63
889.097	4.1
889.268	2.05
889.44	28.67
889.611	10.24
889.782	-40.96
889.953	-59.39
890.125	61.44
890.296	-16.38
890.467	79.87
890.638	-8.19
890.809	-61.44
890.98	24.58
891.151	16.38
891.323	-53.25
891.494	43.01
891.665	28.67
891.836	-8.19
892.007	40.96
892.178	65.54
892.349	16.38
892.52	-49.15
892.691	55.3
892.862	0
893.032	24.58
893.203	-43.01
893.374	-28.67
893.545	28.67
893.716	-71.68
893.887	32.77
894.057	-18.43
894.228	-2.05
894.399	28.67
894.57	47.1
894.74	4.1
894.911	14.34
895.082	-32.77
895.253	-18.43
895.423	-71.68
895.594	-20.48
895.764	-32.77
895.935	16.38
896.106	-61.44
896.276	-6.14
896.447	16.38
896.617	-6.14
896.788	-47.1
896.958	-30.72
897.129	-22.53
897.299	14.34
897.47	28.67
897.64	-30.72
897.81	18.43
897.981	57.34
898.151	26.62
898.322	12.29
898.492	-4.1
898.662	-30.72
898.832	8.19
899.003	79.87
899.173	-20.48
899.343	-20.48
899.513	-55.3
