Data from USB4F104151__239__11-11-22-971.txt Node

Date: Wed Mar 12 11:11:22 EDT 2025
User: louis
Spectrometer: USB4F10415
Trigger mode: 4
Integration Time (sec): 2.000000E-2
Scans to average: 1
Electric dark correction enabled: true
Nonlinearity correction enabled: false
Boxcar width: 0
XAxis mode: Wavelengths
Number of Pixels in Spectrum: 3648
>>>>>Begin Spectral Data<<<<<
178.204	-44.88
178.424	-44.88
178.644	-44.88
178.864	-81.75
179.084	-106.32
179.304	49.32
179.524	-61.27
179.744	32.94
179.964	49.32
180.184	6.31
180.404	-30.55
180.624	-3.93
180.844	32.94
181.064	16.55
181.283	-67.41
181.503	-24.4
181.723	0.17
181.943	-3.93
182.163	147.62
182.383	28.84
182.602	125.1
182.822	77.99
183.042	18.6
183.262	10.41
183.482	10.41
183.701	30.89
183.921	43.18
184.141	-3.93
184.361	47.27
184.58	16.55
184.8	37.03
185.02	18.6
185.239	57.51
185.459	77.99
185.679	4.27
185.898	22.7
186.118	47.27
186.338	41.13
186.557	16.55
186.777	14.51
186.997	73.9
187.216	-10.07
187.436	96.43
187.655	104.62
187.875	59.56
188.095	-14.17
188.314	20.65
188.534	102.57
188.753	118.95
188.973	-16.21
189.192	39.08
189.412	-38.74
189.631	51.37
189.851	-3.93
190.07	106.67
190.29	-10.07
190.509	0.17
190.729	88.23
190.948	51.37
191.168	67.75
191.387	61.61
191.607	22.7
191.826	24.75
192.045	57.51
192.265	22.7
192.484	59.56
192.704	-12.12
192.923	-10.07
193.142	39.08
193.362	16.55
193.581	28.84
193.8	8.36
194.02	41.13
194.239	43.18
194.458	26.79
194.678	86.19
194.897	28.84
195.116	-18.26
195.335	43.18
195.555	77.99
195.774	55.47
195.993	39.08
196.212	-20.31
196.432	-34.64
196.651	0.17
196.87	69.8
197.089	53.42
197.308	24.75
197.528	49.32
197.747	0.17
197.966	51.37
198.185	71.85
198.404	-71.51
198.623	118.95
198.842	67.75
199.062	41.13
199.281	45.23
199.5	-3.93
199.719	73.9
199.938	18.6
200.157	39.08
200.376	57.51
200.595	71.85
200.814	53.42
201.033	-48.98
201.252	0.17
201.471	28.84
201.69	116.9
201.909	49.32
202.128	114.86
202.347	55.47
202.566	45.23
202.785	55.47
203.004	28.84
203.223	0.17
203.442	65.71
203.661	37.03
203.879	12.46
204.098	28.84
204.317	10.41
204.536	-22.36
204.755	84.14
204.974	63.66
205.193	24.75
205.411	-3.93
205.63	12.46
205.849	43.18
206.068	67.75
206.287	39.08
206.505	102.57
206.724	28.84
206.943	114.86
207.162	53.42
207.381	-16.21
207.599	57.51
207.818	6.31
208.037	30.89
208.255	26.79
208.474	4.27
208.693	57.51
208.911	-1.88
209.13	47.27
209.349	-22.36
209.567	41.13
209.786	12.46
210.005	67.75
210.223	18.6
210.442	47.27
210.661	6.31
210.879	-28.5
211.098	12.46
211.316	22.7
211.535	86.19
211.753	69.8
211.972	12.46
212.191	12.46
212.409	-34.64
212.628	34.99
212.846	34.99
213.065	-10.07
213.283	39.08
213.502	-5.97
213.72	65.71
213.938	10.41
214.157	12.46
214.375	41.13
214.594	-28.5
214.812	77.99
215.031	63.66
215.249	20.65
215.467	-20.31
215.686	59.56
215.904	24.75
216.122	-3.93
216.341	6.31
216.559	-20.31
216.778	63.66
216.996	-10.07
217.214	63.66
217.432	86.19
217.651	20.65
217.869	16.55
218.087	28.84
218.306	34.99
218.524	75.95
218.742	71.85
218.96	-16.21
219.179	18.6
219.397	30.89
219.615	26.79
219.833	12.46
220.051	26.79
220.27	84.14
220.488	55.47
220.706	8.36
220.924	47.27
221.142	14.51
221.36	-16.21
221.578	45.23
221.796	-24.4
222.015	53.42
222.233	-32.6
222.451	49.32
222.669	-18.26
222.887	32.94
223.105	-10.07
223.323	18.6
223.541	-42.84
223.759	12.46
223.977	45.23
224.195	16.55
224.413	110.76
224.631	28.84
224.849	59.56
225.067	59.56
225.285	-1.88
225.503	8.36
225.721	-12.12
225.939	106.67
226.157	39.08
226.375	-10.07
226.592	57.51
226.81	8.36
227.028	18.6
227.246	24.75
227.464	-16.21
227.682	-28.5
227.9	53.42
228.117	53.42
228.335	-16.21
228.553	8.36
228.771	2.22
228.989	86.19
229.206	69.8
229.424	2.22
229.642	41.13
229.86	-12.12
230.077	49.32
230.295	18.6
230.513	53.42
230.731	92.33
230.948	69.8
231.166	49.32
231.384	59.56
231.601	-1.88
231.819	94.38
232.037	65.71
232.254	49.32
232.472	26.79
232.689	18.6
232.907	20.65
233.125	-5.97
233.342	-30.55
233.56	-14.17
233.777	0.17
233.995	57.51
234.213	37.03
234.43	82.09
234.648	65.71
234.865	69.8
235.083	77.99
235.3	-44.88
235.518	10.41
235.735	34.99
235.953	30.89
236.17	43.18
236.388	34.99
236.605	37.03
236.822	47.27
237.04	16.55
237.257	34.99
237.475	-10.07
237.692	34.99
237.909	51.37
238.127	30.89
238.344	88.23
238.562	30.89
238.779	-51.03
238.996	53.42
239.214	77.99
239.431	49.32
239.648	77.99
239.865	39.08
240.083	57.51
240.3	45.23
240.517	34.99
240.735	86.19
240.952	37.03
241.169	30.89
241.386	24.75
241.603	80.04
241.821	-26.45
242.038	16.55
242.255	0.17
242.472	-28.5
242.689	123.05
242.907	20.65
243.124	12.46
243.341	45.23
243.558	-34.64
243.775	20.65
243.992	12.46
244.209	45.23
244.426	61.61
244.643	34.99
244.86	39.08
245.078	96.43
245.295	49.32
245.512	45.23
245.729	24.75
245.946	14.51
246.163	49.32
246.38	-16.21
246.597	30.89
246.814	63.66
247.031	53.42
247.248	106.67
247.464	112.81
247.681	94.38
247.898	49.32
248.115	43.18
248.332	-20.31
248.549	61.61
248.766	80.04
248.983	86.19
249.2	57.51
249.417	82.09
249.633	88.23
249.85	-10.07
250.067	24.75
250.284	82.09
250.501	32.94
250.717	106.67
250.934	-75.6
251.151	30.89
251.368	-51.03
251.585	28.84
251.801	-24.4
252.018	6.31
252.235	22.7
252.451	-1.88
252.668	57.51
252.885	43.18
253.102	24.75
253.318	67.75
253.535	16.55
253.752	22.7
253.968	49.32
254.185	-46.93
254.401	-18.26
254.618	57.51
254.835	20.65
255.051	57.51
255.268	20.65
255.484	12.46
255.701	43.18
255.917	43.18
256.134	14.51
256.351	71.85
256.567	53.42
256.784	90.28
257	-18.26
257.217	51.37
257.433	51.37
257.65	-51.03
257.866	63.66
258.082	32.94
258.299	55.47
258.515	24.75
258.732	-34.64
258.948	6.31
259.165	80.04
259.381	47.27
259.597	57.51
259.814	51.37
260.03	43.18
260.246	82.09
260.463	69.8
260.679	75.95
260.895	-57.17
261.112	8.36
261.328	49.32
261.544	24.75
261.761	112.81
261.977	28.84
262.193	10.41
262.409	61.61
262.626	41.13
262.842	59.56
263.058	80.04
263.274	69.8
263.49	14.51
263.707	100.52
263.923	63.66
264.139	32.94
264.355	20.65
264.571	57.51
264.787	22.7
265.004	2.22
265.22	-16.21
265.436	63.66
265.652	18.6
265.868	71.85
266.084	4.27
266.3	18.6
266.516	-79.7
266.732	20.65
266.948	-22.36
267.164	45.23
267.38	26.79
267.596	131.24
267.812	121
268.028	98.47
268.244	55.47
268.46	45.23
268.676	-18.26
268.892	2.22
269.108	-1.88
269.324	6.31
269.54	39.08
269.756	53.42
269.972	-51.03
270.188	123.05
270.403	45.23
270.619	24.75
270.835	49.32
271.051	0.17
271.267	84.14
271.483	34.99
271.698	53.42
271.914	59.56
272.13	-22.36
272.346	-14.17
272.562	24.75
272.777	14.51
272.993	-14.17
273.209	65.71
273.425	10.41
273.64	55.47
273.856	10.41
274.072	41.13
274.287	57.51
274.503	84.14
274.719	57.51
274.934	157.86
275.15	-10.07
275.366	28.84
275.581	77.99
275.797	6.31
276.012	22.7
276.228	47.27
276.444	69.8
276.659	45.23
276.875	32.94
277.09	49.32
277.306	-1.88
277.521	53.42
277.737	28.84
277.952	59.56
278.168	92.33
278.383	102.57
278.599	41.13
278.814	22.7
279.03	-12.12
279.245	94.38
279.461	67.75
279.676	84.14
279.892	30.89
280.107	6.31
280.322	16.55
280.538	26.79
280.753	53.42
280.969	30.89
281.184	18.6
281.399	65.71
281.615	24.75
281.83	37.03
282.045	0.17
282.26	-44.88
282.476	4.27
282.691	102.57
282.906	98.47
283.122	67.75
283.337	143.53
283.552	37.03
283.767	73.9
283.983	92.33
284.198	34.99
284.413	-3.93
284.628	84.14
284.843	77.99
285.058	43.18
285.274	14.51
285.489	16.55
285.704	69.8
285.919	57.51
286.134	53.42
286.349	20.65
286.564	4.27
286.779	145.58
286.995	43.18
287.21	-46.93
287.425	8.36
287.64	90.28
287.855	55.47
288.07	55.47
288.285	88.23
288.5	55.47
288.715	51.37
288.93	24.75
289.145	32.94
289.36	-12.12
289.575	63.66
289.79	24.75
290.004	37.03
290.219	157.86
290.434	63.66
290.649	37.03
290.864	14.51
291.079	-24.4
291.294	84.14
291.509	20.65
291.724	82.09
291.938	49.32
292.153	22.7
292.368	28.84
292.583	147.62
292.798	51.37
293.012	69.8
293.227	53.42
293.442	14.51
293.657	-20.31
293.871	75.95
294.086	53.42
294.301	82.09
294.516	59.56
294.73	43.18
294.945	14.51
295.16	63.66
295.374	22.7
295.589	59.56
295.804	34.99
296.018	-24.4
296.233	47.27
296.447	49.32
296.662	-10.07
296.877	75.95
297.091	86.19
297.306	39.08
297.52	123.05
297.735	86.19
297.949	71.85
298.164	47.27
298.378	14.51
298.593	-24.4
298.807	96.43
299.022	55.47
299.236	88.23
299.451	98.47
299.665	41.13
299.88	51.37
300.094	47.27
300.309	59.56
300.523	153.77
300.737	84.14
300.952	73.9
301.166	12.46
301.381	18.6
301.595	37.03
301.809	18.6
302.024	63.66
302.238	98.47
302.452	116.9
302.667	37.03
302.881	59.56
303.095	53.42
303.309	8.36
303.524	47.27
303.738	71.85
303.952	69.8
304.166	53.42
304.381	86.19
304.595	59.56
304.809	-20.31
305.023	65.71
305.237	14.51
305.452	49.32
305.666	63.66
305.88	69.8
306.094	96.43
306.308	73.9
306.522	-1.88
306.736	69.8
306.95	80.04
307.164	53.42
307.379	47.27
307.593	112.81
307.807	75.95
308.021	16.55
308.235	80.04
308.449	-22.36
308.663	80.04
308.877	49.32
309.091	-5.97
309.305	6.31
309.519	-3.93
309.733	86.19
309.947	45.23
310.161	63.66
310.374	65.71
310.588	8.36
310.802	69.8
311.016	-106.32
311.23	84.14
311.444	37.03
311.658	71.85
311.872	71.85
312.085	84.14
312.299	84.14
312.513	37.03
312.727	82.09
312.941	-18.26
313.154	51.37
313.368	57.51
313.582	86.19
313.796	49.32
314.009	61.61
314.223	84.14
314.437	86.19
314.651	30.89
314.864	12.46
315.078	-20.31
315.292	71.85
315.505	61.61
315.719	-26.45
315.933	92.33
316.146	22.7
316.36	34.99
316.573	53.42
316.787	77.99
317.001	69.8
317.214	-24.4
317.428	75.95
317.641	28.84
317.855	10.41
318.068	41.13
318.282	28.84
318.495	88.23
318.709	65.71
318.922	10.41
319.136	84.14
319.349	145.58
319.563	14.51
319.776	47.27
319.99	6.31
320.203	39.08
320.417	-8.02
320.63	59.56
320.843	57.51
321.057	80.04
321.27	55.47
321.483	32.94
321.697	186.54
321.91	49.32
322.124	53.42
322.337	28.84
322.55	118.95
322.763	69.8
322.977	118.95
323.19	37.03
323.403	45.23
323.617	24.75
323.83	59.56
324.043	-24.4
324.256	65.71
324.469	-51.03
324.683	37.03
324.896	8.36
325.109	32.94
325.322	10.41
325.535	96.43
325.748	30.89
325.962	49.32
326.175	67.75
326.388	65.71
326.601	30.89
326.814	20.65
327.027	49.32
327.24	139.43
327.453	98.47
327.666	22.7
327.879	88.23
328.092	59.56
328.305	-34.64
328.518	24.75
328.731	-18.26
328.944	39.08
329.157	32.94
329.37	106.67
329.583	6.31
329.796	-5.97
330.009	10.41
330.222	53.42
330.435	98.47
330.648	10.41
330.861	75.95
331.073	41.13
331.286	61.61
331.499	32.94
331.712	-10.07
331.925	100.52
332.138	53.42
332.35	51.37
332.563	-44.88
332.776	67.75
332.989	-24.4
333.202	63.66
333.414	10.41
333.627	86.19
333.84	39.08
334.053	24.75
334.265	22.7
334.478	80.04
334.691	-16.21
334.903	86.19
335.116	69.8
335.329	71.85
335.541	86.19
335.754	127.14
335.966	28.84
336.179	41.13
336.392	43.18
336.604	69.8
336.817	94.38
337.029	34.99
337.242	49.32
337.454	131.24
337.667	43.18
337.88	114.86
338.092	28.84
338.305	53.42
338.517	37.03
338.729	57.51
338.942	73.9
339.154	20.65
339.367	77.99
339.579	82.09
339.792	47.27
340.004	112.81
340.217	49.32
340.429	80.04
340.641	37.03
340.854	69.8
341.066	28.84
341.278	20.65
341.491	69.8
341.703	41.13
341.915	118.95
342.128	32.94
342.34	10.41
342.552	41.13
342.764	73.9
342.977	2.22
343.189	61.61
343.401	77.99
343.613	106.67
343.826	16.55
344.038	127.14
344.25	77.99
344.462	59.56
344.674	147.62
344.886	32.94
345.099	63.66
345.311	24.75
345.523	71.85
345.735	-12.12
345.947	121
346.159	-48.98
346.371	20.65
346.583	28.84
346.795	53.42
347.007	-40.79
347.219	10.41
347.431	-44.88
347.643	73.9
347.855	26.79
348.067	37.03
348.279	10.41
348.491	75.95
348.703	49.32
348.915	75.95
349.127	92.33
349.339	73.9
349.551	45.23
349.763	61.61
349.975	37.03
350.187	110.76
350.399	65.71
350.61	63.66
350.822	51.37
351.034	14.51
351.246	77.99
351.458	53.42
351.669	77.99
351.881	39.08
352.093	155.82
352.305	131.24
352.517	47.27
352.728	112.81
352.94	45.23
353.152	108.71
353.363	80.04
353.575	49.32
353.787	30.89
353.999	24.75
354.21	94.38
354.422	77.99
354.633	24.75
354.845	24.75
355.057	71.85
355.268	49.32
355.48	77.99
355.692	24.75
355.903	73.9
356.115	24.75
356.326	39.08
356.538	67.75
356.749	47.27
356.961	69.8
357.172	65.71
357.384	-16.21
357.595	65.71
357.807	22.7
358.018	45.23
358.23	39.08
358.441	80.04
358.653	41.13
358.864	26.79
359.075	20.65
359.287	16.55
359.498	96.43
359.709	2.22
359.921	170.15
360.132	59.56
360.344	88.23
360.555	43.18
360.766	53.42
360.977	14.51
361.189	114.86
361.4	30.89
361.611	59.56
361.823	96.43
362.034	-3.93
362.245	34.99
362.456	82.09
362.667	98.47
362.879	69.8
363.09	-51.03
363.301	34.99
363.512	88.23
363.723	88.23
363.935	53.42
364.146	61.61
364.357	84.14
364.568	106.67
364.779	100.52
364.99	69.8
365.201	59.56
365.412	100.52
365.623	16.55
365.834	37.03
366.045	92.33
366.256	53.42
366.467	80.04
366.678	14.51
366.889	110.76
367.1	90.28
367.311	127.14
367.522	37.03
367.733	32.94
367.944	114.86
368.155	69.8
368.366	75.95
368.577	65.71
368.788	20.65
368.999	14.51
369.209	39.08
369.42	92.33
369.631	118.95
369.842	-5.97
370.053	32.94
370.264	82.09
370.474	49.32
370.685	2.22
370.896	100.52
371.107	67.75
371.317	71.85
371.528	59.56
371.739	73.9
371.95	82.09
372.16	22.7
372.371	43.18
372.582	49.32
372.792	18.6
373.003	47.27
373.214	90.28
373.424	67.75
373.635	-20.31
373.846	88.23
374.056	12.46
374.267	69.8
374.477	69.8
374.688	67.75
374.898	20.65
375.109	71.85
375.319	82.09
375.53	102.57
375.74	18.6
375.951	80.04
376.161	63.66
376.372	77.99
376.582	-18.26
376.793	127.14
377.003	45.23
377.214	86.19
377.424	55.47
377.635	10.41
377.845	39.08
378.055	55.47
378.266	67.75
378.476	51.37
378.686	67.75
378.897	75.95
379.107	102.57
379.317	61.61
379.528	57.51
379.738	108.71
379.948	61.61
380.158	96.43
380.369	73.9
380.579	90.28
380.789	65.71
380.999	143.53
381.21	51.37
381.42	102.57
381.63	108.71
381.84	-1.88
382.05	26.79
382.261	155.82
382.471	145.58
382.681	86.19
382.891	75.95
383.101	-3.93
383.311	53.42
383.521	69.8
383.731	110.76
383.941	102.57
384.151	57.51
384.361	57.51
384.571	49.32
384.781	65.71
384.991	102.57
385.201	41.13
385.411	63.66
385.621	65.71
385.831	82.09
386.041	135.34
386.251	63.66
386.461	80.04
386.671	104.62
386.881	43.18
387.091	49.32
387.301	59.56
387.511	75.95
387.72	104.62
387.93	88.23
388.14	88.23
388.35	45.23
388.56	116.9
388.769	30.89
388.979	0.17
389.189	51.37
389.399	121
389.609	67.75
389.818	118.95
390.028	88.23
390.238	133.29
390.447	80.04
390.657	90.28
390.867	57.51
391.076	49.32
391.286	59.56
391.496	104.62
391.705	127.14
391.915	92.33
392.125	88.23
392.334	73.9
392.544	176.3
392.753	104.62
392.963	92.33
393.172	49.32
393.382	108.71
393.591	151.72
393.801	153.77
394.01	100.52
394.22	94.38
394.429	14.51
394.639	24.75
394.848	133.29
395.058	53.42
395.267	135.34
395.477	67.75
395.686	145.58
395.895	133.29
396.105	178.34
396.314	170.15
396.524	123.05
396.733	84.14
396.942	65.71
397.152	125.1
397.361	118.95
397.57	69.8
397.78	86.19
397.989	170.15
398.198	159.91
398.407	147.62
398.617	106.67
398.826	102.57
399.035	92.33
399.244	108.71
399.453	116.9
399.663	172.2
399.872	73.9
400.081	28.84
400.29	51.37
400.499	94.38
400.708	135.34
400.917	139.43
401.127	137.38
401.336	73.9
401.545	147.62
401.754	125.1
401.963	73.9
402.172	118.95
402.381	192.68
402.59	159.91
402.799	233.64
403.008	155.82
403.217	135.34
403.426	180.39
403.635	41.13
403.844	143.53
404.053	221.35
404.262	139.43
404.471	219.3
404.68	194.73
404.888	121
405.097	166.06
405.306	174.25
405.515	166.06
405.724	278.69
405.933	239.78
406.142	256.17
406.35	229.54
406.559	180.39
406.768	211.11
406.977	256.17
407.185	204.97
407.394	274.6
407.603	198.82
407.812	245.93
408.02	276.65
408.229	270.5
408.438	225.45
408.646	241.83
408.855	311.46
409.064	299.17
409.272	311.46
409.481	325.8
409.69	286.89
409.898	393.38
410.107	311.46
410.315	354.47
410.524	374.95
410.733	364.71
410.941	370.85
411.15	495.78
411.358	434.34
411.567	544.93
411.775	475.3
411.984	458.92
412.192	516.26
412.401	436.39
412.609	542.88
412.818	592.03
413.026	463.01
413.234	592.03
413.443	649.38
413.651	606.37
413.86	626.85
414.068	657.57
414.276	688.29
414.485	753.82
414.693	676
414.901	755.87
415.11	850.08
415.318	858.27
415.526	860.32
415.734	917.66
415.943	878.75
416.151	921.76
416.359	917.66
416.567	968.86
416.776	1030.3
416.984	1067.16
417.192	1153.18
417.4	1079.45
417.608	1101.98
417.817	1220.76
418.025	1169.56
418.233	1317.01
418.441	1390.74
418.649	1382.55
418.857	1460.37
419.065	1448.08
419.273	1360.02
419.481	1497.24
419.689	1714.32
419.897	1742.99
420.105	1728.66
420.313	1857.68
420.521	1786
420.729	1880.21
420.937	1984.65
421.145	1982.6
421.353	2070.67
421.561	2207.88
421.769	2246.79
421.977	2381.96
422.185	2248.84
422.393	2443.4
422.601	2642.05
422.809	2783.36
423.017	2586.76
423.224	2699.39
423.432	2900.09
423.64	2916.48
423.848	3129.47
424.056	3025.02
424.263	3162.23
424.471	3299.45
424.679	3418.23
424.887	3657.84
425.094	3721.33
425.302	3661.94
425.51	3819.63
425.718	3850.35
425.925	3829.87
426.133	4073.58
426.341	4255.85
426.548	4581.48
426.756	4481.13
426.964	4581.48
427.171	4778.08
427.379	4862.05
427.586	4966.49
427.794	5062.75
428.001	5447.77
428.209	5695.57
428.417	5427.29
428.624	5931.09
428.832	5922.9
429.039	5754.96
429.247	5892.18
429.454	6334.54
429.662	6789.19
429.869	6430.79
430.076	6819.91
430.284	6645.83
430.491	7032.9
430.699	7422.01
430.906	7411.77
431.114	7499.83
431.321	7733.3
431.528	7944.24
431.736	8276.01
431.943	8654.89
432.15	8437.8
432.358	8548.39
432.565	9035.81
432.772	8972.32
432.979	9527.32
433.187	9648.15
433.394	9764.89
433.601	10467.34
433.808	10385.42
434.016	10416.14
434.223	10809.35
434.43	11278.33
434.637	11153.41
434.844	11833.33
435.052	12128.24
435.259	12013.56
435.466	12165.11
435.673	11972.6
435.88	12877.8
436.087	13371.36
436.294	13434.85
436.501	13156.32
436.708	13565.92
436.915	13907.93
437.122	14534.6
437.329	14460.88
437.537	14788.55
437.743	15302.59
437.95	14759.88
438.157	15845.3
438.364	16412.59
438.571	16240.56
438.778	16302
438.985	17624.99
439.192	17022.89
439.399	17880.99
439.606	17409.95
439.813	18399.12
440.02	19486.59
440.227	18864.01
440.433	18741.13
440.64	19734.4
440.847	19414.91
441.054	19967.87
441.261	21192.55
441.467	21446.5
441.674	21596
441.881	22120.28
442.088	21903.2
442.294	21622.62
442.501	22562.64
442.708	22908.75
442.914	23762.75
443.121	24475.45
443.328	24319.8
443.534	26017.57
443.741	25259.82
443.948	24729.39
444.154	26578.71
444.361	26335
444.568	26621.72
444.774	26435.35
444.981	26900.24
445.187	27883.27
445.394	28921.59
445.6	28292.86
445.807	31026.9
446.013	29732.58
446.22	30416.6
446.426	31356.62
446.633	31794.89
446.839	32820.92
447.046	31307.47
447.252	33005.24
447.459	33216.18
447.665	32972.47
447.871	34209.44
448.078	35890.82
448.284	33887.91
448.491	35212.95
448.697	36497.02
448.903	36804.22
449.11	36808.31
449.316	36345.47
449.522	36884.09
449.728	38198.88
449.935	38534.75
450.141	38143.59
450.347	39046.74
450.553	37901.93
450.76	38198.88
450.966	39267.92
451.172	39284.31
451.378	39986.76
451.584	39235.16
451.791	40279.62
451.997	39784.01
452.203	40977.98
452.409	40347.2
452.615	40543.81
452.821	38964.82
453.027	38618.72
453.233	40447.55
453.44	39069.27
453.646	39192.15
453.852	39462.48
454.058	40119.88
454.264	38753.88
454.47	39657.04
454.676	38860.38
454.882	39880.27
455.088	36515.45
455.294	36961.91
455.5	37236.34
455.705	37803.63
455.911	36560.51
456.117	35759.75
456.323	34981.52
456.529	33158.83
456.735	34748.06
456.941	33738.41
457.147	33085.11
457.352	32179.9
457.558	31755.97
457.764	31874.76
457.97	31452.87
458.176	30682.84
458.381	30672.6
458.587	29255.4
458.793	29234.92
458.999	27580.17
459.204	29662.95
459.41	29163.25
459.616	27057.93
459.821	27035.41
460.027	26771.22
460.233	26228.51
460.438	24811.31
460.644	25413.41
460.85	23949.12
461.055	23856.96
461.261	23910.21
461.466	22003.55
461.672	21260.13
461.878	22839.12
462.083	21389.16
462.289	21174.12
462.494	20731.76
462.7	19875.71
462.905	19251.08
463.111	20043.64
463.316	20260.73
463.522	19457.92
463.727	19814.27
463.932	19701.63
464.138	19445.63
464.343	19507.07
464.549	19062.66
464.754	19699.58
464.959	19412.87
465.165	19148.68
465.37	18673.55
465.575	17960.86
465.781	18724.75
465.986	19152.77
466.191	18249.62
466.397	17862.55
466.602	16971.69
466.807	17561.5
467.012	17602.46
467.218	17651.61
467.423	17330.08
467.628	17397.67
467.833	18065.3
468.038	17616.8
468.244	16965.54
468.449	17684.38
468.654	17137.57
468.859	17115.05
469.064	17022.89
469.269	16277.43
469.474	16426.93
469.679	16482.22
469.885	16314.29
470.09	16306.1
470.295	16136.12
470.5	16007.09
470.705	16091.06
470.91	15589.31
471.115	15572.93
471.32	15820.73
471.525	15730.62
471.73	15241.15
471.935	15273.92
472.139	14944.2
472.344	14968.77
472.549	14745.55
472.754	14704.59
472.959	14315.47
473.164	14043.09
473.369	13871.06
473.574	14264.27
473.778	14251.99
473.983	14098.39
474.188	14018.52
474.393	13498.33
474.598	13373.41
474.802	13344.74
475.007	13187.04
475.212	13291.49
475.417	12734.44
475.621	12863.46
475.826	12791.78
476.031	12572.65
476.235	12279.79
476.44	12718.06
476.645	12371.95
476.849	12185.58
477.054	11929.59
477.259	12083.19
477.463	12232.69
477.668	11724.79
477.872	11608.06
478.077	11640.83
478.282	11458.56
478.486	11378.69
478.691	11204.61
478.895	11167.74
479.1	11163.65
479.304	11083.78
479.509	10780.68
479.713	11102.21
479.918	10717.19
480.122	10641.42
480.326	10807.3
480.531	10686.47
480.735	10823.69
480.94	10690.57
481.144	10805.25
481.348	10448.91
481.553	10784.77
481.757	10348.56
481.961	10625.03
482.166	10424.33
482.37	10563.59
482.574	10283.02
482.778	10424.33
482.983	10850.31
483.187	10252.3
483.391	10584.07
483.595	10434.57
483.8	10407.95
484.004	10446.86
484.208	10432.52
484.412	10393.61
484.616	10412.04
484.821	10428.43
485.025	10381.32
485.229	10577.93
485.433	10348.56
485.637	10383.37
485.841	10387.47
486.045	10442.76
486.249	10315.79
486.453	10119.18
486.657	10356.75
486.861	10629.13
487.065	10121.23
487.269	10512.39
487.473	10184.72
487.677	10387.47
487.881	10604.55
488.085	10448.91
488.289	10520.59
488.493	10444.81
488.697	10491.91
488.901	10489.87
489.105	10608.65
489.309	10577.93
489.512	10532.87
489.716	10516.49
489.92	10424.33
490.124	10653.7
490.328	10864.64
490.531	10799.11
490.735	10846.21
490.939	10651.66
491.143	10614.79
491.346	10598.41
491.55	11177.98
491.754	11012.1
491.958	11036.67
492.161	10905.6
492.365	10987.52
492.569	10950.66
492.772	10956.8
492.976	11272.19
493.18	11298.81
493.383	11227.14
493.587	11423.74
493.79	11511.8
493.994	11350.01
494.197	11665.4
494.401	11745.27
494.605	11718.65
494.808	12050.42
495.012	11819
495.215	12025.84
495.419	11993.08
495.622	11964.4
495.825	12214.26
496.029	12285.94
496.232	12439.53
496.436	12259.31
496.639	12890.09
496.843	12775.4
497.046	12984.29
497.249	13078.5
497.453	13027.3
497.656	13205.47
497.859	13281.25
498.063	13490.14
498.266	13766.62
498.469	13756.38
498.673	13955.03
498.876	13879.25
499.079	14258.13
499.282	14159.83
499.485	14507.98
499.689	14710.73
499.892	14849.99
500.095	14905.29
500.298	15302.59
500.501	15271.87
500.705	15402.94
500.908	15749.05
501.111	15822.78
501.314	15933.37
501.517	16312.24
501.72	16185.27
501.923	16080.82
502.126	16560.05
502.329	16832.43
502.532	17080.23
502.735	17373.09
502.938	17547.17
503.141	17586.08
503.344	17577.89
503.547	17840.03
503.75	17948.57
503.953	18311.06
504.156	18659.21
504.359	18528.14
504.562	18786.19
504.765	19355.52
504.968	19173.25
505.17	19390.34
505.373	19609.47
505.576	20068.22
505.779	20010.87
505.982	20029.31
506.185	20467.57
506.387	20678.51
506.59	21084.01
506.793	21030.76
506.996	20950.89
507.198	21860.19
507.401	21657.44
507.604	22300.5
507.807	22366.04
508.009	22585.17
508.212	22529.87
508.415	22736.72
508.617	23349.06
508.82	23449.41
509.022	23037.77
509.225	23830.34
509.428	23746.37
509.63	24190.78
509.833	24612.66
510.035	25200.43
510.238	24688.43
510.44	25216.81
510.643	25513.77
510.845	25718.56
511.048	25818.91
511.25	26029.85
511.453	26275.61
511.655	27025.17
511.858	26846.99
512.06	27109.13
512.262	27535.11
512.465	27197.2
512.667	27567.88
512.87	28641.01
513.072	28329.72
513.274	28763.89
513.477	29208.3
513.679	28845.81
513.881	29488.87
514.084	29370.09
514.286	29851.36
514.488	29906.66
514.69	31000.27
514.893	30760.66
515.095	30883.54
515.297	31235.79
515.499	31246.03
515.701	31809.22
515.904	32054.98
516.106	32321.21
516.308	32489.15
516.51	32988.85
516.712	32870.07
516.914	33275.57
517.116	33832.61
517.318	34145.95
517.52	33969.83
517.722	34557.6
517.925	34809.5
518.127	34961.05
518.329	35188.37
518.531	35364.5
518.733	35751.56
518.935	36214.4
519.136	36363.9
519.338	36941.43
519.54	36447.87
519.742	37217.91
519.944	37295.73
520.146	37811.82
520.348	38151.78
520.55	38098.53
520.752	37832.3
520.954	39216.72
521.155	38506.08
521.357	39503.44
521.559	39474.77
521.761	40166.98
521.963	39632.46
522.164	39941.71
522.366	40144.45
522.568	40857.15
522.77	40726.08
522.971	41623.09
523.173	41301.56
523.375	41571.89
523.576	41748.01
523.778	41543.22
523.98	42839.58
524.181	42675.74
524.383	42575.39
524.584	42927.64
524.786	43054.62
524.988	43099.67
525.189	43058.71
525.391	43390.48
525.592	43826.7
525.794	43968.01
525.995	44054.03
526.197	44103.18
526.398	44181
526.6	44961.28
526.801	44762.62
527.003	45010.43
527.204	44717.57
527.406	45514.23
527.607	45549.04
527.808	45745.65
528.01	45159.93
528.211	45557.24
528.412	46446.05
528.614	46239.21
528.815	45725.17
529.016	46425.57
529.218	45868.53
529.419	46679.52
529.62	46130.67
529.822	46491.11
530.023	46411.24
530.224	46882.27
530.425	46847.46
530.626	46411.24
530.828	46444.01
531.029	47719.89
531.23	46763.49
531.431	46773.73
531.632	46876.13
531.833	47257.05
532.035	46812.64
532.236	47341.02
532.437	47255
532.638	46945.76
532.839	47687.12
533.04	47142.36
533.241	46884.32
533.442	47934.93
533.643	47576.53
533.844	47154.65
534.045	47535.57
534.246	47420.89
534.447	47433.17
534.648	47189.47
534.849	47541.72
535.05	47416.79
535.251	47500.76
535.451	47621.59
535.652	47738.32
535.853	47455.7
536.054	47564.24
536.255	47801.81
536.456	47099.36
536.657	48301.51
536.857	47506.9
537.058	47472.09
537.259	47736.27
537.46	47818.19
537.66	47467.99
537.861	48035.28
538.062	47584.72
538.263	47676.88
538.463	47822.29
538.664	47711.7
538.865	47717.84
539.065	48143.82
539.266	47662.55
539.466	48059.85
539.667	47429.08
539.868	48735.68
540.068	47771.09
540.269	47683.03
540.469	48186.83
540.67	47336.92
540.87	47635.92
541.071	47465.94
541.271	47740.37
541.472	47359.45
541.672	47375.83
541.873	47570.39
542.073	46861.79
542.274	47959.5
542.474	47543.77
542.675	47437.27
542.875	48074.19
543.075	47515.09
543.276	47214.04
543.476	47867.34
543.676	47062.49
543.877	47629.78
544.077	47379.93
544.277	47244.76
544.478	47379.93
544.678	47363.54
544.878	47867.34
545.078	47207.9
545.279	47140.32
545.479	47275.48
545.679	47465.94
545.879	47269.34
546.079	47711.7
546.28	47273.43
546.48	46925.28
546.68	47652.31
546.88	47445.46
547.08	47558.1
547.28	47441.37
547.48	47105.5
547.68	47646.16
547.88	47035.87
548.081	47619.54
548.281	47238.62
548.481	46919.13
548.681	47711.7
548.881	47187.42
549.081	47158.75
549.28	47474.13
549.48	47789.52
549.68	47191.51
549.88	47640.02
550.08	46908.89
550.28	47422.94
550.48	47031.77
550.68	47314.39
550.88	46689.76
551.08	47160.8
551.279	47455.7
551.479	47351.26
551.679	47226.33
551.879	47058.4
552.079	47117.79
552.278	46736.87
552.478	47039.96
552.678	47025.63
552.878	47140.32
553.077	46929.37
553.277	46669.28
553.477	47437.27
553.676	46626.28
553.876	46587.36
554.076	46704.1
554.275	46626.28
554.475	45938.16
554.674	46640.61
554.874	46683.62
555.074	46626.28
555.273	46546.4
555.473	46978.53
555.672	46876.13
555.872	46536.16
556.071	46720.48
556.271	46919.13
556.47	46460.39
556.67	46085.61
556.869	46470.63
557.068	46568.93
557.268	46593.51
557.467	46241.26
557.667	46331.37
557.866	46409.19
558.065	46233.07
558.265	46200.3
558.464	45876.72
558.663	46542.31
558.863	45551.09
559.062	46499.3
559.261	45940.21
559.461	46388.71
559.66	45471.22
559.859	46054.89
560.058	45639.15
560.258	46132.71
560.457	45139.45
560.656	45405.69
560.855	45256.18
561.054	45624.82
561.253	45307.38
561.453	45848.05
561.652	45608.43
561.851	45999.6
562.05	45118.97
562.249	45059.58
562.448	45966.83
562.647	45196.79
562.846	44840.45
563.045	45276.66
563.244	44699.14
563.443	45125.11
563.642	44488.2
563.841	44918.27
564.04	44748.29
564.239	44787.2
564.438	44148.23
564.637	44826.11
564.836	44445.19
565.035	43959.82
565.234	44350.98
565.432	44359.17
565.631	43914.76
565.83	44195.34
566.029	43912.72
566.228	43648.53
566.427	43410.96
566.625	43890.19
566.824	43339.29
567.023	43771.41
567.222	42860.06
567.42	43683.34
567.619	43537.94
567.818	43578.9
568.016	43142.68
568.215	43578.9
568.414	43273.75
568.612	43677.2
568.811	42870.3
569.01	42984.99
569.208	42774.05
569.407	43183.64
569.605	42346.02
569.804	42837.53
570.002	42290.73
570.201	42862.11
570.4	42042.92
570.598	42038.83
570.797	42173.99
570.995	41864.75
571.193	42429.99
571.392	42321.44
571.59	41741.87
571.789	41928.23
571.987	41635.38
572.186	41987.63
572.384	41666.09
572.582	41694.77
572.781	41797.16
572.979	40998.46
573.177	41545.26
573.376	41727.53
573.574	40988.22
573.772	41178.68
573.971	40986.17
574.169	40885.82
574.367	40511.04
574.565	40687.17
574.763	40803.9
574.962	40517.18
575.16	40146.5
575.358	40779.32
575.556	40134.21
575.754	40576.58
575.952	40117.83
576.151	40547.9
576.349	39730.76
576.547	40265.28
576.745	39853.64
576.943	39820.88
577.141	39775.82
577.339	39921.23
577.537	39444.05
577.735	39538.26
577.933	38786.65
578.131	39482.96
578.329	39192.15
578.527	38884.95
578.725	39106.13
578.923	39202.39
579.121	38604.38
579.319	38956.63
579.516	39118.42
579.714	38936.15
579.912	38340.19
580.11	38606.43
580.308	38588
580.506	38317.67
580.704	37754.47
580.901	38145.64
581.099	38385.25
581.297	37543.53
581.495	37531.25
581.692	37908.07
581.89	37561.97
582.088	37674.6
582.285	37437.04
582.483	37852.78
582.681	37586.54
582.878	37029.49
583.076	36925.05
583.274	37156.47
583.471	36413.06
583.669	36624
583.866	36636.28
584.064	37006.97
584.262	36394.62
584.459	37160.56
584.657	36435.58
584.854	36781.69
585.052	36062.85
585.249	36574.84
585.447	35974.79
585.644	35479.18
585.841	35935.88
586.039	35950.21
586.236	35870.34
586.434	35815.05
586.631	35647.11
586.828	35720.84
587.026	35673.74
587.223	35092.12
587.42	35217.04
587.618	35292.82
587.815	34985.62
588.012	35045.01
588.21	34283.17
588.407	35225.23
588.604	34668.19
588.801	34551.45
588.999	34698.91
589.196	34248.35
589.393	34541.21
589.59	33867.43
589.787	34309.79
589.984	33973.92
590.182	33767.08
590.379	33920.68
590.576	33638.06
590.773	33597.1
590.97	33384.11
591.167	33791.66
591.364	32925.36
591.561	33502.89
591.758	32861.88
591.955	33167.02
592.152	33296.05
592.349	32872.12
592.546	32878.26
592.743	33058.48
592.94	32071.36
593.137	32804.53
593.334	32612.03
593.531	32069.31
593.727	32442.04
593.924	32095.94
594.121	32063.17
594.318	32202.43
594.515	31559.37
594.712	32343.74
594.908	31948.48
595.105	32005.83
595.302	31590.09
595.499	31573.7
595.696	31332.04
595.892	31579.85
596.089	31442.63
596.286	31252.17
596.482	31078.1
596.679	30865.11
596.876	31330
597.072	30465.75
597.269	30996.18
597.466	30430.94
597.662	30490.33
597.859	30678.74
598.055	30369.5
598.252	30332.64
598.448	30332.64
598.645	29988.58
598.841	29787.88
599.038	30113.5
599.234	29757.16
599.431	29808.36
599.627	29640.42
599.824	30054.11
600.02	29697.77
600.217	29585.13
600.413	29304.56
600.609	29224.68
600.806	29349.61
601.002	29478.63
601.198	28960.5
601.395	28894.96
601.591	28714.74
601.787	28765.94
601.984	28428.02
602.18	28890.87
602.376	28073.73
602.572	28112.64
602.769	28673.78
602.965	28100.35
603.161	28366.59
603.357	28169.98
603.553	27825.92
603.75	28149.5
603.946	27952.9
604.142	28104.45
604.338	27318.03
604.534	28090.11
604.73	27455.24
604.926	27539.21
605.122	27422.47
605.318	27406.09
605.514	27158.28
605.71	27078.41
605.906	27113.23
606.102	27127.56
606.298	27090.7
606.494	27062.03
606.69	26900.24
606.886	26865.42
607.082	26543.89
607.278	26654.48
607.474	26648.34
607.67	26717.97
607.866	26076.96
608.062	26351.38
608.257	26117.92
608.453	26531.61
608.649	26177.31
608.845	26236.7
609.041	25771.81
609.236	26101.53
609.432	25571.11
609.628	25921.31
609.824	25997.09
610.019	25614.12
610.215	25616.16
610.411	25810.72
610.606	25386.79
610.802	25952.03
610.998	25509.67
611.193	25710.37
611.389	25184.04
611.584	25536.29
611.78	25110.32
611.976	25577.25
612.171	25411.37
612.367	25513.77
612.562	25034.54
612.758	24747.83
612.953	25083.69
613.149	25392.94
613.344	24794.93
613.539	25044.78
613.735	24860.46
613.93	25233.19
614.126	24649.52
614.321	25134.89
614.517	24737.59
614.712	24432.44
614.907	24344.38
615.103	24641.33
615.298	24520.5
615.493	24583.99
615.688	24325.94
615.884	24846.13
616.079	24254.26
616.274	24532.79
616.47	24170.3
616.665	24309.56
616.86	23697.22
617.055	24153.91
617.25	24053.56
617.445	24188.73
617.641	23557.96
617.836	24014.65
618.031	23344.97
618.226	23660.35
618.421	23840.57
618.616	24004.41
618.811	23215.94
619.006	23828.29
619.201	23381.83
619.396	23125.83
619.591	22959.95
619.786	23125.83
619.981	22966.09
620.176	22886.22
620.371	22636.37
620.566	22544.21
620.761	22425.43
620.956	22830.93
621.151	22138.71
621.346	22548.31
621.541	22087.51
621.735	22095.71
621.93	21956.44
622.125	22060.89
622.32	21571.43
622.515	21823.33
622.709	21458.79
622.904	21636.96
623.099	21573.47
623.294	21448.55
623.488	21057.39
623.683	21229.41
623.878	21155.69
624.072	21012.33
624.267	20795.25
624.462	20617.07
624.656	20590.45
624.851	20660.08
625.046	20363.12
625.24	20399.99
625.435	20189.05
625.629	20008.83
625.824	20156.28
626.018	19545.98
626.213	19683.2
626.407	19732.35
626.602	19263.36
626.796	19367.81
626.991	19509.12
627.185	19134.34
627.38	19197.83
627.574	19021.7
627.768	18749.32
627.963	18726.8
628.157	18493.33
628.352	18802.57
628.546	18440.08
628.74	18397.07
628.935	18370.45
629.129	18347.92
629.323	18171.8
629.517	17975.19
629.712	17799.07
629.906	17991.58
630.1	17657.76
630.294	17794.97
630.489	17467.3
630.683	17555.36
630.877	17307.55
631.071	17311.65
631.265	17182.63
631.459	17227.68
631.653	17125.29
631.848	16924.58
632.042	16764.84
632.236	17065.89
632.43	16889.77
632.624	16670.64
632.818	16449.46
633.012	16164.79
633.206	16203.7
633.4	16433.07
633.594	16093.11
633.788	16185.27
633.982	16101.3
634.176	16211.89
634.369	15820.73
634.563	15699.9
634.757	15622.08
634.951	15841.21
635.145	15523.77
635.339	15341.5
635.533	15359.94
635.726	15388.61
635.92	15273.92
636.114	15347.65
636.308	14884.81
636.501	15079.36
636.695	14876.62
636.889	14917.58
637.083	14757.83
637.276	14723.02
637.47	14487.5
637.664	14557.13
637.857	14381.01
638.051	14464.97
638.244	14286.8
638.438	14307.28
638.632	14082
638.825	14018.52
639.019	14090.2
639.212	14069.72
639.406	14024.66
639.599	13725.66
639.793	13819.86
639.986	13653.98
640.18	13508.57
640.373	13604.83
640.567	13406.17
640.76	13311.97
640.954	13373.41
641.147	13172.71
641.34	12959.72
641.534	13074.4
641.727	12941.29
641.92	12976.1
642.114	12799.98
642.307	12847.08
642.5	12920.81
642.694	12529.64
642.887	12574.7
643.08	12793.83
643.273	12584.94
643.467	12496.88
643.66	12322.8
643.853	12320.75
644.046	12169.2
644.239	12079.09
644.432	12181.49
644.626	11886.58
644.819	12050.42
645.012	12142.58
645.205	11827.19
645.398	11796.47
645.591	11780.09
645.784	11634.68
645.977	11671.54
646.17	11655.16
646.363	11673.59
646.556	11309.05
646.749	11431.93
646.942	11298.81
647.135	11165.7
647.328	11323.39
647.521	11134.98
647.714	11059.2
647.907	10946.56
648.099	10852.36
648.292	10997.76
648.485	10790.92
648.678	10868.74
648.871	10405.9
649.064	10719.24
649.256	10655.75
649.449	10676.23
649.642	10768.39
649.835	10258.45
650.027	10194.96
650.22	10244.11
650.413	10461.2
650.605	10346.51
650.798	10342.41
650.991	9930.77
651.183	10280.97
651.376	10141.71
651.568	10213.39
651.761	9914.39
651.954	9910.29
652.146	9885.72
652.339	9818.13
652.531	9826.32
652.724	9785.37
652.916	9437.21
653.109	9527.32
653.301	9308.19
653.494	9599
653.686	9261.09
653.879	9531.42
654.071	9326.62
654.263	9261.09
654.456	9295.9
654.648	9238.56
654.84	8982.56
655.033	9132.06
655.225	8962.08
655.417	8923.17
655.61	9029.66
655.802	8898.59
655.994	8978.47
656.186	8880.16
656.379	8917.03
656.571	8779.81
656.763	8532.01
656.955	8532.01
657.148	8513.58
657.34	8509.48
657.532	8515.62
657.724	8472.62
657.916	8445.99
658.108	8468.52
658.3	8413.23
658.492	8400.94
658.684	8255.53
658.876	8239.15
659.068	8259.63
659.26	8034.35
659.452	7974.96
659.644	8171.57
659.836	7776.31
660.028	7847.99
660.22	7979.06
660.412	7950.39
660.604	7764.02
660.796	7761.97
660.988	7729.2
661.18	7770.16
661.372	7702.58
661.563	7688.25
661.755	7528.5
661.947	7526.46
662.139	7346.23
662.331	7413.82
662.522	7260.22
662.714	7319.61
662.906	7303.23
663.097	7391.29
663.289	7211.07
663.481	7198.78
663.673	7247.93
663.864	7180.35
664.056	7178.3
664.247	7209.02
664.439	6967.36
664.631	7108.67
664.822	6930.5
665.014	6920.26
665.205	6883.39
665.397	6766.66
665.588	6735.94
665.78	6639.69
665.971	6588.49
666.163	6887.49
666.354	6572.1
666.546	6676.55
666.737	6475.85
666.929	6539.33
667.12	6481.99
667.311	6613.06
667.503	6367.31
667.694	6299.72
667.885	6504.52
668.077	6406.22
668.268	6307.91
668.459	6285.39
668.651	6314.06
668.842	6189.13
669.033	6078.54
669.224	6170.7
669.416	6043.73
669.607	6088.78
669.798	5970
669.989	6010.96
670.18	5877.84
670.371	6033.49
670.563	5906.51
670.754	5818.45
670.945	5851.22
671.136	5818.45
671.327	5638.23
671.518	5673.04
671.709	5726.29
671.9	5912.66
672.091	5648.47
672.282	5660.76
672.473	5570.65
672.664	5675.09
672.855	5730.39
673.046	5789.78
673.237	5630.04
673.428	5509.21
673.619	5613.65
673.809	5627.99
674	5410.9
674.191	5386.33
674.382	5415
674.573	5396.57
674.764	5343.32
674.954	5382.23
675.145	5228.63
675.336	5279.83
675.527	5281.88
675.717	5292.12
675.908	5064.8
676.099	5154.91
676.289	5257.31
676.48	5116
676.671	5048.41
676.861	5044.32
677.052	5050.46
677.243	4999.26
677.433	4888.67
677.624	5154.91
677.814	5122.14
678.005	5113.95
678.195	4843.62
678.386	5056.61
678.576	4866.14
678.767	4823.14
678.957	4925.54
679.148	4882.53
679.338	4794.47
679.529	4866.14
679.719	4778.08
679.909	4931.68
680.1	4898.91
680.29	4798.56
680.481	4737.12
680.671	4685.92
680.861	4636.77
681.052	4638.82
681.242	4579.43
681.432	4585.57
681.622	4647.01
681.813	4505.7
682.003	4663.4
682.193	4522.09
682.383	4505.7
682.573	4485.22
682.764	4466.79
682.954	4610.15
683.144	4411.5
683.334	4372.58
683.524	4419.69
683.714	4466.79
683.904	4257.9
684.094	4438.12
684.284	4397.16
684.474	4460.65
684.664	4288.62
684.854	4296.81
685.044	4274.28
685.234	4413.54
685.424	4208.75
685.614	4468.84
685.804	4290.67
685.994	4243.56
686.184	4210.79
686.374	4352.1
686.564	4206.7
686.753	4206.7
686.943	3965.04
687.133	4079.72
687.323	4077.68
687.513	4003.95
687.702	3997.81
687.892	4038.77
688.082	3954.8
688.272	3930.22
688.461	3864.69
688.651	3954.8
688.841	3862.64
689.03	3858.54
689.22	3899.5
689.41	3702.9
689.599	3776.63
689.789	3788.91
689.979	3833.97
690.168	3793.01
690.358	3467.38
690.547	3790.96
690.737	3678.32
690.926	3739.76
691.116	3704.95
691.305	3752.05
691.495	3516.53
691.684	3756.15
691.874	3737.71
692.063	3534.96
692.252	3516.53
692.442	3709.04
692.631	3649.65
692.82	3539.06
693.01	3590.26
693.199	3502.2
693.388	3358.84
693.578	3557.49
693.767	3541.11
693.956	3537.01
694.146	3483.77
694.335	3512.44
694.524	3391.61
694.713	3530.87
694.902	3377.27
695.092	3543.16
695.281	3381.37
695.47	3459.19
695.659	3430.52
695.848	3328.12
696.037	3346.55
696.226	3324.02
696.415	3231.87
696.604	3346.55
696.793	3281.02
696.982	3223.67
697.171	3209.34
697.36	3293.3
697.549	3135.61
697.738	3209.34
697.927	3270.78
698.116	3207.29
698.305	3096.7
698.494	3225.72
698.683	3182.71
698.872	3268.73
699.061	3031.16
699.25	3332.22
699.438	3219.58
699.627	3147.9
699.816	3111.04
700.005	3182.71
700.193	2955.39
700.382	3117.18
700.571	3059.84
700.76	3063.93
700.948	3156.09
701.137	3113.08
701.326	3127.42
701.514	3102.84
701.703	3082.36
701.892	3096.7
702.08	3070.08
702.269	3055.74
702.457	2793.6
702.646	3010.68
702.834	3072.12
703.023	3076.22
703.212	3002.49
703.4	2809.98
703.589	2859.14
703.777	2992.25
703.965	2754.69
704.154	2918.53
704.342	3008.64
704.531	2926.72
704.719	2939.01
704.907	2979.97
705.096	3018.88
705.284	2873.47
705.472	2891.9
705.661	2840.7
705.849	2898.05
706.037	2850.94
706.226	2918.53
706.414	2785.41
706.602	2861.18
706.79	2846.85
706.979	2828.42
707.167	2920.57
707.355	2875.52
707.543	2734.21
707.731	2717.83
707.919	2834.56
708.107	2855.04
708.296	2793.6
708.484	2818.18
708.672	2701.44
708.86	2789.5
709.048	2816.13
709.236	2797.7
709.424	2762.88
709.612	2689.15
709.8	2629.76
709.988	2742.4
710.176	2805.89
710.364	2762.88
710.551	2683.01
710.739	2680.96
710.927	2783.36
711.115	2711.68
711.303	2861.18
711.491	2586.76
711.679	2609.28
711.866	2556.04
712.054	2764.93
712.242	2615.43
712.43	2697.35
712.617	2549.89
712.805	2648.19
712.993	2629.76
713.181	2627.71
713.368	2707.59
713.556	2693.25
713.744	2490.5
713.931	2654.34
714.119	2541.7
714.306	2613.38
714.494	2658.43
714.682	2418.82
714.869	2685.06
715.057	2574.47
715.244	2410.63
715.432	2570.37
715.619	2693.25
715.807	2506.88
715.994	2465.93
716.182	2529.41
716.369	2467.97
716.556	2490.5
716.744	2484.36
716.931	2490.5
717.119	2502.79
717.306	2427.01
717.493	2451.59
717.681	2433.16
717.868	2556.04
718.055	2449.54
718.242	2541.7
718.43	2424.97
718.617	2453.64
718.804	2531.46
718.991	2355.33
719.179	2486.4
719.366	2402.44
719.553	2486.4
719.74	2363.53
719.927	2424.97
720.114	2478.21
720.301	2433.16
720.488	2365.57
720.676	2191.5
720.863	2285.7
721.05	2365.57
721.237	2412.68
721.424	2371.72
721.611	2453.64
721.798	2445.45
721.985	2351.24
722.172	2373.77
722.358	2437.25
722.545	2285.7
722.732	2338.95
722.919	2293.9
723.106	2449.54
723.293	2332.81
723.48	2232.46
723.667	2302.09
723.853	2318.47
724.04	2285.7
724.227	2259.08
724.414	2334.86
724.6	2244.74
724.787	2273.42
724.974	2283.66
725.161	2224.26
725.347	2144.39
725.534	2271.37
725.72	2308.23
725.907	2224.26
726.094	2273.42
726.28	2162.83
726.467	2306.18
726.653	2054.28
726.84	2203.79
727.027	2328.71
727.213	2173.07
727.4	2386.05
727.586	2351.24
727.773	2234.5
727.959	2136.2
728.145	2271.37
728.332	2164.87
728.518	2185.35
728.705	2300.04
728.891	2117.77
729.077	2238.6
729.264	2222.22
729.45	2144.39
729.636	2191.5
729.823	2232.46
730.009	2109.58
730.195	2220.17
730.382	2181.26
730.568	2203.79
730.754	2078.86
730.94	2211.98
731.126	2125.96
731.313	2068.62
731.499	2125.96
731.685	2177.16
731.871	2134.15
732.057	2142.35
732.243	2005.13
732.429	2123.91
732.615	2025.61
732.801	2111.63
732.987	2134.15
733.173	2254.98
733.359	2070.67
733.545	2105.48
733.731	2048.14
733.917	2054.28
734.103	2138.25
734.289	2050.19
734.475	2074.76
734.661	2064.52
734.847	2007.18
735.033	2054.28
735.219	2023.56
735.404	2113.67
735.59	1998.99
735.776	2117.77
735.962	2039.95
736.148	2037.9
736.333	1988.75
736.519	2060.43
736.705	2074.76
736.89	1904.78
737.076	1892.49
737.262	2039.95
737.447	2027.66
737.633	1988.75
737.819	2060.43
738.004	1845.39
738.19	1974.41
738.375	1906.83
738.561	1992.84
738.747	1908.88
738.932	2013.32
739.118	1923.21
739.303	1896.59
739.489	1949.84
739.674	2017.42
739.859	1966.22
740.045	1872.01
740.23	1994.89
740.416	1732.75
740.601	1880.21
740.786	1861.77
740.972	1847.44
741.157	1826.96
741.342	1802.38
741.528	1804.43
741.713	1829.01
741.898	1796.24
742.084	1802.38
742.269	1863.82
742.454	1691.79
742.639	1712.27
742.824	1751.18
743.01	1765.52
743.195	1788.05
743.38	1759.38
743.565	1716.37
743.75	1800.34
743.935	1831.05
744.12	1802.38
744.305	1714.32
744.49	1673.36
744.675	1742.99
744.86	1720.46
745.045	1788.05
745.23	1648.79
745.415	1798.29
745.6	1763.47
745.785	1661.07
745.97	1671.31
746.155	1712.27
746.34	1679.51
746.525	1638.55
746.71	1628.31
746.895	1685.65
747.079	1613.97
747.264	1538.2
747.449	1691.79
747.634	1687.7
747.819	1472.66
748.003	1474.71
748.188	1556.63
748.373	1603.73
748.557	1527.96
748.742	1507.48
748.927	1530
749.111	1372.31
749.296	1433.75
749.481	1519.76
749.665	1468.56
749.85	1487
750.034	1470.61
750.219	1499.28
750.404	1419.41
750.588	1478.8
750.773	1460.37
750.957	1429.65
751.141	1376.41
751.326	1388.69
751.51	1484.95
751.695	1398.93
751.879	1362.07
752.064	1433.75
752.248	1382.55
752.432	1503.38
752.617	1456.28
752.801	1390.74
752.985	1329.3
753.17	1269.91
753.354	1312.92
753.538	1392.79
753.722	1245.34
753.907	1335.45
754.091	1274.01
754.275	1347.73
754.459	1249.43
754.643	1233.05
754.828	1233.05
755.012	1261.72
755.196	1122.46
755.38	1185.94
755.564	1237.14
755.748	1216.66
755.932	1204.38
756.116	1126.55
756.3	1245.34
756.484	1187.99
756.668	1194.14
756.852	1179.8
757.036	1175.7
757.22	1101.98
757.404	1091.74
757.588	1132.7
757.772	1159.32
757.956	1144.99
758.14	1157.27
758.323	1067.16
758.507	1034.39
758.691	1118.36
758.875	1020.06
759.059	1212.57
759.242	1065.11
759.426	1081.5
759.61	1138.84
759.794	1001.63
759.977	1048.73
760.161	1042.59
760.345	1042.59
760.528	1036.44
760.712	1028.25
760.895	1054.87
761.079	999.58
761.263	991.39
761.446	1015.96
761.63	1001.63
761.813	942.24
761.997	958.62
762.18	962.72
762.364	909.47
762.547	1020.06
762.731	970.91
762.914	979.1
763.098	1067.16
763.281	966.81
763.464	946.33
763.648	917.66
763.831	874.65
764.015	968.86
764.198	981.15
764.381	950.43
764.564	968.86
764.748	852.13
764.931	850.08
765.114	843.93
765.297	968.86
765.481	872.61
765.664	923.8
765.847	925.85
766.03	993.44
766.213	878.75
766.397	936.09
766.58	919.71
766.763	905.37
766.946	886.94
767.129	825.5
767.312	927.9
767.495	829.6
767.678	796.83
767.861	854.17
768.044	870.56
768.227	852.13
768.41	888.99
768.593	876.7
768.776	802.97
768.959	772.25
769.142	780.45
769.324	805.02
769.507	866.46
769.69	884.89
769.873	852.13
770.056	802.97
770.239	925.85
770.421	835.74
770.604	811.17
770.787	788.64
770.97	796.83
771.152	770.21
771.335	786.59
771.518	729.25
771.7	821.41
771.883	815.26
772.066	755.87
772.248	774.3
772.431	839.84
772.613	741.54
772.796	741.54
772.978	809.12
773.161	764.06
773.343	780.45
773.526	776.35
773.708	719.01
773.891	741.54
774.073	702.62
774.256	696.48
774.438	807.07
774.621	733.34
774.803	762.02
774.985	686.24
775.168	725.15
775.35	757.92
775.532	686.24
775.715	696.48
775.897	655.52
776.079	719.01
776.261	688.29
776.444	696.48
776.626	673.95
776.808	647.33
776.99	688.29
777.173	608.42
777.355	600.23
777.537	639.14
777.719	549.03
777.901	622.75
778.083	624.8
778.265	696.48
778.447	635.04
778.629	626.85
778.811	624.8
778.993	653.47
779.175	618.66
779.357	598.18
779.539	639.14
779.721	704.67
779.903	569.51
780.085	583.84
780.267	624.8
780.449	628.9
780.631	544.93
780.812	632.99
780.994	446.63
781.176	606.37
781.358	546.98
781.54	508.07
781.721	528.55
781.903	512.16
782.085	557.22
782.267	481.44
782.448	458.92
782.63	469.16
782.812	526.5
782.993	561.31
783.175	463.01
783.357	440.48
783.538	528.55
783.72	495.78
783.901	495.78
784.083	487.59
784.264	493.73
784.446	428.2
784.627	487.59
784.809	368.81
784.99	444.58
785.172	497.83
785.353	469.16
785.535	362.66
785.716	385.19
785.897	424.1
786.079	415.91
786.26	483.49
786.441	483.49
786.623	424.1
786.804	364.71
786.985	383.14
787.167	374.95
787.348	377
787.529	411.81
787.71	368.81
787.891	426.15
788.073	340.13
788.254	411.81
788.435	411.81
788.616	424.1
788.797	409.76
788.978	315.56
789.159	401.57
789.34	397.48
789.522	329.89
789.703	362.66
789.884	430.24
790.065	340.13
790.246	383.14
790.427	338.09
790.607	399.52
790.788	411.81
790.969	323.75
791.15	368.81
791.331	278.69
791.512	276.65
791.693	346.28
791.874	315.56
792.054	366.76
792.235	436.39
792.416	426.15
792.597	282.79
792.778	444.58
792.958	368.81
793.139	303.27
793.32	393.38
793.5	266.41
793.681	356.52
793.862	331.94
794.042	313.51
794.223	360.61
794.404	331.94
794.584	262.31
794.765	227.5
794.945	311.46
795.126	288.93
795.306	299.17
795.487	346.28
795.667	264.36
795.848	338.09
796.028	293.03
796.209	329.89
796.389	295.08
796.57	311.46
796.75	276.65
796.93	346.28
797.111	315.56
797.291	307.37
797.471	209.06
797.652	202.92
797.832	290.98
798.012	290.98
798.192	274.6
798.373	229.54
798.553	250.02
798.733	325.8
798.913	223.4
799.093	260.26
799.274	247.97
799.454	299.17
799.634	225.45
799.814	319.65
799.994	241.83
800.174	280.74
800.354	260.26
800.534	227.5
800.714	225.45
800.894	264.36
801.074	211.11
801.254	190.63
801.434	274.6
801.614	290.98
801.794	278.69
801.974	477.35
802.154	204.97
802.334	254.12
802.514	241.83
802.693	213.16
802.873	231.59
803.053	247.97
803.233	254.12
803.413	223.4
803.592	204.97
803.772	237.74
803.952	245.93
804.131	192.68
804.311	260.26
804.491	270.5
804.67	211.11
804.85	200.87
805.03	192.68
805.209	270.5
805.389	147.62
805.568	164.01
805.748	178.34
805.928	192.68
806.107	229.54
806.287	235.69
806.466	204.97
806.646	182.44
806.825	200.87
807.004	129.19
807.184	192.68
807.363	139.43
807.543	215.21
807.722	155.82
807.901	157.86
808.081	188.58
808.26	186.54
808.439	258.21
808.619	225.45
808.798	219.3
808.977	174.25
809.156	211.11
809.336	217.26
809.515	178.34
809.694	121
809.873	129.19
810.052	196.78
810.231	215.21
810.411	190.63
810.59	241.83
810.769	112.81
810.948	198.82
811.127	161.96
811.306	131.24
811.485	178.34
811.664	184.49
811.843	151.72
812.022	213.16
812.201	178.34
812.38	143.53
812.559	180.39
812.737	131.24
812.916	202.92
813.095	192.68
813.274	178.34
813.453	182.44
813.632	127.14
813.811	131.24
813.989	219.3
814.168	176.3
814.347	194.73
814.526	161.96
814.704	149.67
814.883	227.5
815.062	147.62
815.24	157.86
815.419	161.96
815.598	237.74
815.776	139.43
815.955	137.38
816.133	127.14
816.312	121
816.49	166.06
816.669	123.05
816.847	153.77
817.026	211.11
817.204	155.82
817.383	172.2
817.561	123.05
817.74	147.62
817.918	118.95
818.097	176.3
818.275	96.43
818.453	176.3
818.632	211.11
818.81	108.71
818.988	166.06
819.167	161.96
819.345	153.77
819.523	114.86
819.701	192.68
819.879	92.33
820.058	153.77
820.236	133.29
820.414	98.47
820.592	73.9
820.77	145.58
820.948	67.75
821.127	186.54
821.305	243.88
821.483	71.85
821.661	147.62
821.839	116.9
822.017	32.94
822.195	67.75
822.373	137.38
822.551	118.95
822.729	178.34
822.907	121
823.085	131.24
823.262	153.77
823.44	129.19
823.618	143.53
823.796	114.86
823.974	153.77
824.152	63.66
824.329	129.19
824.507	133.29
824.685	65.71
824.863	123.05
825.04	141.48
825.218	104.62
825.396	26.79
825.574	90.28
825.751	110.76
825.929	129.19
826.107	71.85
826.284	96.43
826.462	131.24
826.639	118.95
826.817	164.01
826.994	49.32
827.172	69.8
827.349	139.43
827.527	104.62
827.704	92.33
827.882	43.18
828.059	157.86
828.237	90.28
828.414	102.57
828.591	53.42
828.769	172.2
828.946	118.95
829.124	151.72
829.301	127.14
829.478	135.34
829.655	172.2
829.833	118.95
830.01	73.9
830.187	77.99
830.364	213.16
830.542	129.19
830.719	84.14
830.896	121
831.073	125.1
831.25	69.8
831.427	57.51
831.604	116.9
831.782	49.32
831.959	47.27
832.136	84.14
832.313	155.82
832.49	53.42
832.667	55.47
832.844	61.61
833.021	112.81
833.198	137.38
833.374	127.14
833.551	110.76
833.728	41.13
833.905	75.95
834.082	57.51
834.259	12.46
834.436	159.91
834.612	88.23
834.789	137.38
834.966	86.19
835.143	139.43
835.319	100.52
835.496	188.58
835.673	86.19
835.85	153.77
836.026	67.75
836.203	123.05
836.38	37.03
836.556	24.75
836.733	106.67
836.909	96.43
837.086	0.17
837.262	92.33
837.439	30.89
837.616	88.23
837.792	123.05
837.968	45.23
838.145	20.65
838.321	106.67
838.498	47.27
838.674	47.27
838.851	112.81
839.027	63.66
839.203	84.14
839.38	-20.31
839.556	49.32
839.732	102.57
839.909	16.55
840.085	57.51
840.261	45.23
840.437	6.31
840.614	39.08
840.79	-65.36
840.966	37.03
841.142	28.84
841.318	32.94
841.494	55.47
841.671	86.19
841.847	37.03
842.023	37.03
842.199	112.81
842.375	114.86
842.551	80.04
842.727	47.27
842.903	92.33
843.079	2.22
843.255	151.72
843.431	65.71
843.607	43.18
843.783	82.09
843.959	94.38
844.134	18.6
844.31	57.51
844.486	43.18
844.662	45.23
844.838	12.46
845.013	51.37
845.189	153.77
845.365	80.04
845.541	49.32
845.716	104.62
845.892	61.61
846.068	61.61
846.244	22.7
846.419	96.43
846.595	-30.55
846.77	61.61
846.946	82.09
847.122	59.56
847.297	14.51
847.473	51.37
847.648	94.38
847.824	45.23
847.999	121
848.175	82.09
848.35	39.08
848.526	53.42
848.701	49.32
848.876	10.41
849.052	127.14
849.227	55.47
849.403	45.23
849.578	82.09
849.753	20.65
849.929	45.23
850.104	73.9
850.279	114.86
850.454	32.94
850.63	-8.02
850.805	121
850.98	30.89
851.155	24.75
851.33	41.13
851.505	18.6
851.681	94.38
851.856	-24.4
852.031	45.23
852.206	32.94
852.381	39.08
852.556	12.46
852.731	121
852.906	8.36
853.081	104.62
853.256	12.46
853.431	34.99
853.606	0.17
853.781	28.84
853.956	28.84
854.131	-5.97
854.305	47.27
854.48	133.29
854.655	8.36
854.83	22.7
855.005	-5.97
855.18	84.14
855.354	41.13
855.529	77.99
855.704	37.03
855.879	67.75
856.053	10.41
856.228	118.95
856.403	-1.88
856.577	82.09
856.752	8.36
856.926	20.65
857.101	43.18
857.276	-53.08
857.45	47.27
857.625	61.61
857.799	-12.12
857.974	77.99
858.148	-22.36
858.323	-8.02
858.497	43.18
858.672	65.71
858.846	6.31
859.02	49.32
859.195	57.51
859.369	30.89
859.543	16.55
859.718	-8.02
859.892	32.94
860.066	63.66
860.241	55.47
860.415	6.31
860.589	61.61
860.763	22.7
860.938	22.7
861.112	137.38
861.286	24.75
861.46	22.7
861.634	-3.93
861.808	30.89
861.982	55.47
862.157	12.46
862.331	-22.36
862.505	10.41
862.679	-30.55
862.853	82.09
863.027	20.65
863.201	49.32
863.375	12.46
863.549	65.71
863.722	73.9
863.896	51.37
864.07	0.17
864.244	57.51
864.418	18.6
864.592	59.56
864.766	67.75
864.939	77.99
865.113	30.89
865.287	55.47
865.461	-24.4
865.634	41.13
865.808	49.32
865.982	43.18
866.156	14.51
866.329	80.04
866.503	69.8
866.676	100.52
866.85	-16.21
867.024	22.7
867.197	69.8
867.371	69.8
867.544	80.04
867.718	-10.07
867.891	24.75
868.065	65.71
868.238	32.94
868.412	41.13
868.585	34.99
868.759	28.84
868.932	121
869.105	0.17
869.279	37.03
869.452	39.08
869.625	-24.4
869.799	71.85
869.972	-8.02
870.145	37.03
870.319	71.85
870.492	39.08
870.665	49.32
870.838	0.17
871.011	-24.4
871.185	77.99
871.358	-40.79
871.531	0.17
871.704	37.03
871.877	55.47
872.05	-20.31
872.223	12.46
872.396	28.84
872.569	39.08
872.742	30.89
872.915	12.46
873.088	41.13
873.261	32.94
873.434	123.05
873.607	82.09
873.78	30.89
873.953	-12.12
874.126	-8.02
874.299	41.13
874.471	20.65
874.644	26.79
874.817	59.56
874.99	63.66
875.163	-5.97
875.335	55.47
875.508	63.66
875.681	22.7
875.853	47.27
876.026	-3.93
876.199	14.51
876.371	86.19
876.544	24.75
876.717	86.19
876.889	49.32
877.062	55.47
877.234	26.79
877.407	-20.31
877.579	32.94
877.752	22.7
877.924	77.99
878.097	14.51
878.269	61.61
878.442	16.55
878.614	-10.07
878.786	22.7
878.959	-38.74
879.131	12.46
879.303	0.17
879.476	88.23
879.648	4.27
879.82	53.42
879.993	4.27
880.165	2.22
880.337	28.84
880.509	92.33
880.681	-44.88
880.854	20.65
881.026	12.46
881.198	28.84
881.37	-57.17
881.542	18.6
881.714	24.75
881.886	67.75
882.058	57.51
882.23	-20.31
882.402	63.66
882.574	47.27
882.746	16.55
882.918	-5.97
883.09	2.22
883.262	-8.02
883.434	90.28
883.606	20.65
883.778	47.27
883.95	59.56
884.122	-14.17
884.293	22.7
884.465	41.13
884.637	-12.12
884.809	-8.02
884.98	22.7
885.152	30.89
885.324	18.6
885.496	4.27
885.667	16.55
885.839	-24.4
886.011	75.95
886.182	-57.17
886.354	90.28
886.525	8.36
886.697	61.61
886.869	14.51
887.04	2.22
887.212	63.66
887.383	106.67
887.555	-18.26
887.726	129.19
887.897	39.08
888.069	-16.21
888.24	-20.31
888.412	55.47
888.583	-12.12
888.754	6.31
888.926	16.55
889.097	77.99
889.268	8.36
889.44	-3.93
889.611	-12.12
889.782	30.89
889.953	-14.17
890.125	-10.07
890.296	-65.36
890.467	84.14
890.638	8.36
890.809	-10.07
890.98	51.37
891.151	41.13
891.323	57.51
891.494	-12.12
891.665	10.41
891.836	106.67
892.007	55.47
892.178	4.27
892.349	49.32
892.52	-32.6
892.691	80.04
892.862	-1.88
893.032	39.08
893.203	55.47
893.374	102.57
893.545	30.89
893.716	-16.21
893.887	34.99
894.057	59.56
894.228	-12.12
894.399	16.55
894.57	59.56
894.74	49.32
894.911	-12.12
895.082	-18.26
895.253	61.61
895.423	67.75
895.594	63.66
895.764	6.31
895.935	-30.55
896.106	-20.31
896.276	37.03
896.447	-26.45
896.617	37.03
896.788	63.66
896.958	-69.46
897.129	10.41
897.299	20.65
897.47	53.42
897.64	63.66
897.81	59.56
897.981	-42.84
898.151	16.55
898.322	37.03
898.492	45.23
898.662	59.56
898.832	61.61
899.003	-14.17
899.173	45.23
899.343	41.13
899.513	-8.02
