Data from USB4F104151__219__11-10-46-415.txt Node

Date: Wed Mar 12 11:10:46 EDT 2025
User: louis
Spectrometer: USB4F10415
Trigger mode: 4
Integration Time (sec): 2.000000E-2
Scans to average: 1
Electric dark correction enabled: true
Nonlinearity correction enabled: false
Boxcar width: 0
XAxis mode: Wavelengths
Number of Pixels in Spectrum: 3648
>>>>>Begin Spectral Data<<<<<
178.204	-89.09
178.424	-89.09
178.644	-89.09
178.864	-128
179.084	-95.23
179.304	-58.37
179.524	21.5
179.744	-17.41
179.964	29.7
180.184	-17.41
180.404	23.55
180.624	11.26
180.844	-29.7
181.064	-54.27
181.283	17.41
181.503	37.89
181.723	35.84
181.943	-37.89
182.163	31.74
182.383	3.07
182.602	13.31
182.822	13.31
183.042	-7.17
183.262	50.18
183.482	35.84
183.701	11.26
183.921	21.5
184.141	-7.17
184.361	68.61
184.58	-11.26
184.8	15.36
185.02	-13.31
185.239	21.5
185.459	3.07
185.679	3.07
185.898	-23.55
186.118	48.13
186.338	93.18
186.557	44.03
186.777	29.7
186.997	-15.36
187.216	-25.6
187.436	70.65
187.655	7.17
187.875	54.27
188.095	17.41
188.314	13.31
188.534	13.31
188.753	1.02
188.973	58.37
189.192	66.56
189.412	5.12
189.631	46.08
189.851	46.08
190.07	-19.46
190.29	-3.07
190.509	-1.02
190.729	-39.94
190.948	21.5
191.168	123.9
191.387	91.13
191.607	-72.7
191.826	5.12
192.045	9.22
192.265	64.51
192.484	-29.7
192.704	-15.36
192.923	-37.89
193.142	56.32
193.362	31.74
193.581	76.8
193.8	89.09
194.02	39.94
194.239	-7.17
194.458	21.5
194.678	5.12
194.897	74.75
195.116	-37.89
195.335	-19.46
195.555	33.79
195.774	31.74
195.993	33.79
196.212	-1.02
196.432	54.27
196.651	13.31
196.87	15.36
197.089	54.27
197.308	29.7
197.528	66.56
197.747	-17.41
197.966	37.89
198.185	115.71
198.404	39.94
198.623	13.31
198.842	-17.41
199.062	115.71
199.281	37.89
199.5	-19.46
199.719	7.17
199.938	74.75
200.157	39.94
200.376	27.65
200.595	-7.17
200.814	93.18
201.033	9.22
201.252	72.7
201.471	31.74
201.69	60.42
201.909	19.46
202.128	70.65
202.347	52.22
202.566	-1.02
202.785	15.36
203.004	-23.55
203.223	111.61
203.442	-105.47
203.661	15.36
203.879	60.42
204.098	-17.41
204.317	25.6
204.536	84.99
204.755	66.56
204.974	97.28
205.193	87.04
205.411	66.56
205.63	-23.55
205.849	13.31
206.068	70.65
206.287	13.31
206.505	29.7
206.724	23.55
206.943	-27.65
207.162	-1.02
207.381	39.94
207.599	50.18
207.818	21.5
208.037	29.7
208.255	-31.74
208.474	21.5
208.693	91.13
208.911	-3.07
209.13	11.26
209.349	64.51
209.567	-58.37
209.786	66.56
210.005	35.84
210.223	37.89
210.442	13.31
210.661	48.13
210.879	29.7
211.098	64.51
211.316	72.7
211.535	-1.02
211.753	5.12
211.972	15.36
212.191	-5.12
212.409	60.42
212.628	84.99
212.846	-72.7
213.065	103.42
213.283	46.08
213.502	5.12
213.72	50.18
213.938	50.18
214.157	35.84
214.375	5.12
214.594	-15.36
214.812	-25.6
215.031	15.36
215.249	78.85
215.467	46.08
215.686	52.22
215.904	41.98
216.122	17.41
216.341	54.27
216.559	31.74
216.778	19.46
216.996	-21.5
217.214	1.02
217.432	58.37
217.651	23.55
217.869	23.55
218.087	11.26
218.306	9.22
218.524	-58.37
218.742	27.65
218.96	1.02
219.179	-33.79
219.397	33.79
219.615	82.94
219.833	64.51
220.051	23.55
220.27	46.08
220.488	7.17
220.706	60.42
220.924	-3.07
221.142	39.94
221.36	-1.02
221.578	-27.65
221.796	1.02
222.015	46.08
222.233	50.18
222.451	109.57
222.669	-7.17
222.887	66.56
223.105	46.08
223.323	21.5
223.541	-21.5
223.759	33.79
223.977	1.02
224.195	123.9
224.413	-3.07
224.631	95.23
224.849	25.6
225.067	91.13
225.285	-62.46
225.503	-5.12
225.721	17.41
225.939	52.22
226.157	87.04
226.375	136.19
226.592	19.46
226.81	25.6
227.028	33.79
227.246	48.13
227.464	13.31
227.682	35.84
227.9	84.99
228.117	87.04
228.335	105.47
228.553	52.22
228.771	-9.22
228.989	19.46
229.206	82.94
229.424	-3.07
229.642	-9.22
229.86	7.17
230.077	27.65
230.295	11.26
230.513	-25.6
230.731	39.94
230.948	76.8
231.166	5.12
231.384	-27.65
231.601	31.74
231.819	119.81
232.037	46.08
232.254	19.46
232.472	23.55
232.689	1.02
232.907	1.02
233.125	70.65
233.342	1.02
233.56	-7.17
233.777	-37.89
233.995	5.12
234.213	89.09
234.43	3.07
234.648	52.22
234.865	21.5
235.083	27.65
235.3	44.03
235.518	17.41
235.735	-7.17
235.953	7.17
236.17	93.18
236.388	9.22
236.605	13.31
236.822	37.89
237.04	50.18
237.257	15.36
237.475	33.79
237.692	3.07
237.909	1.02
238.127	62.46
238.344	15.36
238.562	33.79
238.779	13.31
238.996	5.12
239.214	-5.12
239.431	-15.36
239.648	37.89
239.865	-9.22
240.083	-19.46
240.3	25.6
240.517	-7.17
240.735	15.36
240.952	7.17
241.169	27.65
241.386	27.65
241.603	19.46
241.821	-19.46
242.038	103.42
242.255	60.42
242.472	1.02
242.689	-15.36
242.907	82.94
243.124	-3.07
243.341	60.42
243.558	-52.22
243.775	19.46
243.992	-7.17
244.209	-60.42
244.426	52.22
244.643	15.36
244.86	134.14
245.078	31.74
245.295	46.08
245.512	70.65
245.729	17.41
245.946	41.98
246.163	-11.26
246.38	87.04
246.597	27.65
246.814	41.98
247.031	37.89
247.248	27.65
247.464	9.22
247.681	23.55
247.898	-19.46
248.115	-7.17
248.332	70.65
248.549	48.13
248.766	72.7
248.983	66.56
249.2	-50.18
249.417	68.61
249.633	21.5
249.85	70.65
250.067	-82.94
250.284	41.98
250.501	1.02
250.717	-7.17
250.934	9.22
251.151	66.56
251.368	-15.36
251.585	27.65
251.801	62.46
252.018	-21.5
252.235	60.42
252.451	99.33
252.668	29.7
252.885	62.46
253.102	52.22
253.318	7.17
253.535	7.17
253.752	111.61
253.968	-33.79
254.185	-27.65
254.401	-1.02
254.618	13.31
254.835	80.89
255.051	54.27
255.268	48.13
255.484	1.02
255.701	39.94
255.917	35.84
256.134	56.32
256.351	33.79
256.567	11.26
256.784	66.56
257	66.56
257.217	13.31
257.433	68.61
257.65	80.89
257.866	-19.46
258.082	62.46
258.299	9.22
258.515	33.79
258.732	-48.13
258.948	60.42
259.165	58.37
259.381	46.08
259.597	54.27
259.814	101.37
260.03	21.5
260.246	52.22
260.463	37.89
260.679	-29.7
260.895	1.02
261.112	-11.26
261.328	56.32
261.544	-15.36
261.761	84.99
261.977	64.51
262.193	-3.07
262.409	60.42
262.626	78.85
262.842	33.79
263.058	21.5
263.274	21.5
263.49	78.85
263.707	-23.55
263.923	99.33
264.139	41.98
264.355	19.46
264.571	84.99
264.787	89.09
265.004	80.89
265.22	46.08
265.436	72.7
265.652	50.18
265.868	5.12
266.084	-33.79
266.3	9.22
266.516	11.26
266.732	50.18
266.948	1.02
267.164	9.22
267.38	-19.46
267.596	33.79
267.812	68.61
268.028	82.94
268.244	74.75
268.46	17.41
268.676	95.23
268.892	-19.46
269.108	-13.31
269.324	-3.07
269.54	23.55
269.756	-33.79
269.972	-3.07
270.188	68.61
270.403	-25.6
270.619	23.55
270.835	48.13
271.051	15.36
271.267	-3.07
271.483	44.03
271.698	84.99
271.914	78.85
272.13	-19.46
272.346	-3.07
272.562	103.42
272.777	78.85
272.993	17.41
273.209	70.65
273.425	-1.02
273.64	-95.23
273.856	46.08
274.072	99.33
274.287	1.02
274.503	7.17
274.719	46.08
274.934	70.65
275.15	-31.74
275.366	-15.36
275.581	37.89
275.797	93.18
276.012	-41.98
276.228	13.31
276.444	-3.07
276.659	-54.27
276.875	19.46
277.09	-82.94
277.306	58.37
277.521	50.18
277.737	58.37
277.952	-23.55
278.168	97.28
278.383	48.13
278.599	11.26
278.814	-50.18
279.03	50.18
279.245	27.65
279.461	62.46
279.676	39.94
279.892	46.08
280.107	78.85
280.322	33.79
280.538	33.79
280.753	66.56
280.969	80.89
281.184	5.12
281.399	103.42
281.615	48.13
281.83	-3.07
282.045	35.84
282.26	41.98
282.476	78.85
282.691	-11.26
282.906	33.79
283.122	70.65
283.337	13.31
283.552	87.04
283.767	-9.22
283.983	103.42
284.198	29.7
284.413	64.51
284.628	-11.26
284.843	62.46
285.058	29.7
285.274	74.75
285.489	-3.07
285.704	-29.7
285.919	15.36
286.134	23.55
286.349	48.13
286.564	5.12
286.779	50.18
286.995	56.32
287.21	-54.27
287.425	33.79
287.64	72.7
287.855	44.03
288.07	-9.22
288.285	91.13
288.5	1.02
288.715	66.56
288.93	80.89
289.145	3.07
289.36	-48.13
289.575	7.17
289.79	44.03
290.004	39.94
290.219	60.42
290.434	62.46
290.649	29.7
290.864	82.94
291.079	76.8
291.294	70.65
291.509	111.61
291.724	-35.84
291.938	103.42
292.153	109.57
292.368	-1.02
292.583	17.41
292.798	-11.26
293.012	27.65
293.227	35.84
293.442	66.56
293.657	-37.89
293.871	84.99
294.086	19.46
294.301	72.7
294.516	11.26
294.73	19.46
294.945	87.04
295.16	13.31
295.374	11.26
295.589	84.99
295.804	25.6
296.018	66.56
296.233	25.6
296.447	82.94
296.662	25.6
296.877	19.46
297.091	11.26
297.306	64.51
297.52	1.02
297.735	13.31
297.949	-3.07
298.164	-35.84
298.378	21.5
298.593	37.89
298.807	21.5
299.022	52.22
299.236	-39.94
299.451	-5.12
299.665	-5.12
299.88	60.42
300.094	54.27
300.309	46.08
300.523	41.98
300.737	44.03
300.952	66.56
301.166	29.7
301.381	27.65
301.595	3.07
301.809	-5.12
302.024	35.84
302.238	31.74
302.452	5.12
302.667	60.42
302.881	46.08
303.095	74.75
303.309	15.36
303.524	-1.02
303.738	11.26
303.952	44.03
304.166	-3.07
304.381	60.42
304.595	11.26
304.809	5.12
305.023	80.89
305.237	54.27
305.452	29.7
305.666	-70.65
305.88	68.61
306.094	31.74
306.308	-7.17
306.522	62.46
306.736	3.07
306.95	80.89
307.164	80.89
307.379	50.18
307.593	31.74
307.807	56.32
308.021	1.02
308.235	74.75
308.449	-9.22
308.663	11.26
308.877	115.71
309.091	91.13
309.305	50.18
309.519	11.26
309.733	11.26
309.947	1.02
310.161	15.36
310.374	13.31
310.588	130.05
310.802	1.02
311.016	31.74
311.23	33.79
311.444	11.26
311.658	70.65
311.872	-23.55
312.085	33.79
312.299	23.55
312.513	33.79
312.727	11.26
312.941	37.89
313.154	66.56
313.368	70.65
313.582	15.36
313.796	97.28
314.009	70.65
314.223	23.55
314.437	35.84
314.651	13.31
314.864	-21.5
315.078	-1.02
315.292	-1.02
315.505	-3.07
315.719	68.61
315.933	-7.17
316.146	11.26
316.36	-17.41
316.573	103.42
316.787	-64.51
317.001	78.85
317.214	-35.84
317.428	76.8
317.641	27.65
317.855	-3.07
318.068	11.26
318.282	70.65
318.495	35.84
318.709	31.74
318.922	50.18
319.136	68.61
319.349	-31.74
319.563	39.94
319.776	-19.46
319.99	33.79
320.203	19.46
320.417	17.41
320.63	39.94
320.843	58.37
321.057	39.94
321.27	82.94
321.483	107.52
321.697	74.75
321.91	13.31
322.124	29.7
322.337	60.42
322.55	33.79
322.763	54.27
322.977	89.09
323.19	-11.26
323.403	62.46
323.617	39.94
323.83	72.7
324.043	-54.27
324.256	101.37
324.469	52.22
324.683	7.17
324.896	37.89
325.109	-1.02
325.322	-21.5
325.535	62.46
325.748	74.75
325.962	64.51
326.175	103.42
326.388	82.94
326.601	1.02
326.814	37.89
327.027	21.5
327.24	109.57
327.453	46.08
327.666	82.94
327.879	3.07
328.092	64.51
328.305	41.98
328.518	9.22
328.731	-5.12
328.944	52.22
329.157	50.18
329.37	-7.17
329.583	72.7
329.796	58.37
330.009	-25.6
330.222	101.37
330.435	78.85
330.648	48.13
330.861	-3.07
331.073	9.22
331.286	-11.26
331.499	89.09
331.712	13.31
331.925	3.07
332.138	111.61
332.35	46.08
332.563	9.22
332.776	46.08
332.989	19.46
333.202	-13.31
333.414	76.8
333.627	21.5
333.84	128
334.053	66.56
334.265	15.36
334.478	5.12
334.691	25.6
334.903	21.5
335.116	-11.26
335.329	31.74
335.541	13.31
335.754	103.42
335.966	-9.22
336.179	64.51
336.392	-21.5
336.604	-23.55
336.817	58.37
337.029	80.89
337.242	54.27
337.454	89.09
337.667	48.13
337.88	113.66
338.092	109.57
338.305	168.96
338.517	3.07
338.729	87.04
338.942	66.56
339.154	60.42
339.367	29.7
339.579	41.98
339.792	62.46
340.004	39.94
340.217	68.61
340.429	13.31
340.641	60.42
340.854	33.79
341.066	15.36
341.278	103.42
341.491	89.09
341.703	15.36
341.915	72.7
342.128	74.75
342.34	15.36
342.552	58.37
342.764	7.17
342.977	5.12
343.189	46.08
343.401	68.61
343.613	-21.5
343.826	80.89
344.038	13.31
344.25	105.47
344.462	3.07
344.674	7.17
344.886	9.22
345.099	29.7
345.311	35.84
345.523	50.18
345.735	11.26
345.947	62.46
346.159	121.85
346.371	35.84
346.583	123.9
346.795	160.77
347.007	-3.07
347.219	70.65
347.431	27.65
347.643	91.13
347.855	39.94
348.067	80.89
348.279	19.46
348.491	-15.36
348.703	84.99
348.915	50.18
349.127	-48.13
349.339	82.94
349.551	76.8
349.763	50.18
349.975	84.99
350.187	50.18
350.399	25.6
350.61	48.13
350.822	13.31
351.034	-3.07
351.246	29.7
351.458	82.94
351.669	84.99
351.881	74.75
352.093	62.46
352.305	58.37
352.517	54.27
352.728	93.18
352.94	3.07
353.152	66.56
353.363	56.32
353.575	70.65
353.787	39.94
353.999	-1.02
354.21	19.46
354.422	70.65
354.633	-9.22
354.845	68.61
355.057	17.41
355.268	-25.6
355.48	103.42
355.692	99.33
355.903	46.08
356.115	29.7
356.326	41.98
356.538	62.46
356.749	78.85
356.961	93.18
357.172	76.8
357.384	48.13
357.595	37.89
357.807	48.13
358.018	66.56
358.23	95.23
358.441	54.27
358.653	-7.17
358.864	-7.17
359.075	74.75
359.287	60.42
359.498	93.18
359.709	60.42
359.921	35.84
360.132	46.08
360.344	97.28
360.555	70.65
360.766	7.17
360.977	13.31
361.189	25.6
361.4	76.8
361.611	-3.07
361.823	80.89
362.034	58.37
362.245	-25.6
362.456	23.55
362.667	-46.08
362.879	-11.26
363.09	37.89
363.301	1.02
363.512	89.09
363.723	48.13
363.935	46.08
364.146	25.6
364.357	7.17
364.568	121.85
364.779	-29.7
364.99	74.75
365.201	5.12
365.412	50.18
365.623	11.26
365.834	89.09
366.045	60.42
366.256	54.27
366.467	54.27
366.678	-11.26
366.889	70.65
367.1	72.7
367.311	68.61
367.522	54.27
367.733	84.99
367.944	21.5
368.155	7.17
368.366	37.89
368.577	52.22
368.788	144.38
368.999	-27.65
369.209	15.36
369.42	-3.07
369.631	39.94
369.842	109.57
370.053	50.18
370.264	87.04
370.474	21.5
370.685	54.27
370.896	66.56
371.107	48.13
371.317	78.85
371.528	-37.89
371.739	31.74
371.95	41.98
372.16	44.03
372.371	23.55
372.582	50.18
372.792	64.51
373.003	66.56
373.214	54.27
373.424	56.32
373.635	-3.07
373.846	27.65
374.056	46.08
374.267	37.89
374.477	64.51
374.688	62.46
374.898	56.32
375.109	89.09
375.319	19.46
375.53	74.75
375.74	62.46
375.951	48.13
376.161	17.41
376.372	7.17
376.582	91.13
376.793	74.75
377.003	89.09
377.214	3.07
377.424	17.41
377.635	25.6
377.845	-15.36
378.055	93.18
378.266	37.89
378.476	-3.07
378.686	91.13
378.897	48.13
379.107	125.95
379.317	76.8
379.528	19.46
379.738	134.14
379.948	107.52
380.158	-3.07
380.369	82.94
380.579	39.94
380.789	70.65
380.999	101.37
381.21	17.41
381.42	35.84
381.63	33.79
381.84	68.61
382.05	84.99
382.261	52.22
382.471	-3.07
382.681	37.89
382.891	9.22
383.101	44.03
383.311	13.31
383.521	1.02
383.731	46.08
383.941	52.22
384.151	68.61
384.361	87.04
384.571	44.03
384.781	31.74
384.991	68.61
385.201	56.32
385.411	44.03
385.621	58.37
385.831	48.13
386.041	56.32
386.251	84.99
386.461	84.99
386.671	48.13
386.881	105.47
387.091	39.94
387.301	29.7
387.511	19.46
387.72	29.7
387.93	-5.12
388.14	41.98
388.35	39.94
388.56	62.46
388.769	27.65
388.979	-3.07
389.189	-29.7
389.399	54.27
389.609	76.8
389.818	50.18
390.028	-5.12
390.238	54.27
390.447	58.37
390.657	91.13
390.867	-5.12
391.076	39.94
391.286	62.46
391.496	52.22
391.705	66.56
391.915	60.42
392.125	72.7
392.334	62.46
392.544	82.94
392.753	119.81
392.963	35.84
393.172	-39.94
393.382	-5.12
393.591	99.33
393.801	62.46
394.01	130.05
394.22	29.7
394.429	39.94
394.639	48.13
394.848	80.89
395.058	91.13
395.267	62.46
395.477	119.81
395.686	56.32
395.895	123.9
396.105	91.13
396.314	148.48
396.524	183.29
396.733	58.37
396.942	97.28
397.152	62.46
397.361	128
397.57	91.13
397.78	97.28
397.989	113.66
398.198	132.09
398.407	5.12
398.617	154.62
398.826	54.27
399.035	101.37
399.244	95.23
399.453	56.32
399.663	115.71
399.872	128
400.081	107.52
400.29	123.9
400.499	152.57
400.708	140.29
400.917	117.76
401.127	93.18
401.336	97.28
401.545	109.57
401.754	80.89
401.963	146.43
402.172	107.52
402.381	70.65
402.59	89.09
402.799	111.61
403.008	111.61
403.217	58.37
403.426	142.33
403.635	66.56
403.844	111.61
404.053	148.48
404.262	107.52
404.471	132.09
404.68	103.42
404.888	140.29
405.097	177.15
405.306	160.77
405.515	193.53
405.724	158.72
405.933	56.32
406.142	152.57
406.35	175.1
406.559	211.96
406.768	107.52
406.977	181.25
407.185	207.87
407.394	197.63
407.603	224.25
407.812	164.86
408.02	179.2
408.229	226.3
408.438	179.2
408.646	242.68
408.855	132.09
409.064	220.16
409.272	281.6
409.481	273.4
409.69	279.55
409.898	230.4
410.107	300.03
410.315	302.08
410.524	320.51
410.733	289.79
410.941	302.08
411.15	306.17
411.358	353.27
411.567	361.47
411.775	424.95
411.984	429.05
412.192	427
412.401	416.76
412.609	379.9
412.818	379.9
413.026	406.52
413.234	467.96
413.443	451.58
413.651	422.91
413.86	431.1
414.068	521.21
414.276	637.94
414.485	564.22
414.693	582.65
414.901	648.18
415.11	635.89
415.318	617.46
415.526	594.93
415.734	621.56
415.943	615.41
416.151	812.02
416.359	738.29
416.567	685.05
416.776	771.06
416.984	814.07
417.192	816.12
417.4	967.67
417.608	783.35
417.817	930.8
418.025	998.38
418.233	1022.96
418.441	979.95
418.649	1041.39
418.857	1059.82
419.065	1162.22
419.273	1098.74
419.481	1197.04
419.689	1350.64
419.897	1334.25
420.105	1240.05
420.313	1303.53
420.521	1399.79
420.729	1459.18
420.937	1434.6
421.145	1516.52
421.353	1555.43
421.561	1688.55
421.769	1704.93
421.977	1897.44
422.185	1717.22
422.393	1928.16
422.601	1983.46
422.809	1960.93
423.017	2030.56
423.224	2161.63
423.432	2208.73
423.64	2237.41
423.848	2317.28
424.056	2327.52
424.263	2438.11
424.471	2503.64
424.679	2587.61
424.887	2675.67
425.094	2821.08
425.302	2757.59
425.51	2868.18
425.718	3048.4
425.925	2954.19
426.133	3032.02
426.341	3314.64
426.548	3425.23
426.756	3439.56
426.964	3515.34
427.171	3632.07
427.379	3652.55
427.586	3695.56
427.794	3904.45
428.001	4228.03
428.209	4254.66
428.417	4352.96
428.624	4404.16
428.832	4578.23
429.039	4498.36
429.247	4453.31
429.454	5047.22
429.662	5288.88
429.869	5077.94
430.076	5409.71
430.284	5106.61
430.491	5399.47
430.699	5776.3
430.906	5551.02
431.114	5815.21
431.321	5876.65
431.528	5958.57
431.736	6337.44
431.943	6744.99
432.15	6323.1
432.358	6726.55
432.565	6982.55
432.772	6960.02
432.979	7314.32
433.187	7537.55
433.394	7469.97
433.601	7762.83
433.808	7877.51
434.016	7938.95
434.223	8426.37
434.43	8637.31
434.637	8545.15
434.844	9034.61
435.052	9442.16
435.259	9151.35
435.466	9333.62
435.673	9216.88
435.88	9745.26
436.087	10277.73
436.294	10498.91
436.501	9984.87
436.708	10318.69
436.915	10713.95
437.122	11227.99
437.329	10978.14
437.537	11520.85
437.743	11561.81
437.95	11494.22
438.157	12014.41
438.364	12460.87
438.571	12620.61
438.778	12505.92
438.985	13652.78
439.192	13099.83
439.399	13595.44
439.606	13462.32
439.813	13998.89
440.02	14885.66
440.227	14478.12
440.433	14459.68
440.64	15153.94
440.847	14789.41
441.054	15248.15
441.261	16145.16
441.467	16102.15
441.674	16470.79
441.881	16927.49
442.088	17107.71
442.294	16761.6
442.501	17105.66
442.708	17748.72
442.914	18139.88
443.121	19096.28
443.328	18348.78
443.534	19815.12
443.741	19311.32
443.948	19235.55
444.154	20472.52
444.361	20179.66
444.568	20435.66
444.774	19946.19
444.981	20576.97
445.187	21134.01
445.394	21893.81
445.6	21803.7
445.807	23743.13
446.013	22758.05
446.22	23378.59
446.426	24132.24
446.633	24453.77
446.839	24988.29
447.046	23919.25
447.252	25500.28
447.459	25418.36
447.665	25164.42
447.871	26569.32
448.078	27540.06
448.284	26253.94
448.491	27026.02
448.697	28127.83
448.903	28736.07
449.11	28576.33
449.316	28123.73
449.522	28248.66
449.728	29268.55
449.935	29450.81
450.141	29385.28
450.347	30247.47
450.553	29215.3
450.76	29405.76
450.966	30323.25
451.172	30315.06
451.378	30722.6
451.584	30298.67
451.791	30962.22
451.997	30951.98
452.203	31167.01
452.409	31242.79
452.615	31160.87
452.821	29663.8
453.027	29479.49
453.233	31212.07
453.44	29704.76
453.646	30405.17
453.852	30038.58
454.058	30874.15
454.264	29518.4
454.47	30515.76
454.676	29657.66
454.882	30657.07
455.088	28189.27
455.294	28406.35
455.5	28639.82
455.705	28717.64
455.911	28021.33
456.117	27433.57
456.323	27109.99
456.529	25580.15
456.735	26808.93
456.941	25805.43
457.147	25434.75
457.352	24720.01
457.558	24177.3
457.764	24400.52
457.97	23800.47
458.176	23300.76
458.381	23571.1
458.587	22258.35
458.793	22254.25
458.999	21306.04
459.204	22684.33
459.41	22123.18
459.616	20873.92
459.821	20781.76
460.027	20493
460.233	20232.91
460.438	19354.33
460.644	19319.51
460.85	18522.85
461.055	18238.19
461.261	18176.75
461.466	16941.82
461.672	16327.43
461.878	17326.84
462.083	16257.8
462.289	16114.44
462.494	15840.01
462.7	15002.4
462.905	14746.4
463.111	15344.41
463.316	15346.45
463.522	14803.74
463.727	15162.14
463.932	14996.25
464.138	14795.55
464.343	14992.16
464.549	14504.74
464.754	15033.11
464.959	14768.93
465.165	14856.99
465.37	14029.61
465.575	13724.46
465.781	14361.38
465.986	14414.63
466.191	13927.21
466.397	13601.58
466.602	12964.67
466.807	13341.49
467.012	13566.77
467.218	13222.71
467.423	13310.77
467.628	13300.53
467.833	13722.41
468.038	13128.5
468.244	13054.78
468.449	13482.8
468.654	12897.08
468.859	12964.67
469.064	12673.85
469.269	12378.95
469.474	12608.32
469.679	12553.02
469.885	12155.72
470.09	12608.32
470.295	12464.96
470.5	12045.13
470.705	12260.16
470.91	11754.32
471.115	11826
471.32	11762.51
471.525	11883.34
471.73	11561.81
471.935	11447.12
472.139	11187.03
472.344	11305.81
472.549	11273.04
472.754	11254.61
472.959	10912.6
473.164	10672.99
473.369	10615.65
473.574	10832.73
473.778	10466.14
473.983	10763.1
474.188	10517.34
474.393	10218.34
474.598	10138.47
474.802	10081.13
475.007	9890.67
475.212	10056.55
475.417	9497.46
475.621	9515.89
475.826	9763.69
476.031	9237.36
476.235	9288.56
476.44	9468.78
476.645	9282.42
476.849	9354.1
477.054	9214.84
477.259	8921.98
477.463	9089.91
477.668	8776.57
477.872	8952.7
478.077	8694.65
478.282	8504.19
478.486	8276.87
478.691	8403.84
478.895	8446.85
479.1	8264.58
479.304	8270.72
479.509	8225.67
479.713	8160.13
479.918	8166.28
480.122	8096.64
480.326	8065.92
480.531	7963.53
480.735	7965.57
480.94	7881.61
481.144	8162.18
481.348	7879.56
481.553	8123.27
481.757	7744.39
481.961	7863.18
482.166	7865.22
482.37	7736.2
482.574	7680.91
482.778	7844.74
482.983	7867.27
483.187	7674.76
483.391	7807.88
483.595	7811.98
483.8	7689.1
484.004	7676.81
484.208	7844.74
484.412	7744.39
484.616	7799.69
484.821	7881.61
485.025	7613.32
485.229	7881.61
485.433	7701.39
485.637	7914.38
485.841	7687.05
486.045	7734.15
486.249	7744.39
486.453	7746.44
486.657	7629.71
486.861	7791.5
487.065	7629.71
487.269	7621.52
487.473	7490.45
487.677	7740.3
487.881	7863.18
488.085	7619.47
488.289	7816.07
488.493	7639.95
488.697	7685
488.901	7680.91
489.105	7926.66
489.309	7723.91
489.512	7805.83
489.716	7760.78
489.92	7799.69
490.124	7775.11
490.328	7918.47
490.531	7981.96
490.735	7981.96
490.939	7889.8
491.143	7850.89
491.346	7732.11
491.55	8168.32
491.754	7912.33
491.958	8131.46
492.161	8080.26
492.365	8143.75
492.569	8086.4
492.772	8172.42
492.976	8321.92
493.18	8180.61
493.383	8428.42
493.587	8346.5
493.79	8524.67
493.994	8336.26
494.197	8643.45
494.401	8627.07
494.605	8553.34
494.808	8616.83
495.012	8694.65
495.215	8827.77
495.419	8975.22
495.622	8899.45
495.825	9063.29
496.029	8989.56
496.232	9149.3
496.436	9278.32
496.639	9253.75
496.843	9378.67
497.046	9395.06
497.249	9438.06
497.453	9608.05
497.656	9780.07
497.859	9837.42
498.063	9849.71
498.266	10003.3
498.469	9825.13
498.673	10249.06
498.876	10392.42
499.079	10296.16
499.282	10484.58
499.485	10781.53
499.689	10529.63
499.892	10822.49
500.095	10867.55
500.298	11205.46
500.501	10933.08
500.705	11385.68
500.908	11416.4
501.111	11707.21
501.314	11656.01
501.517	11762.51
501.72	11998.02
501.923	11944.78
502.126	12260.16
502.329	12571.46
502.532	12618.56
502.735	12448.58
502.938	12641.09
503.141	12665.66
503.344	13069.11
503.547	13269.81
503.75	13296.44
503.953	13261.62
504.156	13415.22
504.359	13658.93
504.562	13665.07
504.765	14068.52
504.968	14080.81
505.17	14023.47
505.373	14144.3
505.576	14666.53
505.779	14727.97
505.982	14770.97
506.185	14879.52
506.387	15196.95
506.59	15227.67
506.793	15481.62
506.996	15612.69
507.198	15878.93
507.401	15880.97
507.604	15921.93
507.807	16298.76
508.009	16347.91
508.212	16341.77
508.415	16573.19
508.617	16902.91
508.82	16765.7
509.022	16800.51
509.225	17441.53
509.428	17693.43
509.63	17591.03
509.833	17494.77
510.035	18287.34
510.238	18057.96
510.44	18346.73
510.643	18555.62
510.845	18529
511.048	18748.13
511.25	18864.86
511.453	19155.68
511.655	19778.26
511.858	19643.09
512.06	19657.43
512.262	20067.02
512.465	19894.99
512.667	20282.06
512.87	20431.56
513.072	20660.93
513.274	20992.7
513.477	21123.77
513.679	21258.94
513.881	21416.63
514.084	21580.47
514.286	21652.15
514.488	21981.87
514.69	22545.06
514.893	22561.45
515.095	22504.1
515.297	23085.73
515.499	22889.12
515.701	23462.55
515.904	23298.72
516.106	23630.49
516.308	24076.94
516.51	24083.09
516.712	24033.94
516.914	24631.94
517.116	24984.19
517.318	24760.97
517.52	24797.83
517.722	25485.95
517.925	25537.15
518.127	26370.67
518.329	25727.61
518.531	25490.04
518.733	26514.03
518.935	26585.71
519.136	26733.16
519.338	27171.43
519.54	27179.62
519.742	27443.81
519.944	27568.73
520.146	27914.84
520.348	28052.05
520.55	28346.96
520.752	28396.11
520.954	28832.33
521.155	28799.56
521.357	29354.56
521.559	29260.35
521.761	29774.39
521.963	29815.35
522.164	30065.21
522.366	30239.28
522.568	30489.13
522.77	30394.93
522.971	30935.59
523.173	30636.59
523.375	30923.3
523.576	31332.9
523.778	31468.06
523.98	31846.94
524.181	32039.45
524.383	31672.86
524.584	32154.13
524.786	32383.51
524.988	32559.63
525.189	32782.86
525.391	33016.33
525.592	33241.6
525.794	33049.1
525.995	33149.45
526.197	33143.3
526.398	33511.94
526.6	33747.45
526.801	33440.26
527.003	33751.55
527.204	33976.83
527.406	34456.05
527.607	34068.98
527.808	34478.58
528.01	33782.27
528.211	34660.85
528.412	35045.87
528.614	34781.68
528.815	34656.75
529.016	34965.99
529.218	34578.93
529.419	35111.4
529.62	34726.38
529.822	34955.75
530.023	35533.28
530.224	35324.39
530.425	35133.93
530.626	35224.04
530.828	35160.55
531.029	36157.91
531.23	35160.55
531.431	35658.21
531.632	35494.37
531.833	35813.85
532.035	35906.01
532.236	36346.33
532.437	36155.86
532.638	35650.02
532.839	35953.12
533.04	36198.87
533.241	36174.3
533.442	36729.3
533.643	36065.75
533.844	36278.74
534.045	36465.11
534.246	36012.51
534.447	36272.6
534.648	36043.23
534.849	36354.52
535.05	35987.93
535.251	36213.21
535.451	36444.63
535.652	36506.07
535.853	35961.31
536.054	36688.34
536.255	36585.94
536.456	36325.85
536.657	36891.09
536.857	36260.31
537.058	36114.9
537.259	36549.07
537.46	36649.42
537.66	35920.35
537.861	36327.89
538.062	36184.54
538.263	36475.35
538.463	36579.79
538.664	36092.38
538.865	36786.64
539.065	36829.65
539.266	35963.36
539.466	36729.3
539.667	35758.56
539.868	36610.51
540.068	36264.41
540.269	35977.69
540.469	36682.19
540.67	36641.23
540.87	36463.06
541.071	36340.18
541.271	36461.01
541.472	36125.14
541.672	36180.44
541.873	35799.52
542.073	35811.81
542.274	36448.72
542.474	36260.31
542.675	36198.87
542.875	36446.68
543.075	36327.89
543.276	36086.23
543.476	36551.12
543.676	36319.7
543.877	36159.96
544.077	36329.94
544.277	36256.21
544.478	36155.86
544.678	36450.77
544.878	36329.94
545.078	35949.02
545.279	35731.93
545.479	36219.35
545.679	36260.31
545.879	36233.69
546.079	36256.21
546.28	36186.58
546.48	36059.61
546.68	36325.85
546.88	36282.84
547.08	36297.17
547.28	36061.66
547.48	35631.58
547.68	36014.55
547.88	35549.67
548.081	35965.4
548.281	35707.36
548.481	35633.63
548.681	35797.47
548.881	35867.1
549.081	36022.75
549.28	35854.81
549.48	36379.09
549.68	35523.04
549.88	36585.94
550.08	35596.77
550.28	35881.44
550.48	36112.86
550.68	36155.86
550.88	35277.29
551.08	35744.22
551.279	36159.96
551.479	35217.89
551.679	35887.58
551.879	35695.07
552.079	36164.06
552.278	35758.56
552.478	35572.19
552.678	35398.12
552.878	35545.57
553.077	35596.77
553.277	35301.86
553.477	36108.76
553.676	35510.75
553.876	35619.3
554.076	34855.4
554.275	35273.19
554.475	35133.93
554.674	35607.01
554.874	35361.25
555.074	34642.42
555.273	35377.64
555.473	35539.43
555.672	35037.67
555.872	35006.95
556.071	35092.97
556.271	35049.96
556.47	35101.16
556.67	34482.67
556.869	34755.05
557.068	35037.67
557.268	34853.36
557.467	34822.64
557.667	34621.94
557.866	34900.46
558.065	34814.44
558.265	34845.16
558.464	34390.52
558.663	34828.78
558.863	34183.67
559.062	34791.92
559.261	34152.95
559.461	34929.13
559.66	34095.61
559.859	34394.61
560.058	34146.81
560.258	34441.71
560.457	33845.76
560.656	34306.55
560.855	33694.21
561.054	33753.6
561.253	33432.07
561.453	34011.64
561.652	33872.38
561.851	34062.84
562.05	33622.53
562.249	33544.7
562.448	33241.6
562.647	33438.21
562.846	33231.36
563.045	33520.13
563.244	33069.58
563.443	33395.2
563.642	32864.78
563.841	32979.46
564.04	32930.31
564.239	33507.84
564.438	32807.44
564.637	32922.12
564.836	33045
565.035	32612.88
565.234	32623.12
565.432	32125.46
565.631	32475.66
565.83	32586.25
566.029	32219.67
566.228	31873.56
566.427	31824.41
566.625	32313.87
566.824	31537.69
567.023	32102.93
567.222	31566.37
567.42	31750.68
567.619	31801.88
567.818	31699.48
568.016	31509.02
568.215	31709.72
568.414	31255.08
568.612	31435.3
568.811	31158.82
569.01	30904.87
569.208	30956.07
569.407	31207.97
569.605	30677.55
569.804	31289.89
570.002	30218.8
570.201	30829.1
570.4	30517.81
570.598	30763.56
570.797	29964.85
570.995	30392.88
571.193	30179.89
571.392	30317.11
571.59	29973.05
571.789	30239.28
571.987	29919.8
572.186	29866.55
572.384	29647.42
572.582	30038.58
572.781	29868.6
572.979	29182.53
573.177	29446.72
573.376	29565.5
573.574	29037.12
573.772	29112.9
573.971	29045.32
574.169	29135.43
574.367	28568.14
574.565	29010.5
574.763	28867.14
574.962	29020.74
575.16	28435.02
575.358	28559.95
575.556	28617.29
575.754	28764.75
575.952	28279.38
576.151	28631.63
576.349	27746.9
576.547	28121.68
576.745	27947.61
576.943	28293.71
577.141	27890.26
577.339	27773.53
577.537	27671.13
577.735	27906.65
577.933	27310.69
578.131	27734.62
578.329	27427.42
578.527	27353.69
578.725	27134.56
578.923	27372.13
579.121	27316.83
579.319	26974.82
579.516	27157.09
579.714	27087.46
579.912	26923.62
580.11	26737.26
580.308	26608.23
580.506	26767.98
580.704	26307.18
580.901	26507.88
581.099	26698.34
581.297	26346.09
581.495	26108.53
581.692	26260.08
581.89	26358.38
582.088	26350.19
582.285	26184.3
582.483	25946.74
582.681	25954.93
582.878	25858.68
583.076	25438.84
583.274	25897.59
583.471	25637.5
583.669	25553.53
583.866	25361.02
584.064	25508.47
584.262	24687.24
584.459	25574.01
584.657	25201.28
584.854	25272.96
585.052	24769.16
585.249	25174.66
585.447	24937.09
585.644	25062.02
585.841	24722.05
586.039	25031.3
586.236	24566.41
586.434	24855.17
586.631	24517.26
586.828	24414.86
587.026	24429.2
587.223	24294.03
587.42	24191.63
587.618	24177.3
587.815	24122
588.012	23827.09
588.21	23712.41
588.407	23870.1
588.604	23800.47
588.801	23550.62
588.999	23706.26
589.196	23700.12
589.393	23360.16
589.59	23290.52
589.787	23425.69
589.984	23257.76
590.182	23282.33
590.379	23134.88
590.576	22903.46
590.773	23292.57
590.97	22669.99
591.167	23089.82
591.364	22526.63
591.561	22778.53
591.758	22864.55
591.955	22600.36
592.152	22803.11
592.349	22192.81
592.546	22479.53
592.743	22686.37
592.94	22057.65
593.137	22375.08
593.334	22221.48
593.531	21721.78
593.727	22176.43
593.924	22307.5
594.121	21928.63
594.318	21754.55
594.515	21217.98
594.712	21920.43
594.908	21557.94
595.105	21635.77
595.302	21650.1
595.499	21301.95
595.696	21228.22
595.892	21285.56
596.089	21344.95
596.286	20994.75
596.482	21097.15
596.679	21158.59
596.876	21131.97
597.072	21052.09
597.269	20673.22
597.466	20519.62
597.662	20927.17
597.859	20513.48
598.055	20732.61
598.252	20605.64
598.448	20480.71
598.645	20486.86
598.841	20366.03
599.038	20302.54
599.234	20247.24
599.431	20148.94
599.627	20030.16
599.824	20058.83
600.02	19923.66
600.217	19901.14
600.413	20001.49
600.609	19745.49
600.806	19643.09
601.002	19829.46
601.198	19491.54
601.395	19557.08
601.591	19462.87
601.787	19589.85
601.984	19489.49
602.18	19421.91
602.376	19339.99
602.572	19487.45
602.769	19282.65
602.965	19028.7
603.161	18985.69
603.357	19020.51
603.553	18854.62
603.75	18840.29
603.946	18647.78
604.142	18801.38
604.338	18479.85
604.534	18758.37
604.73	18619.11
604.926	18383.59
605.122	18365.16
605.318	18141.93
605.514	18492.13
605.71	18125.55
605.906	18270.95
606.102	18393.83
606.298	18121.45
606.494	18121.45
606.69	18066.16
606.886	18143.98
607.082	17773.3
607.278	17812.21
607.474	17705.71
607.67	17879.79
607.866	17275.64
608.062	17779.44
608.257	17687.28
608.453	17533.68
608.649	17828.59
608.845	17277.69
609.041	17335.03
609.236	17437.43
609.432	17449.72
609.628	17511.16
609.824	17394.42
610.019	17300.22
610.215	17201.91
610.411	17476.34
610.606	17087.23
610.802	17189.63
610.998	17222.39
611.193	16925.44
611.389	16956.16
611.584	16896.77
611.78	16962.3
611.976	17183.48
612.171	16984.83
612.367	16820.99
612.562	16839.42
612.758	16497.41
612.953	16464.64
613.149	16872.19
613.344	16560.9
613.539	16845.57
613.735	16751.36
613.93	16640.77
614.126	16544.52
614.321	16620.29
614.517	16534.28
614.712	16448.26
614.907	16268.04
615.103	16476.93
615.298	16309
615.493	16333.57
615.688	16122.63
615.884	16376.58
616.079	15905.55
616.274	16321.29
616.47	15870.73
616.665	15897.36
616.86	15991.56
617.055	15930.12
617.25	15946.51
617.445	16089.87
617.641	15706.9
617.836	15876.88
618.031	15684.37
618.226	15799.05
618.421	15764.24
618.616	15880.97
618.811	15643.41
619.006	15422.23
619.201	15278.87
619.396	15450.9
619.591	15049.5
619.786	15399.7
619.981	15084.31
620.176	15168.28
620.371	15174.42
620.566	15139.61
620.761	14955.29
620.956	15037.21
621.151	14836.51
621.346	14854.94
621.541	14721.82
621.735	14660.38
621.93	14521.12
622.125	14514.98
622.32	14277.41
622.515	14392.1
622.709	14369.57
622.904	14379.81
623.099	14324.52
623.294	14134.06
623.488	13982.51
623.683	13855.53
623.878	13804.33
624.072	13912.88
624.267	13652.78
624.462	13744.94
624.656	13593.39
624.851	13564.72
625.046	13411.12
625.24	13437.75
625.435	13067.06
625.629	13241.14
625.824	12919.61
626.018	12919.61
626.213	12907.32
626.407	13001.53
626.602	12653.37
626.796	12901.18
626.991	12737.34
627.185	12723.01
627.38	12657.47
627.574	12667.71
627.768	12487.49
627.963	12514.11
628.157	12376.9
628.352	12309.32
628.546	12086.09
628.74	12163.91
628.935	12157.77
629.129	12188.49
629.323	11889.48
629.517	11791.18
629.712	11934.54
629.906	11725.65
630.1	11801.42
630.294	11750.22
630.489	11479.89
630.683	11666.25
630.877	11332.44
631.071	11412.31
631.265	11322.2
631.459	11223.89
631.653	11170.65
631.848	11162.45
632.042	11000.66
632.236	11078.49
632.43	10947.42
632.624	10918.75
632.818	10969.94
633.012	10840.92
633.206	10482.53
633.4	10771.29
633.594	10574.69
633.788	10720.09
633.982	10799.96
634.176	10486.62
634.369	10460
634.563	10521.44
634.757	10285.92
634.951	10287.97
635.145	10330.98
635.339	10290.02
635.533	10058.6
635.726	9956.2
635.92	9792.36
636.114	9962.34
636.308	10011.5
636.501	9845.61
636.695	9991.02
636.889	9696.11
637.083	9673.58
637.276	9735.02
637.47	9698.16
637.664	9487.22
637.857	9642.86
638.051	9620.33
638.244	9397.1
638.438	9292.66
638.632	9597.81
638.825	9171.83
639.019	9159.54
639.212	9155.44
639.406	9177.97
639.599	9012.09
639.793	9073.53
639.986	8913.78
640.18	8749.95
640.373	8946.55
640.567	8674.17
640.76	8801.15
640.954	8438.66
641.147	8704.89
641.34	8582.01
641.534	8743.8
641.727	8713.08
641.92	8571.77
642.114	8459.13
642.307	8383.36
642.5	8524.67
642.694	8256.39
642.887	8235.91
643.08	8401.79
643.273	8260.48
643.467	8164.23
643.66	7975.81
643.853	8090.5
644.046	7850.89
644.239	7967.62
644.432	7857.03
644.626	7906.18
644.819	7603.08
645.012	7734.15
645.205	7783.31
645.398	7662.48
645.591	7668.62
645.784	7613.32
645.977	7682.95
646.17	7558.03
646.363	7615.37
646.556	7328.66
646.749	7551.88
646.942	7412.62
647.135	7336.85
647.328	7349.14
647.521	7291.79
647.714	7199.63
647.907	7267.22
648.099	7232.4
648.292	7046.04
648.485	7052.18
648.678	6996.89
648.871	6921.11
649.064	6964.12
649.256	7144.34
649.449	6874.01
649.642	6861.72
649.835	6828.95
650.027	6804.38
650.22	6927.25
650.413	6730.65
650.605	6769.56
650.798	6581.15
650.991	6417.31
651.183	6583.2
651.376	6634.39
651.568	6312.86
651.761	6595.48
651.954	6443.93
652.146	6216.61
652.339	6409.12
652.531	6456.22
652.724	6151.07
652.916	6286.24
653.109	6278.05
653.301	6392.73
653.494	6237.09
653.686	6163.36
653.879	6071.2
654.071	6132.64
654.263	5923.75
654.456	6146.98
654.648	5839.78
654.84	5850.02
655.033	5987.24
655.225	5841.83
655.417	5794.73
655.61	5899.17
655.802	5888.93
655.994	5802.92
656.186	5708.71
656.379	5688.23
656.571	5653.42
656.763	5571.5
656.955	5538.73
657.148	5649.32
657.34	5491.63
657.532	5536.68
657.724	5440.43
657.916	5481.39
658.108	5479.34
658.3	5448.62
658.492	5297.07
658.684	5407.66
658.876	5176.24
659.068	5346.22
659.26	5182.38
659.452	5200.82
659.644	5256.11
659.836	5217.2
660.028	5112.75
660.22	5075.89
660.412	5235.63
660.604	4903.86
660.796	5077.94
660.988	5063.6
661.18	4936.63
661.372	5043.12
661.563	4973.49
661.755	4897.72
661.947	4977.59
662.139	4961.2
662.331	4723.64
662.522	4764.6
662.714	4688.82
662.906	4803.51
663.097	4740.02
663.289	4678.58
663.481	4506.56
663.673	4531.13
663.864	4764.6
664.056	4602.81
664.247	4666.3
664.439	4723.64
664.631	4504.51
664.822	4520.89
665.014	4461.5
665.205	4580.28
665.397	4426.68
665.588	4477.88
665.78	4418.49
665.971	4357.05
666.163	4383.68
666.354	4316.09
666.546	4338.62
666.737	4279.23
666.929	4289.47
667.12	4305.85
667.311	4148.16
667.503	4166.59
667.694	4166.59
667.885	4187.07
668.077	4166.59
668.268	4152.26
668.459	4119.49
668.651	4111.3
668.842	4096.96
669.033	4033.47
669.224	4203.46
669.416	4258.75
669.607	3916.74
669.798	3998.66
669.989	4121.54
670.18	3961.8
670.371	3965.89
670.563	3931.08
670.754	4053.95
670.945	3886.02
671.136	4006.85
671.327	3705.8
671.518	3742.66
671.709	3843.01
671.9	3873.73
672.091	3867.59
672.282	3781.57
672.473	3816.39
672.664	3789.77
672.855	3785.67
673.046	3720.14
673.237	3724.23
673.428	3757
673.619	3679.18
673.809	3654.6
674	3564.49
674.191	3793.86
674.382	3656.65
674.573	3656.65
674.764	3709.9
674.954	3582.92
675.145	3517.39
675.336	3558.35
675.527	3496.91
675.717	3507.15
675.908	3273.68
676.099	3476.43
676.289	3564.49
676.48	3398.6
676.671	3378.12
676.861	3470.28
677.052	3367.88
677.243	3335.12
677.433	3417.04
677.624	3449.8
677.814	3355.6
678.005	3300.3
678.195	3378.12
678.386	3525.58
678.576	3367.88
678.767	3322.83
678.957	3470.28
679.148	3410.89
679.338	3402.7
679.529	3376.08
679.719	3224.53
679.909	3371.98
680.1	3228.62
680.29	3347.4
680.481	3146.7
680.671	3339.21
680.861	3212.24
681.052	3150.8
681.242	3220.43
681.432	3331.02
681.622	3150.8
681.813	3099.6
682.003	3179.47
682.193	3064.79
682.383	3111.89
682.573	3257.29
682.764	3083.22
682.954	3224.53
683.144	3062.74
683.334	3019.73
683.524	3111.89
683.714	3245.01
683.904	3177.42
684.094	3187.66
684.284	2964.43
684.474	3183.57
684.664	3050.45
684.854	2982.87
685.044	3058.64
685.234	2925.52
685.424	3025.87
685.614	2964.43
685.804	2997.2
685.994	2980.82
686.184	2890.71
686.374	3011.54
686.564	3021.78
686.753	3017.68
686.943	3072.98
687.133	2991.06
687.323	2925.52
687.513	2864.08
687.702	2851.8
687.892	2862.04
688.082	2808.79
688.272	2880.47
688.461	2986.96
688.651	2857.94
688.841	2819.03
689.03	2876.37
689.22	2939.86
689.41	2921.43
689.599	2821.08
689.789	2681.82
689.979	2687.96
690.168	2722.77
690.358	2778.07
690.547	2696.15
690.737	2714.58
690.926	2640.86
691.116	2603.99
691.305	2788.31
691.495	2634.71
691.684	2503.64
691.874	2649.05
692.063	2819.03
692.252	2565.08
692.442	2606.04
692.631	2651.1
692.82	2626.52
693.01	2642.9
693.199	2610.14
693.388	2526.17
693.578	2567.13
693.767	2450.39
693.956	2593.75
694.146	2522.07
694.335	2563.03
694.524	2595.8
694.713	2474.97
694.902	2460.63
695.092	2415.58
695.281	2466.78
695.47	2352.09
695.659	2368.48
695.848	2450.39
696.037	2438.11
696.226	2419.68
696.415	2380.76
696.604	2456.54
696.793	2399.2
696.982	2315.23
697.171	2393.05
697.36	2440.15
697.549	2348
697.738	2348
697.927	2331.61
698.116	2352.09
698.305	2362.33
698.494	2495.45
698.683	2354.14
698.872	2427.87
699.061	2280.41
699.25	2378.72
699.438	2403.29
699.627	2395.1
699.816	2372.57
700.005	2397.15
700.193	2388.96
700.382	2337.76
700.571	2460.63
700.76	2409.44
700.948	2343.9
701.137	2444.25
701.326	2376.67
701.514	2266.08
701.703	2288.61
701.892	2350.04
702.08	2300.89
702.269	2423.77
702.457	2386.91
702.646	2350.04
702.834	2296.8
703.023	2321.37
703.212	2304.99
703.4	2436.06
703.589	2298.84
703.777	2315.23
703.965	2304.99
704.154	2348
704.342	2241.5
704.531	2335.71
704.719	2348
704.907	2419.68
705.096	2255.84
705.284	2352.09
705.472	2323.42
705.661	2288.61
705.849	2378.72
706.037	2356.19
706.226	2450.39
706.414	2261.98
706.602	2292.7
706.79	2247.65
706.979	2280.41
707.167	2323.42
707.355	2370.52
707.543	2397.15
707.731	2290.65
707.919	2345.95
708.107	2343.9
708.296	2362.33
708.484	2386.91
708.672	2255.84
708.86	2300.89
709.048	2323.42
709.236	2257.89
709.424	2427.87
709.612	2321.37
709.8	2386.91
709.988	2317.28
710.176	2364.38
710.364	2352.09
710.551	2292.7
710.739	2245.6
710.927	2210.78
711.115	2270.17
711.303	2288.61
711.491	2276.32
711.679	2210.78
711.866	2264.03
712.054	2304.99
712.242	2245.6
712.43	2290.65
712.617	2339.8
712.805	2395.1
712.993	2253.79
713.181	2216.93
713.368	2374.62
713.556	2368.48
713.744	2270.17
713.931	2257.89
714.119	2241.5
714.306	2286.56
714.494	2366.43
714.682	2360.28
714.869	2221.02
715.057	2200.54
715.244	2251.74
715.432	2282.46
715.619	2243.55
715.807	2270.17
715.994	2253.79
716.182	2288.61
716.369	2343.9
716.556	2264.03
716.744	2204.64
716.931	2354.14
717.119	2339.8
717.306	2313.18
717.493	2247.65
717.681	2290.65
717.868	2266.08
718.055	2264.03
718.242	2296.8
718.43	2278.37
718.617	2249.69
718.804	2169.82
718.991	2233.31
719.179	2155.49
719.366	2251.74
719.553	2292.7
719.74	2180.06
719.927	2253.79
720.114	2208.73
720.301	2221.02
720.488	2235.36
720.676	2300.89
720.863	2253.79
721.05	2227.17
721.237	2223.07
721.424	2212.83
721.611	2202.59
721.798	2300.89
721.985	2270.17
722.172	2124.77
722.358	2272.22
722.545	2358.24
722.732	2286.56
722.919	2130.91
723.106	2223.07
723.293	2231.26
723.48	2106.34
723.667	2214.88
723.853	2276.32
724.04	2208.73
724.227	2233.31
724.414	2094.05
724.6	2245.6
724.787	2122.72
724.974	2333.66
725.161	2216.93
725.347	2178.01
725.534	2292.7
725.72	2182.11
725.907	2257.89
726.094	2204.64
726.28	2161.63
726.467	2204.64
726.653	2135.01
726.84	2288.61
727.027	2290.65
727.213	2245.6
727.4	2221.02
727.586	2243.55
727.773	2118.62
727.959	2294.75
728.145	2257.89
728.332	2163.68
728.518	2229.21
728.705	2196.45
728.891	2231.26
729.077	2186.21
729.264	2143.2
729.45	2245.6
729.636	2362.33
729.823	2204.64
730.009	2257.89
730.195	2243.55
730.382	2137.06
730.568	2159.58
730.754	2380.76
730.94	2112.48
731.126	2300.89
731.313	2307.04
731.499	2141.15
731.685	2206.69
731.871	2261.98
732.057	2261.98
732.243	2124.77
732.429	2237.41
732.615	2184.16
732.801	2048.99
732.987	2108.38
733.173	2239.45
733.359	2243.55
733.545	2184.16
733.731	2212.83
733.917	2237.41
734.103	2282.46
734.289	2180.06
734.475	2157.54
734.661	2204.64
734.847	2147.3
735.033	2135.01
735.219	2141.15
735.404	2184.16
735.59	2145.25
735.776	2163.68
735.962	2159.58
736.148	2155.49
736.333	2200.54
736.519	2186.21
736.705	2196.45
736.89	2034.66
737.076	2098.14
737.262	2182.11
737.447	2020.32
737.633	2122.72
737.819	2132.96
738.004	2194.4
738.19	2141.15
738.375	2040.8
738.561	2218.97
738.747	2126.82
738.932	2016.23
739.118	2118.62
739.303	2106.34
739.489	2098.14
739.674	2034.66
739.859	2018.27
740.045	2110.43
740.23	2083.81
740.416	2026.47
740.601	2159.58
740.786	1850.34
740.972	2075.62
741.157	1965.03
741.342	1958.88
741.528	2038.75
741.713	2032.61
741.898	2028.51
742.084	2073.57
742.269	1969.12
742.454	2046.94
742.639	2030.56
742.824	1954.79
743.01	1952.74
743.195	1977.31
743.38	2057.18
743.565	1876.96
743.75	1967.07
743.935	1903.59
744.12	1969.12
744.305	1801.19
744.49	1901.54
744.675	1895.4
744.86	1948.64
745.045	1977.31
745.23	1784.8
745.415	1868.77
745.6	1879.01
745.785	1922.02
745.97	1891.3
746.155	1899.49
746.34	1811.43
746.525	1797.09
746.71	1879.01
746.895	1858.53
747.079	1831.91
747.264	1772.52
747.449	1846.24
747.634	1727.46
747.819	1799.14
748.003	1774.56
748.188	1670.12
748.373	1758.18
748.557	1766.37
748.742	1684.45
748.927	1735.65
749.111	1680.36
749.296	1721.32
749.481	1661.93
749.665	1616.87
749.85	1709.03
750.034	1657.83
750.219	1704.93
750.404	1571.82
750.588	1700.84
750.773	1524.71
750.957	1620.97
751.141	1483.75
751.326	1518.57
751.51	1549.29
751.695	1551.34
751.879	1414.12
752.064	1498.09
752.248	1559.53
752.432	1539.05
752.617	1491.95
752.801	1522.66
752.985	1387.5
753.17	1563.62
753.354	1534.95
753.538	1397.74
753.722	1534.95
753.907	1379.31
754.091	1424.36
754.275	1391.59
754.459	1324.01
754.643	1448.94
754.828	1393.64
755.012	1344.49
755.196	1481.71
755.38	1285.1
755.564	1418.22
755.748	1424.36
755.932	1356.78
756.116	1307.63
756.3	1354.73
756.484	1309.68
756.668	1176.56
756.852	1274.86
757.036	1285.1
757.22	1160.17
757.404	1375.21
757.588	1319.92
757.772	1201.13
757.956	1176.56
758.14	1201.13
758.323	1166.32
758.507	1151.98
758.691	1221.61
758.875	1158.13
759.059	1166.32
759.242	1158.13
759.426	1156.08
759.61	1149.93
759.794	1129.45
759.977	1092.59
760.161	1238
760.345	1176.56
760.528	1166.32
760.712	1098.74
760.895	1094.64
761.079	1141.74
761.263	1096.69
761.446	1108.98
761.63	1168.37
761.813	1160.17
761.997	1102.83
762.18	1106.93
762.364	986.1
762.547	1029.1
762.731	1033.2
762.914	1000.43
763.098	1098.74
763.281	928.75
763.464	1027.06
763.648	1078.26
763.831	1074.16
764.015	1014.77
764.198	1072.11
764.381	967.67
764.564	1084.4
764.748	1049.58
764.931	1018.86
765.114	996.34
765.297	936.95
765.481	975.86
765.664	945.14
765.847	947.19
766.03	891.89
766.213	865.27
766.397	971.76
766.58	871.41
766.763	953.33
766.946	1020.91
767.129	957.43
767.312	910.32
767.495	900.08
767.678	877.55
767.861	928.75
768.044	857.07
768.227	863.22
768.41	869.36
768.593	895.99
768.776	953.33
768.959	961.52
769.142	951.28
769.324	906.23
769.507	936.95
769.69	857.07
769.873	887.79
770.056	1004.53
770.239	799.73
770.421	1012.72
770.604	889.84
770.787	812.02
770.97	912.37
771.152	859.12
771.335	836.6
771.518	752.63
771.7	781.3
771.883	873.46
772.066	812.02
772.248	777.2
772.431	809.97
772.613	824.31
772.796	902.13
772.978	846.84
773.161	834.55
773.343	855.03
773.526	848.88
773.708	781.3
773.891	756.72
774.073	723.96
774.256	764.92
774.438	771.06
774.621	742.39
774.803	799.73
774.985	685.05
775.168	809.97
775.35	777.2
775.532	703.48
775.715	664.57
775.897	762.87
776.079	742.39
776.261	691.19
776.444	660.47
776.626	701.43
776.808	664.57
776.99	726
777.173	666.61
777.355	678.9
777.537	689.14
777.719	650.23
777.901	644.09
778.083	613.37
778.265	652.28
778.447	683
778.629	658.42
778.811	652.28
778.993	623.61
779.175	705.53
779.357	635.89
779.539	578.55
779.721	603.13
779.903	719.86
780.085	633.85
780.267	590.84
780.449	664.57
780.631	644.09
780.812	619.51
780.994	635.89
781.176	601.08
781.358	556.02
781.54	578.55
781.721	623.61
781.903	588.79
782.085	611.32
782.267	584.7
782.448	545.78
782.63	488.44
782.812	506.87
782.993	599.03
783.175	504.82
783.357	488.44
783.538	531.45
783.72	519.16
783.901	539.64
784.083	545.78
784.264	594.93
784.446	502.78
784.627	515.06
784.809	429.05
784.99	406.52
785.172	506.87
785.353	488.44
785.535	373.75
785.716	470.01
785.897	500.73
786.079	480.25
786.26	463.86
786.441	451.58
786.623	386.04
786.804	433.15
786.985	527.35
787.167	398.33
787.348	459.77
787.529	431.1
787.71	513.02
787.891	334.84
788.073	429.05
788.254	431.1
788.435	361.47
788.616	427
788.797	398.33
788.978	373.75
789.159	437.24
789.34	418.81
789.522	383.99
789.703	398.33
789.884	470.01
790.065	453.63
790.246	418.81
790.427	377.85
790.607	427
790.788	422.91
790.969	355.32
791.15	379.9
791.331	365.56
791.512	398.33
791.693	263.16
791.874	340.99
792.054	429.05
792.235	332.79
792.416	320.51
792.597	396.28
792.778	314.36
792.958	371.71
793.139	324.6
793.32	300.03
793.5	353.27
793.681	359.42
793.862	402.43
794.042	361.47
794.223	228.35
794.404	365.56
794.584	306.17
794.765	293.88
794.945	267.26
795.126	308.22
795.306	259.07
795.487	281.6
795.667	308.22
795.848	308.22
796.028	277.5
796.209	252.92
796.389	347.13
796.57	353.27
796.75	289.79
796.93	271.36
797.111	318.46
797.291	355.32
797.471	328.7
797.652	232.44
797.832	310.27
798.012	302.08
798.192	304.12
798.373	242.68
798.553	285.69
798.733	246.78
798.913	318.46
799.093	246.78
799.274	244.73
799.454	361.47
799.634	275.45
799.814	275.45
799.994	306.17
800.174	353.27
800.354	259.07
800.534	183.29
800.714	302.08
800.894	261.12
801.074	259.07
801.254	216.06
801.434	261.12
801.614	310.27
801.794	246.78
801.974	621.56
802.154	257.02
802.334	252.92
802.514	273.4
802.693	265.21
802.873	271.36
803.053	263.16
803.233	250.88
803.413	148.48
803.592	187.39
803.772	205.82
803.952	205.82
804.131	187.39
804.311	160.77
804.491	214.01
804.67	162.81
804.85	218.11
805.03	181.25
805.209	267.26
805.389	320.51
805.568	181.25
805.748	216.06
805.928	185.34
806.107	259.07
806.287	152.57
806.466	228.35
806.646	197.63
806.825	205.82
807.004	107.52
807.184	211.96
807.363	140.29
807.543	218.11
807.722	128
807.901	310.27
808.081	107.52
808.26	162.81
808.439	121.85
808.619	197.63
808.798	164.86
808.977	244.73
809.156	222.2
809.336	199.68
809.515	201.72
809.694	199.68
809.873	158.72
810.052	191.49
810.231	197.63
810.411	199.68
810.59	222.2
810.769	236.54
810.948	193.53
811.127	125.95
811.306	89.09
811.485	220.16
811.664	236.54
811.843	119.81
812.022	160.77
812.201	197.63
812.38	224.25
812.559	148.48
812.737	183.29
812.916	168.96
813.095	205.82
813.274	162.81
813.453	226.3
813.632	189.44
813.811	142.33
813.989	134.14
814.168	82.94
814.347	189.44
814.526	191.49
814.704	115.71
814.883	166.91
815.062	162.81
815.24	99.33
815.419	138.24
815.598	91.13
815.776	132.09
815.955	146.43
816.133	146.43
816.312	154.62
816.49	99.33
816.669	91.13
816.847	193.53
817.026	214.01
817.204	158.72
817.383	209.92
817.561	107.52
817.74	191.49
817.918	128
818.097	179.2
818.275	138.24
818.453	162.81
818.632	142.33
818.81	136.19
818.988	82.94
819.167	115.71
819.345	103.42
819.523	128
819.701	128
819.879	160.77
820.058	152.57
820.236	160.77
820.414	134.14
820.592	136.19
820.77	125.95
820.948	132.09
821.127	181.25
821.305	183.29
821.483	109.57
821.661	115.71
821.839	89.09
822.017	156.67
822.195	66.56
822.373	99.33
822.551	105.47
822.729	111.61
822.907	146.43
823.085	99.33
823.262	134.14
823.44	50.18
823.618	158.72
823.796	138.24
823.974	109.57
824.152	58.37
824.329	91.13
824.507	148.48
824.685	93.18
824.863	78.85
825.04	93.18
825.218	140.29
825.396	84.99
825.574	101.37
825.751	74.75
825.929	123.9
826.107	84.99
826.284	138.24
826.462	66.56
826.639	134.14
826.817	109.57
826.994	60.42
827.172	132.09
827.349	121.85
827.527	72.7
827.704	177.15
827.882	132.09
828.059	162.81
828.237	25.6
828.414	117.76
828.591	17.41
828.769	113.66
828.946	25.6
829.124	175.1
829.301	78.85
829.478	166.91
829.655	23.55
829.833	91.13
830.01	125.95
830.187	150.53
830.364	62.46
830.542	78.85
830.719	48.13
830.896	60.42
831.073	117.76
831.25	115.71
831.427	128
831.604	66.56
831.782	115.71
831.959	128
832.136	68.61
832.313	128
832.49	130.05
832.667	150.53
832.844	41.98
833.021	113.66
833.198	93.18
833.374	87.04
833.551	91.13
833.728	82.94
833.905	101.37
834.082	80.89
834.259	99.33
834.436	146.43
834.612	70.65
834.789	21.5
834.966	35.84
835.143	27.65
835.319	17.41
835.496	91.13
835.673	82.94
835.85	105.47
836.026	150.53
836.203	84.99
836.38	68.61
836.556	82.94
836.733	70.65
836.909	115.71
837.086	78.85
837.262	29.7
837.439	107.52
837.616	13.31
837.792	41.98
837.968	33.79
838.145	56.32
838.321	44.03
838.498	23.55
838.674	17.41
838.851	41.98
839.027	33.79
839.203	103.42
839.38	82.94
839.556	33.79
839.732	107.52
839.909	130.05
840.085	7.17
840.261	146.43
840.437	39.94
840.614	13.31
840.79	64.51
840.966	109.57
841.142	52.22
841.318	1.02
841.494	33.79
841.671	74.75
841.847	56.32
842.023	11.26
842.199	78.85
842.375	91.13
842.551	76.8
842.727	80.89
842.903	99.33
843.079	84.99
843.255	37.89
843.431	62.46
843.607	68.61
843.783	-50.18
843.959	54.27
844.134	50.18
844.31	66.56
844.486	87.04
844.662	9.22
844.838	123.9
845.013	-11.26
845.189	95.23
845.365	109.57
845.541	80.89
845.716	15.36
845.892	84.99
846.068	95.23
846.244	-11.26
846.419	13.31
846.595	13.31
846.77	21.5
846.946	21.5
847.122	89.09
847.297	89.09
847.473	41.98
847.648	109.57
847.824	87.04
847.999	25.6
848.175	93.18
848.35	54.27
848.526	76.8
848.701	78.85
848.876	50.18
849.052	107.52
849.227	-3.07
849.403	78.85
849.578	95.23
849.753	5.12
849.929	89.09
850.104	21.5
850.279	48.13
850.454	27.65
850.63	82.94
850.805	62.46
850.98	60.42
851.155	-5.12
851.33	60.42
851.505	39.94
851.681	41.98
851.856	15.36
852.031	39.94
852.206	48.13
852.381	46.08
852.556	60.42
852.731	13.31
852.906	9.22
853.081	82.94
853.256	19.46
853.431	31.74
853.606	84.99
853.781	72.7
853.956	-27.65
854.131	-31.74
854.305	7.17
854.48	17.41
854.655	54.27
854.83	54.27
855.005	37.89
855.18	33.79
855.354	9.22
855.529	27.65
855.704	50.18
855.879	130.05
856.053	74.75
856.228	121.85
856.403	50.18
856.577	52.22
856.752	62.46
856.926	60.42
857.101	-46.08
857.276	-27.65
857.45	44.03
857.625	33.79
857.799	72.7
857.974	1.02
858.148	-3.07
858.323	39.94
858.497	15.36
858.672	9.22
858.846	-11.26
859.02	84.99
859.195	3.07
859.369	-39.94
859.543	-5.12
859.718	5.12
859.892	66.56
860.066	7.17
860.241	-84.99
860.415	-29.7
860.589	11.26
860.763	39.94
860.938	48.13
861.112	128
861.286	80.89
861.46	111.61
861.634	115.71
861.808	58.37
861.982	-23.55
862.157	3.07
862.331	37.89
862.505	11.26
862.679	-44.03
862.853	-17.41
863.027	-44.03
863.201	19.46
863.375	-11.26
863.549	84.99
863.722	-48.13
863.896	72.7
864.07	52.22
864.244	-5.12
864.418	25.6
864.592	1.02
864.766	19.46
864.939	107.52
865.113	5.12
865.287	56.32
865.461	31.74
865.634	25.6
865.808	68.61
865.982	-3.07
866.156	5.12
866.329	9.22
866.503	9.22
866.676	-3.07
866.85	-35.84
867.024	29.7
867.197	-15.36
867.371	37.89
867.544	-11.26
867.718	-54.27
867.891	21.5
868.065	27.65
868.238	15.36
868.412	21.5
868.585	35.84
868.759	62.46
868.932	-33.79
869.105	44.03
869.279	54.27
869.452	-11.26
869.625	-21.5
869.799	62.46
869.972	-44.03
870.145	-23.55
870.319	103.42
870.492	52.22
870.665	21.5
870.838	1.02
871.011	-19.46
871.185	50.18
871.358	-9.22
871.531	19.46
871.704	5.12
871.877	17.41
872.05	-3.07
872.223	11.26
872.396	17.41
872.569	52.22
872.742	-58.37
872.915	46.08
873.088	46.08
873.261	-15.36
873.434	44.03
873.607	-7.17
873.78	50.18
873.953	-33.79
874.126	29.7
874.299	-31.74
874.471	107.52
874.644	33.79
874.817	29.7
874.99	54.27
875.163	-31.74
875.335	128
875.508	25.6
875.681	89.09
875.853	-27.65
876.026	1.02
876.199	-11.26
876.371	11.26
876.544	9.22
876.717	19.46
876.889	-11.26
877.062	29.7
877.234	15.36
877.407	-1.02
877.579	44.03
877.752	87.04
877.924	13.31
878.097	11.26
878.269	31.74
878.442	21.5
878.614	3.07
878.786	-13.31
878.959	11.26
879.131	41.98
879.303	27.65
879.476	11.26
879.648	91.13
879.82	64.51
879.993	111.61
880.165	29.7
880.337	74.75
880.509	41.98
880.681	-29.7
880.854	-3.07
881.026	54.27
881.198	84.99
881.37	1.02
881.542	-15.36
881.714	27.65
881.886	-15.36
882.058	68.61
882.23	-1.02
882.402	-5.12
882.574	9.22
882.746	-19.46
882.918	-3.07
883.09	70.65
883.262	41.98
883.434	70.65
883.606	44.03
883.778	-3.07
883.95	3.07
884.122	29.7
884.293	41.98
884.465	-23.55
884.637	-11.26
884.809	29.7
884.98	25.6
885.152	-25.6
885.324	-3.07
885.496	21.5
885.667	62.46
885.839	-11.26
886.011	48.13
886.182	44.03
886.354	66.56
886.525	25.6
886.697	21.5
886.869	-11.26
887.04	52.22
887.212	9.22
887.383	23.55
887.555	-109.57
887.726	5.12
887.897	31.74
888.069	33.79
888.24	29.7
888.412	54.27
888.583	-3.07
888.754	27.65
888.926	44.03
889.097	52.22
889.268	-39.94
889.44	44.03
889.611	-37.89
889.782	-3.07
889.953	-19.46
890.125	41.98
890.296	-115.71
890.467	64.51
890.638	-27.65
890.809	66.56
890.98	-23.55
891.151	-27.65
891.323	35.84
891.494	44.03
891.665	33.79
891.836	95.23
892.007	-84.99
892.178	31.74
892.349	-7.17
892.52	13.31
892.691	25.6
892.862	19.46
893.032	-9.22
893.203	-19.46
893.374	1.02
893.545	82.94
893.716	-80.89
893.887	17.41
894.057	15.36
894.228	35.84
894.399	25.6
894.57	-15.36
894.74	66.56
894.911	19.46
895.082	-15.36
895.253	-23.55
895.423	37.89
895.594	15.36
895.764	50.18
895.935	-3.07
896.106	19.46
896.276	31.74
896.447	46.08
896.617	-25.6
896.788	21.5
896.958	11.26
897.129	1.02
897.299	27.65
897.47	60.42
897.64	13.31
897.81	33.79
897.981	23.55
898.151	-41.98
898.322	74.75
898.492	-31.74
898.662	-7.17
898.832	-9.22
899.003	39.94
899.173	-29.7
899.343	-13.31
899.513	-21.5
