Data from USB4F104151__199__11-10-07-319.txt Node

Date: Wed Mar 12 11:10:07 EDT 2025
User: louis
Spectrometer: USB4F10415
Trigger mode: 4
Integration Time (sec): 2.000000E-2
Scans to average: 1
Electric dark correction enabled: true
Nonlinearity correction enabled: false
Boxcar width: 0
XAxis mode: Wavelengths
Number of Pixels in Spectrum: 3648
>>>>>Begin Spectral Data<<<<<
178.204	12.8
178.424	12.8
178.644	12.8
178.864	-28.16
179.084	-38.4
179.304	-40.45
179.524	84.48
179.744	-36.35
179.964	88.57
180.184	-26.11
180.404	-5.63
180.624	43.52
180.844	-13.82
181.064	-3.58
181.283	-34.3
181.503	-50.69
181.723	-5.63
181.943	-38.4
182.163	51.71
182.383	39.42
182.602	39.42
182.822	18.94
183.042	-1.54
183.262	51.71
183.482	-9.73
183.701	16.9
183.921	-3.58
184.141	-1.54
184.361	47.62
184.58	16.9
184.8	6.66
185.02	37.38
185.239	125.44
185.459	-5.63
185.679	68.09
185.898	-36.35
186.118	18.94
186.338	4.61
186.557	43.52
186.777	31.23
186.997	107.01
187.216	35.33
187.436	117.25
187.655	47.62
187.875	57.86
188.095	39.42
188.314	-26.11
188.534	102.91
188.753	61.95
188.973	41.47
189.192	119.29
189.412	53.76
189.631	104.96
189.851	51.71
190.07	47.62
190.29	78.33
190.509	-7.68
190.729	10.75
190.948	68.09
191.168	178.69
191.387	78.33
191.607	68.09
191.826	35.33
192.045	31.23
192.265	-9.73
192.484	43.52
192.704	-1.54
192.923	51.71
193.142	12.8
193.362	53.76
193.581	94.72
193.8	35.33
194.02	25.09
194.239	31.23
194.458	-3.58
194.678	2.56
194.897	4.61
195.116	111.1
195.335	23.04
195.555	84.48
195.774	16.9
195.993	37.38
196.212	27.14
196.432	61.95
196.651	-9.73
196.87	-3.58
197.089	109.05
197.308	61.95
197.528	55.81
197.747	55.81
197.966	0.51
198.185	92.67
198.404	4.61
198.623	39.42
198.842	59.9
199.062	39.42
199.281	66.05
199.5	39.42
199.719	2.56
199.938	-7.68
200.157	31.23
200.376	88.57
200.595	-13.82
200.814	43.52
201.033	29.18
201.252	78.33
201.471	6.66
201.69	82.43
201.909	70.14
202.128	6.66
202.347	66.05
202.566	16.9
202.785	6.66
203.004	37.38
203.223	98.81
203.442	-11.78
203.661	25.09
203.879	68.09
204.098	43.52
204.317	18.94
204.536	96.77
204.755	96.77
204.974	20.99
205.193	80.38
205.411	90.62
205.63	23.04
205.849	43.52
206.068	33.28
206.287	-46.59
206.505	-1.54
206.724	20.99
206.943	57.86
207.162	18.94
207.381	25.09
207.599	-17.92
207.818	37.38
208.037	72.19
208.255	18.94
208.474	35.33
208.693	68.09
208.911	57.86
209.13	27.14
209.349	68.09
209.567	64
209.786	16.9
210.005	20.99
210.223	41.47
210.442	12.8
210.661	61.95
210.879	10.75
211.098	47.62
211.316	43.52
211.535	82.43
211.753	-44.54
211.972	43.52
212.191	16.9
212.409	12.8
212.628	-60.93
212.846	49.66
213.065	68.09
213.283	100.86
213.502	-5.63
213.72	37.38
213.938	-24.06
214.157	41.47
214.375	12.8
214.594	-30.21
214.812	33.28
215.031	53.76
215.249	-5.63
215.467	64
215.686	20.99
215.904	23.04
216.122	-101.89
216.341	82.43
216.559	51.71
216.778	98.81
216.996	-30.21
217.214	66.05
217.432	31.23
217.651	-13.82
217.869	29.18
218.087	31.23
218.306	72.19
218.524	72.19
218.742	27.14
218.96	154.11
219.179	-65.02
219.397	14.85
219.615	70.14
219.833	41.47
220.051	35.33
220.27	-75.26
220.488	72.19
220.706	100.86
220.924	-26.11
221.142	-13.82
221.36	55.81
221.578	29.18
221.796	33.28
222.015	-7.68
222.233	111.1
222.451	66.05
222.669	27.14
222.887	61.95
223.105	-17.92
223.323	-7.68
223.541	-26.11
223.759	-5.63
223.977	70.14
224.195	25.09
224.413	53.76
224.631	-13.82
224.849	14.85
225.067	37.38
225.285	0.51
225.503	-34.3
225.721	20.99
225.939	72.19
226.157	43.52
226.375	176.64
226.592	-1.54
226.81	-15.87
227.028	27.14
227.246	10.75
227.464	55.81
227.682	-22.02
227.9	31.23
228.117	6.66
228.335	43.52
228.553	66.05
228.771	27.14
228.989	92.67
229.206	64
229.424	31.23
229.642	0.51
229.86	72.19
230.077	76.29
230.295	82.43
230.513	61.95
230.731	51.71
230.948	-7.68
231.166	-5.63
231.384	47.62
231.601	78.33
231.819	29.18
232.037	55.81
232.254	-3.58
232.472	18.94
232.689	20.99
232.907	23.04
233.125	-11.78
233.342	80.38
233.56	-36.35
233.777	0.51
233.995	43.52
234.213	33.28
234.43	25.09
234.648	-22.02
234.865	25.09
235.083	2.56
235.3	41.47
235.518	57.86
235.735	51.71
235.953	14.85
236.17	-36.35
236.388	53.76
236.605	55.81
236.822	20.99
237.04	49.66
237.257	57.86
237.475	53.76
237.692	37.38
237.909	-17.92
238.127	61.95
238.344	61.95
238.562	80.38
238.779	-9.73
238.996	-44.54
239.214	39.42
239.431	51.71
239.648	90.62
239.865	53.76
240.083	35.33
240.3	-28.16
240.517	-44.54
240.735	43.52
240.952	23.04
241.169	41.47
241.386	104.96
241.603	47.62
241.821	35.33
242.038	86.53
242.255	25.09
242.472	31.23
242.689	0.51
242.907	23.04
243.124	80.38
243.341	37.38
243.558	49.66
243.775	2.56
243.992	55.81
244.209	25.09
244.426	23.04
244.643	-5.63
244.86	18.94
245.078	104.96
245.295	86.53
245.512	31.23
245.729	39.42
245.946	-5.63
246.163	35.33
246.38	76.29
246.597	64
246.814	31.23
247.031	90.62
247.248	43.52
247.464	33.28
247.681	18.94
247.898	61.95
248.115	49.66
248.332	25.09
248.549	43.52
248.766	117.25
248.983	37.38
249.2	47.62
249.417	102.91
249.633	-46.59
249.85	20.99
250.067	8.7
250.284	39.42
250.501	43.52
250.717	39.42
250.934	45.57
251.151	47.62
251.368	-26.11
251.585	27.14
251.801	27.14
252.018	29.18
252.235	76.29
252.451	-30.21
252.668	16.9
252.885	164.35
253.102	27.14
253.318	-3.58
253.535	76.29
253.752	92.67
253.968	53.76
254.185	25.09
254.401	-11.78
254.618	119.29
254.835	96.77
255.051	121.34
255.268	-54.78
255.484	29.18
255.701	78.33
255.917	94.72
256.134	14.85
256.351	59.9
256.567	45.57
256.784	57.86
257	55.81
257.217	0.51
257.433	102.91
257.65	-24.06
257.866	-1.54
258.082	18.94
258.299	-3.58
258.515	80.38
258.732	61.95
258.948	-13.82
259.165	41.47
259.381	61.95
259.597	41.47
259.814	76.29
260.03	37.38
260.246	-1.54
260.463	35.33
260.679	61.95
260.895	-24.06
261.112	119.29
261.328	-13.82
261.544	-13.82
261.761	57.86
261.977	66.05
262.193	-54.78
262.409	129.53
262.626	31.23
262.842	27.14
263.058	25.09
263.274	14.85
263.49	35.33
263.707	68.09
263.923	57.86
264.139	35.33
264.355	76.29
264.571	80.38
264.787	25.09
265.004	43.52
265.22	-38.4
265.436	53.76
265.652	4.61
265.868	57.86
266.084	-1.54
266.3	23.04
266.516	41.47
266.732	115.2
266.948	-17.92
267.164	-17.92
267.38	29.18
267.596	94.72
267.812	29.18
268.028	66.05
268.244	64
268.46	100.86
268.676	16.9
268.892	31.23
269.108	66.05
269.324	57.86
269.54	6.66
269.756	57.86
269.972	92.67
270.188	61.95
270.403	12.8
270.619	-44.54
270.835	4.61
271.051	12.8
271.267	25.09
271.483	68.09
271.698	41.47
271.914	43.52
272.13	-5.63
272.346	51.71
272.562	80.38
272.777	88.57
272.993	76.29
273.209	29.18
273.425	33.28
273.64	14.85
273.856	43.52
274.072	-7.68
274.287	-17.92
274.503	4.61
274.719	70.14
274.934	76.29
275.15	4.61
275.366	43.52
275.581	31.23
275.797	35.33
276.012	20.99
276.228	96.77
276.444	35.33
276.659	82.43
276.875	18.94
277.09	55.81
277.306	70.14
277.521	59.9
277.737	37.38
277.952	61.95
278.168	0.51
278.383	-7.68
278.599	6.66
278.814	82.43
279.03	37.38
279.245	39.42
279.461	53.76
279.676	25.09
279.892	-7.68
280.107	29.18
280.322	2.56
280.538	25.09
280.753	37.38
280.969	68.09
281.184	-1.54
281.399	49.66
281.615	16.9
281.83	-36.35
282.045	72.19
282.26	25.09
282.476	49.66
282.691	51.71
282.906	49.66
283.122	70.14
283.337	-7.68
283.552	76.29
283.767	74.24
283.983	45.57
284.198	29.18
284.413	72.19
284.628	8.7
284.843	-5.63
285.058	53.76
285.274	64
285.489	45.57
285.704	107.01
285.919	35.33
286.134	31.23
286.349	4.61
286.564	-5.63
286.779	64
286.995	27.14
287.21	4.61
287.425	64
287.64	-30.21
287.855	64
288.07	33.28
288.285	74.24
288.5	59.9
288.715	68.09
288.93	-40.45
289.145	43.52
289.36	66.05
289.575	-26.11
289.79	104.96
290.004	16.9
290.219	41.47
290.434	88.57
290.649	64
290.864	88.57
291.079	14.85
291.294	64
291.509	-5.63
291.724	29.18
291.938	27.14
292.153	49.66
292.368	27.14
292.583	2.56
292.798	31.23
293.012	2.56
293.227	70.14
293.442	35.33
293.657	49.66
293.871	107.01
294.086	37.38
294.301	64
294.516	37.38
294.73	59.9
294.945	20.99
295.16	96.77
295.374	51.71
295.589	31.23
295.804	8.7
296.018	64
296.233	64
296.447	94.72
296.662	39.42
296.877	59.9
297.091	121.34
297.306	53.76
297.52	51.71
297.735	10.75
297.949	14.85
298.164	29.18
298.378	14.85
298.593	-1.54
298.807	25.09
299.022	35.33
299.236	78.33
299.451	27.14
299.665	66.05
299.88	66.05
300.094	-5.63
300.309	64
300.523	35.33
300.737	18.94
300.952	76.29
301.166	2.56
301.381	4.61
301.595	-24.06
301.809	35.33
302.024	86.53
302.238	-3.58
302.452	96.77
302.667	61.95
302.881	90.62
303.095	25.09
303.309	129.53
303.524	2.56
303.738	0.51
303.952	-34.3
304.166	-19.97
304.381	16.9
304.595	27.14
304.809	33.28
305.023	-15.87
305.237	31.23
305.452	-17.92
305.666	-44.54
305.88	57.86
306.094	68.09
306.308	53.76
306.522	27.14
306.736	12.8
306.95	78.33
307.164	51.71
307.379	70.14
307.593	188.93
307.807	12.8
308.021	88.57
308.235	29.18
308.449	18.94
308.663	4.61
308.877	104.96
309.091	-15.87
309.305	64
309.519	64
309.733	25.09
309.947	-26.11
310.161	61.95
310.374	45.57
310.588	-22.02
310.802	-9.73
311.016	39.42
311.23	33.28
311.444	-1.54
311.658	51.71
311.872	55.81
312.085	47.62
312.299	92.67
312.513	82.43
312.727	23.04
312.941	35.33
313.154	98.81
313.368	35.33
313.582	45.57
313.796	18.94
314.009	-24.06
314.223	70.14
314.437	-22.02
314.651	70.14
314.864	27.14
315.078	39.42
315.292	115.2
315.505	23.04
315.719	55.81
315.933	76.29
316.146	59.9
316.36	49.66
316.573	78.33
316.787	31.23
317.001	80.38
317.214	-17.92
317.428	18.94
317.641	94.72
317.855	59.9
318.068	104.96
318.282	113.15
318.495	49.66
318.709	64
318.922	35.33
319.136	31.23
319.349	78.33
319.563	64
319.776	64
319.99	-7.68
320.203	82.43
320.417	59.9
320.63	49.66
320.843	113.15
321.057	41.47
321.27	102.91
321.483	131.58
321.697	84.48
321.91	43.52
322.124	10.75
322.337	80.38
322.55	12.8
322.763	76.29
322.977	39.42
323.19	37.38
323.403	27.14
323.617	-17.92
323.83	76.29
324.043	-28.16
324.256	4.61
324.469	-24.06
324.683	104.96
324.896	27.14
325.109	41.47
325.322	-3.58
325.535	72.19
325.748	111.1
325.962	64
326.175	61.95
326.388	90.62
326.601	92.67
326.814	55.81
327.027	74.24
327.24	66.05
327.453	31.23
327.666	27.14
327.879	55.81
328.092	107.01
328.305	51.71
328.518	-1.54
328.731	68.09
328.944	29.18
329.157	31.23
329.37	20.99
329.583	127.49
329.796	39.42
330.009	2.56
330.222	90.62
330.435	39.42
330.648	39.42
330.861	31.23
331.073	25.09
331.286	92.67
331.499	39.42
331.712	51.71
331.925	43.52
332.138	61.95
332.35	23.04
332.563	74.24
332.776	57.86
332.989	47.62
333.202	53.76
333.414	82.43
333.627	37.38
333.84	-30.21
334.053	47.62
334.265	-5.63
334.478	102.91
334.691	-7.68
334.903	80.38
335.116	80.38
335.329	96.77
335.541	8.7
335.754	90.62
335.966	80.38
336.179	86.53
336.392	133.63
336.604	14.85
336.817	14.85
337.029	72.19
337.242	49.66
337.454	66.05
337.667	20.99
337.88	68.09
338.092	92.67
338.305	16.9
338.517	31.23
338.729	70.14
338.942	61.95
339.154	-46.59
339.367	-28.16
339.579	20.99
339.792	10.75
340.004	82.43
340.217	94.72
340.429	49.66
340.641	18.94
340.854	16.9
341.066	27.14
341.278	92.67
341.491	41.47
341.703	-17.92
341.915	66.05
342.128	66.05
342.34	107.01
342.552	27.14
342.764	43.52
342.977	64
343.189	-5.63
343.401	-17.92
343.613	39.42
343.826	61.95
344.038	-1.54
344.25	68.09
344.462	16.9
344.674	98.81
344.886	4.61
345.099	20.99
345.311	88.57
345.523	33.28
345.735	2.56
345.947	57.86
346.159	141.82
346.371	129.53
346.583	61.95
346.795	29.18
347.007	47.62
347.219	27.14
347.431	2.56
347.643	107.01
347.855	43.52
348.067	47.62
348.279	82.43
348.491	-13.82
348.703	72.19
348.915	23.04
349.127	86.53
349.339	31.23
349.551	29.18
349.763	18.94
349.975	88.57
350.187	88.57
350.399	59.9
350.61	27.14
350.822	51.71
351.034	68.09
351.246	43.52
351.458	12.8
351.669	84.48
351.881	35.33
352.093	41.47
352.305	43.52
352.517	33.28
352.728	131.58
352.94	66.05
353.152	80.38
353.363	39.42
353.575	76.29
353.787	94.72
353.999	96.77
354.21	88.57
354.422	31.23
354.633	72.19
354.845	4.61
355.057	8.7
355.268	53.76
355.48	125.44
355.692	-7.68
355.903	45.57
356.115	-48.64
356.326	33.28
356.538	59.9
356.749	129.53
356.961	33.28
357.172	-13.82
357.384	51.71
357.595	150.01
357.807	55.81
358.018	66.05
358.23	29.18
358.441	76.29
358.653	70.14
358.864	8.7
359.075	96.77
359.287	8.7
359.498	49.66
359.709	102.91
359.921	-22.02
360.132	33.28
360.344	39.42
360.555	41.47
360.766	29.18
360.977	55.81
361.189	133.63
361.4	64
361.611	123.39
361.823	43.52
362.034	45.57
362.245	37.38
362.456	51.71
362.667	18.94
362.879	29.18
363.09	53.76
363.301	20.99
363.512	51.71
363.723	-5.63
363.935	78.33
364.146	37.38
364.357	100.86
364.568	64
364.779	14.85
364.99	72.19
365.201	18.94
365.412	45.57
365.623	20.99
365.834	90.62
366.045	-7.68
366.256	76.29
366.467	64
366.678	16.9
366.889	78.33
367.1	31.23
367.311	88.57
367.522	51.71
367.733	64
367.944	96.77
368.155	39.42
368.366	23.04
368.577	31.23
368.788	-7.68
368.999	12.8
369.209	119.29
369.42	18.94
369.631	115.2
369.842	104.96
370.053	27.14
370.264	43.52
370.474	37.38
370.685	121.34
370.896	8.7
371.107	61.95
371.317	-1.54
371.528	59.9
371.739	55.81
371.95	47.62
372.16	76.29
372.371	29.18
372.582	43.52
372.792	27.14
373.003	-11.78
373.214	33.28
373.424	109.05
373.635	39.42
373.846	74.24
374.056	61.95
374.267	41.47
374.477	70.14
374.688	107.01
374.898	27.14
375.109	39.42
375.319	-15.87
375.53	25.09
375.74	107.01
375.951	45.57
376.161	23.04
376.372	98.81
376.582	37.38
376.793	82.43
377.003	39.42
377.214	80.38
377.424	39.42
377.635	41.47
377.845	47.62
378.055	57.86
378.266	14.85
378.476	127.49
378.686	68.09
378.897	27.14
379.107	102.91
379.317	59.9
379.528	31.23
379.738	6.66
379.948	84.48
380.158	47.62
380.369	145.92
380.579	39.42
380.789	86.53
380.999	29.18
381.21	72.19
381.42	92.67
381.63	59.9
381.84	78.33
382.05	18.94
382.261	80.38
382.471	66.05
382.681	37.38
382.891	125.44
383.101	29.18
383.311	6.66
383.521	70.14
383.731	182.78
383.941	47.62
384.151	74.24
384.361	109.05
384.571	68.09
384.781	57.86
384.991	68.09
385.201	72.19
385.411	49.66
385.621	51.71
385.831	12.8
386.041	121.34
386.251	43.52
386.461	109.05
386.671	59.9
386.881	135.68
387.091	-1.54
387.301	57.86
387.511	59.9
387.72	86.53
387.93	45.57
388.14	59.9
388.35	74.24
388.56	127.49
388.769	102.91
388.979	53.76
389.189	72.19
389.399	39.42
389.609	61.95
389.818	123.39
390.028	27.14
390.238	125.44
390.447	35.33
390.657	25.09
390.867	14.85
391.076	43.52
391.286	80.38
391.496	123.39
391.705	115.2
391.915	82.43
392.125	68.09
392.334	68.09
392.544	2.56
392.753	123.39
392.963	100.86
393.172	68.09
393.382	90.62
393.591	102.91
393.801	43.52
394.01	86.53
394.22	51.71
394.429	98.81
394.639	70.14
394.848	80.38
395.058	23.04
395.267	55.81
395.477	49.66
395.686	143.87
395.895	121.34
396.105	145.92
396.314	129.53
396.524	88.57
396.733	104.96
396.942	55.81
397.152	98.81
397.361	162.3
397.57	121.34
397.78	100.86
397.989	147.97
398.198	104.96
398.407	33.28
398.617	86.53
398.826	31.23
399.035	57.86
399.244	33.28
399.453	104.96
399.663	145.92
399.872	109.05
400.081	45.57
400.29	107.01
400.499	55.81
400.708	113.15
400.917	31.23
401.127	160.25
401.336	70.14
401.545	111.1
401.754	125.44
401.963	129.53
402.172	96.77
402.381	113.15
402.59	109.05
402.799	74.24
403.008	113.15
403.217	53.76
403.426	92.67
403.635	53.76
403.844	121.34
404.053	92.67
404.262	68.09
404.471	115.2
404.68	102.91
404.888	88.57
405.097	137.73
405.306	119.29
405.515	162.3
405.724	147.97
405.933	160.25
406.142	176.64
406.35	162.3
406.559	55.81
406.768	215.55
406.977	174.59
407.185	190.97
407.394	156.16
407.603	188.93
407.812	217.6
408.02	217.6
408.229	160.25
408.438	215.55
408.646	236.03
408.855	252.41
409.064	211.45
409.272	162.3
409.481	203.26
409.69	236.03
409.898	225.79
410.107	260.6
410.315	326.14
410.524	242.17
410.733	240.12
410.941	328.19
411.15	264.7
411.358	264.7
411.567	299.52
411.775	240.12
411.984	373.24
412.192	322.04
412.401	336.38
412.609	438.78
412.818	344.57
413.026	459.26
413.234	487.93
413.443	440.83
413.651	451.07
413.86	467.45
414.068	451.07
414.276	547.32
414.485	467.45
414.693	455.16
414.901	590.33
415.11	612.85
415.318	543.22
415.526	602.61
415.734	709.11
415.943	578.04
416.151	676.34
416.359	674.29
416.567	684.53
416.776	719.35
416.984	682.49
417.192	754.16
417.4	776.69
417.608	803.32
417.817	803.32
418.025	881.14
418.233	922.1
418.441	907.76
418.649	983.54
418.857	901.62
419.065	995.82
419.273	1018.35
419.481	997.87
419.689	1151.47
419.897	1163.76
420.105	1092.08
420.313	1196.53
420.521	1288.68
420.729	1249.77
420.937	1300.97
421.145	1323.5
421.353	1479.15
421.561	1372.65
421.769	1489.39
421.977	1636.84
422.185	1501.67
422.393	1626.6
422.601	1655.27
422.809	1591.78
423.017	1802.72
423.224	1843.68
423.432	1919.46
423.64	1894.88
423.848	2077.15
424.056	2040.29
424.263	2146.78
424.471	2103.78
424.679	2218.46
424.887	2253.28
425.094	2443.74
425.302	2423.26
425.51	2505.18
425.718	2607.58
425.925	2564.57
426.133	2781.65
426.341	2884.05
426.548	2922.96
426.756	3023.31
426.964	2974.16
427.171	3318.22
427.379	3318.22
427.586	3240.4
427.794	3447.24
428.001	3645.9
428.209	3793.35
428.417	3658.18
428.624	4131.26
428.832	4071.87
429.039	3830.21
429.247	3920.32
429.454	4315.58
429.662	4565.43
429.869	4334.01
430.076	4520.38
430.284	4516.28
430.491	4762.04
430.699	4956.6
430.906	4835.77
431.114	4882.87
431.321	5138.87
431.528	5351.85
431.736	5622.19
431.943	5980.58
432.15	5810.6
432.358	5835.17
432.565	5972.39
432.772	6062.5
432.979	6384.03
433.187	6525.34
433.394	6369.69
433.601	7031.19
433.808	6850.97
434.016	6879.64
434.223	7211.41
434.43	7786.89
434.637	7418.25
434.844	8020.36
435.052	8067.46
435.259	8143.24
435.466	8063.36
435.673	7856.52
435.88	8554.88
436.087	8976.76
436.294	9183.6
436.501	8794.49
436.708	9034.1
436.915	9165.17
437.122	9660.78
437.329	9640.3
437.537	10074.47
437.743	10242.4
437.95	9832.81
438.157	10496.35
438.364	10918.23
438.571	11026.78
438.778	10772.83
438.985	12044.62
439.192	11411.79
439.399	12093.77
439.606	11702.61
439.813	12374.34
440.02	12974.39
440.227	12810.56
440.433	12620.1
440.64	13166.9
440.847	13003.07
441.054	13322.55
441.261	14344.49
441.467	14002.47
441.674	14233.89
441.881	14889.24
442.088	14999.84
442.294	14498.08
442.501	15153.43
442.708	15472.92
442.914	16103.69
443.121	16709.89
443.328	16374.02
443.534	17256.7
443.741	16689.41
443.948	16476.42
444.154	17813.74
444.361	17592.56
444.568	17823.98
444.774	17596.66
444.981	17895.66
445.187	18520.29
445.394	19458.26
445.6	19177.69
445.807	21084.35
446.013	20084.94
446.22	20291.79
446.426	21018.82
446.633	21172.41
446.839	21831.86
447.046	21088.45
447.252	22358.19
447.459	22089.9
447.665	22100.14
447.871	23128.22
448.078	23914.64
448.284	22958.24
448.491	23609.5
448.697	24377.48
448.903	24764.55
449.11	24860.8
449.316	24424.59
449.522	25026.69
449.728	25460.86
449.935	25849.97
450.141	25557.11
450.347	26312.81
450.553	25229.44
450.76	25669.75
450.966	26325.1
451.172	26265.71
451.378	26863.72
451.584	26460.27
451.791	27148.39
451.997	26677.35
452.203	27498.59
452.409	27203.68
452.615	26939.49
452.821	26183.79
453.027	25720.95
453.233	26951.78
453.44	25974.9
453.646	26382.45
453.852	26546.28
454.058	26726.5
454.264	25723
454.47	26536.04
454.676	25886.84
454.882	26697.83
455.088	24174.74
455.294	24586.38
455.5	24995.97
455.705	25200.77
455.911	23933.07
456.117	24080.53
456.323	23169.18
456.529	22231.21
456.735	22898.85
456.941	22286.51
457.147	21979.31
457.352	21139.65
457.558	21018.82
457.764	21000.38
457.97	20762.82
458.176	20332.75
458.381	20283.59
458.587	19099.87
458.793	19071.2
458.999	18237.67
459.204	19374.3
459.41	18884.83
459.616	17754.35
459.821	17541.36
460.027	17484.02
460.233	17133.82
460.438	16599.3
460.644	16689.41
460.85	15726.86
461.055	15616.27
461.261	15659.28
461.466	14313.77
461.672	13959.47
461.878	15079.71
462.083	13936.94
462.289	14022.95
462.494	13820.21
462.7	13115.7
462.905	12536.13
463.111	13152.57
463.316	13361.46
463.522	12763.45
463.727	12814.65
463.932	12675.39
464.138	12872
464.343	12722.49
464.549	12513.6
464.754	12648.77
464.959	12949.82
465.165	12667.2
465.37	12028.23
465.575	11733.32
465.781	12372.29
465.986	12308.8
466.191	12144.97
466.397	11696.46
466.602	11258.2
466.807	11514.19
467.012	11583.82
467.218	11659.6
467.423	11364.69
467.628	11338.07
467.833	11893.07
468.038	11551.06
468.244	10987.86
468.449	11577.68
468.654	11217.24
468.859	11057.5
469.064	11274.58
469.269	10574.17
469.474	10658.14
469.679	10969.43
469.885	10717.53
470.09	10568.03
470.295	10576.22
470.5	10412.39
470.705	10549.6
470.91	10230.12
471.115	10004.84
471.32	10266.98
471.525	10197.35
471.73	9939.3
471.935	9810.28
472.139	9498.99
472.344	9566.57
472.549	9695.6
472.754	9492.85
472.959	9331.06
473.164	9058.68
473.369	8788.35
473.574	9341.3
473.778	9175.41
473.983	9093.49
474.188	9142.64
474.393	8810.87
474.598	8782.2
474.802	8339.84
475.007	8577.41
475.212	8665.47
475.417	8296.83
475.621	8243.59
475.826	8173.96
476.031	8094.08
476.235	8145.28
476.44	8010.12
476.645	7938.44
476.849	8083.84
477.054	7836.04
477.259	7688.59
477.463	7625.1
477.668	7641.48
477.872	7764.36
478.077	7567.76
478.282	7170.45
478.486	7475.6
478.691	7217.55
478.895	7295.38
479.1	7246.23
479.304	7252.37
479.509	7063.96
479.713	7008.66
479.918	6824.34
480.122	6834.58
480.326	7053.72
480.531	6934.93
480.735	6904.21
480.94	6773.14
481.144	7049.62
481.348	6805.91
481.553	6961.56
481.757	6615.45
481.961	6640.03
482.166	6801.82
482.37	6859.16
482.574	6779.29
482.778	6828.44
482.983	6859.16
483.187	6732.19
483.391	6721.95
483.595	6744.47
483.8	6756.76
484.004	6652.31
484.208	6795.67
484.412	6738.33
484.616	6656.41
484.821	6740.38
485.025	6603.16
485.229	6732.19
485.433	6691.23
485.637	6658.46
485.841	6590.88
486.045	6515.1
486.249	6656.41
486.453	6504.86
486.657	6756.76
486.861	6705.56
487.065	6465.95
487.269	6715.8
487.473	6617.5
487.677	6709.66
487.881	6605.21
488.085	6611.36
488.289	6650.27
488.493	6678.94
488.697	6576.54
488.901	6760.86
489.105	6594.97
489.309	6736.28
489.512	6693.27
489.716	6850.97
489.92	6648.22
490.124	6734.23
490.328	6904.21
490.531	6814.1
490.735	6928.79
490.939	6838.68
491.143	6877.59
491.346	6879.64
491.55	7066
491.754	7023
491.958	6971.8
492.161	6947.22
492.365	7156.11
492.569	7008.66
492.772	7010.71
492.976	7104.92
493.18	7000.47
493.383	7025.04
493.587	7369.1
493.79	7401.87
493.994	7115.16
494.197	7338.38
494.401	7432.59
494.605	7389.58
494.808	7551.37
495.012	7561.61
495.215	7559.56
495.419	7647.63
495.622	7645.58
495.825	7756.17
496.029	7733.64
496.232	7967.11
496.436	7793.03
496.639	8030.6
496.843	8221.06
497.046	8126.85
497.249	8231.3
497.453	8284.55
497.656	8354.18
497.859	8511.87
498.063	8407.42
498.266	8681.85
498.469	8599.93
498.673	8771.96
498.876	9009.53
499.079	8956.28
499.282	9099.64
499.485	9261.43
499.689	9435.5
499.892	9425.26
500.095	9363.83
500.298	9685.36
500.501	9666.92
500.705	9808.23
500.908	9994.6
501.111	10150.25
501.314	10172.77
501.517	10283.36
501.72	10404.19
501.923	10510.69
502.126	10658.14
502.329	10756.44
502.532	10629.47
502.735	10699.1
502.938	10838.36
503.141	10983.77
503.344	11391.31
503.547	11194.71
503.75	11577.68
503.953	11528.53
504.156	11704.65
504.359	11802.96
504.562	11829.58
504.765	12216.65
504.968	12140.87
505.17	12390.72
505.373	12380.48
505.576	12400.96
505.779	12765.5
505.982	12652.86
506.185	13001.02
506.387	13150.52
506.59	13269.3
506.793	13693.23
506.996	13510.96
507.198	13689.14
507.401	13715.76
507.604	13994.28
507.807	14147.88
508.009	14588.19
508.212	14682.4
508.415	14428.45
508.617	14860.57
508.82	14809.37
509.022	14874.91
509.225	14911.77
509.428	15448.34
509.63	15622.42
509.833	15706.38
510.035	16011.53
510.238	15616.27
510.44	16296.2
510.643	16187.66
510.845	16378.12
511.048	16464.13
511.25	16718.08
511.453	16740.61
511.655	17334.52
511.858	17219.83
512.06	17615.09
512.262	17574.13
512.465	17957.1
512.667	18061.55
512.87	18178.28
513.072	18237.67
513.274	18665.7
513.477	18743.52
513.679	18780.39
513.881	18974.94
514.084	19480.79
514.286	19347.67
514.488	19636.44
514.69	19919.06
514.893	19771.6
515.095	19986.64
515.297	20449.48
515.499	20406.47
515.701	20762.82
515.904	21002.43
516.106	21385.4
516.308	21362.87
516.51	21688.5
516.712	21610.68
516.914	21911.73
517.116	22243.5
517.318	22407.34
517.52	22249.64
517.722	22540.46
517.925	22720.68
518.127	23226.53
518.329	23240.86
518.531	23187.61
518.733	23599.26
518.935	23838.87
519.136	24006.8
519.338	24653.96
519.54	24307.85
519.742	24682.63
519.944	24445.07
520.146	25305.21
520.348	25288.83
520.55	25659.51
520.752	25675.9
520.954	26056.82
521.155	25962.61
521.357	26407.02
521.559	26425.45
521.761	27062.37
521.963	27150.43
522.164	27070.56
522.366	27041.89
522.568	27496.54
522.77	27793.5
522.971	28096.6
523.173	27906.13
523.375	28405.84
523.576	27906.13
523.778	28508.24
523.98	28915.78
524.181	28921.93
524.383	29239.36
524.584	29581.37
524.786	29239.36
524.988	29392.96
525.189	29870.14
525.391	30142.52
525.592	30029.88
525.794	30038.07
525.995	30365.74
526.197	30529.58
526.398	30468.14
526.6	30763.05
526.801	30883.88
527.003	30984.23
527.204	30945.32
527.406	31383.59
527.607	31311.91
527.808	31442.98
528.01	31543.33
528.211	31565.85
528.412	32247.83
528.614	31789.08
528.815	32141.33
529.016	32180.24
529.218	31858.71
529.419	32387.09
529.62	32577.55
529.822	31817.75
530.023	32083.99
530.224	32368.66
530.425	32630.8
530.626	32335.89
530.828	32362.51
531.029	33136.65
531.23	32835.59
531.431	32514.06
531.632	32692.24
531.833	33218.57
532.035	33196.04
532.236	33464.32
532.437	33366.02
532.638	33062.92
532.839	33529.86
533.04	33761.28
533.241	32968.71
533.442	33832.96
533.643	33488.9
533.844	33380.35
534.045	33447.94
534.246	33335.3
534.447	33495.04
534.648	33230.85
534.849	33579.01
535.05	33275.91
535.251	33802.24
535.451	33333.25
535.652	33886.2
535.853	33794.04
536.054	33650.69
536.255	33886.2
536.456	33601.54
536.657	34119.67
536.857	33779.71
537.058	33609.73
537.259	33779.71
537.46	34021.37
537.66	33853.44
537.861	34084.86
538.062	33222.66
538.263	34162.68
538.463	33529.86
538.664	33904.63
538.865	33529.86
539.065	34408.43
539.266	33716.22
539.466	33875.96
539.667	33327.11
539.868	34091
540.068	33996.79
540.269	34009.08
540.469	34379.76
540.67	33890.3
540.87	33961.98
541.071	33574.91
541.271	33873.92
541.472	34002.94
541.672	33538.05
541.873	33454.08
542.073	33677.31
542.274	34410.48
542.474	33710.08
542.675	33554.43
542.875	34066.42
543.075	34058.23
543.276	33660.93
543.476	34142.2
543.676	33851.39
543.877	33988.6
544.077	34029.56
544.277	33626.11
544.478	33736.7
544.678	34217.97
544.878	33476.61
545.078	33918.97
545.279	33746.94
545.479	33538.05
545.679	34125.82
545.879	33579.01
546.079	33685.5
546.28	33665.02
546.48	33527.81
546.68	33675.26
546.88	33617.92
547.08	33654.78
547.28	33738.75
547.48	33505.28
547.68	33800.19
547.88	33593.34
548.081	33710.08
548.281	33613.82
548.481	33347.59
548.681	33507.33
548.881	33746.94
549.081	33781.76
549.28	33196.04
549.48	33789.95
549.68	33529.86
549.88	34332.66
550.08	33665.02
550.28	33867.77
550.48	33427.46
550.68	33869.82
550.88	33327.11
551.08	33474.56
551.279	33497.09
551.479	33230.85
551.679	33503.23
551.879	33239.04
552.079	33695.74
552.278	33581.06
552.478	33497.09
552.678	33869.82
552.878	33615.87
553.077	33445.89
553.277	32921.61
553.477	33736.7
553.676	33382.4
553.876	33161.22
554.076	32831.5
554.275	33323.01
554.475	32811.02
554.674	33183.75
554.874	33355.78
555.074	33204.23
555.273	33030.15
555.473	33351.68
555.672	33263.62
555.872	33103.88
556.071	33003.53
556.271	33015.82
556.47	32526.35
556.67	32915.47
556.869	32897.03
557.068	32786.44
557.268	32401.43
557.467	32362.51
557.667	32811.02
557.866	32499.73
558.065	32802.83
558.265	32350.23
558.464	32231.44
558.663	32647.18
558.863	32010.26
559.062	32616.46
559.261	31772.7
559.461	32204.82
559.66	31938.58
559.859	31795.23
560.058	31993.88
560.258	32012.31
560.457	31705.12
560.656	32000.02
560.855	31526.94
561.054	31940.63
561.253	31733.79
561.453	31559.71
561.652	32000.02
561.851	31522.85
562.05	31350.82
562.249	31318.05
562.448	31655.96
562.647	31500.32
562.846	31084.58
563.045	31420.45
563.244	31004.71
563.443	31270.95
563.642	30591.02
563.841	30779.43
564.04	30754.86
564.239	31014.95
564.438	30330.93
564.637	30595.12
564.836	30449.71
565.035	30462
565.234	30562.35
565.432	30273.59
565.631	30017.59
565.83	30412.85
566.029	30107.7
566.228	30181.43
566.427	29866.04
566.625	29880.38
566.824	29577.28
567.023	29825.08
567.222	29481.02
567.42	29677.63
567.619	29554.75
567.818	29399.1
568.016	29409.34
568.215	29579.32
568.414	29089.86
568.612	29616.19
568.811	28969.03
569.01	28940.36
569.208	28393.55
569.407	28864.58
569.605	28645.45
569.804	28680.27
570.002	28688.46
570.201	28674.12
570.4	28307.54
570.598	28176.47
570.797	27998.29
570.995	28250.19
571.193	27785.3
571.392	28045.4
571.59	27742.3
571.789	28178.51
571.987	27695.19
572.186	27635.8
572.384	27668.57
572.582	27584.6
572.781	27600.99
572.979	27021.41
573.177	27244.64
573.376	27381.85
573.574	26951.78
573.772	27312.22
573.971	26622.06
574.169	26697.83
574.367	26372.21
574.565	26769.51
574.763	26464.36
574.962	26546.28
575.16	26312.81
575.358	26400.88
575.556	26050.67
575.754	26777.7
575.952	26099.83
576.151	26183.79
576.349	25663.61
576.547	26030.19
576.745	25821.3
576.943	25735.29
577.141	25856.12
577.339	25585.79
577.537	25839.73
577.735	25473.15
577.933	25268.35
578.131	25350.27
578.329	25346.17
578.527	25309.31
578.725	25084.03
578.923	25348.22
579.121	24995.97
579.319	25086.08
579.516	25102.46
579.714	24971.39
579.912	24615.05
580.11	24363.15
580.308	24590.47
580.506	24420.49
580.704	24074.38
580.901	24555.66
581.099	24361.1
581.297	24084.62
581.495	23883.92
581.692	24135.82
581.89	23896.21
582.088	24037.52
582.285	23842.96
582.483	23935.12
582.681	23718.04
582.878	23425.18
583.076	23224.48
583.274	23660.69
583.471	23429.27
583.669	23105.7
583.866	23087.26
584.064	23347.36
584.262	22780.07
584.459	23292.06
584.657	22954.15
584.854	23320.73
585.052	22528.17
585.249	23095.46
585.447	22784.16
585.644	22524.07
585.841	22640.81
586.039	22560.94
586.236	22356.14
586.434	22190.25
586.631	22012.08
586.828	22380.71
587.026	22194.35
587.223	22278.32
587.42	22038.7
587.618	22196.4
587.815	21536.95
588.012	21672.12
588.21	21835.95
588.407	21858.48
588.604	21620.92
588.801	21622.97
588.999	21731.51
589.196	21532.86
589.393	21506.23
589.59	21229.76
589.787	21375.16
589.984	21362.87
590.182	21012.67
590.379	21215.42
590.576	20902.08
590.773	20920.51
590.97	20990.14
591.167	20775.11
591.364	20433.1
591.561	20758.72
591.758	20472.01
591.955	20664.52
592.152	20699.33
592.349	20361.42
592.546	20404.42
592.743	20535.49
592.94	20136.14
593.137	20224.2
593.334	20279.5
593.531	20023.5
593.727	20224.2
593.924	19771.6
594.121	19800.27
594.318	19886.29
594.515	19607.76
594.712	19796.18
594.908	19554.52
595.105	19734.74
595.302	19374.3
595.499	19679.44
595.696	19497.17
595.892	19194.08
596.089	19349.72
596.286	19355.86
596.482	19253.47
596.679	19331.29
596.876	19050.72
597.072	18886.88
597.269	18948.32
597.466	18772.19
597.662	18688.23
597.859	18841.82
598.055	18639.08
598.252	18565.35
598.448	18540.77
598.645	18643.17
598.841	18211.05
599.038	18340.07
599.234	18327.78
599.431	18163.95
599.627	17971.44
599.824	18147.56
600.02	18360.55
600.217	18043.12
600.413	18186.47
600.609	18020.59
600.806	17479.93
601.002	18065.64
601.198	17893.61
601.395	17787.12
601.591	17760.5
601.787	17877.23
601.984	17705.2
602.18	17645.81
602.376	17404.15
602.572	17332.47
602.769	17418.49
602.965	16937.21
603.161	17271.03
603.357	17107.19
603.553	17174.78
603.75	17066.24
603.946	16990.46
604.142	17180.92
604.338	16388.36
604.534	16955.65
604.73	16630.02
604.926	16650.5
605.122	16777.47
605.318	16584.96
605.514	16617.73
605.71	16537.86
605.906	16470.28
606.102	16173.32
606.298	16408.84
606.494	16347.4
606.69	16335.11
606.886	16189.7
607.082	16060.68
607.278	16240.9
607.474	15726.86
607.67	16107.79
607.866	15722.77
608.062	16175.37
608.257	15935.76
608.453	15964.43
608.649	15915.28
608.845	15528.21
609.041	15524.12
609.236	15751.44
609.432	15548.69
609.628	15544.59
609.824	15640.85
610.019	15415.57
610.215	15542.55
610.411	15470.87
610.606	15304.98
610.802	15399.19
610.998	15302.93
611.193	15380.76
611.389	15057.18
611.584	15243.54
611.78	15155.48
611.976	15335.7
612.171	15163.67
612.367	15055.13
612.562	15331.61
612.758	14958.88
612.953	15001.88
613.149	15167.77
613.344	14901.53
613.539	14934.3
613.735	15075.61
613.93	15120.67
614.126	14811.42
614.321	14876.96
614.517	14860.57
614.712	14641.44
614.907	14870.81
615.103	14518.56
615.298	14416.16
615.493	14657.82
615.688	14278.95
615.884	14717.22
616.079	14401.83
616.274	14723.36
616.47	14397.73
616.665	14498.08
616.86	14313.77
617.055	14295.33
617.25	14270.76
617.445	14299.43
617.641	14139.69
617.836	14350.63
618.031	14043.43
618.226	14293.29
618.421	13938.99
618.616	14090.54
618.811	13951.28
619.006	14240.04
619.201	13889.84
619.396	13805.87
619.591	13529.39
619.786	13615.41
619.981	13478.19
620.176	13785.39
620.371	13386.04
620.566	13400.37
620.761	13402.42
620.956	13515.06
621.151	13005.11
621.346	13177.14
621.541	13238.58
621.735	13375.8
621.93	12792.12
622.125	12970.3
622.32	12708.16
622.515	12710.21
622.709	12656.96
622.904	12681.53
623.099	12638.53
623.294	12675.39
623.488	12353.86
623.683	12405.06
623.878	12216.65
624.072	12398.91
624.267	12325.19
624.462	12251.46
624.656	11985.23
624.851	12151.11
625.046	12063.05
625.24	12036.42
625.435	11784.52
625.629	11813.2
625.824	11798.86
626.018	11667.79
626.213	11358.55
626.407	11460.95
626.602	11411.79
626.796	11342.16
626.991	11471.18
627.185	11202.9
627.38	11174.23
627.574	11125.08
627.768	11055.45
627.963	10938.71
628.157	11159.89
628.352	11071.83
628.546	10731.87
628.74	10858.84
628.935	10707.29
629.129	10783.07
629.323	10529.12
629.517	10602.85
629.712	10312.03
629.906	10604.89
630.1	10111.33
630.294	10275.17
630.489	10352.99
630.683	10273.12
630.877	10140.01
631.071	10303.84
631.265	10252.64
631.459	10004.84
631.653	9924.97
631.848	9970.02
632.042	9709.93
632.236	9945.45
632.43	9795.95
632.624	9806.19
632.818	9562.48
633.012	9515.37
633.206	9556.33
633.4	9611.63
633.594	9372.02
633.788	9425.26
633.982	9466.22
634.176	9515.37
634.369	9390.45
634.563	9128.31
634.757	9273.71
634.951	9120.12
635.145	9179.51
635.339	8976.76
635.533	9159.03
635.726	8745.34
635.92	8794.49
636.114	8882.55
636.308	8878.46
636.501	8661.37
636.695	8745.34
636.889	8677.76
637.083	8479.1
637.276	8475.01
637.47	8503.68
637.664	8423.81
637.857	8243.59
638.051	8522.11
638.244	8159.62
638.438	8178.05
638.632	8210.82
638.825	8198.53
639.019	8268.16
639.212	8219.01
639.406	7967.11
639.599	7979.4
639.793	7842.18
639.986	7735.69
640.18	7938.44
640.373	7829.9
640.567	7690.63
640.76	7819.66
640.954	7625.1
641.147	7651.72
641.34	7442.83
641.534	7563.66
641.727	7489.93
641.92	7461.26
642.114	7428.49
642.307	7436.69
642.5	7418.25
642.694	7156.11
642.887	7436.69
643.08	7393.68
643.273	7184.79
643.467	7076.24
643.66	7059.86
643.853	7106.96
644.046	7008.66
644.239	7016.85
644.432	6939.03
644.626	6902.17
644.819	6977.94
645.012	6834.58
645.205	7063.96
645.398	6889.88
645.591	6779.29
645.784	6588.83
645.977	6609.31
646.17	6666.65
646.363	6662.55
646.556	6615.45
646.749	6394.27
646.942	6381.98
647.135	6508.96
647.328	6386.08
647.521	6457.76
647.714	6265.25
647.907	6220.19
648.099	6156.71
648.292	6275.49
648.485	6140.32
648.678	6261.15
648.871	6240.67
649.064	6068.64
649.256	6097.31
649.449	5798.31
649.642	6052.26
649.835	5876.13
650.027	5931.43
650.22	5921.19
650.413	5935.53
650.605	5771.69
650.798	5788.07
650.991	5648.81
651.183	5669.29
651.376	5544.36
651.568	5677.48
651.761	5728.68
651.954	5609.9
652.146	5689.77
652.339	5585.32
652.531	5607.85
652.724	5618.09
652.916	5392.81
653.109	5425.58
653.301	5511.6
653.494	5450.16
653.686	5312.94
653.879	5454.25
654.071	5314.99
654.263	5159.35
654.456	5384.62
654.648	5378.48
654.84	5138.87
655.033	5022.13
655.225	5130.67
655.417	5077.43
655.61	5116.34
655.802	5067.19
655.994	5071.28
656.186	5052.85
656.379	5007.8
656.571	5013.94
656.763	4907.45
656.955	4915.64
657.148	4807.09
657.34	4880.82
657.532	4866.49
657.724	4932.02
657.916	4807.09
658.108	4803
658.3	4657.59
658.492	4645.31
658.684	4577.72
658.876	4553.15
659.068	4495.8
659.26	4606.39
659.452	4520.38
659.644	4553.15
659.836	4446.65
660.028	4489.66
660.22	4319.68
660.412	4434.36
660.604	4452.8
660.796	4540.86
660.988	4323.77
661.18	4225.47
661.372	4213.18
661.563	4291.01
661.755	4151.74
661.947	4325.82
662.139	4231.62
662.331	4364.73
662.522	4086.21
662.714	4112.83
662.906	4016.58
663.097	4106.69
663.289	4182.46
663.481	4094.4
663.673	3946.95
663.864	4104.64
664.056	4121.03
664.247	4092.35
664.439	3811.78
664.631	4008.39
664.822	3987.91
665.014	3875.27
665.205	3924.42
665.397	3641.8
665.588	3705.29
665.78	3811.78
665.971	3803.59
666.163	3862.98
666.354	3787.21
666.546	3658.18
666.737	3779.01
666.929	3625.42
667.12	3678.66
667.311	3727.82
667.503	3547.59
667.694	3662.28
667.885	3629.51
668.077	3660.23
668.268	3406.28
668.459	3629.51
668.651	3576.27
668.842	3627.46
669.033	3377.61
669.224	3516.87
669.416	3561.93
669.607	3561.93
669.798	3451.34
669.989	3344.84
670.18	3396.04
670.371	3426.76
670.563	3348.94
670.754	3297.74
670.945	3340.75
671.136	3215.82
671.327	3281.36
671.518	3307.98
671.709	3430.86
671.9	3330.51
672.091	3271.12
672.282	3221.97
672.473	3385.8
672.664	3271.12
672.855	3150.29
673.046	3174.86
673.237	3338.7
673.428	3201.49
673.619	3205.58
673.809	2894.29
674	3060.18
674.191	2992.59
674.382	3054.03
674.573	3064.27
674.764	2978.26
674.954	3054.03
675.145	3015.12
675.336	3023.31
675.527	2949.59
675.717	2931.16
675.908	2888.15
676.099	3039.7
676.289	2949.59
676.48	2951.63
676.671	2986.45
676.861	3035.6
677.052	2916.82
677.243	2857.43
677.433	2832.85
677.624	2879.96
677.814	2922.96
678.005	2843.09
678.195	2857.43
678.386	2931.16
678.576	2662.87
678.767	2720.21
678.957	2781.65
679.148	2818.52
679.338	2814.42
679.529	2720.21
679.719	2818.52
679.909	2789.85
680.1	2773.46
680.29	2709.97
680.481	2816.47
680.671	2757.08
680.861	2742.74
681.052	2728.41
681.242	2597.34
681.432	2759.13
681.622	2742.74
681.813	2757.08
682.003	2681.3
682.193	2660.82
682.383	2580.95
682.573	2613.72
682.764	2570.71
682.954	2752.98
683.144	2609.62
683.334	2597.34
683.524	2484.7
683.714	2648.54
683.904	2474.46
684.094	2595.29
684.284	2507.23
684.474	2562.52
684.664	2503.13
684.854	2609.62
685.044	2578.9
685.234	2496.99
685.424	2640.34
685.614	2468.31
685.804	2476.51
685.994	2519.51
686.184	2531.8
686.374	2583
686.564	2443.74
686.753	2576.86
686.943	2460.12
687.133	2488.79
687.323	2351.58
687.513	2402.78
687.702	2318.81
687.892	2472.41
688.082	2488.79
688.272	2370.01
688.461	2382.3
688.651	2406.88
688.841	2337.24
689.03	2398.68
689.22	2255.33
689.41	2335.2
689.599	2333.15
689.789	2263.52
689.979	2202.08
690.168	2267.61
690.358	2218.46
690.547	2294.24
690.737	2126.3
690.926	2271.71
691.116	2165.21
691.305	2277.85
691.495	2320.86
691.684	2173.41
691.874	2255.33
692.063	2179.55
692.252	2179.55
692.442	2249.18
692.631	2066.91
692.82	2146.78
693.01	2181.6
693.199	2310.62
693.388	2171.36
693.578	2161.12
693.767	2238.94
693.956	2265.57
694.146	2251.23
694.335	2107.87
694.524	2138.59
694.713	2238.94
694.902	2148.83
695.092	2181.6
695.281	2064.86
695.47	2130.4
695.659	2101.73
695.848	2136.54
696.037	2169.31
696.226	2060.77
696.415	2167.26
696.604	2032.1
696.793	2091.49
696.982	2091.49
697.171	2046.43
697.36	2120.16
697.549	2101.73
697.738	2159.07
697.927	2175.45
698.116	2085.34
698.305	2107.87
698.494	2028
698.683	2179.55
698.872	2142.69
699.061	2126.3
699.25	2028
699.438	2099.68
699.627	2081.25
699.816	2087.39
700.005	2101.73
700.193	2132.45
700.382	2025.95
700.571	2118.11
700.76	2058.72
700.948	2134.5
701.137	2140.64
701.326	2103.78
701.514	2046.43
701.703	2154.98
701.892	1966.56
702.08	2226.65
702.269	2038.24
702.457	2173.41
702.646	2128.35
702.834	2099.68
703.023	2046.43
703.212	2040.29
703.4	1997.28
703.589	2060.77
703.777	2032.1
703.965	2038.24
704.154	2154.98
704.342	2091.49
704.531	2132.45
704.719	2124.26
704.907	2177.5
705.096	2111.97
705.284	2134.5
705.472	2085.34
705.661	2009.57
705.849	2183.65
706.037	2103.78
706.226	2066.91
706.414	2134.5
706.602	2152.93
706.79	2058.72
706.979	2097.63
707.167	2044.38
707.355	2138.59
707.543	2050.53
707.731	2109.92
707.919	1999.33
708.107	1915.36
708.296	2025.95
708.484	2116.06
708.672	2028
708.86	2060.77
709.048	2060.77
709.236	2091.49
709.424	2122.21
709.612	2028
709.8	1993.19
709.988	2091.49
710.176	2056.67
710.364	2169.31
710.551	2183.65
710.739	1972.71
710.927	2202.08
711.115	2075.1
711.303	2021.86
711.491	2107.87
711.679	2052.58
711.866	2075.1
712.054	2101.73
712.242	2050.53
712.43	2191.84
712.617	2128.35
712.805	2095.58
712.993	2134.5
713.181	2025.95
713.368	2068.96
713.556	2144.74
713.744	2048.48
713.931	2142.69
714.119	2054.62
714.306	1970.66
714.494	2130.4
714.682	1968.61
714.869	2040.29
715.057	1964.51
715.244	2017.76
715.432	2060.77
715.619	2124.26
715.807	2075.1
715.994	2013.67
716.182	2093.54
716.369	2116.06
716.556	2046.43
716.744	2077.15
716.931	2093.54
717.119	2064.86
717.306	2159.07
717.493	2099.68
717.681	2040.29
717.868	2025.95
718.055	1980.9
718.242	2034.14
718.43	2118.11
718.617	1954.27
718.804	2025.95
718.991	2097.63
719.179	1987.04
719.366	2071.01
719.553	2089.44
719.74	1984.99
719.927	2042.34
720.114	2101.73
720.301	1984.99
720.488	1989.09
720.676	1974.75
720.863	2023.91
721.05	1923.55
721.237	2007.52
721.424	2030.05
721.611	1989.09
721.798	1958.37
721.985	2079.2
722.172	2034.14
722.358	2030.05
722.545	2003.43
722.732	2005.47
722.919	2073.06
723.106	2056.67
723.293	1976.8
723.48	1944.03
723.667	1919.46
723.853	1997.28
724.04	2085.34
724.227	1917.41
724.414	1993.19
724.6	1982.95
724.787	1948.13
724.974	1937.89
725.161	1939.94
725.347	1927.65
725.534	1980.9
725.72	2040.29
725.907	1892.84
726.094	1907.17
726.28	1915.36
726.467	1823.2
726.653	1905.12
726.84	1929.7
727.027	2013.67
727.213	1999.33
727.4	1929.7
727.586	1982.95
727.773	1978.85
727.959	1976.8
728.145	2058.72
728.332	1905.12
728.518	1763.81
728.705	1882.6
728.891	1921.51
729.077	1948.13
729.264	1849.83
729.45	1915.36
729.636	1884.64
729.823	1853.92
730.009	1958.37
730.195	1901.03
730.382	1939.94
730.568	1874.4
730.754	1890.79
730.94	1968.61
731.126	1950.18
731.313	1874.4
731.499	1806.82
731.685	1794.53
731.871	1987.04
732.057	1905.12
732.243	1950.18
732.429	1853.92
732.615	1925.6
732.801	1927.65
732.987	1894.88
733.173	1825.25
733.359	1862.12
733.545	1968.61
733.731	1896.93
733.917	1886.69
734.103	1888.74
734.289	1866.21
734.475	1786.34
734.661	1812.96
734.847	1862.12
735.033	1886.69
735.219	1888.74
735.404	1841.64
735.59	1880.55
735.776	1888.74
735.962	2021.86
736.148	1837.54
736.333	1890.79
736.519	1913.31
736.705	1776.1
736.89	1714.66
737.076	1714.66
737.262	1647.08
737.447	1831.4
737.633	1794.53
737.819	1720.81
738.004	1731.05
738.19	1710.57
738.375	1726.95
738.561	1825.25
738.747	1782.24
738.932	1681.89
739.118	1794.53
739.303	1743.33
739.489	1747.43
739.674	1599.98
739.859	1665.51
740.045	1743.33
740.23	1690.09
740.416	1692.13
740.601	1692.13
740.786	1765.86
740.972	1735.14
741.157	1659.37
741.342	1733.09
741.528	1634.79
741.713	1685.99
741.898	1782.24
742.084	1591.78
742.269	1571.3
742.454	1640.93
742.639	1661.41
742.824	1651.17
743.01	1649.13
743.195	1675.75
743.38	1534.44
743.565	1602.02
743.75	1778.15
743.935	1642.98
744.12	1673.7
744.305	1575.4
744.49	1677.8
744.675	1520.1
744.86	1567.21
745.045	1493.48
745.23	1530.34
745.415	1540.58
745.6	1616.36
745.785	1473
745.97	1542.63
746.155	1550.82
746.34	1444.33
746.525	1534.44
746.71	1470.95
746.895	1460.71
747.079	1419.75
747.264	1401.32
747.449	1491.43
747.634	1470.95
747.819	1429.99
748.003	1425.9
748.188	1354.22
748.373	1358.32
748.557	1473
748.742	1337.84
748.927	1337.84
749.111	1413.61
749.296	1255.92
749.481	1421.8
749.665	1364.46
749.85	1325.55
750.034	1432.04
750.219	1370.6
750.404	1247.72
750.588	1272.3
750.773	1305.07
750.957	1276.4
751.141	1358.32
751.326	1335.79
751.51	1161.71
751.695	1276.4
751.879	1294.83
752.064	1350.12
752.248	1337.84
752.432	1323.5
752.617	1296.88
752.801	1280.49
752.985	1227.25
753.17	1212.91
753.354	1237.49
753.538	1184.24
753.722	1141.23
753.907	1114.61
754.091	1174
754.275	1157.61
754.459	1153.52
754.643	1122.8
754.828	1233.39
755.012	1237.49
755.196	1116.65
755.38	1133.04
755.564	1069.55
755.748	1096.18
755.932	1110.51
756.116	1069.55
756.3	1063.41
756.484	1069.55
756.668	1073.65
756.852	969.2
757.036	1032.69
757.22	997.87
757.404	1047.02
757.588	1087.98
757.772	967.15
757.956	1014.26
758.14	1071.6
758.323	1065.46
758.507	905.71
758.691	1026.54
758.875	989.68
759.059	1044.98
759.242	956.91
759.426	973.3
759.61	901.62
759.794	971.25
759.977	1026.54
760.161	1085.94
760.345	1018.35
760.528	846.32
760.712	920.05
760.895	926.19
761.079	926.19
761.263	846.32
761.446	903.67
761.63	864.75
761.813	897.52
761.997	893.43
762.18	848.37
762.364	836.08
762.547	885.23
762.731	870.9
762.914	928.24
763.098	877.04
763.281	958.96
763.464	942.58
763.648	829.94
763.831	799.22
764.015	825.84
764.198	895.47
764.381	930.29
764.564	891.38
764.748	827.89
764.931	846.32
765.114	840.18
765.297	713.21
765.481	856.56
765.664	911.86
765.847	864.75
766.03	813.56
766.213	848.37
766.397	850.42
766.58	797.17
766.763	877.04
766.946	827.89
767.129	844.28
767.312	829.94
767.495	803.32
767.678	766.45
767.861	754.16
768.044	750.07
768.227	760.31
768.41	733.68
768.593	793.08
768.776	729.59
768.959	805.36
769.142	702.97
769.324	831.99
769.507	768.5
769.69	731.64
769.873	780.79
770.056	762.36
770.239	768.5
770.421	741.88
770.604	748.02
770.787	754.16
770.97	745.97
771.152	735.73
771.335	727.54
771.518	797.17
771.7	741.88
771.883	774.64
772.066	709.11
772.248	827.89
772.431	760.31
772.613	723.44
772.796	649.72
772.978	733.68
773.161	737.78
773.343	721.4
773.526	666.1
773.708	645.62
773.891	645.62
774.073	705.01
774.256	719.35
774.438	690.68
774.621	717.3
774.803	692.73
774.985	678.39
775.168	696.82
775.35	659.96
775.532	698.87
775.715	764.4
775.897	633.33
776.079	612.85
776.261	633.33
776.444	635.38
776.626	571.9
776.808	612.85
776.99	510.46
777.173	547.32
777.355	594.42
777.537	592.37
777.719	575.99
777.901	600.57
778.083	598.52
778.265	602.61
778.447	559.61
778.629	582.14
778.811	604.66
778.993	498.17
779.175	614.9
779.357	606.71
779.539	571.9
779.721	463.35
779.903	514.55
780.085	551.42
780.267	504.31
780.449	487.93
780.631	455.16
780.812	528.89
780.994	436.73
781.176	549.37
781.358	555.51
781.54	532.98
781.721	518.65
781.903	489.98
782.085	512.5
782.267	489.98
782.448	451.07
782.63	506.36
782.812	506.36
782.993	449.02
783.175	449.02
783.357	395.77
783.538	547.32
783.72	453.11
783.901	418.3
784.083	485.88
784.264	479.74
784.446	428.54
784.627	389.63
784.809	451.07
784.99	414.2
785.172	428.54
785.353	446.97
785.535	430.59
785.716	436.73
785.897	406.01
786.079	356.86
786.26	440.83
786.441	360.95
786.623	348.67
786.804	367.1
786.985	377.34
787.167	358.91
787.348	350.71
787.529	418.3
787.71	428.54
787.891	387.58
788.073	418.3
788.254	403.96
788.435	354.81
788.616	358.91
788.797	332.28
788.978	375.29
789.159	350.71
789.34	317.95
789.522	299.52
789.703	338.43
789.884	297.47
790.065	309.76
790.246	371.19
790.427	367.1
790.607	350.71
790.788	330.23
790.969	301.56
791.15	338.43
791.331	346.62
791.512	291.32
791.693	270.84
791.874	338.43
792.054	383.48
792.235	293.37
792.416	322.04
792.597	291.32
792.778	276.99
792.958	348.67
793.139	377.34
793.32	305.66
793.5	301.56
793.681	305.66
793.862	330.23
794.042	326.14
794.223	262.65
794.404	356.86
794.584	260.6
794.765	283.13
794.945	281.08
795.126	379.39
795.306	338.43
795.487	242.17
795.667	289.28
795.848	334.33
796.028	301.56
796.209	295.42
796.389	313.85
796.57	268.8
796.75	244.22
796.93	272.89
797.111	209.4
797.291	250.36
797.471	334.33
797.652	254.46
797.832	197.12
798.012	231.93
798.192	268.8
798.373	150.01
798.553	246.27
798.733	227.84
798.913	252.41
799.093	236.03
799.274	162.3
799.454	213.5
799.634	289.28
799.814	293.37
799.994	293.37
800.174	219.64
800.354	244.22
800.534	309.76
800.714	193.02
800.894	215.55
801.074	229.88
801.254	248.32
801.434	262.65
801.614	203.26
801.794	260.6
801.974	653.81
802.154	203.26
802.334	289.28
802.514	170.49
802.693	211.45
802.873	188.93
803.053	231.93
803.233	236.03
803.413	240.12
803.592	164.35
803.772	229.88
803.952	309.76
804.131	188.93
804.311	193.02
804.491	231.93
804.67	215.55
804.85	180.73
805.03	203.26
805.209	244.22
805.389	209.4
805.568	147.97
805.748	236.03
805.928	174.59
806.107	217.6
806.287	186.88
806.466	186.88
806.646	170.49
806.825	170.49
807.004	227.84
807.184	168.45
807.363	176.64
807.543	172.54
807.722	199.16
807.901	250.36
808.081	203.26
808.26	203.26
808.439	166.4
808.619	164.35
808.798	129.53
808.977	184.83
809.156	145.92
809.336	174.59
809.515	145.92
809.694	115.2
809.873	152.06
810.052	111.1
810.231	211.45
810.411	170.49
810.59	150.01
810.769	141.82
810.948	190.97
811.127	143.87
811.306	166.4
811.485	119.29
811.664	174.59
811.843	137.73
812.022	180.73
812.201	129.53
812.38	207.36
812.559	197.12
812.737	127.49
812.916	119.29
813.095	141.82
813.274	109.05
813.453	141.82
813.632	74.24
813.811	127.49
813.989	86.53
814.168	109.05
814.347	199.16
814.526	111.1
814.704	96.77
814.883	176.64
815.062	100.86
815.24	205.31
815.419	100.86
815.598	143.87
815.776	111.1
815.955	100.86
816.133	180.73
816.312	131.58
816.49	119.29
816.669	141.82
816.847	166.4
817.026	104.96
817.204	147.97
817.383	125.44
817.561	219.64
817.74	137.73
817.918	193.02
818.097	174.59
818.275	88.57
818.453	113.15
818.632	188.93
818.81	145.92
818.988	113.15
819.167	100.86
819.345	86.53
819.523	164.35
819.701	94.72
819.879	174.59
820.058	51.71
820.236	51.71
820.414	127.49
820.592	102.91
820.77	96.77
820.948	141.82
821.127	139.77
821.305	125.44
821.483	160.25
821.661	68.09
821.839	111.1
822.017	33.28
822.195	94.72
822.373	158.21
822.551	92.67
822.729	119.29
822.907	31.23
823.085	90.62
823.262	172.54
823.44	104.96
823.618	90.62
823.796	18.94
823.974	94.72
824.152	76.29
824.329	76.29
824.507	49.66
824.685	125.44
824.863	160.25
825.04	80.38
825.218	115.2
825.396	162.3
825.574	98.81
825.751	94.72
825.929	82.43
826.107	92.67
826.284	39.42
826.462	115.2
826.639	203.26
826.817	88.57
826.994	51.71
827.172	84.48
827.349	119.29
827.527	178.69
827.704	12.8
827.882	119.29
828.059	45.57
828.237	102.91
828.414	113.15
828.591	57.86
828.769	104.96
828.946	82.43
829.124	23.04
829.301	158.21
829.478	92.67
829.655	70.14
829.833	111.1
830.01	31.23
830.187	141.82
830.364	129.53
830.542	92.67
830.719	145.92
830.896	109.05
831.073	109.05
831.25	61.95
831.427	76.29
831.604	102.91
831.782	80.38
831.959	66.05
832.136	25.09
832.313	96.77
832.49	133.63
832.667	152.06
832.844	84.48
833.021	145.92
833.198	119.29
833.374	88.57
833.551	35.33
833.728	84.48
833.905	102.91
834.082	68.09
834.259	193.02
834.436	94.72
834.612	35.33
834.789	207.36
834.966	47.62
835.143	113.15
835.319	68.09
835.496	68.09
835.673	45.57
835.85	117.25
836.026	55.81
836.203	109.05
836.38	12.8
836.556	51.71
836.733	27.14
836.909	72.19
837.086	55.81
837.262	94.72
837.439	16.9
837.616	68.09
837.792	-13.82
837.968	98.81
838.145	35.33
838.321	53.76
838.498	43.52
838.674	147.97
838.851	49.66
839.027	100.86
839.203	29.18
839.38	100.86
839.556	33.28
839.732	92.67
839.909	35.33
840.085	123.39
840.261	70.14
840.437	55.81
840.614	121.34
840.79	115.2
840.966	39.42
841.142	33.28
841.318	43.52
841.494	84.48
841.671	37.38
841.847	100.86
842.023	111.1
842.199	66.05
842.375	84.48
842.551	10.75
842.727	27.14
842.903	131.58
843.079	61.95
843.255	55.81
843.431	55.81
843.607	53.76
843.783	25.09
843.959	27.14
844.134	72.19
844.31	72.19
844.486	10.75
844.662	27.14
844.838	92.67
845.013	35.33
845.189	2.56
845.365	74.24
845.541	35.33
845.716	43.52
845.892	90.62
846.068	29.18
846.244	-1.54
846.419	61.95
846.595	68.09
846.77	-3.58
846.946	-38.4
847.122	33.28
847.297	82.43
847.473	51.71
847.648	45.57
847.824	76.29
847.999	-13.82
848.175	74.24
848.35	61.95
848.526	76.29
848.701	39.42
848.876	37.38
849.052	78.33
849.227	41.47
849.403	10.75
849.578	10.75
849.753	98.81
849.929	35.33
850.104	14.85
850.279	45.57
850.454	68.09
850.63	43.52
850.805	104.96
850.98	37.38
851.155	45.57
851.33	70.14
851.505	29.18
851.681	27.14
851.856	39.42
852.031	47.62
852.206	55.81
852.381	29.18
852.556	6.66
852.731	4.61
852.906	78.33
853.081	6.66
853.256	78.33
853.431	-7.68
853.606	80.38
853.781	33.28
853.956	14.85
854.131	82.43
854.305	4.61
854.48	12.8
854.655	90.62
854.83	88.57
855.005	74.24
855.18	90.62
855.354	-7.68
855.529	8.7
855.704	33.28
855.879	92.67
856.053	61.95
856.228	109.05
856.403	57.86
856.577	-5.63
856.752	12.8
856.926	84.48
857.101	20.99
857.276	-11.78
857.45	53.76
857.625	43.52
857.799	37.38
857.974	70.14
858.148	37.38
858.323	31.23
858.497	-19.97
858.672	80.38
858.846	55.81
859.02	123.39
859.195	-36.35
859.369	70.14
859.543	74.24
859.718	-9.73
859.892	14.85
860.066	80.38
860.241	92.67
860.415	-3.58
860.589	78.33
860.763	31.23
860.938	29.18
861.112	47.62
861.286	-30.21
861.46	16.9
861.634	16.9
861.808	88.57
861.982	33.28
862.157	66.05
862.331	-26.11
862.505	27.14
862.679	20.99
862.853	35.33
863.027	59.9
863.201	47.62
863.375	20.99
863.549	117.25
863.722	39.42
863.896	55.81
864.07	45.57
864.244	18.94
864.418	31.23
864.592	35.33
864.766	-7.68
864.939	-22.02
865.113	43.52
865.287	109.05
865.461	0.51
865.634	121.34
865.808	29.18
865.982	70.14
866.156	-3.58
866.329	39.42
866.503	39.42
866.676	57.86
866.85	35.33
867.024	78.33
867.197	39.42
867.371	78.33
867.544	47.62
867.718	12.8
867.891	47.62
868.065	35.33
868.238	43.52
868.412	111.1
868.585	37.38
868.759	86.53
868.932	-42.5
869.105	-13.82
869.279	45.57
869.452	2.56
869.625	27.14
869.799	-3.58
869.972	14.85
870.145	57.86
870.319	70.14
870.492	35.33
870.665	18.94
870.838	104.96
871.011	84.48
871.185	-22.02
871.358	78.33
871.531	4.61
871.704	27.14
871.877	23.04
872.05	76.29
872.223	6.66
872.396	49.66
872.569	49.66
872.742	-46.59
872.915	-42.5
873.088	6.66
873.261	51.71
873.434	41.47
873.607	10.75
873.78	10.75
873.953	25.09
874.126	16.9
874.299	31.23
874.471	16.9
874.644	68.09
874.817	10.75
874.99	80.38
875.163	37.38
875.335	27.14
875.508	-5.63
875.681	18.94
875.853	70.14
876.026	12.8
876.199	23.04
876.371	57.86
876.544	31.23
876.717	16.9
876.889	39.42
877.062	43.52
877.234	-28.16
877.407	4.61
877.579	4.61
877.752	-24.06
877.924	-1.54
878.097	35.33
878.269	-17.92
878.442	78.33
878.614	53.76
878.786	47.62
878.959	-13.82
879.131	23.04
879.303	-69.12
879.476	64
879.648	41.47
879.82	51.71
879.993	6.66
880.165	41.47
880.337	-32.26
880.509	47.62
880.681	12.8
880.854	16.9
881.026	29.18
881.198	129.53
881.37	-5.63
881.542	6.66
881.714	47.62
881.886	18.94
882.058	45.57
882.23	20.99
882.402	-28.16
882.574	33.28
882.746	45.57
882.918	-22.02
883.09	25.09
883.262	-28.16
883.434	-26.11
883.606	18.94
883.778	35.33
883.95	43.52
884.122	57.86
884.293	-22.02
884.465	20.99
884.637	49.66
884.809	16.9
884.98	20.99
885.152	8.7
885.324	78.33
885.496	-13.82
885.667	27.14
885.839	39.42
886.011	29.18
886.182	31.23
886.354	61.95
886.525	45.57
886.697	-17.92
886.869	-71.17
887.04	-24.06
887.212	51.71
887.383	82.43
887.555	-48.64
887.726	-26.11
887.897	-5.63
888.069	45.57
888.24	-5.63
888.412	57.86
888.583	68.09
888.754	86.53
888.926	0.51
889.097	41.47
889.268	-3.58
889.44	-40.45
889.611	-9.73
889.782	0.51
889.953	74.24
890.125	66.05
890.296	6.66
890.467	84.48
890.638	66.05
890.809	-60.93
890.98	-5.63
891.151	-5.63
891.323	80.38
891.494	-9.73
891.665	14.85
891.836	76.29
892.007	-5.63
892.178	14.85
892.349	41.47
892.52	-46.59
892.691	0.51
892.862	35.33
893.032	25.09
893.203	-7.68
893.374	-1.54
893.545	37.38
893.716	14.85
893.887	-7.68
894.057	39.42
894.228	8.7
894.399	55.81
894.57	94.72
894.74	39.42
894.911	64
895.082	-42.5
895.253	47.62
895.423	25.09
895.594	4.61
895.764	4.61
895.935	2.56
896.106	70.14
896.276	98.81
896.447	10.75
896.617	74.24
896.788	29.18
896.958	23.04
897.129	-38.4
897.299	29.18
897.47	35.33
897.64	41.47
897.81	27.14
897.981	59.9
898.151	-26.11
898.322	72.19
898.492	-52.74
898.662	35.33
898.832	20.99
899.003	51.71
899.173	23.04
899.343	-46.59
899.513	27.14
