Data from USB4F104151__0__11-04-23-773.txt Node

Date: Wed Mar 12 11:04:23 EDT 2025
User: louis
Spectrometer: USB4F10415
Trigger mode: 4
Integration Time (sec): 2.000000E-2
Scans to average: 1
Electric dark correction enabled: true
Nonlinearity correction enabled: false
Boxcar width: 0
XAxis mode: Wavelengths
Number of Pixels in Spectrum: 3648
>>>>>Begin Spectral Data<<<<<
178.204	-63.83
178.424	-63.83
178.644	-63.83
178.864	-72.02
179.084	-22.87
179.304	-33.11
179.524	67.24
179.744	34.47
179.964	20.14
180.184	1.71
180.404	-14.68
180.624	-18.77
180.844	-22.87
181.064	-26.96
181.283	1.71
181.503	38.57
181.723	-47.44
181.943	-2.39
182.163	5.8
182.383	-12.63
182.602	-12.63
182.822	-24.92
183.042	-26.96
183.262	-35.16
183.482	1.71
183.701	110.25
183.921	-20.82
184.141	-16.73
184.361	26.28
184.58	-0.34
184.8	-22.87
185.02	-26.96
185.239	83.63
185.459	26.28
185.679	54.95
185.898	-8.53
186.118	116.39
186.338	-61.78
186.557	52.91
186.777	1.71
186.997	63.15
187.216	1.71
187.436	11.95
187.655	-16.73
187.875	114.34
188.095	3.75
188.314	32.43
188.534	61.1
188.753	-20.82
188.973	18.09
189.192	67.24
189.412	83.63
189.631	57
189.851	-39.25
190.07	-29.01
190.29	24.23
190.509	16.04
190.729	18.09
190.948	48.81
191.168	77.48
191.387	40.62
191.607	67.24
191.826	-20.82
192.045	-104.79
192.265	16.04
192.484	79.53
192.704	42.67
192.923	18.09
193.142	22.19
193.362	-2.39
193.581	-14.68
193.8	16.04
194.02	18.09
194.239	-47.44
194.458	46.76
194.678	-2.39
194.897	69.29
195.116	26.28
195.335	16.04
195.555	34.47
195.774	-53.59
195.993	28.33
196.212	7.85
196.432	-39.25
196.651	13.99
196.87	36.52
197.089	38.57
197.308	7.85
197.528	71.34
197.747	-8.53
197.966	61.1
198.185	71.34
198.404	1.71
198.623	5.8
198.842	-18.77
199.062	34.47
199.281	73.39
199.5	11.95
199.719	32.43
199.938	11.95
200.157	30.38
200.376	-8.53
200.595	40.62
200.814	63.15
201.033	38.57
201.252	1.71
201.471	-14.68
201.69	38.57
201.909	-16.73
202.128	3.75
202.347	30.38
202.566	59.05
202.785	-4.44
203.004	-57.68
203.223	57
203.442	-16.73
203.661	28.33
203.879	57
204.098	50.86
204.317	34.47
204.536	87.72
204.755	1.71
204.974	93.87
205.193	73.39
205.411	-26.96
205.63	5.8
205.849	5.8
206.068	32.43
206.287	46.76
206.505	24.23
206.724	54.95
206.943	65.19
207.162	34.47
207.381	36.52
207.599	40.62
207.818	9.9
208.037	59.05
208.255	34.47
208.474	24.23
208.693	65.19
208.911	3.75
209.13	18.09
209.349	61.1
209.567	22.19
209.786	73.39
210.005	34.47
210.223	26.28
210.442	-35.16
210.661	5.8
210.879	30.38
211.098	-2.39
211.316	32.43
211.535	71.34
211.753	30.38
211.972	5.8
212.191	-82.26
212.409	42.67
212.628	38.57
212.846	-61.78
213.065	89.77
213.283	22.19
213.502	11.95
213.72	-14.68
213.938	32.43
214.157	-35.16
214.375	83.63
214.594	5.8
214.812	20.14
215.031	-37.2
215.249	-0.34
215.467	7.85
215.686	89.77
215.904	-47.44
216.122	48.81
216.341	75.43
216.559	54.95
216.778	40.62
216.996	11.95
217.214	-0.34
217.432	22.19
217.651	-67.92
217.869	13.99
218.087	9.9
218.306	38.57
218.524	18.09
218.742	-47.44
218.96	91.82
219.179	3.75
219.397	63.15
219.615	57
219.833	40.62
220.051	59.05
220.27	73.39
220.488	-4.44
220.706	26.28
220.924	-47.44
221.142	50.86
221.36	26.28
221.578	-6.49
221.796	48.81
222.015	-14.68
222.233	20.14
222.451	20.14
222.669	-26.96
222.887	-31.06
223.105	-0.34
223.323	36.52
223.541	22.19
223.759	61.1
223.977	-0.34
224.195	42.67
224.413	100.01
224.631	16.04
224.849	-24.92
225.067	50.86
225.285	-24.92
225.503	-24.92
225.721	-16.73
225.939	-20.82
226.157	52.91
226.375	36.52
226.592	-43.35
226.81	-37.2
227.028	-49.49
227.246	100.01
227.464	26.28
227.682	28.33
227.9	-12.63
228.117	26.28
228.335	30.38
228.553	13.99
228.771	-24.92
228.989	-10.58
229.206	38.57
229.424	-31.06
229.642	-76.12
229.86	-18.77
230.077	-49.49
230.295	24.23
230.513	81.58
230.731	63.15
230.948	32.43
231.166	9.9
231.384	22.19
231.601	-2.39
231.819	61.1
232.037	89.77
232.254	-33.11
232.472	24.23
232.689	28.33
232.907	38.57
233.125	-22.87
233.342	20.14
233.56	-14.68
233.777	32.43
233.995	-6.49
234.213	13.99
234.43	-45.4
234.648	-80.21
234.865	-65.88
235.083	-2.39
235.3	-0.34
235.518	57
235.735	1.71
235.953	50.86
236.17	18.09
236.388	-31.06
236.605	22.19
236.822	-22.87
237.04	-2.39
237.257	30.38
237.475	-16.73
237.692	24.23
237.909	-22.87
238.127	108.2
238.344	81.58
238.562	-31.06
238.779	44.71
238.996	-2.39
239.214	-6.49
239.431	34.47
239.648	-39.25
239.865	-10.58
240.083	91.82
240.3	22.19
240.517	3.75
240.735	9.9
240.952	30.38
241.169	71.34
241.386	34.47
241.603	77.48
241.821	-43.35
242.038	-2.39
242.255	24.23
242.472	18.09
242.689	-26.96
242.907	83.63
243.124	3.75
243.341	52.91
243.558	-4.44
243.775	-35.16
243.992	-10.58
244.209	112.3
244.426	7.85
244.643	-6.49
244.86	-10.58
245.078	18.09
245.295	63.15
245.512	75.43
245.729	-14.68
245.946	-26.96
246.163	-29.01
246.38	30.38
246.597	-18.77
246.814	61.1
247.031	26.28
247.248	-8.53
247.464	1.71
247.681	-16.73
247.898	91.82
248.115	1.71
248.332	-69.97
248.549	79.53
248.766	40.62
248.983	89.77
249.2	5.8
249.417	63.15
249.633	-2.39
249.85	42.67
250.067	61.1
250.284	42.67
250.501	52.91
250.717	9.9
250.934	1.71
251.151	38.57
251.368	30.38
251.585	-14.68
251.801	42.67
252.018	-24.92
252.235	3.75
252.451	-10.58
252.668	-39.25
252.885	52.91
253.102	16.04
253.318	79.53
253.535	28.33
253.752	24.23
253.968	7.85
254.185	-14.68
254.401	-59.73
254.618	24.23
254.835	11.95
255.051	-12.63
255.268	116.39
255.484	-22.87
255.701	-2.39
255.917	100.01
256.134	-35.16
256.351	-31.06
256.567	-14.68
256.784	34.47
257	34.47
257.217	65.19
257.433	34.47
257.65	-14.68
257.866	-0.34
258.082	-0.34
258.299	-12.63
258.515	20.14
258.732	-67.92
258.948	81.58
259.165	42.67
259.381	95.91
259.597	36.52
259.814	-16.73
260.03	-24.92
260.246	34.47
260.463	13.99
260.679	61.1
260.895	79.53
261.112	38.57
261.328	54.95
261.544	-10.58
261.761	83.63
261.977	-18.77
262.193	-74.07
262.409	-0.34
262.626	73.39
262.842	57
263.058	-98.64
263.274	65.19
263.49	52.91
263.707	59.05
263.923	-4.44
264.139	18.09
264.355	7.85
264.571	75.43
264.787	-6.49
265.004	-35.16
265.22	38.57
265.436	52.91
265.652	34.47
265.868	-10.58
266.084	-10.58
266.3	85.67
266.516	-22.87
266.732	32.43
266.948	-6.49
267.164	18.09
267.38	42.67
267.596	22.19
267.812	116.39
268.028	48.81
268.244	67.24
268.46	28.33
268.676	48.81
268.892	36.52
269.108	57
269.324	50.86
269.54	-0.34
269.756	26.28
269.972	-35.16
270.188	18.09
270.403	-59.73
270.619	9.9
270.835	16.04
271.051	93.87
271.267	9.9
271.483	-18.77
271.698	-84.31
271.914	-16.73
272.13	-4.44
272.346	20.14
272.562	16.04
272.777	79.53
272.993	5.8
273.209	-0.34
273.425	16.04
273.64	-59.73
273.856	48.81
274.072	36.52
274.287	16.04
274.503	40.62
274.719	11.95
274.934	-31.06
275.15	-43.35
275.366	-16.73
275.581	11.95
275.797	73.39
276.012	30.38
276.228	-22.87
276.444	-31.06
276.659	52.91
276.875	-8.53
277.09	48.81
277.306	30.38
277.521	116.39
277.737	-6.49
277.952	93.87
278.168	63.15
278.383	-10.58
278.599	-0.34
278.814	18.09
279.03	9.9
279.245	91.82
279.461	34.47
279.676	32.43
279.892	5.8
280.107	83.63
280.322	54.95
280.538	40.62
280.753	22.19
280.969	-37.2
281.184	9.9
281.399	42.67
281.615	42.67
281.83	9.9
282.045	34.47
282.26	-0.34
282.476	38.57
282.691	-4.44
282.906	-26.96
283.122	67.24
283.337	5.8
283.552	73.39
283.767	7.85
283.983	-0.34
284.198	1.71
284.413	20.14
284.628	24.23
284.843	26.28
285.058	46.76
285.274	-51.54
285.489	-39.25
285.704	26.28
285.919	5.8
286.134	67.24
286.349	46.76
286.564	-26.96
286.779	89.77
286.995	-12.63
287.21	-41.3
287.425	100.01
287.64	1.71
287.855	38.57
288.07	-45.4
288.285	65.19
288.5	34.47
288.715	87.72
288.93	-47.44
289.145	26.28
289.36	59.05
289.575	-29.01
289.79	89.77
290.004	28.33
290.219	30.38
290.434	-4.44
290.649	-51.54
290.864	48.81
291.079	69.29
291.294	44.71
291.509	28.33
291.724	3.75
291.938	-22.87
292.153	-16.73
292.368	22.19
292.583	50.86
292.798	40.62
293.012	71.34
293.227	-8.53
293.442	-51.54
293.657	20.14
293.871	59.05
294.086	-18.77
294.301	-8.53
294.516	50.86
294.73	122.54
294.945	34.47
295.16	5.8
295.374	34.47
295.589	20.14
295.804	-53.59
296.018	46.76
296.233	18.09
296.447	22.19
296.662	16.04
296.877	9.9
297.091	9.9
297.306	26.28
297.52	-22.87
297.735	87.72
297.949	-31.06
298.164	42.67
298.378	-2.39
298.593	7.85
298.807	-55.64
299.022	28.33
299.236	7.85
299.451	18.09
299.665	-24.92
299.88	26.28
300.094	67.24
300.309	22.19
300.523	38.57
300.737	30.38
300.952	48.81
301.166	50.86
301.381	91.82
301.595	3.75
301.809	1.71
302.024	63.15
302.238	13.99
302.452	46.76
302.667	1.71
302.881	-24.92
303.095	3.75
303.309	38.57
303.524	36.52
303.738	5.8
303.952	-33.11
304.166	5.8
304.381	-33.11
304.595	34.47
304.809	1.71
305.023	22.19
305.237	-45.4
305.452	57
305.666	59.05
305.88	75.43
306.094	13.99
306.308	-41.3
306.522	-10.58
306.736	1.71
306.95	54.95
307.164	7.85
307.379	18.09
307.593	71.34
307.807	87.72
308.021	100.01
308.235	-18.77
308.449	-18.77
308.663	52.91
308.877	89.77
309.091	89.77
309.305	108.2
309.519	-29.01
309.733	48.81
309.947	-65.88
310.161	30.38
310.374	59.05
310.588	5.8
310.802	79.53
311.016	13.99
311.23	61.1
311.444	24.23
311.658	65.19
311.872	-2.39
312.085	36.52
312.299	95.91
312.513	46.76
312.727	-6.49
312.941	38.57
313.154	-51.54
313.368	5.8
313.582	93.87
313.796	-2.39
314.009	1.71
314.223	89.77
314.437	16.04
314.651	3.75
314.864	77.48
315.078	65.19
315.292	42.67
315.505	85.67
315.719	22.19
315.933	22.19
316.146	-26.96
316.36	18.09
316.573	75.43
316.787	75.43
317.001	-8.53
317.214	-22.87
317.428	13.99
317.641	-12.63
317.855	42.67
318.068	95.91
318.282	-8.53
318.495	110.25
318.709	24.23
318.922	9.9
319.136	16.04
319.349	75.43
319.563	24.23
319.776	46.76
319.99	-31.06
320.203	54.95
320.417	-18.77
320.63	30.38
320.843	18.09
321.057	36.52
321.27	44.71
321.483	24.23
321.697	136.87
321.91	-14.68
322.124	32.43
322.337	30.38
322.55	-78.16
322.763	91.82
322.977	34.47
323.19	34.47
323.403	20.14
323.617	134.82
323.83	-10.58
324.043	16.04
324.256	1.71
324.469	-24.92
324.683	69.29
324.896	13.99
325.109	77.48
325.322	13.99
325.535	75.43
325.748	40.62
325.962	-16.73
326.175	69.29
326.388	69.29
326.601	16.04
326.814	24.23
327.027	28.33
327.24	36.52
327.453	24.23
327.666	65.19
327.879	147.11
328.092	28.33
328.305	54.95
328.518	-6.49
328.731	9.9
328.944	-24.92
329.157	3.75
329.37	79.53
329.583	-10.58
329.796	50.86
330.009	42.67
330.222	18.09
330.435	13.99
330.648	11.95
330.861	69.29
331.073	18.09
331.286	42.67
331.499	34.47
331.712	71.34
331.925	-31.06
332.138	-31.06
332.35	126.63
332.563	30.38
332.776	28.33
332.989	-72.02
333.202	13.99
333.414	5.8
333.627	7.85
333.84	26.28
334.053	-14.68
334.265	13.99
334.478	54.95
334.691	34.47
334.903	-10.58
335.116	-8.53
335.329	-4.44
335.541	-41.3
335.754	-4.44
335.966	52.91
336.179	85.67
336.392	106.15
336.604	69.29
336.817	18.09
337.029	16.04
337.242	93.87
337.454	28.33
337.667	7.85
337.88	75.43
338.092	-47.44
338.305	59.05
338.517	30.38
338.729	91.82
338.942	-59.73
339.154	61.1
339.367	-18.77
339.579	112.3
339.792	-8.53
340.004	63.15
340.217	-20.82
340.429	16.04
340.641	59.05
340.854	-10.58
341.066	36.52
341.278	42.67
341.491	83.63
341.703	-78.16
341.915	16.04
342.128	69.29
342.34	-51.54
342.552	-67.92
342.764	9.9
342.977	38.57
343.189	59.05
343.401	67.24
343.613	-12.63
343.826	77.48
344.038	13.99
344.25	71.34
344.462	11.95
344.674	13.99
344.886	1.71
345.099	100.01
345.311	16.04
345.523	36.52
345.735	-24.92
345.947	-4.44
346.159	-0.34
346.371	26.28
346.583	-0.34
346.795	75.43
347.007	-18.77
347.219	50.86
347.431	50.86
347.643	54.95
347.855	57
348.067	30.38
348.279	-2.39
348.491	61.1
348.703	-41.3
348.915	18.09
349.127	-4.44
349.339	32.43
349.551	11.95
349.763	22.19
349.975	57
350.187	61.1
350.399	63.15
350.61	79.53
350.822	95.91
351.034	24.23
351.246	69.29
351.458	67.24
351.669	50.86
351.881	108.2
352.093	42.67
352.305	16.04
352.517	-6.49
352.728	65.19
352.94	28.33
353.152	11.95
353.363	73.39
353.575	36.52
353.787	59.05
353.999	11.95
354.21	61.1
354.422	-29.01
354.633	-14.68
354.845	44.71
355.057	106.15
355.268	-0.34
355.48	42.67
355.692	46.76
355.903	3.75
356.115	5.8
356.326	11.95
356.538	97.96
356.749	7.85
356.961	108.2
357.172	65.19
357.384	9.9
357.595	87.72
357.807	59.05
358.018	71.34
358.23	28.33
358.441	104.11
358.653	75.43
358.864	11.95
359.075	22.19
359.287	67.24
359.498	5.8
359.709	73.39
359.921	16.04
360.132	11.95
360.344	52.91
360.555	-18.77
360.766	85.67
360.977	-4.44
361.189	61.1
361.4	26.28
361.611	11.95
361.823	112.3
362.034	32.43
362.245	-18.77
362.456	95.91
362.667	67.24
362.879	67.24
363.09	50.86
363.301	44.71
363.512	85.67
363.723	75.43
363.935	1.71
364.146	54.95
364.357	38.57
364.568	-6.49
364.779	9.9
364.99	-20.82
365.201	22.19
365.412	65.19
365.623	34.47
365.834	59.05
366.045	54.95
366.256	32.43
366.467	40.62
366.678	-2.39
366.889	77.48
367.1	87.72
367.311	7.85
367.522	-18.77
367.733	-22.87
367.944	16.04
368.155	122.54
368.366	87.72
368.577	46.76
368.788	104.11
368.999	26.28
369.209	-4.44
369.42	50.86
369.631	67.24
369.842	40.62
370.053	71.34
370.264	13.99
370.474	81.58
370.685	46.76
370.896	-2.39
371.107	61.1
371.317	-0.34
371.528	57
371.739	38.57
371.95	46.76
372.16	36.52
372.371	-37.2
372.582	65.19
372.792	38.57
373.003	40.62
373.214	1.71
373.424	-59.73
373.635	-14.68
373.846	16.04
374.056	63.15
374.267	50.86
374.477	5.8
374.688	-10.58
374.898	24.23
375.109	57
375.319	-2.39
375.53	57
375.74	-0.34
375.951	13.99
376.161	32.43
376.372	173.74
376.582	38.57
376.793	57
377.003	46.76
377.214	22.19
377.424	69.29
377.635	38.57
377.845	1.71
378.055	38.57
378.266	1.71
378.476	28.33
378.686	122.54
378.897	108.2
379.107	26.28
379.317	57
379.528	54.95
379.738	100.01
379.948	-63.83
380.158	79.53
380.369	54.95
380.579	38.57
380.789	95.91
380.999	52.91
381.21	59.05
381.42	36.52
381.63	-22.87
381.84	71.34
382.05	46.76
382.261	57
382.471	44.71
382.681	-22.87
382.891	9.9
383.101	52.91
383.311	40.62
383.521	52.91
383.731	52.91
383.941	50.86
384.151	-0.34
384.361	26.28
384.571	1.71
384.781	65.19
384.991	108.2
385.201	102.06
385.411	104.11
385.621	-26.96
385.831	26.28
386.041	30.38
386.251	81.58
386.461	91.82
386.671	-67.92
386.881	67.24
387.091	63.15
387.301	87.72
387.511	32.43
387.72	65.19
387.93	5.8
388.14	-14.68
388.35	48.81
388.56	61.1
388.769	116.39
388.979	48.81
389.189	89.77
389.399	32.43
389.609	87.72
389.818	112.3
390.028	46.76
390.238	28.33
390.447	50.86
390.657	106.15
390.867	3.75
391.076	46.76
391.286	-59.73
391.496	61.1
391.705	71.34
391.915	151.21
392.125	16.04
392.334	42.67
392.544	30.38
392.753	63.15
392.963	91.82
393.172	81.58
393.382	38.57
393.591	81.58
393.801	13.99
394.01	81.58
394.22	83.63
394.429	44.71
394.639	5.8
394.848	-0.34
395.058	34.47
395.267	65.19
395.477	57
395.686	-55.64
395.895	89.77
396.105	136.87
396.314	114.34
396.524	52.91
396.733	71.34
396.942	40.62
397.152	-0.34
397.361	79.53
397.57	95.91
397.78	65.19
397.989	16.04
398.198	100.01
398.407	61.1
398.617	48.81
398.826	95.91
399.035	122.54
399.244	79.53
399.453	102.06
399.663	-2.39
399.872	59.05
400.081	102.06
400.29	89.77
400.499	77.48
400.708	18.09
400.917	34.47
401.127	130.73
401.336	40.62
401.545	118.44
401.754	112.3
401.963	120.49
402.172	69.29
402.381	-22.87
402.59	106.15
402.799	20.14
403.008	143.02
403.217	102.06
403.426	79.53
403.635	138.92
403.844	95.91
404.053	89.77
404.262	69.29
404.471	118.44
404.68	151.21
404.888	151.21
405.097	87.72
405.306	110.25
405.515	63.15
405.724	95.91
405.933	104.11
406.142	171.69
406.35	157.35
406.559	138.92
406.768	100.01
406.977	161.45
407.185	112.3
407.394	149.16
407.603	110.25
407.812	116.39
408.02	114.34
408.229	202.41
408.438	165.54
408.646	124.58
408.855	210.6
409.064	247.46
409.272	173.74
409.481	194.22
409.69	212.65
409.898	124.58
410.107	175.78
410.315	308.9
410.524	204.46
410.733	294.57
410.941	233.13
411.15	280.23
411.358	259.75
411.567	296.61
411.775	280.23
411.984	308.9
412.192	347.81
412.401	378.53
412.609	325.29
412.818	401.06
413.026	427.68
413.234	394.92
413.443	376.48
413.651	396.96
413.86	427.68
414.068	517.79
414.276	538.27
414.485	474.79
414.693	458.4
414.901	521.89
415.11	552.61
415.318	462.5
415.526	575.14
415.734	568.99
415.943	632.48
416.151	685.73
416.359	665.25
416.567	714.4
416.776	755.36
416.984	669.34
417.192	685.73
417.4	816.8
417.608	671.39
417.817	786.08
418.025	878.24
418.233	898.72
418.441	835.23
418.649	939.68
418.857	1023.64
419.065	1019.55
419.273	892.57
419.481	968.35
419.689	1040.03
419.897	1119.9
420.105	1171.1
420.313	1173.14
420.521	1222.3
420.729	1345.17
420.937	1291.93
421.145	1425.04
421.353	1441.43
421.561	1588.88
421.769	1558.16
421.977	1568.4
422.185	1605.27
422.393	1652.37
422.601	1799.82
422.809	1791.63
423.017	1719.95
423.224	1836.69
423.432	1939.09
423.64	1910.41
423.848	2125.45
424.056	2123.4
424.263	2229.9
424.471	2219.66
424.679	2246.28
424.887	2338.44
425.094	2494.08
425.302	2422.41
425.51	2635.39
425.718	2641.54
425.925	2705.03
426.133	2834.05
426.341	3028.6
426.548	3044.99
426.756	2995.84
426.964	3049.08
427.171	3350.14
427.379	3339.9
427.586	3405.43
427.794	3589.75
428.001	3669.62
428.209	3823.22
428.417	3765.87
428.624	4191.85
428.832	4019.82
429.039	4048.49
429.247	3993.2
429.454	4427.37
429.662	4746.85
429.869	4390.5
430.076	4554.34
430.284	4636.26
430.491	4984.41
430.699	5154.4
430.906	5144.16
431.114	5260.89
431.321	5504.6
431.528	5318.23
431.736	5901.9
431.943	6047.31
432.15	5887.57
432.358	5854.8
432.565	6340.17
432.772	6315.59
432.979	6708.8
433.187	6688.32
433.394	6788.68
433.601	7460.41
433.808	7388.73
434.016	7231.04
434.223	7591.48
434.43	8064.56
434.637	7937.59
434.844	8222.25
435.052	8449.58
435.259	8500.78
435.466	8619.56
435.673	8435.24
435.88	8801.83
436.087	9498.14
436.294	9416.22
436.501	9297.44
436.708	9199.13
436.915	9627.16
437.122	10155.54
437.329	10145.3
437.537	10448.4
437.743	10681.86
437.95	10710.54
438.157	11204.1
438.364	11527.67
438.571	11296.25
438.778	11537.91
438.985	12545.52
439.192	12348.91
439.399	12586.47
439.606	12295.66
439.813	13047.27
440.02	13596.12
440.227	13680.09
440.433	13391.33
440.64	13839.83
440.847	13870.55
441.054	14110.16
441.261	15044.04
441.467	15166.92
441.674	15025.61
441.881	15390.14
442.088	15697.34
442.294	15652.28
442.501	15818.17
442.708	16489.9
442.914	16840.11
443.121	17741.21
443.328	16950.7
443.534	18429.33
443.741	17724.83
443.948	17679.77
444.154	19170.69
444.361	19037.58
444.568	19000.71
444.774	18890.12
444.981	19180.93
445.187	19664.25
445.394	20456.82
445.6	20233.59
445.807	22269.27
446.013	21618.02
446.22	21695.84
446.426	22703.44
446.633	23080.27
446.839	23620.93
447.046	22828.37
447.252	23764.29
447.459	24046.91
447.665	23831.87
447.871	25001.26
448.078	25705.76
448.284	24622.39
448.491	25441.57
448.697	26477.85
448.903	26483.99
449.11	26653.97
449.316	26039.58
449.522	26395.93
449.728	27208.97
449.935	27569.41
450.141	27352.33
450.347	27997.44
450.553	27196.68
450.76	27739.4
450.966	28460.28
451.172	28009.73
451.378	28525.82
451.584	28042.49
451.791	28775.67
451.997	28554.49
452.203	29082.86
452.409	29336.81
452.615	28964.08
452.821	27802.88
453.027	27407.62
453.233	28730.61
453.44	27577.61
453.646	28103.93
453.852	27991.3
454.058	28652.79
454.264	27516.17
454.47	27856.13
454.676	27206.92
454.882	28132.61
455.088	25730.34
455.294	26086.68
455.5	26467.61
455.705	26684.69
455.911	25584.93
456.117	24948.01
456.323	24593.72
456.529	22986.06
456.735	24008
456.941	23407.94
457.147	23450.95
457.352	22369.62
457.558	22179.16
457.764	22297.94
457.97	21714.27
458.176	21132.65
458.381	21034.35
458.587	20270.45
458.793	20069.75
458.999	19078.54
459.204	20563.31
459.41	19936.63
459.616	18529.68
459.821	18660.75
460.027	18619.79
460.233	18013.59
460.438	17024.42
460.644	17329.57
460.85	16414.13
461.055	16115.12
461.261	16145.84
461.466	15029.7
461.672	14740.94
461.878	15891.9
462.083	14558.67
462.289	14312.91
462.494	14253.52
462.7	13686.23
462.905	13209.06
463.111	13753.82
463.316	13825.5
463.522	13561.31
463.727	13526.49
463.932	13260.26
464.138	13411.81
464.343	13499.87
464.549	12817.9
464.754	13573.6
464.959	13166.05
465.165	13178.34
465.37	12647.91
465.575	12338.67
465.781	12871.14
465.986	13000.16
466.191	12518.89
466.397	12045.81
466.602	11640.31
466.807	12080.63
467.012	12162.55
467.218	12144.11
467.423	11816.44
467.628	11916.79
467.833	12371.44
468.038	11802.1
468.244	11714.04
468.449	12133.87
468.654	11810.29
468.859	11628.03
469.064	11527.67
469.269	11013.63
469.474	11292.16
469.679	11482.62
469.885	10944
470.09	11195.9
470.295	11005.44
470.5	10685.96
470.705	10841.61
470.91	10774.02
471.115	10581.51
471.32	10667.53
471.525	10397.2
471.73	10266.13
471.935	10245.65
472.139	9983.51
472.344	10044.95
472.549	10147.34
472.754	9934.36
472.959	9651.74
473.164	9453.08
473.369	9336.35
473.574	9655.83
473.778	9614.87
473.983	9461.27
474.188	9324.06
474.393	9051.68
474.598	9098.78
474.802	8918.56
475.007	8912.42
475.212	8900.13
475.417	8574.5
475.621	8676.9
475.826	8558.12
476.031	8361.52
476.235	8326.7
476.44	8394.28
476.645	8265.26
476.849	8218.16
477.054	8156.72
477.259	7974.45
477.463	7956.02
477.668	7851.57
477.872	7937.59
478.077	7827
478.282	7640.63
478.486	7904.82
478.691	7489.08
478.895	7460.41
479.1	7380.54
479.304	7566.9
479.509	7341.63
479.713	7487.03
479.918	7198.27
480.122	6952.51
480.326	7001.66
480.531	7390.78
480.735	7087.68
480.94	7036.48
481.144	7464.5
481.348	6932.03
481.553	7042.62
481.757	6854.21
481.961	7114.3
482.166	7081.53
482.37	7149.12
482.574	7026.24
482.778	6987.33
482.983	7192.12
483.187	7013.95
483.391	6997.57
483.595	6860.35
483.8	6985.28
484.004	7044.67
484.208	7018.05
484.412	6975.04
484.616	7011.9
484.821	6979.14
485.025	6819.39
485.229	6925.89
485.433	6946.37
485.637	6837.83
485.841	6839.87
486.045	6874.69
486.249	6934.08
486.453	6923.84
486.657	6970.94
486.861	6954.56
487.065	6696.52
487.269	6741.57
487.473	6866.5
487.677	6932.03
487.881	7099.97
488.085	6985.28
488.289	7069.25
488.493	6751.81
488.697	7067.2
488.901	7032.38
489.105	6944.32
489.309	7108.16
489.512	7185.98
489.716	7038.53
489.92	7083.58
490.124	7079.49
490.328	7142.97
490.531	7067.2
490.735	7079.49
490.939	7167.55
491.143	7288.38
491.346	7102.01
491.55	7294.52
491.754	7392.83
491.958	7407.16
492.161	7153.21
492.365	7431.74
492.569	7366.2
492.772	7521.85
492.976	7435.83
493.18	7624.25
493.383	7493.18
493.587	7562.81
493.79	7710.26
493.994	7700.02
494.197	7718.45
494.401	7620.15
494.605	7700.02
494.808	7872.05
495.012	7896.63
495.215	8107.57
495.419	8115.76
495.622	7968.31
495.825	8177.2
496.029	8048.18
496.232	8298.03
496.436	8504.87
496.639	8484.39
496.843	8519.21
497.046	8599.08
497.249	8728.1
497.453	8807.97
497.656	8891.94
497.859	9045.54
498.063	9072.16
498.266	9225.76
498.469	9115.17
498.673	9272.86
498.876	9514.52
499.079	9721.37
499.282	9514.52
499.485	9764.37
499.689	9889.3
499.892	10173.97
500.095	10133.01
500.298	10280.46
500.501	10319.37
500.705	10397.2
500.908	10401.29
501.111	10741.25
501.314	10806.79
501.517	10915.33
501.72	11152.9
501.923	11021.83
502.126	11214.34
502.329	11296.25
502.532	11509.24
502.735	11460.09
502.938	11879.93
503.141	11759.1
503.344	11986.42
503.547	11892.21
503.75	12209.65
503.953	12254.7
504.156	12506.6
504.359	12721.64
504.562	12563.95
504.765	13016.55
504.968	12940.77
505.17	13178.34
505.373	13278.69
505.576	13403.61
505.779	13688.28
505.982	13614.55
506.185	14187.99
506.387	13985.24
506.59	14173.65
506.793	14513.61
506.996	14384.59
507.198	14607.82
507.401	14865.86
507.604	14878.15
507.807	15150.53
508.009	15164.87
508.212	15222.21
508.415	15513.02
508.617	15771.07
508.82	15850.94
509.022	15781.31
509.225	16188.85
509.428	16829.87
509.63	16584.11
509.833	16706.99
510.035	16838.06
510.238	16833.96
510.44	17323.43
510.643	17083.81
510.845	17474.98
511.048	17700.25
511.25	17700.25
511.453	17892.76
511.655	18566.54
511.858	18353.55
512.06	18699.66
512.262	18746.76
512.465	18656.65
512.667	19021.19
512.87	19379.59
513.072	19371.4
513.274	19729.79
513.477	19950.97
513.679	20063.61
513.881	20692.33
514.084	20610.42
514.286	20698.48
514.488	20823.4
514.69	21378.4
514.893	21198.18
515.095	21417.32
515.297	21652.83
515.499	21974.36
515.701	22091.1
515.904	22441.3
516.106	22367.57
516.308	22814.03
516.51	23037.26
516.712	22859.09
516.914	23287.11
517.116	23686.47
517.318	23811.39
517.52	24001.85
517.722	24169.79
517.925	24397.11
518.127	24587.57
518.329	24857.9
518.531	24956.21
518.733	25306.41
518.935	25836.83
519.136	25763.11
519.338	26199.32
519.54	26162.46
519.742	26512.66
519.944	26416.41
520.146	27272.46
520.348	27272.46
520.55	27366.67
520.752	27452.68
520.954	28163.32
521.155	27604.23
521.357	28421.37
521.559	28517.62
521.761	28992.75
521.963	29095.15
522.164	29062.38
522.366	29494.5
522.568	29768.93
522.77	30139.61
522.971	30285.02
523.173	30063.84
523.375	30346.46
523.576	30430.43
523.778	30532.82
523.98	30809.3
524.181	31167.7
524.383	31222.99
524.584	31601.86
524.786	31669.45
524.988	31728.84
525.189	32371.9
525.391	32279.74
525.592	32400.57
525.794	32648.38
525.995	32914.61
526.197	32898.23
526.398	33158.32
526.6	33174.7
526.801	33451.18
527.003	33850.53
527.204	33432.75
527.406	33674.41
527.607	33524.91
527.808	34133.15
528.01	33664.17
528.211	34161.83
528.412	35079.32
528.614	34509.98
528.815	34378.91
529.016	34823.32
529.218	34458.78
529.419	34542.75
529.62	34856.09
529.822	34909.33
530.023	35136.66
530.224	34978.96
530.425	35378.32
530.626	34835.61
530.828	34907.29
531.029	35994.76
531.23	35355.79
531.431	35540.11
531.632	35691.66
531.833	35490.96
532.035	35847.3
532.236	35869.83
532.437	35806.34
532.638	35630.22
532.839	36148.36
533.04	35959.94
533.241	36177.03
533.442	36572.28
533.643	36435.07
533.844	36174.98
534.045	36592.76
534.246	36052.1
534.447	36564.09
534.648	36281.47
534.849	36410.5
535.05	35984.52
535.251	36222.08
535.451	36172.93
535.652	36594.81
535.853	36322.43
536.054	36306.05
536.255	36603
536.456	35777.67
536.657	36662.4
536.857	36240.51
537.058	36228.23
537.259	36560
537.46	36260.99
537.66	36717.69
537.861	36578.43
538.062	36279.43
538.263	36643.96
538.463	36226.18
538.664	36455.55
538.865	36820.09
539.065	36803.71
539.266	36224.13
539.466	36752.51
539.667	36002.95
539.868	36760.7
540.068	36678.78
540.269	36256.9
540.469	36713.59
540.67	36220.03
540.87	36232.32
541.071	36490.37
541.271	36500.61
541.472	36138.12
541.672	36678.78
541.873	36254.85
542.073	35468.43
542.274	36600.96
542.474	36273.28
542.675	36273.28
542.875	36785.27
543.075	36498.56
543.276	36035.72
543.476	36484.22
543.676	36299.9
543.877	36537.47
544.077	36883.58
544.277	36357.25
544.478	36250.75
544.678	36684.92
544.878	35992.71
545.078	36330.62
545.279	35789.96
545.479	36177.03
545.679	36189.31
545.879	36045.96
546.079	36332.67
546.28	36129.92
546.48	35925.13
546.68	36199.55
546.88	36725.88
547.08	36609.15
547.28	36211.84
547.48	35851.4
547.68	36209.79
547.88	35925.13
548.081	36473.98
548.281	36668.54
548.481	35800.2
548.681	36445.31
548.881	36277.38
549.081	35955.85
549.28	36177.03
549.48	35957.89
549.68	36211.84
549.88	36809.85
550.08	35775.62
550.28	36019.33
550.48	35871.88
550.68	36396.16
550.88	35722.38
551.08	36048
551.279	36150.4
551.479	35701.9
551.679	35970.18
551.879	35972.23
552.079	36242.56
552.278	35583.12
552.478	35976.33
552.678	36037.76
552.878	35871.88
553.077	35515.53
553.277	36007.05
553.477	36064.39
553.676	35630.22
553.876	35705.99
554.076	35337.36
554.275	35787.91
554.475	35323.02
554.674	35333.26
554.874	35734.67
555.074	35368.08
555.273	35789.96
555.473	35570.83
555.672	35599.5
555.872	35458.19
556.071	35261.58
556.271	35605.64
556.47	35206.29
556.67	34870.42
556.869	35060.88
557.068	35294.35
557.268	35206.29
557.467	35142.8
557.667	35038.36
557.866	34872.47
558.065	34819.22
558.265	34684.06
558.464	34450.59
558.663	35044.5
558.863	34499.74
559.062	35310.74
559.261	34454.68
559.461	35060.88
559.66	33819.81
559.859	34466.97
560.058	34149.54
560.258	34376.86
560.457	34102.43
560.656	34157.73
560.855	33889.45
561.054	34335.9
561.253	33975.46
561.453	33737.9
561.652	34067.62
561.851	34231.46
562.05	33617.07
562.249	33459.37
562.448	33836.2
562.647	33594.54
562.846	33488.04
563.045	33475.76
563.244	33090.74
563.443	33541.29
563.642	32781.49
563.841	32726.2
564.04	32963.76
564.239	33225.9
564.438	32957.62
564.637	33268.91
564.836	32953.52
565.035	32447.68
565.234	32887.99
565.432	32345.28
565.631	32605.37
565.83	32468.16
566.029	32316.61
566.228	32459.96
566.427	31988.93
566.625	32195.78
566.824	31497.42
567.023	32054.47
567.222	31304.91
567.42	31892.68
567.619	31853.76
567.818	31614.15
568.016	31585.48
568.215	31796.42
568.414	31423.69
568.612	31556.81
568.811	30870.74
569.01	31380.68
569.208	30426.33
569.407	31165.65
569.605	30536.92
569.804	30792.92
570.002	30541.02
570.201	30682.33
570.4	30231.77
570.598	30541.02
570.797	29893.86
570.995	30072.03
571.193	29842.66
571.392	30457.05
571.59	29557.99
571.789	30031.07
571.987	29908.19
572.186	29656.29
572.384	29633.77
572.582	29850.85
572.781	29551.85
572.979	29103.34
573.177	29179.12
573.376	29056.24
573.574	28890.35
573.772	29240.56
573.971	28810.48
574.169	28955.89
574.367	28757.24
574.565	28595.45
574.763	28542.2
574.962	28695.8
575.16	28245.24
575.358	28579.06
575.556	28165.37
575.754	28437.75
575.952	27964.67
576.151	27942.14
576.349	28093.69
576.547	27790.59
576.745	27680
576.943	27723.01
577.141	27653.38
577.339	27456.78
577.537	27426.06
577.735	27692.29
577.933	27024.65
578.131	27215.12
578.329	27168.01
578.527	26789.14
578.725	27323.66
578.923	26795.28
579.121	26529.05
579.319	26694.93
579.516	26856.72
579.714	26791.19
579.912	26553.62
580.11	26483.99
580.308	26361.11
580.506	26158.36
580.704	26047.77
580.901	26187.04
581.099	26537.24
581.297	25982.24
581.495	25937.18
581.692	26213.66
581.89	25697.57
582.088	25908.51
582.285	25867.55
582.483	25652.52
582.681	25644.32
582.878	25361.7
583.076	25023.79
583.274	25558.31
583.471	25081.13
583.669	25238.83
583.866	24966.45
584.064	25218.35
584.262	24679.73
584.459	25025.84
584.657	24544.56
584.854	25124.14
585.052	24145.21
585.249	24595.76
585.447	24513.84
585.644	24548.66
585.841	24216.89
586.039	24327.48
586.236	24063.29
586.434	23895.36
586.631	23821.63
586.828	24196.41
587.026	23758.14
587.223	23858.49
587.42	23641.41
587.618	24141.11
587.815	23614.79
588.012	23487.81
588.21	23496
588.407	23663.94
588.604	23502.15
588.801	23041.36
588.999	23213.38
589.196	23121.23
589.393	23237.96
589.59	23010.64
589.787	23293.26
589.984	22492.5
590.182	22639.95
590.379	22984.01
590.576	22533.46
590.773	22850.89
590.97	22375.77
591.167	22314.33
591.364	21886.3
591.561	22273.37
591.758	22136.15
591.955	22146.39
592.152	21919.07
592.349	21693.79
592.546	22087
592.743	21992.8
592.94	21585.25
593.137	21876.06
593.334	22056.28
593.531	21644.64
593.727	21732.7
593.924	21523.81
594.121	21556.58
594.318	21400.93
594.515	21030.25
594.712	21525.86
594.908	21265.77
595.105	21202.28
595.302	21026.15
595.499	21257.57
595.696	21161.32
595.892	20997.48
596.089	21067.11
596.286	20968.81
596.482	21007.72
596.679	20606.32
596.876	20714.86
597.072	20589.94
597.269	20395.38
597.466	20024.7
597.662	20389.24
597.859	20264.31
598.055	20106.62
598.252	20299.12
598.448	20071.8
598.645	20061.56
598.841	19651.97
599.038	20045.18
599.234	20014.46
599.431	19721.6
599.627	19697.02
599.824	19637.63
600.02	19484.03
600.217	19522.94
600.413	19430.79
600.609	19133.83
600.806	19586.43
601.002	19461.51
601.198	19275.14
601.395	19115.4
601.591	18961.8
601.787	19086.73
601.984	18910.6
602.18	18955.66
602.376	18849.16
602.572	18783.63
602.769	18806.16
602.965	18969.99
603.161	18728.33
603.357	18668.94
603.553	18861.45
603.75	18681.23
603.946	18343.31
604.142	18394.51
604.338	18124.18
604.534	18314.64
604.73	18185.62
604.926	18163.09
605.122	18150.81
605.318	17946.01
605.514	18005.4
605.71	17896.86
605.906	17773.98
606.102	17954.2
606.298	17810.84
606.494	17812.89
606.69	17730.97
606.886	17626.53
607.082	17528.22
607.278	17579.42
607.474	17214.88
607.67	17690.01
607.866	17421.73
608.062	17307.04
608.257	17458.59
608.453	17272.23
608.649	17448.35
608.845	17073.57
609.041	17014.18
609.236	17169.83
609.432	17163.68
609.628	17118.63
609.824	16944.55
610.019	16872.87
610.215	16887.21
610.411	17118.63
610.606	16606.64
610.802	16774.57
610.998	16790.95
611.193	16627.12
611.389	16571.82
611.584	16655.79
611.78	16227.76
611.976	16399.79
612.171	16489.9
612.367	16653.74
612.562	16565.68
612.758	16063.93
612.953	16184.76
613.149	16561.58
613.344	16227.76
613.539	16453.04
613.735	16258.48
613.93	16307.63
614.126	15998.39
614.321	16332.21
614.517	16158.13
614.712	16090.55
614.907	15984.05
615.103	16111.03
615.298	15762.87
615.493	15990.2
615.688	15893.94
615.884	16022.97
616.079	15730.11
616.274	16225.72
616.47	15859.13
616.665	15752.63
616.86	15906.23
617.055	15560.13
617.25	15537.6
617.445	15633.85
617.641	15347.14
617.836	15560.13
618.031	15492.54
618.226	15457.73
618.421	15308.23
618.616	15525.31
618.811	15224.26
619.006	15345.09
619.201	14929.35
619.396	15033.8
619.591	14851.53
619.786	15128
619.981	15048.13
620.176	14962.12
620.371	14915.02
620.566	14788.04
620.761	14538.19
620.956	14646.73
621.151	14362.06
621.346	14554.57
621.541	14366.16
621.735	14353.87
621.93	14122.45
622.125	14247.38
622.32	13895.13
622.515	14149.07
622.709	14058.96
622.904	13651.42
623.099	13741.53
623.294	13729.24
623.488	13690.33
623.683	13762.01
623.878	13364.7
624.072	13553.12
624.267	13436.38
624.462	13387.23
624.656	13202.91
624.851	13280.74
625.046	13184.48
625.24	13295.07
625.435	12793.32
625.629	12975.59
625.824	12842.47
626.018	12875.24
626.213	12592.62
626.407	12520.94
626.602	12545.52
626.796	12647.91
626.991	12512.75
627.185	12436.97
627.38	12101.11
627.574	12209.65
627.768	12244.46
627.963	12283.38
628.157	11955.7
628.352	12285.42
628.546	11861.49
628.74	11798.01
628.935	11912.69
629.129	11843.06
629.323	11658.74
629.517	11634.17
629.712	11525.63
629.906	11410.94
630.1	11206.14
630.294	11449.85
630.489	11204.1
630.683	11259.39
630.877	11066.88
631.071	10927.62
631.265	11189.76
631.459	11068.93
631.653	11044.35
631.848	10849.8
632.042	10882.56
632.236	11046.4
632.43	10554.89
632.624	10769.93
632.818	10401.29
633.012	10468.87
633.206	10366.48
633.4	10571.27
633.594	10245.65
633.788	10419.72
633.982	10270.22
634.176	10208.78
634.369	10237.45
634.563	10153.49
634.757	10075.66
634.951	10063.38
635.145	10161.68
635.339	10143.25
635.533	9747.99
635.726	9956.88
635.92	9549.34
636.114	9807.38
636.308	9657.88
636.501	9571.86
636.695	9631.26
636.889	9426.46
637.083	9362.97
637.276	9367.07
637.47	9434.65
637.664	9233.95
637.857	9225.76
638.051	9281.05
638.244	9154.08
638.438	9123.36
638.632	8918.56
638.825	8930.85
639.019	9045.54
639.212	8787.49
639.406	8961.57
639.599	8947.23
639.793	8773.16
639.986	8640.04
640.18	8701.48
640.373	8726.05
640.567	8517.16
640.76	8541.74
640.954	8484.39
641.147	8322.6
641.34	8500.78
641.534	8214.06
641.727	8205.87
641.92	8162.86
642.114	8164.91
642.307	8156.72
642.5	8244.78
642.694	7913.01
642.887	7943.73
643.08	8017.46
643.273	7947.83
643.467	7974.45
643.66	7865.91
643.853	7777.84
644.046	7589.43
644.239	7745.08
644.432	7751.22
644.626	7525.94
644.819	7689.78
645.012	7659.06
645.205	7714.36
645.398	7355.96
645.591	7382.59
645.784	7441.98
645.977	7274.04
646.17	7300.67
646.363	7470.65
646.556	7190.08
646.749	7134.78
646.942	7210.56
647.135	7093.82
647.328	7118.4
647.521	7003.71
647.714	6993.47
647.907	7054.91
648.099	6964.8
648.292	6901.31
648.485	6995.52
648.678	6878.79
648.871	6872.64
649.064	6686.28
649.256	6811.2
649.449	6766.15
649.642	6618.69
649.835	6626.89
650.027	6559.3
650.22	6587.97
650.413	6522.44
650.605	6518.34
650.798	6501.96
650.991	6424.14
651.183	6291.02
651.376	6331.98
651.568	6422.09
651.761	6248.01
651.954	6280.78
652.146	6258.25
652.339	6215.24
652.531	6196.81
652.724	6088.27
652.916	5981.78
653.109	6043.21
653.301	6022.73
653.494	6071.89
653.686	5836.37
653.879	5922.38
654.071	5983.82
654.263	5846.61
654.456	5908.05
654.648	5776.98
654.84	5733.97
655.033	5789.27
655.225	5697.11
655.417	5604.95
655.61	5754.45
655.802	5627.48
655.994	5676.63
656.186	5611.09
656.379	5506.65
656.571	5572.18
656.763	5389.91
656.955	5453.4
657.148	5457.5
657.34	5400.15
657.532	5338.71
657.724	5310.04
657.916	5342.81
658.108	5314.14
658.3	5396.06
658.492	5244.51
658.684	5076.57
658.876	5072.48
659.068	5287.51
659.26	5148.25
659.452	5072.48
659.644	5148.25
659.836	5025.37
660.028	4904.54
660.22	5074.53
660.412	4994.65
660.604	4830.82
660.796	4931.17
660.988	4963.93
661.18	4974.17
661.372	4793.95
661.563	4814.43
661.755	4834.91
661.947	4671.08
662.139	4671.08
662.331	4666.98
662.522	4591.2
662.714	4785.76
662.906	4621.92
663.097	4685.41
663.289	4595.3
663.481	4540.01
663.673	4535.91
663.864	4568.68
664.056	4542.05
664.247	4451.94
664.439	4458.09
664.631	4578.92
664.822	4494.95
665.014	4316.78
665.205	4531.81
665.397	4388.46
665.588	4322.92
665.78	4271.72
665.971	4298.35
666.163	4081.26
666.354	4343.4
666.546	4195.95
666.737	4288.11
666.929	4226.67
667.12	4241
667.311	4200.04
667.503	3976.81
667.694	4068.97
667.885	4099.69
668.077	4144.75
668.268	3935.85
668.459	4183.66
668.651	4146.8
668.842	4097.64
669.033	3954.29
669.224	4066.92
669.416	4122.22
669.607	3835.5
669.798	4007.53
669.989	3985.01
670.18	3784.3
670.371	3970.67
670.563	3946.09
670.754	3896.94
670.945	3905.14
671.136	3974.77
671.327	3708.53
671.518	3694.19
671.709	3769.97
671.9	3753.59
672.091	3837.55
672.282	3735.15
672.473	3741.3
672.664	3855.98
672.855	3745.39
673.046	3831.41
673.237	3716.72
673.428	3792.5
673.619	3632.76
673.809	3726.96
674	3671.67
674.191	3606.13
674.382	3681.91
674.573	3532.4
674.764	3622.52
674.954	3612.28
675.145	3624.56
675.336	3479.16
675.527	3565.17
675.717	3599.99
675.908	3481.21
676.099	3597.94
676.289	3430.01
676.48	3499.64
676.671	3477.11
676.861	3468.92
677.052	3464.82
677.243	3419.77
677.433	3401.33
677.624	3571.32
677.814	3454.58
678.005	3513.97
678.195	3393.14
678.386	3409.53
678.576	3378.81
678.767	3352.18
678.957	3421.81
679.148	3487.35
679.338	3403.38
679.529	3464.82
679.719	3366.52
679.909	3329.66
680.1	3346.04
680.29	3251.83
680.481	3227.26
680.671	3362.42
680.861	3352.18
681.052	3360.38
681.242	3264.12
681.432	3419.77
681.622	3282.55
681.813	3341.94
682.003	3368.57
682.193	3317.37
682.383	3243.64
682.573	3212.92
682.764	3393.14
682.954	3247.74
683.144	3221.11
683.334	3262.07
683.524	3151.48
683.714	3233.4
683.904	3325.56
684.094	3247.74
684.284	3040.89
684.474	3268.22
684.664	3235.45
684.854	3333.75
685.044	3122.81
685.234	3274.36
685.424	3204.73
685.614	3108.48
685.804	3133.05
685.994	3153.53
686.184	3118.72
686.374	3055.23
686.564	3110.52
686.753	3137.15
686.943	3063.42
687.133	3194.49
687.323	3085.95
687.513	3040.89
687.702	3075.71
687.892	2993.79
688.082	3096.19
688.272	3040.89
688.461	3032.7
688.651	3032.7
688.841	2975.36
689.03	2940.54
689.22	3112.57
689.41	3028.6
689.599	2926.21
689.789	2967.17
689.979	2897.53
690.168	2866.81
690.358	2930.3
690.547	2827.9
690.737	2836.1
690.926	2868.86
691.116	2737.79
691.305	2885.25
691.495	2743.94
691.684	2934.4
691.874	2780.8
692.063	2944.64
692.252	2838.14
692.442	2862.72
692.631	2719.36
692.82	2760.32
693.01	2713.22
693.199	2739.84
693.388	2813.57
693.578	2688.64
693.767	2774.66
693.956	2700.93
694.146	2612.87
694.335	2627.2
694.524	2719.36
694.713	2788.99
694.902	2657.92
695.092	2750.08
695.281	2567.81
695.47	2657.92
695.659	2707.07
695.848	2729.6
696.037	2754.18
696.226	2723.46
696.415	2668.16
696.604	2528.9
696.793	2637.44
696.982	2686.59
697.171	2666.11
697.36	2674.31
697.549	2559.62
697.738	2561.67
697.927	2524.8
698.116	2698.88
698.305	2559.62
698.494	2647.68
698.683	2684.55
698.872	2686.59
699.061	2637.44
699.25	2623.11
699.438	2662.02
699.627	2555.52
699.816	2594.44
700.005	2426.5
700.193	2608.77
700.382	2711.17
700.571	2582.15
700.76	2621.06
700.948	2674.31
701.137	2631.3
701.326	2629.25
701.514	2676.35
701.703	2627.2
701.892	2678.4
702.08	2616.96
702.269	2745.98
702.457	2662.02
702.646	2659.97
702.834	2745.98
703.023	2584.2
703.212	2674.31
703.4	2651.78
703.589	2561.67
703.777	2709.12
703.965	2676.35
704.154	2621.06
704.342	2604.67
704.531	2676.35
704.719	2666.11
704.907	2608.77
705.096	2592.39
705.284	2700.93
705.472	2702.98
705.661	2684.55
705.849	2762.37
706.037	2565.76
706.226	2676.35
706.414	2662.02
706.602	2598.53
706.79	2543.24
706.979	2557.57
707.167	2643.59
707.355	2629.25
707.543	2594.44
707.731	2637.44
707.919	2586.24
708.107	2637.44
708.296	2567.81
708.484	2530.95
708.672	2559.62
708.86	2614.91
709.048	2754.18
709.236	2688.64
709.424	2594.44
709.612	2635.39
709.8	2598.53
709.988	2596.48
710.176	2580.1
710.364	2578.05
710.551	2590.34
710.739	2705.03
710.927	2762.37
711.115	2590.34
711.303	2635.39
711.491	2549.38
711.679	2506.37
711.866	2590.34
712.054	2655.87
712.242	2610.82
712.43	2752.13
712.617	2653.83
712.805	2621.06
712.993	2580.1
713.181	2541.19
713.368	2596.48
713.556	2616.96
713.744	2500.23
713.931	2633.35
714.119	2485.89
714.306	2645.63
714.494	2530.95
714.682	2477.7
714.869	2549.38
715.057	2649.73
715.244	2483.84
715.432	2627.2
715.619	2629.25
715.807	2610.82
715.994	2518.66
716.182	2612.87
716.369	2633.35
716.556	2422.41
716.744	2616.96
716.931	2569.86
717.119	2602.63
717.306	2584.2
717.493	2561.67
717.681	2586.24
717.868	2635.39
718.055	2629.25
718.242	2549.38
718.43	2631.3
718.617	2512.52
718.804	2533
718.991	2735.74
719.179	2610.82
719.366	2565.76
719.553	2580.1
719.74	2432.65
719.927	2533
720.114	2551.43
720.301	2555.52
720.488	2629.25
720.676	2516.61
720.863	2651.78
721.05	2614.91
721.237	2496.13
721.424	2584.2
721.611	2590.34
721.798	2479.75
721.985	2504.32
722.172	2504.32
722.358	2463.37
722.545	2543.24
722.732	2500.23
722.919	2451.08
723.106	2496.13
723.293	2647.68
723.48	2479.75
723.667	2561.67
723.853	2504.32
724.04	2551.43
724.227	2422.41
724.414	2436.74
724.6	2571.91
724.787	2485.89
724.974	2430.6
725.161	2533
725.347	2455.17
725.534	2514.56
725.72	2498.18
725.907	2426.5
726.094	2451.08
726.28	2530.95
726.467	2582.15
726.653	2453.13
726.84	2578.05
727.027	2537.09
727.213	2492.04
727.4	2549.38
727.586	2520.71
727.773	2473.6
727.959	2576
728.145	2537.09
728.332	2530.95
728.518	2489.99
728.705	2559.62
728.891	2463.37
729.077	2465.41
729.264	2533
729.45	2516.61
729.636	2602.63
729.823	2367.11
730.009	2412.17
730.195	2412.17
730.382	2557.57
730.568	2471.56
730.754	2533
730.94	2553.48
731.126	2481.8
731.313	2500.23
731.499	2498.18
731.685	2475.65
731.871	2489.99
732.057	2428.55
732.243	2459.27
732.429	2514.56
732.615	2444.93
732.801	2420.36
732.987	2309.77
733.173	2455.17
733.359	2475.65
733.545	2434.69
733.731	2424.45
733.917	2463.37
734.103	2553.48
734.289	2449.03
734.475	2379.4
734.661	2500.23
734.847	2434.69
735.033	2494.08
735.219	2367.11
735.404	2385.54
735.59	2428.55
735.776	2348.68
735.962	2496.13
736.148	2434.69
736.333	2324.1
736.519	2418.31
736.705	2446.98
736.89	2446.98
737.076	2313.86
737.262	2451.08
737.447	2315.91
737.633	2246.28
737.819	2408.07
738.004	2377.35
738.19	2436.74
738.375	2338.44
738.561	2469.51
738.747	2416.26
738.932	2260.62
739.118	2360.97
739.303	2317.96
739.489	2496.13
739.674	2219.66
739.859	2389.64
740.045	2377.35
740.23	2301.58
740.416	2215.56
740.601	2336.39
740.786	2281.1
740.972	2291.34
741.157	2186.89
741.342	2295.43
741.528	2244.23
741.713	2281.1
741.898	2272.9
742.084	2231.94
742.269	2225.8
742.454	2129.55
742.639	2225.8
742.824	2111.11
743.01	2256.52
743.195	2217.61
743.38	2174.6
743.565	2221.7
743.75	2305.67
743.935	2326.15
744.12	2211.46
744.305	2135.69
744.49	2139.79
744.675	2152.07
744.86	2037.39
745.045	2096.78
745.23	2154.12
745.415	2068.11
745.6	2141.83
745.785	2082.44
745.97	2029.2
746.155	2004.62
746.34	1906.32
746.525	2021
746.71	2137.74
746.895	2084.49
747.079	1992.33
747.264	2023.05
747.449	2004.62
747.634	2098.83
747.819	1904.27
748.003	1883.79
748.188	2002.57
748.373	1871.5
748.557	1973.9
748.742	1818.25
748.927	1812.11
749.111	1863.31
749.296	1865.36
749.481	1863.31
749.665	1791.63
749.85	1812.11
750.034	1959.56
750.219	1785.49
750.404	1816.21
750.588	1726.1
750.773	1713.81
750.957	1709.71
751.141	1785.49
751.326	1697.42
751.51	1728.14
751.695	1742.48
751.879	1707.66
752.064	1728.14
752.248	1760.91
752.432	1689.23
752.617	1668.75
752.801	1695.38
752.985	1611.41
753.17	1617.55
753.354	1623.7
753.538	1568.4
753.722	1592.98
753.907	1650.32
754.091	1468.05
754.275	1455.76
754.459	1609.36
754.643	1539.73
754.828	1375.89
755.012	1496.72
755.196	1492.63
755.38	1511.06
755.564	1488.53
755.748	1482.39
755.932	1519.25
756.116	1500.82
756.3	1488.53
756.484	1386.13
756.668	1371.8
756.852	1382.04
757.036	1363.61
757.22	1339.03
757.404	1435.28
757.588	1351.32
757.772	1349.27
757.956	1316.5
758.14	1398.42
758.323	1349.27
758.507	1355.41
758.691	1396.37
758.875	1353.37
759.059	1455.76
759.242	1293.97
759.426	1255.06
759.61	1259.16
759.794	1279.64
759.977	1234.58
760.161	1285.78
760.345	1134.23
760.528	1302.17
760.712	1269.4
760.895	1187.48
761.079	1167
761.263	1234.58
761.446	1218.2
761.63	1232.54
761.813	1154.71
761.997	1173.14
762.18	1205.91
762.364	1101.47
762.547	1181.34
762.731	1132.19
762.914	1123.99
763.098	1083.03
763.281	1048.22
763.464	1085.08
763.648	1187.48
763.831	1132.19
764.015	1164.95
764.198	1123.99
764.381	1173.14
764.564	1042.07
764.748	1097.37
764.931	1064.6
765.114	1101.47
765.297	1072.79
765.481	1089.18
765.664	1046.17
765.847	1025.69
766.03	1113.75
766.213	1015.45
766.397	1013.4
766.58	1023.64
766.763	1080.99
766.946	1007.26
767.129	1050.27
767.312	1078.94
767.495	1001.12
767.678	974.49
767.861	980.64
768.044	947.87
768.227	999.07
768.41	1046.17
768.593	1052.31
768.776	999.07
768.959	949.92
769.142	945.82
769.324	939.68
769.507	976.54
769.69	935.58
769.873	980.64
770.056	931.48
770.239	970.4
770.421	941.72
770.604	931.48
770.787	970.4
770.97	882.33
771.152	841.37
771.335	861.85
771.518	865.95
771.7	861.85
771.883	820.89
772.066	898.72
772.248	900.76
772.431	810.65
772.613	935.58
772.796	831.13
772.978	833.18
773.161	868
773.343	857.76
773.526	888.48
773.708	802.46
773.891	771.74
774.073	790.17
774.256	753.31
774.438	837.28
774.621	726.69
774.803	831.13
774.985	732.83
775.168	804.51
775.35	820.89
775.532	710.3
775.715	722.59
775.897	784.03
776.079	734.88
776.261	779.93
776.444	747.17
776.626	726.69
776.808	702.11
776.99	796.32
777.173	732.83
777.355	712.35
777.537	679.58
777.719	669.34
777.901	755.36
778.083	597.67
778.265	671.39
778.447	736.93
778.629	749.22
778.811	626.34
778.993	655.01
779.175	814.75
779.357	712.35
779.539	695.97
779.721	659.1
779.903	665.25
780.085	636.58
780.267	595.62
780.449	622.24
780.631	591.52
780.812	630.43
780.994	661.15
781.176	554.66
781.358	644.77
781.54	624.29
781.721	609.95
781.903	581.28
782.085	591.52
782.267	564.9
782.448	552.61
782.63	583.33
782.812	564.9
782.993	517.79
783.175	528.03
783.357	519.84
783.538	599.71
783.72	517.79
783.901	485.03
784.083	501.41
784.264	540.32
784.446	499.36
784.627	480.93
784.809	532.13
784.99	558.75
785.172	560.8
785.353	581.28
785.535	499.36
785.716	513.7
785.897	388.77
786.079	503.46
786.26	489.12
786.441	528.03
786.623	366.25
786.804	417.44
786.985	468.64
787.167	499.36
787.348	497.32
787.529	439.97
787.71	462.5
787.891	493.22
788.073	509.6
788.254	403.11
788.435	364.2
788.616	390.82
788.797	403.11
788.978	425.64
789.159	392.87
789.34	421.54
789.522	394.92
789.703	392.87
789.884	423.59
790.065	452.26
790.246	476.84
790.427	439.97
790.607	384.68
790.788	345.77
790.969	302.76
791.15	390.82
791.331	382.63
791.512	341.67
791.693	337.57
791.874	345.77
792.054	396.96
792.235	306.85
792.416	343.72
792.597	362.15
792.778	362.15
792.958	343.72
793.139	337.57
793.32	403.11
793.5	313
793.681	329.38
793.862	351.91
794.042	294.57
794.223	323.24
794.404	333.48
794.584	298.66
794.765	255.65
794.945	282.28
795.126	253.61
795.306	329.38
795.487	353.96
795.667	317.09
795.848	278.18
796.028	229.03
796.209	310.95
796.389	341.67
796.57	315.05
796.75	288.42
796.93	378.53
797.111	278.18
797.291	313
797.471	253.61
797.652	345.77
797.832	204.46
798.012	315.05
798.192	286.37
798.373	308.9
798.553	351.91
798.733	288.42
798.913	249.51
799.093	308.9
799.274	249.51
799.454	286.37
799.634	333.48
799.814	300.71
799.994	313
800.174	269.99
800.354	214.7
800.534	216.74
800.714	272.04
800.894	378.53
801.074	208.55
801.254	200.36
801.434	347.81
801.614	190.12
801.794	331.43
801.974	575.14
802.154	231.08
802.334	190.12
802.514	226.98
802.693	233.13
802.873	284.33
803.053	200.36
803.233	190.12
803.413	306.85
803.592	239.27
803.772	276.13
803.952	267.94
804.131	235.18
804.311	224.94
804.491	169.64
804.67	190.12
804.85	245.41
805.03	204.46
805.209	278.18
805.389	206.5
805.568	196.26
805.748	159.4
805.928	198.31
806.107	239.27
806.287	255.65
806.466	161.45
806.646	243.37
806.825	220.84
807.004	261.8
807.184	169.64
807.363	243.37
807.543	190.12
807.722	167.59
807.901	149.16
808.081	255.65
808.26	112.3
808.439	151.21
808.619	165.54
808.798	157.35
808.977	149.16
809.156	212.65
809.336	179.88
809.515	229.03
809.694	241.32
809.873	204.46
810.052	216.74
810.231	169.64
810.411	216.74
810.59	202.41
810.769	108.2
810.948	192.17
811.127	149.16
811.306	87.72
811.485	202.41
811.664	136.87
811.843	149.16
812.022	179.88
812.201	159.4
812.38	136.87
812.559	91.82
812.737	161.45
812.916	196.26
813.095	122.54
813.274	136.87
813.453	118.44
813.632	173.74
813.811	235.18
813.989	118.44
814.168	147.11
814.347	157.35
814.526	95.91
814.704	120.49
814.883	128.68
815.062	73.39
815.24	214.7
815.419	120.49
815.598	163.5
815.776	81.58
815.955	173.74
816.133	95.91
816.312	132.78
816.49	149.16
816.669	132.78
816.847	100.01
817.026	181.93
817.204	179.88
817.383	128.68
817.561	196.26
817.74	97.96
817.918	169.64
818.097	100.01
818.275	163.5
818.453	206.5
818.632	147.11
818.81	138.92
818.988	171.69
819.167	95.91
819.345	138.92
819.523	128.68
819.701	155.3
819.879	132.78
820.058	32.43
820.236	116.39
820.414	38.57
820.592	147.11
820.77	124.58
820.948	95.91
821.127	93.87
821.305	169.64
821.483	38.57
821.661	108.2
821.839	75.43
822.017	93.87
822.195	173.74
822.373	132.78
822.551	116.39
822.729	143.02
822.907	81.58
823.085	157.35
823.262	57
823.44	157.35
823.618	159.4
823.796	120.49
823.974	46.76
824.152	130.73
824.329	67.24
824.507	108.2
824.685	167.59
824.863	138.92
825.04	181.93
825.218	153.26
825.396	85.67
825.574	38.57
825.751	91.82
825.929	194.22
826.107	50.86
826.284	87.72
826.462	97.96
826.639	73.39
826.817	83.63
826.994	83.63
827.172	165.54
827.349	175.78
827.527	81.58
827.704	71.34
827.882	59.05
828.059	124.58
828.237	16.04
828.414	93.87
828.591	-14.68
828.769	102.06
828.946	104.11
829.124	95.91
829.301	83.63
829.478	61.1
829.655	67.24
829.833	57
830.01	118.44
830.187	95.91
830.364	20.14
830.542	100.01
830.719	116.39
830.896	77.48
831.073	46.76
831.25	75.43
831.427	151.21
831.604	138.92
831.782	40.62
831.959	71.34
832.136	100.01
832.313	100.01
832.49	57
832.667	106.15
832.844	-0.34
833.021	69.29
833.198	50.86
833.374	77.48
833.551	79.53
833.728	75.43
833.905	192.17
834.082	-37.2
834.259	-0.34
834.436	114.34
834.612	50.86
834.789	157.35
834.966	44.71
835.143	71.34
835.319	54.95
835.496	67.24
835.673	83.63
835.85	83.63
836.026	147.11
836.203	77.48
836.38	13.99
836.556	112.3
836.733	71.34
836.909	63.15
837.086	87.72
837.262	-82.26
837.439	63.15
837.616	69.29
837.792	34.47
837.968	100.01
838.145	54.95
838.321	75.43
838.498	75.43
838.674	57
838.851	124.58
839.027	18.09
839.203	120.49
839.38	130.73
839.556	67.24
839.732	3.75
839.909	26.28
840.085	95.91
840.261	1.71
840.437	50.86
840.614	140.97
840.79	34.47
840.966	104.11
841.142	65.19
841.318	-33.11
841.494	50.86
841.671	54.95
841.847	93.87
842.023	20.14
842.199	75.43
842.375	130.73
842.551	34.47
842.727	24.23
842.903	42.67
843.079	42.67
843.255	11.95
843.431	132.78
843.607	63.15
843.783	-37.2
843.959	120.49
844.134	67.24
844.31	67.24
844.486	91.82
844.662	9.9
844.838	18.09
845.013	-2.39
845.189	42.67
845.365	44.71
845.541	52.91
845.716	24.23
845.892	-31.06
846.068	-37.2
846.244	34.47
846.419	30.38
846.595	54.95
846.77	5.8
846.946	87.72
847.122	108.2
847.297	13.99
847.473	-0.34
847.648	-0.34
847.824	73.39
847.999	34.47
848.175	-6.49
848.35	50.86
848.526	24.23
848.701	30.38
848.876	87.72
849.052	16.04
849.227	-33.11
849.403	83.63
849.578	75.43
849.753	42.67
849.929	28.33
850.104	-18.77
850.279	-8.53
850.454	-0.34
850.63	57
850.805	63.15
850.98	57
851.155	50.86
851.33	75.43
851.505	-8.53
851.681	-12.63
851.856	-12.63
852.031	67.24
852.206	124.58
852.381	42.67
852.556	-2.39
852.731	-4.44
852.906	132.78
853.081	61.1
853.256	42.67
853.431	48.81
853.606	-26.96
853.781	112.3
853.956	-24.92
854.131	59.05
854.305	5.8
854.48	-18.77
854.655	52.91
854.83	-16.73
855.005	73.39
855.18	-22.87
855.354	32.43
855.529	67.24
855.704	18.09
855.879	57
856.053	26.28
856.228	50.86
856.403	16.04
856.577	93.87
856.752	-33.11
856.926	24.23
857.101	-18.77
857.276	-22.87
857.45	32.43
857.625	97.96
857.799	18.09
857.974	1.71
858.148	44.71
858.323	-0.34
858.497	40.62
858.672	50.86
858.846	48.81
859.02	24.23
859.195	59.05
859.369	73.39
859.543	16.04
859.718	83.63
859.892	7.85
860.066	38.57
860.241	83.63
860.415	24.23
860.589	9.9
860.763	73.39
860.938	-4.44
861.112	61.1
861.286	3.75
861.46	46.76
861.634	16.04
861.808	65.19
861.982	22.19
862.157	100.01
862.331	18.09
862.505	7.85
862.679	-18.77
862.853	1.71
863.027	59.05
863.201	110.25
863.375	38.57
863.549	59.05
863.722	3.75
863.896	73.39
864.07	5.8
864.244	11.95
864.418	-29.01
864.592	38.57
864.766	46.76
864.939	40.62
865.113	54.95
865.287	57
865.461	50.86
865.634	63.15
865.808	5.8
865.982	-2.39
866.156	22.19
866.329	67.24
866.503	1.71
866.676	50.86
866.85	-14.68
867.024	-18.77
867.197	-2.39
867.371	54.95
867.544	42.67
867.718	9.9
867.891	1.71
868.065	-31.06
868.238	13.99
868.412	-6.49
868.585	46.76
868.759	36.52
868.932	-14.68
869.105	-20.82
869.279	-8.53
869.452	-2.39
869.625	5.8
869.799	-35.16
869.972	-6.49
870.145	-16.73
870.319	-37.2
870.492	1.71
870.665	-26.96
870.838	-51.54
871.011	30.38
871.185	26.28
871.358	48.81
871.531	57
871.704	13.99
871.877	-8.53
872.05	18.09
872.223	11.95
872.396	22.19
872.569	-20.82
872.742	-65.88
872.915	18.09
873.088	28.33
873.261	-18.77
873.434	50.86
873.607	-37.2
873.78	50.86
873.953	34.47
874.126	-53.59
874.299	-14.68
874.471	-37.2
874.644	-20.82
874.817	59.05
874.99	-18.77
875.163	-18.77
875.335	22.19
875.508	18.09
875.681	7.85
875.853	-12.63
876.026	120.49
876.199	-8.53
876.371	-10.58
876.544	-2.39
876.717	-20.82
876.889	13.99
877.062	50.86
877.234	-31.06
877.407	13.99
877.579	22.19
877.752	-31.06
877.924	95.91
878.097	-2.39
878.269	-6.49
878.442	75.43
878.614	65.19
878.786	9.9
878.959	38.57
879.131	46.76
879.303	-14.68
879.476	24.23
879.648	46.76
879.82	9.9
879.993	-31.06
880.165	-20.82
880.337	-47.44
880.509	-18.77
880.681	-59.73
880.854	22.19
881.026	7.85
881.198	79.53
881.37	-18.77
881.542	22.19
881.714	-8.53
881.886	26.28
882.058	-16.73
882.23	-14.68
882.402	-33.11
882.574	20.14
882.746	22.19
882.918	59.05
883.09	-47.44
883.262	-26.96
883.434	-14.68
883.606	5.8
883.778	-10.58
883.95	16.04
884.122	-12.63
884.293	52.91
884.465	3.75
884.637	-20.82
884.809	-61.78
884.98	63.15
885.152	46.76
885.324	9.9
885.496	-51.54
885.667	13.99
885.839	26.28
886.011	18.09
886.182	9.9
886.354	-2.39
886.525	1.71
886.697	-14.68
886.869	-0.34
887.04	13.99
887.212	59.05
887.383	16.04
887.555	3.75
887.726	7.85
887.897	-39.25
888.069	5.8
888.24	-63.83
888.412	9.9
888.583	-0.34
888.754	20.14
888.926	-72.02
889.097	46.76
889.268	-2.39
889.44	28.33
889.611	-43.35
889.782	24.23
889.953	-76.12
890.125	26.28
890.296	-55.64
890.467	7.85
890.638	3.75
890.809	48.81
890.98	-16.73
891.151	50.86
891.323	-16.73
891.494	26.28
891.665	-14.68
891.836	5.8
892.007	-43.35
892.178	24.23
892.349	42.67
892.52	-10.58
892.691	-31.06
892.862	-8.53
893.032	13.99
893.203	5.8
893.374	-35.16
893.545	59.05
893.716	24.23
893.887	-6.49
894.057	22.19
894.228	-0.34
894.399	-6.49
894.57	36.52
894.74	48.81
894.911	75.43
895.082	-43.35
895.253	-10.58
895.423	26.28
895.594	-20.82
895.764	-12.63
895.935	13.99
896.106	-55.64
896.276	52.91
896.447	-76.12
896.617	-24.92
896.788	34.47
896.958	30.38
897.129	-35.16
897.299	-45.4
897.47	9.9
897.64	-16.73
897.81	18.09
897.981	16.04
898.151	-29.01
898.322	48.81
898.492	22.19
898.662	-37.2
898.832	-22.87
899.003	-24.92
899.173	18.09
899.343	-18.77
899.513	-14.68
