Data from USB4F104151__49__11-05-37-948.txt Node

Date: Wed Mar 12 11:05:37 EDT 2025
User: louis
Spectrometer: USB4F10415
Trigger mode: 4
Integration Time (sec): 2.000000E-2
Scans to average: 1
Electric dark correction enabled: true
Nonlinearity correction enabled: false
Boxcar width: 0
XAxis mode: Wavelengths
Number of Pixels in Spectrum: 3648
>>>>>Begin Spectral Data<<<<<
178.204	-118.61
178.424	-118.61
178.644	-118.61
178.864	-102.23
179.084	4.27
179.304	0.17
179.524	10.41
179.744	-42.84
179.964	-32.6
180.184	-12.12
180.404	8.36
180.624	-18.26
180.844	39.08
181.064	4.27
181.283	24.75
181.503	-20.31
181.723	39.08
181.943	4.27
182.163	86.19
182.383	26.79
182.602	28.84
182.822	65.71
183.042	104.62
183.262	-20.31
183.482	47.27
183.701	-12.12
183.921	22.7
184.141	47.27
184.361	73.9
184.58	-18.26
184.8	28.84
185.02	45.23
185.239	22.7
185.459	4.27
185.679	75.95
185.898	20.65
186.118	45.23
186.338	26.79
186.557	30.89
186.777	51.37
186.997	22.7
187.216	-51.03
187.436	6.31
187.655	61.61
187.875	94.38
188.095	96.43
188.314	16.55
188.534	24.75
188.753	-20.31
188.973	39.08
189.192	145.58
189.412	39.08
189.631	34.99
189.851	63.66
190.07	57.51
190.29	30.89
190.509	24.75
190.729	-5.97
190.948	86.19
191.168	49.32
191.387	57.51
191.607	98.47
191.826	49.32
192.045	14.51
192.265	88.23
192.484	32.94
192.704	-10.07
192.923	20.65
193.142	94.38
193.362	37.03
193.581	45.23
193.8	141.48
194.02	39.08
194.239	0.17
194.458	32.94
194.678	18.6
194.897	92.33
195.116	61.61
195.335	34.99
195.555	41.13
195.774	77.99
195.993	30.89
196.212	-14.17
196.432	37.03
196.651	71.85
196.87	26.79
197.089	63.66
197.308	51.37
197.528	75.95
197.747	32.94
197.966	30.89
198.185	37.03
198.404	49.32
198.623	67.75
198.842	69.8
199.062	51.37
199.281	49.32
199.5	28.84
199.719	39.08
199.938	51.37
200.157	39.08
200.376	37.03
200.595	159.91
200.814	90.28
201.033	71.85
201.252	96.43
201.471	63.66
201.69	39.08
201.909	-30.55
202.128	2.22
202.347	59.56
202.566	82.09
202.785	20.65
203.004	37.03
203.223	59.56
203.442	59.56
203.661	34.99
203.879	-32.6
204.098	100.52
204.317	30.89
204.536	53.42
204.755	88.23
204.974	24.75
205.193	41.13
205.411	75.95
205.63	20.65
205.849	6.31
206.068	16.55
206.287	43.18
206.505	47.27
206.724	55.47
206.943	8.36
207.162	34.99
207.381	65.71
207.599	4.27
207.818	-20.31
208.037	90.28
208.255	47.27
208.474	6.31
208.693	106.67
208.911	94.38
209.13	22.7
209.349	41.13
209.567	32.94
209.786	82.09
210.005	2.22
210.223	34.99
210.442	-16.21
210.661	43.18
210.879	8.36
211.098	65.71
211.316	53.42
211.535	41.13
211.753	59.56
211.972	43.18
212.191	24.75
212.409	-34.64
212.628	90.28
212.846	14.51
213.065	-24.4
213.283	110.76
213.502	37.03
213.72	39.08
213.938	2.22
214.157	-12.12
214.375	63.66
214.594	0.17
214.812	-10.07
215.031	32.94
215.249	0.17
215.467	-44.88
215.686	34.99
215.904	86.19
216.122	51.37
216.341	53.42
216.559	71.85
216.778	37.03
216.996	4.27
217.214	-1.88
217.432	84.14
217.651	6.31
217.869	-8.02
218.087	45.23
218.306	98.47
218.524	71.85
218.742	37.03
218.96	92.33
219.179	6.31
219.397	43.18
219.615	73.9
219.833	65.71
220.051	-34.64
220.27	12.46
220.488	57.51
220.706	43.18
220.924	41.13
221.142	-51.03
221.36	24.75
221.578	22.7
221.796	32.94
222.015	20.65
222.233	53.42
222.451	123.05
222.669	69.8
222.887	16.55
223.105	37.03
223.323	53.42
223.541	41.13
223.759	41.13
223.977	129.19
224.195	98.47
224.413	43.18
224.631	49.32
224.849	57.51
225.067	118.95
225.285	-18.26
225.503	51.37
225.721	0.17
225.939	20.65
226.157	57.51
226.375	32.94
226.592	-3.93
226.81	-1.88
227.028	30.89
227.246	86.19
227.464	98.47
227.682	41.13
227.9	98.47
228.117	-8.02
228.335	75.95
228.553	65.71
228.771	57.51
228.989	43.18
229.206	37.03
229.424	-26.45
229.642	65.71
229.86	16.55
230.077	28.84
230.295	55.47
230.513	55.47
230.731	57.51
230.948	37.03
231.166	30.89
231.384	-24.4
231.601	112.81
231.819	73.9
232.037	2.22
232.254	82.09
232.472	43.18
232.689	37.03
232.907	47.27
233.125	30.89
233.342	57.51
233.56	6.31
233.777	-3.93
233.995	16.55
234.213	116.9
234.43	65.71
234.648	90.28
234.865	20.65
235.083	-32.6
235.3	45.23
235.518	32.94
235.735	63.66
235.953	24.75
236.17	22.7
236.388	55.47
236.605	37.03
236.822	90.28
237.04	34.99
237.257	-30.55
237.475	0.17
237.692	100.52
237.909	63.66
238.127	37.03
238.344	0.17
238.562	49.32
238.779	34.99
238.996	26.79
239.214	24.75
239.431	18.6
239.648	-44.88
239.865	39.08
240.083	20.65
240.3	37.03
240.517	73.9
240.735	20.65
240.952	98.47
241.169	94.38
241.386	73.9
241.603	-32.6
241.821	57.51
242.038	34.99
242.255	12.46
242.472	80.04
242.689	-16.21
242.907	34.99
243.124	12.46
243.341	-3.93
243.558	-16.21
243.775	10.41
243.992	63.66
244.209	88.23
244.426	73.9
244.643	82.09
244.86	55.47
245.078	102.57
245.295	26.79
245.512	12.46
245.729	41.13
245.946	84.14
246.163	55.47
246.38	80.04
246.597	32.94
246.814	26.79
247.031	39.08
247.248	49.32
247.464	-18.26
247.681	12.46
247.898	73.9
248.115	39.08
248.332	10.41
248.549	100.52
248.766	67.75
248.983	41.13
249.2	-20.31
249.417	22.7
249.633	-42.84
249.85	51.37
250.067	6.31
250.284	75.95
250.501	53.42
250.717	-3.93
250.934	14.51
251.151	28.84
251.368	84.14
251.585	26.79
251.801	100.52
252.018	14.51
252.235	55.47
252.451	22.7
252.668	34.99
252.885	90.28
253.102	-24.4
253.318	77.99
253.535	45.23
253.752	-8.02
253.968	-8.02
254.185	8.36
254.401	41.13
254.618	45.23
254.835	6.31
255.051	26.79
255.268	75.95
255.484	75.95
255.701	2.22
255.917	65.71
256.134	-18.26
256.351	32.94
256.567	30.89
256.784	16.55
257	43.18
257.217	-12.12
257.433	8.36
257.65	98.47
257.866	47.27
258.082	90.28
258.299	94.38
258.515	112.81
258.732	12.46
258.948	-3.93
259.165	123.05
259.381	-44.88
259.597	63.66
259.814	82.09
260.03	18.6
260.246	59.56
260.463	8.36
260.679	65.71
260.895	28.84
261.112	-12.12
261.328	-28.5
261.544	24.75
261.761	90.28
261.977	67.75
262.193	22.7
262.409	14.51
262.626	39.08
262.842	8.36
263.058	18.6
263.274	98.47
263.49	51.37
263.707	63.66
263.923	41.13
264.139	-24.4
264.355	63.66
264.571	53.42
264.787	77.99
265.004	73.9
265.22	16.55
265.436	0.17
265.652	12.46
265.868	77.99
266.084	-14.17
266.3	-28.5
266.516	30.89
266.732	-14.17
266.948	49.32
267.164	-10.07
267.38	151.72
267.596	-5.97
267.812	41.13
268.028	71.85
268.244	18.6
268.46	6.31
268.676	80.04
268.892	86.19
269.108	-24.4
269.324	88.23
269.54	8.36
269.756	37.03
269.972	-16.21
270.188	37.03
270.403	22.7
270.619	16.55
270.835	34.99
271.051	0.17
271.267	-5.97
271.483	32.94
271.698	88.23
271.914	59.56
272.13	-24.4
272.346	71.85
272.562	100.52
272.777	166.06
272.993	28.84
273.209	57.51
273.425	106.67
273.64	-5.97
273.856	57.51
274.072	41.13
274.287	26.79
274.503	94.38
274.719	34.99
274.934	73.9
275.15	41.13
275.366	65.71
275.581	-34.64
275.797	63.66
276.012	98.47
276.228	4.27
276.444	4.27
276.659	61.61
276.875	-10.07
277.09	55.47
277.306	14.51
277.521	-20.31
277.737	100.52
277.952	12.46
278.168	22.7
278.383	28.84
278.599	20.65
278.814	84.14
279.03	12.46
279.245	90.28
279.461	63.66
279.676	61.61
279.892	2.22
280.107	-20.31
280.322	24.75
280.538	71.85
280.753	-32.6
280.969	8.36
281.184	55.47
281.399	37.03
281.615	45.23
281.83	94.38
282.045	39.08
282.26	8.36
282.476	32.94
282.691	106.67
282.906	57.51
283.122	8.36
283.337	34.99
283.552	-5.97
283.767	30.89
283.983	94.38
284.198	28.84
284.413	84.14
284.628	14.51
284.843	98.47
285.058	14.51
285.274	18.6
285.489	18.6
285.704	45.23
285.919	20.65
286.134	37.03
286.349	73.9
286.564	49.32
286.779	-14.17
286.995	28.84
287.21	-12.12
287.425	108.71
287.64	86.19
287.855	26.79
288.07	-24.4
288.285	98.47
288.5	37.03
288.715	57.51
288.93	26.79
289.145	49.32
289.36	94.38
289.575	47.27
289.79	59.56
290.004	45.23
290.219	-12.12
290.434	75.95
290.649	8.36
290.864	14.51
291.079	12.46
291.294	77.99
291.509	8.36
291.724	18.6
291.938	16.55
292.153	61.61
292.368	-46.93
292.583	39.08
292.798	-42.84
293.012	2.22
293.227	49.32
293.442	53.42
293.657	-12.12
293.871	106.67
294.086	16.55
294.301	55.47
294.516	26.79
294.73	16.55
294.945	12.46
295.16	45.23
295.374	65.71
295.589	55.47
295.804	12.46
296.018	61.61
296.233	106.67
296.447	98.47
296.662	32.94
296.877	145.58
297.091	100.52
297.306	45.23
297.52	73.9
297.735	45.23
297.949	47.27
298.164	69.8
298.378	110.76
298.593	-20.31
298.807	32.94
299.022	94.38
299.236	57.51
299.451	90.28
299.665	-5.97
299.88	77.99
300.094	75.95
300.309	41.13
300.523	-14.17
300.737	49.32
300.952	118.95
301.166	77.99
301.381	49.32
301.595	37.03
301.809	63.66
302.024	39.08
302.238	-20.31
302.452	94.38
302.667	49.32
302.881	102.57
303.095	65.71
303.309	14.51
303.524	24.75
303.738	73.9
303.952	82.09
304.166	14.51
304.381	32.94
304.595	80.04
304.809	18.6
305.023	39.08
305.237	16.55
305.452	26.79
305.666	30.89
305.88	8.36
306.094	12.46
306.308	108.71
306.522	65.71
306.736	37.03
306.95	98.47
307.164	69.8
307.379	14.51
307.593	65.71
307.807	135.34
308.021	65.71
308.235	49.32
308.449	43.18
308.663	-32.6
308.877	67.75
309.091	82.09
309.305	73.9
309.519	34.99
309.733	106.67
309.947	47.27
310.161	104.62
310.374	41.13
310.588	90.28
310.802	49.32
311.016	24.75
311.23	141.48
311.444	43.18
311.658	12.46
311.872	-5.97
312.085	80.04
312.299	127.14
312.513	65.71
312.727	45.23
312.941	12.46
313.154	39.08
313.368	73.9
313.582	133.29
313.796	43.18
314.009	-22.36
314.223	24.75
314.437	59.56
314.651	67.75
314.864	32.94
315.078	47.27
315.292	0.17
315.505	39.08
315.719	73.9
315.933	73.9
316.146	39.08
316.36	24.75
316.573	104.62
316.787	77.99
317.001	98.47
317.214	-26.45
317.428	75.95
317.641	12.46
317.855	51.37
318.068	63.66
318.282	98.47
318.495	63.66
318.709	2.22
318.922	39.08
319.136	37.03
319.349	164.01
319.563	22.7
319.776	-8.02
319.99	20.65
320.203	6.31
320.417	-8.02
320.63	-8.02
320.843	45.23
321.057	104.62
321.27	16.55
321.483	34.99
321.697	75.95
321.91	30.89
322.124	61.61
322.337	10.41
322.55	63.66
322.763	59.56
322.977	112.81
323.19	49.32
323.403	108.71
323.617	110.76
323.83	102.57
324.043	16.55
324.256	26.79
324.469	51.37
324.683	39.08
324.896	67.75
325.109	32.94
325.322	-36.69
325.535	45.23
325.748	63.66
325.962	100.52
326.175	94.38
326.388	30.89
326.601	84.14
326.814	88.23
327.027	8.36
327.24	67.75
327.453	18.6
327.666	37.03
327.879	30.89
328.092	59.56
328.305	49.32
328.518	-20.31
328.731	-3.93
328.944	20.65
329.157	114.86
329.37	55.47
329.583	65.71
329.796	-10.07
330.009	32.94
330.222	96.43
330.435	55.47
330.648	88.23
330.861	39.08
331.073	77.99
331.286	65.71
331.499	-16.21
331.712	34.99
331.925	67.75
332.138	8.36
332.35	55.47
332.563	39.08
332.776	75.95
332.989	-10.07
333.202	82.09
333.414	61.61
333.627	71.85
333.84	45.23
334.053	106.67
334.265	104.62
334.478	71.85
334.691	37.03
334.903	2.22
335.116	80.04
335.329	65.71
335.541	69.8
335.754	45.23
335.966	4.27
336.179	-5.97
336.392	80.04
336.604	34.99
336.817	98.47
337.029	100.52
337.242	80.04
337.454	127.14
337.667	12.46
337.88	49.32
338.092	34.99
338.305	143.53
338.517	47.27
338.729	55.47
338.942	102.57
339.154	34.99
339.367	63.66
339.579	-5.97
339.792	-16.21
340.004	110.76
340.217	30.89
340.429	73.9
340.641	-40.79
340.854	32.94
341.066	39.08
341.278	63.66
341.491	80.04
341.703	164.01
341.915	37.03
342.128	65.71
342.34	65.71
342.552	-36.69
342.764	57.51
342.977	94.38
343.189	75.95
343.401	26.79
343.613	-14.17
343.826	49.32
344.038	22.7
344.25	28.84
344.462	39.08
344.674	110.76
344.886	30.89
345.099	6.31
345.311	26.79
345.523	84.14
345.735	-61.27
345.947	34.99
346.159	98.47
346.371	102.57
346.583	37.03
346.795	-3.93
347.007	51.37
347.219	53.42
347.431	110.76
347.643	67.75
347.855	4.27
348.067	84.14
348.279	-1.88
348.491	41.13
348.703	80.04
348.915	61.61
349.127	41.13
349.339	37.03
349.551	47.27
349.763	53.42
349.975	-32.6
350.187	10.41
350.399	102.57
350.61	-16.21
350.822	26.79
351.034	20.65
351.246	53.42
351.458	57.51
351.669	34.99
351.881	121
352.093	41.13
352.305	16.55
352.517	84.14
352.728	133.29
352.94	80.04
353.152	77.99
353.363	37.03
353.575	59.56
353.787	77.99
353.999	53.42
354.21	106.67
354.422	88.23
354.633	73.9
354.845	51.37
355.057	37.03
355.268	106.67
355.48	59.56
355.692	37.03
355.903	32.94
356.115	16.55
356.326	-28.5
356.538	26.79
356.749	82.09
356.961	131.24
357.172	39.08
357.384	135.34
357.595	57.51
357.807	49.32
358.018	24.75
358.23	108.71
358.441	28.84
358.653	125.1
358.864	43.18
359.075	102.57
359.287	65.71
359.498	57.51
359.709	88.23
359.921	116.9
360.132	24.75
360.344	26.79
360.555	8.36
360.766	135.34
360.977	51.37
361.189	164.01
361.4	-1.88
361.611	0.17
361.823	98.47
362.034	-32.6
362.245	69.8
362.456	90.28
362.667	49.32
362.879	41.13
363.09	0.17
363.301	37.03
363.512	-20.31
363.723	20.65
363.935	20.65
364.146	47.27
364.357	-51.03
364.568	63.66
364.779	55.47
364.99	75.95
365.201	45.23
365.412	26.79
365.623	32.94
365.834	34.99
366.045	30.89
366.256	100.52
366.467	69.8
366.678	145.58
366.889	53.42
367.1	8.36
367.311	-20.31
367.522	-12.12
367.733	71.85
367.944	67.75
368.155	51.37
368.366	100.52
368.577	94.38
368.788	75.95
368.999	8.36
369.209	94.38
369.42	102.57
369.631	102.57
369.842	100.52
370.053	39.08
370.264	88.23
370.474	41.13
370.685	-24.4
370.896	41.13
371.107	102.57
371.317	53.42
371.528	57.51
371.739	55.47
371.95	88.23
372.16	75.95
372.371	24.75
372.582	69.8
372.792	84.14
373.003	-10.07
373.214	39.08
373.424	137.38
373.635	2.22
373.846	65.71
374.056	86.19
374.267	59.56
374.477	63.66
374.688	51.37
374.898	34.99
375.109	73.9
375.319	88.23
375.53	129.19
375.74	32.94
375.951	82.09
376.161	86.19
376.372	39.08
376.582	53.42
376.793	90.28
377.003	94.38
377.214	100.52
377.424	53.42
377.635	0.17
377.845	65.71
378.055	108.71
378.266	-10.07
378.476	43.18
378.686	63.66
378.897	14.51
379.107	34.99
379.317	94.38
379.528	65.71
379.738	82.09
379.948	90.28
380.158	88.23
380.369	86.19
380.579	125.1
380.789	32.94
380.999	100.52
381.21	39.08
381.42	133.29
381.63	86.19
381.84	67.75
382.05	53.42
382.261	131.24
382.471	37.03
382.681	106.67
382.891	47.27
383.101	67.75
383.311	32.94
383.521	112.81
383.731	65.71
383.941	32.94
384.151	14.51
384.361	37.03
384.571	69.8
384.781	47.27
384.991	39.08
385.201	168.1
385.411	63.66
385.621	86.19
385.831	77.99
386.041	53.42
386.251	151.72
386.461	118.95
386.671	77.99
386.881	82.09
387.091	59.56
387.301	135.34
387.511	88.23
387.72	77.99
387.93	73.9
388.14	65.71
388.35	-3.93
388.56	116.9
388.769	104.62
388.979	114.86
389.189	34.99
389.399	20.65
389.609	100.52
389.818	84.14
390.028	88.23
390.238	57.51
390.447	65.71
390.657	102.57
390.867	-10.07
391.076	100.52
391.286	116.9
391.496	123.05
391.705	53.42
391.915	37.03
392.125	86.19
392.334	82.09
392.544	139.43
392.753	121
392.963	12.46
393.172	41.13
393.382	-89.94
393.591	129.19
393.801	39.08
394.01	159.91
394.22	34.99
394.429	73.9
394.639	49.32
394.848	82.09
395.058	57.51
395.267	61.61
395.477	125.1
395.686	92.33
395.895	194.73
396.105	123.05
396.314	69.8
396.524	159.91
396.733	161.96
396.942	194.73
397.152	18.6
397.361	106.67
397.57	57.51
397.78	53.42
397.989	133.29
398.198	157.86
398.407	121
398.617	131.24
398.826	88.23
399.035	153.77
399.244	149.67
399.453	104.62
399.663	139.43
399.872	106.67
400.081	77.99
400.29	67.75
400.499	131.24
400.708	143.53
400.917	137.38
401.127	51.37
401.336	69.8
401.545	114.86
401.754	157.86
401.963	135.34
402.172	71.85
402.381	45.23
402.59	98.47
402.799	106.67
403.008	139.43
403.217	106.67
403.426	96.43
403.635	108.71
403.844	135.34
404.053	166.06
404.262	178.34
404.471	118.95
404.68	223.4
404.888	245.93
405.097	157.86
405.306	184.49
405.515	188.58
405.724	135.34
405.933	143.53
406.142	182.44
406.35	207.02
406.559	200.87
406.768	149.67
406.977	182.44
407.185	108.71
407.394	176.3
407.603	215.21
407.812	118.95
408.02	188.58
408.229	215.21
408.438	174.25
408.646	239.78
408.855	323.75
409.064	213.16
409.272	209.06
409.481	239.78
409.69	274.6
409.898	202.92
410.107	252.07
410.315	268.45
410.524	202.92
410.733	340.13
410.941	252.07
411.15	264.36
411.358	258.21
411.567	364.71
411.775	297.13
411.984	403.62
412.192	338.09
412.401	274.6
412.609	368.81
412.818	438.44
413.026	440.48
413.234	430.24
413.443	405.67
413.651	473.25
413.86	487.59
414.068	481.44
414.276	452.77
414.485	442.53
414.693	587.94
414.901	555.17
415.11	534.69
415.318	542.88
415.526	624.8
415.734	673.95
415.943	596.13
416.151	719.01
416.359	735.39
416.567	676
416.776	663.71
416.984	725.15
417.192	811.17
417.4	745.63
417.608	790.69
417.817	858.27
418.025	819.36
418.233	946.33
418.441	856.22
418.649	870.56
418.857	936.09
419.065	1032.35
419.273	1071.26
419.481	1022.11
419.689	1075.35
419.897	1144.99
420.105	1099.93
420.313	1110.17
420.521	1228.95
420.729	1292.44
420.937	1327.25
421.145	1366.17
421.353	1446.04
421.561	1511.57
421.769	1525.91
421.977	1609.87
422.185	1605.78
422.393	1720.46
422.601	1876.11
422.809	1786
423.017	1704.08
423.224	1851.53
423.432	1984.65
423.64	2009.23
423.848	2181.26
424.056	2050.19
424.263	2312.33
424.471	2111.63
424.679	2361.48
424.887	2453.64
425.094	2486.4
425.302	2582.66
425.51	2553.99
425.718	2693.25
425.925	2582.66
426.133	2771.07
426.341	2990.21
426.548	3080.32
426.756	3190.91
426.964	3199.1
427.171	3338.36
427.379	3324.02
427.586	3336.31
427.794	3463.29
428.001	3760.24
428.209	3858.54
428.417	3825.78
428.624	4122.73
428.832	3909.74
429.039	4063.34
429.247	4038.77
429.454	4245.61
429.662	4679.78
429.869	4472.93
430.076	4712.55
430.284	4538.47
430.491	4884.58
430.699	5124.19
430.906	5101.66
431.114	4946.02
431.321	5216.35
431.528	5478.49
431.736	5681.24
431.943	5931.09
432.15	5814.35
432.358	5918.8
432.565	6348.87
432.772	6242.38
432.979	6727.75
433.187	6520.9
433.394	6664.26
433.601	7192.64
433.808	7249.98
434.016	7254.08
434.223	7583.8
434.43	7999.54
434.637	7745.59
434.844	8284.2
435.052	8265.77
435.259	8267.82
435.466	8321.07
435.673	8327.21
435.88	8808.48
436.087	9324.57
436.294	9322.52
436.501	9056.29
436.708	9134.11
436.915	9365.53
437.122	10014.74
437.329	10063.89
437.537	10436.62
437.743	10410
437.95	10455.05
438.157	11124.74
438.364	11245.57
438.571	11143.17
438.778	11317.25
438.985	12287.98
439.192	11859.96
439.399	12371.95
439.606	11894.77
439.813	12746.73
440.02	13662.17
440.227	13297.63
440.433	13201.38
440.64	13443.04
440.847	13623.26
441.054	13881.3
441.261	14735.31
441.467	14575.56
441.674	14637
441.881	15273.92
442.088	15374.27
442.294	15097.8
442.501	15603.64
442.708	15800.25
442.914	16521.13
443.121	17151.91
443.328	16682.92
443.534	17940.38
443.741	17475.49
443.948	17137.57
444.154	18472.85
444.361	18263.96
444.568	18579.34
444.774	18554.77
444.981	18614.16
445.187	19214.21
445.394	20152.18
445.6	19574.66
445.807	21843.81
446.013	20682.61
446.22	21122.92
446.426	21944.16
446.633	22032.22
446.839	22826.83
447.046	21950.3
447.252	23390.02
447.459	23197.51
447.665	23062.35
447.871	23932.73
448.078	25151.27
448.284	23904.06
448.491	24383.29
448.697	25235.24
448.903	26064.67
449.11	25667.36
449.316	25429.8
449.522	25661.22
449.728	26765.07
449.935	26617.62
450.141	26492.69
450.347	27352.84
450.553	26371.86
450.76	27008.78
450.966	27477.77
451.172	27027.21
451.378	27696.9
451.584	27326.22
451.791	28135.17
451.997	27578.12
452.203	27948.8
452.409	28473.08
452.615	28135.17
452.821	27076.37
453.027	26326.81
453.233	28028.67
453.44	26752.79
453.646	27223.82
453.852	27356.94
454.058	27856.64
454.264	26634
454.47	27305.74
454.676	26760.98
454.882	27578.12
455.088	25319.21
455.294	25452.33
455.5	25741.09
455.705	26001.18
455.911	24913.71
456.117	24448.82
456.323	24272.7
456.529	22519.64
456.735	23529.28
456.941	23095.11
457.147	22714.19
457.352	21933.92
457.558	21665.63
457.764	21831.52
457.97	21507.94
458.176	20756.33
458.381	20766.57
458.587	19849.08
458.793	19668.86
458.999	18755.47
459.204	19881.85
459.41	19685.25
459.616	18157.46
459.821	18024.34
460.027	18378.64
460.233	17977.24
460.438	16820.14
460.644	17117.09
460.85	16179.12
461.055	16138.16
461.261	16048.05
461.466	14585.8
461.672	14335.95
461.878	15466.43
462.083	14393.3
462.289	14262.23
462.494	14274.51
462.7	13156.32
462.905	12924.9
463.111	13572.06
463.316	13557.72
463.522	13131.75
463.727	13420.51
463.932	13342.69
464.138	13264.86
464.343	13113.31
464.549	12912.61
464.754	13107.17
464.959	13088.74
465.165	13078.5
465.37	12488.68
465.575	12107.76
465.781	12433.39
465.986	12625.9
466.191	12285.94
466.397	11958.26
466.602	11552.76
466.807	11939.83
467.012	12029.94
467.218	11868.15
467.423	11542.52
467.628	11747.32
467.833	11925.49
468.038	11737.08
468.244	11427.84
468.449	11831.29
468.654	11421.69
468.859	11350.01
469.064	11214.85
469.269	10928.13
469.474	10817.54
469.679	11253.76
469.885	10749.96
470.09	10854.41
470.295	10950.66
470.5	10833.93
470.705	10649.61
470.91	10330.13
471.115	10305.55
471.32	10350.6
471.525	10493.96
471.73	10301.45
471.935	10254.35
472.139	9902.1
472.344	9961.49
472.549	9711.64
472.754	9748.5
472.959	9535.51
473.164	9044
473.369	9314.33
473.574	9533.47
473.778	9336.86
473.983	9388.06
474.188	9297.95
474.393	8957.99
474.598	8910.88
474.802	8769.57
475.007	8826.92
475.212	8917.03
475.417	8542.25
475.621	8521.77
475.826	8511.53
476.031	8362.03
476.235	8194.09
476.44	8239.15
476.645	8056.88
476.849	8075.31
477.054	8134.7
477.259	7895.09
477.463	7874.61
477.668	7653.43
477.872	7864.37
478.077	7890.99
478.282	7532.6
478.486	7438.39
478.691	7499.83
478.895	7411.77
479.1	7327.8
479.304	7465.02
479.509	7163.97
479.713	7374.91
479.918	7104.57
480.122	7036.99
480.326	7090.24
480.531	6998.08
480.735	6924.35
480.94	7125.05
481.144	7196.73
481.348	6834.24
481.553	6895.68
481.757	6846.53
481.961	6998.08
482.166	6901.83
482.37	6834.24
482.574	6885.44
482.778	6692.93
482.983	7153.73
483.187	6862.91
483.391	6955.07
483.595	6817.86
483.8	6778.95
484.004	6940.74
484.208	6887.49
484.412	6805.57
484.616	6881.35
484.821	6787.14
485.025	6676.55
485.229	6864.96
485.433	6750.28
485.637	7024.7
485.841	6752.32
486.045	6637.64
486.249	6729.8
486.453	6795.33
486.657	6754.37
486.861	6774.85
487.065	6694.98
487.269	6801.47
487.473	6754.37
487.677	6869.06
487.881	6922.31
488.085	6877.25
488.289	6762.56
488.493	6776.9
488.697	7063.61
488.901	6907.97
489.105	6873.15
489.309	6848.58
489.512	6617.16
489.716	6877.25
489.92	6885.44
490.124	6893.63
490.328	7108.67
490.531	6891.59
490.735	7209.02
490.939	7036.99
491.143	6924.35
491.346	7061.57
491.55	7190.59
491.754	6991.94
491.958	7110.72
492.161	7090.24
492.365	7088.19
492.569	7241.79
492.772	7147.58
492.976	7233.6
493.18	7166.01
493.383	7477.3
493.587	7446.59
493.79	7458.87
493.994	7477.3
494.197	7610.42
494.401	7649.33
494.605	7551.03
494.808	7852.08
495.012	7696.44
495.215	7737.4
495.419	7868.47
495.622	7761.97
495.825	8050.74
496.029	8013.87
496.232	8263.72
496.436	8183.85
496.639	8202.29
496.843	8384.55
497.046	8294.44
497.249	8593.45
497.453	8470.57
497.656	8544.3
497.859	8538.15
498.063	8691.75
498.266	8939.55
498.469	8933.41
498.673	8947.75
498.876	9140.26
499.079	9197.6
499.282	9302.04
499.485	9551.9
499.689	9480.22
499.892	9568.28
500.095	9668.63
500.298	9816.08
500.501	9723.93
500.705	10027.03
500.908	10450.96
501.111	10123.28
501.314	10174.48
501.517	10625.03
501.72	10805.25
501.923	10747.91
502.126	10745.86
502.329	10977.28
502.532	10840.07
502.735	11100.16
502.938	11319.29
503.141	11231.23
503.344	11462.65
503.547	11571.19
503.75	11726.84
503.953	12120.05
504.156	11890.68
504.359	12099.57
504.562	12380.14
504.765	12525.55
504.968	12560.36
505.17	12642.28
505.373	12699.62
505.576	13168.61
505.779	13271.01
505.982	13197.28
506.185	13424.61
506.387	13428.7
506.59	13653.98
506.793	14022.61
506.996	13897.69
507.198	14206.93
507.401	14075.86
507.604	14532.56
507.807	14704.59
508.009	14776.27
508.212	14860.23
508.415	15169.48
508.617	15151.04
508.82	15269.83
509.022	15437.76
509.225	15742.91
509.428	15802.3
509.63	15859.64
509.833	16142.26
510.035	16224.18
510.238	16209.84
510.44	16730.03
510.643	16740.27
510.845	17153.96
511.048	16918.44
511.25	17059.75
511.453	17434.53
511.655	17889.18
511.858	17635.23
512.06	17891.23
512.262	18214.8
512.465	18075.54
512.667	18509.71
512.87	18894.73
513.072	18696.08
513.274	18884.49
513.477	19324.8
513.679	19439.49
513.881	19689.34
514.084	19588.99
514.286	19761.02
514.488	19943.29
514.69	20316.02
514.893	20576.11
515.095	20506.48
515.297	20979.56
515.499	21008.23
515.701	21297
515.904	21471.08
516.106	21821.28
516.308	21755.74
516.51	21925.72
516.712	22175.58
516.914	22566.74
517.116	22869.84
517.318	22837.07
517.52	23105.35
517.722	23193.42
517.925	23443.27
518.127	23865.15
518.329	23811.9
518.531	23752.51
518.733	24323.9
518.935	24495.92
519.136	24731.44
519.338	25095.98
519.54	24923.95
519.742	25536.29
519.944	25431.85
520.146	26044.19
520.348	25823.01
520.55	26582.81
520.752	26672.92
520.954	26806.03
521.155	26801.94
521.357	27367.18
521.559	27365.13
521.761	27866.88
521.963	27623.17
522.164	28206.84
522.366	27885.31
522.568	28733.17
522.77	28272.38
522.971	28970.74
523.173	28487.42
523.375	29034.22
523.576	29181.68
523.778	29331.18
523.98	29546.22
524.181	29667.05
524.383	29908.71
524.584	30160.61
524.786	30422.75
524.988	30551.77
525.189	30719.7
525.391	30887.64
525.592	30975.7
525.794	31276.75
525.995	31270.61
526.197	31659.72
526.398	31782.6
526.6	31979.2
526.801	32163.52
527.003	32349.89
527.204	32204.48
527.406	32366.27
527.607	32063.17
527.808	32575.16
528.01	32202.43
528.211	32779.96
528.412	33384.11
528.614	33017.52
528.815	32872.12
529.016	33562.28
529.218	32943.8
529.419	33386.16
529.62	33607.34
529.822	33238.7
530.023	33593
530.224	33646.25
530.425	33715.88
530.626	33275.57
530.828	33593
531.029	34367.13
531.23	33857.19
531.431	33822.37
531.632	34496.16
531.833	34129.57
532.035	34088.61
532.236	34307.74
532.437	34584.22
532.638	34315.94
532.839	34686.62
533.04	35088.02
533.241	34133.67
533.442	34879.13
533.643	34840.22
533.844	34766.49
534.045	34983.57
534.246	34500.25
534.447	35088.02
534.648	34600.6
534.849	34838.17
535.05	34872.98
535.251	34803.35
535.451	35092.12
535.652	34911.89
535.853	34842.26
536.054	35210.9
536.255	34770.58
536.456	34608.79
536.657	35333.78
536.857	35079.83
537.058	34707.1
537.259	35487.37
537.46	35118.74
537.66	35325.58
537.861	35165.84
538.062	35270.29
538.263	35092.12
538.463	34537.12
538.664	35311.25
538.865	35270.29
539.065	35524.24
539.266	34909.85
539.466	35071.64
539.667	34612.89
539.868	35948.17
540.068	34870.93
540.269	35096.21
540.469	35516.04
540.67	34895.51
540.87	34887.32
541.071	35049.11
541.271	35405.45
541.472	34719.38
541.672	34932.37
541.873	34770.58
542.073	34621.08
542.274	35206.8
542.474	34952.85
542.675	34754.2
542.875	35057.3
543.075	34825.88
543.276	34639.51
543.476	35288.72
543.676	34741.91
543.877	34961.05
544.077	35032.72
544.277	35045.01
544.478	35049.11
544.678	35092.12
544.878	34975.38
545.078	34938.52
545.279	35008.15
545.479	34578.08
545.679	34967.19
545.879	35045.01
546.079	35028.63
546.28	34975.38
546.48	34635.42
546.68	34754.2
546.88	34821.78
547.08	34842.26
547.28	34457.24
547.48	34383.52
547.68	34453.15
547.88	34453.15
548.081	34946.71
548.281	34985.62
548.481	34862.74
548.681	34846.36
548.881	34696.86
549.081	34334.37
549.28	34320.03
549.48	35190.42
549.68	34774.68
549.88	35104.4
550.08	34678.43
550.28	34737.82
550.48	34545.31
550.68	34901.65
550.88	34705.05
551.08	34610.84
551.279	34793.11
551.479	34434.72
551.679	34674.33
551.879	34500.25
552.079	34553.5
552.278	34674.33
552.478	34813.59
552.678	34217.63
552.878	34371.23
553.077	34391.71
553.277	34334.37
553.477	34866.84
553.676	34424.48
553.876	34332.32
554.076	34297.5
554.275	33982.12
554.475	33828.52
554.674	34385.57
554.874	34539.16
555.074	34141.86
555.273	34338.46
555.473	34307.74
555.672	34027.17
555.872	33861.29
556.071	34123.43
556.271	34080.42
556.47	33851.05
556.67	33771.18
556.869	33715.88
557.068	34145.95
557.268	33703.59
557.467	33752.74
557.667	33556.14
557.866	33646.25
558.065	33212.08
558.265	33177.26
558.464	33648.3
558.663	33701.54
558.863	32872.12
559.062	33670.82
559.261	32949.94
559.461	33394.35
559.66	32896.69
559.859	33279.66
560.058	32925.36
560.258	33263.28
560.457	32810.68
560.656	32921.27
560.855	32648.89
561.054	32880.31
561.253	32304.83
561.453	32804.53
561.652	32577.21
561.851	32609.98
562.05	32425.66
562.249	32198.34
562.448	32390.84
562.647	32011.97
562.846	32153.28
563.045	31991.49
563.244	32048.83
563.443	32044.74
563.642	31815.37
563.841	31833.8
564.04	31694.54
564.239	32022.21
564.438	31114.96
564.637	31610.57
564.836	31461.07
565.035	31332.04
565.234	31547.08
565.432	31264.46
565.631	30959.31
565.83	31112.91
566.029	31254.22
566.228	30914.26
566.427	30514.91
566.625	30731.99
566.824	30287.58
567.023	30799.57
567.222	30289.63
567.42	30682.84
567.619	30566.1
567.818	30117.6
568.016	29912.8
568.215	30396.12
568.414	30129.89
568.612	30179.04
568.811	29918.95
569.01	29875.94
569.208	29101.81
569.407	29683.43
569.605	29200.11
569.804	29929.19
570.002	29220.59
570.201	29191.92
570.4	29028.08
570.598	28763.89
570.797	29005.55
570.995	29122.29
571.193	28321.53
571.392	29011.7
571.59	28749.56
571.789	28430.07
571.987	28761.84
572.186	28143.36
572.384	27776.77
572.582	28321.53
572.781	28237.56
572.979	27940.61
573.177	28106.49
573.376	28194.56
573.574	27721.48
573.772	27807.49
573.971	27483.91
574.169	27371.27
574.367	27254.54
574.565	27404.04
574.763	27363.08
574.962	27252.49
575.16	26973.97
575.358	27346.7
575.556	26644.24
575.754	27447.05
575.952	26758.93
576.151	26605.33
576.349	26375.96
576.547	26504.98
576.745	26724.11
576.943	26283.8
577.141	26310.43
577.339	26289.95
577.537	26281.75
577.735	26050.33
577.933	25683.75
578.131	26076.96
578.329	25904.93
578.527	25759.52
578.725	25659.17
578.923	26201.88
579.121	25511.72
579.319	25560.87
579.516	25569.06
579.714	25298.73
579.912	25081.64
580.11	25327.4
580.308	25106.22
580.506	25098.03
580.704	24944.43
580.901	24719.15
581.099	25077.55
581.297	24684.34
581.495	25071.4
581.692	24878.9
581.89	24569.65
582.088	24549.17
582.285	24301.37
582.483	24801.07
582.681	24500.02
582.878	24172.35
583.076	23801.66
583.274	23895.87
583.471	23828.29
583.669	24000.32
583.866	24254.26
584.064	24110.91
584.262	23660.35
584.459	23809.86
584.657	23463.75
584.854	23629.63
585.052	23265.1
585.249	23762.75
585.447	23170.89
585.644	23273.29
585.841	23195.46
586.039	23174.99
586.236	22886.22
586.434	22951.76
586.631	22732.62
586.828	23052.11
587.026	22720.34
587.223	22964.04
587.42	22507.35
587.618	22882.13
587.815	22546.26
588.012	22351.7
588.21	22320.98
588.407	22605.65
588.604	22087.51
588.801	22181.72
588.999	22013.79
589.196	22005.59
589.393	21929.82
589.59	21679.97
589.787	21839.71
589.984	21913.44
590.182	21321.57
590.379	21729.12
590.576	21376.87
590.773	21399.4
590.97	21428.07
591.167	21649.25
591.364	21225.32
591.561	21180.26
591.758	21075.82
591.955	20954.99
592.152	21161.83
592.349	20987.75
592.546	20787.05
592.743	20770.67
592.94	20262.77
593.137	20705.13
593.334	20537.2
593.531	20316.02
593.727	20705.13
593.924	20619.12
594.121	20150.14
594.318	20463.47
594.515	20154.23
594.712	20273.01
594.908	20012.92
595.105	20021.11
595.302	20002.68
595.499	20033.4
595.696	19888
595.892	19789.69
596.089	19734.4
596.286	19771.26
596.482	19992.44
596.679	19459.97
596.876	19754.88
597.072	19601.28
597.269	19699.58
597.466	19349.38
597.662	19328.9
597.859	19015.56
598.055	19218.31
598.252	19107.72
598.448	19128.2
598.645	18880.39
598.841	19273.6
599.038	19109.77
599.234	18915.21
599.431	18843.53
599.627	18595.73
599.824	18765.71
600.02	18642.83
600.217	18657.17
600.413	18456.47
600.609	18395.03
600.806	18075.54
601.002	18386.83
601.198	18134.93
601.395	18345.87
601.591	18227.09
601.787	18190.23
601.984	17987.48
602.18	18096.02
602.376	18065.3
602.572	17725.34
602.769	17971.1
602.965	17704.86
603.161	17639.33
603.357	17541.02
603.553	17629.09
603.75	17530.78
603.946	17481.63
604.142	17586.08
604.338	17225.64
604.534	17430.43
604.73	17469.34
604.926	16986.02
605.122	17317.79
605.318	17026.98
605.514	17067.94
605.71	16891.82
605.906	16986.02
606.102	16746.41
606.298	16912.3
606.494	16910.25
606.69	17059.75
606.886	16754.6
607.082	16631.72
607.278	16766.89
607.474	16388.02
607.67	16549.81
607.866	16248.75
608.062	16353.2
608.257	16203.7
608.453	16236.47
608.649	16496.56
608.845	15939.51
609.041	16338.87
609.236	16275.38
609.432	16138.16
609.628	16433.07
609.824	15945.66
610.019	15910.84
610.215	16078.77
610.411	16027.57
610.606	15734.71
610.802	15843.26
610.998	16023.48
611.193	16039.86
611.389	15816.63
611.584	15744.95
611.78	15435.71
611.976	15759.29
612.171	15744.95
612.367	15622.08
612.562	15374.27
612.758	15374.27
612.953	15237.06
613.149	15515.58
613.344	15253.44
613.539	15540.16
613.735	15228.87
613.93	15370.18
614.126	15077.32
614.321	15378.37
614.517	15415.23
614.712	15273.92
614.907	15114.18
615.103	15265.73
615.298	14952.39
615.493	15316.93
615.688	14878.66
615.884	15257.54
616.079	14815.18
616.274	14878.66
616.47	14897.1
616.665	14725.07
616.86	14806.98
617.055	14792.65
617.25	14544.84
617.445	14938.05
617.641	14460.88
617.836	14675.91
618.031	14315.47
618.226	14704.59
618.421	14403.53
618.616	14620.62
618.811	14249.94
619.006	14415.82
619.201	14219.22
619.396	14180.31
619.591	13955.03
619.786	14260.18
619.981	13774.81
620.176	13914.07
620.371	13924.31
620.566	13987.8
620.761	13707.23
620.956	13866.97
621.151	13529.05
621.346	13711.32
621.541	13367.26
621.735	13567.96
621.93	13572.06
622.125	13324.26
622.32	13314.02
622.515	13264.86
622.709	13371.36
622.904	13295.58
623.099	13109.22
623.294	13238.24
623.488	12914.66
623.683	13174.75
623.878	12697.58
624.072	12752.87
624.267	12849.13
624.462	12472.3
624.656	12560.36
624.851	12255.22
625.046	12455.92
625.24	12402.67
625.435	12433.39
625.629	12271.6
625.824	12232.69
626.018	12208.11
626.213	11945.97
626.407	11945.97
626.602	11806.71
626.796	11929.59
626.991	11884.53
627.185	11687.93
627.38	11526.14
627.574	11771.9
627.768	11501.56
627.963	11509.76
628.157	11358.21
628.352	11440.12
628.546	11040.77
628.74	11395.07
628.935	10913.8
629.129	11134.98
629.323	10784.77
629.517	11040.77
629.712	10967.04
629.906	10803.21
630.1	10672.14
630.294	10784.77
630.489	10709
630.683	10729.48
630.877	10463.24
631.071	10276.88
631.265	10688.52
631.459	10395.66
631.653	10262.54
631.848	10407.95
632.042	10205.2
632.236	10319.89
632.43	10006.55
632.624	10215.44
632.818	9984.02
633.012	9988.11
633.206	10000.4
633.4	10084.37
633.594	9803.8
633.788	9826.32
633.982	9920.53
634.176	9537.56
634.369	9558.04
634.563	9474.07
634.757	9254.94
634.951	9420.83
635.145	9355.29
635.339	9396.25
635.533	9461.79
635.726	9193.5
635.92	8968.23
636.114	9097.25
636.308	9232.41
636.501	9068.58
636.695	8970.27
636.889	8941.6
637.083	8904.74
637.276	8929.31
637.47	8761.38
637.664	8769.57
637.857	8681.51
638.051	8566.82
638.244	8824.87
638.438	8564.78
638.632	8374.31
638.825	8476.71
639.019	8339.5
639.212	8210.48
639.406	8478.76
639.599	8402.99
639.793	8157.23
639.986	8157.23
640.18	8280.11
640.373	8255.53
640.567	7972.91
640.76	7993.39
640.954	7782.45
641.147	7821.36
641.34	7835.7
641.534	7796.79
641.727	8007.73
641.92	7589.94
642.114	7645.24
642.307	7798.84
642.5	7737.4
642.694	7614.52
642.887	7651.38
643.08	7659.57
643.273	7471.16
643.467	7530.55
643.66	7569.46
643.853	7354.43
644.046	7446.59
644.239	7292.99
644.432	7135.29
644.626	7266.36
644.819	7149.63
645.012	7133.25
645.205	7020.61
645.398	7151.68
645.591	6959.17
645.784	7041.09
645.977	6793.28
646.17	6903.87
646.363	6740.04
646.556	6676.55
646.749	6850.63
646.942	6721.6
647.135	6631.49
647.328	6590.53
647.521	6869.06
647.714	6613.06
647.907	6361.16
648.099	6508.62
648.292	6617.16
648.485	6518.86
648.678	6387.79
648.871	6529.1
649.064	6357.07
649.256	6324.3
649.449	6465.61
649.642	6209.61
649.835	6021.2
650.027	6060.11
650.22	6271.05
650.413	6199.37
650.605	6137.93
650.798	6035.53
650.991	5908.56
651.183	6092.88
651.376	6021.2
651.568	6017.1
651.761	5845.07
651.954	5802.07
652.146	5853.27
652.339	5838.93
652.531	5763.15
652.724	5748.82
652.916	5607.51
653.109	5830.74
653.301	5654.61
653.494	5658.71
653.686	5595.22
653.879	5527.64
654.071	5380.18
654.263	5634.13
654.456	5556.31
654.648	5380.18
654.84	5460.06
655.033	5490.77
655.225	5296.22
655.417	5339.23
655.61	5310.55
655.802	5283.93
655.994	5384.28
656.186	5261.4
656.379	5367.9
656.571	5222.49
656.763	5085.28
656.955	5369.94
657.148	5122.14
657.34	4995.17
657.532	5032.03
657.724	5118.04
657.916	4986.97
658.108	5120.09
658.3	4864.1
658.492	4941.92
658.684	5019.74
658.876	4939.87
659.068	4812.9
659.26	4677.73
659.452	4915.3
659.644	4730.98
659.836	4741.22
660.028	4800.61
660.22	4751.46
660.412	4507.75
660.604	4665.44
660.796	4735.07
660.988	4696.16
661.18	4522.09
661.372	4634.72
661.563	4571.24
661.755	4411.5
661.947	4546.66
662.139	4472.93
662.331	4362.34
662.522	4374.63
662.714	4335.72
662.906	4345.96
663.097	4456.55
663.289	4356.2
663.481	4253.8
663.673	4290.67
663.864	4261.99
664.056	4327.53
664.247	4270.19
664.439	4075.63
664.631	4180.07
664.822	4153.45
665.014	4186.22
665.205	3973.23
665.397	4153.45
665.588	4087.92
665.78	3962.99
665.971	4075.63
666.163	4022.38
666.354	4073.58
666.546	4014.19
666.737	4026.48
666.929	4003.95
667.12	3948.65
667.311	4034.67
667.503	3897.46
667.694	3870.83
667.885	3954.8
668.077	3788.91
668.268	3743.86
668.459	3772.53
668.651	3817.58
668.842	3938.41
669.033	3817.58
669.224	3674.23
669.416	3686.51
669.607	3663.99
669.798	3672.18
669.989	3764.34
670.18	3680.37
670.371	3674.23
670.563	3670.13
670.754	3577.97
670.945	3623.03
671.136	3657.84
671.327	3633.27
671.518	3729.52
671.709	3631.22
671.9	3510.39
672.091	3471.48
672.282	3541.11
672.473	3518.58
672.664	3502.2
672.855	3467.38
673.046	3553.4
673.237	3573.88
673.428	3446.9
673.619	3405.94
673.809	3287.16
674	3455.09
674.191	3395.7
674.382	3369.08
674.573	3412.09
674.764	3397.75
674.954	3319.93
675.145	3440.76
675.336	3426.42
675.527	3403.89
675.717	3362.94
675.908	3356.79
676.099	3285.11
676.289	3385.46
676.48	3285.11
676.671	3258.49
676.861	3258.49
677.052	3176.57
677.243	3276.92
677.433	3203.19
677.624	3291.26
677.814	3201.15
678.005	3297.4
678.195	3217.53
678.386	3135.61
678.576	3229.82
678.767	3125.37
678.957	3262.58
679.148	3190.91
679.338	3289.21
679.529	3223.67
679.719	2969.73
679.909	3203.19
680.1	3094.65
680.29	3190.91
680.481	3170.43
680.671	3166.33
680.861	2969.73
681.052	3176.57
681.242	3065.98
681.432	3307.64
681.622	3164.28
681.813	3065.98
682.003	3104.89
682.193	2996.35
682.383	3035.26
682.573	3061.88
682.764	3197.05
682.954	3039.36
683.144	2963.58
683.334	2998.4
683.524	3078.27
683.714	3029.12
683.904	3074.17
684.094	3008.64
684.284	2934.91
684.474	3195
684.664	3080.32
684.854	3025.02
685.044	3080.32
685.234	2904.19
685.424	3010.68
685.614	2953.34
685.804	3027.07
685.994	2988.16
686.184	3045.5
686.374	3000.44
686.564	2959.49
686.753	2809.98
686.943	2914.43
687.133	2951.29
687.323	2885.76
687.513	2924.67
687.702	2930.81
687.892	2750.59
688.082	2869.37
688.272	2941.05
688.461	2889.85
688.651	2902.14
688.841	2805.89
689.03	2809.98
689.22	2896
689.41	2711.68
689.599	2748.54
689.789	2734.21
689.979	2842.75
690.168	2773.12
690.358	2754.69
690.547	2848.9
690.737	2816.13
690.926	2728.07
691.116	2490.5
691.305	2721.92
691.495	2648.19
691.684	2605.19
691.874	2734.21
692.063	2592.9
692.252	2582.66
692.442	2670.72
692.631	2564.23
692.82	2637.95
693.01	2558.08
693.199	2590.85
693.388	2513.03
693.578	2601.09
693.767	2597
693.956	2627.71
694.146	2482.31
694.335	2519.17
694.524	2537.6
694.713	2574.47
694.902	2586.76
695.092	2609.28
695.281	2592.9
695.47	2535.56
695.659	2539.65
695.848	2519.17
696.037	2537.6
696.226	2547.84
696.415	2472.07
696.604	2541.7
696.793	2535.56
696.982	2486.4
697.171	2547.84
697.36	2543.75
697.549	2592.9
697.738	2535.56
697.927	2406.53
698.116	2533.51
698.305	2547.84
698.494	2457.73
698.683	2418.82
698.872	2553.99
699.061	2474.12
699.25	2490.5
699.438	2517.12
699.627	2535.56
699.816	2527.36
700.005	2484.36
700.193	2510.98
700.382	2517.12
700.571	2437.25
700.76	2506.88
700.948	2523.27
701.137	2441.35
701.326	2408.58
701.514	2351.24
701.703	2500.74
701.892	2388.1
702.08	2496.64
702.269	2459.78
702.457	2519.17
702.646	2537.6
702.834	2453.64
703.023	2465.93
703.212	2484.36
703.4	2584.71
703.589	2531.46
703.777	2443.4
703.965	2408.58
704.154	2615.43
704.342	2355.33
704.531	2390.15
704.719	2506.88
704.907	2545.8
705.096	2379.91
705.284	2484.36
705.472	2484.36
705.661	2396.29
705.849	2549.89
706.037	2472.07
706.226	2525.32
706.414	2527.36
706.602	2353.29
706.79	2523.27
706.979	2406.53
707.167	2519.17
707.355	2486.4
707.543	2353.29
707.731	2611.33
707.919	2431.11
708.107	2467.97
708.296	2500.74
708.484	2543.75
708.672	2556.04
708.86	2482.31
709.048	2447.49
709.236	2508.93
709.424	2498.69
709.612	2519.17
709.8	2605.19
709.988	2506.88
710.176	2472.07
710.364	2384.01
710.551	2513.03
710.739	2455.69
710.927	2470.02
711.115	2547.84
711.303	2547.84
711.491	2531.46
711.679	2410.63
711.866	2527.36
712.054	2553.99
712.242	2461.83
712.43	2470.02
712.617	2578.56
712.805	2351.24
712.993	2523.27
713.181	2531.46
713.368	2457.73
713.556	2513.03
713.744	2527.36
713.931	2513.03
714.119	2441.35
714.306	2506.88
714.494	2527.36
714.682	2543.75
714.869	2453.64
715.057	2529.41
715.244	2517.12
715.432	2560.13
715.619	2472.07
715.807	2531.46
715.994	2543.75
716.182	2531.46
716.369	2443.4
716.556	2543.75
716.744	2568.32
716.931	2451.59
717.119	2490.5
717.306	2508.93
717.493	2498.69
717.681	2470.02
717.868	2523.27
718.055	2547.84
718.242	2502.79
718.43	2504.84
718.617	2566.28
718.804	2467.97
718.991	2392.2
719.179	2359.43
719.366	2396.29
719.553	2433.16
719.74	2631.81
719.927	2461.83
720.114	2373.77
720.301	2447.49
720.488	2390.15
720.676	2463.88
720.863	2474.12
721.05	2453.64
721.237	2510.98
721.424	2578.56
721.611	2513.03
721.798	2480.26
721.985	2410.63
722.172	2553.99
722.358	2476.16
722.545	2521.22
722.732	2445.45
722.919	2420.87
723.106	2367.62
723.293	2480.26
723.48	2537.6
723.667	2328.71
723.853	2500.74
724.04	2455.69
724.227	2445.45
724.414	2363.53
724.6	2519.17
724.787	2463.88
724.974	2457.73
725.161	2570.37
725.347	2439.3
725.534	2482.31
725.72	2472.07
725.907	2478.21
726.094	2543.75
726.28	2570.37
726.467	2480.26
726.653	2410.63
726.84	2519.17
727.027	2467.97
727.213	2400.39
727.4	2381.96
727.586	2424.97
727.773	2441.35
727.959	2470.02
728.145	2396.29
728.332	2435.21
728.518	2379.91
728.705	2510.98
728.891	2353.29
729.077	2539.65
729.264	2500.74
729.45	2420.87
729.636	2480.26
729.823	2404.49
730.009	2480.26
730.195	2476.16
730.382	2523.27
730.568	2306.18
730.754	2437.25
730.94	2414.73
731.126	2400.39
731.313	2398.34
731.499	2472.07
731.685	2519.17
731.871	2408.58
732.057	2457.73
732.243	2416.77
732.429	2312.33
732.615	2334.86
732.801	2410.63
732.987	2384.01
733.173	2394.25
733.359	2406.53
733.545	2474.12
733.731	2361.48
733.917	2465.93
734.103	2445.45
734.289	2453.64
734.475	2404.49
734.661	2414.73
734.847	2412.68
735.033	2379.91
735.219	2388.1
735.404	2388.1
735.59	2424.97
735.776	2371.72
735.962	2304.14
736.148	2412.68
736.333	2384.01
736.519	2351.24
736.705	2451.59
736.89	2381.96
737.076	2334.86
737.262	2355.33
737.447	2472.07
737.633	2355.33
737.819	2332.81
738.004	2334.86
738.19	2322.57
738.375	2195.59
738.561	2324.62
738.747	2357.38
738.932	2324.62
739.118	2318.47
739.303	2310.28
739.489	2314.38
739.674	2369.67
739.859	2297.99
740.045	2326.66
740.23	2246.79
740.416	2171.02
740.601	2300.04
740.786	2373.77
740.972	2191.5
741.157	2361.48
741.342	2156.68
741.528	2220.17
741.713	2300.04
741.898	2388.1
742.084	2216.07
742.269	2263.18
742.454	2185.35
742.639	2121.87
742.824	2123.91
743.01	2107.53
743.195	2164.87
743.38	2154.63
743.565	2228.36
743.75	2250.89
743.935	2074.76
744.12	2144.39
744.305	2117.77
744.49	2101.39
744.675	2158.73
744.86	2091.15
745.045	2095.24
745.23	2175.11
745.415	2056.33
745.6	2042
745.785	2085
745.97	2048.14
746.155	2015.37
746.34	1953.93
746.525	1960.08
746.71	2070.67
746.895	1931.41
747.079	1884.3
747.264	1925.26
747.449	2080.91
747.634	2015.37
747.819	1958.03
748.003	1843.34
748.188	1867.92
748.373	1982.6
748.557	1962.12
748.742	1876.11
748.927	1818.77
749.111	1849.49
749.296	1794.19
749.481	1908.88
749.665	1779.86
749.85	1845.39
750.034	1738.9
750.219	1783.95
750.404	1851.53
750.588	1740.94
750.773	1720.46
750.957	1745.04
751.141	1810.58
751.326	1747.09
751.51	1659.03
751.695	1681.55
751.879	1616.02
752.064	1638.55
752.248	1624.21
752.432	1587.35
752.617	1675.41
752.801	1593.49
752.985	1634.45
753.17	1630.35
753.354	1603.73
753.538	1536.15
753.722	1638.55
753.907	1626.26
754.091	1491.09
754.275	1644.69
754.459	1527.96
754.643	1439.89
754.828	1431.7
755.012	1495.19
755.196	1554.58
755.38	1452.18
755.564	1439.89
755.748	1435.8
755.932	1480.85
756.116	1376.41
756.3	1372.31
756.484	1489.04
756.668	1423.51
756.852	1378.45
757.036	1349.78
757.22	1343.64
757.404	1409.17
757.588	1314.97
757.772	1407.13
757.956	1433.75
758.14	1290.39
758.323	1335.45
758.507	1345.69
758.691	1370.26
758.875	1347.73
759.059	1357.97
759.242	1298.58
759.426	1278.1
759.61	1302.68
759.794	1171.61
759.977	1300.63
760.161	1343.64
760.345	1294.49
760.528	1271.96
760.712	1233.05
760.895	1276.06
761.079	1175.7
761.263	1187.99
761.446	1245.34
761.63	1130.65
761.813	1183.9
761.997	1167.51
762.18	1200.28
762.364	1245.34
762.547	1163.42
762.731	1200.28
762.914	1210.52
763.098	1165.46
763.281	1136.79
763.464	1151.13
763.648	1151.13
763.831	1071.26
764.015	1153.18
764.198	1151.13
764.381	1081.5
764.564	1151.13
764.748	1120.41
764.931	1114.27
765.114	1112.22
765.297	1038.49
765.481	1058.97
765.664	1009.82
765.847	1048.73
766.03	1022.11
766.213	1087.64
766.397	1040.54
766.58	1075.35
766.763	1089.69
766.946	999.58
767.129	1063.07
767.312	1024.16
767.495	1022.11
767.678	989.34
767.861	1056.92
768.044	1013.92
768.227	989.34
768.41	1028.25
768.593	1128.6
768.776	946.33
768.959	966.81
769.142	1038.49
769.324	911.52
769.507	981.15
769.69	970.91
769.873	950.43
770.056	962.72
770.239	1003.68
770.421	903.32
770.604	944.28
770.787	948.38
770.97	919.71
771.152	923.8
771.335	946.33
771.518	936.09
771.7	934.04
771.883	878.75
772.066	835.74
772.248	909.47
772.431	876.7
772.613	917.66
772.796	905.37
772.978	911.52
773.161	950.43
773.343	831.65
773.526	848.03
773.708	837.79
773.891	901.28
774.073	897.18
774.256	786.59
774.438	882.85
774.621	757.92
774.803	821.41
774.985	778.4
775.168	796.83
775.35	731.3
775.532	843.93
775.715	802.97
775.897	854.17
776.079	725.15
776.261	712.86
776.444	817.31
776.626	757.92
776.808	835.74
776.99	749.73
777.173	708.77
777.355	708.77
777.537	692.38
777.719	704.67
777.901	782.49
778.083	682.14
778.265	655.52
778.447	637.09
778.629	630.95
778.811	768.16
778.993	721.06
779.175	735.39
779.357	708.77
779.539	694.43
779.721	563.36
779.903	651.42
780.085	614.56
780.267	641.18
780.449	665.76
780.631	604.32
780.812	610.47
780.994	546.98
781.176	657.57
781.358	604.32
781.54	700.58
781.721	594.08
781.903	614.56
782.085	618.66
782.267	557.22
782.448	571.55
782.63	647.33
782.812	520.35
782.993	598.18
783.175	608.42
783.357	561.31
783.538	520.35
783.72	553.12
783.901	532.64
784.083	608.42
784.264	530.59
784.446	503.97
784.627	546.98
784.809	594.08
784.99	467.11
785.172	510.11
785.353	528.55
785.535	512.16
785.716	467.11
785.897	491.68
786.079	503.97
786.26	471.2
786.441	477.35
786.623	518.31
786.804	512.16
786.985	508.07
787.167	460.96
787.348	479.4
787.529	446.63
787.71	460.96
787.891	479.4
788.073	432.29
788.254	420
788.435	430.24
788.616	458.92
788.797	450.72
788.978	413.86
789.159	549.03
789.34	481.44
789.522	389.28
789.703	415.91
789.884	446.63
790.065	403.62
790.246	372.9
790.427	389.28
790.607	436.39
790.788	503.97
790.969	377
791.15	389.28
791.331	321.7
791.512	395.43
791.693	450.72
791.874	354.47
792.054	440.48
792.235	442.53
792.416	385.19
792.597	356.52
792.778	315.56
792.958	356.52
793.139	413.86
793.32	360.61
793.5	377
793.681	364.71
793.862	407.72
794.042	311.46
794.223	352.42
794.404	311.46
794.584	270.5
794.765	323.75
794.945	321.7
795.126	389.28
795.306	311.46
795.487	385.19
795.667	342.18
795.848	348.33
796.028	323.75
796.209	333.99
796.389	276.65
796.57	280.74
796.75	293.03
796.93	284.84
797.111	274.6
797.291	327.85
797.471	272.55
797.652	297.13
797.832	276.65
798.012	323.75
798.192	313.51
798.373	366.76
798.553	243.88
798.733	284.84
798.913	311.46
799.093	293.03
799.274	327.85
799.454	284.84
799.634	299.17
799.814	327.85
799.994	317.61
800.174	389.28
800.354	270.5
800.534	229.54
800.714	284.84
800.894	190.63
801.074	143.53
801.254	340.13
801.434	278.69
801.614	213.16
801.794	256.17
801.974	637.09
802.154	280.74
802.334	286.89
802.514	299.17
802.693	305.32
802.873	231.59
803.053	307.37
803.233	321.7
803.413	301.22
803.592	215.21
803.772	241.83
803.952	293.03
804.131	274.6
804.311	254.12
804.491	159.91
804.67	290.98
804.85	288.93
805.03	229.54
805.209	276.65
805.389	196.78
805.568	274.6
805.748	186.54
805.928	223.4
806.107	295.08
806.287	264.36
806.466	202.92
806.646	209.06
806.825	245.93
807.004	180.39
807.184	223.4
807.363	282.79
807.543	293.03
807.722	198.82
807.901	254.12
808.081	151.72
808.26	86.19
808.439	299.17
808.619	235.69
808.798	303.27
808.977	213.16
809.156	309.41
809.336	229.54
809.515	204.97
809.694	213.16
809.873	211.11
810.052	153.77
810.231	217.26
810.411	217.26
810.59	198.82
810.769	217.26
810.948	260.26
811.127	123.05
811.306	241.83
811.485	247.97
811.664	204.97
811.843	202.92
812.022	223.4
812.201	164.01
812.38	114.86
812.559	192.68
812.737	196.78
812.916	243.88
813.095	125.1
813.274	131.24
813.453	159.91
813.632	129.19
813.811	118.95
813.989	127.14
814.168	219.3
814.347	174.25
814.526	174.25
814.704	192.68
814.883	198.82
815.062	198.82
815.24	118.95
815.419	110.76
815.598	182.44
815.776	118.95
815.955	194.73
816.133	116.9
816.312	200.87
816.49	194.73
816.669	151.72
816.847	159.91
817.026	170.15
817.204	147.62
817.383	190.63
817.561	186.54
817.74	157.86
817.918	116.9
818.097	139.43
818.275	170.15
818.453	184.49
818.632	184.49
818.81	75.95
818.988	133.29
819.167	143.53
819.345	227.5
819.523	108.71
819.701	108.71
819.879	188.58
820.058	112.81
820.236	147.62
820.414	114.86
820.592	135.34
820.77	151.72
820.948	131.24
821.127	141.48
821.305	137.38
821.483	227.5
821.661	217.26
821.839	135.34
822.017	110.76
822.195	131.24
822.373	147.62
822.551	215.21
822.729	211.11
822.907	90.28
823.085	176.3
823.262	151.72
823.44	147.62
823.618	88.23
823.796	102.57
823.974	114.86
824.152	123.05
824.329	114.86
824.507	198.82
824.685	141.48
824.863	73.9
825.04	98.47
825.218	118.95
825.396	108.71
825.574	116.9
825.751	200.87
825.929	49.32
826.107	139.43
826.284	139.43
826.462	114.86
826.639	133.29
826.817	133.29
826.994	143.53
827.172	30.89
827.349	145.58
827.527	73.9
827.704	123.05
827.882	41.13
828.059	102.57
828.237	102.57
828.414	178.34
828.591	39.08
828.769	129.19
828.946	80.04
829.124	153.77
829.301	168.1
829.478	151.72
829.655	143.53
829.833	37.03
830.01	86.19
830.187	161.96
830.364	121
830.542	110.76
830.719	145.58
830.896	106.67
831.073	129.19
831.25	180.39
831.427	45.23
831.604	73.9
831.782	61.61
831.959	143.53
832.136	63.66
832.313	112.81
832.49	102.57
832.667	61.61
832.844	57.51
833.021	39.08
833.198	121
833.374	102.57
833.551	125.1
833.728	133.29
833.905	90.28
834.082	96.43
834.259	100.52
834.436	69.8
834.612	110.76
834.789	69.8
834.966	69.8
835.143	135.34
835.319	37.03
835.496	14.51
835.673	102.57
835.85	112.81
836.026	106.67
836.203	172.2
836.38	45.23
836.556	135.34
836.733	123.05
836.909	123.05
837.086	108.71
837.262	94.38
837.439	45.23
837.616	55.47
837.792	80.04
837.968	139.43
838.145	125.1
838.321	102.57
838.498	108.71
838.674	131.24
838.851	61.61
839.027	94.38
839.203	131.24
839.38	75.95
839.556	45.23
839.732	98.47
839.909	86.19
840.085	141.48
840.261	102.57
840.437	69.8
840.614	82.09
840.79	116.9
840.966	104.62
841.142	131.24
841.318	65.71
841.494	41.13
841.671	47.27
841.847	41.13
842.023	22.7
842.199	71.85
842.375	82.09
842.551	-38.74
842.727	61.61
842.903	143.53
843.079	47.27
843.255	125.1
843.431	82.09
843.607	104.62
843.783	14.51
843.959	75.95
844.134	82.09
844.31	82.09
844.486	90.28
844.662	45.23
844.838	104.62
845.013	90.28
845.189	67.75
845.365	82.09
845.541	73.9
845.716	92.33
845.892	133.29
846.068	86.19
846.244	69.8
846.419	43.18
846.595	145.58
846.77	114.86
846.946	131.24
847.122	112.81
847.297	45.23
847.473	69.8
847.648	55.47
847.824	45.23
847.999	8.36
848.175	71.85
848.35	75.95
848.526	100.52
848.701	41.13
848.876	65.71
849.052	73.9
849.227	55.47
849.403	102.57
849.578	77.99
849.753	133.29
849.929	73.9
850.104	30.89
850.279	61.61
850.454	82.09
850.63	73.9
850.805	53.42
850.98	131.24
851.155	57.51
851.33	106.67
851.505	118.95
851.681	139.43
851.856	59.56
852.031	131.24
852.206	28.84
852.381	77.99
852.556	45.23
852.731	92.33
852.906	98.47
853.081	10.41
853.256	32.94
853.431	53.42
853.606	-12.12
853.781	28.84
853.956	88.23
854.131	125.1
854.305	75.95
854.48	55.47
854.655	-3.93
854.83	-59.22
855.005	59.56
855.18	49.32
855.354	73.9
855.529	26.79
855.704	10.41
855.879	104.62
856.053	69.8
856.228	14.51
856.403	32.94
856.577	77.99
856.752	6.31
856.926	90.28
857.101	30.89
857.276	49.32
857.45	53.42
857.625	53.42
857.799	20.65
857.974	20.65
858.148	77.99
858.323	34.99
858.497	24.75
858.672	53.42
858.846	37.03
859.02	32.94
859.195	8.36
859.369	61.61
859.543	49.32
859.718	57.51
859.892	69.8
860.066	22.7
860.241	18.6
860.415	47.27
860.589	114.86
860.763	41.13
860.938	49.32
861.112	116.9
861.286	43.18
861.46	129.19
861.634	32.94
861.808	94.38
861.982	4.27
862.157	110.76
862.331	20.65
862.505	-3.93
862.679	37.03
862.853	88.23
863.027	86.19
863.201	100.52
863.375	28.84
863.549	59.56
863.722	73.9
863.896	155.82
864.07	-61.27
864.244	59.56
864.418	22.7
864.592	139.43
864.766	55.47
864.939	32.94
865.113	-3.93
865.287	51.37
865.461	2.22
865.634	71.85
865.808	57.51
865.982	-5.97
866.156	26.79
866.329	12.46
866.503	45.23
866.676	94.38
866.85	16.55
867.024	-42.84
867.197	106.67
867.371	71.85
867.544	18.6
867.718	26.79
867.891	-12.12
868.065	-12.12
868.238	69.8
868.412	-73.56
868.585	-20.31
868.759	47.27
868.932	43.18
869.105	28.84
869.279	43.18
869.452	28.84
869.625	24.75
869.799	26.79
869.972	-24.4
870.145	45.23
870.319	22.7
870.492	2.22
870.665	73.9
870.838	-12.12
871.011	-12.12
871.185	-24.4
871.358	34.99
871.531	8.36
871.704	-8.02
871.877	20.65
872.05	30.89
872.223	2.22
872.396	61.61
872.569	0.17
872.742	32.94
872.915	22.7
873.088	49.32
873.261	34.99
873.434	39.08
873.607	71.85
873.78	12.46
873.953	20.65
874.126	0.17
874.299	59.56
874.471	24.75
874.644	131.24
874.817	73.9
874.99	43.18
875.163	41.13
875.335	61.61
875.508	100.52
875.681	100.52
875.853	8.36
876.026	69.8
876.199	2.22
876.371	90.28
876.544	-20.31
876.717	8.36
876.889	61.61
877.062	86.19
877.234	24.75
877.407	24.75
877.579	86.19
877.752	-20.31
877.924	16.55
878.097	-40.79
878.269	57.51
878.442	-3.93
878.614	45.23
878.786	43.18
878.959	6.31
879.131	45.23
879.303	67.75
879.476	-24.4
879.648	-28.5
879.82	-16.21
879.993	8.36
880.165	-18.26
880.337	47.27
880.509	69.8
880.681	-89.94
880.854	77.99
881.026	49.32
881.198	92.33
881.37	39.08
881.542	18.6
881.714	18.6
881.886	2.22
882.058	37.03
882.23	-22.36
882.402	8.36
882.574	-5.97
882.746	84.14
882.918	71.85
883.09	20.65
883.262	-12.12
883.434	-10.07
883.606	51.37
883.778	43.18
883.95	4.27
884.122	51.37
884.293	133.29
884.465	-44.88
884.637	10.41
884.809	12.46
884.98	10.41
885.152	65.71
885.324	53.42
885.496	49.32
885.667	24.75
885.839	6.31
886.011	63.66
886.182	-5.97
886.354	2.22
886.525	108.71
886.697	100.52
886.869	-36.69
887.04	37.03
887.212	71.85
887.383	84.14
887.555	53.42
887.726	24.75
887.897	47.27
888.069	34.99
888.24	-1.88
888.412	28.84
888.583	49.32
888.754	65.71
888.926	49.32
889.097	22.7
889.268	6.31
889.44	69.8
889.611	-36.69
889.782	2.22
889.953	100.52
890.125	-5.97
890.296	-8.02
890.467	-34.64
890.638	16.55
890.809	82.09
890.98	30.89
891.151	88.23
891.323	77.99
891.494	-20.31
891.665	61.61
891.836	-53.08
892.007	-5.97
892.178	57.51
892.349	28.84
892.52	-26.45
892.691	51.37
892.862	90.28
893.032	49.32
893.203	8.36
893.374	37.03
893.545	110.76
893.716	20.65
893.887	63.66
894.057	-3.93
894.228	-57.17
894.399	41.13
894.57	75.95
894.74	14.51
894.911	57.51
895.082	-12.12
895.253	116.9
895.423	-12.12
895.594	32.94
895.764	47.27
895.935	18.6
896.106	34.99
896.276	24.75
896.447	6.31
896.617	57.51
896.788	80.04
896.958	22.7
897.129	16.55
897.299	59.56
897.47	69.8
897.64	71.85
897.81	32.94
897.981	49.32
898.151	-59.22
898.322	-8.02
898.492	37.03
898.662	0.17
898.832	-12.12
899.003	-5.97
899.173	94.38
899.343	2.22
899.513	12.46
