Data from USB4F104151__77__11-06-24-383.txt Node

Date: Wed Mar 12 11:06:24 EDT 2025
User: louis
Spectrometer: USB4F10415
Trigger mode: 4
Integration Time (sec): 2.000000E-2
Scans to average: 1
Electric dark correction enabled: true
Nonlinearity correction enabled: false
Boxcar width: 0
XAxis mode: Wavelengths
Number of Pixels in Spectrum: 3648
>>>>>Begin Spectral Data<<<<<
178.204	-86.01
178.424	-86.01
178.644	-86.01
178.864	-59.39
179.084	-94.21
179.304	-45.06
179.524	53.25
179.744	14.34
179.964	2.05
180.184	4.1
180.404	8.19
180.624	28.67
180.844	-26.62
181.064	-63.49
181.283	73.73
181.503	-30.72
181.723	-18.43
181.943	-47.1
182.163	100.35
182.383	51.2
182.602	88.06
182.822	14.34
183.042	8.19
183.262	22.53
183.482	43.01
183.701	22.53
183.921	24.58
184.141	28.67
184.361	79.87
184.58	-18.43
184.8	63.49
185.02	43.01
185.239	30.72
185.459	26.62
185.679	53.25
185.898	-18.43
186.118	51.2
186.338	16.38
186.557	43.01
186.777	34.82
186.997	0
187.216	6.14
187.436	69.63
187.655	10.24
187.875	73.73
188.095	38.91
188.314	4.1
188.534	-30.72
188.753	53.25
188.973	-6.14
189.192	28.67
189.412	47.1
189.631	-26.62
189.851	53.25
190.07	14.34
190.29	55.3
190.509	6.14
190.729	-4.1
190.948	71.68
191.168	104.45
191.387	18.43
191.607	57.34
191.826	8.19
192.045	6.14
192.265	65.54
192.484	100.35
192.704	18.43
192.923	-18.43
193.142	55.3
193.362	43.01
193.581	30.72
193.8	77.82
194.02	55.3
194.239	-10.24
194.458	32.77
194.678	79.87
194.897	49.15
195.116	63.49
195.335	-2.05
195.555	77.82
195.774	75.77
195.993	45.06
196.212	28.67
196.432	65.54
196.651	34.82
196.87	43.01
197.089	86.01
197.308	45.06
197.528	57.34
197.747	-30.72
197.966	100.35
198.185	12.29
198.404	12.29
198.623	-28.67
198.842	38.91
199.062	59.39
199.281	51.2
199.5	69.63
199.719	67.58
199.938	135.17
200.157	100.35
200.376	40.96
200.595	32.77
200.814	55.3
201.033	14.34
201.252	47.1
201.471	51.2
201.69	92.16
201.909	2.05
202.128	86.01
202.347	45.06
202.566	49.15
202.785	67.58
203.004	63.49
203.223	88.06
203.442	77.82
203.661	26.62
203.879	22.53
204.098	83.97
204.317	38.91
204.536	47.1
204.755	81.92
204.974	-6.14
205.193	55.3
205.411	63.49
205.63	40.96
205.849	88.06
206.068	-30.72
206.287	-49.15
206.505	73.73
206.724	69.63
206.943	0
207.162	18.43
207.381	155.65
207.599	45.06
207.818	53.25
208.037	10.24
208.255	55.3
208.474	-28.67
208.693	36.86
208.911	-6.14
209.13	77.82
209.349	63.49
209.567	-10.24
209.786	137.21
210.005	32.77
210.223	57.34
210.442	-12.29
210.661	28.67
210.879	30.72
211.098	28.67
211.316	-10.24
211.535	20.48
211.753	16.38
211.972	12.29
212.191	-75.77
212.409	77.82
212.628	-22.53
212.846	-20.48
213.065	38.91
213.283	-14.34
213.502	59.39
213.72	-26.62
213.938	49.15
214.157	-6.14
214.375	63.49
214.594	-8.19
214.812	22.53
215.031	24.58
215.249	59.39
215.467	86.01
215.686	26.62
215.904	2.05
216.122	12.29
216.341	14.34
216.559	-59.39
216.778	47.1
216.996	-8.19
217.214	14.34
217.432	53.25
217.651	24.58
217.869	36.86
218.087	47.1
218.306	51.2
218.524	110.59
218.742	-6.14
218.96	-32.77
219.179	43.01
219.397	45.06
219.615	59.39
219.833	71.68
220.051	96.25
220.27	100.35
220.488	71.68
220.706	6.14
220.924	16.38
221.142	26.62
221.36	18.43
221.578	47.1
221.796	0
222.015	38.91
222.233	47.1
222.451	86.01
222.669	43.01
222.887	81.92
223.105	2.05
223.323	-47.1
223.541	22.53
223.759	106.49
223.977	57.34
224.195	65.54
224.413	47.1
224.631	22.53
224.849	83.97
225.067	53.25
225.285	-4.1
225.503	77.82
225.721	2.05
225.939	-2.05
226.157	83.97
226.375	108.54
226.592	-59.39
226.81	14.34
227.028	61.44
227.246	69.63
227.464	28.67
227.682	55.3
227.9	36.86
228.117	63.49
228.335	81.92
228.553	69.63
228.771	77.82
228.989	61.44
229.206	83.97
229.424	16.38
229.642	14.34
229.86	51.2
230.077	81.92
230.295	63.49
230.513	-14.34
230.731	63.49
230.948	137.21
231.166	34.82
231.384	24.58
231.601	116.73
231.819	149.5
232.037	36.86
232.254	75.77
232.472	-67.58
232.689	-26.62
232.907	24.58
233.125	0
233.342	104.45
233.56	32.77
233.777	65.54
233.995	55.3
234.213	133.12
234.43	24.58
234.648	67.58
234.865	24.58
235.083	55.3
235.3	59.39
235.518	18.43
235.735	55.3
235.953	67.58
236.17	6.14
236.388	-32.77
236.605	88.06
236.822	-12.29
237.04	22.53
237.257	141.31
237.475	-55.3
237.692	133.12
237.909	118.78
238.127	-4.1
238.344	-6.14
238.562	108.54
238.779	4.1
238.996	16.38
239.214	-30.72
239.431	71.68
239.648	18.43
239.865	20.48
240.083	88.06
240.3	51.2
240.517	81.92
240.735	-55.3
240.952	98.3
241.169	55.3
241.386	83.97
241.603	-30.72
241.821	133.12
242.038	20.48
242.255	100.35
242.472	32.77
242.689	8.19
242.907	43.01
243.124	32.77
243.341	69.63
243.558	71.68
243.775	38.91
243.992	51.2
244.209	55.3
244.426	96.25
244.643	65.54
244.86	90.11
245.078	90.11
245.295	-10.24
245.512	59.39
245.729	12.29
245.946	24.58
246.163	63.49
246.38	79.87
246.597	22.53
246.814	2.05
247.031	-8.19
247.248	38.91
247.464	-6.14
247.681	77.82
247.898	104.45
248.115	34.82
248.332	-10.24
248.549	40.96
248.766	22.53
248.983	75.77
249.2	53.25
249.417	83.97
249.633	34.82
249.85	69.63
250.067	-6.14
250.284	69.63
250.501	-6.14
250.717	12.29
250.934	-34.82
251.151	53.25
251.368	47.1
251.585	43.01
251.801	30.72
252.018	102.4
252.235	83.97
252.451	34.82
252.668	-18.43
252.885	69.63
253.102	30.72
253.318	79.87
253.535	86.01
253.752	36.86
253.968	20.48
254.185	20.48
254.401	65.54
254.618	34.82
254.835	-2.05
255.051	110.59
255.268	51.2
255.484	18.43
255.701	55.3
255.917	86.01
256.134	71.68
256.351	-14.34
256.567	-49.15
256.784	-30.72
257	49.15
257.217	10.24
257.433	28.67
257.65	-10.24
257.866	83.97
258.082	43.01
258.299	51.2
258.515	20.48
258.732	40.96
258.948	28.67
259.165	81.92
259.381	16.38
259.597	129.02
259.814	71.68
260.03	61.44
260.246	26.62
260.463	32.77
260.679	38.91
260.895	67.58
261.112	43.01
261.328	47.1
261.544	55.3
261.761	116.73
261.977	88.06
262.193	43.01
262.409	-36.86
262.626	75.77
262.842	102.4
263.058	51.2
263.274	47.1
263.49	65.54
263.707	53.25
263.923	83.97
264.139	14.34
264.355	40.96
264.571	55.3
264.787	38.91
265.004	49.15
265.22	36.86
265.436	32.77
265.652	6.14
265.868	49.15
266.084	51.2
266.3	20.48
266.516	-45.06
266.732	-4.1
266.948	57.34
267.164	73.73
267.38	141.31
267.596	43.01
267.812	110.59
268.028	20.48
268.244	49.15
268.46	24.58
268.676	43.01
268.892	-4.1
269.108	32.77
269.324	32.77
269.54	38.91
269.756	43.01
269.972	69.63
270.188	-36.86
270.403	-24.58
270.619	10.24
270.835	53.25
271.051	81.92
271.267	-14.34
271.483	45.06
271.698	65.54
271.914	59.39
272.13	14.34
272.346	51.2
272.562	6.14
272.777	26.62
272.993	2.05
273.209	57.34
273.425	92.16
273.64	63.49
273.856	98.3
274.072	-40.96
274.287	26.62
274.503	43.01
274.719	86.01
274.934	0
275.15	4.1
275.366	79.87
275.581	-10.24
275.797	116.73
276.012	45.06
276.228	57.34
276.444	145.41
276.659	36.86
276.875	28.67
277.09	81.92
277.306	20.48
277.521	86.01
277.737	-18.43
277.952	98.3
278.168	45.06
278.383	102.4
278.599	-28.67
278.814	32.77
279.03	18.43
279.245	34.82
279.461	47.1
279.676	47.1
279.892	4.1
280.107	47.1
280.322	2.05
280.538	38.91
280.753	79.87
280.969	30.72
281.184	6.14
281.399	30.72
281.615	22.53
281.83	22.53
282.045	65.54
282.26	92.16
282.476	26.62
282.691	43.01
282.906	30.72
283.122	30.72
283.337	26.62
283.552	20.48
283.767	77.82
283.983	59.39
284.198	55.3
284.413	36.86
284.628	26.62
284.843	106.49
285.058	88.06
285.274	118.78
285.489	61.44
285.704	75.77
285.919	20.48
286.134	16.38
286.349	55.3
286.564	36.86
286.779	67.58
286.995	114.69
287.21	43.01
287.425	34.82
287.64	32.77
287.855	63.49
288.07	14.34
288.285	-2.05
288.5	43.01
288.715	90.11
288.93	77.82
289.145	-38.91
289.36	14.34
289.575	94.21
289.79	55.3
290.004	-20.48
290.219	43.01
290.434	55.3
290.649	43.01
290.864	-18.43
291.079	20.48
291.294	59.39
291.509	59.39
291.724	61.44
291.938	6.14
292.153	94.21
292.368	-12.29
292.583	-2.05
292.798	104.45
293.012	-12.29
293.227	61.44
293.442	24.58
293.657	100.35
293.871	124.93
294.086	100.35
294.301	75.77
294.516	38.91
294.73	10.24
294.945	32.77
295.16	12.29
295.374	79.87
295.589	112.64
295.804	53.25
296.018	-12.29
296.233	-63.49
296.447	86.01
296.662	55.3
296.877	34.82
297.091	79.87
297.306	40.96
297.52	45.06
297.735	12.29
297.949	38.91
298.164	69.63
298.378	43.01
298.593	45.06
298.807	47.1
299.022	108.54
299.236	114.69
299.451	18.43
299.665	34.82
299.88	75.77
300.094	61.44
300.309	-4.1
300.523	26.62
300.737	43.01
300.952	73.73
301.166	135.17
301.381	22.53
301.595	26.62
301.809	67.58
302.024	16.38
302.238	67.58
302.452	83.97
302.667	10.24
302.881	92.16
303.095	63.49
303.309	53.25
303.524	75.77
303.738	30.72
303.952	36.86
304.166	106.49
304.381	-24.58
304.595	63.49
304.809	47.1
305.023	71.68
305.237	88.06
305.452	14.34
305.666	90.11
305.88	104.45
306.094	63.49
306.308	69.63
306.522	57.34
306.736	92.16
306.95	63.49
307.164	26.62
307.379	34.82
307.593	59.39
307.807	92.16
308.021	6.14
308.235	-4.1
308.449	57.34
308.663	43.01
308.877	86.01
309.091	122.88
309.305	135.17
309.519	26.62
309.733	57.34
309.947	53.25
310.161	102.4
310.374	40.96
310.588	61.44
310.802	55.3
311.016	57.34
311.23	18.43
311.444	24.58
311.658	47.1
311.872	57.34
312.085	53.25
312.299	32.77
312.513	98.3
312.727	59.39
312.941	8.19
313.154	26.62
313.368	61.44
313.582	124.93
313.796	-6.14
314.009	75.77
314.223	28.67
314.437	24.58
314.651	6.14
314.864	28.67
315.078	71.68
315.292	75.77
315.505	51.2
315.719	81.92
315.933	34.82
316.146	16.38
316.36	90.11
316.573	88.06
316.787	65.54
317.001	49.15
317.214	22.53
317.428	88.06
317.641	57.34
317.855	139.26
318.068	69.63
318.282	-16.38
318.495	81.92
318.709	94.21
318.922	47.1
319.136	16.38
319.349	75.77
319.563	0
319.776	69.63
319.99	61.44
320.203	-2.05
320.417	61.44
320.63	4.1
320.843	30.72
321.057	77.82
321.27	61.44
321.483	73.73
321.697	32.77
321.91	96.25
322.124	30.72
322.337	14.34
322.55	-36.86
322.763	98.3
322.977	28.67
323.19	-4.1
323.403	104.45
323.617	4.1
323.83	92.16
324.043	20.48
324.256	51.2
324.469	-10.24
324.683	114.69
324.896	55.3
325.109	-12.29
325.322	47.1
325.535	102.4
325.748	6.14
325.962	55.3
326.175	45.06
326.388	63.49
326.601	88.06
326.814	122.88
327.027	-2.05
327.24	94.21
327.453	63.49
327.666	104.45
327.879	102.4
328.092	79.87
328.305	51.2
328.518	65.54
328.731	79.87
328.944	20.48
329.157	61.44
329.37	116.73
329.583	88.06
329.796	55.3
330.009	10.24
330.222	22.53
330.435	24.58
330.648	59.39
330.861	124.93
331.073	73.73
331.286	45.06
331.499	4.1
331.712	-8.19
331.925	22.53
332.138	55.3
332.35	114.69
332.563	10.24
332.776	55.3
332.989	63.49
333.202	63.49
333.414	67.58
333.627	26.62
333.84	47.1
334.053	-51.2
334.265	71.68
334.478	143.36
334.691	63.49
334.903	100.35
335.116	45.06
335.329	86.01
335.541	118.78
335.754	47.1
335.966	65.54
336.179	86.01
336.392	18.43
336.604	36.86
336.817	32.77
337.029	108.54
337.242	108.54
337.454	59.39
337.667	100.35
337.88	71.68
338.092	28.67
338.305	81.92
338.517	110.59
338.729	81.92
338.942	43.01
339.154	53.25
339.367	26.62
339.579	61.44
339.792	26.62
340.004	141.31
340.217	120.83
340.429	57.34
340.641	14.34
340.854	75.77
341.066	36.86
341.278	51.2
341.491	71.68
341.703	32.77
341.915	2.05
342.128	83.97
342.34	36.86
342.552	36.86
342.764	45.06
342.977	22.53
343.189	45.06
343.401	24.58
343.613	-6.14
343.826	63.49
344.038	-2.05
344.25	-28.67
344.462	104.45
344.674	51.2
344.886	71.68
345.099	18.43
345.311	112.64
345.523	77.82
345.735	-22.53
345.947	100.35
346.159	65.54
346.371	92.16
346.583	18.43
346.795	83.97
347.007	22.53
347.219	22.53
347.431	10.24
347.643	88.06
347.855	12.29
348.067	122.88
348.279	57.34
348.491	75.77
348.703	75.77
348.915	22.53
349.127	26.62
349.339	14.34
349.551	38.91
349.763	43.01
349.975	110.59
350.187	61.44
350.399	81.92
350.61	38.91
350.822	100.35
351.034	67.58
351.246	38.91
351.458	28.67
351.669	83.97
351.881	141.31
352.093	141.31
352.305	26.62
352.517	47.1
352.728	26.62
352.94	30.72
353.152	18.43
353.363	75.77
353.575	47.1
353.787	94.21
353.999	129.02
354.21	34.82
354.422	120.83
354.633	47.1
354.845	51.2
355.057	96.25
355.268	30.72
355.48	106.49
355.692	116.73
355.903	63.49
356.115	57.34
356.326	38.91
356.538	96.25
356.749	104.45
356.961	20.48
357.172	112.64
357.384	55.3
357.595	100.35
357.807	-24.58
358.018	18.43
358.23	36.86
358.441	75.77
358.653	51.2
358.864	53.25
359.075	32.77
359.287	-16.38
359.498	131.07
359.709	43.01
359.921	45.06
360.132	-4.1
360.344	100.35
360.555	49.15
360.766	126.97
360.977	153.6
361.189	71.68
361.4	18.43
361.611	53.25
361.823	129.02
362.034	108.54
362.245	75.77
362.456	67.58
362.667	10.24
362.879	83.97
363.09	28.67
363.301	67.58
363.512	30.72
363.723	108.54
363.935	-16.38
364.146	16.38
364.357	100.35
364.568	43.01
364.779	102.4
364.99	63.49
365.201	2.05
365.412	22.53
365.623	59.39
365.834	6.14
366.045	81.92
366.256	69.63
366.467	28.67
366.678	102.4
366.889	75.77
367.1	18.43
367.311	34.82
367.522	79.87
367.733	112.64
367.944	98.3
368.155	20.48
368.366	112.64
368.577	126.97
368.788	135.17
368.999	122.88
369.209	79.87
369.42	81.92
369.631	141.31
369.842	98.3
370.053	67.58
370.264	-40.96
370.474	100.35
370.685	49.15
370.896	77.82
371.107	120.83
371.317	51.2
371.528	4.1
371.739	59.39
371.95	45.06
372.16	92.16
372.371	63.49
372.582	63.49
372.792	186.37
373.003	59.39
373.214	49.15
373.424	36.86
373.635	88.06
373.846	86.01
374.056	49.15
374.267	108.54
374.477	16.38
374.688	36.86
374.898	51.2
375.109	43.01
375.319	120.83
375.53	38.91
375.74	43.01
375.951	18.43
376.161	40.96
376.372	108.54
376.582	75.77
376.793	83.97
377.003	59.39
377.214	67.58
377.424	67.58
377.635	20.48
377.845	26.62
378.055	100.35
378.266	38.91
378.476	94.21
378.686	129.02
378.897	40.96
379.107	102.4
379.317	47.1
379.528	59.39
379.738	83.97
379.948	28.67
380.158	79.87
380.369	110.59
380.579	102.4
380.789	2.05
380.999	112.64
381.21	96.25
381.42	79.87
381.63	94.21
381.84	124.93
382.05	2.05
382.261	98.3
382.471	100.35
382.681	112.64
382.891	110.59
383.101	96.25
383.311	8.19
383.521	30.72
383.731	43.01
383.941	112.64
384.151	86.01
384.361	71.68
384.571	94.21
384.781	45.06
384.991	26.62
385.201	122.88
385.411	45.06
385.621	102.4
385.831	83.97
386.041	30.72
386.251	53.25
386.461	104.45
386.671	86.01
386.881	131.07
387.091	47.1
387.301	92.16
387.511	55.3
387.72	157.69
387.93	67.58
388.14	120.83
388.35	88.06
388.56	69.63
388.769	83.97
388.979	45.06
389.189	-4.1
389.399	22.53
389.609	26.62
389.818	77.82
390.028	100.35
390.238	73.73
390.447	104.45
390.657	98.3
390.867	22.53
391.076	32.77
391.286	71.68
391.496	59.39
391.705	63.49
391.915	79.87
392.125	110.59
392.334	151.55
392.544	92.16
392.753	90.11
392.963	124.93
393.172	67.58
393.382	114.69
393.591	133.12
393.801	79.87
394.01	40.96
394.22	104.45
394.429	116.73
394.639	53.25
394.848	57.34
395.058	126.97
395.267	114.69
395.477	137.21
395.686	83.97
395.895	108.54
396.105	61.44
396.314	108.54
396.524	118.78
396.733	98.3
396.942	108.54
397.152	79.87
397.361	172.03
397.57	75.77
397.78	104.45
397.989	104.45
398.198	161.79
398.407	157.69
398.617	202.75
398.826	165.89
399.035	149.5
399.244	98.3
399.453	145.41
399.663	122.88
399.872	163.84
400.081	-6.14
400.29	131.07
400.499	110.59
400.708	106.49
400.917	161.79
401.127	114.69
401.336	126.97
401.545	169.98
401.754	169.98
401.963	143.36
402.172	161.79
402.381	188.41
402.59	104.45
402.799	110.59
403.008	262.14
403.217	112.64
403.426	147.45
403.635	83.97
403.844	133.12
404.053	192.51
404.262	206.84
404.471	135.17
404.68	149.5
404.888	200.7
405.097	145.41
405.306	212.99
405.515	178.17
405.724	129.02
405.933	233.47
406.142	212.99
406.35	178.17
406.559	215.04
406.768	167.93
406.977	227.32
407.185	251.9
407.394	243.71
407.603	190.46
407.812	309.24
408.02	219.13
408.229	245.76
408.438	247.8
408.646	251.9
408.855	305.15
409.064	239.61
409.272	313.34
409.481	272.38
409.69	303.1
409.898	286.72
410.107	339.96
410.315	403.45
410.524	309.24
410.733	405.5
410.941	419.83
411.15	333.82
411.358	409.59
411.567	454.65
411.775	362.49
411.984	452.6
412.192	425.98
412.401	503.8
412.609	505.85
412.818	505.85
413.026	544.76
413.234	552.95
413.443	604.15
413.651	544.76
413.86	546.81
414.068	647.16
414.276	643.06
414.485	671.73
414.693	679.93
414.901	757.75
415.11	755.7
415.318	628.73
415.526	774.13
415.734	808.95
415.943	876.53
416.151	847.86
416.359	888.82
416.567	849.91
416.776	944.11
416.984	1032.18
417.192	1030.13
417.4	1069.04
417.608	1028.08
417.817	1052.66
418.025	1058.8
418.233	1214.45
418.441	1124.33
418.649	1257.45
418.857	1308.65
419.065	1322.99
419.273	1308.65
419.481	1388.52
419.689	1476.59
419.897	1511.4
420.105	1566.7
420.313	1646.57
420.521	1607.66
420.729	1718.25
420.937	1779.68
421.145	1773.54
421.353	1888.23
421.561	2017.25
421.769	2090.98
421.977	2082.78
422.185	2070.5
422.393	2176.99
422.601	2459.61
422.809	2306.01
423.017	2394.08
423.224	2443.23
423.432	2643.93
423.64	2572.25
423.848	2865.11
424.056	2648.02
424.263	2959.31
424.471	3127.25
424.679	3014.61
424.887	3270.61
425.094	3350.48
425.302	3301.33
425.51	3416.01
425.718	3536.84
425.925	3438.54
426.133	3743.69
426.341	4005.83
426.548	4247.49
426.756	4083.65
426.964	4155.33
427.171	4409.28
427.379	4493.24
427.586	4544.44
427.794	4730.81
428.001	4958.13
428.209	5224.37
428.417	5023.67
428.624	5545.9
428.832	5449.64
429.039	5461.93
429.247	5498.8
429.454	6092.71
429.662	6207.39
429.869	5849
430.076	6295.46
430.284	6166.43
430.491	6582.17
430.699	6940.57
430.906	6932.37
431.114	6991.77
431.321	7124.88
431.528	7317.39
431.736	7835.53
431.943	8320.9
432.15	8040.33
432.358	7915.4
432.565	8499.07
432.772	8349.57
432.979	8800.12
433.187	8851.32
433.394	9199.48
433.601	9699.18
433.808	9754.48
434.016	9535.34
434.223	10168.16
434.43	10667.87
434.637	10303.33
434.844	11116.37
435.052	11335.51
435.259	11286.36
435.466	11530.06
435.673	11212.63
435.88	11962.19
436.087	12803.9
436.294	12595.01
436.501	12361.54
436.708	12629.82
436.915	13000.51
437.122	13551.41
437.329	13618.99
437.537	14079.79
437.743	14126.89
437.95	14122.79
438.157	14860.06
438.364	15480.6
438.571	15286.04
438.778	15554.32
438.985	17135.35
439.192	16240.39
439.399	16750.34
439.606	16330.5
439.813	17256.18
440.02	18251.5
440.227	17862.38
440.433	18179.82
440.64	18394.86
440.847	18280.17
441.054	18984.67
441.261	19953.36
441.467	19914.45
441.674	20195.02
441.881	21069.5
442.088	20870.85
442.294	20393.67
442.501	21345.98
442.708	21749.43
442.914	22451.88
443.121	23420.57
443.328	22914.72
443.534	24764.04
443.741	23510.68
443.948	23301.79
444.154	25212.54
444.361	24931.97
444.568	25566.84
444.774	25349.76
444.981	25683.58
445.187	26345.07
445.394	27395.68
445.6	27164.26
445.807	29599.29
446.013	28522.06
446.22	29034.05
446.426	30094.9
446.633	30092.85
446.839	31116.84
447.046	30117.43
447.252	31772.19
447.459	31426.08
447.665	31735.32
447.871	33099.27
448.078	34237.94
448.284	32765.45
448.491	33371.65
448.697	34856.43
448.903	35614.18
449.11	35405.28
449.316	34686.45
449.522	35171.82
449.728	36503
449.935	37045.71
450.141	36789.71
450.347	37744.06
450.553	36195.8
450.76	37098.95
450.966	38202.81
451.172	37701.06
451.378	38245.82
451.584	37422.53
451.791	38458.81
451.997	38389.17
452.203	38886.83
452.409	38944.17
452.615	38612.4
452.821	37383.62
453.027	36980.17
453.233	38489.52
453.44	37242.31
453.646	37834.17
453.852	37641.67
454.058	38161.85
454.264	37086.67
454.47	37920.19
454.676	37139.91
454.882	38278.58
455.088	34913.77
455.294	35028.46
455.5	35929.56
455.705	35859.93
455.911	34930.15
456.117	34127.35
456.323	33553.92
456.529	31843.87
456.735	33177.09
456.941	32607.76
457.147	31479.33
457.352	30961.19
457.558	30432.82
457.764	30475.82
457.97	30006.84
458.176	29326.91
458.381	29421.12
458.587	27694.68
458.793	28040.79
458.999	26470
459.204	28276.3
459.41	27819.61
459.616	25650.81
459.821	25953.91
460.027	25751.16
460.233	25026.18
460.438	23772.82
460.644	24090.26
460.85	23174.81
461.055	22630.05
461.261	22464.17
461.466	21028.54
461.672	20356.81
461.878	21978.8
462.083	20496.07
462.289	20197.07
462.494	19914.45
462.7	19091.16
462.905	18425.57
463.111	19183.32
463.316	19234.52
463.522	18925.28
463.727	18960.09
463.932	18806.5
464.138	18534.12
464.343	18790.11
464.549	18134.76
464.754	18671.33
464.959	18814.69
465.165	18704.1
465.37	17946.35
465.575	17528.56
465.781	18138.86
465.986	18331.37
466.191	17383.16
466.397	17002.24
466.602	16121.61
466.807	17137.4
467.012	17071.87
467.218	17006.33
467.423	16705.28
467.628	16658.18
467.833	17663.73
468.038	16957.18
468.244	16221.96
468.449	16776.96
468.654	16430.85
468.859	16369.41
469.064	16461.57
469.269	15576.85
469.474	15587.09
469.679	16054.03
469.885	15640.34
470.09	15720.21
470.295	15662.86
470.5	15253.27
470.705	15486.74
470.91	14894.88
471.115	14849.82
471.32	15052.57
471.525	15187.74
471.73	14645.02
471.935	14622.5
472.139	14006.06
472.344	14200.62
472.549	14196.52
472.754	14098.22
472.959	13625.14
473.164	13549.36
473.369	13100.86
473.574	13655.86
473.778	13555.51
473.983	13451.06
474.188	13334.32
474.393	13008.7
474.598	12922.68
474.802	12785.47
475.007	12861.24
475.212	12771.13
475.417	12300.1
475.621	12140.36
475.826	12322.63
476.031	11982.67
476.235	11779.92
476.44	12027.72
476.645	11779.92
476.849	12083.02
477.054	11683.66
477.259	11788.11
477.463	11259.73
477.668	11087.7
477.872	11304.79
478.077	11093.85
478.282	10874.71
478.486	11038.55
478.691	10655.58
478.895	10995.54
479.1	10499.94
479.304	10739.55
479.509	10544.99
479.713	10749.79
479.918	10182.5
480.122	10139.49
480.326	10350.43
480.531	10356.58
480.735	10190.69
480.94	10008.42
481.144	10418.02
481.348	9914.22
481.553	10037.09
481.757	10039.14
481.961	9914.22
482.166	10268.52
482.37	10159.97
482.574	9824.11
482.778	9772.91
482.983	10362.72
483.187	10053.48
483.391	10364.77
483.595	10098.53
483.8	9959.27
484.004	9928.55
484.208	9955.18
484.412	9910.12
484.616	9987.94
484.821	9953.13
485.025	9955.18
485.229	10252.13
485.433	9787.24
485.637	10116.97
485.841	9930.6
486.045	10043.24
486.249	9844.59
486.453	9815.91
486.657	10067.81
486.861	9885.55
487.065	9863.02
487.269	10020.71
487.473	9660.27
487.677	10000.23
487.881	10139.49
488.085	9785.19
488.289	9971.56
488.493	10018.66
488.697	10225.51
488.901	10164.07
489.105	9998.18
489.309	10033
489.512	10180.45
489.716	10250.08
489.92	10354.53
490.124	9992.04
490.328	10426.21
490.531	10141.54
490.735	10336.1
490.939	10149.73
491.143	10157.92
491.346	10282.85
491.55	10409.83
491.754	10526.56
491.958	10432.35
492.161	10643.29
492.365	10647.39
492.569	10565.47
492.772	10669.92
492.976	10633.05
493.18	10790.75
493.383	10848.09
493.587	10921.82
493.79	11054.94
493.994	10960.73
494.197	11261.78
494.401	11243.35
494.605	11143
494.808	11411.28
495.012	11405.14
495.215	11138.9
495.419	11581.26
495.622	11411.28
495.825	11849.55
496.029	11648.85
496.232	12093.26
496.436	12023.62
496.639	12396.35
496.843	12142.41
497.046	12343.11
497.249	12650.3
497.453	12740.41
497.656	12787.52
497.859	12762.94
498.063	13117.24
498.266	13143.86
498.469	13186.87
498.673	13350.71
498.876	13571.89
499.079	13895.47
499.282	13700.91
499.485	14026.54
499.689	14024.49
499.892	14346.02
500.095	14186.28
500.298	14630.69
500.501	14368.55
500.705	14798.62
500.908	14941.98
501.111	14991.13
501.314	15279.89
501.517	15644.43
501.72	15675.15
501.923	15720.21
502.126	15683.34
502.329	16363.27
502.532	16463.62
502.735	16506.63
502.938	16903.93
503.141	16762.62
503.344	16930.56
503.547	16865.02
503.75	17272.57
503.953	17667.83
504.156	17770.22
504.359	17995.5
504.562	18224.87
504.765	18353.9
504.968	18620.13
505.17	19023.58
505.373	19007.2
505.576	19406.55
505.779	19773.14
505.982	19652.31
506.185	19760.85
506.387	20043.47
506.59	20127.44
506.793	20520.65
506.996	20582.09
507.198	20973.25
507.401	20979.39
507.604	21386.94
507.807	21829.3
508.009	22023.86
508.212	21903.03
508.415	22380.2
508.617	22494.89
508.82	22750.88
509.022	22511.27
509.225	23148.19
509.428	23348.89
509.63	23463.58
509.833	23592.6
510.035	24219.28
510.238	24102.54
510.44	24829.57
510.643	24731.27
510.845	25108.1
511.048	25091.71
511.25	25423.48
511.453	25636.47
511.655	26361.45
511.858	25849.46
512.06	26314.35
512.262	26416.75
512.465	26715.75
512.667	27211.36
512.87	27418.21
513.072	27383.39
513.274	28159.57
513.477	28048.98
513.679	28409.42
513.881	28862.02
514.084	29259.33
514.286	29105.73
514.488	29539.9
514.69	29849.14
514.893	30080.56
515.095	30359.09
515.297	30760.49
515.499	31018.53
515.701	31270.43
515.904	31456.8
516.106	31555.1
516.308	32230.93
516.51	32474.64
516.712	32429.59
516.914	32646.67
517.116	33414.66
517.318	33394.18
517.52	33261.06
517.722	33893.88
517.925	34350.58
518.127	34655.73
518.329	35143.14
518.531	35077.61
518.733	35636.7
518.935	35878.36
519.136	35837.41
519.338	35978.71
519.54	36644.3
519.742	36906.44
519.944	36752.85
520.146	37406.15
520.348	37584.32
520.55	38096.31
520.752	37891.52
520.954	38563.25
521.155	38391.22
521.357	38917.55
521.559	39161.26
521.761	39497.13
521.963	39577
522.164	40662.42
522.366	40351.13
522.568	40715.67
522.77	40818.07
522.971	41487.75
523.173	41383.3
523.375	41526.66
523.576	41536.9
523.778	41811.33
523.98	42462.58
524.181	42560.89
524.383	42337.66
524.584	43251.05
524.786	42962.29
524.988	42997.1
525.189	43654.5
525.391	43746.66
525.592	43814.24
525.794	44428.63
525.995	44338.52
526.197	44481.88
526.398	44670.29
526.6	44744.02
526.801	44862.8
527.003	45296.97
527.204	45512.01
527.406	45223.25
527.607	45294.92
527.808	45944.13
528.01	45438.28
528.211	45882.69
528.412	46613.82
528.614	46353.72
528.815	46122.3
529.016	46595.39
529.218	46652.73
529.419	46474.55
529.62	46587.19
529.822	46742.84
530.023	47074.61
530.224	47263.02
530.425	46755.13
530.626	47129.9
530.828	46896.44
531.029	47748.39
531.23	47072.56
531.431	46943.54
531.632	47334.7
531.833	47772.97
532.035	47684.9
532.236	47818.02
532.437	47881.51
532.638	47803.69
532.839	47725.86
533.04	48450.84
533.241	47854.89
533.442	48758.04
533.643	48252.19
533.844	47654.18
534.045	48311.58
534.246	48225.57
534.447	48426.27
534.648	48190.75
534.849	48332.06
535.05	47977.76
535.251	48004.39
535.451	48254.24
535.652	48700.7
535.853	48174.37
536.054	48551.2
536.255	48307.49
536.456	48209.18
536.657	48979.22
536.857	48244
537.058	48342.3
537.259	48672.03
537.46	48813.34
537.66	48610.59
537.861	48821.53
538.062	48117.03
538.263	48819.48
538.463	48545.05
538.664	48268.58
538.865	48788.76
539.065	48917.78
539.266	48264.48
539.466	48712.98
539.667	47930.66
539.868	49376.53
540.068	48295.2
540.269	48430.36
540.469	48438.56
540.67	48260.38
540.87	48422.17
541.071	48741.66
541.271	49286.42
541.472	48459.04
541.672	48053.54
541.873	48459.04
542.073	47842.6
542.274	48901.4
542.474	48770.33
542.675	48291.1
542.875	48729.37
543.075	48696.6
543.276	48121.12
543.476	48643.35
543.676	48039.2
543.877	48622.87
544.077	48639.26
544.277	48375.07
544.478	48524.57
544.678	48444.7
544.878	48622.87
545.078	48323.87
545.279	48772.38
545.479	48203.04
545.679	48500
545.879	48360.73
546.079	48512.28
546.28	48637.21
546.48	47951.14
546.68	48225.57
546.88	48672.03
547.08	48342.3
547.28	47969.57
547.48	47881.51
547.68	48672.03
547.88	48061.73
548.081	48409.89
548.281	48024.87
548.481	48229.66
548.681	48631.07
548.881	48413.98
549.081	48413.98
549.28	47840.55
549.48	48659.74
549.68	48045.35
549.88	49196.31
550.08	48106.79
550.28	48010.53
550.48	47836.45
550.68	48762.14
550.88	48319.77
551.08	48338.21
551.279	48377.12
551.479	47844.65
551.679	48332.06
551.879	47961.38
552.079	48504.09
552.278	48090.4
552.478	47963.43
552.678	48418.08
552.878	48211.23
553.077	48145.7
553.277	47549.74
553.477	48291.1
553.676	47813.93
553.876	48176.42
554.076	47910.18
554.275	47910.18
554.475	47420.72
554.674	47668.52
554.874	48170.27
555.074	47664.42
555.273	48131.36
555.473	48248.1
555.672	47590.7
555.872	47983.91
556.071	47893.8
556.271	47619.37
556.47	47506.73
556.67	47150.38
556.869	47387.95
557.068	47670.57
557.268	47017.27
557.467	47177.01
557.667	47437.1
557.866	47410.48
558.065	47406.38
558.265	47152.43
558.464	46740.79
558.663	47414.57
558.863	46554.43
559.062	47000.88
559.261	46701.88
559.461	47285.55
559.66	46824.76
559.859	47174.96
560.058	46443.84
560.258	46878
560.457	46310.72
560.656	46951.73
560.855	46443.84
561.054	46628.15
561.253	46120.26
561.453	46241.09
561.652	46280
561.851	46320.96
562.05	46034.24
562.249	45851.97
562.448	46581.05
562.647	46341.44
562.846	45901.12
563.045	46095.68
563.244	45727.05
563.443	46024
563.642	45778.25
563.841	45849.92
564.04	45440.33
564.239	46431.55
564.438	45188.43
564.637	45460.81
564.836	45559.11
565.035	44559.7
565.234	45155.66
565.432	45221.2
565.631	44739.93
565.83	45325.64
566.029	44801.36
566.228	44819.8
566.427	44793.17
566.625	44322.14
566.824	43740.52
567.023	44842.32
567.222	43418.99
567.42	44617.05
567.619	44268.89
567.818	44010.85
568.016	43791.72
568.215	44027.23
568.414	43799.91
568.612	44111.2
568.811	43877.73
569.01	43933.03
569.208	43115.89
569.407	43955.55
569.605	43337.07
569.804	43480.42
570.002	42837.36
570.201	43752.8
570.4	43193.71
570.598	42894.71
570.797	42468.73
570.995	42765.68
571.193	42552.69
571.392	43068.78
571.59	42483.06
571.789	42798.45
571.987	42337.66
572.186	42438.01
572.384	42470.78
572.582	42308.99
572.781	41934.21
572.979	41549.19
573.177	42018.17
573.376	42071.42
573.574	41166.22
573.772	41794.95
573.971	41905.54
574.169	41299.34
574.367	40971.66
574.565	41536.9
574.763	41237.9
574.962	41045.39
575.16	40824.21
575.358	41244.04
575.556	40400.28
575.754	41225.61
575.952	40029.6
576.151	40807.83
576.349	40099.23
576.547	40308.12
576.745	40531.35
576.943	40357.27
577.141	39972.25
577.339	40263.07
577.537	39763.36
577.735	40132
577.933	39595.43
578.131	39816.61
578.329	39345.58
578.527	38880.69
578.725	39085.48
578.923	39038.38
579.121	39058.86
579.319	39263.66
579.516	39290.28
579.714	39169.45
579.912	38886.83
580.11	38735.28
580.308	38931.89
580.506	38776.24
580.704	38305.21
580.901	38528.44
581.099	38854.06
581.297	38309.3
581.495	38116.79
581.692	38180.28
581.89	37731.78
582.088	38227.38
582.285	37617.09
582.483	37868.99
582.681	37721.54
582.878	37678.53
583.076	37541.32
583.274	37807.55
583.471	37041.61
583.669	37324.23
583.866	36900.3
584.064	37066.19
584.262	36799.95
584.459	37017.04
584.657	37010.89
584.854	37154.25
585.052	36339.16
585.249	36435.41
585.447	36441.56
585.644	36224.47
585.841	35782.11
586.039	36670.93
586.236	36070.87
586.434	36113.88
586.631	35622.37
586.828	36031.96
587.026	35909.08
587.223	35468.77
587.42	35708.38
587.618	35608.03
587.815	34993.64
588.012	35384.8
588.21	35169.77
588.407	35509.73
588.604	34799.08
588.801	35012.07
588.999	34713.07
589.196	34971.11
589.393	34278.9
589.59	34612.72
589.787	34262.52
589.984	34209.27
590.182	34145.78
590.379	34188.79
590.576	33871.36
590.773	34504.18
590.97	33871.36
591.167	33947.13
591.364	33533.44
591.561	34067.96
591.758	33467.91
591.955	33570.3
592.152	33580.54
592.349	33238.53
592.546	33277.44
592.743	33191.43
592.94	32849.42
593.137	33095.18
593.334	33254.92
593.531	32646.67
593.727	32783.88
593.924	32802.32
594.121	32435.73
594.318	32478.74
594.515	32650.77
594.712	32650.77
594.908	32075.29
595.105	32531.98
595.302	31899.16
595.499	31979.03
595.696	32054.81
595.892	31442.46
596.089	31804.95
596.286	31516.19
596.482	31391.26
596.679	31161.89
596.876	31391.26
597.072	31172.13
597.269	31165.99
597.466	30805.55
597.662	31073.83
597.859	31288.87
598.055	30983.72
598.252	30725.68
598.448	30572.08
598.645	30641.71
598.841	30352.94
599.038	30303.79
599.234	30412.34
599.431	30279.22
599.627	29965.88
599.824	30459.44
600.02	30076.47
600.217	30123.57
600.413	29777.47
600.609	29605.44
600.806	29490.75
601.002	29623.87
601.198	29384.26
601.395	29429.31
601.591	29361.73
601.787	29410.88
601.984	29097.54
602.18	29527.61
602.376	28890.7
602.572	29269.57
602.769	29220.42
602.965	28646.99
603.161	28794.44
603.357	28739.15
603.553	28753.48
603.75	28632.65
603.946	28079.7
604.142	28466.77
604.338	28073.56
604.534	28425.81
604.73	28180.05
604.926	27934.29
605.122	28141.14
605.318	27842.14
605.514	27709.02
605.71	27965.01
605.906	27934.29
606.102	27868.76
606.298	27565.66
606.494	27678.3
606.69	27534.94
606.886	27391.58
607.082	27121.25
607.278	27287.14
607.474	26895.97
607.67	27225.7
607.866	26963.56
608.062	27301.47
608.257	27027.04
608.453	26951.27
608.649	26945.12
608.845	26773.1
609.041	27080.29
609.236	26693.22
609.432	26707.56
609.628	26631.79
609.824	26689.13
610.019	26488.43
610.215	26426.99
610.411	26738.28
610.606	26148.46
610.802	26281.58
610.998	26347.12
611.193	26408.56
611.389	25890.42
611.584	26199.66
611.78	26087.03
611.976	25826.93
612.171	26181.23
612.367	25874.04
612.562	25820.79
612.758	25624.18
612.953	25529.98
613.149	25671.29
613.344	25345.66
613.539	26189.42
613.735	25894.52
613.93	25638.52
614.126	25159.3
614.321	25554.55
614.517	25556.6
614.712	25726.58
614.907	25380.48
615.103	25714.3
615.298	25382.52
615.493	25765.49
615.688	25124.48
615.884	25683.58
616.079	24766.09
616.274	25470.59
616.47	25163.39
616.665	25302.65
616.86	24790.66
617.055	24774.28
617.25	24974.98
617.445	25065.09
617.641	24696.46
617.836	24725.13
618.031	24815.24
618.226	24499.85
618.421	24419.98
618.616	24764.04
618.811	24188.56
619.006	24751.75
619.201	24043.15
619.396	24293.01
619.591	23846.55
619.786	23918.23
619.981	23697.05
620.176	24141.46
620.371	23529.11
620.566	23793.3
620.761	23359.13
620.956	23508.63
621.151	23068.32
621.346	23164.57
621.541	23010.98
621.735	23459.48
621.93	22482.6
622.125	23000.74
622.32	22953.63
622.515	22664.87
622.709	22329
622.904	22718.12
623.099	22251.18
623.294	22130.35
623.488	21890.74
623.683	22351.53
623.878	22034.1
624.072	22124.21
624.267	22023.86
624.462	21569.21
624.656	21413.56
624.851	21532.34
625.046	21055.17
625.24	21434.04
625.435	20870.85
625.629	21116.61
625.824	20772.55
626.018	21137.09
626.213	20446.92
626.407	20666.05
626.602	20299.47
626.796	20365
626.991	20690.63
627.185	20350.67
627.38	19930.83
627.574	19986.13
627.768	19963.6
627.963	19713.75
628.157	19515.09
628.352	19795.67
628.546	19619.54
628.74	19482.33
628.935	19486.42
629.129	19341.02
629.323	18867.94
629.517	18943.71
629.712	18931.42
629.906	18951.9
630.1	18448.1
630.294	18763.49
630.489	18560.74
630.683	18978.53
630.877	18431.72
631.071	18390.76
631.265	18327.27
631.459	18185.96
631.653	18106.09
631.848	17991.41
632.042	17661.68
632.236	17936.11
632.43	17583.86
632.624	17864.43
632.818	17477.37
633.012	17426.17
633.206	17331.96
633.4	17301.24
633.594	17106.68
633.788	17426.17
633.982	17086.2
634.176	16918.27
634.369	16742.14
634.563	16795.39
634.757	16551.68
634.951	16744.19
635.145	16682.75
635.339	16621.31
635.533	16381.7
635.726	16430.85
635.92	16000.78
636.114	16146.19
636.308	15972.11
636.501	15994.64
636.695	15990.54
636.889	16142.09
637.083	15634.19
637.276	15914.77
637.47	15939.34
637.664	15337.24
637.857	15664.91
638.051	15558.42
638.244	15511.32
638.438	15361.81
638.632	15267.61
638.825	15077.15
639.019	14823.2
639.212	14892.83
639.406	14657.31
639.599	14872.35
639.793	14829.34
639.986	14337.83
640.18	14841.63
640.373	14593.83
640.567	14354.21
640.76	14231.33
640.954	14182.18
641.147	14104.36
641.34	14219.05
641.534	14278.44
641.727	13903.66
641.92	14014.25
642.114	13707.05
642.307	13670.19
642.5	13743.92
642.694	13616.94
642.887	13518.64
643.08	13700.91
643.273	13618.99
643.467	13621.04
643.66	13299.51
643.853	13231.93
644.046	12973.88
644.239	13262.65
644.432	12881.72
644.626	12994.36
644.819	12975.93
645.012	12838.72
645.205	12840.76
645.398	13043.51
645.591	12582.72
645.784	12623.68
645.977	12484.42
646.17	12521.28
646.363	12353.35
646.556	12326.72
646.749	12156.74
646.942	12488.51
647.135	12070.73
647.328	12302.15
647.521	12021.58
647.714	11691.85
647.907	12117.83
648.099	12037.96
648.292	11837.26
648.485	11849.55
648.678	11601.74
648.871	11626.32
649.064	11550.54
649.256	11499.34
649.449	11532.11
649.642	11534.16
649.835	11085.65
650.027	11296.6
650.22	11134.81
650.413	11024.22
650.605	11243.35
650.798	11069.27
650.991	10991.45
651.183	10946.39
651.376	10858.33
651.568	10878.81
651.761	10839.9
651.954	10932.06
652.146	10680.16
652.339	10491.74
652.531	10616.67
652.724	10692.44
652.916	10395.49
653.109	10491.74
653.301	10405.73
653.494	10518.37
653.686	10051.43
653.879	10446.69
654.071	10057.57
654.263	10133.35
654.456	10194.79
654.648	10104.68
654.84	9881.45
655.033	9844.59
655.225	9981.8
655.417	9901.93
655.61	9762.67
655.802	9725.8
655.994	9439.09
656.186	9850.73
656.379	9652.08
656.571	9604.97
656.763	9502.57
656.955	9418.61
657.148	9459.57
657.34	9465.71
657.532	9250.67
657.724	9162.61
657.916	9334.64
658.108	9039.73
658.3	9103.22
658.492	9215.86
658.684	9033.59
658.876	9183.09
659.068	9015.16
659.26	8906.62
659.452	8923
659.644	8808.31
659.836	8793.98
660.028	8648.57
660.22	8640.38
660.412	8779.64
660.604	8736.63
660.796	8589.18
660.988	8556.41
661.18	8404.86
661.372	8462.21
661.563	8386.43
661.755	8443.78
661.947	8482.69
662.139	8228.74
662.331	8206.21
662.522	8173.44
662.714	8277.89
662.906	8083.33
663.097	8130.44
663.289	7944.07
663.481	7972.74
663.673	8124.29
663.864	7939.97
664.056	7978.89
664.247	7690.12
664.439	7782.28
664.631	7817.1
664.822	7892.87
665.014	7759.75
665.205	7579.53
665.397	7573.39
665.588	7616.4
665.78	7579.53
665.971	7667.59
666.163	7466.89
666.354	7323.54
666.546	7475.09
666.737	7290.77
666.929	7483.28
667.12	7458.7
667.311	7196.56
667.503	7157.65
667.694	7339.92
667.885	7045.01
668.077	7174.03
668.268	7108.5
668.459	7104.4
668.651	7042.96
668.842	6975.38
669.033	7012.24
669.224	6942.61
669.416	6813.59
669.607	6799.26
669.798	6694.81
669.989	6936.47
670.18	6748.06
670.371	6711.19
670.563	6580.12
670.754	6631.32
670.945	6434.72
671.136	6633.37
671.327	6668.19
671.518	6696.86
671.709	6485.92
671.9	6649.75
672.091	6520.73
672.282	6481.82
672.473	6369.18
672.664	6512.54
672.855	6381.47
673.046	6360.99
673.237	6371.23
673.428	6530.97
673.619	6317.98
673.809	6219.68
674	6254.5
674.191	6289.31
674.382	6178.72
674.573	6207.39
674.764	6031.27
674.954	6332.32
675.145	6076.32
675.336	6033.32
675.527	5973.92
675.717	5992.36
675.908	6006.69
676.099	6074.28
676.289	6023.08
676.48	5871.53
676.671	5840.81
676.861	5920.68
677.052	5912.49
677.243	5773.22
677.433	5922.73
677.624	5736.36
677.814	5762.98
678.005	5738.41
678.195	5658.54
678.386	5765.03
678.576	5719.98
678.767	5681.07
678.957	5623.72
679.148	5644.2
679.338	5621.67
679.529	5654.44
679.719	5556.14
679.909	5593
680.1	5437.36
680.29	5484.46
680.481	5451.69
680.671	5525.42
680.861	5533.61
681.052	5601.19
681.242	5433.26
681.432	5326.77
681.622	5334.96
681.813	5425.07
682.003	5318.57
682.193	5330.86
682.383	5304.24
682.573	5289.9
682.764	5253.04
682.954	5412.78
683.144	5257.14
683.334	5316.53
683.524	5226.42
683.714	5212.08
683.904	5216.18
684.094	5291.95
684.284	5099.44
684.474	5205.94
684.664	5205.94
684.854	5033.91
685.044	4974.52
685.234	4949.94
685.424	4921.27
685.614	4960.18
685.804	5130.16
685.994	5124.02
686.184	4951.99
686.374	4929.46
686.564	5048.24
686.753	4855.73
686.943	4769.72
687.133	4796.34
687.323	4951.99
687.513	5005.24
687.702	4777.91
687.892	4847.54
688.082	4884.41
688.272	4837.3
688.461	4655.03
688.651	4882.36
688.841	4808.63
689.03	4712.38
689.22	4513.72
689.41	4685.75
689.599	4515.77
689.789	4601.79
689.979	4585.4
690.168	4638.65
690.358	4704.18
690.547	4532.15
690.737	4460.48
690.926	4470.72
691.116	4466.62
691.305	4528.06
691.495	4401.08
691.684	4372.41
691.874	4366.27
692.063	4405.18
692.252	4343.74
692.442	4300.73
692.631	4263.87
692.82	4200.38
693.01	4253.63
693.199	4306.88
693.388	4079.55
693.578	4270.01
693.767	4200.38
693.956	4218.82
694.146	4257.73
694.335	4128.7
694.524	4165.57
694.713	4149.18
694.902	4181.95
695.092	4210.62
695.281	4181.95
695.47	4069.31
695.659	4073.41
695.848	4059.07
696.037	4097.99
696.226	4059.07
696.415	3948.48
696.604	4149.18
696.793	4097.99
696.982	4042.69
697.171	4007.87
697.36	4044.74
697.549	4075.46
697.738	3870.66
697.927	4116.42
698.116	4073.41
698.305	3932.1
698.494	3889.09
698.683	3909.57
698.872	3938.24
699.061	3930.05
699.25	3854.28
699.438	3874.76
699.627	3825.61
699.816	3903.43
700.005	3854.28
700.193	3846.09
700.382	3870.66
700.571	3717.06
700.76	3766.21
700.948	3954.63
701.137	3831.75
701.326	3864.52
701.514	3796.93
701.703	3870.66
701.892	3844.04
702.08	3852.23
702.269	3901.38
702.457	3825.61
702.646	3854.28
702.834	3751.88
703.023	3583.95
703.212	3682.25
703.4	3758.02
703.589	3719.11
703.777	3864.52
703.965	3760.07
704.154	3663.82
704.342	3624.9
704.531	3641.29
704.719	3645.38
704.907	3624.9
705.096	3639.24
705.284	3690.44
705.472	3680.2
705.661	3758.02
705.849	3598.28
706.037	3680.2
706.226	3561.42
706.414	3729.35
706.602	3555.27
706.79	3616.71
706.979	3563.47
707.167	3459.02
707.355	3565.51
707.543	3540.94
707.731	3594.19
707.919	3536.84
708.107	3542.99
708.296	3542.99
708.484	3452.88
708.672	3442.64
708.86	3364.81
709.048	3602.38
709.236	3481.55
709.424	3493.83
709.612	3489.74
709.8	3516.36
709.988	3526.6
710.176	3479.5
710.364	3377.1
710.551	3432.4
710.739	3456.97
710.927	3542.99
711.115	3395.53
711.303	3450.83
711.491	3434.44
711.679	3254.22
711.866	3301.33
712.054	3403.72
712.242	3358.67
712.43	3420.11
712.617	3383.24
712.805	3401.68
712.993	3356.62
713.181	3334.09
713.368	3192.78
713.556	3223.5
713.744	3250.13
713.931	3356.62
714.119	3309.52
714.306	3229.65
714.494	3352.52
714.682	3340.24
714.869	3364.81
715.057	3332.05
715.244	3209.17
715.432	3401.68
715.619	3221.45
715.807	3221.45
715.994	3246.03
716.182	3153.87
716.369	3172.3
716.556	3291.09
716.744	3063.76
716.931	3205.07
717.119	3436.49
717.306	3119.06
717.493	3293.13
717.681	3168.21
717.868	3364.81
718.055	3051.47
718.242	3176.4
718.43	3176.4
718.617	3067.86
718.804	3149.78
718.991	3209.17
719.179	3176.4
719.366	3168.21
719.553	3119.06
719.74	3082.19
719.927	3114.96
720.114	3006.42
720.301	3030.99
720.488	2981.84
720.676	3059.67
720.863	3006.42
721.05	3059.67
721.237	3139.54
721.424	3045.33
721.611	3086.29
721.798	3067.86
721.985	3127.25
722.172	3104.72
722.358	3026.9
722.545	3047.38
722.732	3080.15
722.919	3084.24
723.106	3063.76
723.293	2908.12
723.48	3004.37
723.667	2959.31
723.853	3004.37
724.04	2961.36
724.227	2967.51
724.414	2924.5
724.6	2920.4
724.787	3033.04
724.974	3059.67
725.161	2963.41
725.347	2901.97
725.534	2912.21
725.72	2899.92
725.907	2897.88
726.094	2901.97
726.28	2836.44
726.467	3076.05
726.653	2947.03
726.84	2992.08
727.027	3045.33
727.213	2820.05
727.4	2881.49
727.586	2818.01
727.773	2779.09
727.959	2881.49
728.145	2828.24
728.332	2873.3
728.518	2822.1
728.705	2867.16
728.891	2811.86
729.077	2813.91
729.264	2863.06
729.45	2619.35
729.636	2834.39
729.823	2721.75
730.009	2672.6
730.195	2893.78
730.382	2811.86
730.568	2779.09
730.754	2770.9
730.94	2811.86
731.126	2686.94
731.313	2736.09
731.499	2813.91
731.685	2691.03
731.871	2701.27
732.057	2740.18
732.243	2766.81
732.429	2725.85
732.615	2799.57
732.801	2963.41
732.987	2705.37
733.173	2674.65
733.359	2713.56
733.545	2836.44
733.731	2740.18
733.917	2772.95
734.103	2598.87
734.289	2711.51
734.475	2688.98
734.661	2750.42
734.847	2666.46
735.033	2672.6
735.219	2703.32
735.404	2746.33
735.59	2701.27
735.776	2602.97
735.962	2627.54
736.148	2592.73
736.333	2623.45
736.519	2686.94
736.705	2684.89
736.89	2613.21
737.076	2598.87
737.262	2598.87
737.447	2688.98
737.633	2703.32
737.819	2549.72
738.004	2578.39
738.19	2584.54
738.375	2613.21
738.561	2580.44
738.747	2500.57
738.932	2475.99
739.118	2660.31
739.303	2519
739.489	2498.52
739.674	2580.44
739.859	2545.63
740.045	2514.91
740.23	2584.54
740.416	2426.84
740.601	2533.34
740.786	2496.47
740.972	2467.8
741.157	2521.05
741.342	2420.7
741.528	2461.66
741.713	2482.14
741.898	2471.9
742.084	2406.36
742.269	2471.9
742.454	2443.23
742.639	2471.9
742.824	2410.46
743.01	2467.8
743.195	2406.36
743.38	2387.93
743.565	2289.63
743.75	2320.35
743.935	2299.87
744.12	2437.08
744.305	2295.77
744.49	2392.03
744.675	2193.37
744.86	2297.82
745.045	2217.95
745.23	2312.16
745.415	2263.01
745.6	2217.95
745.785	2256.86
745.97	2273.25
746.155	2103.26
746.34	2197.47
746.525	2101.22
746.71	2121.7
746.895	2226.14
747.079	2162.66
747.264	2072.54
747.449	2113.5
747.634	2072.54
747.819	2138.08
748.003	2078.69
748.188	2009.06
748.373	2029.54
748.557	2037.73
748.742	1984.48
748.927	2074.59
749.111	2056.16
749.296	1959.91
749.481	1918.95
749.665	2072.54
749.85	1890.28
750.034	1923.04
750.219	1843.17
750.404	1896.42
750.588	1902.56
750.773	1808.36
750.957	1834.98
751.141	1849.32
751.326	1798.12
751.51	1816.55
751.695	1884.13
751.879	1812.45
752.064	1855.46
752.248	1683.43
752.432	1853.41
752.617	1843.17
752.801	1839.08
752.985	1761.25
753.17	1775.59
753.354	1556.46
753.538	1675.24
753.722	1648.61
753.907	1697.77
754.091	1673.19
754.275	1652.71
754.459	1628.14
754.643	1660.9
754.828	1665
755.012	1564.65
755.196	1546.22
755.38	1556.46
755.564	1611.75
755.748	1505.26
755.932	1538.02
756.116	1447.91
756.3	1572.84
756.484	1587.18
756.668	1447.91
756.852	1431.53
757.036	1456.11
757.22	1445.87
757.404	1544.17
757.588	1478.63
757.772	1415.15
757.956	1394.67
758.14	1488.87
758.323	1347.56
758.507	1370.09
758.691	1368.04
758.875	1294.32
759.059	1382.38
759.242	1492.97
759.426	1261.55
759.61	1366
759.794	1394.67
759.977	1331.18
760.161	1312.75
760.345	1419.24
760.528	1372.14
760.712	1337.32
760.895	1275.88
761.079	1300.46
761.263	1304.56
761.446	1189.87
761.63	1318.89
761.813	1361.9
761.997	1220.59
762.18	1331.18
762.364	1357.8
762.547	1220.59
762.731	1304.56
762.914	1222.64
763.098	1136.62
763.281	1294.32
763.464	1163.25
763.648	1183.73
763.831	1222.64
764.015	1163.25
764.198	1153.01
764.381	1144.81
764.564	1220.59
764.748	1134.57
764.931	1150.96
765.114	1134.57
765.297	1243.12
765.481	1159.15
765.664	1144.81
765.847	1128.43
766.03	1185.77
766.213	1103.86
766.397	1200.11
766.58	1075.18
766.763	1132.53
766.946	1148.91
767.129	1116.14
767.312	1048.56
767.495	1107.95
767.678	1062.9
767.861	1038.32
768.044	1112.05
768.227	1116.14
768.41	1017.84
768.593	1062.9
768.776	1073.14
768.959	1185.77
769.142	987.12
769.324	1058.8
769.507	1026.03
769.69	1105.9
769.873	1046.51
770.056	1130.48
770.239	1009.65
770.421	923.63
770.604	1042.42
770.787	995.31
770.97	946.16
771.152	1019.89
771.335	1007.6
771.518	1003.5
771.7	1030.13
771.883	1087.47
772.066	964.59
772.248	1044.46
772.431	974.83
772.613	888.82
772.796	972.79
772.978	913.39
773.161	927.73
773.343	919.54
773.526	1007.6
773.708	915.44
773.891	862.19
774.073	970.74
774.256	856.05
774.438	903.15
774.621	870.39
774.803	927.73
774.985	849.91
775.168	894.96
775.35	851.95
775.532	878.58
775.715	858.1
775.897	804.85
776.079	806.9
776.261	854
776.444	847.86
776.626	778.23
776.808	843.76
776.99	774.13
777.173	782.32
777.355	774.13
777.537	798.71
777.719	729.08
777.901	880.63
778.083	737.27
778.265	776.18
778.447	776.18
778.629	782.32
778.811	753.65
778.993	761.84
779.175	747.51
779.357	667.64
779.539	686.07
779.721	763.89
779.903	849.91
780.085	698.36
780.267	765.94
780.449	808.95
780.631	694.26
780.812	684.02
780.994	622.58
781.176	675.83
781.358	628.73
781.54	628.73
781.721	735.22
781.903	647.16
782.085	649.21
782.267	677.88
782.448	669.69
782.63	567.29
782.812	716.79
782.993	665.59
783.175	755.7
783.357	600.05
783.538	638.97
783.72	626.68
783.901	641.01
784.083	610.29
784.264	602.1
784.446	526.33
784.627	581.62
784.809	581.62
784.99	604.15
785.172	550.9
785.353	489.46
785.535	593.91
785.716	593.91
785.897	565.24
786.079	600.05
786.26	518.14
786.441	575.48
786.623	563.19
786.804	534.52
786.985	477.18
787.167	593.91
787.348	585.72
787.529	481.27
787.71	552.95
787.891	573.43
788.073	602.1
788.254	526.33
788.435	499.7
788.616	456.7
788.797	438.27
788.978	440.31
789.159	493.56
789.34	507.9
789.522	333.82
789.703	495.61
789.884	497.66
790.065	468.98
790.246	477.18
790.427	423.93
790.607	368.63
790.788	423.93
790.969	432.12
791.15	417.79
791.331	368.63
791.512	380.92
791.693	399.35
791.874	509.94
792.054	444.41
792.235	342.01
792.416	442.36
792.597	315.39
792.778	407.55
792.958	342.01
793.139	407.55
793.32	360.44
793.5	485.37
793.681	374.78
793.862	466.94
794.042	432.12
794.223	387.07
794.404	350.2
794.584	360.44
794.765	346.11
794.945	329.72
795.126	403.45
795.306	387.07
795.487	299
795.667	370.68
795.848	313.34
796.028	374.78
796.209	382.97
796.389	329.72
796.57	327.68
796.75	358.39
796.93	405.5
797.111	272.38
797.291	333.82
797.471	354.3
797.652	315.39
797.832	276.48
798.012	352.25
798.192	325.63
798.373	315.39
798.553	344.06
798.733	331.77
798.913	325.63
799.093	321.53
799.274	333.82
799.454	352.25
799.634	307.2
799.814	342.01
799.994	342.01
800.174	272.38
800.354	352.25
800.534	241.66
800.714	350.2
800.894	305.15
801.074	268.28
801.254	313.34
801.434	325.63
801.614	296.96
801.794	260.09
801.974	653.3
802.154	237.56
802.334	376.83
802.514	268.28
802.693	286.72
802.873	286.72
803.053	315.39
803.233	276.48
803.413	313.34
803.592	256
803.772	270.33
803.952	290.81
804.131	288.76
804.311	290.81
804.491	278.52
804.67	245.76
804.85	251.9
805.03	268.28
805.209	245.76
805.389	268.28
805.568	225.28
805.748	210.94
805.928	169.98
806.107	251.9
806.287	274.43
806.466	301.05
806.646	305.15
806.825	303.1
807.004	194.56
807.184	212.99
807.363	233.47
807.543	251.9
807.722	276.48
807.901	227.32
808.081	239.61
808.26	309.24
808.439	241.66
808.619	311.29
808.798	231.42
808.977	210.94
809.156	262.14
809.336	315.39
809.515	288.76
809.694	172.03
809.873	182.27
810.052	124.93
810.231	276.48
810.411	196.61
810.59	210.94
810.769	200.7
810.948	272.38
811.127	194.56
811.306	233.47
811.485	204.8
811.664	223.23
811.843	219.13
812.022	215.04
812.201	225.28
812.38	219.13
812.559	200.7
812.737	167.93
812.916	190.46
813.095	169.98
813.274	243.71
813.453	206.84
813.632	204.8
813.811	169.98
813.989	81.92
814.168	133.12
814.347	210.94
814.526	235.52
814.704	219.13
814.883	229.37
815.062	212.99
815.24	169.98
815.419	55.3
815.598	243.71
815.776	169.98
815.955	163.84
816.133	145.41
816.312	149.5
816.49	145.41
816.669	112.64
816.847	122.88
817.026	243.71
817.204	192.51
817.383	178.17
817.561	106.49
817.74	174.08
817.918	112.64
818.097	231.42
818.275	217.08
818.453	129.02
818.632	124.93
818.81	204.8
818.988	133.12
819.167	206.84
819.345	198.65
819.523	147.45
819.701	202.75
819.879	184.32
820.058	49.15
820.236	165.89
820.414	157.69
820.592	180.22
820.77	176.13
820.948	135.17
821.127	143.36
821.305	153.6
821.483	131.07
821.661	135.17
821.839	102.4
822.017	256
822.195	129.02
822.373	122.88
822.551	88.06
822.729	239.61
822.907	118.78
823.085	161.79
823.262	116.73
823.44	141.31
823.618	188.41
823.796	200.7
823.974	192.51
824.152	231.42
824.329	118.78
824.507	133.12
824.685	200.7
824.863	67.58
825.04	88.06
825.218	161.79
825.396	104.45
825.574	100.35
825.751	73.73
825.929	223.23
826.107	71.68
826.284	110.59
826.462	155.65
826.639	135.17
826.817	77.82
826.994	65.54
827.172	120.83
827.349	159.74
827.527	182.27
827.704	200.7
827.882	100.35
828.059	198.65
828.237	145.41
828.414	256
828.591	104.45
828.769	141.31
828.946	90.11
829.124	186.37
829.301	116.73
829.478	108.54
829.655	178.17
829.833	155.65
830.01	86.01
830.187	106.49
830.364	131.07
830.542	122.88
830.719	145.41
830.896	151.55
831.073	198.65
831.25	79.87
831.427	161.79
831.604	116.73
831.782	124.93
831.959	143.36
832.136	114.69
832.313	106.49
832.49	71.68
832.667	145.41
832.844	139.26
833.021	153.6
833.198	104.45
833.374	88.06
833.551	124.93
833.728	104.45
833.905	147.45
834.082	51.2
834.259	161.79
834.436	167.93
834.612	45.06
834.789	200.7
834.966	75.77
835.143	67.58
835.319	51.2
835.496	51.2
835.673	114.69
835.85	182.27
836.026	79.87
836.203	120.83
836.38	155.65
836.556	114.69
836.733	4.1
836.909	71.68
837.086	178.17
837.262	55.3
837.439	88.06
837.616	75.77
837.792	47.1
837.968	108.54
838.145	10.24
838.321	118.78
838.498	190.46
838.674	81.92
838.851	12.29
839.027	96.25
839.203	63.49
839.38	141.31
839.556	112.64
839.732	104.45
839.909	120.83
840.085	120.83
840.261	75.77
840.437	126.97
840.614	22.53
840.79	83.97
840.966	92.16
841.142	124.93
841.318	73.73
841.494	38.91
841.671	34.82
841.847	34.82
842.023	67.58
842.199	51.2
842.375	69.63
842.551	59.39
842.727	81.92
842.903	49.15
843.079	22.53
843.255	110.59
843.431	133.12
843.607	65.54
843.783	65.54
843.959	30.72
844.134	135.17
844.31	141.31
844.486	0
844.662	141.31
844.838	83.97
845.013	143.36
845.189	-2.05
845.365	47.1
845.541	102.4
845.716	8.19
845.892	92.16
846.068	57.34
846.244	38.91
846.419	83.97
846.595	86.01
846.77	4.1
846.946	92.16
847.122	49.15
847.297	83.97
847.473	57.34
847.648	49.15
847.824	90.11
847.999	51.2
848.175	124.93
848.35	47.1
848.526	96.25
848.701	63.49
848.876	67.58
849.052	116.73
849.227	65.54
849.403	59.39
849.578	63.49
849.753	104.45
849.929	61.44
850.104	16.38
850.279	38.91
850.454	114.69
850.63	18.43
850.805	24.58
850.98	104.45
851.155	59.39
851.33	83.97
851.505	57.34
851.681	86.01
851.856	51.2
852.031	69.63
852.206	59.39
852.381	71.68
852.556	71.68
852.731	92.16
852.906	83.97
853.081	61.44
853.256	55.3
853.431	59.39
853.606	40.96
853.781	20.48
853.956	22.53
854.131	36.86
854.305	20.48
854.48	-30.72
854.655	102.4
854.83	102.4
855.005	114.69
855.18	100.35
855.354	12.29
855.529	65.54
855.704	-16.38
855.879	16.38
856.053	59.39
856.228	137.21
856.403	32.77
856.577	30.72
856.752	55.3
856.926	83.97
857.101	-32.77
857.276	38.91
857.45	38.91
857.625	88.06
857.799	47.1
857.974	51.2
858.148	12.29
858.323	10.24
858.497	45.06
858.672	40.96
858.846	36.86
859.02	83.97
859.195	61.44
859.369	57.34
859.543	51.2
859.718	65.54
859.892	104.45
860.066	126.97
860.241	92.16
860.415	118.78
860.589	38.91
860.763	22.53
860.938	-10.24
861.112	98.3
861.286	2.05
861.46	94.21
861.634	45.06
861.808	55.3
861.982	40.96
862.157	55.3
862.331	-24.58
862.505	43.01
862.679	36.86
862.853	4.1
863.027	-6.14
863.201	86.01
863.375	59.39
863.549	22.53
863.722	22.53
863.896	135.17
864.07	6.14
864.244	90.11
864.418	-26.62
864.592	45.06
864.766	22.53
864.939	32.77
865.113	96.25
865.287	38.91
865.461	26.62
865.634	92.16
865.808	67.58
865.982	-10.24
866.156	77.82
866.329	65.54
866.503	53.25
866.676	14.34
866.85	-22.53
867.024	4.1
867.197	57.34
867.371	83.97
867.544	71.68
867.718	45.06
867.891	24.58
868.065	55.3
868.238	14.34
868.412	59.39
868.585	43.01
868.759	43.01
868.932	43.01
869.105	-14.34
869.279	22.53
869.452	53.25
869.625	32.77
869.799	0
869.972	16.38
870.145	16.38
870.319	26.62
870.492	-26.62
870.665	69.63
870.838	63.49
871.011	2.05
871.185	108.54
871.358	51.2
871.531	73.73
871.704	20.48
871.877	8.19
872.05	22.53
872.223	30.72
872.396	-4.1
872.569	124.93
872.742	-43.01
872.915	47.1
873.088	8.19
873.261	-8.19
873.434	47.1
873.607	120.83
873.78	0
873.953	-16.38
874.126	22.53
874.299	0
874.471	-4.1
874.644	18.43
874.817	-24.58
874.99	59.39
875.163	-10.24
875.335	141.31
875.508	94.21
875.681	-22.53
875.853	28.67
876.026	53.25
876.199	-26.62
876.371	129.02
876.544	14.34
876.717	38.91
876.889	-4.1
877.062	2.05
877.234	38.91
877.407	63.49
877.579	98.3
877.752	-14.34
877.924	40.96
878.097	-22.53
878.269	55.3
878.442	92.16
878.614	-43.01
878.786	18.43
878.959	18.43
879.131	-6.14
879.303	-18.43
879.476	26.62
879.648	8.19
879.82	71.68
879.993	-16.38
880.165	28.67
880.337	6.14
880.509	53.25
880.681	63.49
880.854	12.29
881.026	16.38
881.198	36.86
881.37	77.82
881.542	43.01
881.714	-30.72
881.886	6.14
882.058	18.43
882.23	98.3
882.402	161.79
882.574	-20.48
882.746	47.1
882.918	43.01
883.09	49.15
883.262	38.91
883.434	36.86
883.606	-14.34
883.778	-24.58
883.95	126.97
884.122	30.72
884.293	57.34
884.465	-36.86
884.637	131.07
884.809	6.14
884.98	-14.34
885.152	38.91
885.324	30.72
885.496	-45.06
885.667	43.01
885.839	32.77
886.011	8.19
886.182	16.38
886.354	-38.91
886.525	22.53
886.697	86.01
886.869	20.48
887.04	63.49
887.212	49.15
887.383	38.91
887.555	63.49
887.726	-2.05
887.897	40.96
888.069	6.14
888.24	92.16
888.412	77.82
888.583	47.1
888.754	6.14
888.926	38.91
889.097	6.14
889.268	59.39
889.44	-34.82
889.611	36.86
889.782	30.72
889.953	4.1
890.125	28.67
890.296	2.05
890.467	71.68
890.638	-36.86
890.809	2.05
890.98	55.3
891.151	73.73
891.323	18.43
891.494	67.58
891.665	4.1
891.836	63.49
892.007	-112.64
892.178	28.67
892.349	83.97
892.52	98.3
892.691	38.91
892.862	28.67
893.032	-43.01
893.203	43.01
893.374	-40.96
893.545	34.82
893.716	126.97
893.887	32.77
894.057	100.35
894.228	30.72
894.399	40.96
894.57	34.82
894.74	57.34
894.911	6.14
895.082	49.15
895.253	-8.19
895.423	14.34
895.594	0
895.764	88.06
895.935	0
896.106	94.21
896.276	-20.48
896.447	12.29
896.617	57.34
896.788	-2.05
896.958	12.29
897.129	45.06
897.299	8.19
897.47	28.67
897.64	26.62
897.81	14.34
897.981	26.62
898.151	-30.72
898.322	-4.1
898.492	59.39
898.662	2.05
898.832	-43.01
899.003	79.87
899.173	49.15
899.343	53.25
899.513	14.34
