Data from USB4F104151__237__11-11-17-052.txt Node

Date: Wed Mar 12 11:11:17 EDT 2025
User: louis
Spectrometer: USB4F10415
Trigger mode: 4
Integration Time (sec): 2.000000E-2
Scans to average: 1
Electric dark correction enabled: true
Nonlinearity correction enabled: false
Boxcar width: 0
XAxis mode: Wavelengths
Number of Pixels in Spectrum: 3648
>>>>>Begin Spectral Data<<<<<
178.204	-119.81
178.424	-119.81
178.644	-119.81
178.864	-56.32
179.084	-82.94
179.304	21.5
179.524	1.02
179.744	89.09
179.964	-5.12
180.184	-7.17
180.404	-56.32
180.624	17.41
180.844	19.46
181.064	-37.89
181.283	-21.5
181.503	1.02
181.723	-21.5
181.943	-44.03
182.163	37.89
182.383	46.08
182.602	29.7
182.822	33.79
183.042	136.19
183.262	15.36
183.482	56.32
183.701	84.99
183.921	-50.18
184.141	-27.65
184.361	-13.31
184.58	27.65
184.8	52.22
185.02	35.84
185.239	-19.46
185.459	-15.36
185.679	7.17
185.898	-15.36
186.118	3.07
186.338	-25.6
186.557	56.32
186.777	-1.02
186.997	50.18
187.216	-9.22
187.436	29.7
187.655	25.6
187.875	19.46
188.095	7.17
188.314	21.5
188.534	31.74
188.753	15.36
188.973	-1.02
189.192	-29.7
189.412	44.03
189.631	78.85
189.851	15.36
190.07	1.02
190.29	-19.46
190.509	33.79
190.729	29.7
190.948	31.74
191.168	37.89
191.387	17.41
191.607	72.7
191.826	-17.41
192.045	33.79
192.265	7.17
192.484	56.32
192.704	64.51
192.923	46.08
193.142	44.03
193.362	23.55
193.581	50.18
193.8	-21.5
194.02	-9.22
194.239	-9.22
194.458	21.5
194.678	7.17
194.897	25.6
195.116	3.07
195.335	-19.46
195.555	-21.5
195.774	-5.12
195.993	29.7
196.212	23.55
196.432	66.56
196.651	50.18
196.87	52.22
197.089	125.95
197.308	29.7
197.528	74.75
197.747	17.41
197.966	1.02
198.185	11.26
198.404	-3.07
198.623	132.09
198.842	46.08
199.062	46.08
199.281	17.41
199.5	44.03
199.719	41.98
199.938	60.42
200.157	48.13
200.376	15.36
200.595	44.03
200.814	54.27
201.033	27.65
201.252	-37.89
201.471	-56.32
201.69	41.98
201.909	72.7
202.128	-3.07
202.347	5.12
202.566	44.03
202.785	1.02
203.004	37.89
203.223	78.85
203.442	33.79
203.661	13.31
203.879	11.26
204.098	64.51
204.317	-11.26
204.536	21.5
204.755	-60.42
204.974	48.13
205.193	-35.84
205.411	113.66
205.63	-27.65
205.849	25.6
206.068	-3.07
206.287	11.26
206.505	68.61
206.724	5.12
206.943	7.17
207.162	46.08
207.381	11.26
207.599	-3.07
207.818	-5.12
208.037	78.85
208.255	68.61
208.474	1.02
208.693	-74.75
208.911	-1.02
209.13	3.07
209.349	48.13
209.567	95.23
209.786	46.08
210.005	11.26
210.223	-3.07
210.442	21.5
210.661	-11.26
210.879	29.7
211.098	46.08
211.316	-15.36
211.535	27.65
211.753	3.07
211.972	62.46
212.191	-19.46
212.409	17.41
212.628	3.07
212.846	46.08
213.065	-21.5
213.283	119.81
213.502	68.61
213.72	25.6
213.938	58.37
214.157	1.02
214.375	41.98
214.594	1.02
214.812	48.13
215.031	11.26
215.249	33.79
215.467	-1.02
215.686	5.12
215.904	56.32
216.122	19.46
216.341	60.42
216.559	33.79
216.778	111.61
216.996	82.94
217.214	41.98
217.432	68.61
217.651	115.71
217.869	-11.26
218.087	58.37
218.306	-7.17
218.524	-76.8
218.742	56.32
218.96	-27.65
219.179	41.98
219.397	50.18
219.615	37.89
219.833	7.17
220.051	-25.6
220.27	60.42
220.488	66.56
220.706	25.6
220.924	41.98
221.142	5.12
221.36	-29.7
221.578	9.22
221.796	-3.07
222.015	52.22
222.233	-25.6
222.451	52.22
222.669	31.74
222.887	60.42
223.105	-7.17
223.323	52.22
223.541	13.31
223.759	9.22
223.977	74.75
224.195	21.5
224.413	58.37
224.631	-25.6
224.849	89.09
225.067	39.94
225.285	72.7
225.503	78.85
225.721	-54.27
225.939	29.7
226.157	56.32
226.375	66.56
226.592	70.65
226.81	13.31
227.028	64.51
227.246	-3.07
227.464	-15.36
227.682	66.56
227.9	-39.94
228.117	19.46
228.335	-3.07
228.553	7.17
228.771	48.13
228.989	15.36
229.206	41.98
229.424	66.56
229.642	35.84
229.86	17.41
230.077	48.13
230.295	7.17
230.513	52.22
230.731	66.56
230.948	39.94
231.166	87.04
231.384	46.08
231.601	-15.36
231.819	84.99
232.037	-15.36
232.254	105.47
232.472	-3.07
232.689	52.22
232.907	37.89
233.125	-41.98
233.342	39.94
233.56	-52.22
233.777	-37.89
233.995	-62.46
234.213	87.04
234.43	13.31
234.648	13.31
234.865	-35.84
235.083	70.65
235.3	1.02
235.518	5.12
235.735	82.94
235.953	29.7
236.17	9.22
236.388	31.74
236.605	31.74
236.822	78.85
237.04	52.22
237.257	-13.31
237.475	-1.02
237.692	33.79
237.909	68.61
238.127	29.7
238.344	21.5
238.562	25.6
238.779	44.03
238.996	-17.41
239.214	74.75
239.431	33.79
239.648	17.41
239.865	35.84
240.083	44.03
240.3	31.74
240.517	25.6
240.735	107.52
240.952	19.46
241.169	62.46
241.386	66.56
241.603	93.18
241.821	9.22
242.038	82.94
242.255	15.36
242.472	82.94
242.689	101.37
242.907	52.22
243.124	-21.5
243.341	17.41
243.558	13.31
243.775	27.65
243.992	1.02
244.209	25.6
244.426	64.51
244.643	15.36
244.86	17.41
245.078	37.89
245.295	80.89
245.512	13.31
245.729	-54.27
245.946	64.51
246.163	44.03
246.38	19.46
246.597	23.55
246.814	-9.22
247.031	35.84
247.248	25.6
247.464	33.79
247.681	21.5
247.898	-1.02
248.115	107.52
248.332	56.32
248.549	1.02
248.766	-15.36
248.983	1.02
249.2	62.46
249.417	46.08
249.633	50.18
249.85	27.65
250.067	62.46
250.284	21.5
250.501	50.18
250.717	35.84
250.934	-35.84
251.151	19.46
251.368	7.17
251.585	78.85
251.801	27.65
252.018	21.5
252.235	66.56
252.451	-21.5
252.668	-41.98
252.885	60.42
253.102	-1.02
253.318	-50.18
253.535	-23.55
253.752	46.08
253.968	31.74
254.185	19.46
254.401	58.37
254.618	-11.26
254.835	41.98
255.051	113.66
255.268	44.03
255.484	1.02
255.701	-19.46
255.917	13.31
256.134	46.08
256.351	-56.32
256.567	46.08
256.784	17.41
257	3.07
257.217	62.46
257.433	72.7
257.65	35.84
257.866	76.8
258.082	-7.17
258.299	74.75
258.515	41.98
258.732	15.36
258.948	-50.18
259.165	68.61
259.381	58.37
259.597	7.17
259.814	19.46
260.03	-62.46
260.246	-48.13
260.463	-3.07
260.679	1.02
260.895	9.22
261.112	19.46
261.328	39.94
261.544	-19.46
261.761	95.23
261.977	23.55
262.193	33.79
262.409	5.12
262.626	13.31
262.842	25.6
263.058	-11.26
263.274	-3.07
263.49	3.07
263.707	101.37
263.923	62.46
264.139	7.17
264.355	7.17
264.571	21.5
264.787	46.08
265.004	78.85
265.22	23.55
265.436	109.57
265.652	11.26
265.868	15.36
266.084	46.08
266.3	-5.12
266.516	-25.6
266.732	9.22
266.948	41.98
267.164	-54.27
267.38	17.41
267.596	41.98
267.812	54.27
268.028	80.89
268.244	19.46
268.46	72.7
268.676	44.03
268.892	7.17
269.108	-76.8
269.324	15.36
269.54	-23.55
269.756	103.42
269.972	-5.12
270.188	70.65
270.403	58.37
270.619	15.36
270.835	13.31
271.051	31.74
271.267	70.65
271.483	29.7
271.698	33.79
271.914	25.6
272.13	-7.17
272.346	19.46
272.562	89.09
272.777	-9.22
272.993	117.76
273.209	9.22
273.425	-39.94
273.64	13.31
273.856	-33.79
274.072	-15.36
274.287	9.22
274.503	-9.22
274.719	101.37
274.934	39.94
275.15	-54.27
275.366	-31.74
275.581	-17.41
275.797	23.55
276.012	60.42
276.228	37.89
276.444	13.31
276.659	44.03
276.875	35.84
277.09	48.13
277.306	-21.5
277.521	46.08
277.737	21.5
277.952	17.41
278.168	17.41
278.383	74.75
278.599	-13.31
278.814	25.6
279.03	-13.31
279.245	37.89
279.461	-7.17
279.676	13.31
279.892	39.94
280.107	7.17
280.322	13.31
280.538	1.02
280.753	-23.55
280.969	62.46
281.184	41.98
281.399	9.22
281.615	3.07
281.83	3.07
282.045	25.6
282.26	56.32
282.476	-68.61
282.691	87.04
282.906	13.31
283.122	64.51
283.337	-7.17
283.552	44.03
283.767	-113.66
283.983	9.22
284.198	-11.26
284.413	103.42
284.628	-15.36
284.843	15.36
285.058	-19.46
285.274	27.65
285.489	-13.31
285.704	13.31
285.919	-58.37
286.134	52.22
286.349	62.46
286.564	56.32
286.779	54.27
286.995	33.79
287.21	35.84
287.425	50.18
287.64	9.22
287.855	39.94
288.07	44.03
288.285	54.27
288.5	78.85
288.715	74.75
288.93	82.94
289.145	-15.36
289.36	72.7
289.575	91.13
289.79	95.23
290.004	-3.07
290.219	11.26
290.434	-44.03
290.649	64.51
290.864	82.94
291.079	13.31
291.294	64.51
291.509	70.65
291.724	78.85
291.938	17.41
292.153	46.08
292.368	46.08
292.583	50.18
292.798	76.8
293.012	-23.55
293.227	-68.61
293.442	23.55
293.657	82.94
293.871	115.71
294.086	72.7
294.301	1.02
294.516	29.7
294.73	35.84
294.945	13.31
295.16	52.22
295.374	37.89
295.589	-7.17
295.804	23.55
296.018	76.8
296.233	91.13
296.447	132.09
296.662	11.26
296.877	46.08
297.091	66.56
297.306	21.5
297.52	37.89
297.735	-46.08
297.949	3.07
298.164	37.89
298.378	23.55
298.593	-31.74
298.807	52.22
299.022	-25.6
299.236	-23.55
299.451	-41.98
299.665	-21.5
299.88	44.03
300.094	29.7
300.309	-5.12
300.523	-15.36
300.737	25.6
300.952	44.03
301.166	17.41
301.381	41.98
301.595	41.98
301.809	87.04
302.024	1.02
302.238	-19.46
302.452	37.89
302.667	-66.56
302.881	89.09
303.095	80.89
303.309	21.5
303.524	58.37
303.738	19.46
303.952	-15.36
304.166	-33.79
304.381	41.98
304.595	87.04
304.809	7.17
305.023	13.31
305.237	27.65
305.452	35.84
305.666	-27.65
305.88	111.61
306.094	44.03
306.308	-3.07
306.522	41.98
306.736	39.94
306.95	46.08
307.164	-3.07
307.379	-50.18
307.593	156.67
307.807	84.99
308.021	66.56
308.235	-1.02
308.449	-9.22
308.663	7.17
308.877	35.84
309.091	46.08
309.305	27.65
309.519	-7.17
309.733	33.79
309.947	-23.55
310.161	11.26
310.374	33.79
310.588	5.12
310.802	-5.12
311.016	44.03
311.23	9.22
311.444	-21.5
311.658	-17.41
311.872	121.85
312.085	101.37
312.299	93.18
312.513	29.7
312.727	66.56
312.941	-68.61
313.154	87.04
313.368	-41.98
313.582	-31.74
313.796	-7.17
314.009	89.09
314.223	54.27
314.437	37.89
314.651	54.27
314.864	-31.74
315.078	27.65
315.292	-76.8
315.505	37.89
315.719	-25.6
315.933	70.65
316.146	-11.26
316.36	17.41
316.573	54.27
316.787	-23.55
317.001	19.46
317.214	48.13
317.428	25.6
317.641	7.17
317.855	64.51
318.068	35.84
318.282	72.7
318.495	89.09
318.709	74.75
318.922	58.37
319.136	76.8
319.349	50.18
319.563	35.84
319.776	68.61
319.99	93.18
320.203	58.37
320.417	31.74
320.63	-29.7
320.843	70.65
321.057	11.26
321.27	60.42
321.483	-9.22
321.697	130.05
321.91	78.85
322.124	-19.46
322.337	97.28
322.55	-44.03
322.763	91.13
322.977	17.41
323.19	-23.55
323.403	95.23
323.617	115.71
323.83	82.94
324.043	82.94
324.256	21.5
324.469	21.5
324.683	48.13
324.896	31.74
325.109	64.51
325.322	7.17
325.535	70.65
325.748	-19.46
325.962	35.84
326.175	113.66
326.388	17.41
326.601	5.12
326.814	93.18
327.027	1.02
327.24	37.89
327.453	-11.26
327.666	84.99
327.879	41.98
328.092	33.79
328.305	13.31
328.518	-7.17
328.731	-39.94
328.944	130.05
329.157	13.31
329.37	-1.02
329.583	52.22
329.796	84.99
330.009	11.26
330.222	78.85
330.435	70.65
330.648	78.85
330.861	64.51
331.073	41.98
331.286	31.74
331.499	70.65
331.712	1.02
331.925	17.41
332.138	9.22
332.35	84.99
332.563	15.36
332.776	52.22
332.989	-19.46
333.202	19.46
333.414	23.55
333.627	11.26
333.84	25.6
334.053	13.31
334.265	72.7
334.478	-37.89
334.691	21.5
334.903	11.26
335.116	56.32
335.329	60.42
335.541	5.12
335.754	93.18
335.966	74.75
336.179	50.18
336.392	-11.26
336.604	121.85
336.817	-5.12
337.029	68.61
337.242	-29.7
337.454	78.85
337.667	130.05
337.88	64.51
338.092	58.37
338.305	60.42
338.517	87.04
338.729	84.99
338.942	82.94
339.154	41.98
339.367	41.98
339.579	46.08
339.792	44.03
340.004	52.22
340.217	72.7
340.429	-29.7
340.641	68.61
340.854	66.56
341.066	19.46
341.278	46.08
341.491	35.84
341.703	134.14
341.915	17.41
342.128	11.26
342.34	19.46
342.552	31.74
342.764	5.12
342.977	33.79
343.189	25.6
343.401	44.03
343.613	17.41
343.826	29.7
344.038	66.56
344.25	-19.46
344.462	46.08
344.674	-15.36
344.886	70.65
345.099	56.32
345.311	84.99
345.523	89.09
345.735	7.17
345.947	3.07
346.159	11.26
346.371	60.42
346.583	39.94
346.795	82.94
347.007	66.56
347.219	1.02
347.431	-15.36
347.643	11.26
347.855	-5.12
348.067	13.31
348.279	41.98
348.491	33.79
348.703	37.89
348.915	31.74
349.127	-19.46
349.339	84.99
349.551	-39.94
349.763	31.74
349.975	-19.46
350.187	-3.07
350.399	25.6
350.61	64.51
350.822	-50.18
351.034	13.31
351.246	-35.84
351.458	-1.02
351.669	1.02
351.881	76.8
352.093	37.89
352.305	33.79
352.517	115.71
352.728	-7.17
352.94	54.27
353.152	41.98
353.363	35.84
353.575	58.37
353.787	60.42
353.999	103.42
354.21	-1.02
354.422	-15.36
354.633	33.79
354.845	-7.17
355.057	58.37
355.268	37.89
355.48	50.18
355.692	37.89
355.903	-1.02
356.115	-44.03
356.326	5.12
356.538	68.61
356.749	13.31
356.961	207.87
357.172	60.42
357.384	56.32
357.595	144.38
357.807	7.17
358.018	-25.6
358.23	48.13
358.441	-35.84
358.653	64.51
358.864	64.51
359.075	-35.84
359.287	17.41
359.498	48.13
359.709	31.74
359.921	80.89
360.132	9.22
360.344	68.61
360.555	37.89
360.766	70.65
360.977	44.03
361.189	74.75
361.4	48.13
361.611	87.04
361.823	128
362.034	37.89
362.245	101.37
362.456	29.7
362.667	58.37
362.879	29.7
363.09	87.04
363.301	29.7
363.512	-5.12
363.723	-15.36
363.935	48.13
364.146	3.07
364.357	80.89
364.568	68.61
364.779	-1.02
364.99	72.7
365.201	-19.46
365.412	115.71
365.623	5.12
365.834	48.13
366.045	37.89
366.256	11.26
366.467	44.03
366.678	27.65
366.889	76.8
367.1	39.94
367.311	89.09
367.522	1.02
367.733	37.89
367.944	-1.02
368.155	23.55
368.366	60.42
368.577	-1.02
368.788	35.84
368.999	80.89
369.209	39.94
369.42	91.13
369.631	113.66
369.842	72.7
370.053	1.02
370.264	60.42
370.474	48.13
370.685	41.98
370.896	41.98
371.107	-3.07
371.317	46.08
371.528	21.5
371.739	99.33
371.95	15.36
372.16	48.13
372.371	-56.32
372.582	58.37
372.792	-5.12
373.003	39.94
373.214	74.75
373.424	97.28
373.635	35.84
373.846	56.32
374.056	-7.17
374.267	15.36
374.477	50.18
374.688	84.99
374.898	46.08
375.109	84.99
375.319	56.32
375.53	134.14
375.74	41.98
375.951	29.7
376.161	29.7
376.372	-87.04
376.582	-35.84
376.793	-19.46
377.003	-7.17
377.214	25.6
377.424	35.84
377.635	74.75
377.845	56.32
378.055	66.56
378.266	87.04
378.476	50.18
378.686	-5.12
378.897	41.98
379.107	97.28
379.317	41.98
379.528	33.79
379.738	80.89
379.948	9.22
380.158	54.27
380.369	46.08
380.579	66.56
380.789	37.89
380.999	25.6
381.21	44.03
381.42	115.71
381.63	3.07
381.84	87.04
382.05	82.94
382.261	48.13
382.471	70.65
382.681	7.17
382.891	33.79
383.101	72.7
383.311	5.12
383.521	13.31
383.731	37.89
383.941	74.75
384.151	3.07
384.361	31.74
384.571	-7.17
384.781	46.08
384.991	89.09
385.201	105.47
385.411	78.85
385.621	115.71
385.831	25.6
386.041	95.23
386.251	23.55
386.461	64.51
386.671	29.7
386.881	5.12
387.091	97.28
387.301	74.75
387.511	29.7
387.72	99.33
387.93	9.22
388.14	80.89
388.35	44.03
388.56	78.85
388.769	76.8
388.979	117.76
389.189	41.98
389.399	35.84
389.609	117.76
389.818	68.61
390.028	50.18
390.238	50.18
390.447	11.26
390.657	117.76
390.867	99.33
391.076	31.74
391.286	82.94
391.496	109.57
391.705	50.18
391.915	80.89
392.125	48.13
392.334	48.13
392.544	99.33
392.753	50.18
392.963	37.89
393.172	76.8
393.382	7.17
393.591	105.47
393.801	78.85
394.01	109.57
394.22	37.89
394.429	101.37
394.639	48.13
394.848	130.05
395.058	119.81
395.267	70.65
395.477	9.22
395.686	60.42
395.895	64.51
396.105	162.81
396.314	70.65
396.524	95.23
396.733	123.9
396.942	60.42
397.152	64.51
397.361	142.33
397.57	44.03
397.78	87.04
397.989	117.76
398.198	107.52
398.407	95.23
398.617	97.28
398.826	84.99
399.035	68.61
399.244	74.75
399.453	66.56
399.663	21.5
399.872	84.99
400.081	54.27
400.29	29.7
400.499	119.81
400.708	107.52
400.917	66.56
401.127	89.09
401.336	60.42
401.545	39.94
401.754	105.47
401.963	52.22
402.172	68.61
402.381	140.29
402.59	138.24
402.799	117.76
403.008	109.57
403.217	125.95
403.426	87.04
403.635	48.13
403.844	66.56
404.053	74.75
404.262	50.18
404.471	168.96
404.68	187.39
404.888	183.29
405.097	84.99
405.306	125.95
405.515	128
405.724	37.89
405.933	156.67
406.142	115.71
406.35	54.27
406.559	107.52
406.768	150.53
406.977	173.05
407.185	132.09
407.394	185.34
407.603	152.57
407.812	211.96
408.02	132.09
408.229	175.1
408.438	152.57
408.646	193.53
408.855	156.67
409.064	244.73
409.272	128
409.481	250.88
409.69	232.44
409.898	148.48
410.107	222.2
410.315	209.92
410.524	214.01
410.733	320.51
410.941	263.16
411.15	338.94
411.358	291.84
411.567	316.41
411.775	330.75
411.984	281.6
412.192	365.56
412.401	289.79
412.609	435.19
412.818	414.71
413.026	312.32
413.234	488.44
413.443	422.91
413.651	402.43
413.86	398.33
414.068	502.78
414.276	535.54
414.485	433.15
414.693	529.4
414.901	644.09
415.11	586.74
415.318	615.41
415.526	570.36
415.734	553.98
415.943	652.28
416.151	592.89
416.359	639.99
416.567	676.85
416.776	670.71
416.984	801.78
417.192	758.77
417.4	740.34
417.608	740.34
417.817	852.98
418.025	844.79
418.233	861.17
418.441	836.6
418.649	971.76
418.857	906.23
419.065	982
419.273	926.71
419.481	1065.97
419.689	1123.31
419.897	1127.41
420.105	1141.74
420.313	1188.85
420.521	1217.52
420.729	1299.44
420.937	1348.59
421.145	1389.55
421.353	1393.64
421.561	1508.33
421.769	1473.51
421.977	1575.91
422.185	1592.3
422.393	1668.07
422.601	1721.32
422.809	1735.65
423.017	1758.18
423.224	1838.05
423.432	1856.48
423.64	1905.63
423.848	1999.84
424.056	2016.23
424.263	2143.2
424.471	2122.72
424.679	2216.93
424.887	2415.58
425.094	2499.55
425.302	2309.08
425.51	2550.75
425.718	2655.19
425.925	2630.62
426.133	2706.39
426.341	2943.96
426.548	3054.55
426.756	3021.78
426.964	3050.45
427.171	3304.4
427.379	3310.54
427.586	3335.12
427.794	3449.8
428.001	3658.7
428.209	3752.9
428.417	3707.85
428.624	3894.21
428.832	4017.09
429.039	3953.6
429.247	3855.3
429.454	4318.14
429.662	4660.15
429.869	4279.23
430.076	4637.63
430.284	4408.25
430.491	4580.28
430.699	5002.16
430.906	5061.55
431.114	5051.31
431.321	5006.26
431.528	5354.41
431.736	5602.22
431.943	5874.6
432.15	5866.41
432.358	5731.24
432.565	6142.88
432.772	6202.27
432.979	6351.78
433.187	6396.83
433.394	6642.59
433.601	7162.77
433.808	6923.16
434.016	6951.83
434.223	7316.37
434.43	7758.73
434.637	7431.05
434.844	7893.9
435.052	8219.52
435.259	8156.04
435.466	8278.91
435.673	8192.9
435.88	8803.19
436.087	9098.1
436.294	9126.77
436.501	8829.82
436.708	9167.73
436.915	9397.1
437.122	9751.4
437.329	9638.76
437.537	9960.3
437.743	10230.63
437.95	10306.4
438.157	10517.34
438.364	11121.49
438.571	11068.25
438.778	11152.21
438.985	12165.96
439.192	11393.87
439.399	12225.35
439.606	11735.88
439.813	12636.99
440.02	13216.57
440.227	12942.14
440.433	12729.15
440.64	13327.16
440.847	13065.02
441.054	13361.97
441.261	14349.09
441.467	14111.53
441.674	14369.57
441.881	14873.37
442.088	14816.03
442.294	14848.8
442.501	15196.95
442.708	15465.24
442.914	16007.95
443.121	16761.6
443.328	16024.33
443.534	17367.8
443.741	17025.79
443.948	16552.71
444.154	17953.52
444.361	17672.95
444.568	17971.95
444.774	17857.26
444.981	18062.06
445.187	18776.8
445.394	19471.06
445.6	19069.66
445.807	21287.61
446.013	20077.26
446.22	20275.91
446.426	21289.66
446.633	21473.98
446.839	22299.31
447.046	21084.86
447.252	22276.78
447.459	22385.32
447.665	22330.03
447.871	23392.92
448.078	24183.44
448.284	22868.64
448.491	23560.86
448.697	24488.59
448.903	25057.92
449.11	25090.69
449.316	24681.1
449.522	25340.54
449.728	25823.86
449.935	26002.04
450.141	25916.02
450.347	26616.43
450.553	25784.95
450.76	25787
450.966	26813.03
451.172	26583.66
451.378	27241.06
451.584	26464.88
451.791	27165.28
451.997	27116.13
452.203	27359.84
452.409	27611.74
452.615	27243.1
452.821	26342
453.027	25834.1
453.233	27302.5
453.44	26176.11
453.646	26366.57
453.852	26628.71
454.058	26946.15
454.264	26317.42
454.47	26843.75
454.676	26030.71
454.882	26897
455.088	24554.12
455.294	25102.98
455.5	25258.62
455.705	25649.78
455.911	24646.28
456.117	24099.47
456.323	23612.06
456.529	22444.71
456.735	23306.91
456.941	22715.05
457.147	22592.17
457.352	21549.75
457.558	21445.3
457.764	21467.83
457.97	21168.83
458.176	20378.31
458.381	20595.4
458.587	19446.49
458.793	19475.16
458.999	18402.02
459.204	19692.24
459.41	19401.43
459.616	18072.3
459.821	18094.83
460.027	18111.21
460.233	17826.54
460.438	16515.84
460.644	16986.88
460.85	15973.13
461.055	15895.31
461.261	16087.82
461.466	14793.5
461.672	14443.3
461.878	15176.47
462.083	14338.85
462.289	14111.53
462.494	13808.43
462.7	13128.5
462.905	12962.62
463.111	13425.46
463.316	13357.88
463.522	13126.46
463.727	13073.21
463.932	13126.46
464.138	13071.16
464.343	13005.63
464.549	12579.65
464.754	13130.55
464.959	12786.49
465.165	12860.22
465.37	12487.49
465.575	11979.59
465.781	12557.12
465.986	12710.72
466.191	12159.81
466.397	11795.28
466.602	11483.98
466.807	11834.19
467.012	11699.02
467.218	11803.47
467.423	11428.69
467.628	11596.62
467.833	12020.55
468.038	11690.83
468.244	11139.93
468.449	11844.43
468.654	11273.04
468.859	11465.55
469.064	11256.66
469.269	10763.1
469.474	10818.39
469.679	11238.23
469.885	10726.24
470.09	10914.65
470.295	10867.55
470.5	10617.69
470.705	10646.37
470.91	10310.5
471.115	10378.08
471.32	10625.89
471.525	10343.27
471.73	10226.53
471.935	10177.38
472.139	9751.4
472.344	9988.97
472.549	9884.52
472.754	9765.74
472.959	9417.58
473.164	9325.43
473.369	9280.37
473.574	9614.19
473.778	9393.01
473.983	9122.68
474.188	9300.85
474.393	8854.39
474.598	9005.94
474.802	8782.71
475.007	8727.42
475.212	8852.34
475.417	8506.24
475.621	8420.22
475.826	8465.28
476.031	8166.28
476.235	8283.01
476.44	8401.79
476.645	7943.05
476.849	8262.53
477.054	8045.45
477.259	7920.52
477.463	7771.02
477.668	7889.8
477.872	7623.56
478.077	7773.07
478.282	7306.13
478.486	7488.4
478.691	7388.05
478.895	7496.59
479.1	7431.05
479.304	7439.25
479.509	7177.11
479.713	7289.74
479.918	7275.41
480.122	6962.07
480.326	7033.75
480.531	7134.1
480.735	6984.6
480.94	6953.88
481.144	7140.24
481.348	6792.09
481.553	7084.95
481.757	6853.53
481.961	6931.35
482.166	6962.07
482.37	6849.43
482.574	6767.51
482.778	6747.03
482.983	6806.42
483.187	6771.61
483.391	6806.42
483.595	6816.66
483.8	6669.21
484.004	6775.7
484.208	6824.86
484.412	6896.53
484.616	6790.04
484.821	6853.53
485.025	6800.28
485.229	6904.73
485.433	6980.5
485.637	6886.29
485.841	6609.82
486.045	6896.53
486.249	6931.35
486.453	6759.32
486.657	6687.64
486.861	7009.17
487.065	6687.64
487.269	6826.9
487.473	6646.68
487.677	6831
487.881	6888.34
488.085	6861.72
488.289	6861.72
488.493	6861.72
488.697	6941.59
488.901	6878.1
489.105	6742.94
489.309	6869.91
489.512	7064.47
489.716	6798.23
489.92	6787.99
490.124	6757.27
490.328	7218.07
490.531	6941.59
490.735	6919.06
490.939	7076.76
491.143	6970.26
491.346	6970.26
491.55	6978.45
491.754	6921.11
491.958	7062.42
492.161	7228.31
492.365	7259.03
492.569	7142.29
492.772	7150.48
492.976	7173.01
493.18	7373.71
493.383	7570.32
493.587	7451.53
493.79	7611.28
493.994	7338.9
494.197	7584.65
494.401	7562.12
494.605	7678.86
494.808	7699.34
495.012	7676.81
495.215	7791.5
495.419	7818.12
495.622	7793.55
495.825	7816.07
496.029	7955.33
496.232	8006.53
496.436	8018.82
496.639	8096.64
496.843	8280.96
497.046	8373.12
497.249	8450.94
497.453	8430.46
497.656	8670.08
497.859	8553.34
498.063	8758.14
498.266	8946.55
498.469	8643.45
498.673	8780.67
498.876	9141.11
499.079	9122.68
499.282	9051
499.485	9450.35
499.689	9427.82
499.892	9513.84
500.095	9382.77
500.298	9812.84
500.501	9489.26
500.705	10038.12
500.908	10097.51
501.111	10128.23
501.314	10392.42
501.517	10488.67
501.72	10429.28
501.923	10470.24
502.126	10718.04
502.329	10724.19
502.532	10777.44
502.735	10853.21
502.938	11098.97
503.141	11307.86
503.344	11150.17
503.547	11295.57
503.75	11420.5
503.953	11834.19
504.156	11891.53
504.359	11787.08
504.562	11866.95
504.765	12407.62
504.968	12251.97
505.17	12501.83
505.373	12475.2
505.576	12718.91
505.779	12737.34
505.982	12892.99
506.185	13089.59
506.387	13185.85
506.59	13419.32
506.793	13433.65
506.996	13650.74
507.198	13970.22
507.401	13822.77
507.604	14076.71
507.807	14426.92
508.009	14322.47
508.212	14478.12
508.415	14813.98
508.617	14752.54
508.82	14891.8
509.022	14910.24
509.225	15190.81
509.428	15387.41
509.63	15381.27
509.833	15526.68
510.035	16083.72
510.238	15864.59
510.44	16067.34
510.643	16362.25
510.845	16397.06
511.048	16257.8
511.25	16628.48
511.453	16804.61
511.655	17484.53
511.858	16937.73
512.06	17115.9
512.262	17578.74
512.465	17533.68
512.667	17953.52
512.87	17855.22
513.072	17963.76
513.274	18473.7
513.477	18545.38
513.679	18516.71
513.881	18727.65
514.084	18969.31
514.286	19313.37
514.488	19419.86
514.69	19968.72
514.893	19806.93
515.095	19870.42
515.297	20089.55
515.499	19907.28
515.701	20714.18
515.904	20673.22
516.106	20568.77
516.308	20910.78
516.51	20943.55
516.712	21336.76
516.914	21357.24
517.116	21830.32
517.318	21633.72
517.52	21830.32
517.722	21861.04
517.925	22422.19
518.127	22573.74
518.329	22882.98
518.531	22477.48
518.733	23022.24
518.935	23190.17
519.136	23444.12
519.338	23724.69
519.54	23837.33
519.742	24003.22
519.944	24126.1
520.146	24312.46
520.348	24537.74
520.55	24621.7
520.752	24875.65
520.954	25115.26
521.155	24701.58
521.357	25377.4
521.559	25627.26
521.761	25731.7
521.963	26198.64
522.164	26305.13
522.366	26208.88
522.568	26468.97
522.77	26636.91
522.971	27279.97
523.173	26628.71
523.375	27196
523.576	27333.21
523.778	27329.12
523.98	27523.68
524.181	27822.68
524.383	27462.24
524.584	28205.65
524.786	27892.31
524.988	28211.79
525.189	28488.27
525.391	28621.39
525.592	28824.14
525.794	28817.99
525.995	29010.5
526.197	29459.01
526.398	29055.56
526.6	29416
526.801	29555.26
527.003	29491.77
527.204	29473.34
527.406	29594.17
527.607	29971
527.808	30255.67
528.01	29798.97
528.211	30149.17
528.412	30634.54
528.614	30593.58
528.815	30345.78
529.016	31224.36
529.218	30462.51
529.419	30857.77
529.62	30816.81
529.822	30941.74
530.023	30757.42
530.224	30753.32
530.425	30730.8
530.626	31148.58
530.828	30521.9
531.029	31382.05
531.23	31132.2
531.431	30898.73
531.632	31291.94
531.833	31484.45
532.035	31380
532.236	31619.61
532.437	31558.17
532.638	31242.79
532.839	31472.16
533.04	31631.9
533.241	31457.82
533.442	31939.1
533.643	31427.1
533.844	31300.13
534.045	31891.99
534.246	31425.06
534.447	32180.76
534.648	31636
534.849	31722.01
535.05	31414.82
535.251	31613.47
535.451	31666.72
535.652	31957.53
535.853	31812.12
536.054	31726.11
536.255	31793.69
536.456	31250.98
536.657	32145.94
536.857	31873.56
537.058	31402.53
537.259	31980.06
537.46	31990.3
537.66	31808.03
537.861	31566.37
538.062	31832.6
538.263	31926.81
538.463	31865.37
538.664	31994.39
538.865	31863.32
539.065	31943.19
539.266	31621.66
539.466	31898.14
539.667	31805.98
539.868	32344.59
540.068	31543.84
540.269	31728.16
540.469	32023.06
540.67	32154.13
540.87	31689.24
541.071	31777.31
541.271	31832.6
541.472	31769.12
541.672	31965.72
541.873	31646.24
542.073	31455.78
542.274	32102.93
542.474	31840.79
542.675	31681.05
542.875	31943.19
543.075	31779.36
543.276	31345.19
543.476	32102.93
543.676	31611.42
543.877	31818.27
544.077	31746.59
544.277	31660.57
544.478	31418.91
544.678	31638.05
544.878	31576.61
545.078	31834.65
545.279	31287.84
545.479	31504.93
545.679	31779.36
545.879	31926.81
546.079	31494.69
546.28	31799.83
546.48	31584.8
546.68	31480.35
546.88	31746.59
547.08	31658.52
547.28	31527.45
547.48	31672.86
547.68	31992.34
547.88	31697.44
548.081	31760.92
548.281	31347.23
548.481	31398.43
548.681	31695.39
548.881	31433.25
549.081	31447.58
549.28	31031.85
549.48	31906.33
549.68	31263.27
549.88	31687.2
550.08	31304.23
550.28	31480.35
550.48	31382.05
550.68	31662.62
550.88	31230.5
551.08	31578.65
551.279	31711.77
551.479	31316.51
551.679	31453.73
551.879	31388.19
552.079	31447.58
552.278	31564.32
552.478	31017.51
552.678	31267.36
552.878	31627.81
553.077	31103.53
553.277	31019.56
553.477	31701.53
553.676	31308.32
553.876	31093.29
554.076	31091.24
554.275	30915.11
554.475	30779.95
554.674	31336.99
554.874	30984.74
555.074	31437.34
555.273	31183.4
555.473	31349.28
555.672	30763.56
555.872	30997.03
556.071	30812.71
556.271	31255.08
556.47	30839.34
556.67	30415.41
556.869	30657.07
557.068	30988.84
557.268	30638.64
557.467	30618.16
557.667	30714.41
557.866	30452.27
558.065	30222.9
558.265	30509.61
558.464	30446.13
558.663	30816.81
558.863	29913.66
559.062	30816.81
559.261	30040.63
559.461	30781.99
559.66	30212.66
559.859	30214.71
560.058	30095.92
560.258	30241.33
560.457	29497.92
560.656	30034.49
560.855	29610.56
561.054	29956.66
561.253	29633.08
561.453	29923.9
561.652	29774.39
561.851	29981.24
562.05	29663.8
562.249	29577.79
562.448	29936.18
562.647	29368.9
562.846	29487.68
563.045	29694.52
563.244	29317.7
563.443	29594.17
563.642	29092.42
563.841	29327.94
564.04	28998.21
564.239	29620.8
564.438	28748.36
564.637	29112.9
564.836	28975.69
565.035	28856.9
565.234	29014.6
565.432	28867.14
565.631	28680.78
565.83	29102.66
566.029	28576.33
566.228	28508.75
566.427	28574.28
566.625	28172.88
566.824	27898.45
567.023	28426.83
567.222	27953.75
567.42	28568.14
567.619	28277.33
567.818	28394.06
568.016	27916.89
568.215	28260.94
568.414	27742.81
568.612	28224.08
568.811	27478.62
569.01	27927.13
569.208	27429.47
569.407	27710.04
569.605	27746.9
569.804	27687.51
570.002	27374.17
570.201	27261.54
570.4	27351.65
570.598	26970.72
570.797	26948.2
570.995	26978.92
571.193	26636.91
571.392	26942.05
571.59	26643.05
571.789	26929.77
571.987	26880.61
572.186	26757.74
572.384	26481.26
572.582	26567.27
572.781	26423.92
572.979	26399.34
573.177	26286.7
573.376	26458.73
573.574	26163.82
573.772	26036.85
573.971	26038.9
574.169	25897.59
574.367	25787
574.565	26141.3
574.763	25762.42
574.962	25651.83
575.16	25590.39
575.358	25946.74
575.556	25297.53
575.754	25727.61
575.952	25221.76
576.151	25670.26
576.349	24885.89
576.547	25365.12
576.745	25352.83
576.943	25086.59
577.141	24971.91
577.339	25444.99
577.537	24924.8
577.735	24943.24
577.933	24488.59
578.131	24976
578.329	24703.62
578.527	24601.22
578.725	24466.06
578.923	24695.43
579.121	24472.2
579.319	24500.87
579.516	24496.78
579.714	24515.21
579.912	24232.59
580.11	24169.1
580.308	24093.33
580.506	23906.96
580.704	23620.25
580.901	23714.45
581.099	24189.58
581.297	23911.06
581.495	23732.89
581.692	23997.07
581.89	23503.51
582.088	23624.34
582.285	23487.13
582.483	23550.62
582.681	23427.74
582.878	23028.38
583.076	22887.07
583.274	23409.31
583.471	22903.46
583.669	23005.86
583.866	22962.85
584.064	23292.57
584.262	22751.91
584.459	22792.87
584.657	22493.86
584.854	22932.13
585.052	22102.7
585.249	22391.47
585.447	22559.4
585.644	22231.72
585.841	22532.78
586.039	22362.79
586.236	22205.1
586.434	22338.22
586.631	22006.45
586.828	22315.69
587.026	22031.02
587.223	21975.73
587.42	22000.3
587.618	21926.58
587.815	21371.58
588.012	21662.39
588.21	21301.95
588.407	21858.99
588.604	21402.3
588.801	21463.74
588.999	21449.4
589.196	21283.52
589.393	21254.84
589.59	21119.68
589.787	21023.42
589.984	20986.56
590.182	20871.87
590.379	21037.76
590.576	20929.22
590.773	20984.51
590.97	20456.14
591.167	20650.69
591.364	20650.69
591.561	21052.09
591.758	20431.56
591.955	20470.47
592.152	20458.18
592.349	20359.88
592.546	20728.52
592.743	20683.46
592.94	19956.43
593.137	20374.22
593.334	20081.36
593.531	19976.91
593.727	20062.93
593.924	19817.17
594.121	19890.9
594.318	19856.08
594.515	19745.49
594.712	19792.59
594.908	19684.05
595.105	19647.19
595.302	19497.69
595.499	19438.3
595.696	19260.12
595.892	19256.03
596.089	19350.23
596.286	19292.89
596.482	18975.45
596.679	19350.23
596.876	19182.3
597.072	18954.97
597.269	19118.81
597.466	18813.66
597.662	18844.38
597.859	18997.98
598.055	18739.94
598.252	18615.01
598.448	18539.24
598.645	18729.7
598.841	18154.22
599.038	18586.34
599.234	18328.3
599.431	18197.23
599.627	18254.57
599.824	18387.69
600.02	18150.12
600.217	18205.42
600.413	18037.48
600.609	18223.85
600.806	18203.37
601.002	18148.08
601.198	17902.32
601.395	17978.09
601.591	17732.34
601.787	17718
601.984	17613.56
602.18	17810.16
602.376	17613.56
602.572	17457.91
602.769	17584.88
602.965	17328.89
603.161	17371.89
603.357	17208.06
603.553	17158.91
603.75	17494.77
603.946	17017.6
604.142	17304.31
604.338	16954.11
604.534	17226.49
604.73	16587.52
604.926	16698.11
605.122	16777.98
605.318	16786.18
605.514	16728.83
605.71	16419.59
605.906	16632.58
606.102	16542.47
606.298	16495.36
606.494	16360.2
606.69	16569.09
606.886	16679.68
607.082	16169.74
607.278	16505.6
607.474	16231.18
607.67	16382.73
607.866	15782.67
608.062	16329.48
608.257	15975.18
608.453	15997.71
608.649	16282.38
608.845	16167.69
609.041	15926.03
609.236	15860.49
609.432	16061.19
609.628	15932.17
609.824	15663.89
610.019	15794.96
610.215	15948.56
610.411	15919.89
610.606	15639.31
610.802	15635.22
610.998	15866.64
611.193	15715.09
611.389	15498
611.584	15573.78
611.78	15520.53
611.976	15551.25
612.171	15573.78
612.367	15461.14
612.562	15221.53
612.758	15108.89
612.953	15203.1
613.149	15289.11
613.344	15221.53
613.539	15475.48
613.735	15110.94
613.93	15411.99
614.126	15045.4
614.321	15399.7
614.517	15137.56
614.712	15168.28
614.907	14961.44
615.103	15215.38
615.298	14926.62
615.493	15008.54
615.688	14680.86
615.884	15178.52
616.079	14441.25
616.274	14820.13
616.47	14803.74
616.665	14873.37
616.86	14725.92
617.055	14826.27
617.25	14451.49
617.445	14684.96
617.641	14396.2
617.836	14521.12
618.031	14383.91
618.226	14549.79
618.421	14388
618.616	14242.6
618.811	14062.38
619.006	14400.29
619.201	14101.29
619.396	14277.41
619.591	14107.43
619.786	13980.46
619.981	13851.44
620.176	13982.51
620.371	13732.65
620.566	13933.36
620.761	13871.92
620.956	13724.46
621.151	13562.67
621.346	13796.14
621.541	13359.92
621.735	13566.77
621.93	13431.6
622.125	13200.18
622.32	13136.7
622.515	13316.92
622.709	13177.65
622.904	13142.84
623.099	13060.92
623.294	12860.22
623.488	12952.38
623.683	12823.36
623.878	12641.09
624.072	12643.14
624.267	12585.79
624.462	12399.43
624.656	12397.38
624.851	12544.83
625.046	12264.26
625.24	12438.34
625.435	12217.16
625.629	12211.01
625.824	12096.33
626.018	12020.55
626.213	11885.39
626.407	11895.63
626.602	11643.73
626.796	11666.25
626.991	11815.76
627.185	11864.91
627.38	11606.86
627.574	11596.62
627.768	11469.65
627.963	11367.25
628.157	11238.23
628.352	11377.49
628.546	11240.28
628.74	11285.33
628.935	11164.5
629.129	11109.21
629.323	10802.01
629.517	10949.46
629.712	10699.61
629.906	10789.72
630.1	10867.55
630.294	10785.63
630.489	10609.5
630.683	10675.04
630.877	10455.9
631.071	10523.49
631.265	10773.34
631.459	10204
631.653	10341.22
631.848	10396.51
632.042	10081.13
632.236	10210.15
632.43	10054.5
632.624	10031.97
632.818	9868.14
633.012	9853.8
633.206	9679.72
633.4	9976.68
633.594	9642.86
633.788	9659.24
633.982	9446.26
634.176	9814.89
634.369	9483.12
634.563	9624.43
634.757	9562.99
634.951	9458.54
635.145	9761.64
635.339	9350
635.533	9300.85
635.726	9501.55
635.92	9220.98
636.114	9126.77
636.308	9167.73
636.501	9141.11
636.695	9098.1
636.889	8946.55
637.083	8921.98
637.276	9069.43
637.47	8934.26
637.664	8899.45
637.857	8825.72
638.051	8665.98
638.244	8485.76
638.438	8571.77
638.632	8414.08
638.825	8530.81
639.019	8555.39
639.212	8309.63
639.406	8401.79
639.599	8156.04
639.793	8377.22
639.986	8043.4
640.18	8354.69
640.373	8256.39
640.567	8057.73
640.76	8061.83
640.954	7924.62
641.147	8072.07
641.34	8029.06
641.534	7928.71
641.727	7775.11
641.92	7877.51
642.114	7705.48
642.307	7822.22
642.5	7699.34
642.694	7631.76
642.887	7625.61
643.08	7750.54
643.273	7660.43
643.467	7439.25
643.66	7334.8
643.853	7367.57
644.046	7175.06
644.239	7416.72
644.432	7314.32
644.626	7222.16
644.819	7046.04
645.012	7256.98
645.205	7125.91
645.398	7248.79
645.591	7136.15
645.784	7031.7
645.977	6957.97
646.17	6919.06
646.363	6837.14
646.556	6740.89
646.749	6808.47
646.942	6773.66
647.135	6712.22
647.328	6689.69
647.521	6701.98
647.714	6562.72
647.907	6726.55
648.099	6644.63
648.292	6546.33
648.485	6628.25
648.678	6374.3
648.871	6407.07
649.064	6470.56
649.256	6550.43
649.449	6364.06
649.642	6235.04
649.835	6247.33
650.027	6177.7
650.22	6067.11
650.413	6167.46
650.605	6153.12
650.798	6048.68
650.991	6087.59
651.183	6022.05
651.376	6126.5
651.568	6024.1
651.761	5979.04
651.954	5850.02
652.146	6060.96
652.339	5927.85
652.531	5694.38
652.724	5833.64
652.916	5598.12
653.109	5745.58
653.301	5682.09
653.494	5794.73
653.686	5626.79
653.879	5821.35
654.071	5534.64
654.263	5571.5
654.456	5591.98
654.648	5569.45
654.84	5415.85
655.033	5524.4
655.225	5485.48
655.417	5374.89
655.61	5317.55
655.802	5325.74
655.994	5317.55
656.186	5354.41
656.379	5297.07
656.571	5141.43
656.763	5067.7
656.955	5110.71
657.148	5254.06
657.34	4912.05
657.532	5057.46
657.724	5084.08
657.916	4934.58
658.108	5116.85
658.3	4928.44
658.492	4998.07
658.684	4834.23
658.876	4928.44
659.068	5002.16
659.26	4934.58
659.452	4971.44
659.644	4850.61
659.836	4611
660.028	4840.37
660.22	4684.73
660.412	4613.05
660.604	4619.19
660.796	4721.59
660.988	4500.41
661.18	4625.34
661.372	4430.78
661.563	4561.85
661.755	4567.99
661.947	4606.91
662.139	4441.02
662.331	4412.35
662.522	4531.13
662.714	4328.38
662.906	4422.59
663.097	4412.35
663.289	4369.34
663.481	4195.26
663.673	4436.92
663.864	4391.87
664.056	4215.74
664.247	4336.57
664.439	4133.82
664.631	4170.69
664.822	4146.11
665.014	4121.54
665.205	4168.64
665.397	4117.44
665.588	4119.49
665.78	4068.29
665.971	4086.72
666.163	3974.08
666.354	3996.61
666.546	4025.28
666.737	3949.51
666.929	3990.47
667.12	3994.56
667.311	3904.45
667.503	3883.97
667.694	3922.88
667.885	3906.5
668.077	3843.01
668.268	3861.45
668.459	3787.72
668.651	3900.36
668.842	3826.63
669.033	3597.26
669.224	3767.24
669.416	3748.81
669.607	3746.76
669.798	3701.7
669.989	3701.7
670.18	3601.35
670.371	3670.98
670.563	3638.22
670.754	3658.7
670.945	3619.78
671.136	3652.55
671.327	3582.92
671.518	3470.28
671.709	3488.71
671.9	3546.06
672.091	3462.09
672.282	3437.52
672.473	3488.71
672.664	3412.94
672.855	3388.36
673.046	3515.34
673.237	3445.71
673.428	3548.11
673.619	3398.6
673.809	3437.52
674	3355.6
674.191	3328.97
674.382	3462.09
674.573	3283.92
674.764	3335.12
674.954	3273.68
675.145	3179.47
675.336	3277.77
675.527	3316.69
675.717	3312.59
675.908	3380.17
676.099	3187.66
676.289	3101.65
676.48	3210.19
676.671	3234.77
676.861	3202
677.052	3152.85
677.243	3146.7
677.433	3144.66
677.624	3175.38
677.814	3072.98
678.005	3099.6
678.195	3015.63
678.386	3013.59
678.576	3115.98
678.767	3070.93
678.957	3072.98
679.148	3148.75
679.338	2923.48
679.529	3058.64
679.719	2948.05
679.909	3183.57
680.1	3095.5
680.29	2941.91
680.481	3113.94
680.671	3089.36
680.861	2966.48
681.052	2986.96
681.242	2941.91
681.432	2843.6
681.622	2894.8
681.813	2964.43
682.003	3015.63
682.193	2894.8
682.383	3038.16
682.573	2964.43
682.764	2874.32
682.954	2884.56
683.144	2905.04
683.334	2900.95
683.524	2862.04
683.714	2892.76
683.904	2911.19
684.094	2868.18
684.284	2845.65
684.474	2796.5
684.664	2868.18
684.854	2868.18
685.044	2816.98
685.234	2753.49
685.424	2823.12
685.614	2726.87
685.804	2755.54
685.994	2700.25
686.184	2776.02
686.374	2722.77
686.564	2663.38
686.753	2786.26
686.943	2550.75
687.133	2773.97
687.323	2677.72
687.513	2679.77
687.702	2544.6
687.892	2577.37
688.082	2550.75
688.272	2700.25
688.461	2595.8
688.651	2644.95
688.841	2515.93
689.03	2487.26
689.22	2675.67
689.41	2700.25
689.599	2384.86
689.789	2671.58
689.979	2460.63
690.168	2520.03
690.358	2534.36
690.547	2460.63
690.737	2440.15
690.926	2352.09
691.116	2452.44
691.305	2499.55
691.495	2532.31
691.684	2446.3
691.874	2603.99
692.063	2446.3
692.252	2415.58
692.442	2415.58
692.631	2331.61
692.82	2538.46
693.01	2378.72
693.199	2261.98
693.388	2376.67
693.578	2399.2
693.767	2290.65
693.956	2327.52
694.146	2288.61
694.335	2235.36
694.524	2321.37
694.713	2356.19
694.902	2216.93
695.092	2286.56
695.281	2237.41
695.47	2284.51
695.659	2112.48
695.848	2321.37
696.037	2261.98
696.226	2233.31
696.415	2208.73
696.604	2298.84
696.793	2255.84
696.982	2141.15
697.171	2141.15
697.36	2272.22
697.549	2298.84
697.738	2180.06
697.927	2114.53
698.116	2216.93
698.305	2198.49
698.494	2227.17
698.683	2114.53
698.872	2192.35
699.061	2104.29
699.25	2216.93
699.438	2120.67
699.627	2147.3
699.816	2046.94
700.005	2018.27
700.193	2198.49
700.382	2214.88
700.571	2143.2
700.76	2073.57
700.948	2216.93
701.137	2147.3
701.326	2221.02
701.514	2059.23
701.703	2102.24
701.892	2046.94
702.08	2184.16
702.269	2075.62
702.457	2051.04
702.646	2102.24
702.834	2186.21
703.023	2200.54
703.212	2161.63
703.4	2094.05
703.589	2067.42
703.777	2071.52
703.965	2124.77
704.154	2014.18
704.342	2065.38
704.531	2132.96
704.719	2022.37
704.907	2214.88
705.096	2046.94
705.284	2112.48
705.472	2073.57
705.661	2118.62
705.849	2073.57
706.037	2075.62
706.226	2206.69
706.414	2116.58
706.602	2182.11
706.79	1954.79
706.979	2061.28
707.167	2073.57
707.355	2003.94
707.543	2063.33
707.731	2059.23
707.919	2044.9
708.107	2089.95
708.296	2122.72
708.484	2102.24
708.672	2067.42
708.86	2151.39
709.048	1991.65
709.236	2073.57
709.424	1971.17
709.612	2040.8
709.8	2048.99
709.988	2112.48
710.176	2032.61
710.364	2089.95
710.551	2128.86
710.739	2102.24
710.927	2012.13
711.115	1975.27
711.303	2120.67
711.491	2042.85
711.679	2028.51
711.866	2040.8
712.054	2046.94
712.242	1991.65
712.43	2126.82
712.617	2044.9
712.805	1997.79
712.993	2044.9
713.181	2036.7
713.368	1956.83
713.556	2048.99
713.744	2130.91
713.931	2110.43
714.119	1989.6
714.306	2118.62
714.494	2008.03
714.682	2106.34
714.869	2028.51
715.057	2024.42
715.244	1995.75
715.432	1999.84
715.619	1999.84
715.807	2061.28
715.994	2001.89
716.182	2124.77
716.369	2053.09
716.556	2081.76
716.744	2003.94
716.931	2087.9
717.119	2069.47
717.306	2048.99
717.493	2096.1
717.681	1969.12
717.868	2036.7
718.055	1999.84
718.242	2040.8
718.43	1989.6
718.617	1977.31
718.804	2038.75
718.991	2083.81
719.179	2051.04
719.366	2038.75
719.553	2028.51
719.74	1944.55
719.927	2071.52
720.114	2116.58
720.301	1987.55
720.488	1948.64
720.676	1997.79
720.863	2028.51
721.05	1962.98
721.237	1903.59
721.424	1977.31
721.611	2024.42
721.798	2046.94
721.985	1958.88
722.172	1909.73
722.358	1981.41
722.545	2067.42
722.732	1954.79
722.919	1975.27
723.106	1942.5
723.293	1997.79
723.48	1954.79
723.667	1924.07
723.853	1993.7
724.04	1995.75
724.227	1862.63
724.414	1938.4
724.6	1977.31
724.787	1932.26
724.974	1969.12
725.161	1858.53
725.347	1989.6
725.534	1962.98
725.72	1987.55
725.907	1958.88
726.094	1956.83
726.28	1989.6
726.467	1934.31
726.653	1942.5
726.84	2020.32
727.027	2083.81
727.213	1946.59
727.4	1962.98
727.586	1934.31
727.773	1840.1
727.959	1991.65
728.145	1922.02
728.332	1930.21
728.518	2012.13
728.705	1999.84
728.891	2020.32
729.077	1842.15
729.264	1881.06
729.45	1897.44
729.636	1969.12
729.823	1893.35
730.009	1991.65
730.195	1973.22
730.382	1971.17
730.568	1883.11
730.754	1915.87
730.94	1887.2
731.126	1958.88
731.313	1891.3
731.499	1997.79
731.685	1956.83
731.871	1926.11
732.057	1991.65
732.243	1926.11
732.429	1903.59
732.615	1973.22
732.801	1913.83
732.987	1956.83
733.173	1993.7
733.359	1952.74
733.545	1938.4
733.731	1946.59
733.917	1917.92
734.103	1928.16
734.289	1854.44
734.475	1784.8
734.661	1881.06
734.847	1891.3
735.033	1803.24
735.219	1895.4
735.404	1856.48
735.59	1913.83
735.776	1684.45
735.962	1952.74
736.148	1967.07
736.333	1979.36
736.519	1815.52
736.705	1905.63
736.89	1856.48
737.076	1858.53
737.262	1885.16
737.447	1741.8
737.633	1768.42
737.819	1913.83
738.004	1756.13
738.19	1803.24
738.375	1772.52
738.561	1815.52
738.747	1905.63
738.932	1915.87
739.118	1793
739.303	1809.38
739.489	1876.96
739.674	1768.42
739.859	1815.52
740.045	1831.91
740.23	1805.28
740.416	1778.66
740.601	1749.99
740.786	1721.32
740.972	1825.76
741.157	1754.09
741.342	1694.69
741.528	1776.61
741.713	1711.08
741.898	1733.61
742.084	1723.37
742.269	1838.05
742.454	1717.22
742.639	1682.41
742.824	1850.34
743.01	1629.16
743.195	1686.5
743.38	1698.79
743.565	1743.85
743.75	1612.78
743.935	1618.92
744.12	1670.12
744.305	1610.73
744.49	1512.42
744.675	1598.44
744.86	1721.32
745.045	1592.3
745.23	1594.34
745.415	1655.78
745.6	1653.73
745.785	1553.38
745.97	1600.49
746.155	1520.62
746.34	1565.67
746.525	1596.39
746.71	1553.38
746.895	1563.62
747.079	1555.43
747.264	1489.9
747.449	1473.51
747.634	1555.43
747.819	1475.56
748.003	1487.85
748.188	1567.72
748.373	1520.62
748.557	1487.85
748.742	1520.62
748.927	1315.82
749.111	1457.13
749.296	1405.93
749.481	1450.99
749.665	1430.51
749.85	1430.51
750.034	1522.66
750.219	1352.68
750.404	1377.26
750.588	1321.96
750.773	1405.93
750.957	1311.72
751.141	1307.63
751.326	1450.99
751.51	1373.16
751.695	1352.68
751.879	1250.28
752.064	1281
752.248	1311.72
752.432	1295.34
752.617	1219.57
752.801	1373.16
752.985	1213.42
753.17	1256.43
753.354	1287.15
753.538	1180.65
753.722	1174.51
753.907	1246.19
754.091	1149.93
754.275	1205.23
754.459	1254.38
754.643	1192.94
754.828	1166.32
755.012	1172.46
755.196	1039.34
755.38	1201.13
755.564	1106.93
755.748	1100.78
755.932	1209.33
756.116	1100.78
756.3	1178.61
756.484	1141.74
756.668	1065.97
756.852	1096.69
757.036	986.1
757.22	1113.07
757.404	1080.3
757.588	1037.3
757.772	1049.58
757.956	1135.6
758.14	1053.68
758.323	1061.87
758.507	1033.2
758.691	1025.01
758.875	1090.54
759.059	1121.26
759.242	1012.72
759.426	1008.62
759.61	1045.49
759.794	1070.06
759.977	1061.87
760.161	1111.02
760.345	957.43
760.528	982
760.712	1004.53
760.895	873.46
761.079	986.1
761.263	959.47
761.446	922.61
761.63	887.79
761.813	930.8
761.997	916.47
762.18	920.56
762.364	943.09
762.547	936.95
762.731	922.61
762.914	820.21
763.098	895.99
763.281	895.99
763.464	926.71
763.648	877.55
763.831	840.69
764.015	871.41
764.198	936.95
764.381	865.27
764.564	930.8
764.748	840.69
764.931	824.31
765.114	861.17
765.297	943.09
765.481	834.55
765.664	982
765.847	793.59
766.03	877.55
766.213	791.54
766.397	812.02
766.58	852.98
766.763	869.36
766.946	816.12
767.129	828.4
767.312	830.45
767.495	783.35
767.678	824.31
767.861	832.5
768.044	801.78
768.227	838.64
768.41	863.22
768.593	814.07
768.776	822.26
768.959	818.16
769.142	713.72
769.324	787.44
769.507	787.44
769.69	805.88
769.873	771.06
770.056	762.87
770.239	705.53
770.421	789.49
770.604	773.11
770.787	797.68
770.97	734.2
771.152	693.24
771.335	711.67
771.518	799.73
771.7	746.48
771.883	789.49
772.066	701.43
772.248	726
772.431	771.06
772.613	699.38
772.796	744.44
772.978	730.1
773.161	779.25
773.343	627.7
773.526	771.06
773.708	592.89
773.891	685.05
774.073	687.09
774.256	701.43
774.438	738.29
774.621	719.86
774.803	621.56
774.985	691.19
775.168	672.76
775.35	670.71
775.532	664.57
775.715	601.08
775.897	566.26
776.079	596.98
776.261	646.13
776.444	664.57
776.626	623.61
776.808	642.04
776.99	619.51
777.173	609.27
777.355	627.7
777.537	574.46
777.719	476.15
777.901	619.51
778.083	672.76
778.265	490.49
778.447	576.5
778.629	519.16
778.811	541.69
778.993	566.26
779.175	633.85
779.357	545.78
779.539	513.02
779.721	586.74
779.903	615.41
780.085	529.4
780.267	560.12
780.449	586.74
780.631	527.35
780.812	574.46
780.994	484.34
781.176	476.15
781.358	482.3
781.54	447.48
781.721	459.77
781.903	459.77
782.085	496.63
782.267	502.78
782.448	377.85
782.63	500.73
782.812	470.01
782.993	498.68
783.175	478.2
783.357	375.8
783.538	482.3
783.72	435.19
783.901	476.15
784.083	463.86
784.264	529.4
784.446	314.36
784.627	515.06
784.809	412.67
784.99	472.06
785.172	439.29
785.353	388.09
785.535	377.85
785.716	424.95
785.897	365.56
786.079	404.47
786.26	345.08
786.441	410.62
786.623	431.1
786.804	367.61
786.985	328.7
787.167	383.99
787.348	349.18
787.529	467.96
787.71	478.2
787.891	383.99
788.073	336.89
788.254	332.79
788.435	355.32
788.616	398.33
788.797	424.95
788.978	365.56
789.159	351.23
789.34	293.88
789.522	316.41
789.703	300.03
789.884	349.18
790.065	377.85
790.246	386.04
790.427	328.7
790.607	332.79
790.788	375.8
790.969	302.08
791.15	322.56
791.331	279.55
791.512	351.23
791.693	375.8
791.874	324.6
792.054	351.23
792.235	390.14
792.416	254.97
792.597	308.22
792.778	263.16
792.958	275.45
793.139	287.74
793.32	322.56
793.5	269.31
793.681	312.32
793.862	308.22
794.042	277.5
794.223	205.82
794.404	257.02
794.584	277.5
794.765	295.93
794.945	242.68
795.126	279.55
795.306	328.7
795.487	252.92
795.667	271.36
795.848	306.17
796.028	216.06
796.209	171.01
796.389	207.87
796.57	318.46
796.75	250.88
796.93	283.64
797.111	246.78
797.291	175.1
797.471	261.12
797.652	242.68
797.832	222.2
798.012	300.03
798.192	207.87
798.373	197.63
798.553	173.05
798.733	281.6
798.913	199.68
799.093	197.63
799.274	222.2
799.454	220.16
799.634	300.03
799.814	246.78
799.994	246.78
800.174	216.06
800.354	269.31
800.534	185.34
800.714	269.31
800.894	166.91
801.074	250.88
801.254	209.92
801.434	230.4
801.614	181.25
801.794	201.72
801.974	551.93
802.154	177.15
802.334	285.69
802.514	103.42
802.693	273.4
802.873	214.01
803.053	160.77
803.233	179.2
803.413	158.72
803.592	187.39
803.772	197.63
803.952	193.53
804.131	191.49
804.311	185.34
804.491	175.1
804.67	250.88
804.85	177.15
805.03	136.19
805.209	150.53
805.389	254.97
805.568	226.3
805.748	123.9
805.928	189.44
806.107	154.62
806.287	152.57
806.466	191.49
806.646	259.07
806.825	168.96
807.004	199.68
807.184	95.23
807.363	152.57
807.543	175.1
807.722	148.48
807.901	218.11
808.081	205.82
808.26	76.8
808.439	107.52
808.619	130.05
808.798	209.92
808.977	191.49
809.156	181.25
809.336	84.99
809.515	132.09
809.694	117.76
809.873	181.25
810.052	234.49
810.231	201.72
810.411	189.44
810.59	150.53
810.769	130.05
810.948	183.29
811.127	201.72
811.306	128
811.485	113.66
811.664	166.91
811.843	152.57
812.022	162.81
812.201	125.95
812.38	218.11
812.559	158.72
812.737	144.38
812.916	99.33
813.095	117.76
813.274	160.77
813.453	156.67
813.632	95.23
813.811	162.81
813.989	152.57
814.168	199.68
814.347	64.51
814.526	121.85
814.704	152.57
814.883	162.81
815.062	117.76
815.24	134.14
815.419	146.43
815.598	181.25
815.776	97.28
815.955	115.71
816.133	125.95
816.312	185.34
816.49	168.96
816.669	156.67
816.847	160.77
817.026	168.96
817.204	130.05
817.383	164.86
817.561	39.94
817.74	91.13
817.918	113.66
818.097	95.23
818.275	109.57
818.453	140.29
818.632	84.99
818.81	125.95
818.988	140.29
819.167	72.7
819.345	117.76
819.523	87.04
819.701	130.05
819.879	111.61
820.058	111.61
820.236	97.28
820.414	99.33
820.592	177.15
820.77	109.57
820.948	95.23
821.127	93.18
821.305	101.37
821.483	95.23
821.661	80.89
821.839	113.66
822.017	105.47
822.195	21.5
822.373	70.65
822.551	128
822.729	173.05
822.907	70.65
823.085	99.33
823.262	60.42
823.44	111.61
823.618	84.99
823.796	58.37
823.974	123.9
824.152	111.61
824.329	134.14
824.507	89.09
824.685	95.23
824.863	78.85
825.04	19.46
825.218	103.42
825.396	107.52
825.574	109.57
825.751	80.89
825.929	84.99
826.107	64.51
826.284	136.19
826.462	156.67
826.639	109.57
826.817	72.7
826.994	142.33
827.172	130.05
827.349	50.18
827.527	136.19
827.704	29.7
827.882	74.75
828.059	70.65
828.237	97.28
828.414	166.91
828.591	21.5
828.769	72.7
828.946	101.37
829.124	60.42
829.301	76.8
829.478	95.23
829.655	107.52
829.833	68.61
830.01	119.81
830.187	144.38
830.364	97.28
830.542	74.75
830.719	101.37
830.896	80.89
831.073	164.86
831.25	136.19
831.427	46.08
831.604	89.09
831.782	19.46
831.959	80.89
832.136	132.09
832.313	91.13
832.49	84.99
832.667	62.46
832.844	15.36
833.021	-17.41
833.198	78.85
833.374	50.18
833.551	52.22
833.728	27.65
833.905	23.55
834.082	97.28
834.259	123.9
834.436	97.28
834.612	25.6
834.789	78.85
834.966	1.02
835.143	-3.07
835.319	99.33
835.496	50.18
835.673	66.56
835.85	84.99
836.026	78.85
836.203	91.13
836.38	17.41
836.556	111.61
836.733	70.65
836.909	82.94
837.086	54.27
837.262	62.46
837.439	31.74
837.616	84.99
837.792	19.46
837.968	105.47
838.145	3.07
838.321	80.89
838.498	46.08
838.674	119.81
838.851	62.46
839.027	117.76
839.203	54.27
839.38	74.75
839.556	31.74
839.732	50.18
839.909	115.71
840.085	68.61
840.261	44.03
840.437	109.57
840.614	52.22
840.79	103.42
840.966	19.46
841.142	66.56
841.318	29.7
841.494	111.61
841.671	91.13
841.847	48.13
842.023	52.22
842.199	111.61
842.375	60.42
842.551	66.56
842.727	31.74
842.903	97.28
843.079	50.18
843.255	103.42
843.431	46.08
843.607	48.13
843.783	62.46
843.959	74.75
844.134	29.7
844.31	134.14
844.486	54.27
844.662	31.74
844.838	29.7
845.013	95.23
845.189	-23.55
845.365	113.66
845.541	78.85
845.716	37.89
845.892	50.18
846.068	39.94
846.244	111.61
846.419	64.51
846.595	25.6
846.77	66.56
846.946	97.28
847.122	103.42
847.297	54.27
847.473	35.84
847.648	-19.46
847.824	82.94
847.999	70.65
848.175	66.56
848.35	5.12
848.526	50.18
848.701	64.51
848.876	11.26
849.052	31.74
849.227	37.89
849.403	35.84
849.578	46.08
849.753	46.08
849.929	58.37
850.104	50.18
850.279	56.32
850.454	35.84
850.63	35.84
850.805	44.03
850.98	103.42
851.155	1.02
851.33	-7.17
851.505	19.46
851.681	70.65
851.856	44.03
852.031	44.03
852.206	-29.7
852.381	72.7
852.556	44.03
852.731	76.8
852.906	58.37
853.081	107.52
853.256	-3.07
853.431	-56.32
853.606	58.37
853.781	-44.03
853.956	58.37
854.131	119.81
854.305	-44.03
854.48	27.65
854.655	29.7
854.83	39.94
855.005	15.36
855.18	74.75
855.354	66.56
855.529	29.7
855.704	-35.84
855.879	39.94
856.053	-13.31
856.228	54.27
856.403	-60.42
856.577	87.04
856.752	-23.55
856.926	-13.31
857.101	-48.13
857.276	27.65
857.45	-9.22
857.625	66.56
857.799	46.08
857.974	109.57
858.148	-31.74
858.323	70.65
858.497	54.27
858.672	-15.36
858.846	68.61
859.02	-5.12
859.195	-33.79
859.369	27.65
859.543	-35.84
859.718	87.04
859.892	21.5
860.066	-11.26
860.241	33.79
860.415	41.98
860.589	-54.27
860.763	39.94
860.938	3.07
861.112	-23.55
861.286	5.12
861.46	41.98
861.634	11.26
861.808	54.27
861.982	52.22
862.157	-1.02
862.331	35.84
862.505	13.31
862.679	-37.89
862.853	39.94
863.027	29.7
863.201	78.85
863.375	-7.17
863.549	-27.65
863.722	80.89
863.896	128
864.07	68.61
864.244	7.17
864.418	103.42
864.592	9.22
864.766	50.18
864.939	25.6
865.113	11.26
865.287	101.37
865.461	68.61
865.634	99.33
865.808	-1.02
865.982	50.18
866.156	-76.8
866.329	37.89
866.503	78.85
866.676	27.65
866.85	17.41
867.024	-5.12
867.197	56.32
867.371	60.42
867.544	15.36
867.718	93.18
867.891	-15.36
868.065	-23.55
868.238	46.08
868.412	35.84
868.585	19.46
868.759	29.7
868.932	11.26
869.105	46.08
869.279	-25.6
869.452	70.65
869.625	35.84
869.799	64.51
869.972	21.5
870.145	9.22
870.319	15.36
870.492	-21.5
870.665	-17.41
870.838	-19.46
871.011	-39.94
871.185	46.08
871.358	23.55
871.531	-15.36
871.704	66.56
871.877	17.41
872.05	25.6
872.223	-9.22
872.396	35.84
872.569	-31.74
872.742	15.36
872.915	50.18
873.088	23.55
873.261	11.26
873.434	-5.12
873.607	39.94
873.78	44.03
873.953	-9.22
874.126	21.5
874.299	-13.31
874.471	13.31
874.644	60.42
874.817	23.55
874.99	39.94
875.163	66.56
875.335	37.89
875.508	33.79
875.681	13.31
875.853	-1.02
876.026	39.94
876.199	-17.41
876.371	60.42
876.544	72.7
876.717	13.31
876.889	21.5
877.062	68.61
877.234	13.31
877.407	-13.31
877.579	-27.65
877.752	93.18
877.924	64.51
878.097	109.57
878.269	7.17
878.442	-11.26
878.614	-11.26
878.786	97.28
878.959	9.22
879.131	31.74
879.303	15.36
879.476	60.42
879.648	23.55
879.82	-5.12
879.993	-11.26
880.165	-13.31
880.337	62.46
880.509	66.56
880.681	33.79
880.854	-48.13
881.026	97.28
881.198	11.26
881.37	-60.42
881.542	29.7
881.714	-56.32
881.886	37.89
882.058	-13.31
882.23	39.94
882.402	7.17
882.574	-33.79
882.746	31.74
882.918	44.03
883.09	-48.13
883.262	5.12
883.434	21.5
883.606	-7.17
883.778	-1.02
883.95	44.03
884.122	29.7
884.293	95.23
884.465	39.94
884.637	-11.26
884.809	37.89
884.98	9.22
885.152	7.17
885.324	66.56
885.496	-19.46
885.667	33.79
885.839	-5.12
886.011	-29.7
886.182	-27.65
886.354	25.6
886.525	60.42
886.697	7.17
886.869	-31.74
887.04	-23.55
887.212	89.09
887.383	54.27
887.555	-19.46
887.726	-1.02
887.897	-68.61
888.069	39.94
888.24	17.41
888.412	44.03
888.583	17.41
888.754	-62.46
888.926	-15.36
889.097	-19.46
889.268	-54.27
889.44	17.41
889.611	-9.22
889.782	-7.17
889.953	23.55
890.125	-1.02
890.296	13.31
890.467	-9.22
890.638	9.22
890.809	-56.32
890.98	27.65
891.151	46.08
891.323	17.41
891.494	46.08
891.665	95.23
891.836	56.32
892.007	-35.84
892.178	37.89
892.349	27.65
892.52	31.74
892.691	48.13
892.862	54.27
893.032	-70.65
893.203	27.65
893.374	44.03
893.545	-23.55
893.716	27.65
893.887	46.08
894.057	-3.07
894.228	-1.02
894.399	17.41
894.57	-5.12
894.74	13.31
894.911	-7.17
895.082	-11.26
895.253	60.42
895.423	-15.36
895.594	29.7
895.764	-21.5
895.935	-35.84
896.106	-15.36
896.276	-72.7
896.447	-35.84
896.617	19.46
896.788	27.65
896.958	41.98
897.129	15.36
897.299	11.26
897.47	-7.17
897.64	1.02
897.81	-15.36
897.981	-13.31
898.151	50.18
898.322	-37.89
898.492	58.37
898.662	-17.41
898.832	-37.89
899.003	-44.03
899.173	25.6
899.343	7.17
899.513	15.36
