Data from USB4F104151__17__11-04-50-454.txt Node

Date: Wed Mar 12 11:04:50 EDT 2025
User: louis
Spectrometer: USB4F10415
Trigger mode: 4
Integration Time (sec): 2.000000E-2
Scans to average: 1
Electric dark correction enabled: true
Nonlinearity correction enabled: false
Boxcar width: 0
XAxis mode: Wavelengths
Number of Pixels in Spectrum: 3648
>>>>>Begin Spectral Data<<<<<
178.204	-67.75
178.424	-67.75
178.644	-67.75
178.864	-108.71
179.084	-61.61
179.304	-22.7
179.524	-57.51
179.744	57.17
179.964	-0.17
180.184	40.79
180.404	-32.94
180.624	-24.75
180.844	24.4
181.064	-12.46
181.283	20.31
181.503	69.46
181.723	-61.61
181.943	16.21
182.163	-4.27
182.383	-12.46
182.602	14.17
182.822	18.26
183.042	67.41
183.262	-2.22
183.482	55.12
183.701	38.74
183.921	-8.36
184.141	-20.65
184.361	20.31
184.58	-24.75
184.8	3.93
185.02	-18.6
185.239	30.55
185.459	-2.22
185.679	20.31
185.898	-37.03
186.118	83.8
186.338	67.41
186.557	51.03
186.777	-49.32
186.997	122.71
187.216	48.98
187.436	28.5
187.655	57.17
187.875	18.26
188.095	20.31
188.314	20.31
188.534	94.04
188.753	5.97
188.973	42.84
189.192	-14.51
189.412	-12.46
189.631	-22.7
189.851	48.98
190.07	-41.13
190.29	30.55
190.509	36.69
190.729	-4.27
190.948	57.17
191.168	71.51
191.387	14.17
191.607	-8.36
191.826	44.88
192.045	22.36
192.265	-12.46
192.484	57.17
192.704	-20.65
192.923	-65.71
193.142	48.98
193.362	24.4
193.581	96.08
193.8	81.75
194.02	1.88
194.239	24.4
194.458	-26.79
194.678	30.55
194.897	-28.84
195.116	20.31
195.335	30.55
195.555	30.55
195.774	69.46
195.993	26.45
196.212	-20.65
196.432	-26.79
196.651	-8.36
196.87	22.36
197.089	77.65
197.308	-37.03
197.528	53.08
197.747	1.88
197.966	-32.94
198.185	-2.22
198.404	53.08
198.623	-45.23
198.842	-2.22
199.062	40.79
199.281	40.79
199.5	5.97
199.719	71.51
199.938	12.12
200.157	8.02
200.376	-39.08
200.595	10.07
200.814	-8.36
201.033	38.74
201.252	89.94
201.471	-12.46
201.69	-0.17
201.909	53.08
202.128	-14.51
202.347	-6.31
202.566	32.6
202.785	3.93
203.004	-24.75
203.223	69.46
203.442	8.02
203.661	30.55
203.879	5.97
204.098	34.64
204.317	53.08
204.536	-0.17
204.755	-0.17
204.974	8.02
205.193	30.55
205.411	8.02
205.63	36.69
205.849	73.56
206.068	20.31
206.287	20.31
206.505	42.84
206.724	20.31
206.943	53.08
207.162	-43.18
207.381	14.17
207.599	20.31
207.818	38.74
208.037	-24.75
208.255	30.55
208.474	-12.46
208.693	44.88
208.911	46.93
209.13	16.21
209.349	32.6
209.567	5.97
209.786	61.27
210.005	73.56
210.223	-18.6
210.442	-30.89
210.661	26.45
210.879	3.93
211.098	85.84
211.316	53.08
211.535	81.75
211.753	55.12
211.972	32.6
212.191	26.45
212.409	40.79
212.628	20.31
212.846	-8.36
213.065	-0.17
213.283	24.4
213.502	51.03
213.72	14.17
213.938	73.56
214.157	32.6
214.375	20.31
214.594	-61.61
214.812	73.56
215.031	65.36
215.249	-32.94
215.467	46.93
215.686	51.03
215.904	65.36
216.122	65.36
216.341	-14.51
216.559	59.22
216.778	28.5
216.996	-4.27
217.214	106.32
217.432	-4.27
217.651	-8.36
217.869	26.45
218.087	-55.47
218.306	63.32
218.524	34.64
218.742	10.07
218.96	-2.22
219.179	-34.99
219.397	5.97
219.615	51.03
219.833	65.36
220.051	-71.85
220.27	14.17
220.488	38.74
220.706	42.84
220.924	-12.46
221.142	40.79
221.36	28.5
221.578	57.17
221.796	32.6
222.015	-0.17
222.233	-24.75
222.451	-10.41
222.669	20.31
222.887	55.12
223.105	57.17
223.323	20.31
223.541	96.08
223.759	124.76
223.977	36.69
224.195	40.79
224.413	61.27
224.631	53.08
224.849	87.89
225.067	67.41
225.285	-34.99
225.503	36.69
225.721	48.98
225.939	14.17
226.157	8.02
226.375	75.6
226.592	20.31
226.81	12.12
227.028	-16.55
227.246	96.08
227.464	26.45
227.682	18.26
227.9	-16.55
228.117	-6.31
228.335	3.93
228.553	3.93
228.771	79.7
228.989	69.46
229.206	38.74
229.424	-57.51
229.642	28.5
229.86	5.97
230.077	67.41
230.295	-4.27
230.513	8.02
230.731	106.32
230.948	-10.41
231.166	55.12
231.384	65.36
231.601	16.21
231.819	67.41
232.037	77.65
232.254	-0.17
232.472	18.26
232.689	69.46
232.907	28.5
233.125	12.12
233.342	128.85
233.56	5.97
233.777	69.46
233.995	59.22
234.213	44.88
234.43	104.28
234.648	67.41
234.865	-37.03
235.083	106.32
235.3	-30.89
235.518	69.46
235.735	40.79
235.953	61.27
236.17	-26.79
236.388	124.76
236.605	42.84
236.822	83.8
237.04	55.12
237.257	20.31
237.475	26.45
237.692	36.69
237.909	77.65
238.127	10.07
238.344	51.03
238.562	44.88
238.779	-30.89
238.996	26.45
239.214	36.69
239.431	36.69
239.648	26.45
239.865	28.5
240.083	69.46
240.3	73.56
240.517	1.88
240.735	-8.36
240.952	71.51
241.169	81.75
241.386	83.8
241.603	87.89
241.821	61.27
242.038	106.32
242.255	8.02
242.472	-28.84
242.689	-2.22
242.907	28.5
243.124	63.32
243.341	8.02
243.558	-18.6
243.775	110.42
243.992	65.36
244.209	30.55
244.426	46.93
244.643	26.45
244.86	-4.27
245.078	96.08
245.295	61.27
245.512	28.5
245.729	61.27
245.946	91.99
246.163	79.7
246.38	30.55
246.597	3.93
246.814	69.46
247.031	53.08
247.248	10.07
247.464	46.93
247.681	40.79
247.898	-12.46
248.115	40.79
248.332	8.02
248.549	118.61
248.766	55.12
248.983	-2.22
249.2	3.93
249.417	102.23
249.633	26.45
249.85	61.27
250.067	-10.41
250.284	8.02
250.501	30.55
250.717	81.75
250.934	-16.55
251.151	53.08
251.368	-55.47
251.585	8.02
251.801	40.79
252.018	-0.17
252.235	42.84
252.451	28.5
252.668	8.02
252.885	40.79
253.102	30.55
253.318	-57.51
253.535	46.93
253.752	57.17
253.968	20.31
254.185	44.88
254.401	-14.51
254.618	48.98
254.835	8.02
255.051	147.28
255.268	-22.7
255.484	85.84
255.701	61.27
255.917	44.88
256.134	16.21
256.351	46.93
256.567	16.21
256.784	38.74
257	77.65
257.217	69.46
257.433	42.84
257.65	51.03
257.866	8.02
258.082	-14.51
258.299	24.4
258.515	46.93
258.732	30.55
258.948	10.07
259.165	110.42
259.381	24.4
259.597	-16.55
259.814	-0.17
260.03	-8.36
260.246	34.64
260.463	18.26
260.679	20.31
260.895	-20.65
261.112	26.45
261.328	-28.84
261.544	79.7
261.761	83.8
261.977	-34.99
262.193	18.26
262.409	30.55
262.626	-37.03
262.842	-41.13
263.058	-6.31
263.274	85.84
263.49	42.84
263.707	75.6
263.923	55.12
264.139	-6.31
264.355	61.27
264.571	63.32
264.787	-14.51
265.004	91.99
265.22	51.03
265.436	16.21
265.652	36.69
265.868	55.12
266.084	38.74
266.3	30.55
266.516	51.03
266.732	69.46
266.948	26.45
267.164	1.88
267.38	40.79
267.596	57.17
267.812	26.45
268.028	-24.75
268.244	75.6
268.46	-4.27
268.676	12.12
268.892	3.93
269.108	-8.36
269.324	20.31
269.54	44.88
269.756	24.4
269.972	-14.51
270.188	-6.31
270.403	69.46
270.619	77.65
270.835	48.98
271.051	14.17
271.267	-4.27
271.483	-30.89
271.698	73.56
271.914	48.98
272.13	-30.89
272.346	46.93
272.562	59.22
272.777	34.64
272.993	12.12
273.209	12.12
273.425	28.5
273.64	-2.22
273.856	3.93
274.072	20.31
274.287	5.97
274.503	5.97
274.719	40.79
274.934	59.22
275.15	32.6
275.366	-16.55
275.581	-16.55
275.797	59.22
276.012	53.08
276.228	48.98
276.444	3.93
276.659	46.93
276.875	12.12
277.09	122.71
277.306	-49.32
277.521	59.22
277.737	40.79
277.952	59.22
278.168	-6.31
278.383	-8.36
278.599	44.88
278.814	28.5
279.03	12.12
279.245	3.93
279.461	55.12
279.676	46.93
279.892	-28.84
280.107	-12.46
280.322	1.88
280.538	-0.17
280.753	102.23
280.969	73.56
281.184	-86.19
281.399	-12.46
281.615	28.5
281.83	81.75
282.045	36.69
282.26	53.08
282.476	-20.65
282.691	-4.27
282.906	48.98
283.122	77.65
283.337	51.03
283.552	-14.51
283.767	18.26
283.983	30.55
284.198	32.6
284.413	10.07
284.628	-30.89
284.843	-20.65
285.058	69.46
285.274	55.12
285.489	77.65
285.704	18.26
285.919	53.08
286.134	26.45
286.349	-12.46
286.564	-0.17
286.779	122.71
286.995	-4.27
287.21	57.17
287.425	-26.79
287.64	55.12
287.855	44.88
288.07	-26.79
288.285	87.89
288.5	81.75
288.715	69.46
288.93	-34.99
289.145	-20.65
289.36	44.88
289.575	61.27
289.79	-32.94
290.004	-28.84
290.219	89.94
290.434	81.75
290.649	32.6
290.864	-18.6
291.079	46.93
291.294	46.93
291.509	-0.17
291.724	-18.6
291.938	8.02
292.153	-4.27
292.368	85.84
292.583	-12.46
292.798	30.55
293.012	5.97
293.227	16.21
293.442	14.17
293.657	57.17
293.871	57.17
294.086	91.99
294.301	102.23
294.516	8.02
294.73	67.41
294.945	36.69
295.16	46.93
295.374	12.12
295.589	106.32
295.804	24.4
296.018	81.75
296.233	53.08
296.447	44.88
296.662	57.17
296.877	38.74
297.091	-0.17
297.306	73.56
297.52	44.88
297.735	75.6
297.949	38.74
298.164	79.7
298.378	126.8
298.593	18.26
298.807	-26.79
299.022	16.21
299.236	22.36
299.451	20.31
299.665	46.93
299.88	57.17
300.094	71.51
300.309	36.69
300.523	20.31
300.737	44.88
300.952	40.79
301.166	-10.41
301.381	12.12
301.595	40.79
301.809	42.84
302.024	14.17
302.238	26.45
302.452	69.46
302.667	55.12
302.881	36.69
303.095	59.22
303.309	75.6
303.524	51.03
303.738	57.17
303.952	75.6
304.166	20.31
304.381	-14.51
304.595	108.37
304.809	-4.27
305.023	73.56
305.237	3.93
305.452	40.79
305.666	28.5
305.88	10.07
306.094	75.6
306.308	79.7
306.522	83.8
306.736	48.98
306.95	116.56
307.164	16.21
307.379	24.4
307.593	51.03
307.807	63.32
308.021	30.55
308.235	69.46
308.449	-43.18
308.663	18.26
308.877	46.93
309.091	73.56
309.305	61.27
309.519	40.79
309.733	77.65
309.947	-32.94
310.161	48.98
310.374	77.65
310.588	40.79
310.802	8.02
311.016	30.55
311.23	-28.84
311.444	28.5
311.658	83.8
311.872	18.26
312.085	38.74
312.299	57.17
312.513	51.03
312.727	71.51
312.941	-22.7
313.154	38.74
313.368	42.84
313.582	26.45
313.796	67.41
314.009	12.12
314.223	61.27
314.437	46.93
314.651	16.21
314.864	14.17
315.078	28.5
315.292	-10.41
315.505	32.6
315.719	12.12
315.933	18.26
316.146	3.93
316.36	32.6
316.573	61.27
316.787	69.46
317.001	-41.13
317.214	18.26
317.428	22.36
317.641	-8.36
317.855	30.55
318.068	48.98
318.282	65.36
318.495	36.69
318.709	22.36
318.922	79.7
319.136	91.99
319.349	91.99
319.563	22.36
319.776	-20.65
319.99	20.31
320.203	108.37
320.417	-28.84
320.63	59.22
320.843	75.6
321.057	36.69
321.27	-75.95
321.483	51.03
321.697	83.8
321.91	-28.84
322.124	75.6
322.337	26.45
322.55	-22.7
322.763	73.56
322.977	48.98
323.19	36.69
323.403	-2.22
323.617	46.93
323.83	106.32
324.043	36.69
324.256	34.64
324.469	91.99
324.683	44.88
324.896	-45.23
325.109	-43.18
325.322	-34.99
325.535	14.17
325.748	-10.41
325.962	14.17
326.175	-26.79
326.388	57.17
326.601	61.27
326.814	-18.6
327.027	1.88
327.24	65.36
327.453	22.36
327.666	-39.08
327.879	10.07
328.092	24.4
328.305	8.02
328.518	67.41
328.731	12.12
328.944	65.36
329.157	22.36
329.37	98.13
329.583	89.94
329.796	32.6
330.009	-47.27
330.222	61.27
330.435	-51.37
330.648	55.12
330.861	-0.17
331.073	65.36
331.286	83.8
331.499	57.17
331.712	46.93
331.925	77.65
332.138	-14.51
332.35	94.04
332.563	48.98
332.776	85.84
332.989	-28.84
333.202	132.95
333.414	20.31
333.627	48.98
333.84	26.45
334.053	55.12
334.265	14.17
334.478	55.12
334.691	98.13
334.903	5.97
335.116	53.08
335.329	-51.37
335.541	83.8
335.754	104.28
335.966	16.21
336.179	12.12
336.392	1.88
336.604	44.88
336.817	36.69
337.029	-4.27
337.242	28.5
337.454	16.21
337.667	40.79
337.88	-2.22
338.092	1.88
338.305	53.08
338.517	-12.46
338.729	83.8
338.942	32.6
339.154	-24.75
339.367	-32.94
339.579	75.6
339.792	-10.41
340.004	83.8
340.217	53.08
340.429	110.42
340.641	24.4
340.854	26.45
341.066	14.17
341.278	-8.36
341.491	77.65
341.703	26.45
341.915	30.55
342.128	57.17
342.34	89.94
342.552	40.79
342.764	24.4
342.977	-10.41
343.189	24.4
343.401	67.41
343.613	46.93
343.826	-32.94
344.038	44.88
344.25	3.93
344.462	8.02
344.674	20.31
344.886	-22.7
345.099	-30.89
345.311	48.98
345.523	24.4
345.735	36.69
345.947	100.18
346.159	12.12
346.371	20.31
346.583	106.32
346.795	44.88
347.007	75.6
347.219	24.4
347.431	8.02
347.643	32.6
347.855	-4.27
348.067	16.21
348.279	-12.46
348.491	32.6
348.703	3.93
348.915	34.64
349.127	-43.18
349.339	1.88
349.551	36.69
349.763	20.31
349.975	94.04
350.187	48.98
350.399	61.27
350.61	-45.23
350.822	-24.75
351.034	40.79
351.246	55.12
351.458	69.46
351.669	48.98
351.881	32.6
352.093	-10.41
352.305	89.94
352.517	46.93
352.728	112.47
352.94	5.97
353.152	-12.46
353.363	18.26
353.575	30.55
353.787	139.09
353.999	63.32
354.21	122.71
354.422	42.84
354.633	59.22
354.845	63.32
355.057	57.17
355.268	-32.94
355.48	30.55
355.692	-8.36
355.903	87.89
356.115	28.5
356.326	61.27
356.538	42.84
356.749	8.02
356.961	91.99
357.172	-6.31
357.384	40.79
357.595	85.84
357.807	10.07
358.018	73.56
358.23	12.12
358.441	-2.22
358.653	61.27
358.864	16.21
359.075	24.4
359.287	-28.84
359.498	124.76
359.709	63.32
359.921	20.31
360.132	-2.22
360.344	69.46
360.555	65.36
360.766	71.51
360.977	67.41
361.189	89.94
361.4	38.74
361.611	69.46
361.823	53.08
362.034	-12.46
362.245	36.69
362.456	75.6
362.667	73.56
362.879	46.93
363.09	26.45
363.301	42.84
363.512	67.41
363.723	65.36
363.935	-12.46
364.146	46.93
364.357	106.32
364.568	65.36
364.779	36.69
364.99	69.46
365.201	-4.27
365.412	112.47
365.623	36.69
365.834	10.07
366.045	57.17
366.256	81.75
366.467	75.6
366.678	-0.17
366.889	-4.27
367.1	34.64
367.311	91.99
367.522	5.97
367.733	26.45
367.944	89.94
368.155	-6.31
368.366	55.12
368.577	75.6
368.788	22.36
368.999	-34.99
369.209	67.41
369.42	44.88
369.631	65.36
369.842	40.79
370.053	71.51
370.264	-12.46
370.474	20.31
370.685	46.93
370.896	3.93
371.107	85.84
371.317	46.93
371.528	-6.31
371.739	100.18
371.95	1.88
372.16	63.32
372.371	40.79
372.582	30.55
372.792	18.26
373.003	116.56
373.214	65.36
373.424	85.84
373.635	-20.65
373.846	51.03
374.056	81.75
374.267	16.21
374.477	87.89
374.688	48.98
374.898	-22.7
375.109	106.32
375.319	42.84
375.53	69.46
375.74	61.27
375.951	-26.79
376.161	30.55
376.372	30.55
376.582	53.08
376.793	46.93
377.003	55.12
377.214	-8.36
377.424	44.88
377.635	79.7
377.845	28.5
378.055	65.36
378.266	1.88
378.476	110.42
378.686	59.22
378.897	73.56
379.107	67.41
379.317	44.88
379.528	44.88
379.738	48.98
379.948	8.02
380.158	48.98
380.369	-22.7
380.579	26.45
380.789	28.5
380.999	28.5
381.21	36.69
381.42	36.69
381.63	71.51
381.84	63.32
382.05	79.7
382.261	28.5
382.471	20.31
382.681	110.42
382.891	10.07
383.101	85.84
383.311	73.56
383.521	36.69
383.731	79.7
383.941	65.36
384.151	57.17
384.361	44.88
384.571	36.69
384.781	14.17
384.991	65.36
385.201	69.46
385.411	18.26
385.621	32.6
385.831	102.23
386.041	69.46
386.251	24.4
386.461	61.27
386.671	40.79
386.881	94.04
387.091	75.6
387.301	22.36
387.511	-12.46
387.72	59.22
387.93	77.65
388.14	63.32
388.35	28.5
388.56	59.22
388.769	108.37
388.979	32.6
389.189	-14.51
389.399	71.51
389.609	32.6
389.818	63.32
390.028	59.22
390.238	51.03
390.447	-41.13
390.657	46.93
390.867	28.5
391.076	38.74
391.286	28.5
391.496	-37.03
391.705	20.31
391.915	71.51
392.125	18.26
392.334	73.56
392.544	69.46
392.753	124.76
392.963	-24.75
393.172	75.6
393.382	-24.75
393.591	53.08
393.801	63.32
394.01	59.22
394.22	48.98
394.429	24.4
394.639	20.31
394.848	73.56
395.058	53.08
395.267	89.94
395.477	1.88
395.686	75.6
395.895	-14.51
396.105	85.84
396.314	102.23
396.524	32.6
396.733	40.79
396.942	87.89
397.152	8.02
397.361	53.08
397.57	81.75
397.78	87.89
397.989	12.12
398.198	94.04
398.407	63.32
398.617	61.27
398.826	114.52
399.035	61.27
399.244	75.6
399.453	120.66
399.663	91.99
399.872	89.94
400.081	85.84
400.29	114.52
400.499	75.6
400.708	135
400.917	186.19
401.127	87.89
401.336	83.8
401.545	147.28
401.754	167.76
401.963	30.55
402.172	141.14
402.381	61.27
402.59	75.6
402.799	81.75
403.008	73.56
403.217	139.09
403.426	120.66
403.635	73.56
403.844	65.36
404.053	128.85
404.262	108.37
404.471	208.72
404.68	108.37
404.888	48.98
405.097	159.57
405.306	120.66
405.515	132.95
405.724	65.36
405.933	67.41
406.142	77.65
406.35	180.05
406.559	145.24
406.768	91.99
406.977	147.28
407.185	61.27
407.394	81.75
407.603	143.19
407.812	77.65
408.02	208.72
408.229	153.43
408.438	135
408.646	202.58
408.855	159.57
409.064	112.47
409.272	180.05
409.481	163.67
409.69	218.96
409.898	151.38
410.107	184.15
410.315	227.15
410.524	186.19
410.733	206.67
410.941	204.63
411.15	255.83
411.358	309.07
411.567	272.21
411.775	313.17
411.984	288.59
412.192	331.6
412.401	278.35
412.609	245.59
412.818	313.17
413.026	370.51
413.234	302.93
413.443	329.55
413.651	386.9
413.86	405.33
414.068	429.9
414.276	431.95
414.485	366.42
414.693	491.34
414.901	436.05
415.11	456.53
415.318	429.9
415.526	454.48
415.734	503.63
415.943	575.31
416.151	646.99
416.359	544.59
416.567	558.92
416.776	649.04
416.984	638.8
417.192	640.84
417.4	581.45
417.608	626.51
417.817	704.33
418.025	683.85
418.233	771.91
418.441	708.43
418.649	751.43
418.857	829.26
419.065	900.94
419.273	888.65
419.481	878.41
419.689	884.55
419.897	991.05
420.105	997.19
420.313	1044.29
420.521	1050.44
420.729	1038.15
420.937	1130.31
421.145	1197.89
421.353	1259.33
421.561	1322.82
421.769	1304.39
421.977	1351.49
422.185	1386.3
422.393	1363.78
422.601	1408.83
422.809	1468.22
423.017	1619.77
423.224	1591.1
423.432	1650.49
423.64	1703.74
423.848	1808.19
424.056	1748.79
424.263	1916.73
424.471	1949.5
424.679	1875.77
424.887	2144.05
425.094	2062.13
425.302	2080.57
425.51	2090.81
425.718	2240.31
425.925	2391.86
426.133	2398
426.341	2551.6
426.548	2580.27
426.756	2547.5
426.964	2625.33
427.171	2737.96
427.379	2805.55
427.586	2963.24
427.794	3071.78
428.001	3194.66
428.209	3239.72
428.417	3268.39
428.624	3442.46
428.832	3546.91
429.039	3426.08
429.247	3450.66
429.454	3809.05
429.662	4011.8
429.869	3655.45
430.076	3833.63
430.284	3761.95
430.491	3997.46
430.699	4419.35
430.906	4298.52
431.114	4362
431.321	4591.38
431.528	4570.9
431.736	4978.44
431.943	5246.73
432.15	4968.2
432.358	5289.73
432.565	5271.3
432.772	5277.44
432.979	5555.97
433.187	5717.76
433.394	5746.43
433.601	6020.86
433.808	6053.62
434.016	6049.53
434.223	6311.67
434.43	6592.24
434.637	6760.17
434.844	6801.13
435.052	7341.8
435.259	7139.05
435.466	7255.78
435.673	7089.9
435.88	7567.07
436.087	8160.98
436.294	8036.06
436.501	7927.52
436.708	8048.35
436.915	8324.82
437.122	8720.08
437.329	8621.78
437.537	8791.76
437.743	9049.8
437.95	8812.24
438.157	9197.26
438.364	9627.33
438.571	9481.92
438.778	9727.68
438.985	10864.3
439.192	10260.15
439.399	10675.89
439.606	10249.91
439.813	10909.36
440.02	11685.54
440.227	11214.51
440.433	11241.13
440.64	11548.33
440.847	11550.37
441.054	11982.49
441.261	12689.04
441.467	12656.28
441.674	12863.12
441.881	13416.07
442.088	13119.12
442.294	12940.94
442.501	13569.67
442.708	13751.94
442.914	14034.56
443.121	14835.31
443.328	14409.34
443.534	15459.95
443.741	15081.07
443.948	14841.46
444.154	16127.58
444.361	16021.09
444.568	16076.38
444.774	15883.87
444.981	16107.1
445.187	16475.74
445.394	17059.41
445.6	16979.54
445.807	18753.08
446.013	18161.22
446.22	18501.18
446.426	18898.48
446.633	19346.99
446.839	19744.3
447.046	19023.41
447.252	20051.49
447.459	20078.11
447.665	19871.27
447.871	20827.67
448.078	21648.91
448.284	20588.06
448.491	21476.88
448.697	21822.98
448.903	22294.02
449.11	22427.14
449.316	21995.01
449.522	22320.64
449.728	22990.33
449.935	23121.4
450.141	23084.53
450.347	23522.8
450.553	22920.7
450.76	23021.05
450.966	23688.68
451.172	23596.53
451.378	24063.46
451.584	23430.64
451.791	24126.95
451.997	24010.21
452.203	24505.82
452.409	24399.33
452.615	24444.38
452.821	23571.95
453.027	22978.04
453.233	24323.55
453.44	23047.67
453.646	23389.68
453.852	23617
454.058	24143.33
454.264	22975.99
454.47	23367.15
454.676	22676.99
454.882	23723.5
455.088	21667.34
455.294	21851.66
455.5	22210.05
455.705	22783.48
455.911	21663.24
456.117	21071.38
456.323	20813.34
456.529	19832.36
456.735	20393.5
456.941	19742.25
457.147	19822.12
457.352	18832.95
457.558	18542.14
457.764	18781.75
457.97	18327.1
458.176	18003.52
458.381	17806.92
458.587	17147.47
458.793	16979.54
458.999	16229.98
459.204	17460.81
459.41	16590.42
459.616	15664.74
459.821	15756.9
460.027	15898.21
460.233	15171.18
460.438	14321.27
460.644	14550.65
460.85	13913.73
461.055	13778.56
461.261	13958.78
461.466	12723.86
461.672	12455.58
461.878	13092.49
462.083	12678.8
462.289	12091.04
462.494	12224.15
462.7	11388.58
462.905	11404.97
463.111	11613.86
463.316	11718.31
463.522	11103.92
463.727	11437.73
463.932	11398.82
464.138	11429.54
464.343	11239.08
464.549	11105.96
464.754	11441.83
464.959	11284.14
465.165	11167.4
465.37	10913.45
465.575	10583.73
465.781	10903.21
465.986	11040.43
466.191	10522.29
466.397	10495.67
466.602	9909.95
466.807	10327.74
467.012	10323.64
467.218	10174.14
467.423	10032.83
467.628	10278.58
467.833	10804.91
468.038	10192.57
468.244	9903.81
468.449	10190.52
468.654	9977.53
468.859	9905.85
469.064	9965.25
469.269	9344.71
469.474	9432.77
469.679	9705.15
469.885	9357
470.09	9637.57
470.295	9357
470.5	9170.63
470.705	9318.09
470.91	9088.71
471.115	8957.64
471.32	9152.2
471.525	9021.13
471.73	9107.15
471.935	8783.57
472.139	8390.36
472.344	8703.7
472.549	8654.55
472.754	8546
472.959	8117.98
473.164	8044.25
473.369	7913.18
473.574	8230.62
473.778	8242.9
473.983	8189.66
474.188	8130.27
474.393	7845.6
474.598	7605.99
474.802	7673.57
475.007	7460.58
475.212	7825.12
475.417	7433.96
475.621	7268.07
475.826	7245.54
476.031	7290.6
476.235	7321.32
476.44	7261.93
476.645	6870.76
476.849	7112.42
477.054	7034.6
477.259	6846.19
477.463	6919.92
477.668	6674.16
477.872	6774.51
478.077	6676.21
478.282	6446.83
478.486	6561.52
478.691	6508.27
478.895	6256.37
479.1	6366.96
479.304	6473.46
479.509	6270.71
479.713	6326
479.918	6164.22
480.122	6123.26
480.326	6301.43
480.531	6076.15
480.735	6170.36
480.94	6020.86
481.144	6330.1
481.348	6010.62
481.553	6049.53
481.757	6051.58
481.961	6096.63
482.166	6051.58
482.37	6147.83
482.574	5920.51
482.778	6065.91
482.983	5969.66
483.187	6059.77
483.391	5953.27
483.595	5809.92
483.8	5916.41
484.004	5916.41
484.208	6055.67
484.412	5957.37
484.616	5889.79
484.821	6065.91
485.025	5857.02
485.229	5992.19
485.433	5908.22
485.637	6078.2
485.841	5840.64
486.045	5861.12
486.249	5945.08
486.453	5936.89
486.657	6006.52
486.861	6067.96
487.065	5963.51
487.269	5990.14
487.473	5803.77
487.677	6000.38
487.881	6037.24
488.085	6153.98
488.289	6031.1
488.493	5773.05
488.697	6072.06
488.901	5885.69
489.105	5983.99
489.309	6334.2
489.512	6051.58
489.716	6012.67
489.92	6147.83
490.124	6094.58
490.328	6043.39
490.531	6080.25
490.735	6129.4
490.939	6065.91
491.143	6115.06
491.346	6010.62
491.55	6215.41
491.754	6330.1
491.958	6483.7
492.161	6401.78
492.365	6383.35
492.569	6244.09
492.772	6358.77
492.976	6233.85
493.18	6379.25
493.383	6549.23
493.587	6516.47
493.79	6749.93
493.994	6610.67
494.197	6713.07
494.401	6702.83
494.605	6698.74
494.808	6600.43
495.012	6940.4
495.215	6981.35
495.419	6981.35
495.622	7040.75
495.825	7077.61
496.029	7040.75
496.232	7059.18
496.436	7188.2
496.639	7503.59
496.843	7349.99
497.046	7415.52
497.249	7546.59
497.453	7597.79
497.656	7585.51
497.859	7708.38
498.063	7790.3
498.266	7907.04
498.469	7855.84
498.673	7868.13
498.876	8142.55
499.079	8036.06
499.282	8175.32
499.485	8355.54
499.689	8292.05
499.892	8742.61
500.095	8439.51
500.298	8892.11
500.501	8724.18
500.705	9000.65
500.908	9025.23
501.111	8922.83
501.314	9254.6
501.517	9150.15
501.72	9279.18
501.923	9496.26
502.126	9471.68
502.329	9696.96
502.532	9727.68
502.735	9819.84
502.938	10213.05
503.141	10016.44
503.344	10022.59
503.547	10229.43
503.75	10462.9
503.953	10608.31
504.156	10450.61
504.359	10788.53
504.562	10679.99
504.765	11005.61
504.968	11138.73
505.17	11335.34
505.373	11271.85
505.576	11507.37
505.779	11605.67
505.982	11689.63
506.185	11865.76
506.387	12064.41
506.59	11943.58
506.793	12486.29
506.996	12273.31
507.198	12723.86
507.401	12555.93
507.604	12732.05
507.807	12955.28
508.009	13334.15
508.212	13207.18
508.415	13307.53
508.617	13440.65
508.82	13784.71
509.022	13596.29
509.225	13979.26
509.428	13948.54
509.63	14196.35
509.833	14323.32
510.035	14648.95
510.238	14268.03
510.44	14876.27
510.643	14798.45
510.845	15183.47
511.048	15048.3
511.25	15093.36
511.453	15308.4
511.655	15703.65
511.858	15885.92
512.06	15971.94
512.262	16186.97
512.465	16062.05
512.667	16318.04
512.87	16688.73
513.072	16492.12
513.274	16840.28
513.477	17104.46
513.679	17260.11
513.881	17542.73
514.084	17671.75
514.286	17423.95
514.488	17694.28
514.69	18044.48
514.893	18339.39
515.095	18732.6
515.297	18941.49
515.499	18865.72
515.701	19172.91
515.904	19199.54
516.106	19414.57
516.308	19602.99
516.51	20059.68
516.712	19641.9
516.914	20055.59
517.116	20194.85
517.318	20729.37
517.52	20559.39
517.722	20559.39
517.925	21319.18
518.127	21261.84
518.329	21274.13
518.531	21437.97
518.733	21843.46
518.935	21962.25
519.136	21915.14
519.338	22492.67
519.54	22550.01
519.742	22558.21
519.944	22597.12
520.146	23090.68
520.348	23406.06
520.55	23535.09
520.752	23422.45
520.954	24098.28
521.155	23930.34
521.357	24327.65
521.559	24526.3
521.761	24579.55
521.963	24786.4
522.164	25062.87
522.366	25535.95
522.568	25320.91
522.77	25279.96
522.971	25961.93
523.173	25765.32
523.375	26127.81
523.576	26101.19
523.778	26543.55
523.98	26860.99
524.181	26621.38
524.383	26867.13
524.584	27016.63
524.786	27018.68
524.988	27268.53
525.189	27383.22
525.391	27772.33
525.592	27952.55
525.794	28198.31
525.995	28145.06
526.197	28349.86
526.398	28491.17
526.6	28630.43
526.801	28632.48
527.003	28947.87
527.204	28792.22
527.406	28796.32
527.607	28870.04
527.808	29599.12
528.01	29037.98
528.211	29445.52
528.412	29953.42
528.614	29547.92
528.815	29726.1
529.016	29947.28
529.218	29484.44
529.419	30152.07
529.62	29947.28
529.822	29881.74
530.023	30115.21
530.224	30012.81
530.425	30147.98
530.626	30303.62
530.828	30086.54
531.029	30979.45
531.23	30395.78
531.431	30461.32
531.632	30446.98
531.833	30684.55
532.035	30817.66
532.236	30776.7
532.437	31036.8
532.638	30926.21
532.839	31016.32
533.04	31245.69
533.241	30924.16
533.442	31044.99
533.643	31231.35
533.844	31206.78
534.045	31176.06
534.246	30784.9
534.447	31481.2
534.648	30782.85
534.849	31507.83
535.05	30995.84
535.251	31378.81
535.451	31018.36
535.652	31462.77
535.853	31481.2
536.054	31237.5
536.255	31411.57
536.456	30954.88
536.657	31786.35
536.857	31266.17
537.058	31468.92
537.259	31421.81
537.46	31333.75
537.66	31313.27
537.861	31485.3
538.062	31317.37
538.263	31751.54
538.463	31413.62
538.664	31229.3
538.865	31546.74
539.065	31931.76
539.266	31186.3
539.466	31739.25
539.667	30891.39
539.868	31679.86
540.068	31434.1
540.269	31165.82
540.469	31718.77
540.67	31376.76
540.87	31307.13
541.071	31233.4
541.271	31311.22
541.472	31343.99
541.672	31479.16
541.873	31354.23
542.073	30756.22
542.274	31511.92
542.474	31167.87
542.675	31481.2
542.875	31593.84
543.075	31214.97
543.276	30805.38
543.476	31421.81
543.676	31454.58
543.877	31495.54
544.077	31411.57
544.277	31434.1
544.478	31188.35
544.678	31278.46
544.878	31331.7
545.078	31507.83
545.279	30977.4
545.479	31272.31
545.679	31229.3
545.879	31079.8
546.079	31360.37
546.28	30766.46
546.48	31323.51
546.68	31196.54
546.88	31149.43
547.08	31309.18
547.28	31077.76
547.48	30553.48
547.68	31186.3
547.88	31212.92
548.081	31073.66
548.281	31477.11
548.481	31131
548.681	31552.88
548.881	31096.19
549.081	31120.76
549.28	30944.64
549.48	31268.22
549.68	31513.97
549.88	31645.04
550.08	30977.4
550.28	30864.77
550.48	31049.08
550.68	31360.37
550.88	31047.04
551.08	31165.82
551.279	31178.11
551.479	30891.39
551.679	30881.15
551.879	31032.7
552.079	31098.23
552.278	30903.68
552.478	31208.83
552.678	30899.58
552.878	30934.4
553.077	30674.31
553.277	30576
553.477	31219.06
553.676	30819.71
553.876	31198.59
554.076	30745.98
554.275	30668.16
554.475	30592.39
554.674	30649.73
554.874	30578.05
555.074	30498.18
555.273	30569.86
555.473	30735.74
555.672	30657.92
555.872	30203.27
556.071	30414.21
556.271	30674.31
556.47	30250.38
556.67	30320.01
556.869	30219.66
557.068	30539.14
557.268	30164.36
557.467	30164.36
557.667	30256.52
557.866	30375.3
558.065	30102.92
558.265	29670.8
558.464	29717.9
558.663	29697.42
558.863	29855.12
559.062	30244.23
559.261	29904.27
559.461	30074.25
559.66	29476.24
559.859	30029.2
560.058	29875.6
560.258	29433.24
560.457	29320.6
560.656	29775.25
560.855	29439.38
561.054	29488.53
561.253	29076.89
561.453	29316.5
561.652	29375.89
561.851	29416.85
562.05	29189.53
562.249	28845.47
562.448	28964.25
562.647	29003.16
562.846	28906.91
563.045	28966.3
563.244	28591.52
563.443	28886.43
563.642	28515.75
563.841	28577.19
564.04	28423.59
564.239	28616.1
564.438	28673.44
564.637	28607.9
564.836	28601.76
565.035	28091.82
565.234	28327.33
565.432	28100.01
565.631	27944.36
565.83	27841.96
566.029	27872.68
566.228	27598.26
566.427	27499.95
566.625	27829.68
566.824	27311.54
567.023	27792.81
567.222	27182.52
567.42	27510.19
567.619	27438.51
567.818	27112.89
568.016	27164.09
568.215	27051.45
568.414	26801.6
568.612	27119.03
568.811	26684.86
569.01	26662.33
569.208	26557.89
569.407	26756.54
569.605	26191.3
569.804	26877.37
570.002	26299.84
570.201	26525.12
570.4	26414.53
570.598	25855.43
570.797	26228.17
570.995	25857.48
571.193	25742.8
571.392	26389.95
571.59	25681.36
571.789	25494.99
571.987	25843.15
572.186	25468.37
572.384	25195.99
572.582	25777.61
572.781	25449.94
572.979	24823.26
573.177	25064.92
573.376	25482.7
573.574	25054.68
573.772	25320.91
573.971	24892.89
574.169	24880.6
574.367	24585.69
574.565	24563.17
574.763	24516.06
574.962	24567.26
575.16	24509.92
575.358	24655.33
575.556	24286.69
575.754	24315.36
575.952	24088.04
576.151	24548.83
576.349	23782.89
576.547	23858.67
576.745	23727.6
576.943	23928.3
577.141	24014.31
577.339	23766.51
577.537	23619.05
577.735	23404.02
577.933	23567.85
578.131	23320.05
578.329	23508.46
578.527	23148.02
578.725	23342.58
578.923	23363.06
579.121	23326.19
579.319	22986.23
579.516	23002.61
579.714	23041.53
579.912	22963.7
580.11	22973.94
580.308	22939.13
580.506	22861.3
580.704	22289.92
580.901	22431.23
581.099	22932.98
581.297	22189.57
581.495	22453.76
581.692	22447.61
581.89	22019.59
582.088	22613.5
582.285	21847.56
582.483	22003.21
582.681	21933.57
582.878	22208
583.076	21921.29
583.274	21923.33
583.471	21331.47
583.669	21855.75
583.866	21730.83
584.064	21653
584.262	21153.3
584.459	21720.59
584.657	21310.99
584.854	21460.49
585.052	21030.42
585.249	21259.79
585.447	21167.63
585.644	20760.09
585.841	21093.91
586.039	20936.21
586.236	21007.89
586.434	20827.67
586.631	20776.47
586.828	20829.72
587.026	20964.89
587.223	20614.68
587.42	20504.09
587.618	20389.41
587.815	20399.65
588.012	20223.52
588.21	20362.78
588.407	20452.89
588.604	20094.5
588.801	19871.27
588.999	20207.14
589.196	19920.42
589.393	20051.49
589.59	19977.76
589.787	19492.4
589.984	19785.26
590.182	19416.62
590.379	19523.12
590.576	19299.89
590.773	19543.6
590.97	19265.07
591.167	19551.79
591.364	19301.93
591.561	19506.73
591.758	19035.7
591.955	19134
592.152	19076.66
592.349	18863.67
592.546	19174.96
592.743	18808.37
592.94	18708.02
593.137	18757.18
593.334	18837.05
593.531	18634.3
593.727	18566.71
593.924	18470.46
594.121	18550.33
594.318	18736.7
594.515	18183.74
594.712	18454.08
594.908	18234.94
595.105	18122.3
595.302	18146.88
595.499	18093.63
595.696	18044.48
595.892	18005.57
596.089	18105.92
596.286	17897.03
596.482	17847.88
596.679	17700.42
596.876	17856.07
597.072	17618.5
597.269	17890.88
597.466	17671.75
597.662	17411.66
597.859	17557.07
598.055	17442.38
598.252	17702.47
598.448	17190.48
598.645	17227.34
598.841	17092.18
599.038	17010.26
599.234	17256.01
599.431	16877.14
599.627	16977.49
599.824	16954.96
600.02	16907.86
600.217	16950.87
600.413	16946.77
600.609	16803.41
600.806	16834.13
601.002	16754.26
601.198	16475.74
601.395	16328.28
601.591	16571.99
601.787	16397.92
601.984	16414.3
602.18	16457.31
602.376	16440.92
602.572	16092.77
602.769	16135.78
602.965	16070.24
603.161	16268.89
603.357	15900.26
603.553	16006.75
603.75	15910.5
603.946	15857.25
604.142	16072.29
604.338	15744.61
604.534	15629.93
604.73	15550.06
604.926	15752.8
605.122	15470.19
605.318	15484.52
605.514	15500.9
605.71	15588.97
605.906	15238.76
606.102	15402.6
606.298	15337.07
606.494	15199.85
606.69	15298.16
606.886	15412.84
607.082	15031.92
607.278	15128.17
607.474	15197.81
607.67	15148.65
607.866	14820.98
608.062	15070.83
608.257	14982.77
608.453	14882.42
608.649	14790.26
608.845	14626.42
609.041	14816.88
609.236	14921.33
609.432	14648.95
609.628	15058.54
609.824	14429.82
610.019	14454.39
610.215	14458.49
610.411	14675.57
610.606	14450.3
610.802	14388.86
610.998	14380.67
611.193	14624.37
611.389	14071.42
611.584	14190.2
611.78	14171.77
611.976	14351.99
612.171	14050.94
612.367	14016.13
612.562	14050.94
612.758	13807.23
612.953	13833.86
613.149	13919.87
613.344	13811.33
613.539	14200.44
613.735	14048.89
613.93	13999.74
614.126	13940.35
614.321	14147.2
614.517	13915.78
614.712	13723.27
614.907	13506.18
615.103	13942.4
615.298	13680.26
615.493	13735.56
615.688	13489.8
615.884	13805.19
616.079	13428.36
616.274	13878.91
616.47	13467.27
616.665	13594.25
616.86	13395.59
617.055	13463.18
617.25	13715.08
617.445	13506.18
617.641	13069.97
617.836	13244.04
618.031	13115.02
618.226	13407.88
618.421	13217.42
618.616	13315.72
618.811	13061.77
619.006	13282.95
619.201	12674.71
619.396	13067.92
619.591	12758.67
619.786	13131.4
619.981	12549.78
620.176	12754.58
620.371	12541.59
620.566	12887.7
620.761	12271.26
620.956	12506.77
621.151	12285.59
621.346	12387.99
621.541	11976.35
621.735	12340.89
621.93	12209.82
622.125	12334.75
622.32	12097.18
622.515	11906.72
622.709	11654.82
622.904	11937.44
623.099	12023.45
623.294	11669.16
623.488	11626.15
623.683	11810.47
623.878	11470.5
624.072	11628.2
624.267	11636.39
624.462	11460.26
624.656	11243.18
624.851	11355.82
625.046	11441.83
625.24	11103.92
625.435	10942.13
625.629	11458.21
625.824	10966.7
626.018	10999.47
626.213	10735.28
626.407	10737.33
626.602	10770.1
626.796	10770.1
626.991	10882.74
627.185	10440.37
627.38	10462.9
627.574	10622.64
627.768	10491.57
627.963	10378.93
628.157	10292.92
628.352	10270.39
628.546	9944.77
628.74	10190.52
628.935	10190.52
629.129	10233.53
629.323	9903.81
629.517	9965.25
629.712	10055.36
629.906	9787.07
630.1	9729.73
630.294	9772.74
630.489	9801.41
630.683	9936.57
630.877	9498.31
631.071	9670.34
631.265	9705.15
631.459	9443.01
631.653	9430.73
631.848	9428.68
632.042	9195.21
632.236	9406.15
632.43	9066.19
632.624	9135.82
632.818	9178.83
633.012	9060.04
633.206	9201.35
633.4	9168.59
633.594	8865.49
633.788	8953.55
633.982	8752.85
634.176	8859.34
634.369	8793.81
634.563	8660.69
634.757	8607.44
634.951	8537.81
635.145	8627.92
635.339	8668.88
635.533	8611.54
635.726	8525.52
635.92	8337.11
636.114	8259.29
636.308	8410.84
636.501	8416.98
636.695	8351.45
636.889	8277.72
637.083	8109.79
637.276	8120.03
637.47	7999.2
637.664	7993.05
637.857	7966.43
638.051	7640.8
638.244	7880.41
638.438	7722.72
638.632	7792.35
638.825	7587.55
639.019	7714.53
639.212	7663.33
639.406	7669.47
639.599	7427.81
639.793	7669.47
639.986	7442.15
640.18	7458.53
640.373	7462.63
640.567	7333.61
640.76	7311.08
640.954	7280.36
641.147	7235.3
641.34	7145.19
641.534	6997.74
641.727	7220.97
641.92	7036.65
642.114	6893.29
642.307	7126.76
642.5	6944.49
642.694	6905.58
642.887	6893.29
643.08	7069.42
643.273	6823.66
643.467	6838
643.66	6807.28
643.853	6579.95
644.046	6602.48
644.239	6663.92
644.432	6665.97
644.626	6467.31
644.819	6541.04
645.012	6643.44
645.205	6538.99
645.398	6500.08
645.591	6467.31
645.784	6330.1
645.977	6227.7
646.17	6442.74
646.363	6164.22
646.556	6072.06
646.749	6283
646.942	6192.89
647.135	6203.13
647.328	6041.34
647.521	6055.67
647.714	5902.08
647.907	6072.06
648.099	5904.12
648.292	5981.95
648.485	5871.36
648.678	5748.48
648.871	5906.17
649.064	5873.4
649.256	5820.16
649.449	5687.04
649.642	5639.94
649.835	5799.68
650.027	5705.47
650.22	5879.55
650.413	5564.16
650.605	5562.11
650.798	5541.63
650.991	5402.37
651.183	5660.41
651.376	5453.57
651.568	5406.47
651.761	5256.97
651.954	5492.48
652.146	5322.5
652.339	5263.11
652.531	5269.25
652.724	5275.4
652.916	5175.05
653.109	5195.53
653.301	5207.81
653.494	5080.84
653.686	4964.11
653.879	5158.66
654.071	4998.92
654.263	5027.59
654.456	5025.54
654.648	5043.98
654.84	4914.95
655.033	4914.95
655.225	5068.55
655.417	4869.9
655.61	5021.45
655.802	4998.92
655.994	4787.98
656.186	4871.95
656.379	4908.81
656.571	4890.38
656.763	4697.87
656.955	4822.8
657.148	4687.63
657.34	4618
657.532	4546.32
657.724	4734.73
657.916	4699.92
658.108	4468.5
658.3	4595.47
658.492	4493.07
658.684	4425.49
658.876	4405.01
659.068	4437.78
659.26	4417.3
659.452	4450.07
659.644	4507.41
659.836	4384.53
660.028	4288.28
660.22	4261.65
660.412	4232.98
660.604	4192.02
660.796	4347.67
660.988	4194.07
661.18	4161.3
661.372	4050.71
661.563	4163.35
661.755	4171.54
661.947	4177.69
662.139	4044.57
662.331	4091.67
662.522	4063
662.714	3968.79
662.906	3950.36
663.097	3860.25
663.289	3852.06
663.481	3860.25
663.673	3901.21
663.864	3948.31
664.056	3706.65
664.247	3862.3
664.439	3876.63
664.631	3921.69
664.822	3807
665.014	3811.1
665.205	3764
665.397	3718.94
665.588	3641.12
665.78	3596.06
665.971	3628.83
666.163	3704.6
666.354	3712.8
666.546	3569.44
666.737	3682.08
666.929	3675.93
667.12	3565.34
667.311	3614.49
667.503	3464.99
667.694	3510.05
667.885	3690.27
668.077	3596.06
668.268	3454.75
668.459	3555.1
668.651	3387.17
668.842	3581.73
669.033	3430.18
669.224	3469.09
669.416	3432.22
669.607	3436.32
669.798	3426.08
669.989	3342.11
670.18	3360.55
670.371	3307.3
670.563	3335.97
670.754	3378.98
670.945	3192.61
671.136	3196.71
671.327	3133.22
671.518	3272.48
671.709	3286.82
671.9	3151.65
672.091	3204.9
672.282	3202.85
672.473	3125.03
672.664	3172.13
672.855	3133.22
673.046	3186.47
673.237	3227.43
673.428	3157.8
673.619	3174.18
673.809	3075.88
674	3108.65
674.191	3157.8
674.382	3030.82
674.573	3151.65
674.764	3168.04
674.954	3125.03
675.145	3096.36
675.336	2985.77
675.527	2938.66
675.717	3067.69
675.908	3041.06
676.099	3045.16
676.289	3043.11
676.48	3016.49
676.671	3053.35
676.861	2948.9
677.052	2930.47
677.243	2848.55
677.433	2977.58
677.624	2963.24
677.814	2899.75
678.005	2852.65
678.195	2993.96
678.386	2969.38
678.576	2803.5
678.767	2826.03
678.957	2932.52
679.148	2985.77
679.338	2955.05
679.529	2946.86
679.719	2887.47
679.909	2907.94
680.1	2895.66
680.29	2752.3
680.481	2916.14
680.671	2758.44
680.861	2842.41
681.052	2754.35
681.242	2742.06
681.432	2838.31
681.622	2768.68
681.813	2797.35
682.003	2740.01
682.193	2699.05
682.383	2752.3
682.573	2772.78
682.764	2836.27
682.954	2750.25
683.144	2707.24
683.334	2754.35
683.524	2678.57
683.714	2737.96
683.904	2674.48
684.094	2690.86
684.284	2723.63
684.474	2656.04
684.664	2692.91
684.854	2621.23
685.044	2692.91
685.234	2543.41
685.424	2711.34
685.614	2770.73
685.804	2641.71
685.994	2686.76
686.184	2533.17
686.374	2586.41
686.564	2645.8
686.753	2699.05
686.943	2400.05
687.133	2608.94
687.323	2615.09
687.513	2627.37
687.702	2596.65
687.892	2557.74
688.082	2553.65
688.272	2666.28
688.461	2643.76
688.651	2586.41
688.841	2479.92
689.03	2531.12
689.22	2488.11
689.41	2584.37
689.599	2486.06
689.789	2377.52
689.979	2481.97
690.168	2477.87
690.358	2414.38
690.547	2457.39
690.737	2615.09
690.926	2481.97
691.116	2414.38
691.305	2449.2
691.495	2217.78
691.684	2293.55
691.874	2377.52
692.063	2303.79
692.252	2404.14
692.442	2344.75
692.631	2236.21
692.82	2279.22
693.01	2295.6
693.199	2326.32
693.388	2195.25
693.578	2285.36
693.767	2381.62
693.956	2330.42
694.146	2254.64
694.335	2314.03
694.524	2320.18
694.713	2242.36
694.902	2309.94
695.092	2297.65
695.281	2305.84
695.47	2250.55
695.659	2275.12
695.848	2193.2
696.037	2209.59
696.226	2297.65
696.415	2283.31
696.604	2135.86
696.793	2254.64
696.982	2209.59
697.171	2264.88
697.36	2070.33
697.549	2275.12
697.738	2225.97
697.927	2185.01
698.116	2142
698.305	2234.16
698.494	2250.55
698.683	2144.05
698.872	2250.55
699.061	2205.49
699.25	2193.2
699.438	2213.68
699.627	2305.84
699.816	2236.21
700.005	2242.36
700.193	2176.82
700.382	2195.25
700.571	2172.72
700.76	2281.27
700.948	2125.62
701.137	2150.2
701.326	2162.48
701.514	2174.77
701.703	2230.07
701.892	2166.58
702.08	2219.83
702.269	2283.31
702.457	2099
702.646	2148.15
702.834	2103.09
703.023	2223.92
703.212	2111.29
703.4	2260.79
703.589	2133.81
703.777	2234.16
703.965	2195.25
704.154	2187.06
704.342	2289.46
704.531	2264.88
704.719	2199.35
704.907	2164.53
705.096	2117.43
705.284	2201.4
705.472	2199.35
705.661	2191.16
705.849	2146.1
706.037	2129.72
706.226	2162.48
706.414	2219.83
706.602	2158.39
706.79	2230.07
706.979	2203.44
707.167	2150.2
707.355	2158.39
707.543	2096.95
707.731	2158.39
707.919	2193.2
708.107	2170.68
708.296	2191.16
708.484	2219.83
708.672	2207.54
708.86	2168.63
709.048	2197.3
709.236	2246.45
709.424	2076.47
709.612	2240.31
709.8	2176.82
709.988	2043.7
710.176	2207.54
710.364	2236.21
710.551	2252.59
710.739	2150.2
710.927	2146.1
711.115	2105.14
711.303	2191.16
711.491	2232.12
711.679	2168.63
711.866	2291.51
712.054	2105.14
712.242	2105.14
712.43	2170.68
712.617	2219.83
712.805	2072.37
712.993	2172.72
713.181	2160.44
713.368	2158.39
713.556	2221.88
713.744	2180.92
713.931	2236.21
714.119	2203.44
714.306	2127.67
714.494	2117.43
714.682	2162.48
714.869	2082.61
715.057	2160.44
715.244	2111.29
715.432	2068.28
715.619	2084.66
715.807	2289.46
715.994	2088.76
716.182	2152.24
716.369	2168.63
716.556	2058.04
716.744	2182.96
716.931	2115.38
717.119	2187.06
717.306	2092.85
717.493	2191.16
717.681	2101.05
717.868	2164.53
718.055	2197.3
718.242	2148.15
718.43	2002.74
718.617	2225.97
718.804	2199.35
718.991	2111.29
719.179	2080.57
719.366	2129.72
719.553	2127.67
719.74	2047.8
719.927	2115.38
720.114	2101.05
720.301	2217.78
720.488	2037.56
720.676	2164.53
720.863	2055.99
721.05	2088.76
721.237	2107.19
721.424	2172.72
721.611	2178.87
721.798	2015.03
721.985	2010.93
722.172	2109.24
722.358	2010.93
722.545	2127.67
722.732	2232.12
722.919	2121.52
723.106	2047.8
723.293	2055.99
723.48	2152.24
723.667	2066.23
723.853	2191.16
724.04	2160.44
724.227	2123.57
724.414	2133.81
724.6	2146.1
724.787	2101.05
724.974	2103.09
725.161	2215.73
725.347	2139.96
725.534	2066.23
725.72	2033.46
725.907	2080.57
726.094	2045.75
726.28	2047.8
726.467	2170.68
726.653	2180.92
726.84	2080.57
727.027	2092.85
727.213	2055.99
727.4	2166.58
727.586	2150.2
727.773	2094.9
727.959	2002.74
728.145	2099
728.332	1955.64
728.518	1984.31
728.705	2156.34
728.891	2158.39
729.077	2062.13
729.264	1951.54
729.45	2064.18
729.636	1965.88
729.823	2037.56
730.009	2111.29
730.195	2094.9
730.382	2127.67
730.568	2010.93
730.754	1951.54
730.94	2062.13
731.126	2078.52
731.313	2047.8
731.499	2123.57
731.685	2060.09
731.871	2039.61
732.057	2002.74
732.243	2039.61
732.429	2031.41
732.615	2058.04
732.801	2043.7
732.987	2019.13
733.173	2060.09
733.359	2012.98
733.545	2078.52
733.731	2047.8
733.917	2021.17
734.103	1953.59
734.289	2099
734.475	1972.02
734.661	2150.2
734.847	2051.89
735.033	2129.72
735.219	2137.91
735.404	2027.32
735.59	2080.57
735.776	2082.61
735.962	1967.93
736.148	1978.17
736.333	2088.76
736.519	1896.25
736.705	1992.5
736.89	2023.22
737.076	1976.12
737.262	2010.93
737.447	1961.78
737.633	1955.64
737.819	1912.63
738.004	1949.5
738.19	1957.69
738.375	1941.3
738.561	1924.92
738.747	1947.45
738.932	1931.06
739.118	1992.5
739.303	1853.24
739.489	1920.82
739.674	1908.54
739.859	1900.34
740.045	1810.23
740.23	1898.3
740.416	1879.86
740.601	1935.16
740.786	1941.3
740.972	1836.86
741.157	1906.49
741.342	1828.67
741.528	1963.83
741.713	1820.47
741.898	1787.71
742.084	1939.26
742.269	1896.25
742.454	1916.73
742.639	1871.67
742.824	1740.6
743.01	1828.67
743.195	1879.86
743.38	1736.51
743.565	1890.1
743.75	1777.47
743.935	1756.99
744.12	1820.47
744.305	1832.76
744.49	1709.88
744.675	1744.7
744.86	1754.94
745.045	1775.42
745.23	1802.04
745.415	1824.57
745.6	1738.55
745.785	1613.63
745.97	1650.49
746.155	1726.27
746.34	1705.79
746.525	1726.27
746.71	1638.2
746.895	1658.68
747.079	1640.25
747.264	1732.41
747.449	1713.98
747.634	1509.18
747.819	1720.12
748.003	1593.15
748.188	1619.77
748.373	1509.18
748.557	1562.43
748.742	1568.57
748.927	1544
749.111	1593.15
749.296	1474.37
749.481	1503.04
749.665	1402.69
749.85	1460.03
750.034	1476.41
750.219	1453.89
750.404	1423.17
750.588	1478.46
750.773	1570.62
750.957	1427.26
751.141	1347.39
751.326	1400.64
751.51	1374.02
751.695	1378.11
751.879	1367.87
752.064	1449.79
752.248	1349.44
752.432	1384.26
752.617	1371.97
752.801	1464.13
752.985	1335.1
753.17	1314.63
753.354	1371.97
753.538	1386.3
753.722	1386.3
753.907	1249.09
754.091	1224.51
754.275	1257.28
754.459	1345.34
754.643	1218.37
754.828	1240.9
755.012	1251.14
755.196	1169.22
755.38	1228.61
755.564	1218.37
755.748	1222.47
755.932	1150.79
756.116	1199.94
756.3	1060.68
756.484	1093.44
756.668	1124.16
756.852	1109.83
757.036	1115.97
757.22	1253.19
757.404	1158.98
757.588	1134.4
757.772	1167.17
757.956	1075.01
758.14	1158.98
758.323	1052.49
758.507	1120.07
758.691	1083.2
758.875	1122.12
759.059	1079.11
759.242	1015.62
759.426	1070.92
759.61	1099.59
759.794	1107.78
759.977	1009.48
760.161	1066.82
760.345	1025.86
760.528	1019.72
760.712	935.75
760.895	1044.29
761.079	950.09
761.263	921.42
761.446	888.65
761.63	909.13
761.813	1011.53
761.997	1044.29
762.18	878.41
762.364	972.61
762.547	870.22
762.731	925.51
762.914	974.66
763.098	1027.91
763.281	960.33
763.464	1013.57
763.648	888.65
763.831	907.08
764.015	886.6
764.198	919.37
764.381	935.75
764.564	956.23
764.748	980.81
764.931	907.08
765.114	892.74
765.297	896.84
765.481	888.65
765.664	864.07
765.847	855.88
766.03	866.12
766.213	788.3
766.397	974.66
766.58	870.22
766.763	907.08
766.946	882.5
767.129	847.69
767.312	933.7
767.495	743.24
767.678	796.49
767.861	829.26
768.044	798.54
768.227	825.16
768.41	827.21
768.593	884.55
768.776	831.3
768.959	763.72
769.142	841.54
769.324	866.12
769.507	806.73
769.69	792.39
769.873	776.01
770.056	825.16
770.239	751.43
770.421	825.16
770.604	821.06
770.787	741.19
770.97	778.06
771.152	773.96
771.335	716.62
771.518	743.24
771.7	745.29
771.883	821.06
772.066	741.19
772.248	728.91
772.431	704.33
772.613	759.63
772.796	808.78
772.978	704.33
773.161	749.39
773.343	687.95
773.526	659.28
773.708	700.23
773.891	730.95
774.073	579.4
774.256	773.96
774.438	745.29
774.621	683.85
774.803	714.57
774.985	692.04
775.168	634.7
775.35	644.94
775.532	679.75
775.715	630.6
775.897	628.56
776.079	669.52
776.261	661.32
776.444	646.99
776.626	554.83
776.808	659.28
776.99	583.5
777.173	616.27
777.355	663.37
777.537	694.09
777.719	636.75
777.901	591.69
778.083	620.36
778.265	577.36
778.447	515.92
778.629	569.16
778.811	587.6
778.993	505.68
779.175	646.99
779.357	526.16
779.539	522.06
779.721	528.21
779.903	573.26
780.085	560.97
780.267	524.11
780.449	493.39
780.631	548.68
780.812	479.05
780.994	462.67
781.176	544.59
781.358	544.59
781.54	462.67
781.721	542.54
781.903	425.81
782.085	487.25
782.267	464.72
782.448	407.38
782.63	477.01
782.812	458.57
782.993	565.07
783.175	460.62
783.357	485.2
783.538	419.66
783.72	386.9
783.901	425.81
784.083	485.2
784.264	438.09
784.446	419.66
784.627	376.66
784.809	436.05
784.99	423.76
785.172	470.86
785.353	489.29
785.535	413.52
785.716	397.14
785.897	323.41
786.079	364.37
786.26	436.05
786.441	370.51
786.623	403.28
786.804	405.33
786.985	405.33
787.167	386.9
787.348	352.08
787.529	384.85
787.71	454.48
787.891	411.47
788.073	409.42
788.254	386.9
788.435	372.56
788.616	427.85
788.797	425.81
788.978	393.04
789.159	399.18
789.34	292.69
789.522	282.45
789.703	345.94
789.884	382.8
790.065	323.41
790.246	397.14
790.427	294.74
790.607	329.55
790.788	366.42
790.969	347.98
791.15	380.75
791.331	327.5
791.512	278.35
791.693	317.26
791.874	317.26
792.054	307.02
792.235	253.78
792.416	302.93
792.597	288.59
792.778	347.98
792.958	292.69
793.139	307.02
793.32	286.54
793.5	335.7
793.681	347.98
793.862	253.78
794.042	276.31
794.223	255.83
794.404	307.02
794.584	300.88
794.765	315.22
794.945	315.22
795.126	245.59
795.306	302.93
795.487	221.01
795.667	229.2
795.848	327.5
796.028	268.11
796.209	288.59
796.389	298.83
796.57	296.78
796.75	216.91
796.93	243.54
797.111	196.43
797.291	307.02
797.471	235.35
797.652	196.43
797.832	225.11
798.012	270.16
798.192	214.87
798.373	229.2
798.553	204.63
798.733	167.76
798.913	204.63
799.093	218.96
799.274	237.39
799.454	259.92
799.634	280.4
799.814	257.87
799.994	233.3
800.174	239.44
800.354	243.54
800.534	182.1
800.714	259.92
800.894	218.96
801.074	214.87
801.254	169.81
801.434	276.31
801.614	198.48
801.794	167.76
801.974	528.21
802.154	184.15
802.334	253.78
802.514	208.72
802.693	188.24
802.873	161.62
803.053	264.02
803.233	241.49
803.413	239.44
803.592	186.19
803.772	225.11
803.952	200.53
804.131	206.67
804.311	182.1
804.491	186.19
804.67	206.67
804.85	225.11
805.03	245.59
805.209	182.1
805.389	178
805.568	192.34
805.748	200.53
805.928	178
806.107	233.3
806.287	180.05
806.466	161.62
806.646	180.05
806.825	188.24
807.004	114.52
807.184	94.04
807.363	231.25
807.543	182.1
807.722	186.19
807.901	208.72
808.081	145.24
808.26	98.13
808.439	253.78
808.619	175.95
808.798	231.25
808.977	167.76
809.156	212.82
809.336	173.91
809.515	141.14
809.694	122.71
809.873	159.57
810.052	159.57
810.231	153.43
810.411	161.62
810.59	204.63
810.769	180.05
810.948	216.91
811.127	130.9
811.306	184.15
811.485	188.24
811.664	216.91
811.843	85.84
812.022	171.86
812.201	139.09
812.38	171.86
812.559	196.43
812.737	200.53
812.916	216.91
813.095	130.9
813.274	165.71
813.453	194.39
813.632	98.13
813.811	200.53
813.989	91.99
814.168	120.66
814.347	81.75
814.526	206.67
814.704	182.1
814.883	137.04
815.062	96.08
815.24	184.15
815.419	120.66
815.598	141.14
815.776	12.12
815.955	81.75
816.133	91.99
816.312	108.37
816.49	118.61
816.669	186.19
816.847	145.24
817.026	192.34
817.204	118.61
817.383	63.32
817.561	163.67
817.74	85.84
817.918	141.14
818.097	65.36
818.275	204.63
818.453	184.15
818.632	79.7
818.81	108.37
818.988	143.19
819.167	157.52
819.345	100.18
819.523	108.37
819.701	192.34
819.879	104.28
820.058	114.52
820.236	53.08
820.414	167.76
820.592	100.18
820.77	130.9
820.948	77.65
821.127	169.81
821.305	126.8
821.483	63.32
821.661	106.32
821.839	104.28
822.017	106.32
822.195	57.17
822.373	161.62
822.551	48.98
822.729	132.95
822.907	57.17
823.085	159.57
823.262	165.71
823.44	124.76
823.618	69.46
823.796	163.67
823.974	130.9
824.152	73.56
824.329	48.98
824.507	-4.27
824.685	130.9
824.863	85.84
825.04	91.99
825.218	71.51
825.396	81.75
825.574	94.04
825.751	94.04
825.929	69.46
826.107	126.8
826.284	135
826.462	118.61
826.639	98.13
826.817	135
826.994	-4.27
827.172	145.24
827.349	102.23
827.527	57.17
827.704	81.75
827.882	79.7
828.059	77.65
828.237	106.32
828.414	114.52
828.591	83.8
828.769	108.37
828.946	61.27
829.124	106.32
829.301	106.32
829.478	118.61
829.655	85.84
829.833	159.57
830.01	85.84
830.187	91.99
830.364	18.26
830.542	40.79
830.719	96.08
830.896	116.56
831.073	28.5
831.25	124.76
831.427	38.74
831.604	77.65
831.782	59.22
831.959	114.52
832.136	-2.22
832.313	178
832.49	8.02
832.667	104.28
832.844	75.6
833.021	26.45
833.198	10.07
833.374	139.09
833.551	165.71
833.728	85.84
833.905	59.22
834.082	106.32
834.259	46.93
834.436	112.47
834.612	126.8
834.789	118.61
834.966	104.28
835.143	102.23
835.319	-28.84
835.496	104.28
835.673	61.27
835.85	59.22
836.026	118.61
836.203	34.64
836.38	85.84
836.556	67.41
836.733	18.26
836.909	110.42
837.086	71.51
837.262	96.08
837.439	42.84
837.616	94.04
837.792	69.46
837.968	20.31
838.145	-0.17
838.321	153.43
838.498	48.98
838.674	89.94
838.851	71.51
839.027	110.42
839.203	69.46
839.38	46.93
839.556	63.32
839.732	83.8
839.909	38.74
840.085	126.8
840.261	34.64
840.437	63.32
840.614	30.55
840.79	128.85
840.966	124.76
841.142	71.51
841.318	48.98
841.494	85.84
841.671	73.56
841.847	73.56
842.023	22.36
842.199	83.8
842.375	-8.36
842.551	53.08
842.727	8.02
842.903	124.76
843.079	1.88
843.255	46.93
843.431	81.75
843.607	89.94
843.783	32.6
843.959	65.36
844.134	46.93
844.31	94.04
844.486	20.31
844.662	57.17
844.838	81.75
845.013	61.27
845.189	26.45
845.365	28.5
845.541	32.6
845.716	71.51
845.892	75.6
846.068	10.07
846.244	83.8
846.419	141.14
846.595	34.64
846.77	16.21
846.946	16.21
847.122	1.88
847.297	110.42
847.473	79.7
847.648	-10.41
847.824	73.56
847.999	48.98
848.175	38.74
848.35	98.13
848.526	71.51
848.701	108.37
848.876	73.56
849.052	77.65
849.227	40.79
849.403	65.36
849.578	61.27
849.753	-16.55
849.929	106.32
850.104	48.98
850.279	118.61
850.454	73.56
850.63	48.98
850.805	32.6
850.98	44.88
851.155	139.09
851.33	53.08
851.505	1.88
851.681	94.04
851.856	1.88
852.031	26.45
852.206	40.79
852.381	69.46
852.556	40.79
852.731	42.84
852.906	87.89
853.081	28.5
853.256	32.6
853.431	20.31
853.606	18.26
853.781	5.97
853.956	36.69
854.131	24.4
854.305	20.31
854.48	36.69
854.655	77.65
854.83	-6.31
855.005	85.84
855.18	-8.36
855.354	24.4
855.529	141.14
855.704	-16.55
855.879	147.28
856.053	-8.36
856.228	91.99
856.403	20.31
856.577	-28.84
856.752	-8.36
856.926	20.31
857.101	-22.7
857.276	30.55
857.45	36.69
857.625	3.93
857.799	44.88
857.974	55.12
858.148	-0.17
858.323	48.98
858.497	28.5
858.672	14.17
858.846	-2.22
859.02	57.17
859.195	12.12
859.369	24.4
859.543	8.02
859.718	40.79
859.892	40.79
860.066	-32.94
860.241	-6.31
860.415	40.79
860.589	18.26
860.763	8.02
860.938	87.89
861.112	42.84
861.286	1.88
861.46	81.75
861.634	59.22
861.808	-14.51
861.982	-32.94
862.157	-24.75
862.331	30.55
862.505	3.93
862.679	-49.32
862.853	102.23
863.027	-37.03
863.201	48.98
863.375	-53.42
863.549	48.98
863.722	30.55
863.896	40.79
864.07	-10.41
864.244	24.4
864.418	96.08
864.592	40.79
864.766	51.03
864.939	87.89
865.113	-26.79
865.287	75.6
865.461	-71.85
865.634	-12.46
865.808	8.02
865.982	-24.75
866.156	-47.27
866.329	10.07
866.503	1.88
866.676	24.4
866.85	40.79
867.024	42.84
867.197	85.84
867.371	65.36
867.544	34.64
867.718	48.98
867.891	81.75
868.065	5.97
868.238	30.55
868.412	32.6
868.585	-4.27
868.759	40.79
868.932	-0.17
869.105	40.79
869.279	100.18
869.452	44.88
869.625	8.02
869.799	38.74
869.972	10.07
870.145	46.93
870.319	3.93
870.492	-45.23
870.665	26.45
870.838	16.21
871.011	22.36
871.185	40.79
871.358	-28.84
871.531	67.41
871.704	-4.27
871.877	12.12
872.05	40.79
872.223	-59.56
872.396	14.17
872.569	-12.46
872.742	26.45
872.915	32.6
873.088	3.93
873.261	-4.27
873.434	87.89
873.607	53.08
873.78	10.07
873.953	-18.6
874.126	-24.75
874.299	-22.7
874.471	-28.84
874.644	53.08
874.817	67.41
874.99	-2.22
875.163	-57.51
875.335	40.79
875.508	1.88
875.681	55.12
875.853	-47.27
876.026	14.17
876.199	28.5
876.371	16.21
876.544	18.26
876.717	-18.6
876.889	34.64
877.062	85.84
877.234	46.93
877.407	30.55
877.579	48.98
877.752	28.5
877.924	20.31
878.097	46.93
878.269	46.93
878.442	67.41
878.614	14.17
878.786	5.97
878.959	-84.14
879.131	48.98
879.303	-4.27
879.476	-2.22
879.648	91.99
879.82	87.89
879.993	26.45
880.165	-37.03
880.337	10.07
880.509	46.93
880.681	-34.99
880.854	44.88
881.026	44.88
881.198	61.27
881.37	-32.94
881.542	-49.32
881.714	51.03
881.886	-12.46
882.058	-47.27
882.23	-16.55
882.402	53.08
882.574	-6.31
882.746	-26.79
882.918	-32.94
883.09	-55.47
883.262	-4.27
883.434	73.56
883.606	16.21
883.778	65.36
883.95	-10.41
884.122	-12.46
884.293	44.88
884.465	18.26
884.637	8.02
884.809	-67.75
884.98	5.97
885.152	-0.17
885.324	-16.55
885.496	-51.37
885.667	24.4
885.839	-26.79
886.011	-8.36
886.182	10.07
886.354	14.17
886.525	12.12
886.697	20.31
886.869	3.93
887.04	30.55
887.212	106.32
887.383	34.64
887.555	-6.31
887.726	51.03
887.897	-20.65
888.069	26.45
888.24	20.31
888.412	67.41
888.583	-12.46
888.754	-2.22
888.926	-34.99
889.097	-22.7
889.268	-4.27
889.44	-22.7
889.611	-6.31
889.782	-47.27
889.953	-30.89
890.125	81.75
890.296	-2.22
890.467	-0.17
890.638	63.32
890.809	87.89
890.98	46.93
891.151	24.4
891.323	-2.22
891.494	57.17
891.665	83.8
891.836	28.5
892.007	-0.17
892.178	12.12
892.349	14.17
892.52	-24.75
892.691	-43.18
892.862	67.41
893.032	30.55
893.203	28.5
893.374	-53.42
893.545	30.55
893.716	-30.89
893.887	44.88
894.057	100.18
894.228	87.89
894.399	-34.99
894.57	10.07
894.74	-32.94
894.911	100.18
895.082	28.5
895.253	16.21
895.423	126.8
895.594	63.32
895.764	3.93
895.935	1.88
896.106	48.98
896.276	-10.41
896.447	-4.27
896.617	44.88
896.788	-61.61
896.958	-43.18
897.129	55.12
897.299	8.02
897.47	85.84
897.64	46.93
897.81	12.12
897.981	36.69
898.151	-8.36
898.322	-8.36
898.492	5.97
898.662	24.4
898.832	-22.7
899.003	28.5
899.173	98.13
899.343	3.93
899.513	3.93
