Data from USB4F104151__155__11-08-28-690.txt Node

Date: Wed Mar 12 11:08:28 EDT 2025
User: louis
Spectrometer: USB4F10415
Trigger mode: 4
Integration Time (sec): 2.000000E-2
Scans to average: 1
Electric dark correction enabled: true
Nonlinearity correction enabled: false
Boxcar width: 0
XAxis mode: Wavelengths
Number of Pixels in Spectrum: 3648
>>>>>Begin Spectral Data<<<<<
178.204	-63.49
178.424	-63.49
178.644	-63.49
178.864	-34.82
179.084	-24.58
179.304	2.05
179.524	-20.48
179.744	49.15
179.964	55.3
180.184	-53.25
180.404	18.43
180.624	2.05
180.844	-47.1
181.064	-28.67
181.283	10.24
181.503	20.48
181.723	-8.19
181.943	-59.39
182.163	0
182.383	-24.58
182.602	22.53
182.822	57.34
183.042	-16.38
183.262	-36.86
183.482	14.34
183.701	8.19
183.921	4.1
184.141	96.25
184.361	96.25
184.58	20.48
184.8	45.06
185.02	79.87
185.239	75.77
185.459	-24.58
185.679	-2.05
185.898	-6.14
186.118	26.62
186.338	-24.58
186.557	59.39
186.777	14.34
186.997	-6.14
187.216	-69.63
187.436	40.96
187.655	10.24
187.875	34.82
188.095	53.25
188.314	83.97
188.534	55.3
188.753	-16.38
188.973	-8.19
189.192	47.1
189.412	-8.19
189.631	-2.05
189.851	12.29
190.07	4.1
190.29	0
190.509	28.67
190.729	67.58
190.948	49.15
191.168	92.16
191.387	63.49
191.607	43.01
191.826	28.67
192.045	4.1
192.265	38.91
192.484	20.48
192.704	-6.14
192.923	0
193.142	26.62
193.362	55.3
193.581	20.48
193.8	20.48
194.02	-8.19
194.239	-6.14
194.458	51.2
194.678	45.06
194.897	24.58
195.116	67.58
195.335	81.92
195.555	2.05
195.774	-75.77
195.993	-24.58
196.212	-24.58
196.432	-8.19
196.651	77.82
196.87	4.1
197.089	73.73
197.308	-4.1
197.528	-8.19
197.747	-20.48
197.966	-12.29
198.185	34.82
198.404	24.58
198.623	-8.19
198.842	6.14
199.062	36.86
199.281	26.62
199.5	0
199.719	8.19
199.938	6.14
200.157	22.53
200.376	-8.19
200.595	2.05
200.814	38.91
201.033	-2.05
201.252	16.38
201.471	-20.48
201.69	45.06
201.909	6.14
202.128	8.19
202.347	51.2
202.566	-6.14
202.785	47.1
203.004	6.14
203.223	51.2
203.442	-16.38
203.661	20.48
203.879	20.48
204.098	20.48
204.317	-4.1
204.536	94.21
204.755	-12.29
204.974	20.48
205.193	0
205.411	53.25
205.63	-10.24
205.849	73.73
206.068	-4.1
206.287	40.96
206.505	24.58
206.724	38.91
206.943	-38.91
207.162	-32.77
207.381	30.72
207.599	0
207.818	16.38
208.037	0
208.255	-12.29
208.474	8.19
208.693	10.24
208.911	16.38
209.13	8.19
209.349	57.34
209.567	-18.43
209.786	63.49
210.005	59.39
210.223	-45.06
210.442	24.58
210.661	-16.38
210.879	-22.53
211.098	-30.72
211.316	47.1
211.535	77.82
211.753	59.39
211.972	6.14
212.191	-14.34
212.409	-8.19
212.628	-14.34
212.846	6.14
213.065	47.1
213.283	45.06
213.502	32.77
213.72	14.34
213.938	10.24
214.157	73.73
214.375	12.29
214.594	4.1
214.812	28.67
215.031	43.01
215.249	81.92
215.467	-4.1
215.686	12.29
215.904	51.2
216.122	22.53
216.341	34.82
216.559	55.3
216.778	43.01
216.996	26.62
217.214	6.14
217.432	0
217.651	6.14
217.869	-18.43
218.087	2.05
218.306	36.86
218.524	86.01
218.742	24.58
218.96	-4.1
219.179	0
219.397	34.82
219.615	40.96
219.833	36.86
220.051	28.67
220.27	20.48
220.488	-4.1
220.706	16.38
220.924	-38.91
221.142	6.14
221.36	45.06
221.578	-4.1
221.796	-10.24
222.015	30.72
222.233	-2.05
222.451	16.38
222.669	-10.24
222.887	4.1
223.105	-12.29
223.323	49.15
223.541	-12.29
223.759	20.48
223.977	51.2
224.195	55.3
224.413	-2.05
224.631	43.01
224.849	-77.82
225.067	40.96
225.285	-8.19
225.503	53.25
225.721	12.29
225.939	43.01
226.157	-22.53
226.375	75.77
226.592	-55.3
226.81	0
227.028	-8.19
227.246	81.92
227.464	-10.24
227.682	47.1
227.9	10.24
228.117	55.3
228.335	-2.05
228.553	-24.58
228.771	-10.24
228.989	-61.44
229.206	8.19
229.424	-12.29
229.642	-30.72
229.86	-28.67
230.077	77.82
230.295	32.77
230.513	20.48
230.731	34.82
230.948	96.25
231.166	8.19
231.384	-30.72
231.601	-6.14
231.819	61.44
232.037	-4.1
232.254	12.29
232.472	-8.19
232.689	10.24
232.907	59.39
233.125	63.49
233.342	8.19
233.56	8.19
233.777	24.58
233.995	4.1
234.213	59.39
234.43	67.58
234.648	-8.19
234.865	57.34
235.083	57.34
235.3	-30.72
235.518	61.44
235.735	-36.86
235.953	104.45
236.17	67.58
236.388	24.58
236.605	10.24
236.822	22.53
237.04	36.86
237.257	2.05
237.475	-28.67
237.692	-69.63
237.909	65.54
238.127	8.19
238.344	-24.58
238.562	43.01
238.779	20.48
238.996	32.77
239.214	-10.24
239.431	67.58
239.648	55.3
239.865	-67.58
240.083	0
240.3	2.05
240.517	40.96
240.735	28.67
240.952	43.01
241.169	-10.24
241.386	36.86
241.603	-4.1
241.821	18.43
242.038	45.06
242.255	20.48
242.472	63.49
242.689	32.77
242.907	34.82
243.124	73.73
243.341	61.44
243.558	-20.48
243.775	-10.24
243.992	-32.77
244.209	12.29
244.426	65.54
244.643	2.05
244.86	36.86
245.078	47.1
245.295	20.48
245.512	6.14
245.729	24.58
245.946	20.48
246.163	14.34
246.38	0
246.597	10.24
246.814	-36.86
247.031	28.67
247.248	69.63
247.464	-4.1
247.681	20.48
247.898	38.91
248.115	40.96
248.332	53.25
248.549	34.82
248.766	51.2
248.983	28.67
249.2	40.96
249.417	6.14
249.633	-28.67
249.85	14.34
250.067	6.14
250.284	-8.19
250.501	47.1
250.717	30.72
250.934	28.67
251.151	57.34
251.368	10.24
251.585	24.58
251.801	45.06
252.018	6.14
252.235	-12.29
252.451	53.25
252.668	-22.53
252.885	-16.38
253.102	-30.72
253.318	51.2
253.535	26.62
253.752	-8.19
253.968	43.01
254.185	118.78
254.401	-26.62
254.618	88.06
254.835	75.77
255.051	30.72
255.268	4.1
255.484	77.82
255.701	-12.29
255.917	4.1
256.134	-8.19
256.351	63.49
256.567	16.38
256.784	77.82
257	-20.48
257.217	-32.77
257.433	38.91
257.65	-14.34
257.866	0
258.082	90.11
258.299	-12.29
258.515	55.3
258.732	28.67
258.948	47.1
259.165	-26.62
259.381	51.2
259.597	-14.34
259.814	-47.1
260.03	30.72
260.246	-36.86
260.463	2.05
260.679	-4.1
260.895	26.62
261.112	16.38
261.328	0
261.544	73.73
261.761	73.73
261.977	30.72
262.193	-43.01
262.409	30.72
262.626	38.91
262.842	24.58
263.058	12.29
263.274	-59.39
263.49	34.82
263.707	102.4
263.923	65.54
264.139	16.38
264.355	24.58
264.571	65.54
264.787	104.45
265.004	79.87
265.22	47.1
265.436	22.53
265.652	-59.39
265.868	49.15
266.084	-12.29
266.3	26.62
266.516	20.48
266.732	-40.96
266.948	24.58
267.164	18.43
267.38	45.06
267.596	-47.1
267.812	53.25
268.028	51.2
268.244	32.77
268.46	69.63
268.676	2.05
268.892	75.77
269.108	12.29
269.324	-43.01
269.54	-18.43
269.756	12.29
269.972	-79.87
270.188	73.73
270.403	75.77
270.619	26.62
270.835	57.34
271.051	106.49
271.267	-12.29
271.483	73.73
271.698	65.54
271.914	16.38
272.13	43.01
272.346	10.24
272.562	-4.1
272.777	63.49
272.993	51.2
273.209	-18.43
273.425	-2.05
273.64	2.05
273.856	14.34
274.072	-43.01
274.287	0
274.503	10.24
274.719	40.96
274.934	30.72
275.15	55.3
275.366	12.29
275.581	32.77
275.797	81.92
276.012	67.58
276.228	18.43
276.444	45.06
276.659	55.3
276.875	26.62
277.09	14.34
277.306	0
277.521	34.82
277.737	-12.29
277.952	-22.53
278.168	8.19
278.383	-77.82
278.599	-6.14
278.814	28.67
279.03	-14.34
279.245	14.34
279.461	12.29
279.676	-4.1
279.892	-8.19
280.107	45.06
280.322	34.82
280.538	32.77
280.753	-61.44
280.969	36.86
281.184	57.34
281.399	26.62
281.615	12.29
281.83	61.44
282.045	-51.2
282.26	-16.38
282.476	12.29
282.691	57.34
282.906	59.39
283.122	32.77
283.337	18.43
283.552	16.38
283.767	-4.1
283.983	53.25
284.198	0
284.413	47.1
284.628	-26.62
284.843	34.82
285.058	-4.1
285.274	47.1
285.489	32.77
285.704	24.58
285.919	-49.15
286.134	-6.14
286.349	8.19
286.564	-32.77
286.779	81.92
286.995	16.38
287.21	-10.24
287.425	92.16
287.64	-16.38
287.855	-22.53
288.07	40.96
288.285	34.82
288.5	45.06
288.715	40.96
288.93	-2.05
289.145	10.24
289.36	22.53
289.575	63.49
289.79	4.1
290.004	24.58
290.219	53.25
290.434	24.58
290.649	32.77
290.864	30.72
291.079	49.15
291.294	51.2
291.509	30.72
291.724	118.78
291.938	94.21
292.153	90.11
292.368	-12.29
292.583	8.19
292.798	53.25
293.012	-69.63
293.227	-20.48
293.442	6.14
293.657	24.58
293.871	38.91
294.086	-8.19
294.301	8.19
294.516	45.06
294.73	38.91
294.945	-104.45
295.16	98.3
295.374	-10.24
295.589	-45.06
295.804	18.43
296.018	43.01
296.233	47.1
296.447	12.29
296.662	-12.29
296.877	73.73
297.091	-24.58
297.306	28.67
297.52	-8.19
297.735	18.43
297.949	51.2
298.164	94.21
298.378	-22.53
298.593	-22.53
298.807	-12.29
299.022	61.44
299.236	55.3
299.451	8.19
299.665	-12.29
299.88	20.48
300.094	18.43
300.309	38.91
300.523	-36.86
300.737	88.06
300.952	32.77
301.166	22.53
301.381	26.62
301.595	24.58
301.809	20.48
302.024	8.19
302.238	36.86
302.452	47.1
302.667	-18.43
302.881	110.59
303.095	12.29
303.309	43.01
303.524	-36.86
303.738	-49.15
303.952	34.82
304.166	8.19
304.381	-34.82
304.595	40.96
304.809	63.49
305.023	55.3
305.237	71.68
305.452	94.21
305.666	12.29
305.88	59.39
306.094	47.1
306.308	96.25
306.522	-75.77
306.736	12.29
306.95	-45.06
307.164	34.82
307.379	43.01
307.593	45.06
307.807	86.01
308.021	100.35
308.235	71.68
308.449	-14.34
308.663	-6.14
308.877	0
309.091	-6.14
309.305	-30.72
309.519	-92.16
309.733	141.31
309.947	-26.62
310.161	75.77
310.374	79.87
310.588	18.43
310.802	26.62
311.016	81.92
311.23	92.16
311.444	75.77
311.658	55.3
311.872	53.25
312.085	49.15
312.299	73.73
312.513	24.58
312.727	57.34
312.941	-61.44
313.154	65.54
313.368	4.1
313.582	100.35
313.796	32.77
314.009	16.38
314.223	71.68
314.437	-6.14
314.651	18.43
314.864	-22.53
315.078	6.14
315.292	-22.53
315.505	49.15
315.719	67.58
315.933	18.43
316.146	65.54
316.36	-51.2
316.573	20.48
316.787	24.58
317.001	81.92
317.214	-51.2
317.428	28.67
317.641	-55.3
317.855	18.43
318.068	53.25
318.282	83.97
318.495	40.96
318.709	79.87
318.922	45.06
319.136	75.77
319.349	-26.62
319.563	53.25
319.776	4.1
319.99	6.14
320.203	12.29
320.417	20.48
320.63	-16.38
320.843	49.15
321.057	59.39
321.27	38.91
321.483	73.73
321.697	22.53
321.91	102.4
322.124	61.44
322.337	-20.48
322.55	-26.62
322.763	16.38
322.977	12.29
323.19	-26.62
323.403	-16.38
323.617	16.38
323.83	-10.24
324.043	-14.34
324.256	-8.19
324.469	8.19
324.683	59.39
324.896	71.68
325.109	47.1
325.322	24.58
325.535	-14.34
325.748	-18.43
325.962	-10.24
326.175	-6.14
326.388	49.15
326.601	49.15
326.814	32.77
327.027	61.44
327.24	106.49
327.453	-49.15
327.666	-20.48
327.879	36.86
328.092	4.1
328.305	51.2
328.518	6.14
328.731	51.2
328.944	-51.2
329.157	38.91
329.37	-36.86
329.583	83.97
329.796	106.49
330.009	-18.43
330.222	77.82
330.435	49.15
330.648	32.77
330.861	49.15
331.073	73.73
331.286	104.45
331.499	-14.34
331.712	14.34
331.925	-20.48
332.138	65.54
332.35	40.96
332.563	-38.91
332.776	16.38
332.989	-4.1
333.202	65.54
333.414	-34.82
333.627	59.39
333.84	24.58
334.053	47.1
334.265	-12.29
334.478	38.91
334.691	53.25
334.903	51.2
335.116	-36.86
335.329	8.19
335.541	59.39
335.754	83.97
335.966	38.91
336.179	-6.14
336.392	-59.39
336.604	38.91
336.817	12.29
337.029	22.53
337.242	77.82
337.454	-20.48
337.667	40.96
337.88	90.11
338.092	-30.72
338.305	57.34
338.517	-12.29
338.729	57.34
338.942	32.77
339.154	36.86
339.367	71.68
339.579	86.01
339.792	34.82
340.004	69.63
340.217	-28.67
340.429	14.34
340.641	45.06
340.854	73.73
341.066	59.39
341.278	96.25
341.491	57.34
341.703	32.77
341.915	38.91
342.128	77.82
342.34	-26.62
342.552	10.24
342.764	61.44
342.977	32.77
343.189	-20.48
343.401	57.34
343.613	-26.62
343.826	-14.34
344.038	38.91
344.25	20.48
344.462	8.19
344.674	55.3
344.886	47.1
345.099	24.58
345.311	36.86
345.523	63.49
345.735	6.14
345.947	-2.05
346.159	47.1
346.371	14.34
346.583	51.2
346.795	75.77
347.007	-55.3
347.219	40.96
347.431	-20.48
347.643	102.4
347.855	0
348.067	51.2
348.279	-22.53
348.491	-6.14
348.703	-4.1
348.915	4.1
349.127	-20.48
349.339	47.1
349.551	-18.43
349.763	18.43
349.975	73.73
350.187	28.67
350.399	0
350.61	63.49
350.822	10.24
351.034	63.49
351.246	55.3
351.458	22.53
351.669	75.77
351.881	59.39
352.093	14.34
352.305	51.2
352.517	34.82
352.728	77.82
352.94	-67.58
353.152	-20.48
353.363	6.14
353.575	16.38
353.787	73.73
353.999	75.77
354.21	53.25
354.422	-6.14
354.633	36.86
354.845	24.58
355.057	49.15
355.268	61.44
355.48	22.53
355.692	16.38
355.903	-14.34
356.115	2.05
356.326	-49.15
356.538	88.06
356.749	67.58
356.961	81.92
357.172	81.92
357.384	45.06
357.595	24.58
357.807	20.48
358.018	12.29
358.23	36.86
358.441	79.87
358.653	6.14
358.864	-10.24
359.075	14.34
359.287	63.49
359.498	100.35
359.709	14.34
359.921	86.01
360.132	-8.19
360.344	10.24
360.555	-40.96
360.766	-16.38
360.977	26.62
361.189	55.3
361.4	83.97
361.611	0
361.823	57.34
362.034	26.62
362.245	-16.38
362.456	69.63
362.667	8.19
362.879	4.1
363.09	-8.19
363.301	102.4
363.512	65.54
363.723	-12.29
363.935	-6.14
364.146	34.82
364.357	32.77
364.568	-30.72
364.779	-18.43
364.99	4.1
365.201	-51.2
365.412	96.25
365.623	79.87
365.834	88.06
366.045	0
366.256	6.14
366.467	20.48
366.678	2.05
366.889	96.25
367.1	-12.29
367.311	104.45
367.522	-24.58
367.733	30.72
367.944	67.58
368.155	32.77
368.366	71.68
368.577	16.38
368.788	106.49
368.999	45.06
369.209	36.86
369.42	-6.14
369.631	55.3
369.842	24.58
370.053	2.05
370.264	71.68
370.474	57.34
370.685	14.34
370.896	57.34
371.107	67.58
371.317	57.34
371.528	34.82
371.739	100.35
371.95	28.67
372.16	22.53
372.371	8.19
372.582	30.72
372.792	-2.05
373.003	49.15
373.214	88.06
373.424	92.16
373.635	-10.24
373.846	94.21
374.056	-20.48
374.267	-2.05
374.477	2.05
374.688	69.63
374.898	59.39
375.109	79.87
375.319	96.25
375.53	55.3
375.74	49.15
375.951	55.3
376.161	-22.53
376.372	18.43
376.582	26.62
376.793	51.2
377.003	55.3
377.214	118.78
377.424	110.59
377.635	40.96
377.845	65.54
378.055	77.82
378.266	59.39
378.476	45.06
378.686	20.48
378.897	-12.29
379.107	63.49
379.317	61.44
379.528	-16.38
379.738	94.21
379.948	-57.34
380.158	51.2
380.369	30.72
380.579	73.73
380.789	67.58
380.999	71.68
381.21	28.67
381.42	69.63
381.63	14.34
381.84	2.05
382.05	18.43
382.261	57.34
382.471	34.82
382.681	43.01
382.891	63.49
383.101	94.21
383.311	0
383.521	4.1
383.731	32.77
383.941	40.96
384.151	8.19
384.361	8.19
384.571	57.34
384.781	69.63
384.991	75.77
385.201	36.86
385.411	98.3
385.621	69.63
385.831	-16.38
386.041	96.25
386.251	10.24
386.461	8.19
386.671	63.49
386.881	4.1
387.091	38.91
387.301	61.44
387.511	28.67
387.72	34.82
387.93	81.92
388.14	-4.1
388.35	-59.39
388.56	40.96
388.769	14.34
388.979	55.3
389.189	36.86
389.399	0
389.609	79.87
389.818	126.97
390.028	65.54
390.238	61.44
390.447	30.72
390.657	59.39
390.867	0
391.076	43.01
391.286	-2.05
391.496	59.39
391.705	43.01
391.915	63.49
392.125	6.14
392.334	-10.24
392.544	73.73
392.753	67.58
392.963	-2.05
393.172	-8.19
393.382	12.29
393.591	94.21
393.801	-4.1
394.01	77.82
394.22	30.72
394.429	28.67
394.639	71.68
394.848	10.24
395.058	124.93
395.267	112.64
395.477	102.4
395.686	32.77
395.895	32.77
396.105	77.82
396.314	30.72
396.524	38.91
396.733	-4.1
396.942	75.77
397.152	100.35
397.361	32.77
397.57	83.97
397.78	53.25
397.989	45.06
398.198	141.31
398.407	51.2
398.617	43.01
398.826	57.34
399.035	108.54
399.244	75.77
399.453	75.77
399.663	139.26
399.872	124.93
400.081	-32.77
400.29	98.3
400.499	81.92
400.708	98.3
400.917	102.4
401.127	26.62
401.336	102.4
401.545	118.78
401.754	88.06
401.963	40.96
402.172	40.96
402.381	110.59
402.59	94.21
402.799	55.3
403.008	98.3
403.217	96.25
403.426	86.01
403.635	49.15
403.844	100.35
404.053	86.01
404.262	34.82
404.471	157.69
404.68	71.68
404.888	69.63
405.097	110.59
405.306	79.87
405.515	141.31
405.724	96.25
405.933	131.07
406.142	118.78
406.35	67.58
406.559	94.21
406.768	120.83
406.977	106.49
407.185	137.21
407.394	192.51
407.603	176.13
407.812	186.37
408.02	192.51
408.229	182.27
408.438	176.13
408.646	223.23
408.855	172.03
409.064	217.08
409.272	112.64
409.481	169.98
409.69	83.97
409.898	221.18
410.107	196.61
410.315	231.42
410.524	219.13
410.733	208.89
410.941	249.85
411.15	212.99
411.358	280.57
411.567	294.91
411.775	262.14
411.984	299
412.192	270.33
412.401	337.91
412.609	258.04
412.818	344.06
413.026	337.91
413.234	323.58
413.443	337.91
413.651	278.52
413.86	337.91
414.068	374.78
414.276	462.84
414.485	380.92
414.693	425.98
414.901	503.8
415.11	446.46
415.318	430.07
415.526	464.89
415.734	499.7
415.943	475.13
416.151	561.14
416.359	546.81
416.567	618.49
416.776	632.82
416.984	636.92
417.192	630.77
417.4	579.58
417.608	587.77
417.817	655.35
418.025	620.53
418.233	815.09
418.441	716.79
418.649	776.18
418.857	860.15
419.065	913.39
419.273	860.15
419.481	872.43
419.689	987.12
419.897	1026.03
420.105	960.5
420.313	993.26
420.521	1048.56
420.729	1101.81
420.937	1093.62
421.145	1210.35
421.353	1296.36
421.561	1290.22
421.769	1206.25
421.977	1355.76
422.185	1386.47
422.393	1429.48
422.601	1593.32
422.809	1621.99
423.017	1507.31
423.224	1683.43
423.432	1722.34
423.64	1662.95
423.848	1849.32
424.056	1785.83
424.263	2000.87
424.471	1923.04
424.679	1947.62
424.887	2088.93
425.094	2115.55
425.302	2115.55
425.51	2146.27
425.718	2232.29
425.925	2211.81
426.133	2371.55
426.341	2453.47
426.548	2443.23
426.756	2582.49
426.964	2656.22
427.171	2863.06
427.379	2844.63
427.586	2914.26
427.794	2926.55
428.001	3069.91
428.209	3215.31
428.417	3176.4
428.624	3368.91
428.832	3395.53
429.039	3399.63
429.247	3422.16
429.454	3895.24
429.662	3876.8
429.869	3725.26
430.076	3866.57
430.284	3831.75
430.491	3991.49
430.699	4241.34
430.906	4247.49
431.114	4337.6
431.321	4411.32
431.528	4626.36
431.736	4675.51
431.943	4917.17
432.15	4788.15
432.358	5119.92
432.565	5423.02
432.772	5130.16
432.979	5476.27
433.187	5689.26
433.394	5769.13
433.601	5992.36
433.808	5928.87
434.016	5943.21
434.223	6299.55
434.43	6447.01
434.637	6391.71
434.844	6821.78
435.052	6952.85
435.259	6836.12
435.466	7040.92
435.673	6854.55
435.88	7528.33
436.087	7792.52
436.294	7763.85
436.501	7444.37
436.708	7726.99
436.915	7997.32
437.122	8427.39
437.329	8417.15
437.537	8492.93
437.743	8769.4
437.95	8687.48
438.157	9009.01
438.364	9566.06
438.571	9496.43
438.778	9455.47
438.985	10532.7
439.192	10014.57
439.399	10268.52
439.606	10123.11
439.813	10776.41
440.02	11202.39
440.227	11050.84
440.433	10653.53
440.64	11183.96
440.847	11272.02
441.054	11448.15
441.261	12171.08
441.467	11812.68
441.674	12255.05
441.881	12754.75
442.088	12803.9
442.294	12476.23
442.501	12912.44
442.708	13299.51
442.914	13942.57
443.121	14413.6
443.328	13956.91
443.534	15081.24
443.741	14370.6
443.948	14200.62
444.154	15367.96
444.361	15005.47
444.568	15451.92
444.774	15294.23
444.981	15568.66
445.187	15912.72
445.394	16459.52
445.6	16402.18
445.807	17925.87
446.013	17272.57
446.22	17383.16
446.426	18138.86
446.633	18452.2
446.839	18818.78
447.046	18392.81
447.252	19017.44
447.459	18972.38
447.665	19064.54
447.871	19769.04
448.078	20713.16
448.284	19785.43
448.491	20291.27
448.697	20960.96
448.903	21524.15
449.11	21284.54
449.316	20995.78
449.522	21186.24
449.728	22025.9
449.935	21978.8
450.141	22288.04
450.347	22466.22
450.553	21786.29
450.76	22212.27
450.966	22793.89
451.172	22611.62
451.378	23191.2
451.584	22703.78
451.791	23168.67
451.997	23226.01
452.203	23502.49
452.409	23395.99
452.615	23312.03
452.821	22701.73
453.027	22335.15
453.233	23414.43
453.44	22075.06
453.646	22681.25
453.852	22851.24
454.058	22984.35
454.264	22247.08
454.47	22636.2
454.676	22161.07
454.882	23025.31
455.088	20977.34
455.294	21186.24
455.5	21528.25
455.705	21671.61
455.911	20745.92
456.117	20643.52
456.323	20186.83
456.529	19199.71
456.735	19881.68
456.941	19351.26
457.147	19230.43
457.352	18630.37
457.558	18007.79
457.764	18147.05
457.97	17794.8
458.176	17649.39
458.381	17757.94
458.587	16602.88
458.793	16334.6
458.999	15691.54
459.204	17028.86
459.41	16092.94
459.616	15310.61
459.821	15478.55
460.027	15347.48
460.233	14905.12
460.438	14288.68
460.644	14429.99
460.85	13973.29
461.055	13489.97
461.261	13188.92
461.466	12449.6
461.672	11851.6
461.878	12945.21
462.083	12291.91
462.289	11949.9
462.494	11706.19
462.7	11229.01
462.905	11091.8
463.111	11302.74
463.316	11421.52
463.522	11200.34
463.727	11034.46
463.932	11173.72
464.138	10846.04
464.343	11069.27
464.549	10899.29
464.754	11067.22
464.959	10876.76
465.165	10913.63
465.37	10518.37
465.575	10153.83
465.781	10573.66
465.986	10837.85
466.191	10205.03
466.397	9920.36
466.602	9535.34
466.807	10000.23
467.012	9994.09
467.218	9914.22
467.423	9951.08
467.628	9983.85
467.833	10276.71
468.038	9891.69
468.244	9566.06
468.449	9887.59
468.654	9711.47
468.859	9561.97
469.064	9371.5
469.269	9176.95
469.474	9279.35
469.679	9211.76
469.885	9105.27
470.09	9217.91
470.295	9183.09
470.5	8890.23
470.705	9013.11
470.91	8742.78
471.115	8740.73
471.32	8828.79
471.525	8777.59
471.73	8480.64
471.935	8640.38
472.139	8394.62
472.344	8300.42
472.549	8275.84
472.754	8195.97
472.959	7950.21
473.164	7896.97
473.369	7935.88
473.574	8056.71
473.778	7806.86
473.983	7929.74
474.188	7911.3
474.393	7403.41
474.598	7458.7
474.802	7452.56
475.007	7364.5
475.212	7468.94
475.417	7208.85
475.621	7182.23
475.826	7233.43
476.031	7063.44
476.235	6893.46
476.44	6893.46
476.645	6731.67
476.849	6915.99
477.054	6784.92
477.259	6752.15
477.463	6696.86
477.668	6590.36
477.872	6596.51
478.077	6508.44
478.282	6344.61
478.486	6260.64
478.691	6254.5
478.895	6178.72
479.1	6182.82
479.304	6186.91
479.509	5986.21
479.713	6191.01
479.918	5947.3
480.122	5840.81
480.326	6000.55
480.531	6107.04
480.735	6025.12
480.94	5894.05
481.144	6164.39
481.348	5965.73
481.553	5920.68
481.757	5873.57
481.961	5789.61
482.166	5865.38
482.37	5887.91
482.574	5709.74
482.778	5691.31
482.983	6008.74
483.187	5826.47
483.391	5834.66
483.595	5705.64
483.8	5750.7
484.004	5652.39
484.208	5855.14
484.412	5638.06
484.616	5713.83
484.821	5818.28
485.025	5459.88
485.229	5773.22
485.433	5783.46
485.637	5750.7
485.841	5611.43
486.045	5590.95
486.249	5681.07
486.453	5672.87
486.657	5676.97
486.861	5789.61
487.065	5576.62
487.269	5701.55
487.473	5685.16
487.677	5797.8
487.881	5650.35
488.085	5687.21
488.289	5713.83
488.493	5625.77
488.697	5928.87
488.901	5861.29
489.105	5699.5
489.309	5842.85
489.512	5867.43
489.716	5740.46
489.92	5881.77
490.124	5871.53
490.328	5953.45
490.531	5836.71
490.735	5896.1
490.939	6156.19
491.143	6053.8
491.346	5773.22
491.55	6025.12
491.754	6143.91
491.958	6252.45
492.161	6051.75
492.365	6148
492.569	6092.71
492.772	6006.69
492.976	6203.3
493.18	6219.68
493.383	6225.82
493.587	6231.97
493.79	6342.56
493.994	6236.06
494.197	6254.5
494.401	6281.12
494.605	6389.66
494.808	6416.29
495.012	6528.92
495.215	6457.25
495.419	6723.48
495.622	6516.64
495.825	6645.66
496.029	6807.45
496.232	6907.8
496.436	6829.98
496.639	6979.48
496.843	6936.47
497.046	6930.33
497.249	7176.08
497.453	7325.58
497.656	7229.33
497.859	7323.54
498.063	7202.71
498.266	7507.85
498.469	7405.45
498.673	7470.99
498.876	7565.2
499.079	7888.78
499.282	7847.82
499.485	7796.62
499.689	7944.07
499.892	7991.17
500.095	8101.76
500.298	8349.57
500.501	8359.81
500.705	8400.77
500.908	8638.33
501.111	8580.99
501.314	8628.09
501.517	8748.92
501.72	8949.62
501.923	8873.85
502.126	9107.32
502.329	9279.35
502.532	9549.68
502.735	9375.6
502.938	9478
503.141	9611.12
503.344	9914.22
503.547	9807.72
503.75	10004.33
503.953	10010.47
504.156	10227.56
504.359	10100.58
504.562	10159.97
504.765	10444.64
504.968	10653.53
505.17	10747.74
505.373	10575.71
505.576	10764.12
505.779	11073.37
505.982	11061.08
506.185	11472.72
506.387	11329.36
506.59	11454.29
506.793	11722.57
506.996	11538.26
507.198	11886.41
507.401	11958.09
507.604	12267.33
507.807	12414.79
508.009	12414.79
508.212	12513.09
508.415	12701.5
508.617	12746.56
508.82	12826.43
509.022	12767.04
509.225	13020.99
509.428	13094.71
509.63	13260.6
509.833	13559.6
510.035	13967.15
510.238	13657.9
510.44	14051.11
510.643	14135.08
510.845	14167.85
511.048	14202.66
511.25	14667.55
511.453	14894.88
511.655	15212.31
511.858	14825.25
512.06	15044.38
512.262	15308.57
512.465	15111.96
512.667	15531.8
512.87	15632.15
513.072	15771.41
513.274	16045.84
513.477	16113.42
513.679	16457.48
513.881	16514.82
514.084	16643.84
514.286	16680.71
514.488	16867.07
514.69	17336.06
514.893	17295.1
515.095	17383.16
515.297	17618.68
515.499	17686.26
515.701	17850.1
515.904	17979.12
516.106	18458.34
516.308	18536.17
516.51	18714.34
516.712	18790.11
516.914	18894.56
517.116	19236.57
517.318	19220.19
517.52	19515.09
517.722	19826.39
517.925	19891.92
518.127	20022.99
518.329	20420.3
518.531	20154.06
518.733	20580.04
518.935	20551.37
519.136	20887.23
519.338	21083.84
519.54	20991.68
519.742	21526.2
519.944	21618.36
520.146	21751.48
520.348	22163.12
520.55	22208.17
520.752	22523.56
520.954	22849.19
521.155	22689.45
521.357	22916.77
521.559	23170.72
521.761	23639.7
521.963	23508.63
522.164	23473.82
522.366	23838.36
522.568	24010.39
522.77	24231.57
522.971	24782.47
523.173	24190.61
523.375	24811.14
523.576	24680.07
523.778	24825.48
523.98	25333.37
524.181	25196.16
524.383	25310.85
524.584	25677.43
524.786	25601.66
524.988	25685.62
525.189	26254.96
525.391	26562.15
525.592	26619.5
525.794	26494.57
525.995	26924.65
526.197	26547.82
526.398	26463.85
526.6	26971.75
526.801	27276.9
527.003	26988.13
527.204	27303.52
527.406	27543.13
527.607	27612.76
527.808	27661.91
528.01	27369.05
528.211	27764.31
528.412	28374.61
528.614	27950.68
528.815	28315.22
529.016	28460.62
529.218	28589.64
529.419	28458.57
529.62	28218.96
529.822	28266.06
530.023	28548.68
530.224	28534.35
530.425	28614.22
530.626	28509.77
530.828	28741.19
531.029	29130.31
531.23	28657.23
531.431	28814.92
531.632	28669.51
531.833	29034.05
532.035	28724.81
532.236	29376.06
532.437	29431.36
532.638	28997.19
532.839	29376.06
533.04	29449.79
533.241	28982.85
533.442	29625.92
533.643	29713.98
533.844	29664.83
534.045	29681.21
534.246	29398.59
534.447	29417.02
534.648	29687.35
534.849	29675.07
535.05	29398.59
535.251	29607.48
535.451	29406.78
535.652	29861.43
535.853	29642.3
536.054	29652.54
536.255	29867.58
536.456	29713.98
536.657	29869.62
536.857	30033.46
537.058	29564.48
537.259	29904.44
537.46	30060.09
537.66	29652.54
537.861	29769.27
538.062	30015.03
538.263	30037.56
538.463	29691.45
538.664	29959.73
538.865	29982.26
539.065	30041.65
539.266	29699.64
539.466	30033.46
539.667	29494.85
539.868	29976.12
540.068	29750.84
540.269	29705.79
540.469	30244.4
540.67	29670.97
540.87	29656.64
541.071	29886.01
541.271	29773.37
541.472	29632.06
541.672	29711.93
541.873	29896.25
542.073	29374.02
542.274	30053.94
542.474	29896.25
542.675	29541.95
542.875	29797.95
543.075	29881.91
543.276	29439.55
543.476	30088.76
543.676	29615.68
543.877	29572.67
544.077	29474.37
544.277	29785.66
544.478	29742.65
544.678	29881.91
544.878	29799.99
545.078	29900.34
545.279	29775.42
545.479	29617.72
545.679	29802.04
545.879	29689.4
546.079	29840.95
546.28	29445.69
546.48	29406.78
546.68	29949.49
546.88	29546.05
547.08	29646.4
547.28	29632.06
547.48	29349.44
547.68	29462.08
547.88	29494.85
548.081	29587
548.281	29937.21
548.481	29650.49
548.681	30078.52
548.881	29541.95
549.081	29625.92
549.28	29105.73
549.48	29886.01
549.68	29568.57
549.88	29720.12
550.08	29605.44
550.28	29689.4
550.48	29210.18
550.68	29562.43
550.88	29654.59
551.08	29357.63
551.279	29357.63
551.479	29466.17
551.679	29353.54
551.879	29730.36
552.079	29367.87
552.278	29361.73
552.478	29546.05
552.678	29189.7
552.878	29619.77
553.077	29449.79
553.277	28952.13
553.477	29548.09
553.676	29201.99
553.876	29236.8
554.076	29361.73
554.275	29410.88
554.475	29050.44
554.674	29398.59
554.874	29605.44
555.074	28939.85
555.273	29146.69
555.473	29455.93
555.672	29179.46
555.872	29222.47
556.071	29302.34
556.271	29353.54
556.47	28827.21
556.67	28714.57
556.869	29044.29
557.068	28874.31
557.268	29062.72
557.467	29097.54
557.667	28636.75
557.866	28935.75
558.065	28806.73
558.265	28364.37
558.464	28739.15
558.663	28755.53
558.863	28288.59
559.062	28481.1
559.261	28188.24
559.461	28409.42
559.66	28134.99
559.859	28231.25
560.058	27852.37
560.258	28055.12
560.457	28020.31
560.656	28284.5
560.855	28077.65
561.054	28323.41
561.253	27991.64
561.453	27854.42
561.652	27897.43
561.851	28008.02
562.05	27846.23
562.249	27727.45
562.448	27430.49
562.647	27852.37
562.846	27917.91
563.045	27670.11
563.244	26910.31
563.443	27516.51
563.642	27266.66
563.841	27719.26
564.04	27256.42
564.239	27258.46
564.438	26988.13
564.637	27315.81
564.836	27076.19
565.035	26779.24
565.234	27016.8
565.432	26566.25
565.631	26732.14
565.83	26773.1
566.029	26422.89
566.228	26556.01
566.427	26373.74
566.625	26254.96
566.824	25724.54
567.023	26388.08
567.222	26023.54
567.42	26330.73
567.619	26093.17
567.818	25884.28
568.016	25730.68
568.215	26189.42
568.414	25818.74
568.612	25777.78
568.811	25415.29
569.01	25734.78
569.208	25327.23
569.407	25781.88
569.605	25167.49
569.804	25462.4
570.002	24893.06
570.201	25241.21
570.4	25245.31
570.598	24946.31
570.797	25032.32
570.995	24970.88
571.193	24841.86
571.392	24755.85
571.59	24573.58
571.789	24493.71
571.987	24557.19
572.186	24411.79
572.384	24290.96
572.582	24503.95
572.781	24473.23
572.979	23895.7
573.177	24403.6
573.376	24295.05
573.574	23721.62
573.772	23885.46
573.971	23484.06
574.169	23533.21
574.367	23490.2
574.565	23580.31
574.763	23498.39
574.962	23594.65
575.16	23002.78
575.358	23209.63
575.556	22982.31
575.754	23420.57
575.952	23312.03
576.151	23301.79
576.349	22865.57
576.547	22920.87
576.745	22990.5
576.943	22681.25
577.141	22619.81
577.339	22679.21
577.537	22621.86
577.735	22802.08
577.933	22130.35
578.131	22533.8
578.329	21993.14
578.527	22359.72
578.725	22150.83
578.923	22283.95
579.121	22042.29
579.319	21737.14
579.516	22234.8
579.714	22032.05
579.912	21943.99
580.11	21569.21
580.308	21735.09
580.506	21606.07
580.704	21415.61
580.901	21585.59
581.099	21591.73
581.297	21348.03
581.495	21528.25
581.692	21331.64
581.89	21157.57
582.088	21188.28
582.285	20983.49
582.483	21180.09
582.681	21145.28
582.878	20815.55
583.076	20764.36
583.274	21042.88
583.471	20502.22
583.669	20782.79
583.866	20784.83
584.064	20811.46
584.262	20242.12
584.459	20510.41
584.657	20289.23
584.854	20471.5
585.052	20195.02
585.249	20311.75
585.447	20274.89
585.644	20063.95
585.841	19924.69
586.039	20043.47
586.236	19769.04
586.434	19838.67
586.631	19916.5
586.828	19674.84
587.026	19615.44
587.223	19846.87
587.42	19535.57
587.618	19730.13
587.815	19402.46
588.012	19338.97
588.21	19289.82
588.407	19664.6
588.604	19275.48
588.801	19300.06
588.999	19072.73
589.196	19216.09
589.393	19205.85
589.59	18953.95
589.787	19138.27
589.984	18667.24
590.182	18497.25
590.379	18607.84
590.576	18489.06
590.773	18560.74
590.97	18513.64
591.167	18388.71
591.364	18349.8
591.561	18321.13
591.758	18335.46
591.955	18355.94
592.152	18073.32
592.349	17907.44
592.546	18179.82
592.743	17934.06
592.94	17721.07
593.137	17948.4
593.334	18040.56
593.531	17805.04
593.727	17751.79
593.924	17626.87
594.121	17477.37
594.318	17864.43
594.515	17606.39
594.712	17653.49
594.908	17393.4
595.105	17440.5
595.302	17383.16
595.499	17413.88
595.696	17229.56
595.892	17342.2
596.089	17303.29
596.286	17123.07
596.482	17039.1
596.679	17215.23
596.876	17088.25
597.072	16811.78
597.269	16774.91
597.466	16590.59
597.662	16531.2
597.859	16758.53
598.055	16770.82
598.252	16535.3
598.448	16441.09
598.645	16692.99
598.841	16551.68
599.038	16453.38
599.234	16328.45
599.431	16201.48
599.627	16396.04
599.824	16393.99
600.02	16224.01
600.217	16197.38
600.413	16043.79
600.609	16045.84
600.806	15951.63
601.002	15984.4
601.198	15795.98
601.395	15654.67
601.591	15714.06
601.787	15669.01
601.984	15562.51
602.18	15707.92
602.376	15367.96
602.572	15611.67
602.769	15658.77
602.965	15380.25
603.161	15535.89
603.357	15228.7
603.553	15421.2
603.75	15243.03
603.946	15138.59
604.142	15208.22
604.338	14796.57
604.534	14970.65
604.73	14688.03
604.926	14958.36
605.122	15007.52
605.318	14653.22
605.514	14597.92
605.71	14718.75
605.906	14628.64
606.102	14610.21
606.298	14708.51
606.494	14489.38
606.69	14708.51
606.886	14528.29
607.082	14251.81
607.278	14481.19
607.474	14092.07
607.67	14454.56
607.866	14163.75
608.062	14384.93
608.257	14143.27
608.453	14112.55
608.649	14040.87
608.845	14149.42
609.041	14159.66
609.236	14098.22
609.432	14190.38
609.628	13977.39
609.824	13901.61
610.019	13797.17
610.215	13770.54
610.411	13762.35
610.606	13731.63
610.802	13924.14
610.998	13721.39
611.193	13807.41
611.389	13688.62
611.584	13569.84
611.78	13551.41
611.976	13590.32
612.171	13524.79
612.367	13522.74
612.562	13475.63
612.758	13319.99
612.953	13231.93
613.149	13625.14
613.344	13016.89
613.539	13442.87
613.735	13332.28
613.93	13455.15
614.126	13270.84
614.321	13489.97
614.517	13319.99
614.712	13096.76
614.907	13059.9
615.103	13063.99
615.298	13123.38
615.493	13213.49
615.688	13059.9
615.884	13176.63
616.079	12844.86
616.274	12932.92
616.47	12767.04
616.665	12853.05
616.86	12767.04
617.055	12756.8
617.25	12840.76
617.445	12883.77
617.641	12664.64
617.836	12926.78
618.031	12660.54
618.226	12859.2
618.421	12414.79
618.616	12652.35
618.811	12355.4
619.006	12640.06
619.201	12113.74
619.396	12242.76
619.591	12136.26
619.786	12146.5
619.981	12195.65
620.176	12074.82
620.371	11976.52
620.566	12189.51
620.761	12062.54
620.956	11978.57
621.151	11777.87
621.346	11941.71
621.541	11536.21
621.735	11925.32
621.93	11480.91
622.125	11663.18
622.32	11448.15
622.515	11458.39
622.709	11372.37
622.904	11120.47
623.099	11274.07
623.294	11276.12
623.488	11138.9
623.683	11099.99
623.878	11046.74
624.072	11235.16
624.267	10968.92
624.462	11026.26
624.656	10651.49
624.851	10674.01
625.046	10524.51
625.24	10631.01
625.435	10528.61
625.629	10641.25
625.824	10282.85
626.018	10387.3
626.213	10243.94
626.407	10547.04
626.602	10049.38
626.796	10315.62
626.991	10235.75
627.185	10188.64
627.38	10020.71
627.574	10053.48
627.768	9977.7
627.963	10049.38
628.157	9670.51
628.352	9910.12
628.546	9690.99
628.74	9734
628.935	9553.77
629.129	9695.08
629.323	9576.3
629.517	9445.23
629.712	9508.72
629.906	9478
630.1	9488.24
630.294	9170.8
630.489	9121.65
630.683	9191.28
630.877	9078.65
631.071	9316.21
631.265	9066.36
631.459	8898.42
631.653	8904.57
631.848	8877.94
632.042	8611.71
632.236	8773.5
632.43	8667
632.624	8820.6
632.818	8636.28
633.012	8443.78
633.206	8640.38
633.4	8499.07
633.594	8454.01
633.788	8564.61
633.982	8509.31
634.176	8558.46
634.369	8353.66
634.563	8411.01
634.757	8071.04
634.951	8171.4
635.145	8290.18
635.339	8208.26
635.533	8107.91
635.726	8060.81
635.92	7931.78
636.114	8011.65
636.308	7946.12
636.501	7657.36
636.695	7628.68
636.889	7536.52
637.083	7753.61
637.276	7726.99
637.47	7602.06
637.664	7468.94
637.857	7679.88
638.051	7604.11
638.244	7450.51
638.438	7509.9
638.632	7436.17
638.825	7403.41
639.019	7217.04
639.212	7479.18
639.406	7212.95
639.599	7188.37
639.793	7153.55
639.986	7073.68
640.18	7167.89
640.373	6932.37
640.567	6877.08
640.76	6961.05
640.954	6981.53
641.147	6746.01
641.34	6725.53
641.534	6750.1
641.727	6838.17
641.92	6647.71
642.114	6743.96
642.307	6561.69
642.5	6506.4
642.694	6438.81
642.887	6469.53
643.08	6641.56
643.273	6471.58
643.467	6471.58
643.66	6389.66
643.853	6209.44
644.046	6131.62
644.239	6404
644.432	6217.63
644.626	6064.04
644.819	6205.35
645.012	6293.41
645.205	6012.84
645.398	6170.53
645.591	6008.74
645.784	5957.54
645.977	5855.14
646.17	5918.63
646.363	5873.57
646.556	5863.33
646.749	5980.07
646.942	5873.57
647.135	5865.38
647.328	5820.33
647.521	5797.8
647.714	5564.33
647.907	5832.61
648.099	5642.15
648.292	5619.63
648.485	5537.71
648.678	5603.24
648.871	5513.13
649.064	5533.61
649.256	5504.94
649.449	5357.49
649.642	5234.61
649.835	5341.1
650.027	5187.5
650.22	5154.74
650.413	5158.83
650.605	5279.66
650.798	5250.99
650.991	5373.87
651.183	5230.51
651.376	5064.63
651.568	4984.76
651.761	5099.44
651.954	5050.29
652.146	4941.75
652.339	4923.32
652.531	4886.45
652.724	4921.27
652.916	4751.29
653.109	4779.96
653.301	4669.37
653.494	4949.94
653.686	4698.04
653.879	4798.39
654.071	4726.71
654.263	4616.12
654.456	4779.96
654.648	4734.9
654.84	4648.89
655.033	4599.74
655.225	4646.84
655.417	4644.79
655.61	4405.18
655.802	4657.08
655.994	4591.55
656.186	4569.02
656.379	4542.39
656.571	4466.62
656.763	4497.34
656.955	4415.42
657.148	4413.37
657.34	4218.82
657.532	4245.44
657.724	4245.44
657.916	4231.1
658.108	4140.99
658.3	4278.21
658.492	4243.39
658.684	4130.75
658.876	3971.01
659.068	4108.23
659.26	4014.02
659.452	4097.99
659.644	4120.51
659.836	4085.7
660.028	3964.87
660.22	3936.2
660.412	4081.6
660.604	4069.31
660.796	3911.62
660.988	3835.85
661.18	3942.34
661.372	3979.2
661.563	3887.04
661.755	3835.85
661.947	3760.07
662.139	3825.61
662.331	3801.03
662.522	3706.82
662.714	3698.63
662.906	3688.39
663.097	3653.58
663.289	3606.47
663.481	3553.23
663.673	3526.6
663.864	3692.49
664.056	3536.84
664.247	3571.66
664.439	3606.47
664.631	3428.3
664.822	3463.12
665.014	3489.74
665.205	3512.27
665.397	3432.4
665.588	3508.17
665.78	3448.78
665.971	3465.16
666.163	3342.28
666.354	3428.3
666.546	3387.34
666.737	3309.52
666.929	3481.55
667.12	3418.06
667.311	3366.86
667.503	3205.07
667.694	3246.03
667.885	3221.45
668.077	3209.17
668.268	3188.69
668.459	3274.7
668.651	3164.11
668.842	3317.71
669.033	3041.23
669.224	3196.88
669.416	3190.74
669.607	3045.33
669.798	3170.26
669.989	3162.06
670.18	3008.47
670.371	3088.34
670.563	3112.91
670.754	3112.91
670.945	2889.68
671.136	3133.39
671.327	3026.9
671.518	3024.85
671.709	3112.91
671.9	3076.05
672.091	2951.12
672.282	2904.02
672.473	2953.17
672.664	2959.31
672.855	2957.27
673.046	2897.88
673.237	2928.6
673.428	3022.8
673.619	2936.79
673.809	2893.78
674	2863.06
674.191	2930.64
674.382	2770.9
674.573	2736.09
674.764	2906.07
674.954	2858.96
675.145	2750.42
675.336	2754.52
675.527	2844.63
675.717	2826.2
675.908	2672.6
676.099	2889.68
676.289	2766.81
676.48	2717.65
676.671	2846.68
676.861	2766.81
677.052	2588.63
677.243	2715.61
677.433	2691.03
677.624	2701.27
677.814	2713.56
678.005	2650.07
678.195	2695.13
678.386	2660.31
678.576	2568.15
678.767	2645.98
678.957	2713.56
679.148	2627.54
679.338	2688.98
679.529	2740.18
679.719	2617.3
679.909	2795.48
680.1	2568.15
680.29	2643.93
680.481	2568.15
680.671	2586.58
680.861	2662.36
681.052	2666.46
681.242	2531.29
681.432	2564.06
681.622	2521.05
681.813	2576.34
682.003	2568.15
682.193	2658.26
682.383	2582.49
682.573	2523.1
682.764	2545.63
682.954	2502.62
683.144	2576.34
683.334	2486.23
683.524	2551.77
683.714	2562.01
683.904	2396.12
684.094	2576.34
684.284	2508.76
684.474	2418.65
684.664	2389.98
684.854	2508.76
685.044	2377.69
685.234	2488.28
685.424	2385.88
685.614	2361.31
685.804	2324.44
685.994	2445.27
686.184	2439.13
686.374	2422.75
686.564	2379.74
686.753	2502.62
686.943	2359.26
687.133	2396.12
687.323	2287.58
687.513	2441.18
687.702	2369.5
687.892	2424.8
688.082	2385.88
688.272	2342.88
688.461	2246.62
688.651	2349.02
688.841	2291.68
689.03	2312.16
689.22	2342.88
689.41	2301.92
689.599	2162.65
689.789	2330.59
689.979	2105.31
690.168	2209.76
690.358	2349.02
690.547	2334.68
690.737	2285.53
690.926	2209.76
691.116	2283.49
691.305	2301.92
691.495	2234.33
691.684	2039.78
691.874	2097.12
692.063	2183.13
692.252	2201.57
692.442	2140.13
692.631	2181.09
692.82	2228.19
693.01	2133.98
693.199	2097.12
693.388	2142.18
693.578	2086.88
693.767	2056.16
693.956	2037.73
694.146	2119.65
694.335	2093.02
694.524	2052.06
694.713	2207.71
694.902	1994.72
695.092	1986.53
695.281	2107.36
695.47	2066.4
695.659	2047.97
695.848	1986.53
696.037	2072.54
696.226	2062.3
696.415	2166.75
696.604	2062.3
696.793	2090.98
696.982	2074.59
697.171	2101.22
697.36	2066.4
697.549	1994.72
697.738	2027.49
697.927	2107.36
698.116	2160.61
698.305	2183.13
698.494	2047.97
698.683	2070.5
698.872	2066.4
699.061	1996.77
699.25	2144.22
699.438	2054.11
699.627	2074.59
699.816	2035.68
700.005	1996.77
700.193	2047.97
700.382	1974.24
700.571	2023.39
700.76	2027.49
700.948	2011.11
701.137	2037.73
701.326	1949.67
701.514	1988.58
701.703	2078.69
701.892	1980.39
702.08	2052.06
702.269	2052.06
702.457	1986.53
702.646	2050.02
702.834	1994.72
703.023	2054.11
703.212	1996.77
703.4	2230.24
703.589	2035.68
703.777	2021.35
703.965	2004.96
704.154	1992.67
704.342	2125.79
704.531	2004.96
704.719	2009.06
704.907	2072.54
705.096	2154.46
705.284	2129.89
705.472	2041.82
705.661	2031.58
705.849	2019.3
706.037	2002.91
706.226	1996.77
706.414	2017.25
706.602	1974.24
706.79	2148.32
706.979	1974.24
707.167	2111.46
707.355	2097.12
707.543	2125.79
707.731	2023.39
707.919	2045.92
708.107	2011.11
708.296	2052.06
708.484	2033.63
708.672	2125.79
708.86	2047.97
709.048	2035.68
709.236	1925.09
709.424	2179.04
709.612	2002.91
709.8	1925.09
709.988	2082.78
710.176	2035.68
710.364	2123.74
710.551	1998.82
710.739	1955.81
710.927	2078.69
711.115	2054.11
711.303	2043.87
711.491	1998.82
711.679	2025.44
711.866	2072.54
712.054	1968.1
712.242	1996.77
712.43	2103.26
712.617	2078.69
712.805	1916.9
712.993	2047.97
713.181	1939.43
713.368	1990.63
713.556	2060.26
713.744	1966.05
713.931	2041.82
714.119	2103.26
714.306	2105.31
714.494	2076.64
714.682	2043.87
714.869	2043.87
715.057	2045.92
715.244	1951.71
715.432	2072.54
715.619	2017.25
715.807	2002.91
715.994	2070.5
716.182	2072.54
716.369	2004.96
716.556	1982.43
716.744	1976.29
716.931	2068.45
717.119	2105.31
717.306	1994.72
717.493	2004.96
717.681	2025.44
717.868	1933.28
718.055	2082.78
718.242	2052.06
718.43	2054.11
718.617	1929.19
718.804	2019.3
718.991	1988.58
719.179	1906.66
719.366	1943.52
719.553	2060.26
719.74	1994.72
719.927	1986.53
720.114	1908.71
720.301	1996.77
720.488	1974.24
720.676	2074.59
720.863	1941.47
721.05	1951.71
721.237	1951.71
721.424	2074.59
721.611	1978.34
721.798	1939.43
721.985	2041.82
722.172	1933.28
722.358	2004.96
722.545	2000.87
722.732	2072.54
722.919	2019.3
723.106	2043.87
723.293	1961.95
723.48	2043.87
723.667	1947.62
723.853	1966.05
724.04	1937.38
724.227	2009.06
724.414	1961.95
724.6	1931.23
724.787	1968.1
724.974	1988.58
725.161	1908.71
725.347	1964
725.534	2052.06
725.72	1984.48
725.907	1996.77
726.094	2011.11
726.28	1869.8
726.467	1972.19
726.653	2000.87
726.84	1978.34
727.027	1945.57
727.213	1902.56
727.4	1968.1
727.586	2035.68
727.773	1998.82
727.959	1925.09
728.145	1974.24
728.332	1980.39
728.518	1941.47
728.705	1994.72
728.891	1966.05
729.077	1894.37
729.264	1918.95
729.45	1990.63
729.636	1800.16
729.823	1964
730.009	2080.74
730.195	1978.34
730.382	1976.29
730.568	1974.24
730.754	1892.32
730.94	1988.58
731.126	1951.71
731.313	2007.01
731.499	1959.91
731.685	1906.66
731.871	1857.51
732.057	1970.15
732.243	1929.19
732.429	1992.67
732.615	1988.58
732.801	1808.36
732.987	1871.84
733.173	1968.1
733.359	1990.63
733.545	1892.32
733.731	1986.53
733.917	1935.33
734.103	1955.81
734.289	1818.6
734.475	1972.19
734.661	1986.53
734.847	1931.23
735.033	1957.86
735.219	1998.82
735.404	1996.77
735.59	1820.64
735.776	1941.47
735.962	1970.15
736.148	1935.33
736.333	1791.97
736.519	1904.61
736.705	1976.29
736.89	1888.23
737.076	1941.47
737.262	1785.83
737.447	1890.28
737.633	1798.12
737.819	1855.46
738.004	1781.73
738.19	1830.88
738.375	1933.28
738.561	1832.93
738.747	1925.09
738.932	1861.6
739.118	1828.84
739.303	1748.97
739.489	1853.41
739.674	1783.78
739.859	1812.45
740.045	1863.65
740.23	1755.11
740.416	1763.3
740.601	1816.55
740.786	1785.83
740.972	1767.4
741.157	1736.68
741.342	1822.69
741.528	1759.21
741.713	1738.73
741.898	1767.4
742.084	1761.25
742.269	1771.49
742.454	1781.73
742.639	1814.5
742.824	1732.58
743.01	1808.36
743.195	1669.09
743.38	1683.43
743.565	1662.95
743.75	1787.88
743.935	1597.42
744.12	1785.83
744.305	1638.37
744.49	1662.95
744.675	1785.83
744.86	1601.51
745.045	1714.15
745.23	1560.55
745.415	1685.48
745.6	1746.92
745.785	1726.44
745.97	1445.87
746.155	1566.7
746.34	1570.79
746.525	1683.43
746.71	1560.55
746.895	1523.69
747.079	1558.5
747.264	1679.33
747.449	1556.46
747.634	1492.97
747.819	1507.31
748.003	1419.24
748.188	1515.5
748.373	1515.5
748.557	1558.5
748.742	1482.73
748.927	1411.05
749.111	1404.91
749.296	1427.43
749.481	1437.67
749.665	1470.44
749.85	1482.73
750.034	1404.91
750.219	1443.82
750.404	1396.71
750.588	1343.47
750.773	1413.1
750.957	1329.13
751.141	1376.23
751.326	1390.57
751.51	1363.95
751.695	1306.6
751.879	1253.36
752.064	1345.52
752.248	1357.8
752.432	1355.76
752.617	1218.54
752.801	1333.23
752.985	1308.65
753.17	1257.45
753.354	1265.64
753.538	1286.12
753.722	1275.88
753.907	1193.97
754.091	1126.38
754.275	1292.27
754.459	1185.77
754.643	1173.49
754.828	1212.4
755.012	1124.33
755.196	1218.54
755.38	1177.58
755.564	1181.68
755.748	1167.34
755.932	1193.97
756.116	1140.72
756.3	1128.43
756.484	1110
756.668	1142.77
756.852	1124.33
757.036	1101.81
757.22	1089.52
757.404	1073.14
757.588	1017.84
757.772	956.4
757.956	1122.29
758.14	1134.57
758.323	1132.53
758.507	1005.55
758.691	925.68
758.875	1026.03
759.059	1060.85
759.242	935.92
759.426	1005.55
759.61	942.07
759.794	925.68
759.977	1044.46
760.161	978.93
760.345	937.97
760.528	1032.18
760.712	954.35
760.895	935.92
761.079	987.12
761.263	1050.61
761.446	901.11
761.63	972.79
761.813	884.72
761.997	954.35
762.18	870.39
762.364	888.82
762.547	851.96
762.731	905.2
762.914	843.76
763.098	905.2
763.281	964.59
763.464	946.16
763.648	919.54
763.831	815.09
764.015	847.86
764.198	923.63
764.381	864.24
764.564	851.96
764.748	849.91
764.931	870.39
765.114	792.56
765.297	872.43
765.481	897.01
765.664	878.58
765.847	948.21
766.03	843.76
766.213	825.33
766.397	870.39
766.58	884.72
766.763	915.44
766.946	778.23
767.129	753.65
767.312	802.8
767.495	856.05
767.678	825.33
767.861	811
768.044	800.76
768.227	792.56
768.41	767.99
768.593	776.18
768.776	811
768.959	864.24
769.142	817.14
769.324	835.57
769.507	784.37
769.69	831.48
769.873	749.56
770.056	823.28
770.239	757.75
770.421	782.32
770.604	780.28
770.787	767.99
770.97	845.81
771.152	724.98
771.335	819.19
771.518	712.69
771.7	704.5
771.883	729.08
772.066	679.93
772.248	669.69
772.431	702.45
772.613	761.84
772.796	780.28
772.978	612.34
773.161	747.51
773.343	647.16
773.526	671.73
773.708	702.45
773.891	665.59
774.073	604.15
774.256	727.03
774.438	716.79
774.621	626.68
774.803	694.26
774.985	632.82
775.168	655.35
775.35	645.11
775.532	632.82
775.715	636.92
775.897	626.68
776.079	626.68
776.261	696.31
776.444	624.63
776.626	606.2
776.808	606.2
776.99	546.81
777.173	585.72
777.355	608.25
777.537	595.96
777.719	608.25
777.901	571.38
778.083	522.23
778.265	520.18
778.447	595.96
778.629	503.8
778.811	608.25
778.993	552.95
779.175	577.53
779.357	516.09
779.539	485.37
779.721	602.1
779.903	503.8
780.085	499.7
780.267	573.43
780.449	593.91
780.631	540.66
780.812	458.75
780.994	479.22
781.176	524.28
781.358	473.08
781.54	479.22
781.721	495.61
781.903	507.9
782.085	450.55
782.267	505.85
782.448	389.11
782.63	511.99
782.812	503.8
782.993	434.17
783.175	458.75
783.357	409.59
783.538	485.37
783.72	407.55
783.901	448.51
784.083	456.7
784.264	423.93
784.446	425.98
784.627	423.93
784.809	511.99
784.99	421.88
785.172	401.4
785.353	430.07
785.535	503.8
785.716	385.02
785.897	315.39
786.079	419.83
786.26	423.93
786.441	331.77
786.623	348.15
786.804	499.7
786.985	360.44
787.167	380.92
787.348	284.67
787.529	360.44
787.71	339.96
787.891	389.11
788.073	337.91
788.254	372.73
788.435	366.59
788.616	372.73
788.797	327.67
788.978	440.31
789.159	366.59
789.34	327.67
789.522	329.72
789.703	370.68
789.884	331.77
790.065	350.2
790.246	323.58
790.427	274.43
790.607	327.67
790.788	335.87
790.969	368.63
791.15	296.96
791.331	325.63
791.512	397.31
791.693	266.24
791.874	294.91
792.054	403.45
792.235	319.48
792.416	258.04
792.597	305.15
792.778	309.24
792.958	288.76
793.139	335.87
793.32	272.38
793.5	299
793.681	309.24
793.862	303.1
794.042	296.96
794.223	282.62
794.404	282.62
794.584	247.8
794.765	245.76
794.945	282.62
795.126	329.72
795.306	235.52
795.487	190.46
795.667	272.38
795.848	309.24
796.028	307.2
796.209	237.56
796.389	294.91
796.57	321.53
796.75	268.28
796.93	204.8
797.111	194.56
797.291	266.24
797.471	215.04
797.652	221.18
797.832	233.47
798.012	303.1
798.192	227.32
798.373	219.13
798.553	270.33
798.733	227.32
798.913	206.84
799.093	126.97
799.274	258.04
799.454	221.18
799.634	247.8
799.814	229.37
799.994	274.43
800.174	243.71
800.354	215.04
800.534	233.47
800.714	186.37
800.894	212.99
801.074	268.28
801.254	215.04
801.434	208.89
801.614	223.23
801.794	235.52
801.974	571.38
802.154	237.56
802.334	204.8
802.514	172.03
802.693	155.65
802.873	178.17
803.053	217.08
803.233	106.49
803.413	190.46
803.592	249.85
803.772	194.56
803.952	233.47
804.131	260.09
804.311	188.41
804.491	299
804.67	196.61
804.85	247.8
805.03	225.28
805.209	200.7
805.389	133.12
805.568	165.89
805.748	239.61
805.928	219.13
806.107	217.08
806.287	249.85
806.466	210.94
806.646	210.94
806.825	192.51
807.004	172.03
807.184	221.18
807.363	98.3
807.543	153.6
807.722	192.51
807.901	180.22
808.081	206.84
808.26	221.18
808.439	212.99
808.619	165.89
808.798	147.45
808.977	188.41
809.156	167.93
809.336	157.69
809.515	167.93
809.694	110.59
809.873	96.25
810.052	94.21
810.231	116.73
810.411	139.26
810.59	172.03
810.769	192.51
810.948	266.24
811.127	198.65
811.306	157.69
811.485	176.13
811.664	120.83
811.843	153.6
812.022	151.55
812.201	172.03
812.38	98.3
812.559	126.97
812.737	110.59
812.916	139.26
813.095	169.98
813.274	126.97
813.453	61.44
813.632	79.87
813.811	184.32
813.989	176.13
814.168	118.78
814.347	38.91
814.526	135.17
814.704	118.78
814.883	186.37
815.062	165.89
815.24	153.6
815.419	118.78
815.598	92.16
815.776	133.12
815.955	98.3
816.133	73.73
816.312	118.78
816.49	110.59
816.669	157.69
816.847	137.21
817.026	153.6
817.204	165.89
817.383	61.44
817.561	36.86
817.74	81.92
817.918	153.6
818.097	77.82
818.275	180.22
818.453	235.52
818.632	151.55
818.81	108.54
818.988	204.8
819.167	98.3
819.345	167.93
819.523	122.88
819.701	131.07
819.879	79.87
820.058	55.3
820.236	139.26
820.414	143.36
820.592	196.61
820.77	2.05
820.948	71.68
821.127	114.69
821.305	169.98
821.483	83.97
821.661	120.83
821.839	8.19
822.017	43.01
822.195	116.73
822.373	131.07
822.551	153.6
822.729	104.45
822.907	77.82
823.085	114.69
823.262	16.38
823.44	34.82
823.618	116.73
823.796	34.82
823.974	118.78
824.152	77.82
824.329	65.54
824.507	83.97
824.685	143.36
824.863	126.97
825.04	88.06
825.218	116.73
825.396	114.69
825.574	157.69
825.751	6.14
825.929	139.26
826.107	14.34
826.284	81.92
826.462	131.07
826.639	71.68
826.817	86.01
826.994	65.54
827.172	61.44
827.349	126.97
827.527	124.93
827.704	104.45
827.882	163.84
828.059	69.63
828.237	28.67
828.414	110.59
828.591	28.67
828.769	53.25
828.946	98.3
829.124	94.21
829.301	143.36
829.478	45.06
829.655	16.38
829.833	174.08
830.01	-4.1
830.187	124.93
830.364	57.34
830.542	108.54
830.719	106.49
830.896	43.01
831.073	104.45
831.25	45.06
831.427	40.96
831.604	184.32
831.782	114.69
831.959	88.06
832.136	86.01
832.313	49.15
832.49	57.34
832.667	55.3
832.844	32.77
833.021	139.26
833.198	18.43
833.374	114.69
833.551	120.83
833.728	61.44
833.905	-34.82
834.082	-40.96
834.259	53.25
834.436	57.34
834.612	32.77
834.789	126.97
834.966	79.87
835.143	90.11
835.319	-36.86
835.496	112.64
835.673	71.68
835.85	98.3
836.026	65.54
836.203	133.12
836.38	-20.48
836.556	79.87
836.733	38.91
836.909	51.2
837.086	81.92
837.262	18.43
837.439	96.25
837.616	53.25
837.792	77.82
837.968	20.48
838.145	20.48
838.321	67.58
838.498	-2.05
838.674	77.82
838.851	61.44
839.027	34.82
839.203	92.16
839.38	88.06
839.556	69.63
839.732	122.88
839.909	32.77
840.085	106.49
840.261	63.49
840.437	8.19
840.614	86.01
840.79	51.2
840.966	124.93
841.142	65.54
841.318	88.06
841.494	116.73
841.671	16.38
841.847	59.39
842.023	65.54
842.199	92.16
842.375	61.44
842.551	-8.19
842.727	-2.05
842.903	102.4
843.079	-6.14
843.255	69.63
843.431	55.3
843.607	100.35
843.783	-16.38
843.959	40.96
844.134	47.1
844.31	100.35
844.486	61.44
844.662	43.01
844.838	34.82
845.013	98.3
845.189	155.65
845.365	20.48
845.541	30.72
845.716	43.01
845.892	63.49
846.068	-6.14
846.244	88.06
846.419	20.48
846.595	12.29
846.77	36.86
846.946	79.87
847.122	32.77
847.297	0
847.473	69.63
847.648	67.58
847.824	45.06
847.999	90.11
848.175	45.06
848.35	47.1
848.526	43.01
848.701	10.24
848.876	124.93
849.052	24.58
849.227	26.62
849.403	55.3
849.578	63.49
849.753	8.19
849.929	129.02
850.104	12.29
850.279	57.34
850.454	106.49
850.63	53.25
850.805	8.19
850.98	59.39
851.155	28.67
851.33	18.43
851.505	0
851.681	20.48
851.856	20.48
852.031	77.82
852.206	6.14
852.381	-16.38
852.556	16.38
852.731	90.11
852.906	36.86
853.081	73.73
853.256	61.44
853.431	-40.96
853.606	2.05
853.781	34.82
853.956	38.91
854.131	30.72
854.305	8.19
854.48	36.86
854.655	24.58
854.83	8.19
855.005	34.82
855.18	51.2
855.354	96.25
855.529	49.15
855.704	-18.43
855.879	8.19
856.053	36.86
856.228	0
856.403	28.67
856.577	73.73
856.752	38.91
856.926	-10.24
857.101	-69.63
857.276	40.96
857.45	61.44
857.625	98.3
857.799	106.49
857.974	92.16
858.148	-36.86
858.323	22.53
858.497	-10.24
858.672	16.38
858.846	-40.96
859.02	20.48
859.195	-32.77
859.369	65.54
859.543	14.34
859.718	20.48
859.892	149.5
860.066	51.2
860.241	-2.05
860.415	-8.19
860.589	0
860.763	53.25
860.938	6.14
861.112	30.72
861.286	4.1
861.46	34.82
861.634	-57.34
861.808	-10.24
861.982	-8.19
862.157	4.1
862.331	53.25
862.505	-12.29
862.679	16.38
862.853	26.62
863.027	45.06
863.201	32.77
863.375	-26.62
863.549	-4.1
863.722	34.82
863.896	34.82
864.07	45.06
864.244	45.06
864.418	-4.1
864.592	55.3
864.766	14.34
864.939	8.19
865.113	34.82
865.287	92.16
865.461	32.77
865.634	10.24
865.808	-71.68
865.982	-4.1
866.156	32.77
866.329	-18.43
866.503	8.19
866.676	-2.05
866.85	51.2
867.024	-38.91
867.197	28.67
867.371	24.58
867.544	2.05
867.718	-20.48
867.891	-4.1
868.065	53.25
868.238	-16.38
868.412	18.43
868.585	-63.49
868.759	-36.86
868.932	16.38
869.105	-32.77
869.279	6.14
869.452	28.67
869.625	49.15
869.799	20.48
869.972	-36.86
870.145	-18.43
870.319	100.35
870.492	-20.48
870.665	14.34
870.838	-12.29
871.011	8.19
871.185	32.77
871.358	10.24
871.531	22.53
871.704	28.67
871.877	-40.96
872.05	61.44
872.223	-43.01
872.396	-30.72
872.569	49.15
872.742	49.15
872.915	-10.24
873.088	45.06
873.261	18.43
873.434	71.68
873.607	36.86
873.78	36.86
873.953	30.72
874.126	36.86
874.299	-16.38
874.471	30.72
874.644	49.15
874.817	32.77
874.99	77.82
875.163	-24.58
875.335	-8.19
875.508	24.58
875.681	36.86
875.853	-18.43
876.026	32.77
876.199	30.72
876.371	40.96
876.544	24.58
876.717	-55.3
876.889	22.53
877.062	86.01
877.234	-49.15
877.407	-4.1
877.579	8.19
877.752	34.82
877.924	-20.48
878.097	-55.3
878.269	18.43
878.442	-6.14
878.614	10.24
878.786	53.25
878.959	16.38
879.131	0
879.303	-49.15
879.476	-34.82
879.648	16.38
879.82	-38.91
879.993	57.34
880.165	-22.53
880.337	12.29
880.509	-16.38
880.681	67.58
880.854	16.38
881.026	34.82
881.198	81.92
881.37	16.38
881.542	-8.19
881.714	-12.29
881.886	-4.1
882.058	18.43
882.23	-4.1
882.402	90.11
882.574	65.54
882.746	-6.14
882.918	75.77
883.09	-26.62
883.262	43.01
883.434	-8.19
883.606	8.19
883.778	40.96
883.95	-28.67
884.122	-24.58
884.293	53.25
884.465	20.48
884.637	34.82
884.809	-8.19
884.98	45.06
885.152	67.58
885.324	-47.1
885.496	-12.29
885.667	6.14
885.839	-4.1
886.011	-18.43
886.182	49.15
886.354	-28.67
886.525	-8.19
886.697	-14.34
886.869	-59.39
887.04	12.29
887.212	28.67
887.383	75.77
887.555	124.93
887.726	0
887.897	-73.73
888.069	-2.05
888.24	-75.77
888.412	4.1
888.583	-32.77
888.754	61.44
888.926	-6.14
889.097	53.25
889.268	43.01
889.44	-16.38
889.611	14.34
889.782	6.14
889.953	47.1
890.125	110.59
890.296	-10.24
890.467	96.25
890.638	-8.19
890.809	-18.43
890.98	8.19
891.151	34.82
891.323	-45.06
891.494	28.67
891.665	8.19
891.836	34.82
892.007	-38.91
892.178	-24.58
892.349	43.01
892.52	36.86
892.691	-96.25
892.862	-12.29
893.032	-26.62
893.203	43.01
893.374	-12.29
893.545	-12.29
893.716	-32.77
893.887	-4.1
894.057	-14.34
894.228	34.82
894.399	-40.96
894.57	55.3
894.74	28.67
894.911	-88.06
895.082	-45.06
895.253	-26.62
895.423	-22.53
895.594	10.24
895.764	-24.58
895.935	8.19
896.106	0
896.276	47.1
896.447	-8.19
896.617	4.1
896.788	20.48
896.958	-2.05
897.129	12.29
897.299	-14.34
897.47	-2.05
897.64	28.67
897.81	-20.48
897.981	51.2
898.151	-8.19
898.322	-12.29
898.492	30.72
898.662	30.72
898.832	38.91
899.003	38.91
899.173	49.15
899.343	81.92
899.513	0
