Data from USB4F104151__6__11-04-34-376.txt Node

Date: Wed Mar 12 11:04:34 EDT 2025
User: louis
Spectrometer: USB4F10415
Trigger mode: 4
Integration Time (sec): 2.000000E-2
Scans to average: 1
Electric dark correction enabled: true
Nonlinearity correction enabled: false
Boxcar width: 0
XAxis mode: Wavelengths
Number of Pixels in Spectrum: 3648
>>>>>Begin Spectral Data<<<<<
178.204	-40.45
178.424	-40.45
178.644	-40.45
178.864	-122.37
179.084	-46.59
179.304	0.51
179.524	-9.73
179.744	-13.82
179.964	53.76
180.184	-65.02
180.404	55.81
180.624	20.99
180.844	-3.58
181.064	-77.31
181.283	39.42
181.503	14.85
181.723	-15.87
181.943	49.66
182.163	53.76
182.383	-17.92
182.602	-28.16
182.822	12.8
183.042	-1.54
183.262	37.38
183.482	64
183.701	61.95
183.921	39.42
184.141	57.86
184.361	109.05
184.58	39.42
184.8	20.99
185.02	-28.16
185.239	51.71
185.459	33.28
185.679	127.49
185.898	78.33
186.118	104.96
186.338	20.99
186.557	14.85
186.777	53.76
186.997	-3.58
187.216	-24.06
187.436	16.9
187.655	68.09
187.875	6.66
188.095	57.86
188.314	113.15
188.534	66.05
188.753	27.14
188.973	55.81
189.192	100.86
189.412	27.14
189.631	20.99
189.851	29.18
190.07	119.29
190.29	-13.82
190.509	43.52
190.729	82.43
190.948	113.15
191.168	160.25
191.387	39.42
191.607	49.66
191.826	37.38
192.045	16.9
192.265	20.99
192.484	74.24
192.704	35.33
192.923	-38.4
193.142	82.43
193.362	-38.4
193.581	37.38
193.8	51.71
194.02	43.52
194.239	-7.68
194.458	-15.87
194.678	45.57
194.897	41.47
195.116	72.19
195.335	41.47
195.555	94.72
195.774	37.38
195.993	76.29
196.212	43.52
196.432	-5.63
196.651	53.76
196.87	33.28
197.089	33.28
197.308	111.1
197.528	123.39
197.747	-7.68
197.966	25.09
198.185	86.53
198.404	-1.54
198.623	64
198.842	45.57
199.062	25.09
199.281	137.73
199.5	33.28
199.719	64
199.938	84.48
200.157	92.67
200.376	49.66
200.595	51.71
200.814	31.23
201.033	-26.11
201.252	41.47
201.471	10.75
201.69	59.9
201.909	29.18
202.128	37.38
202.347	25.09
202.566	39.42
202.785	-36.35
203.004	-26.11
203.223	150.01
203.442	74.24
203.661	127.49
203.879	66.05
204.098	82.43
204.317	59.9
204.536	45.57
204.755	6.66
204.974	131.58
205.193	41.47
205.411	98.81
205.63	37.38
205.849	49.66
206.068	94.72
206.287	78.33
206.505	33.28
206.724	84.48
206.943	16.9
207.162	39.42
207.381	74.24
207.599	82.43
207.818	37.38
208.037	55.81
208.255	49.66
208.474	74.24
208.693	-26.11
208.911	74.24
209.13	59.9
209.349	18.94
209.567	35.33
209.786	66.05
210.005	74.24
210.223	88.57
210.442	-28.16
210.661	31.23
210.879	23.04
211.098	43.52
211.316	8.7
211.535	74.24
211.753	20.99
211.972	53.76
212.191	0.51
212.409	119.29
212.628	90.62
212.846	72.19
213.065	64
213.283	31.23
213.502	70.14
213.72	25.09
213.938	39.42
214.157	25.09
214.375	-7.68
214.594	-7.68
214.812	43.52
215.031	61.95
215.249	47.62
215.467	70.14
215.686	133.63
215.904	70.14
216.122	31.23
216.341	96.77
216.559	66.05
216.778	4.61
216.996	98.81
217.214	12.8
217.432	45.57
217.651	14.85
217.869	31.23
218.087	-19.97
218.306	18.94
218.524	49.66
218.742	96.77
218.96	-65.02
219.179	16.9
219.397	-9.73
219.615	90.62
219.833	-54.78
220.051	35.33
220.27	33.28
220.488	-24.06
220.706	20.99
220.924	127.49
221.142	51.71
221.36	82.43
221.578	41.47
221.796	8.7
222.015	111.1
222.233	51.71
222.451	131.58
222.669	35.33
222.887	27.14
223.105	29.18
223.323	27.14
223.541	84.48
223.759	-1.54
223.977	6.66
224.195	61.95
224.413	43.52
224.631	53.76
224.849	90.62
225.067	156.16
225.285	31.23
225.503	16.9
225.721	84.48
225.939	33.28
226.157	39.42
226.375	55.81
226.592	8.7
226.81	27.14
227.028	111.1
227.246	96.77
227.464	-26.11
227.682	49.66
227.9	29.18
228.117	49.66
228.335	6.66
228.553	16.9
228.771	131.58
228.989	2.56
229.206	14.85
229.424	59.9
229.642	96.77
229.86	8.7
230.077	25.09
230.295	41.47
230.513	39.42
230.731	49.66
230.948	31.23
231.166	135.68
231.384	0.51
231.601	-19.97
231.819	129.53
232.037	27.14
232.254	37.38
232.472	70.14
232.689	8.7
232.907	82.43
233.125	23.04
233.342	4.61
233.56	86.53
233.777	-5.63
233.995	47.62
234.213	61.95
234.43	57.86
234.648	57.86
234.865	31.23
235.083	47.62
235.3	2.56
235.518	104.96
235.735	49.66
235.953	43.52
236.17	94.72
236.388	104.96
236.605	70.14
236.822	41.47
237.04	-13.82
237.257	-30.21
237.475	18.94
237.692	45.57
237.909	35.33
238.127	107.01
238.344	131.58
238.562	4.61
238.779	29.18
238.996	47.62
239.214	43.52
239.431	16.9
239.648	39.42
239.865	12.8
240.083	72.19
240.3	-7.68
240.517	41.47
240.735	45.57
240.952	55.81
241.169	20.99
241.386	0.51
241.603	102.91
241.821	-28.16
242.038	107.01
242.255	57.86
242.472	66.05
242.689	107.01
242.907	25.09
243.124	29.18
243.341	-15.87
243.558	10.75
243.775	-30.21
243.992	-58.88
244.209	92.67
244.426	111.1
244.643	12.8
244.86	10.75
245.078	55.81
245.295	74.24
245.512	37.38
245.729	23.04
245.946	115.2
246.163	-7.68
246.38	59.9
246.597	14.85
246.814	41.47
247.031	82.43
247.248	12.8
247.464	55.81
247.681	39.42
247.898	123.39
248.115	47.62
248.332	68.09
248.549	82.43
248.766	25.09
248.983	96.77
249.2	-11.78
249.417	14.85
249.633	18.94
249.85	131.58
250.067	31.23
250.284	78.33
250.501	96.77
250.717	57.86
250.934	-9.73
251.151	109.05
251.368	-50.69
251.585	45.57
251.801	-11.78
252.018	84.48
252.235	109.05
252.451	57.86
252.668	29.18
252.885	53.76
253.102	82.43
253.318	90.62
253.535	119.29
253.752	57.86
253.968	102.91
254.185	33.28
254.401	31.23
254.618	84.48
254.835	78.33
255.051	-17.92
255.268	-7.68
255.484	82.43
255.701	92.67
255.917	43.52
256.134	72.19
256.351	20.99
256.567	20.99
256.784	121.34
257	33.28
257.217	4.61
257.433	-15.87
257.65	16.9
257.866	61.95
258.082	27.14
258.299	14.85
258.515	47.62
258.732	53.76
258.948	61.95
259.165	100.86
259.381	109.05
259.597	57.86
259.814	-32.26
260.03	113.15
260.246	27.14
260.463	-7.68
260.679	84.48
260.895	18.94
261.112	31.23
261.328	100.86
261.544	70.14
261.761	53.76
261.977	125.44
262.193	-15.87
262.409	45.57
262.626	12.8
262.842	102.91
263.058	-17.92
263.274	45.57
263.49	94.72
263.707	59.9
263.923	-42.5
264.139	61.95
264.355	25.09
264.571	102.91
264.787	43.52
265.004	64
265.22	-7.68
265.436	70.14
265.652	57.86
265.868	115.2
266.084	-28.16
266.3	55.81
266.516	-73.21
266.732	82.43
266.948	29.18
267.164	51.71
267.38	-5.63
267.596	14.85
267.812	41.47
268.028	23.04
268.244	33.28
268.46	82.43
268.676	-48.64
268.892	16.9
269.108	64
269.324	10.75
269.54	25.09
269.756	49.66
269.972	57.86
270.188	104.96
270.403	70.14
270.619	111.1
270.835	119.29
271.051	80.38
271.267	23.04
271.483	39.42
271.698	90.62
271.914	-3.58
272.13	25.09
272.346	80.38
272.562	66.05
272.777	61.95
272.993	86.53
273.209	31.23
273.425	25.09
273.64	90.62
273.856	37.38
274.072	49.66
274.287	82.43
274.503	61.95
274.719	14.85
274.934	59.9
275.15	33.28
275.366	113.15
275.581	51.71
275.797	57.86
276.012	10.75
276.228	74.24
276.444	35.33
276.659	129.53
276.875	0.51
277.09	16.9
277.306	53.76
277.521	23.04
277.737	57.86
277.952	43.52
278.168	49.66
278.383	96.77
278.599	57.86
278.814	51.71
279.03	-11.78
279.245	168.45
279.461	59.9
279.676	-7.68
279.892	4.61
280.107	27.14
280.322	-13.82
280.538	37.38
280.753	8.7
280.969	98.81
281.184	41.47
281.399	16.9
281.615	57.86
281.83	70.14
282.045	64
282.26	23.04
282.476	121.34
282.691	68.09
282.906	84.48
283.122	66.05
283.337	49.66
283.552	90.62
283.767	0.51
283.983	74.24
284.198	43.52
284.413	10.75
284.628	29.18
284.843	39.42
285.058	123.39
285.274	72.19
285.489	14.85
285.704	37.38
285.919	90.62
286.134	39.42
286.349	68.09
286.564	84.48
286.779	70.14
286.995	57.86
287.21	45.57
287.425	55.81
287.64	39.42
287.855	45.57
288.07	49.66
288.285	72.19
288.5	49.66
288.715	111.1
288.93	119.29
289.145	10.75
289.36	88.57
289.575	104.96
289.79	0.51
290.004	37.38
290.219	35.33
290.434	133.63
290.649	123.39
290.864	80.38
291.079	29.18
291.294	51.71
291.509	47.62
291.724	109.05
291.938	66.05
292.153	33.28
292.368	68.09
292.583	6.66
292.798	57.86
293.012	45.57
293.227	72.19
293.442	-19.97
293.657	113.15
293.871	111.1
294.086	84.48
294.301	84.48
294.516	31.23
294.73	109.05
294.945	66.05
295.16	68.09
295.374	31.23
295.589	88.57
295.804	117.25
296.018	145.92
296.233	29.18
296.447	45.57
296.662	41.47
296.877	115.2
297.091	82.43
297.306	104.96
297.52	72.19
297.735	-7.68
297.949	100.86
298.164	76.29
298.378	31.23
298.593	111.1
298.807	4.61
299.022	64
299.236	82.43
299.451	-1.54
299.665	41.47
299.88	86.53
300.094	33.28
300.309	45.57
300.523	76.29
300.737	51.71
300.952	4.61
301.166	123.39
301.381	45.57
301.595	-15.87
301.809	2.56
302.024	57.86
302.238	-26.11
302.452	59.9
302.667	74.24
302.881	57.86
303.095	45.57
303.309	41.47
303.524	94.72
303.738	-22.02
303.952	43.52
304.166	20.99
304.381	64
304.595	0.51
304.809	31.23
305.023	78.33
305.237	49.66
305.452	82.43
305.666	41.47
305.88	68.09
306.094	57.86
306.308	74.24
306.522	96.77
306.736	37.38
306.95	45.57
307.164	29.18
307.379	41.47
307.593	98.81
307.807	43.52
308.021	74.24
308.235	104.96
308.449	90.62
308.663	35.33
308.877	66.05
309.091	78.33
309.305	92.67
309.519	66.05
309.733	100.86
309.947	18.94
310.161	47.62
310.374	37.38
310.588	131.58
310.802	51.71
311.016	55.81
311.23	33.28
311.444	-54.78
311.658	8.7
311.872	10.75
312.085	100.86
312.299	94.72
312.513	86.53
312.727	96.77
312.941	25.09
313.154	90.62
313.368	59.9
313.582	107.01
313.796	33.28
314.009	16.9
314.223	78.33
314.437	78.33
314.651	94.72
314.864	84.48
315.078	41.47
315.292	29.18
315.505	53.76
315.719	-7.68
315.933	61.95
316.146	43.52
316.36	61.95
316.573	45.57
316.787	45.57
317.001	68.09
317.214	86.53
317.428	94.72
317.641	72.19
317.855	51.71
318.068	64
318.282	-28.16
318.495	119.29
318.709	27.14
318.922	37.38
319.136	109.05
319.349	84.48
319.563	18.94
319.776	43.52
319.99	49.66
320.203	94.72
320.417	31.23
320.63	20.99
320.843	57.86
321.057	-15.87
321.27	78.33
321.483	-11.78
321.697	115.2
321.91	80.38
322.124	-5.63
322.337	76.29
322.55	-15.87
322.763	-24.06
322.977	29.18
323.19	82.43
323.403	96.77
323.617	90.62
323.83	33.28
324.043	37.38
324.256	29.18
324.469	18.94
324.683	127.49
324.896	90.62
325.109	29.18
325.322	-11.78
325.535	64
325.748	117.25
325.962	125.44
326.175	66.05
326.388	66.05
326.601	72.19
326.814	96.77
327.027	-17.92
327.24	123.39
327.453	14.85
327.666	25.09
327.879	129.53
328.092	98.81
328.305	107.01
328.518	76.29
328.731	-48.64
328.944	49.66
329.157	64
329.37	27.14
329.583	137.73
329.796	86.53
330.009	78.33
330.222	64
330.435	70.14
330.648	57.86
330.861	35.33
331.073	90.62
331.286	55.81
331.499	66.05
331.712	104.96
331.925	16.9
332.138	102.91
332.35	104.96
332.563	55.81
332.776	107.01
332.989	64
333.202	102.91
333.414	49.66
333.627	72.19
333.84	12.8
334.053	123.39
334.265	57.86
334.478	12.8
334.691	18.94
334.903	121.34
335.116	66.05
335.329	43.52
335.541	27.14
335.754	35.33
335.966	49.66
336.179	33.28
336.392	16.9
336.604	33.28
336.817	115.2
337.029	84.48
337.242	98.81
337.454	66.05
337.667	-5.63
337.88	64
338.092	-3.58
338.305	49.66
338.517	-9.73
338.729	100.86
338.942	90.62
339.154	27.14
339.367	16.9
339.579	70.14
339.792	68.09
340.004	90.62
340.217	14.85
340.429	125.44
340.641	-38.4
340.854	49.66
341.066	59.9
341.278	96.77
341.491	88.57
341.703	107.01
341.915	29.18
342.128	51.71
342.34	117.25
342.552	96.77
342.764	37.38
342.977	53.76
343.189	107.01
343.401	25.09
343.613	55.81
343.826	70.14
344.038	33.28
344.25	74.24
344.462	49.66
344.674	133.63
344.886	33.28
345.099	100.86
345.311	61.95
345.523	51.71
345.735	-15.87
345.947	82.43
346.159	-1.54
346.371	86.53
346.583	92.67
346.795	139.77
347.007	49.66
347.219	145.92
347.431	82.43
347.643	74.24
347.855	-38.4
348.067	133.63
348.279	8.7
348.491	109.05
348.703	6.66
348.915	53.76
349.127	37.38
349.339	88.57
349.551	55.81
349.763	100.86
349.975	29.18
350.187	78.33
350.399	102.91
350.61	82.43
350.822	47.62
351.034	94.72
351.246	86.53
351.458	31.23
351.669	127.49
351.881	88.57
352.093	88.57
352.305	33.28
352.517	55.81
352.728	47.62
352.94	29.18
353.152	113.15
353.363	23.04
353.575	98.81
353.787	82.43
353.999	45.57
354.21	104.96
354.422	37.38
354.633	61.95
354.845	78.33
355.057	39.42
355.268	145.92
355.48	123.39
355.692	137.73
355.903	57.86
356.115	104.96
356.326	16.9
356.538	39.42
356.749	127.49
356.961	53.76
357.172	12.8
357.384	27.14
357.595	141.82
357.807	43.52
358.018	84.48
358.23	76.29
358.441	66.05
358.653	31.23
358.864	31.23
359.075	51.71
359.287	61.95
359.498	127.49
359.709	94.72
359.921	70.14
360.132	66.05
360.344	18.94
360.555	82.43
360.766	41.47
360.977	14.85
361.189	131.58
361.4	37.38
361.611	94.72
361.823	125.44
362.034	86.53
362.245	33.28
362.456	92.67
362.667	51.71
362.879	66.05
363.09	88.57
363.301	37.38
363.512	41.47
363.723	66.05
363.935	33.28
364.146	127.49
364.357	98.81
364.568	35.33
364.779	59.9
364.99	100.86
365.201	82.43
365.412	6.66
365.623	66.05
365.834	35.33
366.045	12.8
366.256	121.34
366.467	117.25
366.678	84.48
366.889	117.25
367.1	57.86
367.311	90.62
367.522	78.33
367.733	41.47
367.944	121.34
368.155	113.15
368.366	111.1
368.577	86.53
368.788	57.86
368.999	135.68
369.209	137.73
369.42	160.25
369.631	102.91
369.842	72.19
370.053	107.01
370.264	45.57
370.474	64
370.685	23.04
370.896	119.29
371.107	-15.87
371.317	82.43
371.528	66.05
371.739	139.77
371.95	12.8
372.16	80.38
372.371	59.9
372.582	145.92
372.792	64
373.003	41.47
373.214	115.2
373.424	53.76
373.635	57.86
373.846	92.67
374.056	27.14
374.267	147.97
374.477	72.19
374.688	29.18
374.898	57.86
375.109	47.62
375.319	84.48
375.53	16.9
375.74	59.9
375.951	12.8
376.161	45.57
376.372	92.67
376.582	70.14
376.793	92.67
377.003	55.81
377.214	139.77
377.424	98.81
377.635	70.14
377.845	16.9
378.055	92.67
378.266	88.57
378.476	100.86
378.686	92.67
378.897	104.96
379.107	66.05
379.317	45.57
379.528	78.33
379.738	88.57
379.948	47.62
380.158	98.81
380.369	188.93
380.579	123.39
380.789	115.2
380.999	23.04
381.21	61.95
381.42	102.91
381.63	80.38
381.84	152.06
382.05	70.14
382.261	129.53
382.471	117.25
382.681	111.1
382.891	139.77
383.101	88.57
383.311	102.91
383.521	86.53
383.731	59.9
383.941	51.71
384.151	61.95
384.361	70.14
384.571	43.52
384.781	84.48
384.991	115.2
385.201	127.49
385.411	107.01
385.621	72.19
385.831	90.62
386.041	57.86
386.251	49.66
386.461	115.2
386.671	107.01
386.881	70.14
387.091	61.95
387.301	86.53
387.511	49.66
387.72	68.09
387.93	107.01
388.14	115.2
388.35	70.14
388.56	164.35
388.769	16.9
388.979	16.9
389.189	111.1
389.399	121.34
389.609	74.24
389.818	127.49
390.028	84.48
390.238	107.01
390.447	188.93
390.657	135.68
390.867	45.57
391.076	102.91
391.286	141.82
391.496	51.71
391.705	29.18
391.915	86.53
392.125	123.39
392.334	129.53
392.544	98.81
392.753	61.95
392.963	8.7
393.172	78.33
393.382	64
393.591	123.39
393.801	98.81
394.01	125.44
394.22	137.73
394.429	94.72
394.639	111.1
394.848	86.53
395.058	113.15
395.267	137.73
395.477	129.53
395.686	147.97
395.895	43.52
396.105	119.29
396.314	115.2
396.524	115.2
396.733	53.76
396.942	53.76
397.152	221.69
397.361	162.3
397.57	104.96
397.78	141.82
397.989	152.06
398.198	162.3
398.407	150.01
398.617	131.58
398.826	66.05
399.035	111.1
399.244	154.11
399.453	195.07
399.663	117.25
399.872	131.58
400.081	100.86
400.29	168.45
400.499	156.16
400.708	117.25
400.917	84.48
401.127	133.63
401.336	74.24
401.545	236.03
401.754	213.5
401.963	242.17
402.172	168.45
402.381	154.11
402.59	172.54
402.799	137.73
403.008	176.64
403.217	119.29
403.426	184.83
403.635	137.73
403.844	131.58
404.053	147.97
404.262	180.73
404.471	236.03
404.68	156.16
404.888	147.97
405.097	145.92
405.306	174.59
405.515	197.12
405.724	211.45
405.933	154.11
406.142	244.22
406.35	213.5
406.559	195.07
406.768	221.69
406.977	305.66
407.185	213.5
407.394	229.88
407.603	209.4
407.812	276.99
408.02	242.17
408.229	240.12
408.438	299.52
408.646	320
408.855	377.34
409.064	215.55
409.272	279.04
409.481	283.13
409.69	295.42
409.898	311.8
410.107	287.23
410.315	444.92
410.524	395.77
410.733	334.33
410.941	401.91
411.15	403.96
411.358	514.55
411.567	500.22
411.775	455.16
411.984	475.64
412.192	518.65
412.401	510.46
412.609	508.41
412.818	555.51
413.026	580.09
413.234	528.89
413.443	514.55
413.651	657.91
413.86	643.57
414.068	721.4
414.276	700.92
414.485	670.2
414.693	772.6
414.901	795.12
415.11	819.7
415.318	733.68
415.526	852.47
415.734	899.57
415.943	893.43
416.151	967.15
416.359	946.67
416.567	977.39
416.776	1055.22
416.984	1051.12
417.192	1200.62
417.4	1071.6
417.608	1116.65
417.817	1235.44
418.025	1223.15
418.233	1358.32
418.441	1343.98
418.649	1391.08
418.857	1491.43
419.065	1421.8
419.273	1436.14
419.481	1565.16
419.689	1636.84
419.897	1757.67
420.105	1737.19
420.313	1671.65
420.521	1819.11
420.729	1868.26
420.937	2019.81
421.145	1923.55
421.353	2161.12
421.561	2261.47
421.769	2333.15
421.977	2390.49
422.185	2320.86
422.393	2464.22
422.601	2605.53
422.809	2636.25
423.017	2634.2
423.224	2752.98
423.432	2978.26
423.64	3021.27
423.848	3138
424.056	3131.86
424.263	3183.06
424.471	3420.62
424.679	3391.95
424.887	3469.77
425.094	3703.24
425.302	3690.95
425.51	3922.37
425.718	3963.33
425.925	3965.38
426.133	4045.25
426.341	4329.92
426.548	4542.91
426.756	4553.15
426.964	4460.99
427.171	4958.64
427.379	5011.89
427.586	5134.77
427.794	5147.06
428.001	5394.86
428.209	5806.5
428.417	5579.18
428.624	6046.12
428.832	5980.58
429.039	5845.41
429.247	6025.64
429.454	6508.96
429.662	6953.37
429.869	6515.1
430.076	6984.09
430.284	6971.8
430.491	7123.35
430.699	7473.55
430.906	7457.17
431.114	7651.72
431.321	8008.07
431.528	8036.74
431.736	8513.92
431.943	8991.09
432.15	8675.71
432.358	8982.9
432.565	9314.67
432.772	9507.18
432.979	9763.18
433.187	10170.72
433.394	10189.16
433.601	10735.96
433.808	10678.62
434.016	10479.97
434.223	11198.81
434.43	11661.65
434.637	11458.9
434.844	12218.69
435.052	12456.26
435.259	12417.35
435.466	12570.94
435.673	12345.67
435.88	13332.79
436.087	13844.78
436.294	13832.49
436.501	13472.05
436.708	13850.92
436.915	14403.88
437.122	15184.15
437.329	14801.18
437.537	15540.5
437.743	16023.82
437.95	15636.75
438.157	16421.13
438.364	17008.89
438.571	16967.93
438.778	16808.19
438.985	18794.72
439.192	17852.66
439.399	18616.55
439.606	18204.91
439.813	18960.61
440.02	20209.87
440.227	19929.3
440.433	19957.97
440.64	20562.12
440.847	20261.07
441.054	20605.13
441.261	22157.49
441.467	21719.22
441.674	22290.6
441.881	23158.94
442.088	22968.48
442.294	22835.36
442.501	23459.99
442.708	24375.44
442.914	24940.68
443.121	26128.5
443.328	25331.84
443.534	27093.09
443.741	26243.18
443.948	25731.19
444.154	28108.88
444.361	27469.92
444.568	27990.1
444.774	28164.18
444.981	28307.54
445.187	29018.18
445.394	30275.63
445.6	29843.51
445.807	32499.73
446.013	30842.92
446.22	31954.97
446.426	33085.45
446.633	33484.8
446.839	34340.85
447.046	33011.72
447.252	34969.58
447.459	35022.83
447.665	35014.63
447.871	36179.93
448.078	37738.43
448.284	36179.93
448.491	36925.39
448.697	38266.81
448.903	39290.79
449.11	38686.64
449.316	38610.87
449.522	38737.84
449.728	39853.98
449.935	40578.96
450.141	39847.84
450.347	41070.48
450.553	39360.42
450.76	39905.18
450.966	41068.43
451.172	41267.08
451.378	41973.63
451.584	41168.78
451.791	41910.14
451.997	41742.21
452.203	42848.11
452.409	42071.93
452.615	42166.14
452.821	40540.05
453.027	39921.57
453.233	42043.26
453.44	40408.98
453.646	40925.07
453.852	40832.91
454.058	41480.07
454.264	40146.84
454.47	40998.8
454.676	39520.16
454.882	41043.85
455.088	37455.81
455.294	38037.44
455.5	38442.93
455.705	38766.51
455.911	36956.11
456.117	37142.47
456.323	36278.23
456.529	34136.06
456.735	35424.23
456.941	34498.55
457.147	33900.54
457.352	32880.65
457.558	32217.11
457.764	32778.25
457.97	31578.14
458.176	31004.71
458.381	31010.85
458.587	29431.87
458.793	29270.08
458.999	27947.09
459.204	29839.42
459.41	29317.18
459.616	27271.26
459.821	26986.6
460.027	27029.6
460.233	26124.4
460.438	24957.06
460.644	25690.23
460.85	24481.93
461.055	23802
461.261	23867.54
461.466	22306.99
461.672	21631.16
461.878	23201.95
462.083	21680.31
462.289	21211.32
462.494	21020.86
462.7	19910.86
462.905	19294.43
463.111	20226.25
463.316	20242.64
463.522	19781.84
463.727	19777.75
463.932	19699.92
464.138	19681.49
464.343	19824.85
464.549	19120.35
464.754	19810.51
464.959	19384.54
465.165	19878.1
465.37	18575.59
465.575	18088.17
465.781	18888.93
465.986	19007.71
466.191	18196.71
466.397	17805.55
466.602	17090.81
466.807	17936.62
467.012	17885.42
467.218	17680.63
467.423	17674.48
467.628	17785.07
467.833	18143.47
468.038	17441.01
468.244	17174.78
468.449	17717.49
468.654	17256.7
468.859	17273.08
469.064	17191.16
469.269	16533.76
469.474	16494.85
469.679	16802.05
469.885	16087.31
470.09	16681.22
470.295	16130.31
470.5	16128.27
470.705	16081.16
470.91	15837.45
471.115	15458.58
471.32	15989
471.525	15563.03
471.73	15124.76
471.935	15335.7
472.139	14635.3
472.344	14659.87
472.549	14831.9
472.754	14674.21
472.959	14237.99
473.164	13795.63
473.369	13742.38
473.574	14225.7
473.778	14147.88
473.983	13930.8
474.188	13949.23
474.393	13224.25
474.598	13408.56
474.802	13240.63
475.007	13027.64
475.212	13218.1
475.417	12753.21
475.621	12788.03
475.826	12630.34
476.031	12364.1
476.235	12124.49
476.44	12630.34
476.645	12079.43
476.849	12267.84
477.054	11921.74
477.259	11862.35
477.463	11610.45
477.668	11682.13
477.872	11686.22
478.077	11438.42
478.282	11118.93
478.486	11141.46
478.691	11186.52
478.895	11026.78
479.1	11186.52
479.304	10817.88
479.509	10535.26
479.713	10844.51
479.918	10686.81
480.122	10518.88
480.326	10441.06
480.531	10629.47
480.735	10563.93
480.94	10322.27
481.144	10858.84
481.348	10322.27
481.553	10463.58
481.757	10209.64
481.961	10367.33
482.166	10348.9
482.37	10414.43
482.574	10285.41
482.778	10234.21
482.983	10385.76
483.187	10363.23
483.391	10410.34
483.595	10080.61
483.8	10068.33
484.004	10252.64
484.208	10332.51
484.412	10117.48
484.616	10168.68
484.821	10373.47
485.025	10021.22
485.229	10289.51
485.433	10185.06
485.637	10076.52
485.841	10140.01
486.045	10137.96
486.249	10176.87
486.453	10183.01
486.657	10228.07
486.861	10240.36
487.065	10068.33
487.269	10168.68
487.473	10119.53
487.677	10297.7
487.881	10346.85
488.085	10203.49
488.289	10387.81
488.493	10064.23
488.697	10348.9
488.901	10174.82
489.105	10219.88
489.309	10332.51
489.512	10049.89
489.716	10580.32
489.92	10228.07
490.124	10281.32
490.328	10664.29
490.531	10389.86
490.735	10396
490.939	10475.87
491.143	10287.46
491.346	10492.26
491.55	10664.29
491.754	10586.46
491.958	10533.22
492.161	10611.04
492.365	10748.25
492.569	10735.96
492.772	10656.09
492.976	10965.34
493.18	10959.19
493.383	10955.1
493.587	10905.95
493.79	11286.87
493.994	11168.09
494.197	11161.94
494.401	11477.33
494.605	11526.48
494.808	11522.38
495.012	11458.9
495.215	11725.13
495.419	11970.89
495.622	11692.37
495.825	12020.04
496.029	11854.16
496.232	12230.98
496.436	12196.17
496.639	12403.01
496.843	12681.53
497.046	12710.21
497.249	12765.5
497.453	13001.02
497.656	12984.63
497.859	13060.41
498.063	13023.55
498.266	13275.45
498.469	13259.06
498.673	13318.45
498.876	13629.74
499.079	13877.55
499.282	13793.58
499.485	14133.54
499.689	14270.76
499.892	14405.92
500.095	14473.51
500.298	14754.08
500.501	14614.82
500.705	15108.38
500.908	15391
501.111	15591.7
501.314	15370.52
501.517	15587.6
501.72	16021.77
501.923	15849.74
502.126	16083.21
502.329	16443.65
502.532	16677.12
502.735	16627.97
502.938	17078.52
503.141	17117.43
503.344	17586.42
503.547	17410.29
503.75	17625.33
503.953	17899.76
504.156	17785.07
504.359	18129.13
504.562	18311.4
504.765	18938.08
504.968	19093.72
505.17	18983.13
505.373	19058.91
505.576	19388.63
505.779	19794.13
505.982	19577.05
506.185	20156.62
506.387	20107.47
506.59	20498.63
506.793	20887.75
506.996	20641.99
507.198	21280.96
507.401	20957.38
507.604	21516.47
507.807	21889.2
508.009	21973.17
508.212	22378.67
508.415	22347.95
508.617	22878.37
508.82	22593.7
509.022	22599.85
509.225	23265.44
509.428	23724.18
509.63	23928.98
509.833	24105.1
510.035	24283.28
510.238	24287.37
510.44	24696.97
510.643	25114.75
510.845	25077.89
511.048	25217.15
511.25	25358.46
511.453	25643.13
511.655	26988.64
511.858	26222.7
512.06	26486.89
512.262	26914.92
512.465	27152.48
512.667	27291.74
512.87	27480.16
513.072	27920.47
513.274	28104.79
513.477	28418.13
513.679	28426.32
513.881	28969.03
514.084	29321.28
514.286	29429.82
514.488	29603.9
514.69	30402.61
514.893	30404.66
515.095	30629.93
515.297	31082.53
515.499	31180.84
515.701	31696.92
515.904	31897.63
516.106	32104.47
516.308	32380.95
516.51	32802.83
516.712	32671.76
516.914	33017.86
517.116	33449.99
517.318	33622.01
517.52	33896.44
517.722	34084.86
517.925	34336.76
518.127	35262.44
518.329	35026.92
518.531	35096.55
518.733	35897.31
518.935	35803.1
519.136	35997.66
519.338	36919.24
519.54	36720.59
519.742	37214.15
519.944	37160.9
520.146	38250.42
520.348	38350.77
520.55	38168.51
520.752	38590.39
520.954	39131.05
521.155	38999.98
521.357	39366.57
521.559	39835.55
521.761	40249.24
521.963	40236.95
522.164	40228.76
522.366	40654.74
522.568	40984.46
522.77	41389.96
522.971	42383.23
523.173	41584.52
523.375	41822.08
523.576	42502.01
523.778	42209.15
523.98	43079.53
524.181	42805.11
524.383	43384.68
524.584	43702.12
524.786	43571.05
524.988	43376.49
525.189	43870.05
525.391	44414.81
525.592	44779.35
525.794	45217.61
525.995	45104.98
526.197	45066.06
526.398	45377.36
526.6	45592.39
526.801	45518.67
527.003	46022.47
527.204	45901.64
527.406	46413.63
527.607	46329.66
527.808	46851.89
528.01	46233.41
528.211	46722.87
528.412	47146.8
528.614	47101.75
528.815	47089.46
529.016	47634.22
529.218	47288.11
529.419	47736.62
529.62	47640.36
529.822	47552.3
530.023	47802.15
530.224	48035.62
530.425	47486.76
530.626	47476.52
530.828	47845.16
531.029	48553.76
531.23	47841.06
531.431	48260.9
531.632	48426.78
531.833	48654.11
532.035	48250.66
532.236	48514.84
532.437	49182.48
532.638	48469.79
532.839	48965.4
533.04	48762.65
533.241	48604.95
533.442	49067.8
533.643	48752.41
533.844	48922.39
534.045	48879.38
534.246	48545.56
534.447	49082.13
534.648	48949.01
534.849	49006.36
535.05	48895.77
535.251	49344.27
535.451	48654.11
535.652	49288.98
535.853	49014.55
536.054	49248.02
536.255	49620.75
536.456	48836.37
536.657	49559.31
536.857	48992.02
537.058	49045.27
537.259	49432.33
537.46	49760.01
537.66	49286.93
537.861	49370.89
538.062	48813.85
538.263	49309.46
538.463	49045.27
538.664	48975.64
538.865	49209.11
539.065	48844.57
539.266	48367.39
539.466	49538.83
539.667	48738.07
539.868	49551.12
540.068	49065.75
540.269	49364.75
540.469	48936.73
540.67	48666.39
540.87	49520.4
541.071	48936.73
541.271	49153.81
541.472	49022.74
541.672	48506.65
541.873	48740.12
542.073	48580.38
542.274	49196.82
542.474	48840.47
542.675	48568.09
542.875	49155.86
543.075	49010.45
543.276	48232.22
543.476	49219.34
543.676	48781.08
543.877	48938.77
544.077	49065.75
544.277	48584.47
544.478	48516.89
544.678	49221.39
544.878	48754.46
545.078	49088.27
545.279	48334.62
545.479	48330.53
545.679	48592.67
545.879	48201.5
546.079	48553.76
546.28	48887.57
546.48	48629.53
546.68	48760.6
546.88	48680.73
547.08	48428.83
547.28	48514.84
547.48	48574.23
547.68	48584.47
547.88	48303.9
548.081	48502.56
548.281	48457.5
548.481	48045.86
548.681	48584.47
548.881	48078.63
549.081	48377.63
549.28	47935.27
549.48	48461.6
549.68	48434.97
549.88	48803.61
550.08	48572.19
550.28	48580.38
550.48	48260.9
550.68	48129.83
550.88	48111.39
551.08	48314.14
551.279	48170.78
551.479	47898.41
551.679	48453.4
551.879	48314.14
552.079	48117.54
552.278	48187.17
552.478	48009
552.678	48170.78
552.878	48299.81
553.077	47968.04
553.277	47675.18
553.477	48176.93
553.676	47851.3
553.876	47720.23
554.076	47832.87
554.275	47843.11
554.475	47173.42
554.674	47599.4
554.874	47816.49
555.074	47345.45
555.273	47843.11
555.473	47554.35
555.672	47007.54
555.872	47492.91
556.071	47490.86
556.271	47617.83
556.47	47019.83
556.67	46866.23
556.869	46972.72
557.068	47396.65
557.268	47003.44
557.467	46853.94
557.667	47052.59
557.866	46876.47
558.065	46608.18
558.265	46808.89
558.464	46421.82
558.663	46780.21
558.863	46184.26
559.062	47241.01
559.261	46483.26
559.461	46923.57
559.66	45832
559.859	46315.33
560.058	46049.09
560.258	46106.43
560.457	45672.26
560.656	46401.34
560.855	45756.23
561.054	46139.2
561.253	45414.22
561.453	46128.96
561.652	45756.23
561.851	45602.63
562.05	45455.18
562.249	45029.2
562.448	45668.17
562.647	45293.39
562.846	45076.3
563.045	45123.41
563.244	44607.32
563.443	45059.92
563.642	44943.19
563.841	44488.54
564.04	44674.9
564.239	44922.71
564.438	44253.02
564.637	44427.1
564.836	44410.71
565.035	43890.53
565.234	44273.5
565.432	43763.56
565.631	43825
565.83	43992.93
566.029	44074.85
566.228	43554.66
566.427	43609.96
566.625	43503.46
566.824	42835.83
567.023	43427.69
567.222	42809.2
567.42	43380.59
567.619	43280.24
567.818	42891.12
568.016	42557.3
568.215	42878.83
568.414	43026.29
568.612	43198.32
568.811	42317.69
569.01	42553.21
569.208	41355.14
569.407	42243.96
569.605	41889.66
569.804	42112.89
570.002	41332.62
570.201	41918.34
570.4	41607.05
570.598	40912.78
570.797	40804.24
570.995	41164.68
571.193	40785.81
571.392	41035.66
571.59	40359.83
571.789	40839.06
571.987	40667.03
572.186	40265.63
572.384	40570.77
572.582	40679.32
572.781	40232.86
572.979	39997.34
573.177	40279.96
573.376	40501.14
573.574	39901.09
573.772	39776.16
573.971	39163.82
574.169	39219.11
574.367	39172.01
574.565	39708.58
574.763	38883.25
574.962	39301.03
575.16	38473.65
575.358	38670.26
575.556	38424.5
575.754	39008.17
575.952	38324.15
576.151	38856.62
576.349	38139.83
576.547	38313.91
576.745	38158.27
576.943	38369.21
577.141	37849.02
577.339	38045.63
577.537	37746.62
577.735	37810.11
577.933	37363.65
578.131	37621.7
578.329	37193.67
578.527	36810.7
578.725	37328.84
578.923	37197.77
579.121	36933.58
579.319	36685.78
579.516	36937.68
579.714	36714.45
579.912	36388.82
580.11	36341.72
580.308	36456.4
580.506	35907.55
580.704	35710.94
580.901	35993.56
581.099	36163.54
581.297	35244.01
581.495	35665.89
581.692	36100.06
581.89	35606.5
582.088	35520.48
582.285	35436.52
582.483	35653.6
582.681	35373.03
582.878	35176.42
583.076	34877.42
583.274	35215.33
583.471	34445.3
583.669	34445.3
583.866	34596.85
584.064	34918.38
584.262	33980.41
584.459	34721.77
584.657	34443.25
584.854	34385.91
585.052	33759.23
585.249	33787.9
585.447	34220.02
585.644	33699.84
585.841	34043.9
586.039	34015.22
586.236	33339.4
586.434	33327.11
586.631	33292.29
586.828	33310.72
587.026	33431.55
587.223	33028.1
587.42	32835.59
587.618	32962.57
587.815	32491.54
588.012	32260.12
588.21	32333.84
588.407	32528.4
588.604	32337.94
588.801	32002.07
588.999	32239.64
589.196	32288.79
589.393	32256.02
589.59	31795.23
589.787	31713.31
589.984	31502.37
590.182	31301.67
590.379	31948.82
590.576	30967.85
590.773	31424.54
590.97	31082.53
591.167	31488.03
591.364	30869.54
591.561	31012.9
591.758	30830.63
591.955	30830.63
592.152	30828.59
592.349	30619.69
592.546	30462
592.743	30502.96
592.94	30038.07
593.137	30320.69
593.334	30464.05
593.531	30150.71
593.727	30326.83
593.924	29859.9
594.121	29691.96
594.318	30072.89
594.515	29489.21
594.712	29648.96
594.908	29321.28
595.105	29734.97
595.302	29356.1
595.499	29206.59
595.696	29245.51
595.892	28964.93
596.089	28862.54
596.286	29120.58
596.482	29093.96
596.679	28465.23
596.876	28964.93
597.072	28708.94
597.269	28530.76
597.466	28360.78
597.662	28223.57
597.859	28321.87
598.055	28031.06
598.252	27916.37
598.448	28346.45
598.645	27433.05
598.841	27570.27
599.038	27740.25
599.234	27789.4
599.431	27373.66
599.627	27340.89
599.824	27668.57
600.02	27048.04
600.217	27277.41
600.413	27060.32
600.609	26937.44
600.806	27019.36
601.002	26865.77
601.198	26706.02
601.395	26642.54
601.591	26216.56
601.787	26624.11
601.984	26294.38
602.18	26859.62
602.376	26153.07
602.572	26183.79
602.769	26105.97
602.965	25694.33
603.161	26181.74
603.357	25774.2
603.553	25557.11
603.75	25792.63
603.946	25544.83
604.142	25821.3
604.338	25251.97
604.534	25534.59
604.73	25116.8
604.926	25014.4
605.122	25303.17
605.318	24955.01
605.514	25030.79
605.71	24846.47
605.906	24879.24
606.102	24787.08
606.298	24670.34
606.494	25153.66
606.69	24811.65
606.886	24496.27
607.082	24449.16
607.278	24486.03
607.474	24025.23
607.67	24336.52
607.866	23791.76
608.062	24463.5
608.257	24178.83
608.453	23974.03
608.649	24156.3
608.845	24006.8
609.041	23765.14
609.236	23933.07
609.432	23640.22
609.628	23971.99
609.824	23742.61
610.019	23791.76
610.215	23357.6
610.411	23498.91
610.606	23255.2
610.802	23595.16
610.998	23265.44
611.193	23599.26
611.389	22980.77
611.584	23406.75
611.78	22939.81
611.976	22960.29
612.171	23335.07
612.367	22685.86
612.562	22929.57
612.758	22665.38
612.953	22614.18
613.149	22864.04
613.344	22421.67
613.539	23064.74
613.735	22616.23
613.93	22507.69
614.126	22286.51
614.321	22747.3
614.517	22335.66
614.712	22202.54
614.907	22411.43
615.103	22216.88
615.298	22139.05
615.493	22313.13
615.688	21897.39
615.884	22579.37
616.079	21762.23
616.274	22214.83
616.47	21682.36
616.665	21772.47
616.86	21784.76
617.055	22003.89
617.25	21534.9
617.445	21788.85
617.641	21655.73
617.836	21467.32
618.031	21252.28
618.226	21686.45
618.421	21500.09
618.616	21313.72
618.811	21106.88
619.006	21682.36
619.201	20764.87
619.396	21196.99
619.591	20719.81
619.786	21045.44
619.981	20490.44
620.176	20807.87
620.371	20664.52
620.566	20836.55
620.761	20242.64
620.956	20472.01
621.151	20263.11
621.346	20449.48
621.541	19994.83
621.735	20066.51
621.93	19771.6
622.125	19927.25
622.32	19736.79
622.515	19935.44
622.709	19323.1
622.904	19335.38
623.099	19038.43
623.294	19300.57
623.488	19030.24
623.683	19189.98
623.878	19020
624.072	18794.72
624.267	18817.25
624.462	18608.36
624.656	18270.44
624.851	18649.32
625.046	18366.7
625.24	18276.59
625.435	17922.29
625.629	17893.61
625.824	18069.74
626.018	17721.59
626.213	17725.68
626.407	17688.82
626.602	17223.93
626.796	17766.64
626.991	17549.56
627.185	17320.18
627.38	17199.35
627.574	17109.24
627.768	17262.84
627.963	17045.76
628.157	16800
628.352	16843.01
628.546	16394.5
628.74	16578.82
628.935	16349.45
629.129	16404.74
629.323	16214.28
629.517	16404.74
629.712	16124.17
629.906	15960.33
630.1	15739.15
630.294	15819.02
630.489	15763.73
630.683	15997.2
630.877	15542.55
631.071	15589.65
631.265	15458.58
631.459	15489.3
631.653	15372.57
631.848	15036.7
632.042	15051.03
632.236	15167.77
632.43	14883.1
632.624	14872.86
632.818	14799.13
633.012	14553.38
633.206	14666.02
633.4	14747.93
633.594	14565.67
633.788	14371.11
633.982	14438.69
634.176	14475.56
634.369	14369.06
634.563	14129.45
634.757	13973.8
634.951	14180.65
635.145	13863.21
635.339	13857.07
635.533	13734.19
635.726	13785.39
635.92	13422.9
636.114	13594.93
636.308	13691.18
636.501	13670.7
636.695	13719.85
636.889	13519.15
637.083	13152.57
637.276	13199.67
637.47	13123.9
637.664	12837.18
637.857	13197.62
638.051	13035.83
638.244	12687.68
638.438	12689.73
638.632	12429.63
638.825	12572.99
639.019	12405.06
639.212	12482.88
639.406	12382.53
639.599	12423.49
639.793	12292.42
639.986	12030.28
640.18	12149.06
640.373	11968.84
640.567	11745.61
640.76	12030.28
640.954	11884.87
641.147	11751.76
641.34	11637.07
641.534	11778.38
641.727	11614.54
641.92	11469.14
642.114	11528.53
642.307	11569.49
642.5	11456.85
642.694	11026.78
642.887	11247.96
643.08	11342.16
643.273	11123.03
643.467	11112.79
643.66	10889.56
643.853	11080.02
644.046	10797.4
644.239	10817.88
644.432	10635.61
644.626	10676.57
644.819	10506.59
645.012	10529.12
645.205	10580.32
645.398	10576.22
645.591	10479.97
645.784	10508.64
645.977	10209.64
646.17	10291.55
646.363	10412.39
646.556	9974.12
646.749	10246.5
646.942	10174.82
647.135	9998.7
647.328	9953.64
647.521	9916.78
647.714	9765.23
647.907	9826.67
648.099	9619.82
648.292	9744.75
648.485	9711.98
648.678	9445.74
648.871	9498.99
649.064	9509.23
649.256	9462.13
649.449	9322.87
649.642	9171.32
649.835	9212.28
650.027	9197.94
650.22	9116.02
650.413	8962.42
650.605	9173.36
650.798	9089.4
650.991	8915.32
651.183	8980.85
651.376	8651.13
651.568	8712.57
651.761	8741.24
651.954	9005.43
652.146	8636.8
652.339	8757.63
652.531	8728.95
652.724	8546.69
652.916	8442.24
653.109	8585.6
653.301	8335.74
653.494	8507.77
653.686	8229.25
653.879	8296.83
654.071	8128.9
654.263	8143.24
654.456	8296.83
654.648	8180.1
654.84	8016.26
655.033	7977.35
655.225	7981.45
655.417	7950.73
655.61	8034.69
655.802	8016.26
655.994	7733.64
656.186	7893.38
656.379	7844.23
656.571	7795.08
656.763	7549.32
656.955	7475.6
657.148	7621
657.34	7661.96
657.532	7496.08
657.724	7387.54
657.916	7448.97
658.108	7387.54
658.3	7166.35
658.492	7141.78
658.684	7209.36
658.876	7178.64
659.068	7211.41
659.26	7127.44
659.452	7156.11
659.644	7192.98
659.836	6904.21
660.028	7008.66
660.22	6947.22
660.412	6812.06
660.604	6816.15
660.796	6826.39
660.988	6904.21
661.18	6857.11
661.372	6658.46
661.563	6760.86
661.755	6556.06
661.947	6443.42
662.139	6601.12
662.331	6658.46
662.522	6502.81
662.714	6369.69
662.906	6558.11
663.097	6328.74
663.289	6207.91
663.481	6355.36
663.673	6486.43
663.864	6408.61
664.056	6242.72
664.247	6232.48
664.439	6115.75
664.631	6152.61
664.822	6156.71
665.014	6138.27
665.205	6060.45
665.397	6080.93
665.588	6097.31
665.78	6017.44
665.971	5786.02
666.163	5857.7
666.354	6015.4
666.546	5943.72
666.737	5927.33
666.929	5835.17
667.12	5814.7
667.311	5888.42
667.503	5597.61
667.694	5841.32
667.885	5675.43
668.077	5605.8
668.268	5675.43
668.459	5824.94
668.651	5628.33
668.842	5523.88
669.033	5423.53
669.224	5550.51
669.416	5589.42
669.607	5470.64
669.798	5534.12
669.989	5392.81
670.18	5323.18
670.371	5376.43
670.563	5470.64
670.754	5325.23
670.945	5280.18
671.136	5251.5
671.327	5261.74
671.518	5214.64
671.709	5151.15
671.9	5310.89
672.091	5212.59
672.282	5185.97
672.473	5044.66
672.664	5126.58
672.855	4934.07
673.046	4972.98
673.237	5218.74
673.428	4979.12
673.619	4975.03
673.809	5108.15
674	4893.11
674.191	4981.17
674.382	4999.6
674.573	4927.92
674.764	4948.4
674.954	4979.12
675.145	4911.54
675.336	4862.39
675.527	4735.42
675.717	4948.4
675.908	4837.81
676.099	4778.42
676.289	4649.4
676.48	4764.09
676.671	4719.03
676.861	4712.89
677.052	4698.55
677.243	4594.11
677.433	4647.35
677.624	4710.84
677.814	4590.01
678.005	4762.04
678.195	4686.26
678.386	4649.4
678.576	4641.21
678.767	4497.85
678.957	4710.84
679.148	4563.39
679.338	4620.73
679.529	4673.98
679.719	4596.15
679.909	4585.91
680.1	4620.73
680.29	4596.15
680.481	4463.04
680.671	4575.67
680.861	4481.47
681.052	4442.56
681.242	4405.69
681.432	4559.29
681.622	4393.4
681.813	4368.83
682.003	4407.74
682.193	4413.88
682.383	4471.23
682.573	4329.92
682.764	4428.22
682.954	4432.32
683.144	4389.31
683.334	4360.64
683.524	4327.87
683.714	4252.1
683.904	4295.1
684.094	4340.16
684.284	4237.76
684.474	4391.36
684.664	4268.48
684.854	4223.42
685.044	4315.58
685.234	4108.74
685.424	4209.09
685.614	4161.98
685.804	4211.14
685.994	4260.29
686.184	4184.51
686.374	4190.66
686.564	4153.79
686.753	4149.7
686.943	4188.61
687.133	3973.57
687.323	4080.07
687.513	4045.25
687.702	4172.22
687.892	3992
688.082	4045.25
688.272	3959.24
688.461	3905.99
688.651	3996.1
688.841	4030.91
689.03	3928.52
689.22	3963.33
689.41	3889.6
689.599	3871.17
689.789	3871.17
689.979	3891.65
690.168	3690.95
690.358	3822.02
690.547	3865.03
690.737	3748.29
690.926	3856.84
691.116	3783.11
691.305	3682.76
691.495	3678.66
691.684	3660.23
691.874	3709.38
692.063	3621.32
692.252	3709.38
692.442	3643.85
692.631	3598.79
692.82	3649.99
693.01	3559.88
693.199	3633.61
693.388	3570.12
693.578	3551.69
693.767	3600.84
693.956	3617.22
694.146	3475.91
694.335	3547.59
694.524	3486.15
694.713	3576.27
694.902	3383.76
695.092	3512.78
695.281	3412.43
695.47	3496.39
695.659	3389.9
695.848	3273.17
696.037	3576.27
696.226	3359.18
696.415	3469.77
696.604	3566.03
696.793	3441.1
696.982	3461.58
697.171	3500.49
697.36	3426.76
697.549	3295.69
697.738	3398.09
697.927	3301.84
698.116	3291.6
698.305	3353.04
698.494	3471.82
698.683	3348.94
698.872	3492.3
699.061	3484.11
699.25	3348.94
699.438	3365.32
699.627	3297.74
699.816	3396.04
700.005	3275.21
700.193	3506.63
700.382	3408.33
700.571	3234.25
700.76	3373.52
700.948	3375.56
701.137	3267.02
701.326	3334.61
701.514	3228.11
701.703	3207.63
701.892	3383.76
702.08	3480.01
702.269	3367.37
702.457	3275.21
702.646	3260.88
702.834	3293.65
703.023	3428.81
703.212	3217.87
703.4	3385.8
703.589	3357.13
703.777	3416.52
703.965	3307.98
704.154	3277.26
704.342	3201.49
704.531	3240.4
704.719	3205.58
704.907	3203.54
705.096	3224.01
705.284	3336.65
705.472	3217.87
705.661	3318.22
705.849	3312.08
706.037	3303.89
706.226	3264.97
706.414	3275.21
706.602	3172.82
706.79	3236.3
706.979	3133.9
707.167	3297.74
707.355	3260.88
707.543	3262.93
707.731	3334.61
707.919	3174.86
708.107	3129.81
708.296	3146.19
708.484	3176.91
708.672	3086.8
708.86	3291.6
709.048	3142.1
709.236	3189.2
709.424	3101.14
709.612	3207.63
709.8	3154.38
709.988	3199.44
710.176	3148.24
710.364	3248.59
710.551	3234.25
710.739	3142.1
710.927	3191.25
711.115	3250.64
711.303	3152.34
711.491	3285.45
711.679	3062.23
711.866	3256.78
712.054	3154.38
712.242	3006.93
712.43	3281.36
712.617	3199.44
712.805	3058.13
712.993	3201.49
713.181	3092.94
713.368	3193.3
713.556	3117.52
713.744	2941.4
713.931	3164.62
714.119	3078.61
714.306	3080.66
714.494	3215.82
714.682	3054.03
714.869	3160.53
715.057	3109.33
715.244	3123.66
715.432	3195.34
715.619	3115.47
715.807	3103.18
715.994	3148.24
716.182	3082.7
716.369	3181.01
716.556	3074.51
716.744	3051.99
716.931	2970.07
717.119	3236.3
717.306	2974.16
717.493	3078.61
717.681	2996.69
717.868	3115.47
718.055	3064.27
718.242	3029.46
718.43	2961.87
718.617	3023.31
718.804	3039.7
718.991	2888.15
719.179	3056.08
719.366	3025.36
719.553	3023.31
719.74	2828.76
719.927	3097.04
720.114	2976.21
720.301	3047.89
720.488	3039.7
720.676	2994.64
720.863	2974.16
721.05	2904.53
721.237	3027.41
721.424	2863.57
721.611	3070.42
721.798	2933.2
721.985	2994.64
722.172	3000.79
722.358	2845.14
722.545	2955.73
722.732	2861.52
722.919	2912.72
723.106	2912.72
723.293	2888.15
723.48	3056.08
723.667	2951.63
723.853	2904.53
724.04	2929.11
724.227	2918.87
724.414	2882
724.6	2890.2
724.787	2953.68
724.974	2910.68
725.161	3006.93
725.347	2771.41
725.534	2882
725.72	2972.11
725.907	2882
726.094	2949.59
726.28	2990.55
726.467	2890.2
726.653	2900.44
726.84	2935.25
727.027	2980.31
727.213	2900.44
727.4	2882
727.586	2925.01
727.773	2908.63
727.959	2961.87
728.145	2841.04
728.332	2992.59
728.518	2871.76
728.705	3039.7
728.891	2738.65
729.077	2925.01
729.264	2802.13
729.45	2955.73
729.636	2927.06
729.823	2730.45
730.009	2879.96
730.195	2826.71
730.382	2834.9
730.568	2990.55
730.754	2904.53
730.94	2953.68
731.126	2906.58
731.313	2947.54
731.499	2798.04
731.685	2830.8
731.871	2748.89
732.057	2912.72
732.243	2853.33
732.429	2777.56
732.615	2832.85
732.801	2859.48
732.987	2755.03
733.173	2847.19
733.359	2933.2
733.545	2752.98
733.731	2863.57
733.917	2812.37
734.103	2808.28
734.289	2761.17
734.475	2705.88
734.661	2900.44
734.847	2714.07
735.033	2732.5
735.219	2757.08
735.404	2765.27
735.59	2763.22
735.776	2777.56
735.962	2681.3
736.148	2802.13
736.333	2734.55
736.519	2664.92
736.705	2777.56
736.89	2779.61
737.076	2757.08
737.262	2724.31
737.447	2736.6
737.633	2802.13
737.819	2681.3
738.004	2599.38
738.19	2585.05
738.375	2695.64
738.561	2740.69
738.747	2679.26
738.932	2683.35
739.118	2675.16
739.303	2648.54
739.489	2611.67
739.674	2494.94
739.859	2544.09
740.045	2597.34
740.23	2509.27
740.416	2531.8
740.601	2597.34
740.786	2671.06
740.972	2484.7
741.157	2574.81
741.342	2525.66
741.528	2566.62
741.713	2515.42
741.898	2626.01
742.084	2503.13
742.269	2503.13
742.454	2507.23
742.639	2437.59
742.824	2417.12
743.01	2470.36
743.195	2507.23
743.38	2433.5
743.565	2509.27
743.75	2286.05
743.935	2435.55
744.12	2417.12
744.305	2361.82
744.49	2333.15
744.675	2384.35
744.86	2316.76
745.045	2339.29
745.23	2408.92
745.415	2376.16
745.6	2277.85
745.785	2347.48
745.97	2378.2
746.155	2218.46
746.34	2286.05
746.525	2298.33
746.71	2357.72
746.895	2255.33
747.079	2263.52
747.264	2296.28
747.449	2343.39
747.634	2214.37
747.819	2167.26
748.003	2267.61
748.188	2206.17
748.373	2017.76
748.557	2187.74
748.742	2200.03
748.927	2171.36
749.111	2093.54
749.296	2150.88
749.481	1993.19
749.665	2161.12
749.85	2058.72
750.034	2081.25
750.219	2030.05
750.404	1997.28
750.588	2025.95
750.773	2001.38
750.957	2011.62
751.141	1966.56
751.326	1997.28
751.51	1827.3
751.695	1896.93
751.879	1864.16
752.064	1917.41
752.248	1903.07
752.432	1786.34
752.617	1931.75
752.801	1815.01
752.985	1823.2
753.17	1817.06
753.354	1858.02
753.538	1788.39
753.722	1804.77
753.907	1790.44
754.091	1876.45
754.275	1708.52
754.459	1796.58
754.643	1673.7
754.828	1778.15
755.012	1661.41
755.196	1534.44
755.38	1634.79
755.564	1702.37
755.748	1669.61
755.932	1595.88
756.116	1589.74
756.3	1608.17
756.484	1550.82
756.668	1622.5
756.852	1608.17
757.036	1559.02
757.22	1511.91
757.404	1542.63
757.588	1561.06
757.772	1495.53
757.956	1495.53
758.14	1505.77
758.323	1458.67
758.507	1522.15
758.691	1599.98
758.875	1391.08
759.059	1542.63
759.242	1452.52
759.426	1434.09
759.61	1399.27
759.794	1466.86
759.977	1421.8
760.161	1473
760.345	1405.42
760.528	1335.79
760.712	1352.17
760.895	1495.53
761.079	1397.23
761.263	1352.17
761.446	1266.16
761.63	1436.14
761.813	1352.17
761.997	1376.75
762.18	1319.4
762.364	1286.64
762.547	1282.54
762.731	1284.59
762.914	1378.79
763.098	1260.01
763.281	1286.64
763.464	1255.92
763.648	1294.83
763.831	1225.2
764.015	1298.92
764.198	1247.72
764.381	1339.88
764.564	1214.96
764.748	1253.87
764.931	1264.11
765.114	1217.01
765.297	1221.1
765.481	1253.87
765.664	1167.85
765.847	1202.67
766.03	1212.91
766.213	1210.86
766.397	1167.85
766.58	1178.09
766.763	1190.38
766.946	1147.37
767.129	1253.87
767.312	1102.32
767.495	1147.37
767.678	1092.08
767.861	1114.61
768.044	1143.28
768.227	1159.66
768.41	1137.13
768.593	1171.95
768.776	1110.51
768.959	1034.74
769.142	1225.2
769.324	1126.89
769.507	1051.12
769.69	1044.98
769.873	1102.32
770.056	1122.8
770.239	1030.64
770.421	1184.24
770.604	1001.97
770.787	987.63
770.97	1116.65
771.152	1012.21
771.335	930.29
771.518	987.63
771.7	989.68
771.883	1032.69
772.066	999.92
772.248	942.58
772.431	995.82
772.613	985.58
772.796	1001.97
772.978	1004.02
773.161	944.63
773.343	1012.21
773.526	899.57
773.708	956.91
773.891	887.28
774.073	952.82
774.256	915.95
774.438	989.68
774.621	958.96
774.803	999.92
774.985	958.96
775.168	866.8
775.35	924.15
775.532	885.23
775.715	829.94
775.897	903.67
776.079	944.63
776.261	872.95
776.444	844.28
776.626	836.08
776.808	852.47
776.99	811.51
777.173	815.6
777.355	872.95
777.537	786.93
777.719	799.22
777.901	786.93
778.083	766.45
778.265	768.5
778.447	786.93
778.629	791.03
778.811	739.83
778.993	692.73
779.175	780.79
779.357	713.21
779.539	719.35
779.721	770.55
779.903	776.69
780.085	764.4
780.267	709.11
780.449	768.5
780.631	700.92
780.812	711.16
780.994	760.31
781.176	649.72
781.358	645.62
781.54	723.44
781.721	727.54
781.903	700.92
782.085	676.34
782.267	627.19
782.448	664.05
782.63	625.14
782.812	670.2
782.993	594.42
783.175	625.14
783.357	584.18
783.538	627.19
783.72	549.37
783.901	608.76
784.083	541.18
784.264	539.13
784.446	582.14
784.627	485.88
784.809	563.7
784.99	592.37
785.172	584.18
785.353	545.27
785.535	573.94
785.716	561.66
785.897	459.26
786.079	528.89
786.26	535.03
786.441	563.7
786.623	539.13
786.804	498.17
786.985	545.27
787.167	514.55
787.348	500.22
787.529	494.07
787.71	573.94
787.891	526.84
788.073	524.79
788.254	545.27
788.435	502.26
788.616	530.94
788.797	446.97
788.978	487.93
789.159	465.4
789.34	532.98
789.522	463.35
789.703	485.88
789.884	463.35
790.065	465.4
790.246	457.21
790.427	504.31
790.607	524.79
790.788	453.11
790.969	463.35
791.15	555.51
791.331	471.54
791.512	453.11
791.693	442.87
791.874	446.97
792.054	479.74
792.235	354.81
792.416	383.48
792.597	408.06
792.778	418.3
792.958	387.58
793.139	383.48
793.32	467.45
793.5	416.25
793.681	422.39
793.862	432.63
794.042	383.48
794.223	395.77
794.404	492.02
794.584	434.68
794.765	395.77
794.945	377.34
795.126	397.82
795.306	414.2
795.487	451.07
795.667	381.43
795.848	350.71
796.028	393.72
796.209	320
796.389	410.11
796.57	367.1
796.75	358.91
796.93	334.33
797.111	305.66
797.291	385.53
797.471	344.57
797.652	344.57
797.832	346.62
798.012	383.48
798.192	328.19
798.373	322.04
798.553	360.95
798.733	406.01
798.913	283.13
799.093	317.95
799.274	322.04
799.454	393.72
799.634	301.56
799.814	397.82
799.994	344.57
800.174	371.19
800.354	326.14
800.534	311.8
800.714	365.05
800.894	260.6
801.074	303.61
801.254	334.33
801.434	352.76
801.614	287.23
801.794	276.99
801.974	653.81
802.154	268.8
802.334	385.53
802.514	301.56
802.693	250.36
802.873	219.64
803.053	313.85
803.233	289.28
803.413	307.71
803.592	274.94
803.772	297.47
803.952	221.69
804.131	221.69
804.311	240.12
804.491	291.32
804.67	260.6
804.85	256.51
805.03	268.8
805.209	399.87
805.389	283.13
805.568	266.75
805.748	207.36
805.928	258.56
806.107	262.65
806.287	254.46
806.466	313.85
806.646	205.31
806.825	184.83
807.004	205.31
807.184	195.07
807.363	209.4
807.543	213.5
807.722	270.84
807.901	240.12
808.081	291.32
808.26	242.17
808.439	225.79
808.619	252.41
808.798	180.73
808.977	244.22
809.156	279.04
809.336	299.52
809.515	246.27
809.694	119.29
809.873	238.08
810.052	236.03
810.231	315.9
810.411	252.41
810.59	229.88
810.769	242.17
810.948	215.55
811.127	168.45
811.306	217.6
811.485	227.84
811.664	154.11
811.843	154.11
812.022	221.69
812.201	207.36
812.38	254.46
812.559	246.27
812.737	242.17
812.916	205.31
813.095	244.22
813.274	201.21
813.453	201.21
813.632	113.15
813.811	156.16
813.989	127.49
814.168	137.73
814.347	180.73
814.526	154.11
814.704	229.88
814.883	201.21
815.062	240.12
815.24	233.98
815.419	231.93
815.598	205.31
815.776	199.16
815.955	207.36
816.133	107.01
816.312	195.07
816.49	168.45
816.669	133.63
816.847	217.6
817.026	227.84
817.204	244.22
817.383	168.45
817.561	178.69
817.74	176.64
817.918	166.4
818.097	158.21
818.275	113.15
818.453	186.88
818.632	164.35
818.81	92.67
818.988	154.11
819.167	182.78
819.345	240.12
819.523	307.71
819.701	102.91
819.879	164.35
820.058	64
820.236	156.16
820.414	213.5
820.592	193.02
820.77	143.87
820.948	184.83
821.127	172.54
821.305	168.45
821.483	199.16
821.661	168.45
821.839	135.68
822.017	178.69
822.195	154.11
822.373	190.97
822.551	141.82
822.729	242.17
822.907	152.06
823.085	193.02
823.262	174.59
823.44	180.73
823.618	156.16
823.796	180.73
823.974	147.97
824.152	129.53
824.329	156.16
824.507	174.59
824.685	174.59
824.863	225.79
825.04	162.3
825.218	197.12
825.396	199.16
825.574	250.36
825.751	115.2
825.929	137.73
826.107	66.05
826.284	133.63
826.462	123.39
826.639	143.87
826.817	119.29
826.994	168.45
827.172	166.4
827.349	131.58
827.527	111.1
827.704	152.06
827.882	139.77
828.059	94.72
828.237	154.11
828.414	102.91
828.591	113.15
828.769	119.29
828.946	86.53
829.124	150.01
829.301	139.77
829.478	156.16
829.655	180.73
829.833	209.4
830.01	152.06
830.187	150.01
830.364	72.19
830.542	127.49
830.719	152.06
830.896	150.01
831.073	154.11
831.25	166.4
831.427	145.92
831.604	66.05
831.782	100.86
831.959	129.53
832.136	172.54
832.313	139.77
832.49	96.77
832.667	109.05
832.844	53.76
833.021	166.4
833.198	49.66
833.374	107.01
833.551	94.72
833.728	102.91
833.905	125.44
834.082	104.96
834.259	66.05
834.436	119.29
834.612	125.44
834.789	143.87
834.966	61.95
835.143	102.91
835.319	121.34
835.496	150.01
835.673	107.01
835.85	111.1
836.026	111.1
836.203	57.86
836.38	107.01
836.556	80.38
836.733	119.29
836.909	86.53
837.086	133.63
837.262	121.34
837.439	76.29
837.616	123.39
837.792	188.93
837.968	195.07
838.145	100.86
838.321	78.33
838.498	123.39
838.674	68.09
838.851	102.91
839.027	18.94
839.203	92.67
839.38	57.86
839.556	72.19
839.732	84.48
839.909	84.48
840.085	119.29
840.261	82.43
840.437	131.58
840.614	55.81
840.79	41.47
840.966	127.49
841.142	117.25
841.318	23.04
841.494	135.68
841.671	80.38
841.847	158.21
842.023	74.24
842.199	135.68
842.375	131.58
842.551	88.57
842.727	102.91
842.903	121.34
843.079	74.24
843.255	92.67
843.431	70.14
843.607	49.66
843.783	94.72
843.959	88.57
844.134	70.14
844.31	127.49
844.486	57.86
844.662	84.48
844.838	90.62
845.013	113.15
845.189	86.53
845.365	98.81
845.541	107.01
845.716	94.72
845.892	68.09
846.068	80.38
846.244	41.47
846.419	66.05
846.595	88.57
846.77	45.57
846.946	100.86
847.122	68.09
847.297	88.57
847.473	47.62
847.648	147.97
847.824	6.66
847.999	27.14
848.175	29.18
848.35	90.62
848.526	2.56
848.701	66.05
848.876	68.09
849.052	100.86
849.227	35.33
849.403	68.09
849.578	66.05
849.753	31.23
849.929	64
850.104	41.47
850.279	80.38
850.454	66.05
850.63	78.33
850.805	92.67
850.98	88.57
851.155	27.14
851.33	64
851.505	49.66
851.681	86.53
851.856	98.81
852.031	64
852.206	98.81
852.381	96.77
852.556	-24.06
852.731	98.81
852.906	37.38
853.081	82.43
853.256	25.09
853.431	16.9
853.606	72.19
853.781	29.18
853.956	49.66
854.131	94.72
854.305	61.95
854.48	49.66
854.655	-13.82
854.83	119.29
855.005	70.14
855.18	31.23
855.354	35.33
855.529	2.56
855.704	76.29
855.879	16.9
856.053	14.85
856.228	121.34
856.403	23.04
856.577	129.53
856.752	29.18
856.926	74.24
857.101	-5.63
857.276	49.66
857.45	-30.21
857.625	82.43
857.799	2.56
857.974	80.38
858.148	-1.54
858.323	31.23
858.497	129.53
858.672	51.71
858.846	88.57
859.02	4.61
859.195	-5.63
859.369	16.9
859.543	-1.54
859.718	80.38
859.892	72.19
860.066	84.48
860.241	72.19
860.415	88.57
860.589	43.52
860.763	33.28
860.938	74.24
861.112	90.62
861.286	37.38
861.46	70.14
861.634	76.29
861.808	8.7
861.982	125.44
862.157	-15.87
862.331	25.09
862.505	25.09
862.679	23.04
862.853	57.86
863.027	82.43
863.201	168.45
863.375	109.05
863.549	70.14
863.722	74.24
863.896	96.77
864.07	8.7
864.244	45.57
864.418	-15.87
864.592	51.71
864.766	20.99
864.939	74.24
865.113	49.66
865.287	76.29
865.461	29.18
865.634	-5.63
865.808	90.62
865.982	88.57
866.156	76.29
866.329	-5.63
866.503	29.18
866.676	51.71
866.85	72.19
867.024	41.47
867.197	78.33
867.371	43.52
867.544	49.66
867.718	70.14
867.891	45.57
868.065	-5.63
868.238	39.42
868.412	8.7
868.585	55.81
868.759	47.62
868.932	33.28
869.105	16.9
869.279	70.14
869.452	49.66
869.625	94.72
869.799	76.29
869.972	10.75
870.145	8.7
870.319	102.91
870.492	43.52
870.665	25.09
870.838	51.71
871.011	18.94
871.185	49.66
871.358	51.71
871.531	98.81
871.704	-5.63
871.877	45.57
872.05	53.76
872.223	53.76
872.396	14.85
872.569	4.61
872.742	84.48
872.915	49.66
873.088	100.86
873.261	4.61
873.434	53.76
873.607	37.38
873.78	51.71
873.953	37.38
874.126	64
874.299	78.33
874.471	8.7
874.644	0.51
874.817	59.9
874.99	23.04
875.163	20.99
875.335	-9.73
875.508	-1.54
875.681	66.05
875.853	78.33
876.026	-13.82
876.199	68.09
876.371	43.52
876.544	-11.78
876.717	78.33
876.889	104.96
877.062	66.05
877.234	14.85
877.407	61.95
877.579	37.38
877.752	0.51
877.924	78.33
878.097	12.8
878.269	47.62
878.442	-15.87
878.614	84.48
878.786	88.57
878.959	27.14
879.131	92.67
879.303	55.81
879.476	70.14
879.648	70.14
879.82	70.14
879.993	78.33
880.165	76.29
880.337	43.52
880.509	4.61
880.681	-91.65
880.854	39.42
881.026	41.47
881.198	100.86
881.37	-3.58
881.542	6.66
881.714	68.09
881.886	82.43
882.058	31.23
882.23	53.76
882.402	14.85
882.574	57.86
882.746	31.23
882.918	94.72
883.09	37.38
883.262	68.09
883.434	43.52
883.606	4.61
883.778	47.62
883.95	72.19
884.122	129.53
884.293	37.38
884.465	-19.97
884.637	35.33
884.809	-32.26
884.98	135.68
885.152	82.43
885.324	68.09
885.496	33.28
885.667	-58.88
885.839	-17.92
886.011	74.24
886.182	59.9
886.354	35.33
886.525	16.9
886.697	64
886.869	-11.78
887.04	16.9
887.212	-1.54
887.383	70.14
887.555	23.04
887.726	-11.78
887.897	31.23
888.069	-24.06
888.24	61.95
888.412	16.9
888.583	-19.97
888.754	92.67
888.926	6.66
889.097	78.33
889.268	-15.87
889.44	82.43
889.611	-32.26
889.782	72.19
889.953	20.99
890.125	59.9
890.296	10.75
890.467	16.9
890.638	-9.73
890.809	6.66
890.98	16.9
891.151	29.18
891.323	57.86
891.494	107.01
891.665	0.51
891.836	14.85
892.007	18.94
892.178	39.42
892.349	84.48
892.52	-40.45
892.691	-52.74
892.862	16.9
893.032	0.51
893.203	80.38
893.374	-15.87
893.545	51.71
893.716	18.94
893.887	25.09
894.057	41.47
894.228	10.75
894.399	-38.4
894.57	20.99
894.74	10.75
894.911	53.76
895.082	16.9
895.253	23.04
895.423	53.76
895.594	12.8
895.764	8.7
895.935	16.9
896.106	70.14
896.276	-52.74
896.447	20.99
896.617	16.9
896.788	31.23
896.958	-9.73
897.129	-52.74
897.299	55.81
897.47	16.9
897.64	20.99
897.81	18.94
897.981	47.62
898.151	-32.26
898.322	57.86
898.492	8.7
898.662	31.23
898.832	72.19
899.003	29.18
899.173	2.56
899.343	37.38
899.513	29.18
