Data from USB4F104151__79__11-06-25-524.txt Node

Date: Wed Mar 12 11:06:25 EDT 2025
User: louis
Spectrometer: USB4F10415
Trigger mode: 4
Integration Time (sec): 2.000000E-2
Scans to average: 1
Electric dark correction enabled: true
Nonlinearity correction enabled: false
Boxcar width: 0
XAxis mode: Wavelengths
Number of Pixels in Spectrum: 3648
>>>>>Begin Spectral Data<<<<<
178.204	-71.17
178.424	-71.17
178.644	-71.17
178.864	-95.74
179.084	-65.02
179.304	-22.02
179.524	-15.87
179.744	-22.02
179.964	59.9
180.184	74.24
180.404	61.95
180.624	-22.02
180.844	-34.3
181.064	-50.69
181.283	-24.06
181.503	-9.73
181.723	4.61
181.943	23.04
182.163	100.86
182.383	-22.02
182.602	23.04
182.822	43.52
183.042	74.24
183.262	20.99
183.482	6.66
183.701	-19.97
183.921	27.14
184.141	-19.97
184.361	23.04
184.58	23.04
184.8	-7.68
185.02	55.81
185.239	78.33
185.459	2.56
185.679	45.57
185.898	6.66
186.118	45.57
186.338	8.7
186.557	51.71
186.777	23.04
186.997	6.66
187.216	33.28
187.436	94.72
187.655	-7.68
187.875	74.24
188.095	16.9
188.314	82.43
188.534	55.81
188.753	61.95
188.973	-5.63
189.192	72.19
189.412	23.04
189.631	-3.58
189.851	33.28
190.07	12.8
190.29	51.71
190.509	68.09
190.729	10.75
190.948	-1.54
191.168	80.38
191.387	61.95
191.607	4.61
191.826	55.81
192.045	-30.21
192.265	-5.63
192.484	-30.21
192.704	-48.64
192.923	0.51
193.142	47.62
193.362	12.8
193.581	109.05
193.8	18.94
194.02	70.14
194.239	-26.11
194.458	4.61
194.678	23.04
194.897	64
195.116	-30.21
195.335	72.19
195.555	12.8
195.774	59.9
195.993	43.52
196.212	-7.68
196.432	-19.97
196.651	53.76
196.87	8.7
197.089	158.21
197.308	41.47
197.528	70.14
197.747	-7.68
197.966	37.38
198.185	-9.73
198.404	6.66
198.623	-17.92
198.842	43.52
199.062	35.33
199.281	0.51
199.5	35.33
199.719	31.23
199.938	12.8
200.157	139.77
200.376	-11.78
200.595	23.04
200.814	68.09
201.033	41.47
201.252	94.72
201.471	10.75
201.69	98.81
201.909	-50.69
202.128	-5.63
202.347	35.33
202.566	-5.63
202.785	39.42
203.004	23.04
203.223	66.05
203.442	90.62
203.661	-32.26
203.879	-19.97
204.098	25.09
204.317	-48.64
204.536	76.29
204.755	23.04
204.974	29.18
205.193	12.8
205.411	14.85
205.63	64
205.849	55.81
206.068	-87.55
206.287	78.33
206.505	94.72
206.724	66.05
206.943	-13.82
207.162	39.42
207.381	14.85
207.599	25.09
207.818	-22.02
208.037	33.28
208.255	31.23
208.474	-3.58
208.693	68.09
208.911	-36.35
209.13	45.57
209.349	45.57
209.567	27.14
209.786	-34.3
210.005	23.04
210.223	49.66
210.442	-7.68
210.661	51.71
210.879	41.47
211.098	45.57
211.316	35.33
211.535	61.95
211.753	-36.35
211.972	-5.63
212.191	47.62
212.409	72.19
212.628	-9.73
212.846	31.23
213.065	111.1
213.283	55.81
213.502	27.14
213.72	43.52
213.938	20.99
214.157	-5.63
214.375	27.14
214.594	12.8
214.812	86.53
215.031	-69.12
215.249	14.85
215.467	55.81
215.686	16.9
215.904	29.18
216.122	31.23
216.341	70.14
216.559	49.66
216.778	64
216.996	51.71
217.214	31.23
217.432	-24.06
217.651	29.18
217.869	25.09
218.087	64
218.306	43.52
218.524	33.28
218.742	43.52
218.96	57.86
219.179	27.14
219.397	2.56
219.615	35.33
219.833	96.77
220.051	-77.31
220.27	33.28
220.488	74.24
220.706	39.42
220.924	49.66
221.142	39.42
221.36	-26.11
221.578	33.28
221.796	33.28
222.015	2.56
222.233	47.62
222.451	45.57
222.669	-7.68
222.887	88.57
223.105	51.71
223.323	2.56
223.541	29.18
223.759	68.09
223.977	20.99
224.195	27.14
224.413	74.24
224.631	84.48
224.849	2.56
225.067	35.33
225.285	59.9
225.503	55.81
225.721	-1.54
225.939	39.42
226.157	-13.82
226.375	150.01
226.592	29.18
226.81	29.18
227.028	23.04
227.246	64
227.464	76.29
227.682	109.05
227.9	84.48
228.117	43.52
228.335	-7.68
228.553	-24.06
228.771	84.48
228.989	66.05
229.206	64
229.424	18.94
229.642	35.33
229.86	25.09
230.077	43.52
230.295	4.61
230.513	72.19
230.731	64
230.948	29.18
231.166	47.62
231.384	37.38
231.601	76.29
231.819	12.8
232.037	45.57
232.254	2.56
232.472	6.66
232.689	-50.69
232.907	23.04
233.125	-3.58
233.342	-3.58
233.56	8.7
233.777	29.18
233.995	8.7
234.213	-34.3
234.43	61.95
234.648	47.62
234.865	-32.26
235.083	41.47
235.3	45.57
235.518	59.9
235.735	55.81
235.953	133.63
236.17	35.33
236.388	49.66
236.605	10.75
236.822	-32.26
237.04	41.47
237.257	35.33
237.475	25.09
237.692	31.23
237.909	55.81
238.127	86.53
238.344	64
238.562	18.94
238.779	43.52
238.996	80.38
239.214	127.49
239.431	70.14
239.648	27.14
239.865	29.18
240.083	14.85
240.3	-11.78
240.517	20.99
240.735	82.43
240.952	-30.21
241.169	70.14
241.386	80.38
241.603	35.33
241.821	47.62
242.038	70.14
242.255	96.77
242.472	12.8
242.689	76.29
242.907	6.66
243.124	-32.26
243.341	-24.06
243.558	2.56
243.775	78.33
243.992	-5.63
244.209	39.42
244.426	94.72
244.643	64
244.86	33.28
245.078	47.62
245.295	51.71
245.512	23.04
245.729	-32.26
245.946	-36.35
246.163	74.24
246.38	131.58
246.597	37.38
246.814	4.61
247.031	61.95
247.248	123.39
247.464	88.57
247.681	57.86
247.898	57.86
248.115	98.81
248.332	-5.63
248.549	-7.68
248.766	143.87
248.983	18.94
249.2	55.81
249.417	37.38
249.633	-77.31
249.85	33.28
250.067	-3.58
250.284	59.9
250.501	64
250.717	0.51
250.934	12.8
251.151	23.04
251.368	20.99
251.585	-15.87
251.801	84.48
252.018	-38.4
252.235	37.38
252.451	66.05
252.668	27.14
252.885	84.48
253.102	-46.59
253.318	20.99
253.535	64
253.752	-3.58
253.968	45.57
254.185	55.81
254.401	55.81
254.618	49.66
254.835	20.99
255.051	94.72
255.268	4.61
255.484	90.62
255.701	45.57
255.917	4.61
256.134	-77.31
256.351	18.94
256.567	23.04
256.784	-1.54
257	16.9
257.217	-1.54
257.433	37.38
257.65	51.71
257.866	51.71
258.082	14.85
258.299	76.29
258.515	74.24
258.732	4.61
258.948	-9.73
259.165	53.76
259.381	96.77
259.597	-11.78
259.814	66.05
260.03	68.09
260.246	-3.58
260.463	55.81
260.679	68.09
260.895	12.8
261.112	57.86
261.328	-69.12
261.544	37.38
261.761	27.14
261.977	6.66
262.193	27.14
262.409	16.9
262.626	27.14
262.842	16.9
263.058	-30.21
263.274	16.9
263.49	8.7
263.707	39.42
263.923	72.19
264.139	-83.45
264.355	35.33
264.571	23.04
264.787	66.05
265.004	37.38
265.22	-19.97
265.436	18.94
265.652	-15.87
265.868	31.23
266.084	20.99
266.3	12.8
266.516	35.33
266.732	-34.3
266.948	-22.02
267.164	49.66
267.38	57.86
267.596	12.8
267.812	57.86
268.028	76.29
268.244	70.14
268.46	39.42
268.676	117.25
268.892	43.52
269.108	-44.54
269.324	6.66
269.54	47.62
269.756	51.71
269.972	-9.73
270.188	57.86
270.403	45.57
270.619	18.94
270.835	102.91
271.051	64
271.267	41.47
271.483	41.47
271.698	16.9
271.914	-15.87
272.13	41.47
272.346	23.04
272.562	61.95
272.777	80.38
272.993	45.57
273.209	72.19
273.425	-3.58
273.64	-7.68
273.856	29.18
274.072	37.38
274.287	37.38
274.503	-9.73
274.719	68.09
274.934	23.04
275.15	-24.06
275.366	61.95
275.581	35.33
275.797	76.29
276.012	-9.73
276.228	104.96
276.444	27.14
276.659	104.96
276.875	2.56
277.09	-13.82
277.306	-50.69
277.521	49.66
277.737	4.61
277.952	6.66
278.168	-36.35
278.383	68.09
278.599	82.43
278.814	117.25
279.03	31.23
279.245	33.28
279.461	39.42
279.676	59.9
279.892	4.61
280.107	25.09
280.322	-26.11
280.538	76.29
280.753	45.57
280.969	-22.02
281.184	74.24
281.399	59.9
281.615	20.99
281.83	6.66
282.045	57.86
282.26	84.48
282.476	55.81
282.691	41.47
282.906	51.71
283.122	39.42
283.337	-3.58
283.552	68.09
283.767	119.29
283.983	-13.82
284.198	8.7
284.413	61.95
284.628	41.47
284.843	-11.78
285.058	64
285.274	-58.88
285.489	41.47
285.704	23.04
285.919	-17.92
286.134	86.53
286.349	31.23
286.564	-7.68
286.779	111.1
286.995	4.61
287.21	14.85
287.425	117.25
287.64	35.33
287.855	29.18
288.07	-11.78
288.285	43.52
288.5	-7.68
288.715	29.18
288.93	37.38
289.145	74.24
289.36	61.95
289.575	57.86
289.79	80.38
290.004	18.94
290.219	-1.54
290.434	43.52
290.649	41.47
290.864	47.62
291.079	35.33
291.294	51.71
291.509	90.62
291.724	53.76
291.938	14.85
292.153	64
292.368	43.52
292.583	45.57
292.798	96.77
293.012	33.28
293.227	84.48
293.442	14.85
293.657	-1.54
293.871	92.67
294.086	86.53
294.301	61.95
294.516	59.9
294.73	45.57
294.945	-52.74
295.16	92.67
295.374	47.62
295.589	27.14
295.804	43.52
296.018	45.57
296.233	-3.58
296.447	74.24
296.662	49.66
296.877	59.9
297.091	-1.54
297.306	41.47
297.52	47.62
297.735	51.71
297.949	14.85
298.164	16.9
298.378	45.57
298.593	43.52
298.807	96.77
299.022	39.42
299.236	78.33
299.451	64
299.665	-9.73
299.88	31.23
300.094	53.76
300.309	66.05
300.523	18.94
300.737	55.81
300.952	23.04
301.166	82.43
301.381	-30.21
301.595	61.95
301.809	55.81
302.024	35.33
302.238	35.33
302.452	84.48
302.667	49.66
302.881	35.33
303.095	55.81
303.309	20.99
303.524	20.99
303.738	102.91
303.952	6.66
304.166	57.86
304.381	39.42
304.595	104.96
304.809	43.52
305.023	35.33
305.237	39.42
305.452	64
305.666	-5.63
305.88	55.81
306.094	4.61
306.308	78.33
306.522	16.9
306.736	64
306.95	33.28
307.164	23.04
307.379	70.14
307.593	29.18
307.807	39.42
308.021	51.71
308.235	6.66
308.449	-46.59
308.663	80.38
308.877	0.51
309.091	37.38
309.305	59.9
309.519	74.24
309.733	55.81
309.947	37.38
310.161	55.81
310.374	-7.68
310.588	123.39
310.802	53.76
311.016	43.52
311.23	74.24
311.444	64
311.658	-34.3
311.872	35.33
312.085	31.23
312.299	6.66
312.513	74.24
312.727	82.43
312.941	72.19
313.154	53.76
313.368	6.66
313.582	12.8
313.796	84.48
314.009	84.48
314.223	86.53
314.437	107.01
314.651	2.56
314.864	16.9
315.078	59.9
315.292	31.23
315.505	-19.97
315.719	57.86
315.933	23.04
316.146	59.9
316.36	41.47
316.573	66.05
316.787	94.72
317.001	100.86
317.214	78.33
317.428	72.19
317.641	-9.73
317.855	78.33
318.068	33.28
318.282	-3.58
318.495	51.71
318.709	33.28
318.922	125.44
319.136	59.9
319.349	70.14
319.563	4.61
319.776	-34.3
319.99	20.99
320.203	55.81
320.417	20.99
320.63	84.48
320.843	135.68
321.057	-5.63
321.27	10.75
321.483	18.94
321.697	33.28
321.91	31.23
322.124	90.62
322.337	55.81
322.55	72.19
322.763	90.62
322.977	86.53
323.19	37.38
323.403	100.86
323.617	39.42
323.83	55.81
324.043	31.23
324.256	74.24
324.469	0.51
324.683	-17.92
324.896	14.85
325.109	8.7
325.322	14.85
325.535	68.09
325.748	35.33
325.962	55.81
326.175	64
326.388	57.86
326.601	68.09
326.814	23.04
327.027	96.77
327.24	88.57
327.453	-1.54
327.666	23.04
327.879	25.09
328.092	43.52
328.305	55.81
328.518	29.18
328.731	6.66
328.944	-24.06
329.157	55.81
329.37	78.33
329.583	12.8
329.796	100.86
330.009	51.71
330.222	-1.54
330.435	-19.97
330.648	76.29
330.861	115.2
331.073	10.75
331.286	64
331.499	107.01
331.712	68.09
331.925	113.15
332.138	53.76
332.35	223.74
332.563	72.19
332.776	39.42
332.989	41.47
333.202	4.61
333.414	27.14
333.627	18.94
333.84	31.23
334.053	78.33
334.265	66.05
334.478	53.76
334.691	23.04
334.903	35.33
335.116	59.9
335.329	29.18
335.541	14.85
335.754	23.04
335.966	55.81
336.179	-48.64
336.392	45.57
336.604	14.85
336.817	-34.3
337.029	23.04
337.242	31.23
337.454	94.72
337.667	55.81
337.88	29.18
338.092	4.61
338.305	49.66
338.517	43.52
338.729	16.9
338.942	-1.54
339.154	-34.3
339.367	47.62
339.579	66.05
339.792	27.14
340.004	-9.73
340.217	51.71
340.429	20.99
340.641	53.76
340.854	51.71
341.066	53.76
341.278	100.86
341.491	-1.54
341.703	96.77
341.915	115.2
342.128	35.33
342.34	72.19
342.552	-1.54
342.764	31.23
342.977	68.09
343.189	49.66
343.401	145.92
343.613	-34.3
343.826	14.85
344.038	-13.82
344.25	131.58
344.462	66.05
344.674	86.53
344.886	45.57
345.099	20.99
345.311	82.43
345.523	39.42
345.735	-3.58
345.947	47.62
346.159	53.76
346.371	20.99
346.583	68.09
346.795	84.48
347.007	49.66
347.219	20.99
347.431	64
347.643	47.62
347.855	121.34
348.067	80.38
348.279	59.9
348.491	-34.3
348.703	51.71
348.915	117.25
349.127	64
349.339	72.19
349.551	37.38
349.763	47.62
349.975	70.14
350.187	64
350.399	74.24
350.61	31.23
350.822	20.99
351.034	2.56
351.246	31.23
351.458	92.67
351.669	66.05
351.881	35.33
352.093	90.62
352.305	-13.82
352.517	90.62
352.728	14.85
352.94	92.67
353.152	111.1
353.363	31.23
353.575	-9.73
353.787	92.67
353.999	39.42
354.21	35.33
354.422	37.38
354.633	23.04
354.845	59.9
355.057	84.48
355.268	12.8
355.48	88.57
355.692	25.09
355.903	78.33
356.115	-3.58
356.326	80.38
356.538	35.33
356.749	51.71
356.961	86.53
357.172	102.91
357.384	-30.21
357.595	57.86
357.807	64
358.018	35.33
358.23	20.99
358.441	43.52
358.653	84.48
358.864	51.71
359.075	-15.87
359.287	31.23
359.498	51.71
359.709	10.75
359.921	100.86
360.132	80.38
360.344	70.14
360.555	-30.21
360.766	125.44
360.977	39.42
361.189	35.33
361.4	18.94
361.611	94.72
361.823	59.9
362.034	27.14
362.245	78.33
362.456	-15.87
362.667	100.86
362.879	14.85
363.09	51.71
363.301	35.33
363.512	-5.63
363.723	98.81
363.935	53.76
364.146	90.62
364.357	45.57
364.568	-24.06
364.779	-11.78
364.99	31.23
365.201	27.14
365.412	84.48
365.623	43.52
365.834	84.48
366.045	59.9
366.256	47.62
366.467	72.19
366.678	25.09
366.889	66.05
367.1	92.67
367.311	59.9
367.522	76.29
367.733	55.81
367.944	61.95
368.155	66.05
368.366	31.23
368.577	-9.73
368.788	55.81
368.999	6.66
369.209	37.38
369.42	-44.54
369.631	123.39
369.842	57.86
370.053	74.24
370.264	16.9
370.474	51.71
370.685	-22.02
370.896	76.29
371.107	59.9
371.317	68.09
371.528	31.23
371.739	80.38
371.95	35.33
372.16	109.05
372.371	102.91
372.582	59.9
372.792	33.28
373.003	61.95
373.214	-30.21
373.424	117.25
373.635	92.67
373.846	55.81
374.056	78.33
374.267	57.86
374.477	18.94
374.688	121.34
374.898	41.47
375.109	66.05
375.319	49.66
375.53	111.1
375.74	-11.78
375.951	86.53
376.161	45.57
376.372	53.76
376.582	29.18
376.793	119.29
377.003	92.67
377.214	68.09
377.424	41.47
377.635	88.57
377.845	57.86
378.055	125.44
378.266	88.57
378.476	41.47
378.686	31.23
378.897	86.53
379.107	59.9
379.317	53.76
379.528	20.99
379.738	74.24
379.948	37.38
380.158	102.91
380.369	111.1
380.579	68.09
380.789	90.62
380.999	102.91
381.21	64
381.42	104.96
381.63	59.9
381.84	27.14
382.05	31.23
382.261	64
382.471	74.24
382.681	92.67
382.891	49.66
383.101	78.33
383.311	18.94
383.521	45.57
383.731	70.14
383.941	131.58
384.151	53.76
384.361	66.05
384.571	80.38
384.781	45.57
384.991	107.01
385.201	66.05
385.411	90.62
385.621	10.75
385.831	90.62
386.041	35.33
386.251	135.68
386.461	131.58
386.671	57.86
386.881	70.14
387.091	88.57
387.301	88.57
387.511	37.38
387.72	94.72
387.93	129.53
388.14	43.52
388.35	104.96
388.56	117.25
388.769	125.44
388.979	31.23
389.189	-13.82
389.399	57.86
389.609	23.04
389.818	37.38
390.028	76.29
390.238	66.05
390.447	45.57
390.657	20.99
390.867	92.67
391.076	49.66
391.286	20.99
391.496	121.34
391.705	70.14
391.915	72.19
392.125	121.34
392.334	156.16
392.544	68.09
392.753	-34.3
392.963	94.72
393.172	66.05
393.382	68.09
393.591	80.38
393.801	74.24
394.01	104.96
394.22	96.77
394.429	145.92
394.639	88.57
394.848	115.2
395.058	84.48
395.267	133.63
395.477	104.96
395.686	115.2
395.895	125.44
396.105	168.45
396.314	107.01
396.524	217.6
396.733	92.67
396.942	172.54
397.152	123.39
397.361	90.62
397.57	115.2
397.78	111.1
397.989	131.58
398.198	166.4
398.407	47.62
398.617	137.73
398.826	133.63
399.035	84.48
399.244	125.44
399.453	121.34
399.663	84.48
399.872	184.83
400.081	80.38
400.29	143.87
400.499	111.1
400.708	109.05
400.917	115.2
401.127	37.38
401.336	172.54
401.545	92.67
401.754	154.11
401.963	193.02
402.172	174.59
402.381	80.38
402.59	190.97
402.799	129.53
403.008	141.82
403.217	88.57
403.426	88.57
403.635	90.62
403.844	125.44
404.053	117.25
404.262	133.63
404.471	121.34
404.68	205.31
404.888	193.02
405.097	84.48
405.306	195.07
405.515	178.69
405.724	145.92
405.933	186.88
406.142	160.25
406.35	119.29
406.559	154.11
406.768	184.83
406.977	203.26
407.185	250.36
407.394	219.64
407.603	164.35
407.812	221.69
408.02	252.41
408.229	186.88
408.438	268.8
408.646	279.04
408.855	252.41
409.064	272.89
409.272	317.95
409.481	248.32
409.69	301.56
409.898	242.17
410.107	317.95
410.315	293.37
410.524	258.56
410.733	324.09
410.941	371.19
411.15	446.97
411.358	367.1
411.567	406.01
411.775	367.1
411.984	383.48
412.192	473.59
412.401	438.78
412.609	492.02
412.818	494.07
413.026	551.42
413.234	477.69
413.443	559.61
413.651	541.18
413.86	559.61
414.068	578.04
414.276	651.77
414.485	698.87
414.693	582.14
414.901	762.36
415.11	680.44
415.318	657.91
415.526	748.02
415.734	834.04
415.943	770.55
416.151	874.99
416.359	801.27
416.567	858.61
416.776	934.39
416.984	1030.64
417.192	997.87
417.4	1051.12
417.608	944.63
417.817	1038.83
418.025	1077.74
418.233	1219.05
418.441	1139.18
418.649	1249.77
418.857	1278.44
419.065	1346.03
419.273	1348.08
419.481	1370.6
419.689	1542.63
419.897	1511.91
420.105	1581.54
420.313	1612.26
420.521	1702.37
420.729	1737.19
420.937	1798.63
421.145	1831.4
421.353	1964.51
421.561	2052.58
421.769	1984.99
421.977	2136.54
422.185	2150.88
422.393	2247.13
422.601	2378.2
422.809	2296.28
423.017	2306.52
423.224	2390.49
423.432	2615.77
423.64	2517.47
423.848	2785.75
424.056	2777.56
424.263	2949.59
424.471	2990.55
424.679	3004.88
424.887	3105.23
425.094	3314.13
425.302	3283.41
425.51	3418.57
425.718	3459.53
425.925	3559.88
426.133	3693
426.341	3842.5
426.548	4143.55
426.756	4137.41
426.964	4182.46
427.171	4231.62
427.379	4567.48
427.586	4544.95
427.794	4764.09
428.001	4993.46
428.209	5056.95
428.417	5009.84
428.624	5499.31
428.832	5458.35
429.039	5298.61
429.247	5501.36
429.454	5974.44
429.662	6320.54
429.869	5738.92
430.076	6295.97
430.284	6203.81
430.491	6412.7
430.699	6805.91
430.906	6826.39
431.114	6951.32
431.321	7113.11
431.528	7250.32
431.736	7737.74
431.943	8092.04
432.15	7694.73
432.358	8055.17
432.565	8352.13
432.772	8348.03
432.979	8925.56
433.187	9070.97
433.394	9017.72
433.601	9791.85
433.808	9783.66
434.016	9507.18
434.223	9900.39
434.43	10617.18
434.637	10324.32
434.844	11092.31
435.052	11254.1
435.259	11166.04
435.466	11295.06
435.673	11131.22
435.88	11981.13
436.087	12654.91
436.294	12515.65
436.501	12228.93
436.708	12562.75
436.915	12923.19
437.122	13558.07
437.329	13488.43
437.537	14039.34
437.743	13855.02
437.95	14227.75
438.157	14860.57
438.364	15315.22
438.571	15249.69
438.778	15313.17
438.985	16675.07
439.192	16144.65
439.399	16701.7
439.606	16388.36
439.813	17150.2
440.02	18247.91
440.227	17893.61
440.433	17627.38
440.64	18419.94
440.847	18165.99
441.054	18673.89
441.261	19861.71
441.467	19429.59
441.674	20005.07
441.881	20893.89
442.088	20881.6
442.294	20809.92
442.501	21108.93
442.708	21770.42
442.914	22270.12
443.121	23247.01
443.328	22933.67
443.534	24643.72
443.741	23470.23
443.948	23593.11
444.154	25421.95
444.361	24887.43
444.568	25299.07
444.774	25383.04
444.981	25438.33
445.187	26103.92
445.394	27179.11
445.6	27197.54
445.807	29780.03
446.013	28340.3
446.22	28762.19
446.426	29939.77
446.633	30109.75
446.839	31141.92
447.046	29759.55
447.252	31115.3
447.459	31617.05
447.665	31641.63
447.871	33073.16
448.078	33927.16
448.284	32714.76
448.491	33554.43
448.697	34936.81
448.903	35422.18
449.11	35301.35
449.316	34936.81
449.522	35254.25
449.728	36493.27
449.935	36538.32
450.141	36442.07
450.347	37517.25
450.553	36079.58
450.76	36726.74
450.966	37605.31
451.172	37070.79
451.378	38025.15
451.584	37582.79
451.791	38084.54
451.997	38131.64
452.203	38723.51
452.409	38756.27
452.615	38379.45
452.821	37154.76
453.027	36474.84
453.233	38811.57
453.44	37218.25
453.646	37375.94
453.852	37461.96
454.058	38414.26
454.264	36956.11
454.47	37949.37
454.676	36532.18
454.882	37707.71
455.088	34838.51
455.294	35194.85
455.5	35586.02
455.705	36323.29
455.911	34650.1
456.117	34244.6
456.323	33445.89
456.529	31553.57
456.735	33394.69
456.941	32288.79
457.147	31191.08
457.352	31041.57
457.558	30582.83
457.764	30535.73
457.97	30068.79
458.176	29061.19
458.381	29171.78
458.587	27684.95
458.793	27371.61
458.999	26515.56
459.204	28274.77
459.41	27431.01
459.616	25456.76
459.821	25913.46
460.027	25632.89
460.233	24805.51
460.438	23724.18
460.644	24029.33
460.85	23130.27
461.055	22583.46
461.261	22755.49
461.466	20897.99
461.672	20332.75
461.878	21616.82
462.083	20355.27
462.289	20130
462.494	19722.45
462.7	18731.23
462.905	18118.89
463.111	19161.31
463.316	19249.37
463.522	18796.77
463.727	19024.09
463.932	18487.53
464.138	18776.29
464.343	18692.32
464.549	18129.13
464.754	18753.76
464.959	18551.01
465.165	18358.5
465.37	17846.51
465.575	17123.58
465.781	17795.31
465.986	17971.44
466.191	17447.16
466.397	17021.18
466.602	16150.79
466.807	16967.93
467.012	16947.45
467.218	16773.38
467.423	16435.46
467.628	16466.18
467.833	17535.22
468.038	16746.75
468.244	16433.41
468.449	16914.69
468.654	16472.32
468.859	16269.58
469.064	16185.61
469.269	15442.2
469.474	15685.9
469.679	16066.83
469.885	15241.5
470.09	15716.62
470.295	15698.19
470.5	15239.45
470.705	15200.54
470.91	15012.12
471.115	14842.14
471.32	15001.88
471.525	14784.8
471.73	14774.56
471.935	14393.64
472.139	14141.74
472.344	14352.68
472.549	14246.18
472.754	14027.05
472.959	13818.16
473.164	13480.24
473.369	13162.81
473.574	13652.27
473.778	13545.78
473.983	13447.47
474.188	13390.13
474.393	12837.18
474.598	12667.2
474.802	12714.3
475.007	12616
475.212	12704.06
475.417	12128.58
475.621	12341.57
475.826	12484.93
476.031	12061
476.235	11798.86
476.44	12235.08
476.645	11946.31
476.849	11819.34
477.054	11645.26
477.259	11422.03
477.463	11571.54
477.668	11170.13
477.872	11530.58
478.077	11309.4
478.282	10762.59
478.486	10846.55
478.691	10617.18
478.895	10873.18
479.1	10490.21
479.304	10883.42
479.509	10344.8
479.713	10527.07
479.918	10322.27
480.122	10097
480.326	10400.1
480.531	10449.25
480.735	9953.64
480.94	10137.96
481.144	10240.36
481.348	10121.57
481.553	9984.36
481.757	9797.99
481.961	10023.27
482.166	10228.07
482.37	10226.02
482.574	9836.91
482.778	9947.5
482.983	9990.5
483.187	10099.05
483.391	10025.32
483.595	9918.82
483.8	9736.56
484.004	9853.29
484.208	10035.56
484.412	9869.67
484.616	10035.56
484.821	10097
485.025	9894.25
485.229	10004.84
485.433	9890.15
485.637	10066.28
485.841	9953.64
486.045	9787.75
486.249	9939.3
486.453	9875.82
486.657	9832.81
486.861	10223.97
487.065	9689.45
487.269	10013.03
487.473	9773.42
487.677	9972.07
487.881	10066.28
488.085	10006.89
488.289	10230.12
488.493	9918.82
488.697	10037.61
488.901	9992.55
489.105	9961.83
489.309	9937.26
489.512	9970.02
489.716	10203.49
489.92	10103.14
490.124	10318.18
490.328	10162.53
490.531	10240.36
490.735	10330.47
490.939	10365.28
491.143	10367.33
491.346	10318.18
491.55	10455.39
491.754	10420.58
491.958	10721.63
492.161	10537.31
492.365	10578.27
492.569	10494.3
492.772	10449.25
492.976	10744.16
493.18	10701.15
493.383	10828.12
493.587	10873.18
493.79	10938.71
493.994	10930.52
494.197	11348.31
494.401	11374.93
494.605	11032.92
494.808	11467.09
495.012	11598.16
495.215	11143.51
495.419	11354.45
495.622	11397.46
495.825	11747.66
496.029	11729.23
496.232	11995.46
496.436	11934.03
496.639	12362.05
496.843	12470.59
497.046	12421.44
497.249	12407.11
497.453	12325.19
497.656	12751.17
497.859	12726.59
498.063	12833.08
498.266	13318.45
498.469	13162.81
498.673	13402.42
498.876	13529.39
499.079	13732.14
499.282	13529.39
499.485	14020.91
499.689	14227.75
499.892	14240.04
500.095	14113.06
500.298	14573.86
500.501	14668.06
500.705	14827.81
500.908	15026.46
501.111	15108.38
501.314	15253.78
501.517	15483.16
501.72	15800.59
501.923	15491.35
502.126	16128.27
502.329	16296.2
502.532	16277.77
502.735	16492.8
502.938	16746.75
503.141	16886.01
503.344	17160.44
503.547	17225.98
503.75	17158.39
503.953	17621.24
504.156	17977.58
504.359	17629.43
504.562	18292.97
504.765	18383.08
504.968	18753.76
505.17	18868.45
505.373	18794.72
505.576	19359.96
505.779	19284.19
505.982	19378.39
506.185	20179.15
506.387	19681.49
506.59	19949.78
506.793	20748.48
506.996	20357.32
507.198	21098.69
507.401	21024.96
507.604	21123.26
507.807	21631.16
508.009	22055.09
508.212	21881.01
508.415	22204.59
508.617	22233.26
508.82	22624.42
509.022	22689.96
509.225	23169.18
509.428	23285.92
509.63	23314.59
509.833	23722.13
510.035	24146.06
510.238	24158.35
510.44	24404.11
510.643	24625.29
510.845	24912
511.048	24795.27
511.25	25452.67
511.453	25424
511.655	26454.12
511.858	25946.23
512.06	26339.44
512.262	26767.46
512.465	26660.97
512.667	27238.5
512.87	27531.36
513.072	27396.19
513.274	27709.53
513.477	28057.68
513.679	28502.09
513.881	28627.02
514.084	29177.92
514.286	29038.66
514.488	29358.14
514.69	29812.79
514.893	30345.26
515.095	30191.67
515.297	30482.48
515.499	30695.47
515.701	31066.15
515.904	31266.85
516.106	31531.04
516.308	32198.68
516.51	32157.72
516.712	32235.54
516.914	32768.01
517.116	33460.23
517.318	33245.19
517.52	33347.59
517.722	33468.42
517.925	34166.77
518.127	34777.07
518.329	34848.75
518.531	34463.73
518.733	35454.95
518.935	35774.43
519.136	35651.55
519.338	36358.1
519.54	35979.23
519.742	36933.58
519.944	37230.54
520.146	37396.42
520.348	37470.15
520.55	37992.38
520.752	37654.47
520.954	38467.51
521.155	38252.47
521.357	38936.49
521.559	39796.64
521.761	39460.77
521.963	39626.66
522.164	40005.53
522.366	40255.39
522.568	40552.34
522.77	40636.31
522.971	41140.11
523.173	41095.05
523.375	41389.96
523.576	41316.23
523.778	41551.75
523.98	42655.61
524.181	42018.69
524.383	42221.44
524.584	43183.98
524.786	42968.94
524.988	43179.89
525.189	43667.3
525.391	43577.19
525.592	43769.7
525.794	43982.69
525.995	44285.79
526.197	44283.74
526.398	44265.31
526.6	44945.23
526.801	44898.13
527.003	44820.31
527.204	45162.32
527.406	45522.76
527.607	45604.68
527.808	46088
528.01	45117.26
528.211	45866.82
528.412	46673.72
528.614	45961.03
528.815	46032.71
529.016	46481.21
529.218	46524.22
529.419	46651.19
529.62	47136.56
529.822	46827.32
530.023	47097.65
530.224	46841.65
530.425	47032.11
530.626	46587.71
530.828	47054.64
531.029	47914.79
531.23	47263.53
531.431	47304.49
531.632	47568.68
531.833	47818.53
532.035	47669.03
532.236	47288.11
532.437	48174.88
532.638	47632.17
532.839	48236.32
533.04	48023.33
533.241	47585.07
533.442	48758.55
533.643	48449.31
533.844	48168.74
534.045	48234.27
534.246	47875.88
534.447	48303.9
534.648	48119.59
534.849	48430.88
535.05	47712.04
535.251	48248.61
535.451	48127.78
535.652	48351.01
535.853	48336.67
536.054	48258.85
536.255	48217.89
536.456	47753
536.657	48385.82
536.857	48201.5
537.058	48400.16
537.259	48891.67
537.46	48570.14
537.66	48285.47
537.861	48621.34
538.062	48250.66
538.263	48850.71
538.463	48549.66
538.664	48402.21
538.865	48533.28
539.065	48754.46
539.266	48416.54
539.466	48756.5
539.667	47896.36
539.868	48938.77
540.068	48666.39
540.269	48117.54
540.469	48822.04
540.67	47941.41
540.87	48084.77
541.071	48338.72
541.271	48783.13
541.472	48570.14
541.672	48326.43
541.873	48262.94
542.073	47746.86
542.274	49045.27
542.474	48619.29
542.675	47933.22
542.875	48611.1
543.075	48365.34
543.276	47900.45
543.476	48443.16
543.676	48318.24
543.877	48533.28
544.077	48410.4
544.277	47974.18
544.478	48453.4
544.678	48627.48
544.878	48148.26
545.078	48733.98
545.279	48512.8
545.479	48301.85
545.679	48221.98
545.879	48471.84
546.079	48318.24
546.28	48107.3
546.48	47736.62
546.68	48199.46
546.88	48221.98
547.08	48213.79
547.28	48111.39
547.48	47599.4
547.68	48232.22
547.88	48131.87
548.081	48383.77
548.281	48592.67
548.481	48383.77
548.681	48537.37
548.881	48400.16
549.081	48283.42
549.28	47882.02
549.48	48527.13
549.68	48185.12
549.88	48430.88
550.08	48078.63
550.28	48351.01
550.48	48402.21
550.68	48107.3
550.88	47730.47
551.08	48064.29
551.279	48226.08
551.479	47939.36
551.679	47939.36
551.879	48049.95
552.079	48221.98
552.278	47896.36
552.478	47939.36
552.678	48176.93
552.878	48213.79
553.077	48086.82
553.277	47736.62
553.477	48250.66
553.676	48027.43
553.876	47662.89
554.076	47785.77
554.275	47763.24
554.475	47357.74
554.674	47689.51
554.874	47798.05
555.074	47748.9
555.273	47669.03
555.473	47834.92
555.672	47384.36
555.872	47712.04
556.071	47857.45
556.271	47898.41
556.47	47396.65
556.67	47505.2
556.869	47247.15
557.068	47337.26
557.268	46704.44
557.467	47499.05
557.667	47316.78
557.866	46974.77
558.065	47109.94
558.265	46886.71
558.464	46890.8
558.663	47120.18
558.863	46620.47
559.062	47902.5
559.261	46778.17
559.461	47263.53
559.66	46845.75
559.859	46864.18
560.058	46622.52
560.258	46657.34
560.457	45887.3
560.656	46516.03
560.855	46372.67
561.054	46288.7
561.253	46047.04
561.453	46319.42
561.652	46556.99
561.851	46282.56
562.05	45647.69
562.249	45756.23
562.448	46262.08
562.647	46190.4
562.846	45731.65
563.045	45647.69
563.244	45074.26
563.443	45975.36
563.642	45258.57
563.841	45346.64
564.04	45303.63
564.239	45619.02
564.438	45248.33
564.637	44582.74
564.836	45428.55
565.035	44889.94
565.234	45209.42
565.432	44486.49
565.631	44703.57
565.83	45254.48
566.029	44509.02
566.228	44646.23
566.427	44412.76
566.625	44646.23
566.824	44240.73
567.023	44263.26
567.222	43829.09
567.42	44369.75
567.619	44343.13
567.818	44087.14
568.016	43624.29
568.215	43927.39
568.414	43456.36
568.612	44101.47
568.811	43208.56
569.01	43847.52
569.208	43548.52
569.407	43325.29
569.605	42907.51
569.804	43433.83
570.002	42710.9
570.201	43597.67
570.4	42846.07
570.598	42581.88
570.797	42717.04
570.995	42893.17
571.193	42241.92
571.392	42671.99
571.59	42196.86
571.789	42426.23
571.987	42559.35
572.186	42002.3
572.384	42065.79
572.582	42010.49
572.781	42268.54
572.979	41367.43
573.177	41748.35
573.376	41625.48
573.574	41353.1
573.772	41760.64
573.971	41512.84
574.169	41176.97
574.367	40968.08
574.565	41605
574.763	41418.63
574.962	40886.16
575.16	40433.56
575.358	40886.16
575.556	40195.99
575.754	41039.76
575.952	40632.21
576.151	40558.49
576.349	40034.21
576.547	40079.26
576.745	40093.6
576.943	40075.16
577.141	40017.82
577.339	40109.98
577.537	39641
577.735	39731.11
577.933	39327.66
578.131	39493.54
578.329	39298.98
578.527	39303.08
578.725	39118.76
578.923	39544.74
579.121	38997.93
579.319	38891.44
579.516	39165.87
579.714	39045.04
579.912	38481.84
580.11	38623.15
580.308	38506.42
580.506	38666.16
580.704	38330.3
580.901	38199.23
581.099	38295.48
581.297	37949.37
581.495	38256.57
581.692	38234.04
581.89	37814.21
582.088	38002.62
582.285	37421
582.483	37869.5
582.681	38092.73
582.878	37324.74
583.076	37216.2
583.274	37547.97
583.471	36585.43
583.669	37244.87
583.866	36519.89
584.064	36931.53
584.262	36392.92
584.459	36933.58
584.657	36573.14
584.854	36816.85
585.052	36106.2
585.249	36691.92
585.447	36341.72
585.644	35995.61
585.841	36057.05
586.039	36435.92
586.236	35594.21
586.434	36120.54
586.631	35590.11
586.828	35799.01
587.026	35682.27
587.223	35948.51
587.42	35653.6
587.618	35383.27
587.815	35205.09
588.012	35006.44
588.21	35078.12
588.407	35090.41
588.604	34912.24
588.801	34803.69
588.999	34756.59
589.196	34469.87
589.393	34602.99
589.59	34297.84
589.787	34240.5
589.984	34279.41
590.182	34215.93
590.379	34082.81
590.576	34060.28
590.773	33982.46
590.97	33660.93
591.167	34142.2
591.364	33196.04
591.561	33816.57
591.758	33617.92
591.955	33742.85
592.152	33470.47
592.349	33259.52
592.546	33363.97
592.743	33398.79
592.94	32731.15
593.137	32618.51
593.334	32989.19
593.531	32346.13
593.727	32714.76
593.924	32563.22
594.121	32428.05
594.318	32806.92
594.515	31809.56
594.712	32507.92
594.908	32047.13
595.105	32073.75
595.302	31846.43
595.499	31985.69
595.696	31359.01
595.892	31637.53
596.089	31715.36
596.286	31926.3
596.482	31342.63
596.679	31629.34
596.876	31576.09
597.072	31039.53
597.269	31002.66
597.466	30623.79
597.662	30871.59
597.859	30705.71
598.055	30613.55
598.252	30689.32
598.448	30558.25
598.645	30515.25
598.841	30322.74
599.038	30529.58
599.234	30367.79
599.431	30306.35
599.627	30079.03
599.824	30425.14
600.02	29988.92
600.217	30031.93
600.413	29769.79
600.609	29745.21
600.806	29511.74
601.002	29904.95
601.198	29499.45
601.395	29329.47
601.591	29325.38
601.787	29464.64
601.984	29048.9
602.18	29278.27
602.376	29057.09
602.572	29012.04
602.769	29366.34
602.965	28487.76
603.161	28524.62
603.357	28297.3
603.553	28178.51
603.75	28579.92
603.946	28328.02
604.142	28442.7
604.338	28018.77
604.534	28223.57
604.73	27869.27
604.926	28045.4
605.122	27734.1
605.318	28004.44
605.514	27902.04
605.71	27574.36
605.906	27531.36
606.102	27643.99
606.298	27656.28
606.494	27682.91
606.69	27529.31
606.886	27486.3
607.082	26990.69
607.278	27476.06
607.474	26996.84
607.67	27310.18
607.866	26527.85
608.062	27320.42
608.257	26697.83
608.453	27418.72
608.649	26878.05
608.845	26574.95
609.041	26962.02
609.236	26669.16
609.432	26499.18
609.628	26658.92
609.824	26259.57
610.019	26458.22
610.215	26337.39
610.411	26400.88
610.606	25956.47
610.802	26278
610.998	26232.94
611.193	26251.38
611.389	26134.64
611.584	25858.17
611.78	25952.37
611.976	25790.58
612.171	25835.64
612.367	25964.66
612.562	25669.75
612.758	25624.7
612.953	25563.26
613.149	25970.8
613.344	25520.25
613.539	25825.4
613.735	25792.63
613.93	25864.31
614.126	25325.69
614.321	25915.51
614.517	25553.02
614.712	25593.98
614.907	25337.98
615.103	25602.17
615.298	25200.77
615.493	25262.21
615.688	25112.7
615.884	25716.86
616.079	24969.35
616.274	25032.83
616.47	25116.8
616.665	25133.18
616.86	24922.24
617.055	24823.94
617.25	24760.45
617.445	25315.45
617.641	24647.82
617.836	24576.14
618.031	24117.39
618.226	24821.89
618.421	24307.85
618.616	25106.56
618.811	24481.93
619.006	24723.59
619.201	23740.57
619.396	24103.06
619.591	23779.48
619.786	23961.75
619.981	23591.06
620.176	24068.24
620.371	23652.5
620.566	23748.76
620.761	23609.5
620.956	23666.84
621.151	23064.74
621.346	23402.65
621.541	22831.27
621.735	23142.56
621.93	22814.88
622.125	23134.37
622.32	22593.7
622.515	22861.99
622.709	22513.83
622.904	22483.11
623.099	22595.75
623.294	22251.69
623.488	21995.7
623.683	22337.71
623.878	21754.04
624.072	21694.64
624.267	21549.24
624.462	21762.23
624.656	21694.64
624.851	21346.49
625.046	21373.11
625.24	21217.47
625.435	21094.59
625.629	20887.75
625.824	20703.43
626.018	20644.04
626.213	20293.83
626.407	20439.24
626.602	20332.75
626.796	20549.83
626.991	20039.89
627.185	20050.13
627.38	19968.21
627.574	19802.32
627.768	19779.79
627.963	19718.36
628.157	19370.2
628.352	19921.1
628.546	19347.67
628.74	19566.81
628.935	19106.01
629.129	19329.24
629.323	18929.89
629.517	19087.58
629.712	18927.84
629.906	18893.02
630.1	18614.5
630.294	18573.54
630.489	18462.95
630.683	18530.53
630.877	18319.59
631.071	18258.15
631.265	18403.56
631.459	17967.34
631.653	18125.04
631.848	17965.29
632.042	17803.5
632.236	17873.14
632.43	17705.2
632.624	17637.62
632.818	17512.69
633.012	17121.53
633.206	17256.7
633.4	17217.79
633.594	17174.78
633.788	17105.15
633.982	16978.17
634.176	16871.68
634.369	16601.35
634.563	16728.32
634.757	16566.53
634.951	16687.36
635.145	16498.95
635.339	16627.97
635.533	16331.01
635.726	16212.23
635.92	16034.06
636.114	15995.15
636.308	15935.76
636.501	16032.01
636.695	15739.15
636.889	15708.43
637.083	15646.99
637.276	15591.7
637.47	15655.19
637.664	15663.38
637.857	15503.64
638.051	15313.17
638.244	15104.28
638.438	15145.24
638.632	15130.91
638.825	15321.37
639.019	14772.51
639.212	14799.13
639.406	14969.12
639.599	14625.06
639.793	14721.31
639.986	14510.37
640.18	14559.52
640.373	14469.41
640.567	14258.47
640.76	14395.68
640.954	14084.39
641.147	14059.82
641.34	14000.43
641.534	13867.31
641.727	13887.79
641.92	13932.84
642.114	13670.7
642.307	13949.23
642.5	13662.51
642.694	13437.23
642.887	13474.1
643.08	13402.42
643.273	13433.14
643.467	13455.67
643.66	13148.47
643.853	12978.49
644.046	12822.84
644.239	13103.42
644.432	13031.74
644.626	12839.23
644.819	12947.77
645.012	12818.75
645.205	12800.32
645.398	12826.94
645.591	12673.34
645.784	12792.12
645.977	12128.58
646.17	12472.64
646.363	12351.81
646.556	12099.91
646.749	12149.06
646.942	12409.15
647.135	11958.6
647.328	12085.58
647.521	11815.24
647.714	11678.03
647.907	11868.49
648.099	11862.35
648.292	11825.48
648.485	11471.18
648.678	11635.02
648.871	11616.59
649.064	11405.65
649.256	11573.58
649.449	11309.4
649.642	11180.37
649.835	11178.33
650.027	11540.82
650.22	11333.97
650.413	11092.31
650.605	11223.38
650.798	10946.9
650.991	11026.78
651.183	11247.96
651.376	10723.68
651.568	10783.07
651.761	10912.09
651.954	10643.81
652.146	10850.65
652.339	10525.02
652.531	10551.65
652.724	10525.02
652.916	10492.26
653.109	10291.55
653.301	10316.13
653.494	10357.09
653.686	9996.65
653.879	10365.28
654.071	10056.04
654.263	10135.91
654.456	10152.29
654.648	10080.61
654.84	9881.96
655.033	9871.72
655.225	9703.79
655.417	9769.32
655.61	9744.75
655.802	9730.41
655.994	9814.38
656.186	9640.3
656.379	9582.96
656.571	9404.78
656.763	9406.83
656.955	9378.16
657.148	9564.53
657.34	9372.02
657.532	9132.4
657.724	9222.52
657.916	9273.71
658.108	9261.43
658.3	9052.53
658.492	9171.32
658.684	8964.47
658.876	8968.57
659.068	8989.05
659.26	8802.68
659.452	8720.76
659.644	8956.28
659.836	8812.92
660.028	8941.94
660.22	8556.93
660.412	8593.79
660.604	8518.01
660.796	8655.23
660.988	8434.05
661.18	8452.48
661.372	8335.74
661.563	8434.05
661.755	8466.81
661.947	8225.15
662.139	8436.1
662.331	8059.27
662.522	8110.47
662.714	8014.21
662.906	7985.54
663.097	7993.73
663.289	8001.93
663.481	7805.32
663.673	7786.89
663.864	7825.8
664.056	7764.36
664.247	7784.84
664.439	7725.45
664.631	7772.55
664.822	7698.83
665.014	7653.77
665.205	7506.32
665.397	7453.07
665.588	7594.38
665.78	7530.89
665.971	7369.1
666.163	7487.89
666.354	7350.67
666.546	7494.03
666.737	7387.54
666.929	7383.44
667.12	7215.51
667.311	7268.75
667.503	7215.51
667.694	7078.29
667.885	7154.07
668.077	7223.7
668.268	7125.4
668.459	6979.99
668.651	6803.86
668.842	6977.94
669.033	7027.09
669.224	7020.95
669.416	7057.81
669.607	6934.93
669.798	6660.51
669.989	6756.76
670.18	6764.95
670.371	6797.72
670.563	6605.21
670.754	6732.19
670.945	6599.07
671.136	6726.04
671.327	6658.46
671.518	6617.5
671.709	6709.66
671.9	6568.35
672.091	6424.99
672.282	6371.74
672.473	6291.87
672.664	6371.74
672.855	6345.12
673.046	6265.25
673.237	6392.22
673.428	6341.02
673.619	6195.62
673.809	6300.06
674	6220.19
674.191	6199.71
674.382	6216.1
674.573	6168.99
674.764	6222.24
674.954	6304.16
675.145	6085.03
675.336	6066.6
675.527	5982.63
675.717	5949.86
675.908	6080.93
676.099	5974.44
676.289	5913
676.48	5761.45
676.671	5898.66
676.861	5792.17
677.052	5861.8
677.243	5675.43
677.433	5900.71
677.624	5728.68
677.814	5759.4
678.005	5728.68
678.195	5591.47
678.386	5581.23
678.576	5581.23
678.767	5517.74
678.957	5613.99
679.148	5544.36
679.338	5638.57
679.529	5599.66
679.719	5546.41
679.909	5626.28
680.1	5341.61
680.29	5544.36
680.481	5507.5
680.671	5478.83
680.861	5319.09
681.052	5487.02
681.242	5321.13
681.432	5286.32
681.622	5282.22
681.813	5314.99
682.003	5321.13
682.193	5179.82
682.383	5306.8
682.573	5384.62
682.764	5134.77
682.954	5292.46
683.144	5095.86
683.334	5104.05
683.524	5302.7
683.714	5048.75
683.904	5249.46
684.094	5120.43
684.284	5081.52
684.474	5106.1
684.664	5138.87
684.854	5058.99
685.044	5042.61
685.234	5091.76
685.424	4948.4
685.614	5038.52
685.804	4977.08
685.994	4972.98
686.184	4929.97
686.374	5046.71
686.564	4936.12
686.753	4995.51
686.943	4823.48
687.133	4878.77
687.323	4762.04
687.513	4846.01
687.702	4794.81
687.892	4651.45
688.082	4655.54
688.272	4692.41
688.461	4846.01
688.651	4766.14
688.841	4553.15
689.03	4633.02
689.22	4688.31
689.41	4555.19
689.599	4483.52
689.789	4590.01
689.979	4542.91
690.168	4463.04
690.358	4413.88
690.547	4465.08
690.737	4426.17
690.926	4454.84
691.116	4387.26
691.305	4350.4
691.495	4352.45
691.684	4303.29
691.874	4327.87
692.063	4422.08
692.252	4248
692.442	4276.67
692.631	4276.67
692.82	4280.77
693.01	4217.28
693.199	4010.43
693.388	4254.14
693.578	4231.62
693.767	4172.22
693.956	4063.68
694.146	4207.04
694.335	4080.07
694.524	3977.67
694.713	4112.83
694.902	4022.72
695.092	4065.73
695.281	4116.93
695.47	4010.43
695.659	4059.59
695.848	3996.1
696.037	3914.18
696.226	4096.45
696.415	4016.58
696.604	4108.74
696.793	3905.99
696.982	3967.43
697.171	4047.3
697.36	4012.48
697.549	3977.67
697.738	3959.24
697.927	3869.12
698.116	3807.69
698.305	4010.43
698.494	3873.22
698.683	3899.84
698.872	3838.41
699.061	3912.13
699.25	3832.26
699.438	3862.98
699.627	3920.32
699.816	3977.67
700.005	3723.72
700.193	3946.95
700.382	3869.12
700.571	3680.71
700.76	3856.84
700.948	3832.26
701.137	3709.38
701.326	3713.48
701.514	3774.92
701.703	3781.06
701.892	3680.71
702.08	3664.33
702.269	3617.22
702.457	3715.53
702.646	3809.73
702.834	3574.22
703.023	3578.31
703.212	3832.26
703.4	3797.45
703.589	3770.82
703.777	3795.4
703.965	3672.52
704.154	3713.48
704.342	3738.05
704.531	3559.88
704.719	3533.26
704.907	3602.89
705.096	3598.79
705.284	3602.89
705.472	3617.22
705.661	3447.24
705.849	3563.98
706.037	3670.47
706.226	3406.28
706.414	3553.74
706.602	3613.13
706.79	3512.78
706.979	3506.63
707.167	3647.94
707.355	3484.11
707.543	3475.91
707.731	3738.05
707.919	3547.59
708.107	3539.4
708.296	3514.83
708.484	3512.78
708.672	3580.36
708.86	3537.35
709.048	3410.38
709.236	3518.92
709.424	3400.14
709.612	3531.21
709.8	3332.56
709.988	3402.19
710.176	3420.62
710.364	3443.15
710.551	3449.29
710.739	3295.69
710.927	3394
711.115	3328.46
711.303	3441.1
711.491	3330.51
711.679	3299.79
711.866	3332.56
712.054	3295.69
712.242	3299.79
712.43	3514.83
712.617	3267.02
712.805	3297.74
712.993	3176.91
713.181	3445.2
713.368	3246.54
713.556	3178.96
713.744	3295.69
713.931	3432.91
714.119	3207.63
714.306	3398.09
714.494	3191.25
714.682	3246.54
714.869	3236.3
715.057	3211.73
715.244	3277.26
715.432	3226.06
715.619	3322.32
715.807	3168.72
715.994	3154.38
716.182	3267.02
716.369	3334.61
716.556	3221.97
716.744	3183.06
716.931	3209.68
717.119	3254.73
717.306	3213.77
717.493	3138
717.681	3103.18
717.868	3152.34
718.055	3230.16
718.242	3023.31
718.43	3189.2
718.617	3107.28
718.804	3103.18
718.991	3191.25
719.179	3140.05
719.366	3015.12
719.553	3119.57
719.74	3070.42
719.927	3031.51
720.114	3041.75
720.301	3140.05
720.488	2978.26
720.676	3035.6
720.863	2982.35
721.05	3004.88
721.237	3031.51
721.424	3041.75
721.611	2935.25
721.798	3119.57
721.985	3008.98
722.172	3051.99
722.358	2992.59
722.545	3027.41
722.732	2877.91
722.919	3033.55
723.106	3062.23
723.293	3099.09
723.48	2996.69
723.667	2959.83
723.853	2871.76
724.04	2822.61
724.227	2834.9
724.414	3000.79
724.6	2757.08
724.787	2959.83
724.974	2906.58
725.161	2904.53
725.347	2931.16
725.534	2843.09
725.72	2935.25
725.907	2918.87
726.094	2939.35
726.28	2912.72
726.467	2861.52
726.653	2961.87
726.84	2853.33
727.027	2910.68
727.213	2828.76
727.4	2765.27
727.586	2863.57
727.773	2818.52
727.959	2832.85
728.145	2890.2
728.332	2820.56
728.518	2824.66
728.705	2839
728.891	2808.28
729.077	2812.37
729.264	2712.02
729.45	2669.02
729.636	2847.19
729.823	2767.32
730.009	2722.26
730.195	2816.47
730.382	2689.49
730.568	2771.41
730.754	2734.55
730.94	2908.63
731.126	2752.98
731.313	2726.36
731.499	2828.76
731.685	2679.26
731.871	2746.84
732.057	2755.03
732.243	2593.24
732.429	2638.3
732.615	2767.32
732.801	2673.11
732.987	2843.09
733.173	2666.97
733.359	2648.54
733.545	2621.91
733.731	2703.83
733.917	2791.89
734.103	2800.09
734.289	2685.4
734.475	2701.78
734.661	2699.73
734.847	2699.73
735.033	2712.02
735.219	2605.53
735.404	2726.36
735.59	2578.9
735.776	2576.86
735.962	2574.81
736.148	2609.62
736.333	2578.9
736.519	2652.63
736.705	2666.97
736.89	2585.05
737.076	2683.35
737.262	2492.89
737.447	2675.16
737.633	2550.23
737.819	2570.71
738.004	2542.04
738.19	2591.19
738.375	2453.98
738.561	2562.52
738.747	2558.42
738.932	2511.32
739.118	2546.14
739.303	2621.91
739.489	2480.6
739.674	2521.56
739.859	2345.44
740.045	2406.88
740.23	2499.03
740.416	2462.17
740.601	2482.65
740.786	2359.77
740.972	2345.44
741.157	2443.74
741.342	2306.52
741.528	2425.31
741.713	2327
741.898	2439.64
742.084	2410.97
742.269	2509.27
742.454	2329.05
742.639	2363.87
742.824	2349.53
743.01	2322.91
743.195	2431.45
743.38	2247.13
743.565	2339.29
743.75	2306.52
743.935	2202.08
744.12	2228.7
744.305	2261.47
744.49	2304.48
744.675	2310.62
744.86	2220.51
745.045	2118.11
745.23	2238.94
745.415	2230.75
745.6	2220.51
745.785	2173.41
745.97	2234.85
746.155	2189.79
746.34	2134.5
746.525	2048.48
746.71	2267.61
746.895	2124.26
747.079	2085.34
747.264	2085.34
747.449	2044.38
747.634	2040.29
747.819	2056.67
748.003	1952.23
748.188	2001.38
748.373	2001.38
748.557	2001.38
748.742	2009.57
748.927	2013.67
749.111	2071.01
749.296	1862.12
749.481	1890.79
749.665	2046.43
749.85	2017.76
750.034	1993.19
750.219	1896.93
750.404	1995.23
750.588	1944.03
750.773	1872.36
750.957	1886.69
751.141	1933.79
751.326	1892.84
751.51	1767.91
751.695	1784.29
751.879	1724.9
752.064	1794.53
752.248	1640.93
752.432	1792.48
752.617	1683.94
752.801	1794.53
752.985	1823.2
753.17	1839.59
753.354	1724.9
753.538	1653.22
753.722	1710.57
753.907	1665.51
754.091	1638.89
754.275	1624.55
754.459	1663.46
754.643	1563.11
754.828	1597.93
755.012	1585.64
755.196	1620.46
755.38	1520.1
755.564	1546.73
755.748	1614.31
755.932	1503.72
756.116	1481.19
756.3	1538.54
756.484	1487.34
756.668	1450.47
756.852	1436.14
757.036	1497.58
757.22	1444.33
757.404	1468.91
757.588	1382.89
757.772	1454.57
757.956	1470.95
758.14	1468.91
758.323	1421.8
758.507	1391.08
758.691	1399.27
758.875	1495.53
759.059	1432.04
759.242	1358.32
759.426	1245.68
759.61	1427.95
759.794	1374.7
759.977	1274.35
760.161	1417.71
760.345	1286.64
760.528	1370.6
760.712	1319.4
760.895	1167.85
761.079	1262.06
761.263	1219.05
761.446	1325.55
761.63	1290.73
761.813	1247.72
761.997	1280.49
762.18	1249.77
762.364	1145.33
762.547	1196.53
762.731	1182.19
762.914	1126.89
763.098	1190.38
763.281	1157.61
763.464	1176.05
763.648	1202.67
763.831	1161.71
764.015	1184.24
764.198	1202.67
764.381	1243.63
764.564	1090.03
764.748	1176.05
764.931	1151.47
765.114	1163.76
765.297	1118.7
765.481	1182.19
765.664	1110.51
765.847	1145.33
766.03	1116.65
766.213	1055.22
766.397	1171.95
766.58	1087.98
766.763	1122.8
766.946	1124.85
767.129	1030.64
767.312	1071.6
767.495	1153.52
767.678	1087.98
767.861	1079.79
768.044	1100.27
768.227	1028.59
768.41	1096.18
768.593	1057.26
768.776	1171.95
768.959	1049.07
769.142	1124.85
769.324	1051.12
769.507	1102.32
769.69	1057.26
769.873	1032.69
770.056	1008.11
770.239	1049.07
770.421	1030.64
770.604	1034.74
770.787	985.58
770.97	1034.74
771.152	958.96
771.335	1042.93
771.518	1032.69
771.7	1006.06
771.883	1071.6
772.066	1008.11
772.248	1016.3
772.431	940.53
772.613	1026.54
772.796	999.92
772.978	1010.16
773.161	981.49
773.343	963.06
773.526	936.43
773.708	883.19
773.891	1024.5
774.073	965.11
774.256	889.33
774.438	965.11
774.621	887.28
774.803	938.48
774.985	848.37
775.168	932.34
775.35	864.75
775.532	784.88
775.715	864.75
775.897	864.75
776.079	823.8
776.261	842.23
776.444	840.18
776.626	817.65
776.808	772.6
776.99	817.65
777.173	719.35
777.355	784.88
777.537	764.4
777.719	805.36
777.901	807.41
778.083	696.82
778.265	743.92
778.447	772.6
778.629	766.45
778.811	707.06
778.993	692.73
779.175	739.83
779.357	662.01
779.539	686.58
779.721	795.12
779.903	715.25
780.085	684.53
780.267	721.4
780.449	727.54
780.631	735.73
780.812	711.16
780.994	784.88
781.176	637.43
781.358	662.01
781.54	672.25
781.721	696.82
781.903	596.47
782.085	668.15
782.267	637.43
782.448	690.68
782.63	635.38
782.812	684.53
782.993	719.35
783.175	639.48
783.357	555.51
783.538	692.73
783.72	602.61
783.901	702.97
784.083	588.28
784.264	535.03
784.446	537.08
784.627	547.32
784.809	631.29
784.99	492.02
785.172	604.66
785.353	592.37
785.535	604.66
785.716	508.41
785.897	557.56
786.079	473.59
786.26	494.07
786.441	489.98
786.623	500.22
786.804	549.37
786.985	614.9
787.167	477.69
787.348	500.22
787.529	487.93
787.71	578.04
787.891	494.07
788.073	449.02
788.254	444.92
788.435	475.64
788.616	506.36
788.797	426.49
788.978	426.49
789.159	485.88
789.34	469.5
789.522	489.98
789.703	514.55
789.884	457.21
790.065	428.54
790.246	496.12
790.427	479.74
790.607	403.96
790.788	459.26
790.969	383.48
791.15	436.73
791.331	432.63
791.512	360.95
791.693	453.11
791.874	367.1
792.054	401.91
792.235	461.3
792.416	481.78
792.597	449.02
792.778	389.63
792.958	412.15
793.139	420.35
793.32	377.34
793.5	412.15
793.681	430.59
793.862	346.62
794.042	352.76
794.223	379.39
794.404	393.72
794.584	320
794.765	352.76
794.945	330.23
795.126	350.71
795.306	426.49
795.487	322.04
795.667	330.23
795.848	418.3
796.028	344.57
796.209	305.66
796.389	393.72
796.57	371.19
796.75	365.05
796.93	297.47
797.111	332.28
797.291	346.62
797.471	276.99
797.652	367.1
797.832	375.29
798.012	311.8
798.192	272.89
798.373	354.81
798.553	373.24
798.733	338.43
798.913	293.37
799.093	297.47
799.274	395.77
799.454	332.28
799.634	344.57
799.814	258.56
799.994	354.81
800.174	334.33
800.354	285.18
800.534	313.85
800.714	334.33
800.894	301.56
801.074	340.47
801.254	315.9
801.434	346.62
801.614	190.97
801.794	256.51
801.974	616.95
802.154	260.6
802.334	295.42
802.514	238.08
802.693	291.32
802.873	270.84
803.053	320
803.233	299.52
803.413	246.27
803.592	193.02
803.772	283.13
803.952	307.71
804.131	205.31
804.311	250.36
804.491	285.18
804.67	233.98
804.85	268.8
805.03	293.37
805.209	258.56
805.389	186.88
805.568	279.04
805.748	279.04
805.928	330.23
806.107	178.69
806.287	242.17
806.466	264.7
806.646	236.03
806.825	303.61
807.004	231.93
807.184	227.84
807.363	336.38
807.543	260.6
807.722	207.36
807.901	256.51
808.081	145.92
808.26	162.3
808.439	188.93
808.619	274.94
808.798	211.45
808.977	258.56
809.156	178.69
809.336	227.84
809.515	281.08
809.694	182.78
809.873	221.69
810.052	209.4
810.231	162.3
810.411	211.45
810.59	264.7
810.769	246.27
810.948	252.41
811.127	217.6
811.306	170.49
811.485	184.83
811.664	236.03
811.843	219.64
812.022	215.55
812.201	215.55
812.38	186.88
812.559	254.46
812.737	184.83
812.916	184.83
813.095	135.68
813.274	238.08
813.453	166.4
813.632	188.93
813.811	231.93
813.989	209.4
814.168	195.07
814.347	166.4
814.526	203.26
814.704	205.31
814.883	217.6
815.062	166.4
815.24	217.6
815.419	207.36
815.598	238.08
815.776	139.77
815.955	211.45
816.133	92.67
816.312	100.86
816.49	94.72
816.669	213.5
816.847	154.11
817.026	154.11
817.204	178.69
817.383	139.77
817.561	213.5
817.74	180.73
817.918	244.22
818.097	137.73
818.275	115.2
818.453	131.58
818.632	174.59
818.81	207.36
818.988	231.93
819.167	111.1
819.345	176.64
819.523	119.29
819.701	174.59
819.879	131.58
820.058	203.26
820.236	178.69
820.414	186.88
820.592	170.49
820.77	123.39
820.948	188.93
821.127	145.92
821.305	150.01
821.483	117.25
821.661	215.55
821.839	188.93
822.017	205.31
822.195	174.59
822.373	147.97
822.551	123.39
822.729	86.53
822.907	162.3
823.085	178.69
823.262	104.96
823.44	166.4
823.618	96.77
823.796	158.21
823.974	129.53
824.152	127.49
824.329	137.73
824.507	107.01
824.685	121.34
824.863	125.44
825.04	164.35
825.218	117.25
825.396	133.63
825.574	168.45
825.751	86.53
825.929	121.34
826.107	139.77
826.284	94.72
826.462	184.83
826.639	96.77
826.817	70.14
826.994	164.35
827.172	102.91
827.349	111.1
827.527	164.35
827.704	78.33
827.882	90.62
828.059	100.86
828.237	55.81
828.414	137.73
828.591	100.86
828.769	82.43
828.946	88.57
829.124	111.1
829.301	125.44
829.478	100.86
829.655	74.24
829.833	190.97
830.01	49.66
830.187	127.49
830.364	70.14
830.542	131.58
830.719	117.25
830.896	115.2
831.073	152.06
831.25	111.1
831.427	111.1
831.604	117.25
831.782	35.33
831.959	61.95
832.136	47.62
832.313	121.34
832.49	180.73
832.667	170.49
832.844	119.29
833.021	139.77
833.198	107.01
833.374	90.62
833.551	88.57
833.728	109.05
833.905	35.33
834.082	100.86
834.259	68.09
834.436	141.82
834.612	76.29
834.789	158.21
834.966	61.95
835.143	109.05
835.319	25.09
835.496	88.57
835.673	94.72
835.85	84.48
836.026	45.57
836.203	154.11
836.38	98.81
836.556	57.86
836.733	4.61
836.909	104.96
837.086	66.05
837.262	53.76
837.439	80.38
837.616	113.15
837.792	102.91
837.968	51.71
838.145	51.71
838.321	107.01
838.498	80.38
838.674	76.29
838.851	78.33
839.027	8.7
839.203	68.09
839.38	18.94
839.556	160.25
839.732	98.81
839.909	64
840.085	94.72
840.261	76.29
840.437	49.66
840.614	117.25
840.79	141.82
840.966	70.14
841.142	68.09
841.318	125.44
841.494	78.33
841.671	27.14
841.847	96.77
842.023	14.85
842.199	84.48
842.375	184.83
842.551	14.85
842.727	92.67
842.903	61.95
843.079	119.29
843.255	143.87
843.431	84.48
843.607	49.66
843.783	49.66
843.959	41.47
844.134	43.52
844.31	152.06
844.486	80.38
844.662	74.24
844.838	64
845.013	55.81
845.189	39.42
845.365	43.52
845.541	66.05
845.716	82.43
845.892	55.81
846.068	76.29
846.244	78.33
846.419	76.29
846.595	41.47
846.77	78.33
846.946	23.04
847.122	-28.16
847.297	47.62
847.473	37.38
847.648	70.14
847.824	96.77
847.999	61.95
848.175	59.9
848.35	94.72
848.526	49.66
848.701	49.66
848.876	156.16
849.052	10.75
849.227	35.33
849.403	-9.73
849.578	72.19
849.753	90.62
849.929	125.44
850.104	-42.5
850.279	88.57
850.454	102.91
850.63	70.14
850.805	18.94
850.98	125.44
851.155	51.71
851.33	76.29
851.505	72.19
851.681	59.9
851.856	88.57
852.031	80.38
852.206	94.72
852.381	35.33
852.556	-15.87
852.731	72.19
852.906	127.49
853.081	80.38
853.256	92.67
853.431	115.2
853.606	39.42
853.781	35.33
853.956	43.52
854.131	66.05
854.305	2.56
854.48	12.8
854.655	-38.4
854.83	-3.58
855.005	68.09
855.18	16.9
855.354	94.72
855.529	113.15
855.704	78.33
855.879	-15.87
856.053	55.81
856.228	84.48
856.403	35.33
856.577	143.87
856.752	41.47
856.926	29.18
857.101	59.9
857.276	35.33
857.45	78.33
857.625	96.77
857.799	84.48
857.974	33.28
858.148	70.14
858.323	121.34
858.497	0.51
858.672	23.04
858.846	10.75
859.02	111.1
859.195	61.95
859.369	8.7
859.543	39.42
859.718	10.75
859.892	51.71
860.066	64
860.241	80.38
860.415	-22.02
860.589	-3.58
860.763	43.52
860.938	12.8
861.112	72.19
861.286	8.7
861.46	10.75
861.634	25.09
861.808	-1.54
861.982	86.53
862.157	70.14
862.331	113.15
862.505	45.57
862.679	29.18
862.853	78.33
863.027	-24.06
863.201	92.67
863.375	78.33
863.549	51.71
863.722	16.9
863.896	10.75
864.07	47.62
864.244	41.47
864.418	8.7
864.592	55.81
864.766	-28.16
864.939	4.61
865.113	18.94
865.287	14.85
865.461	72.19
865.634	51.71
865.808	-1.54
865.982	-17.92
866.156	43.52
866.329	10.75
866.503	57.86
866.676	-15.87
866.85	41.47
867.024	37.38
867.197	35.33
867.371	53.76
867.544	8.7
867.718	41.47
867.891	74.24
868.065	23.04
868.238	82.43
868.412	20.99
868.585	14.85
868.759	66.05
868.932	51.71
869.105	-44.54
869.279	143.87
869.452	14.85
869.625	0.51
869.799	61.95
869.972	-15.87
870.145	-3.58
870.319	27.14
870.492	-17.92
870.665	43.52
870.838	33.28
871.011	-42.5
871.185	113.15
871.358	41.47
871.531	66.05
871.704	12.8
871.877	27.14
872.05	-22.02
872.223	12.8
872.396	-26.11
872.569	92.67
872.742	33.28
872.915	45.57
873.088	23.04
873.261	37.38
873.434	45.57
873.607	43.52
873.78	76.29
873.953	-1.54
874.126	27.14
874.299	72.19
874.471	-34.3
874.644	-36.35
874.817	-13.82
874.99	25.09
875.163	8.7
875.335	-34.3
875.508	18.94
875.681	53.76
875.853	-58.88
876.026	49.66
876.199	29.18
876.371	59.9
876.544	35.33
876.717	-40.45
876.889	64
877.062	-13.82
877.234	-28.16
877.407	16.9
877.579	-11.78
877.752	29.18
877.924	-30.21
878.097	92.67
878.269	45.57
878.442	-7.68
878.614	2.56
878.786	64
878.959	45.57
879.131	37.38
879.303	27.14
879.476	16.9
879.648	8.7
879.82	66.05
879.993	20.99
880.165	12.8
880.337	-13.82
880.509	45.57
880.681	25.09
880.854	2.56
881.026	-19.97
881.198	61.95
881.37	-22.02
881.542	-28.16
881.714	-36.35
881.886	-1.54
882.058	37.38
882.23	-1.54
882.402	-9.73
882.574	-26.11
882.746	-36.35
882.918	74.24
883.09	35.33
883.262	-15.87
883.434	0.51
883.606	45.57
883.778	29.18
883.95	41.47
884.122	39.42
884.293	70.14
884.465	51.71
884.637	84.48
884.809	-3.58
884.98	2.56
885.152	-1.54
885.324	47.62
885.496	0.51
885.667	8.7
885.839	35.33
886.011	59.9
886.182	-36.35
886.354	43.52
886.525	6.66
886.697	51.71
886.869	45.57
887.04	10.75
887.212	41.47
887.383	78.33
887.555	59.9
887.726	12.8
887.897	31.23
888.069	-36.35
888.24	72.19
888.412	33.28
888.583	86.53
888.754	-9.73
888.926	37.38
889.097	-7.68
889.268	-5.63
889.44	61.95
889.611	-26.11
889.782	-28.16
889.953	45.57
890.125	12.8
890.296	8.7
890.467	-19.97
890.638	-26.11
890.809	-71.17
890.98	49.66
891.151	-38.4
891.323	37.38
891.494	88.57
891.665	27.14
891.836	78.33
892.007	80.38
892.178	35.33
892.349	-11.78
892.52	72.19
892.691	-1.54
892.862	51.71
893.032	-24.06
893.203	4.61
893.374	53.76
893.545	59.9
893.716	14.85
893.887	72.19
894.057	70.14
894.228	14.85
894.399	14.85
894.57	33.28
894.74	72.19
894.911	-3.58
895.082	39.42
895.253	16.9
895.423	6.66
895.594	86.53
895.764	47.62
895.935	72.19
896.106	-11.78
896.276	12.8
896.447	-1.54
896.617	-1.54
896.788	41.47
896.958	43.52
897.129	-42.5
897.299	82.43
897.47	-24.06
897.64	49.66
897.81	31.23
897.981	16.9
898.151	-5.63
898.322	98.81
898.492	-26.11
898.662	-26.11
898.832	12.8
899.003	64
899.173	-15.87
899.343	-69.12
899.513	4.61
