Data from USB4F104151__293__11-13-03-819.txt Node

Date: Wed Mar 12 11:13:03 EDT 2025
User: louis
Spectrometer: USB4F10415
Trigger mode: 4
Integration Time (sec): 2.000000E-2
Scans to average: 1
Electric dark correction enabled: true
Nonlinearity correction enabled: false
Boxcar width: 0
XAxis mode: Wavelengths
Number of Pixels in Spectrum: 3648
>>>>>Begin Spectral Data<<<<<
178.204	-58.37
178.424	-58.37
178.644	-58.37
178.864	-154.62
179.084	-37.89
179.304	-33.79
179.524	-68.61
179.744	-46.08
179.964	66.56
180.184	-29.7
180.404	39.94
180.624	11.26
180.844	33.79
181.064	-13.31
181.283	33.79
181.503	-19.46
181.723	25.6
181.943	-109.57
182.163	44.03
182.383	78.85
182.602	1.02
182.822	21.5
183.042	29.7
183.262	23.55
183.482	58.37
183.701	1.02
183.921	37.89
184.141	-7.17
184.361	93.18
184.58	23.55
184.8	-9.22
185.02	17.41
185.239	56.32
185.459	15.36
185.679	-17.41
185.898	-19.46
186.118	19.46
186.338	-27.65
186.557	62.46
186.777	-60.42
186.997	25.6
187.216	50.18
187.436	64.51
187.655	27.65
187.875	62.46
188.095	-5.12
188.314	82.94
188.534	-54.27
188.753	-3.07
188.973	58.37
189.192	46.08
189.412	-3.07
189.631	37.89
189.851	76.8
190.07	56.32
190.29	62.46
190.509	-5.12
190.729	27.65
190.948	68.61
191.168	50.18
191.387	29.7
191.607	-3.07
191.826	5.12
192.045	78.85
192.265	60.42
192.484	-29.7
192.704	46.08
192.923	-41.98
193.142	52.22
193.362	60.42
193.581	-19.46
193.8	19.46
194.02	54.27
194.239	68.61
194.458	60.42
194.678	33.79
194.897	72.7
195.116	3.07
195.335	19.46
195.555	58.37
195.774	-21.5
195.993	33.79
196.212	37.89
196.432	5.12
196.651	1.02
196.87	54.27
197.089	158.72
197.308	-3.07
197.528	80.89
197.747	-54.27
197.966	46.08
198.185	39.94
198.404	-58.37
198.623	33.79
198.842	21.5
199.062	76.8
199.281	13.31
199.5	35.84
199.719	-25.6
199.938	54.27
200.157	-41.98
200.376	58.37
200.595	105.47
200.814	21.5
201.033	7.17
201.252	25.6
201.471	23.55
201.69	-7.17
201.909	-19.46
202.128	68.61
202.347	54.27
202.566	41.98
202.785	-17.41
203.004	25.6
203.223	95.23
203.442	3.07
203.661	46.08
203.879	-1.02
204.098	58.37
204.317	74.75
204.536	-52.22
204.755	23.55
204.974	11.26
205.193	-58.37
205.411	76.8
205.63	-58.37
205.849	3.07
206.068	19.46
206.287	41.98
206.505	39.94
206.724	-37.89
206.943	-33.79
207.162	11.26
207.381	3.07
207.599	48.13
207.818	-7.17
208.037	-44.03
208.255	29.7
208.474	-25.6
208.693	-3.07
208.911	68.61
209.13	-23.55
209.349	21.5
209.567	31.74
209.786	84.99
210.005	37.89
210.223	23.55
210.442	25.6
210.661	-21.5
210.879	23.55
211.098	-29.7
211.316	31.74
211.535	68.61
211.753	46.08
211.972	-21.5
212.191	-5.12
212.409	19.46
212.628	-19.46
212.846	74.75
213.065	31.74
213.283	115.71
213.502	11.26
213.72	33.79
213.938	17.41
214.157	93.18
214.375	93.18
214.594	31.74
214.812	29.7
215.031	-13.31
215.249	46.08
215.467	52.22
215.686	25.6
215.904	91.13
216.122	-41.98
216.341	50.18
216.559	78.85
216.778	113.66
216.996	56.32
217.214	-17.41
217.432	25.6
217.651	29.7
217.869	-56.32
218.087	109.57
218.306	97.28
218.524	66.56
218.742	29.7
218.96	80.89
219.179	58.37
219.397	60.42
219.615	56.32
219.833	58.37
220.051	11.26
220.27	72.7
220.488	-1.02
220.706	9.22
220.924	29.7
221.142	-44.03
221.36	-11.26
221.578	37.89
221.796	50.18
222.015	23.55
222.233	35.84
222.451	9.22
222.669	9.22
222.887	37.89
223.105	-1.02
223.323	-35.84
223.541	-1.02
223.759	31.74
223.977	-21.5
224.195	58.37
224.413	89.09
224.631	27.65
224.849	-15.36
225.067	84.99
225.285	7.17
225.503	5.12
225.721	-3.07
225.939	3.07
226.157	50.18
226.375	89.09
226.592	37.89
226.81	17.41
227.028	1.02
227.246	64.51
227.464	17.41
227.682	33.79
227.9	11.26
228.117	58.37
228.335	-19.46
228.553	-29.7
228.771	-39.94
228.989	5.12
229.206	54.27
229.424	76.8
229.642	15.36
229.86	-5.12
230.077	54.27
230.295	78.85
230.513	19.46
230.731	48.13
230.948	29.7
231.166	68.61
231.384	1.02
231.601	37.89
231.819	52.22
232.037	29.7
232.254	39.94
232.472	31.74
232.689	11.26
232.907	9.22
233.125	50.18
233.342	70.65
233.56	13.31
233.777	-5.12
233.995	-29.7
234.213	25.6
234.43	29.7
234.648	-31.74
234.865	5.12
235.083	46.08
235.3	15.36
235.518	-17.41
235.735	41.98
235.953	9.22
236.17	-9.22
236.388	-5.12
236.605	46.08
236.822	58.37
237.04	11.26
237.257	41.98
237.475	62.46
237.692	70.65
237.909	35.84
238.127	23.55
238.344	41.98
238.562	82.94
238.779	-82.94
238.996	21.5
239.214	-52.22
239.431	-29.7
239.648	1.02
239.865	41.98
240.083	33.79
240.3	7.17
240.517	17.41
240.735	19.46
240.952	46.08
241.169	72.7
241.386	17.41
241.603	23.55
241.821	-19.46
242.038	66.56
242.255	-13.31
242.472	13.31
242.689	35.84
242.907	58.37
243.124	89.09
243.341	56.32
243.558	-15.36
243.775	80.89
243.992	21.5
244.209	39.94
244.426	27.65
244.643	-9.22
244.86	5.12
245.078	44.03
245.295	80.89
245.512	-17.41
245.729	44.03
245.946	97.28
246.163	37.89
246.38	7.17
246.597	13.31
246.814	66.56
247.031	48.13
247.248	41.98
247.464	21.5
247.681	46.08
247.898	1.02
248.115	82.94
248.332	17.41
248.549	31.74
248.766	39.94
248.983	58.37
249.2	25.6
249.417	-89.09
249.633	56.32
249.85	15.36
250.067	-17.41
250.284	-3.07
250.501	91.13
250.717	-25.6
250.934	-7.17
251.151	89.09
251.368	33.79
251.585	97.28
251.801	44.03
252.018	-3.07
252.235	50.18
252.451	37.89
252.668	7.17
252.885	54.27
253.102	1.02
253.318	66.56
253.535	62.46
253.752	-33.79
253.968	54.27
254.185	29.7
254.401	41.98
254.618	80.89
254.835	19.46
255.051	1.02
255.268	31.74
255.484	-13.31
255.701	-9.22
255.917	37.89
256.134	17.41
256.351	13.31
256.567	-37.89
256.784	9.22
257	-33.79
257.217	117.76
257.433	54.27
257.65	37.89
257.866	7.17
258.082	39.94
258.299	64.51
258.515	9.22
258.732	-29.7
258.948	-13.31
259.165	13.31
259.381	35.84
259.597	41.98
259.814	119.81
260.03	74.75
260.246	13.31
260.463	15.36
260.679	-11.26
260.895	-11.26
261.112	66.56
261.328	-23.55
261.544	5.12
261.761	101.37
261.977	33.79
262.193	-9.22
262.409	50.18
262.626	-9.22
262.842	39.94
263.058	31.74
263.274	66.56
263.49	74.75
263.707	-19.46
263.923	31.74
264.139	9.22
264.355	-19.46
264.571	89.09
264.787	44.03
265.004	-25.6
265.22	35.84
265.436	80.89
265.652	35.84
265.868	105.47
266.084	64.51
266.3	35.84
266.516	25.6
266.732	62.46
266.948	-29.7
267.164	87.04
267.38	23.55
267.596	56.32
267.812	19.46
268.028	29.7
268.244	29.7
268.46	-76.8
268.676	-17.41
268.892	23.55
269.108	52.22
269.324	17.41
269.54	60.42
269.756	76.8
269.972	25.6
270.188	39.94
270.403	21.5
270.619	27.65
270.835	15.36
271.051	66.56
271.267	1.02
271.483	-25.6
271.698	52.22
271.914	-3.07
272.13	21.5
272.346	-3.07
272.562	5.12
272.777	11.26
272.993	-11.26
273.209	56.32
273.425	15.36
273.64	72.7
273.856	13.31
274.072	29.7
274.287	-19.46
274.503	5.12
274.719	-3.07
274.934	-33.79
275.15	3.07
275.366	3.07
275.581	27.65
275.797	70.65
276.012	66.56
276.228	-23.55
276.444	46.08
276.659	31.74
276.875	-117.76
277.09	-11.26
277.306	-1.02
277.521	-3.07
277.737	25.6
277.952	46.08
278.168	84.99
278.383	-9.22
278.599	107.52
278.814	1.02
279.03	9.22
279.245	84.99
279.461	39.94
279.676	31.74
279.892	-7.17
280.107	25.6
280.322	-35.84
280.538	17.41
280.753	-15.36
280.969	-23.55
281.184	3.07
281.399	52.22
281.615	21.5
281.83	31.74
282.045	52.22
282.26	29.7
282.476	60.42
282.691	35.84
282.906	62.46
283.122	37.89
283.337	-19.46
283.552	78.85
283.767	-48.13
283.983	3.07
284.198	76.8
284.413	-7.17
284.628	-19.46
284.843	95.23
285.058	39.94
285.274	56.32
285.489	21.5
285.704	44.03
285.919	60.42
286.134	41.98
286.349	44.03
286.564	-17.41
286.779	39.94
286.995	31.74
287.21	25.6
287.425	89.09
287.64	9.22
287.855	11.26
288.07	-9.22
288.285	37.89
288.5	41.98
288.715	44.03
288.93	-1.02
289.145	13.31
289.36	56.32
289.575	29.7
289.79	44.03
290.004	11.26
290.219	33.79
290.434	-7.17
290.649	-3.07
290.864	-44.03
291.079	58.37
291.294	-19.46
291.509	56.32
291.724	31.74
291.938	37.89
292.153	-11.26
292.368	-64.51
292.583	29.7
292.798	3.07
293.012	21.5
293.227	13.31
293.442	41.98
293.657	150.53
293.871	111.61
294.086	-3.07
294.301	54.27
294.516	17.41
294.73	-17.41
294.945	9.22
295.16	66.56
295.374	52.22
295.589	-5.12
295.804	-50.18
296.018	46.08
296.233	80.89
296.447	31.74
296.662	-56.32
296.877	95.23
297.091	48.13
297.306	44.03
297.52	-15.36
297.735	35.84
297.949	21.5
298.164	29.7
298.378	25.6
298.593	17.41
298.807	-5.12
299.022	37.89
299.236	66.56
299.451	15.36
299.665	72.7
299.88	68.61
300.094	7.17
300.309	9.22
300.523	70.65
300.737	66.56
300.952	29.7
301.166	46.08
301.381	15.36
301.595	-23.55
301.809	29.7
302.024	21.5
302.238	27.65
302.452	68.61
302.667	50.18
302.881	33.79
303.095	3.07
303.309	78.85
303.524	25.6
303.738	-5.12
303.952	101.37
304.166	52.22
304.381	-17.41
304.595	58.37
304.809	-3.07
305.023	60.42
305.237	5.12
305.452	11.26
305.666	-3.07
305.88	56.32
306.094	64.51
306.308	41.98
306.522	-48.13
306.736	48.13
306.95	15.36
307.164	7.17
307.379	15.36
307.593	33.79
307.807	82.94
308.021	64.51
308.235	3.07
308.449	7.17
308.663	-21.5
308.877	80.89
309.091	-7.17
309.305	33.79
309.519	9.22
309.733	50.18
309.947	60.42
310.161	78.85
310.374	7.17
310.588	60.42
310.802	56.32
311.016	62.46
311.23	41.98
311.444	-25.6
311.658	-15.36
311.872	66.56
312.085	17.41
312.299	23.55
312.513	25.6
312.727	60.42
312.941	87.04
313.154	72.7
313.368	17.41
313.582	-89.09
313.796	37.89
314.009	89.09
314.223	54.27
314.437	17.41
314.651	87.04
314.864	27.65
315.078	-35.84
315.292	31.74
315.505	95.23
315.719	11.26
315.933	35.84
316.146	80.89
316.36	-19.46
316.573	5.12
316.787	35.84
317.001	-1.02
317.214	5.12
317.428	-21.5
317.641	41.98
317.855	64.51
318.068	148.48
318.282	25.6
318.495	54.27
318.709	29.7
318.922	101.37
319.136	46.08
319.349	66.56
319.563	105.47
319.776	58.37
319.99	39.94
320.203	50.18
320.417	80.89
320.63	9.22
320.843	130.05
321.057	82.94
321.27	54.27
321.483	-31.74
321.697	11.26
321.91	31.74
322.124	70.65
322.337	27.65
322.55	121.85
322.763	60.42
322.977	35.84
323.19	41.98
323.403	68.61
323.617	21.5
323.83	119.81
324.043	-5.12
324.256	54.27
324.469	-56.32
324.683	17.41
324.896	58.37
325.109	87.04
325.322	-25.6
325.535	101.37
325.748	82.94
325.962	11.26
326.175	13.31
326.388	37.89
326.601	64.51
326.814	82.94
327.027	31.74
327.24	13.31
327.453	3.07
327.666	44.03
327.879	46.08
328.092	80.89
328.305	52.22
328.518	33.79
328.731	37.89
328.944	1.02
329.157	68.61
329.37	95.23
329.583	68.61
329.796	97.28
330.009	60.42
330.222	66.56
330.435	-48.13
330.648	31.74
330.861	33.79
331.073	7.17
331.286	64.51
331.499	-17.41
331.712	50.18
331.925	5.12
332.138	17.41
332.35	52.22
332.563	37.89
332.776	95.23
332.989	-27.65
333.202	56.32
333.414	46.08
333.627	25.6
333.84	-17.41
334.053	41.98
334.265	44.03
334.478	-25.6
334.691	72.7
334.903	15.36
335.116	72.7
335.329	74.75
335.541	9.22
335.754	101.37
335.966	144.38
336.179	68.61
336.392	72.7
336.604	-17.41
336.817	54.27
337.029	46.08
337.242	58.37
337.454	72.7
337.667	17.41
337.88	89.09
338.092	23.55
338.305	60.42
338.517	-37.89
338.729	111.61
338.942	46.08
339.154	-37.89
339.367	3.07
339.579	-5.12
339.792	1.02
340.004	101.37
340.217	-11.26
340.429	29.7
340.641	21.5
340.854	52.22
341.066	-48.13
341.278	62.46
341.491	146.43
341.703	60.42
341.915	70.65
342.128	46.08
342.34	37.89
342.552	5.12
342.764	74.75
342.977	37.89
343.189	29.7
343.401	15.36
343.613	13.31
343.826	48.13
344.038	-19.46
344.25	25.6
344.462	35.84
344.674	56.32
344.886	56.32
345.099	37.89
345.311	72.7
345.523	-17.41
345.735	-35.84
345.947	-3.07
346.159	46.08
346.371	76.8
346.583	29.7
346.795	70.65
347.007	80.89
347.219	62.46
347.431	-35.84
347.643	17.41
347.855	-13.31
348.067	66.56
348.279	50.18
348.491	-62.46
348.703	109.57
348.915	11.26
349.127	68.61
349.339	56.32
349.551	23.55
349.763	70.65
349.975	64.51
350.187	64.51
350.399	70.65
350.61	35.84
350.822	46.08
351.034	33.79
351.246	11.26
351.458	1.02
351.669	41.98
351.881	27.65
352.093	111.61
352.305	-27.65
352.517	76.8
352.728	132.09
352.94	48.13
353.152	15.36
353.363	-3.07
353.575	89.09
353.787	64.51
353.999	44.03
354.21	35.84
354.422	66.56
354.633	-35.84
354.845	-9.22
355.057	-54.27
355.268	29.7
355.48	48.13
355.692	7.17
355.903	58.37
356.115	52.22
356.326	17.41
356.538	93.18
356.749	-41.98
356.961	76.8
357.172	-39.94
357.384	17.41
357.595	80.89
357.807	-17.41
358.018	-11.26
358.23	132.09
358.441	107.52
358.653	37.89
358.864	15.36
359.075	25.6
359.287	21.5
359.498	121.85
359.709	70.65
359.921	56.32
360.132	37.89
360.344	-46.08
360.555	-13.31
360.766	46.08
360.977	-15.36
361.189	107.52
361.4	27.65
361.611	27.65
361.823	74.75
362.034	31.74
362.245	44.03
362.456	-5.12
362.667	119.81
362.879	25.6
363.09	56.32
363.301	54.27
363.512	37.89
363.723	-27.65
363.935	76.8
364.146	-5.12
364.357	56.32
364.568	119.81
364.779	-5.12
364.99	46.08
365.201	-11.26
365.412	74.75
365.623	-33.79
365.834	95.23
366.045	17.41
366.256	60.42
366.467	15.36
366.678	41.98
366.889	7.17
367.1	31.74
367.311	41.98
367.522	50.18
367.733	105.47
367.944	62.46
368.155	54.27
368.366	101.37
368.577	60.42
368.788	54.27
368.999	41.98
369.209	54.27
369.42	134.14
369.631	125.95
369.842	87.04
370.053	13.31
370.264	99.33
370.474	56.32
370.685	25.6
370.896	-33.79
371.107	66.56
371.317	52.22
371.528	17.41
371.739	107.52
371.95	17.41
372.16	70.65
372.371	21.5
372.582	9.22
372.792	82.94
373.003	46.08
373.214	62.46
373.424	56.32
373.635	-17.41
373.846	58.37
374.056	74.75
374.267	33.79
374.477	-19.46
374.688	44.03
374.898	39.94
375.109	11.26
375.319	68.61
375.53	84.99
375.74	54.27
375.951	91.13
376.161	15.36
376.372	123.9
376.582	64.51
376.793	93.18
377.003	9.22
377.214	-46.08
377.424	19.46
377.635	66.56
377.845	44.03
378.055	91.13
378.266	29.7
378.476	41.98
378.686	111.61
378.897	33.79
379.107	66.56
379.317	125.95
379.528	33.79
379.738	66.56
379.948	39.94
380.158	60.42
380.369	39.94
380.579	-7.17
380.789	44.03
380.999	58.37
381.21	33.79
381.42	27.65
381.63	-9.22
381.84	1.02
382.05	41.98
382.261	39.94
382.471	68.61
382.681	21.5
382.891	52.22
383.101	68.61
383.311	46.08
383.521	41.98
383.731	62.46
383.941	111.61
384.151	70.65
384.361	50.18
384.571	48.13
384.781	99.33
384.991	33.79
385.201	46.08
385.411	5.12
385.621	68.61
385.831	130.05
386.041	136.19
386.251	82.94
386.461	107.52
386.671	62.46
386.881	21.5
387.091	15.36
387.301	93.18
387.511	-7.17
387.72	91.13
387.93	62.46
388.14	31.74
388.35	66.56
388.56	177.15
388.769	99.33
388.979	41.98
389.189	29.7
389.399	68.61
389.609	33.79
389.818	58.37
390.028	31.74
390.238	62.46
390.447	66.56
390.657	33.79
390.867	13.31
391.076	29.7
391.286	132.09
391.496	11.26
391.705	35.84
391.915	99.33
392.125	44.03
392.334	107.52
392.544	130.05
392.753	48.13
392.963	78.85
393.172	72.7
393.382	5.12
393.591	130.05
393.801	93.18
394.01	54.27
394.22	93.18
394.429	62.46
394.639	56.32
394.848	48.13
395.058	101.37
395.267	56.32
395.477	58.37
395.686	60.42
395.895	93.18
396.105	140.29
396.314	66.56
396.524	58.37
396.733	168.96
396.942	130.05
397.152	123.9
397.361	37.89
397.57	52.22
397.78	11.26
397.989	91.13
398.198	191.49
398.407	111.61
398.617	105.47
398.826	177.15
399.035	31.74
399.244	97.28
399.453	140.29
399.663	121.85
399.872	62.46
400.081	130.05
400.29	70.65
400.499	103.42
400.708	173.05
400.917	62.46
401.127	82.94
401.336	97.28
401.545	193.53
401.754	134.14
401.963	99.33
402.172	121.85
402.381	80.89
402.59	109.57
402.799	91.13
403.008	209.92
403.217	142.33
403.426	148.48
403.635	119.81
403.844	162.81
404.053	173.05
404.262	113.66
404.471	132.09
404.68	177.15
404.888	164.86
405.097	125.95
405.306	179.2
405.515	168.96
405.724	119.81
405.933	201.72
406.142	267.26
406.35	242.68
406.559	168.96
406.768	160.77
406.977	254.97
407.185	189.44
407.394	156.67
407.603	171.01
407.812	201.72
408.02	238.59
408.229	171.01
408.438	283.64
408.646	283.64
408.855	297.98
409.064	308.22
409.272	273.4
409.481	238.59
409.69	230.4
409.898	345.08
410.107	322.56
410.315	250.88
410.524	306.17
410.733	371.71
410.941	381.95
411.15	381.95
411.358	343.03
411.567	375.8
411.775	504.82
411.984	431.1
412.192	508.92
412.401	345.08
412.609	443.39
412.818	517.11
413.026	586.74
413.234	533.5
413.443	451.58
413.651	513.02
413.86	586.74
414.068	658.42
414.276	603.13
414.485	709.62
414.693	642.04
414.901	742.39
415.11	654.33
415.318	713.72
415.526	723.96
415.734	865.27
415.943	750.58
416.151	844.79
416.359	863.22
416.567	936.95
416.776	994.29
416.984	969.71
417.192	949.23
417.4	992.24
417.608	926.71
417.817	1043.44
418.025	1176.56
418.233	1125.36
418.441	1143.79
418.649	1250.28
418.857	1225.71
419.065	1399.79
419.273	1448.94
419.481	1489.9
419.689	1387.5
419.897	1575.91
420.105	1547.24
420.313	1559.53
420.521	1651.69
420.729	1713.13
420.937	1778.66
421.145	1731.56
421.353	2053.09
421.561	2073.57
421.769	2001.89
421.977	2184.16
422.185	2018.27
422.393	2304.99
422.601	2319.32
422.809	2335.71
423.017	2444.25
423.224	2477.02
423.432	2565.08
423.64	2477.02
423.848	2804.69
424.056	2790.36
424.263	2962.39
424.471	2964.43
424.679	3044.31
424.887	3212.24
425.094	3230.67
425.302	3275.73
425.51	3414.99
425.718	3558.35
425.925	3425.23
426.133	3691.46
426.341	3812.29
426.548	4017.09
426.756	4084.67
426.964	4225.98
427.171	4402.11
427.379	4348.86
427.586	4555.71
427.794	4817.85
428.001	4889.53
428.209	5043.12
428.417	5018.55
428.624	5438.38
428.832	5360.56
429.039	5305.26
429.247	5391.28
429.454	6005.67
429.662	6235.04
429.869	5839.78
430.076	6196.13
430.284	6079.4
430.491	6542.24
430.699	6556.57
430.906	6816.66
431.114	6968.21
431.321	7093.14
431.528	7031.7
431.736	7572.36
431.943	8035.21
432.15	7852.94
432.358	8010.63
432.565	8291.2
432.772	8323.97
432.979	8672.12
433.187	8901.5
433.394	8905.59
433.601	9538.41
433.808	9513.84
434.016	9542.51
434.223	9847.66
434.43	10457.95
434.637	10269.54
434.844	10742.62
435.052	11236.18
435.259	11078.49
435.466	11248.47
435.673	11076.44
435.88	11778.89
436.087	12403.52
436.294	12239.69
436.501	11889.48
436.708	12286.79
436.915	12823.36
437.122	13204.28
437.329	13105.98
437.537	13587.25
437.743	13753.13
437.95	13931.31
438.157	14533.41
438.364	14947.1
438.571	14947.1
438.778	15188.76
438.985	16517.89
439.192	15780.62
439.399	16309
439.606	15887.12
439.813	16368.39
440.02	17974
440.227	17613.56
440.433	17302.26
440.64	17945.33
440.847	17586.93
441.054	18242.28
441.261	19452.63
441.467	19448.54
441.674	19747.54
441.881	20159.18
442.088	20122.32
442.294	19938
442.501	20783.81
442.708	20910.78
442.914	21744.31
443.121	22899.36
443.328	22123.18
443.534	24181.39
443.741	23169.69
443.948	22608.55
444.154	24547.98
444.361	24107.66
444.568	24556.17
444.774	24455.82
444.981	24472.2
445.187	25322.11
445.394	26722.92
445.6	26020.47
445.807	28508.75
446.013	27656.79
446.22	27810.39
446.426	29065.8
446.633	29301.31
446.839	30091.83
447.046	29104.71
447.252	30634.54
447.459	30515.76
447.665	30454.32
447.871	31582.75
448.078	32823.82
448.284	31316.51
448.491	32537.1
448.697	33810.94
448.903	33853.95
449.11	34236.92
449.316	33257.99
449.522	34181.62
449.728	35215.85
449.935	35482.08
450.141	35115.5
450.347	35987.93
450.553	35189.22
450.76	35351.01
450.966	36647.38
451.172	36172.25
451.378	36958.67
451.584	36626.9
451.791	37018.06
451.997	36780.49
452.203	37355.97
452.409	37384.65
452.615	37423.56
452.821	36037.08
453.027	35690.98
453.233	37689.79
453.44	35723.74
453.646	36512.21
453.852	36551.12
454.058	37347.78
454.264	35942.88
454.47	36714.96
454.676	35686.88
454.882	37173.7
455.088	34111.99
455.294	34415.09
455.5	34404.85
455.705	35009
455.911	33899
456.117	32764.43
456.323	32481.81
456.529	30573.1
456.735	31992.34
456.941	31164.96
457.147	30620.2
457.352	29841.98
457.558	29835.83
457.764	29526.59
457.97	29035.08
458.176	28670.54
458.381	28340.82
458.587	27007.59
458.793	26993.25
458.999	25750.14
459.204	27527.77
459.41	26761.83
459.616	25123.46
459.821	24961.67
460.027	24894.08
460.233	24351.37
460.438	23210.65
460.644	23581.34
460.85	22370.99
461.055	22012.59
461.261	21750.45
461.466	20415.18
461.672	20024.01
461.878	21273.28
462.083	19647.19
462.289	19393.24
462.494	19356.38
462.7	18432.74
462.905	17816.3
463.111	18643.68
463.316	18543.33
463.522	17982.19
463.727	18160.36
463.932	18172.65
464.138	18019.05
464.343	18123.5
464.549	17617.65
464.754	18111.21
464.959	17890.03
465.165	17844.98
465.37	17316.6
465.575	16458.5
465.781	17439.48
465.986	17464.05
466.191	17011.45
466.397	16425.73
466.602	15491.86
466.807	16294.66
467.012	16218.89
467.218	16210.7
467.423	16038.67
467.628	16268.04
467.833	16792.32
468.038	16048.91
468.244	15831.82
468.449	16464.64
468.654	15686.42
468.859	15547.15
469.064	15489.81
469.269	14973.72
469.474	15227.67
469.679	15432.47
469.885	14650.14
470.09	15094.55
470.295	15035.16
470.5	14625.57
470.705	14619.42
470.91	14398.24
471.115	14332.71
471.32	14525.22
471.525	14117.67
471.73	13972.27
471.935	13974.31
472.139	13620.02
472.344	13656.88
472.549	13445.94
472.754	13556.53
472.959	13353.78
473.164	13009.72
473.369	12925.75
473.574	13257.53
473.778	13097.78
473.983	12856.12
474.188	12860.22
474.393	12110.66
474.598	12514.11
474.802	12174.15
475.007	11866.95
475.212	12290.88
475.417	11748.17
475.621	11742.03
475.826	11662.16
476.031	11383.63
476.235	11314
476.44	11400.02
476.645	11051.86
476.849	11176.79
477.054	10955.61
477.259	11084.63
477.463	10722.14
477.668	10728.28
477.872	10869.59
478.077	10736.48
478.282	10265.44
478.486	10427.23
478.691	10294.11
478.895	10212.2
479.1	10105.7
479.304	10216.29
479.509	9716.59
479.713	9993.06
479.918	9806.7
480.122	9849.71
480.326	9655.15
480.531	9958.25
480.735	9745.26
480.94	9603.95
481.144	9909.1
481.348	9476.98
481.553	9685.87
481.757	9497.46
481.961	9442.16
482.166	9585.52
482.37	9562.99
482.574	9311.09
482.778	9548.65
482.983	9503.6
483.187	9415.54
483.391	9530.22
483.595	9452.4
483.8	9468.78
484.004	9407.34
484.208	9444.21
484.412	9579.37
484.616	9532.27
484.821	9470.83
485.025	9110.39
485.229	9489.26
485.433	9501.55
485.637	9405.3
485.841	9341.81
486.045	9327.47
486.249	9315.19
486.453	9501.55
486.657	9632.62
486.861	9431.92
487.065	9177.97
487.269	9302.9
487.473	9024.37
487.677	9448.3
487.881	9397.1
488.085	9315.19
488.289	9333.62
488.493	9309.04
488.697	9423.73
488.901	9542.51
489.105	9362.29
489.309	9446.26
489.512	9628.53
489.716	9458.54
489.92	9497.46
490.124	9374.58
490.328	9749.36
490.531	9433.97
490.735	9612.14
490.939	9585.52
491.143	9642.86
491.346	9636.72
491.55	9898.86
491.754	9810.79
491.958	9788.27
492.161	9694.06
492.365	9935.72
492.569	9794.41
492.772	9755.5
492.976	9986.92
493.18	9882.47
493.383	10066.79
493.587	10183.52
493.79	10189.67
493.994	9956.2
494.197	10322.79
494.401	10437.47
494.605	10320.74
494.808	10505.06
495.012	10574.69
495.215	10732.38
495.419	10746.72
495.622	10750.81
495.825	10802.01
496.029	10957.66
496.232	11285.33
496.436	11055.96
496.639	11365.2
496.843	11184.98
497.046	11615.05
497.249	11610.96
497.453	11705.17
497.656	11686.73
497.859	11852.62
498.063	11883.34
498.266	12192.58
498.469	12114.76
498.673	12272.45
498.876	12421.95
499.079	12489.54
499.282	12321.6
499.485	12745.53
499.689	12849.98
499.892	13083.45
500.095	12985.15
500.298	13298.49
500.501	13206.33
500.705	13773.61
500.908	13798.19
501.111	13878.06
501.314	14244.65
501.517	14205.74
501.72	14179.11
501.923	14603.04
502.126	14422.82
502.329	15020.83
502.532	15112.99
502.735	15178.52
502.938	15264.54
503.141	15311.64
503.344	15565.59
503.547	15821.58
503.75	15874.83
503.953	15846.16
504.156	16247.56
504.359	16741.12
504.562	16421.64
504.765	16669.44
504.968	16950.01
505.17	17271.54
505.373	17150.71
505.576	17560.31
505.779	17654.51
505.982	17775.34
506.185	18162.41
506.387	18080.49
506.59	18256.62
506.793	18793.19
506.996	18576.1
507.198	19139.29
507.401	19155.68
507.604	19266.27
507.807	19755.73
508.009	19827.41
508.212	19882.7
508.415	20050.64
508.617	20265.67
508.82	20548.29
509.022	20222.67
509.225	21177.02
509.428	21015.23
509.63	21439.16
509.833	21281.47
510.035	22053.55
510.238	21625.53
510.44	21826.23
510.643	22526.63
510.845	22618.79
511.048	22493.86
511.25	22745.76
511.453	23091.87
511.655	23667.35
511.858	23394.97
512.06	23392.92
512.262	24042.13
512.465	23884.44
512.667	24537.74
512.87	24513.16
513.072	24588.94
513.274	25137.79
513.477	25377.4
513.679	25510.52
513.881	25612.92
514.084	26129.01
514.286	25815.67
514.488	25879.16
514.69	26499.69
514.893	26808.93
515.095	26800.74
515.297	27277.92
515.499	27628.12
515.701	27562.59
515.904	28224.08
516.106	28195.41
516.308	28445.26
516.51	28756.55
516.712	28795.46
516.914	29157.96
517.116	29194.82
517.318	29661.76
517.52	29626.94
517.722	30165.56
517.925	29989.43
518.127	30693.93
518.329	30718.51
518.531	30716.46
518.733	31275.55
518.935	31676.96
519.136	31459.87
519.338	32317.97
519.54	32195.09
519.742	32526.86
519.944	32147.99
520.146	32967.18
520.348	33171.97
520.55	33241.6
520.752	33528.32
520.954	34232.82
521.155	33757.69
521.357	34333.17
521.559	34157.05
521.761	34847.21
521.963	34871.79
522.164	34980.33
522.366	35187.18
522.568	35379.68
522.77	35994.07
522.971	36555.22
523.173	36026.84
523.375	36354.52
523.576	36415.96
523.778	36714.96
523.98	36731.34
524.181	37083.59
524.383	37116.36
524.584	37482.95
524.786	37775.81
524.988	37573.06
525.189	37796.29
525.391	38148.54
525.592	38160.83
525.794	38347.19
525.995	38687.15
526.197	38787.5
526.398	38578.61
526.6	39115.18
526.801	38961.58
527.003	39516.58
527.204	39494.05
527.406	39621.03
527.607	39661.99
527.808	40069.53
528.01	39205.29
528.211	39610.79
528.412	40814.99
528.614	40372.63
528.815	40198.55
529.016	40841.62
529.218	39860.64
529.419	40696.21
529.62	40341.91
529.822	40718.74
530.023	40583.57
530.224	40827.28
530.425	40905.1
530.626	40579.48
530.828	40544.66
531.029	41345.42
531.23	40360.34
531.431	40966.54
531.632	40982.93
531.833	41380.23
532.035	41095.56
532.236	41146.76
532.437	41476.49
532.638	40866.19
532.839	41378.18
533.04	41374.09
533.241	40929.68
533.442	41410.95
533.643	41490.82
533.844	41408.9
534.045	41474.44
534.246	41044.37
534.447	41415.05
534.648	41134.48
534.849	41591.17
535.05	41101.71
535.251	41492.87
535.451	41046.41
535.652	41331.08
535.853	41372.04
536.054	41685.38
536.255	41658.76
536.456	41255.31
536.657	42084.73
536.857	41662.85
537.058	41496.97
537.259	41748.87
537.46	41390.47
537.66	41488.77
537.861	41744.77
538.062	41326.99
538.263	41845.12
538.463	41249.16
538.664	41310.6
538.865	41449.86
539.065	41978.24
539.266	41243.02
539.466	41552.26
539.667	41105.8
539.868	41851.27
540.068	41222.54
540.269	41173.39
540.469	41748.87
540.67	41206.16
540.87	41230.73
541.071	41064.85
541.271	41435.53
541.472	41390.47
541.672	41400.71
541.873	40864.14
542.073	40794.51
542.274	41648.52
542.474	40946.06
542.675	40825.23
542.875	41802.11
543.075	41265.55
543.276	41116.04
543.476	41595.27
543.676	41394.57
543.877	41781.63
544.077	41210.25
544.277	41214.35
544.478	41222.54
544.678	41259.4
544.878	41374.09
545.078	41394.57
545.279	40827.28
545.479	40532.37
545.679	41247.11
545.879	41021.84
546.079	41040.27
546.28	40724.88
546.48	40700.31
546.68	41027.98
546.88	41415.05
547.08	41070.99
547.28	41408.9
547.48	40874.38
547.68	40735.12
547.88	40733.07
548.081	40925.58
548.281	40921.49
548.481	40565.14
548.681	41267.59
548.881	40903.06
549.081	40956.3
549.28	40728.98
549.48	40802.71
549.68	40485.27
549.88	41374.09
550.08	40903.06
550.28	40937.87
550.48	40384.92
550.68	40968.59
550.88	40698.26
551.08	40724.88
551.279	41064.85
551.479	40200.6
551.679	40698.26
551.879	40630.68
552.079	40839.57
552.278	40634.77
552.478	40632.72
552.678	40782.23
552.878	40839.57
553.077	40565.14
553.277	40329.62
553.477	41163.15
553.676	40442.26
553.876	40368.54
554.076	40634.77
554.275	40327.58
554.475	40010.14
554.674	40540.57
554.874	40378.78
555.074	40278.43
555.273	40765.84
555.473	40485.27
555.672	40276.38
555.872	40153.5
556.071	40198.55
556.271	40468.89
556.47	40081.82
556.67	39793.06
556.869	39813.54
557.068	40343.96
557.268	39561.64
557.467	39602.6
557.667	39840.16
557.866	39786.91
558.065	39643.56
558.265	39737.76
558.464	39268.78
558.663	40092.06
558.863	39094.7
559.062	39930.27
559.261	39352.74
559.461	39842.21
559.66	39094.7
559.859	39625.12
560.058	39135.66
560.258	39391.65
560.457	38842.8
560.656	39322.02
560.855	39143.85
561.054	39160.23
561.253	38861.23
561.453	39283.11
561.652	38844.85
561.851	39588.26
562.05	39059.88
562.249	38726.07
562.448	39246.25
562.647	38711.73
562.846	38762.93
563.045	38547.89
563.244	38838.7
563.443	38980.01
563.642	37978.56
563.841	38529.46
564.04	38214.07
564.239	38681.01
564.438	38093.24
564.637	38361.53
564.836	38093.24
565.035	37683.65
565.234	37781.95
565.432	37704.13
565.631	37740.99
565.83	37802.43
566.029	37429.7
566.228	37552.58
566.427	37677.51
566.625	37523.91
566.824	37048.78
567.023	37824.96
567.222	36821.45
567.42	37485
567.619	37173.7
567.818	37312.97
568.016	37177.8
568.215	37380.55
568.414	36944.33
568.612	37261.77
568.811	36493.78
569.01	36839.89
569.208	36729.3
569.407	36858.32
569.605	36463.06
569.804	36428.24
570.002	36145.62
570.201	36393.43
570.4	35875.29
570.598	36274.65
570.797	36014.55
570.995	35623.39
571.193	35715.55
571.392	36067.8
571.59	35660.26
571.789	35674.59
571.987	35236.33
572.186	35439.08
572.384	35516.9
572.582	35500.51
572.781	35680.74
572.979	35195.37
573.177	35174.89
573.376	35645.92
573.574	35148.26
573.772	35283.43
573.971	34718.19
574.169	34232.82
574.367	34353.65
574.565	34984.43
574.763	34476.53
574.962	34654.7
575.16	34087.42
575.358	34312.69
575.556	34251.25
575.754	34372.08
575.952	33892.86
576.151	34013.69
576.349	33505.79
576.547	33765.88
576.745	33733.12
576.943	33575.42
577.141	33626.62
577.339	33649.15
577.537	33663.49
577.735	33683.97
577.933	33178.12
578.131	33452.55
578.329	32836.11
578.527	33028.62
578.725	33063.43
578.923	33159.69
579.121	33145.35
579.319	32647.69
579.516	32852.49
579.714	32604.69
579.912	32664.08
580.11	32621.07
580.308	32131.61
580.506	32496.14
580.704	31642.14
580.901	32299.54
581.099	32496.14
581.297	32078.36
581.495	32008.73
581.692	32221.72
581.89	31846.94
582.088	31750.68
582.285	31539.74
582.483	31689.24
582.681	31750.68
582.878	31803.93
583.076	31300.13
583.274	31738.4
583.471	31212.07
583.669	31423.01
583.866	30990.89
584.064	31197.73
584.262	30251.57
584.459	31117.86
584.657	30845.48
584.854	31216.16
585.052	30327.35
585.249	30695.98
585.447	30388.78
585.644	30159.41
585.841	30464.56
586.039	30743.08
586.236	30042.68
586.434	30140.98
586.631	29751.87
586.828	29991.48
587.026	29983.29
587.223	29778.49
587.42	29823.54
587.618	29633.08
587.815	29532.73
588.012	29766.2
588.21	29180.48
588.407	29913.66
588.604	29231.68
588.801	29127.24
588.999	28893.77
589.196	29338.18
589.393	28983.88
589.59	28942.92
589.787	28535.37
589.984	28523.08
590.182	28756.55
590.379	28858.95
590.576	28576.33
590.773	28553.8
590.97	28023.38
591.167	28465.74
591.364	28254.8
591.561	28183.12
591.758	27976.28
591.955	28111.44
592.152	28158.55
592.349	27679.32
592.546	27550.3
592.743	27794.01
592.94	27343.45
593.137	27660.89
593.334	27736.66
593.531	26845.8
593.727	27472.48
593.924	27273.82
594.121	26917.48
594.318	27437.66
594.515	26657.39
594.712	27163.23
594.908	26843.75
595.105	26991.2
595.302	26313.33
595.499	26792.55
595.696	26497.64
595.892	26344.05
596.089	26217.07
596.286	26796.65
596.482	26305.13
596.679	26147.44
596.876	26090.1
597.072	25823.86
597.269	25862.77
597.466	26051.19
597.662	25852.53
597.859	25969.27
598.055	25821.81
598.252	25553.53
598.448	25559.67
598.645	25465.47
598.841	25422.46
599.038	25291.39
599.234	25211.52
599.431	25172.61
599.627	24916.61
599.824	24775.3
600.02	24820.36
600.217	24951.43
600.413	25033.35
600.609	24590.98
600.806	24924.8
601.002	24552.07
601.198	24597.13
601.395	24808.07
601.591	24562.31
601.787	24455.82
601.984	24171.15
602.18	24283.79
602.376	24058.51
602.572	23843.48
602.769	23876.24
602.965	23736.98
603.161	23775.89
603.357	23581.34
603.553	23536.28
603.75	23644.82
603.946	23354.01
604.142	23579.29
604.338	23026.34
604.534	23517.85
604.73	23114.4
604.926	23118.5
605.122	22907.55
605.318	22946.47
605.514	23118.5
605.71	22696.61
605.906	22809.25
606.102	22839.97
606.298	23022.24
606.494	22788.77
606.69	22598.31
606.886	22854.31
607.082	22284.97
607.278	22358.7
607.474	21975.73
607.67	22588.07
607.866	22180.53
608.062	22125.23
608.257	22336.17
608.453	22307.5
608.649	22348.46
608.845	21834.42
609.041	22051.5
609.236	22114.99
609.432	22082.22
609.628	21486.26
609.824	21856.95
610.019	21762.74
610.215	21670.58
610.411	21531.32
610.606	21799.6
610.802	21689.01
610.998	21473.98
611.193	21430.97
611.389	21316.28
611.584	21510.84
611.78	21277.37
611.976	21263.04
612.171	21496.5
612.367	21353.15
612.562	21279.42
612.758	20873.92
612.953	20908.74
613.149	21217.98
613.344	20978.37
613.539	21662.39
613.735	21043.9
613.93	21203.64
614.126	20953.79
614.321	21129.92
614.517	20792
614.712	20865.73
614.907	20683.46
615.103	20705.99
615.298	20755.14
615.493	20882.11
615.688	20372.17
615.884	20878.02
616.079	20323.02
616.274	20765.38
616.47	20671.17
616.665	20613.83
616.86	20392.65
617.055	20558.53
617.25	20251.34
617.445	20370.12
617.641	20165.32
617.836	20196.04
618.031	19878.61
618.226	20323.02
618.421	19792.59
618.616	19919.57
618.811	19919.57
619.006	20194
619.201	19653.33
619.396	19710.68
619.591	19299.03
619.786	19507.93
619.981	19075.8
620.176	19837.65
620.371	19241.69
620.566	19182.3
620.761	19124.96
620.956	19401.43
621.151	18672.36
621.346	18741.99
621.541	18715.36
621.735	19143.39
621.93	18676.45
622.125	18494.18
622.32	18209.51
622.515	18434.79
622.709	18262.76
622.904	18332.39
623.099	18412.26
623.294	18385.64
623.488	17924.85
623.683	17804.02
623.878	17681.14
624.072	17672.95
624.267	17513.2
624.462	17597.17
624.656	17087.23
624.851	17404.66
625.046	17367.8
625.24	17214.2
625.435	16997.12
625.629	17187.58
625.824	16847.61
626.018	16866.05
626.213	16380.68
626.407	16737.02
626.602	16380.68
626.796	16538.37
626.991	16489.22
627.185	16292.62
627.38	16249.61
627.574	16184.07
627.768	16005.9
627.963	15948.56
628.157	15581.97
628.352	15700.75
628.546	15428.37
628.74	15821.58
628.935	15545.11
629.129	15342.36
629.323	15356.69
629.517	15411.99
629.712	15182.62
629.906	15219.48
630.1	15031.07
630.294	14971.68
630.489	14861.09
630.683	15086.36
630.877	14541.6
631.071	14744.35
631.265	14639.9
631.459	14631.71
631.653	14463.78
631.848	14347.05
632.042	14510.88
632.236	14121.77
632.43	14275.37
632.624	13859.63
632.818	14015.27
633.012	14021.42
633.206	13962.03
633.4	13845.29
633.594	13472.56
633.788	13689.65
633.982	13599.54
634.176	13423.41
634.369	13300.53
634.563	13376.31
634.757	13257.53
634.951	13388.6
635.145	13359.92
635.339	13124.41
635.533	12878.65
635.726	13222.71
635.92	12839.74
636.114	13013.82
636.308	12626.75
636.501	12538.69
636.695	12763.97
636.889	12428.1
637.083	12483.39
637.276	12419.91
637.47	12381
637.664	12098.38
637.857	12307.27
638.051	12229.45
638.244	12022.6
638.438	12172.1
638.632	11801.42
638.825	11989.83
639.019	11975.5
639.212	11856.72
639.406	11782.99
639.599	11641.68
639.793	11635.53
639.986	11416.4
640.18	11541.33
640.373	11623.25
640.567	11426.64
640.76	11285.33
640.954	11195.22
641.147	11293.52
641.34	11365.2
641.534	11170.65
641.727	11109.21
641.92	11121.49
642.114	11150.17
642.307	10931.03
642.5	10945.37
642.694	10709.85
642.887	10529.63
643.08	10726.24
643.273	10629.98
643.467	10386.27
643.66	10402.66
643.853	10373.99
644.046	10349.41
644.239	10421.09
644.432	10183.52
644.626	10046.31
644.819	10220.39
645.012	10005.35
645.205	10296.16
645.398	9960.3
645.591	9884.52
645.784	9907.05
645.977	9814.89
646.17	9808.75
646.363	9782.12
646.556	9646.96
646.749	9565.04
646.942	9745.26
647.135	9323.38
647.328	9616.24
647.521	9462.64
647.714	9362.29
647.907	9423.73
648.099	9253.75
648.292	9335.67
648.485	9255.79
648.678	9063.29
648.871	8776.57
649.064	8971.13
649.256	8891.26
649.449	8993.65
649.642	8817.53
649.835	8930.17
650.027	8754.04
650.22	8878.97
650.413	8665.98
650.605	8655.74
650.798	8579.97
650.991	8547.2
651.183	8457.09
651.376	8393.6
651.568	8409.98
651.761	8364.93
651.954	8274.82
652.146	8428.42
652.339	8332.16
652.531	8512.38
652.724	8233.86
652.916	8192.9
653.109	8031.11
653.301	8258.43
653.494	8100.74
653.686	7981.96
653.879	8098.69
654.071	7879.56
654.263	7756.68
654.456	7955.33
654.648	7717.77
654.84	7652.24
655.033	7680.91
655.225	7725.96
655.417	7725.96
655.61	7605.13
655.802	7574.41
655.994	7611.28
656.186	7537.55
656.379	7558.03
656.571	7439.25
656.763	7224.21
656.955	7377.81
657.148	7408.53
657.34	7158.67
657.532	7299.98
657.724	7070.61
657.916	7173.01
658.108	7205.78
658.3	7021.46
658.492	7019.41
658.684	6953.88
658.876	6939.54
659.068	6869.91
659.26	6884.25
659.452	6908.82
659.644	6914.97
659.836	6583.2
660.028	6622.11
660.22	6599.58
660.412	6478.75
660.604	6540.19
660.796	6583.2
660.988	6581.15
661.18	6542.24
661.372	6482.85
661.563	6757.27
661.755	6558.62
661.947	6511.52
662.139	6398.88
662.331	6304.67
662.522	6269.86
662.714	6378.4
662.906	6159.27
663.097	6192.03
663.289	6230.94
663.481	6155.17
663.673	6169.51
663.864	6157.22
664.056	5974.95
664.247	6058.92
664.439	5927.85
664.631	6103.97
664.822	6015.91
665.014	5874.6
665.205	6026.15
665.397	5782.44
665.588	5813.16
665.78	5755.82
665.971	5800.87
666.163	5725.1
666.354	5716.9
666.546	5766.06
666.737	5690.28
666.929	5622.7
667.12	5708.71
667.311	5524.4
667.503	5497.77
667.694	5446.57
667.885	5622.7
668.077	5510.06
668.268	5430.19
668.459	5376.94
668.651	5405.61
668.842	5252.02
669.033	5340.08
669.224	5245.87
669.416	5333.93
669.607	5348.27
669.798	5215.15
669.989	5309.36
670.18	5155.76
670.371	5278.64
670.563	5163.95
670.754	5036.98
670.945	5034.93
671.136	5182.38
671.327	5100.47
671.518	5149.62
671.709	5114.8
671.9	4891.57
672.091	4955.06
672.282	4807.61
672.473	4930.48
672.664	4961.2
672.855	4922.29
673.046	4815.8
673.237	5036.98
673.428	4973.49
673.619	4885.43
673.809	4846.52
674	4799.41
674.191	4721.59
674.382	4694.97
674.573	4651.96
674.764	4647.87
674.954	4621.24
675.145	4563.9
675.336	4656.06
675.527	4719.54
675.717	4682.68
675.908	4611
676.099	4506.56
676.289	4619.19
676.48	4582.33
676.671	4543.42
676.861	4531.13
677.052	4492.22
677.243	4383.68
677.433	4420.54
677.624	4504.51
677.814	4375.49
678.005	4527.03
678.195	4539.32
678.386	4559.8
678.576	4520.89
678.767	4410.3
678.957	4352.96
679.148	4268.99
679.338	4357.05
679.529	4393.92
679.719	4293.57
679.909	4377.53
680.1	4371.39
680.29	4279.23
680.481	4400.06
680.671	4215.74
680.861	4211.65
681.052	4297.66
681.242	4168.64
681.432	4207.55
681.622	4314.05
681.813	4129.73
682.003	4246.46
682.193	4146.11
682.383	4182.98
682.573	4094.91
682.764	4189.12
682.954	4148.16
683.144	4035.52
683.334	4076.48
683.524	4015.04
683.714	4045.76
683.904	4064.19
684.094	4199.36
684.284	4023.23
684.474	4015.04
684.664	4047.81
684.854	4047.81
685.044	3992.52
685.234	3951.56
685.424	3972.04
685.614	3996.61
685.804	4035.52
685.994	3869.64
686.184	3775.43
686.374	3904.45
686.564	3843.01
686.753	3853.25
686.943	3746.76
687.133	3836.87
687.323	3785.67
687.513	3822.53
687.702	3814.34
687.892	3701.7
688.082	3703.75
688.272	3701.7
688.461	3537.87
688.651	3670.98
688.841	3709.9
689.03	3625.93
689.22	3621.83
689.41	3679.18
689.599	3591.11
689.789	3578.83
689.979	3568.59
690.168	3410.89
690.358	3568.59
690.547	3412.94
690.737	3498.95
690.926	3544.01
691.116	3419.08
691.305	3324.88
691.495	3482.57
691.684	3386.32
691.874	3417.04
692.063	3216.33
692.252	3435.47
692.442	3398.6
692.631	3392.46
692.82	3294.16
693.01	3240.91
693.199	3357.64
693.388	3208.14
693.578	3265.49
693.767	3142.61
693.956	3263.44
694.146	3185.62
694.335	3216.33
694.524	3195.86
694.713	3138.51
694.902	3032.02
695.092	3148.75
695.281	3146.7
695.47	3038.16
695.659	3193.81
695.848	3040.21
696.037	3093.46
696.226	3179.47
696.415	3099.6
696.604	2962.39
696.793	2937.81
696.982	2929.62
697.171	3027.92
697.36	2968.53
697.549	2968.53
697.738	2978.77
697.927	3017.68
698.116	2948.05
698.305	2886.61
698.494	2886.61
698.683	2939.86
698.872	2935.76
699.061	2993.11
699.25	2845.65
699.438	2880.47
699.627	2868.18
699.816	2892.76
700.005	2782.17
700.193	2909.14
700.382	2972.63
700.571	2880.47
700.76	2741.21
700.948	2718.68
701.137	2802.65
701.326	2720.73
701.514	2868.18
701.703	2925.52
701.892	2673.62
702.08	2794.45
702.269	2798.55
702.457	2655.19
702.646	2821.08
702.834	2659.29
703.023	2843.6
703.212	2757.59
703.4	2841.56
703.589	2761.69
703.777	2829.27
703.965	2806.74
704.154	2618.33
704.342	2767.83
704.531	2712.53
704.719	2712.53
704.907	2601.94
705.096	2712.53
705.284	2687.96
705.472	2565.08
705.661	2694.1
705.849	2798.55
706.037	2663.38
706.226	2759.64
706.414	2722.77
706.602	2552.79
706.79	2614.23
706.979	2530.27
707.167	2692.05
707.355	2620.38
707.543	2630.62
707.731	2534.36
707.919	2735.06
708.107	2587.61
708.296	2597.85
708.484	2571.22
708.672	2614.23
708.86	2612.18
709.048	2659.29
709.236	2653.14
709.424	2651.1
709.612	2618.33
709.8	2585.56
709.988	2524.12
710.176	2491.35
710.364	2616.28
710.551	2495.45
710.739	2649.05
710.927	2638.81
711.115	2624.47
711.303	2573.27
711.491	2544.6
711.679	2614.23
711.866	2599.9
712.054	2749.4
712.242	2481.11
712.43	2589.66
712.617	2520.03
712.805	2511.83
712.993	2477.02
713.181	2552.79
713.368	2427.87
713.556	2614.23
713.744	2528.22
713.931	2536.41
714.119	2487.26
714.306	2552.79
714.494	2479.07
714.682	2472.92
714.869	2458.59
715.057	2532.31
715.244	2393.05
715.432	2569.18
715.619	2446.3
715.807	2419.68
715.994	2563.03
716.182	2479.07
716.369	2499.55
716.556	2491.35
716.744	2501.59
716.931	2597.85
717.119	2608.09
717.306	2522.07
717.493	2534.36
717.681	2563.03
717.868	2548.7
718.055	2454.49
718.242	2479.07
718.43	2517.98
718.617	2517.98
718.804	2460.63
718.991	2491.35
719.179	2548.7
719.366	2442.2
719.553	2624.47
719.74	2450.39
719.927	2458.59
720.114	2395.1
720.301	2462.68
720.488	2477.02
720.676	2544.6
720.863	2462.68
721.05	2595.8
721.237	2374.62
721.424	2524.12
721.611	2436.06
721.798	2376.67
721.985	2524.12
722.172	2581.46
722.358	2474.97
722.545	2481.11
722.732	2468.83
722.919	2550.75
723.106	2374.62
723.293	2405.34
723.48	2589.66
723.667	2558.94
723.853	2552.79
724.04	2491.35
724.227	2479.07
724.414	2515.93
724.6	2372.57
724.787	2417.63
724.974	2429.91
725.161	2354.14
725.347	2411.48
725.534	2556.89
725.72	2556.89
725.907	2421.72
726.094	2450.39
726.28	2532.31
726.467	2454.49
726.653	2479.07
726.84	2536.41
727.027	2573.27
727.213	2368.48
727.4	2587.61
727.586	2515.93
727.773	2542.55
727.959	2474.97
728.145	2450.39
728.332	2419.68
728.518	2429.91
728.705	2515.93
728.891	2436.06
729.077	2462.68
729.264	2417.63
729.45	2409.44
729.636	2438.11
729.823	2458.59
730.009	2436.06
730.195	2593.75
730.382	2409.44
730.568	2462.68
730.754	2520.03
730.94	2536.41
731.126	2499.55
731.313	2429.91
731.499	2425.82
731.685	2444.25
731.871	2597.85
732.057	2483.16
732.243	2366.43
732.429	2495.45
732.615	2589.66
732.801	2474.97
732.987	2552.79
733.173	2380.76
733.359	2587.61
733.545	2456.54
733.731	2470.87
733.917	2450.39
734.103	2530.27
734.289	2429.91
734.475	2382.81
734.661	2526.17
734.847	2470.87
735.033	2524.12
735.219	2538.46
735.404	2372.57
735.59	2370.52
735.776	2440.15
735.962	2489.31
736.148	2366.43
736.333	2505.69
736.519	2472.92
736.705	2472.92
736.89	2364.38
737.076	2315.23
737.262	2472.92
737.447	2411.48
737.633	2556.89
737.819	2429.91
738.004	2382.81
738.19	2415.58
738.375	2489.31
738.561	2429.91
738.747	2436.06
738.932	2345.95
739.118	2403.29
739.303	2456.54
739.489	2356.19
739.674	2337.76
739.859	2352.09
740.045	2423.77
740.23	2438.11
740.416	2274.27
740.601	2446.3
740.786	2366.43
740.972	2294.75
741.157	2356.19
741.342	2339.8
741.528	2333.66
741.713	2337.76
741.898	2272.22
742.084	2212.83
742.269	2235.36
742.454	2210.78
742.639	2290.65
742.824	2261.98
743.01	2288.61
743.195	2395.1
743.38	2266.08
743.565	2380.76
743.75	2202.59
743.935	2278.37
744.12	2229.21
744.305	2225.12
744.49	2249.69
744.675	2132.96
744.86	2311.13
745.045	2147.3
745.23	2284.51
745.415	2214.88
745.6	2178.01
745.785	2046.94
745.97	2159.58
746.155	2077.66
746.34	2194.4
746.525	2106.34
746.71	2151.39
746.895	2008.03
747.079	2069.47
747.264	2038.75
747.449	2102.24
747.634	2098.14
747.819	2063.33
748.003	2038.75
748.188	1930.21
748.373	1940.45
748.557	1940.45
748.742	2024.42
748.927	1915.87
749.111	2008.03
749.296	1913.83
749.481	1919.97
749.665	1987.55
749.85	1926.11
750.034	1842.15
750.219	1969.12
750.404	1825.76
750.588	1938.4
750.773	1868.77
750.957	1928.16
751.141	1803.24
751.326	1836
751.51	1788.9
751.695	1801.19
751.879	1786.85
752.064	1733.61
752.248	1737.7
752.432	1827.81
752.617	1858.53
752.801	1807.33
752.985	1670.12
753.17	1700.84
753.354	1643.49
753.538	1717.22
753.722	1631.21
753.907	1592.3
754.091	1635.3
754.275	1623.02
754.459	1653.73
754.643	1625.06
754.828	1692.65
755.012	1647.59
755.196	1567.72
755.38	1471.47
755.564	1606.63
755.748	1565.67
755.932	1623.02
756.116	1430.51
756.3	1473.51
756.484	1516.52
756.668	1512.42
756.852	1467.37
757.036	1428.46
757.22	1438.7
757.404	1500.14
757.588	1459.18
757.772	1528.81
757.956	1397.74
758.14	1463.27
758.323	1442.79
758.507	1401.83
758.691	1305.58
758.875	1418.22
759.059	1418.22
759.242	1324.01
759.426	1375.21
759.61	1381.35
759.794	1233.9
759.977	1346.54
760.161	1426.41
760.345	1289.2
760.528	1393.64
760.712	1291.24
760.895	1287.15
761.079	1311.72
761.263	1215.47
761.446	1244.14
761.63	1250.28
761.813	1393.64
761.997	1258.48
762.18	1235.95
762.364	1297.39
762.547	1211.37
762.731	1258.48
762.914	1221.61
763.098	1217.52
763.281	1278.96
763.464	1217.52
763.648	1192.94
763.831	1235.95
764.015	1139.69
764.198	1221.61
764.381	1205.23
764.564	1156.08
764.748	1219.57
764.931	1172.46
765.114	1104.88
765.297	1137.65
765.481	1123.31
765.664	1104.88
765.847	1160.17
766.03	1156.08
766.213	1068.02
766.397	1074.16
766.58	1147.89
766.763	1053.68
766.946	1119.21
767.129	1053.68
767.312	1043.44
767.495	1104.88
767.678	986.1
767.861	1086.45
768.044	1029.1
768.227	1094.64
768.41	996.34
768.593	994.29
768.776	1059.82
768.959	1018.86
769.142	1061.87
769.324	1068.02
769.507	1047.54
769.69	1027.06
769.873	1012.72
770.056	1051.63
770.239	1072.11
770.421	1088.5
770.604	988.14
770.787	1010.67
770.97	984.05
771.152	1016.82
771.335	1055.73
771.518	1070.06
771.7	971.76
771.883	979.95
772.066	916.47
772.248	947.19
772.431	947.19
772.613	904.18
772.796	951.28
772.978	959.47
773.161	1000.43
773.343	873.46
773.526	955.38
773.708	1000.43
773.891	850.93
774.073	822.26
774.256	928.75
774.438	873.46
774.621	844.79
774.803	838.64
774.985	881.65
775.168	877.55
775.35	777.2
775.532	881.65
775.715	908.27
775.897	822.26
776.079	818.16
776.261	873.46
776.444	793.59
776.626	855.03
776.808	748.53
776.99	756.72
777.173	660.47
777.355	732.15
777.537	812.02
777.719	701.43
777.901	789.49
778.083	646.13
778.265	746.48
778.447	791.54
778.629	762.87
778.811	777.2
778.993	648.18
779.175	746.48
779.357	721.91
779.539	713.72
779.721	642.04
779.903	717.81
780.085	719.86
780.267	685.05
780.449	609.27
780.631	695.29
780.812	746.48
780.994	580.6
781.176	644.09
781.358	646.13
781.54	611.32
781.721	664.57
781.903	658.42
782.085	613.37
782.267	623.61
782.448	644.09
782.63	568.31
782.812	582.65
782.993	592.89
783.175	648.18
783.357	547.83
783.538	629.75
783.72	541.69
783.901	506.87
784.083	517.11
784.264	551.93
784.446	506.87
784.627	566.26
784.809	496.63
784.99	590.84
785.172	521.21
785.353	457.72
785.535	486.39
785.716	537.59
785.897	449.53
786.079	486.39
786.26	545.78
786.441	523.26
786.623	472.06
786.804	484.34
786.985	463.86
787.167	539.64
787.348	515.06
787.529	521.21
787.71	543.74
787.891	570.36
788.073	470.01
788.254	486.39
788.435	433.15
788.616	521.21
788.797	504.82
788.978	539.64
789.159	467.96
789.34	459.77
789.522	427
789.703	551.93
789.884	394.23
790.065	322.56
790.246	523.26
790.427	498.68
790.607	414.71
790.788	445.43
790.969	394.23
791.15	424.95
791.331	336.89
791.512	443.39
791.693	472.06
791.874	422.91
792.054	488.44
792.235	435.19
792.416	336.89
792.597	453.63
792.778	406.52
792.958	451.58
793.139	363.51
793.32	330.75
793.5	357.37
793.681	414.71
793.862	408.57
794.042	396.28
794.223	308.22
794.404	363.51
794.584	314.36
794.765	353.27
794.945	332.79
795.126	371.71
795.306	371.71
795.487	302.08
795.667	300.03
795.848	396.28
796.028	338.94
796.209	300.03
796.389	340.99
796.57	302.08
796.75	359.42
796.93	324.6
797.111	336.89
797.291	394.23
797.471	318.46
797.652	316.41
797.832	308.22
798.012	357.37
798.192	320.51
798.373	332.79
798.553	283.64
798.733	263.16
798.913	246.78
799.093	312.32
799.274	263.16
799.454	287.74
799.634	310.27
799.814	406.52
799.994	324.6
800.174	359.42
800.354	263.16
800.534	306.17
800.714	334.84
800.894	269.31
801.074	238.59
801.254	236.54
801.434	318.46
801.614	283.64
801.794	265.21
801.974	637.94
802.154	283.64
802.334	328.7
802.514	273.4
802.693	312.32
802.873	228.35
803.053	302.08
803.233	246.78
803.413	201.72
803.592	242.68
803.772	261.12
803.952	226.3
804.131	259.07
804.311	234.49
804.491	259.07
804.67	214.01
804.85	228.35
805.03	224.25
805.209	345.08
805.389	265.21
805.568	283.64
805.748	238.59
805.928	277.5
806.107	199.68
806.287	244.73
806.466	242.68
806.646	220.16
806.825	248.83
807.004	230.4
807.184	273.4
807.363	263.16
807.543	224.25
807.722	222.2
807.901	271.36
808.081	250.88
808.26	214.01
808.439	160.77
808.619	218.11
808.798	121.85
808.977	220.16
809.156	166.91
809.336	168.96
809.515	275.45
809.694	193.53
809.873	164.86
810.052	119.81
810.231	187.39
810.411	183.29
810.59	136.19
810.769	216.06
810.948	142.33
811.127	164.86
811.306	197.63
811.485	179.2
811.664	211.96
811.843	144.38
812.022	214.01
812.201	185.34
812.38	214.01
812.559	179.2
812.737	222.2
812.916	189.44
813.095	240.64
813.274	279.55
813.453	105.47
813.632	209.92
813.811	164.86
813.989	164.86
814.168	185.34
814.347	160.77
814.526	177.15
814.704	193.53
814.883	181.25
815.062	123.9
815.24	121.85
815.419	201.72
815.598	248.83
815.776	187.39
815.955	93.18
816.133	125.95
816.312	105.47
816.49	87.04
816.669	150.53
816.847	152.57
817.026	152.57
817.204	154.62
817.383	164.86
817.561	113.66
817.74	216.06
817.918	173.05
818.097	89.09
818.275	173.05
818.453	189.44
818.632	193.53
818.81	164.86
818.988	160.77
819.167	193.53
819.345	146.43
819.523	171.01
819.701	97.28
819.879	193.53
820.058	54.27
820.236	113.66
820.414	97.28
820.592	72.7
820.77	109.57
820.948	136.19
821.127	93.18
821.305	218.11
821.483	148.48
821.661	101.37
821.839	87.04
822.017	103.42
822.195	119.81
822.373	181.25
822.551	35.84
822.729	156.67
822.907	115.71
823.085	162.81
823.262	148.48
823.44	146.43
823.618	123.9
823.796	144.38
823.974	115.71
824.152	97.28
824.329	87.04
824.507	111.61
824.685	162.81
824.863	136.19
825.04	123.9
825.218	125.95
825.396	58.37
825.574	154.62
825.751	130.05
825.929	160.77
826.107	132.09
826.284	175.1
826.462	109.57
826.639	199.68
826.817	72.7
826.994	101.37
827.172	115.71
827.349	113.66
827.527	66.56
827.704	72.7
827.882	164.86
828.059	187.39
828.237	119.81
828.414	148.48
828.591	41.98
828.769	177.15
828.946	109.57
829.124	146.43
829.301	134.14
829.478	35.84
829.655	99.33
829.833	101.37
830.01	33.79
830.187	93.18
830.364	46.08
830.542	128
830.719	166.91
830.896	76.8
831.073	105.47
831.25	97.28
831.427	82.94
831.604	78.85
831.782	74.75
831.959	113.66
832.136	78.85
832.313	41.98
832.49	80.89
832.667	66.56
832.844	128
833.021	76.8
833.198	76.8
833.374	80.89
833.551	44.03
833.728	109.57
833.905	62.46
834.082	44.03
834.259	107.52
834.436	99.33
834.612	74.75
834.789	125.95
834.966	46.08
835.143	103.42
835.319	74.75
835.496	117.76
835.673	76.8
835.85	136.19
836.026	25.6
836.203	109.57
836.38	56.32
836.556	80.89
836.733	107.52
836.909	115.71
837.086	101.37
837.262	64.51
837.439	58.37
837.616	50.18
837.792	72.7
837.968	146.43
838.145	46.08
838.321	107.52
838.498	91.13
838.674	115.71
838.851	91.13
839.027	-5.12
839.203	84.99
839.38	58.37
839.556	-13.31
839.732	84.99
839.909	84.99
840.085	25.6
840.261	48.13
840.437	13.31
840.614	5.12
840.79	37.89
840.966	54.27
841.142	78.85
841.318	44.03
841.494	132.09
841.671	74.75
841.847	52.22
842.023	95.23
842.199	162.81
842.375	103.42
842.551	29.7
842.727	64.51
842.903	123.9
843.079	-9.22
843.255	99.33
843.431	-3.07
843.607	60.42
843.783	19.46
843.959	35.84
844.134	27.65
844.31	84.99
844.486	44.03
844.662	41.98
844.838	48.13
845.013	111.61
845.189	46.08
845.365	56.32
845.541	60.42
845.716	64.51
845.892	9.22
846.068	87.04
846.244	13.31
846.419	25.6
846.595	-13.31
846.77	31.74
846.946	82.94
847.122	78.85
847.297	27.65
847.473	93.18
847.648	-3.07
847.824	29.7
847.999	95.23
848.175	78.85
848.35	41.98
848.526	64.51
848.701	84.99
848.876	101.37
849.052	17.41
849.227	58.37
849.403	-17.41
849.578	82.94
849.753	50.18
849.929	-7.17
850.104	-1.02
850.279	41.98
850.454	156.67
850.63	50.18
850.805	70.65
850.98	84.99
851.155	97.28
851.33	78.85
851.505	-41.98
851.681	107.52
851.856	93.18
852.031	48.13
852.206	29.7
852.381	-3.07
852.556	33.79
852.731	7.17
852.906	84.99
853.081	17.41
853.256	29.7
853.431	52.22
853.606	41.98
853.781	-13.31
853.956	-60.42
854.131	78.85
854.305	-23.55
854.48	56.32
854.655	25.6
854.83	-35.84
855.005	13.31
855.18	103.42
855.354	54.27
855.529	113.66
855.704	17.41
855.879	17.41
856.053	1.02
856.228	1.02
856.403	-37.89
856.577	-64.51
856.752	13.31
856.926	21.5
857.101	31.74
857.276	33.79
857.45	31.74
857.625	9.22
857.799	60.42
857.974	68.61
858.148	19.46
858.323	-31.74
858.497	-52.22
858.672	62.46
858.846	-70.65
859.02	76.8
859.195	-19.46
859.369	5.12
859.543	64.51
859.718	23.55
859.892	-9.22
860.066	11.26
860.241	23.55
860.415	29.7
860.589	-25.6
860.763	7.17
860.938	117.76
861.112	87.04
861.286	-27.65
861.46	31.74
861.634	41.98
861.808	-68.61
861.982	41.98
862.157	11.26
862.331	27.65
862.505	13.31
862.679	-3.07
862.853	7.17
863.027	1.02
863.201	-23.55
863.375	17.41
863.549	27.65
863.722	25.6
863.896	25.6
864.07	7.17
864.244	37.89
864.418	37.89
864.592	-3.07
864.766	48.13
864.939	13.31
865.113	13.31
865.287	107.52
865.461	25.6
865.634	60.42
865.808	21.5
865.982	95.23
866.156	9.22
866.329	-52.22
866.503	95.23
866.676	27.65
866.85	-21.5
867.024	-31.74
867.197	1.02
867.371	80.89
867.544	-9.22
867.718	35.84
867.891	35.84
868.065	-31.74
868.238	37.89
868.412	70.65
868.585	25.6
868.759	15.36
868.932	-17.41
869.105	9.22
869.279	17.41
869.452	-33.79
869.625	-13.31
869.799	56.32
869.972	-62.46
870.145	-35.84
870.319	5.12
870.492	7.17
870.665	9.22
870.838	39.94
871.011	-13.31
871.185	21.5
871.358	-29.7
871.531	29.7
871.704	50.18
871.877	1.02
872.05	64.51
872.223	-23.55
872.396	50.18
872.569	9.22
872.742	-35.84
872.915	-1.02
873.088	23.55
873.261	7.17
873.434	-11.26
873.607	23.55
873.78	-3.07
873.953	-41.98
874.126	35.84
874.299	33.79
874.471	68.61
874.644	48.13
874.817	72.7
874.99	68.61
875.163	-23.55
875.335	7.17
875.508	-3.07
875.681	11.26
875.853	29.7
876.026	46.08
876.199	37.89
876.371	7.17
876.544	64.51
876.717	-29.7
876.889	52.22
877.062	50.18
877.234	29.7
877.407	21.5
877.579	-39.94
877.752	21.5
877.924	41.98
878.097	29.7
878.269	-5.12
878.442	74.75
878.614	7.17
878.786	54.27
878.959	29.7
879.131	31.74
879.303	-9.22
879.476	11.26
879.648	107.52
879.82	99.33
879.993	-23.55
880.165	-19.46
880.337	35.84
880.509	64.51
880.681	21.5
880.854	-33.79
881.026	13.31
881.198	66.56
881.37	-33.79
881.542	11.26
881.714	-33.79
881.886	5.12
882.058	39.94
882.23	-35.84
882.402	-56.32
882.574	168.96
882.746	-11.26
882.918	64.51
883.09	11.26
883.262	-7.17
883.434	101.37
883.606	-9.22
883.778	66.56
883.95	46.08
884.122	54.27
884.293	87.04
884.465	17.41
884.637	-3.07
884.809	-11.26
884.98	-29.7
885.152	-11.26
885.324	84.99
885.496	-41.98
885.667	-7.17
885.839	-31.74
886.011	-7.17
886.182	-23.55
886.354	50.18
886.525	37.89
886.697	-27.65
886.869	-17.41
887.04	25.6
887.212	27.65
887.383	66.56
887.555	-70.65
887.726	-95.23
887.897	25.6
888.069	-35.84
888.24	9.22
888.412	5.12
888.583	33.79
888.754	-7.17
888.926	-56.32
889.097	37.89
889.268	-27.65
889.44	-35.84
889.611	-68.61
889.782	109.57
889.953	29.7
890.125	37.89
890.296	11.26
890.467	-3.07
890.638	-27.65
890.809	1.02
890.98	-5.12
891.151	48.13
891.323	29.7
891.494	-23.55
891.665	7.17
891.836	9.22
892.007	39.94
892.178	52.22
892.349	17.41
892.52	60.42
892.691	78.85
892.862	-27.65
893.032	-19.46
893.203	62.46
893.374	-5.12
893.545	-23.55
893.716	-11.26
893.887	-44.03
894.057	39.94
894.228	58.37
894.399	-21.5
894.57	58.37
894.74	3.07
894.911	58.37
895.082	-31.74
895.253	74.75
895.423	17.41
895.594	62.46
895.764	89.09
895.935	11.26
896.106	7.17
896.276	19.46
896.447	-3.07
896.617	-5.12
896.788	68.61
896.958	17.41
897.129	-11.26
897.299	25.6
897.47	33.79
897.64	33.79
897.81	-39.94
897.981	29.7
898.151	13.31
898.322	-62.46
898.492	-1.02
898.662	-3.07
898.832	-1.02
899.003	60.42
899.173	-9.22
899.343	87.04
899.513	-48.13
