Data from USB4F104151__233__11-11-14-672.txt Node

Date: Wed Mar 12 11:11:14 EDT 2025
User: louis
Spectrometer: USB4F10415
Trigger mode: 4
Integration Time (sec): 2.000000E-2
Scans to average: 1
Electric dark correction enabled: true
Nonlinearity correction enabled: false
Boxcar width: 0
XAxis mode: Wavelengths
Number of Pixels in Spectrum: 3648
>>>>>Begin Spectral Data<<<<<
178.204	-51.88
178.424	-51.88
178.644	-51.88
178.864	-115.37
179.084	-55.98
179.304	-15.02
179.524	36.18
179.744	5.46
179.964	15.7
180.184	-53.93
180.404	48.47
180.624	-53.93
180.844	13.65
181.064	58.71
181.283	1.37
181.503	-53.93
181.723	-2.73
181.943	38.23
182.163	97.62
182.383	23.89
182.602	13.65
182.822	48.47
183.042	13.65
183.262	1.37
183.482	34.13
183.701	-10.92
183.921	-12.97
184.141	-29.35
184.361	91.48
184.58	15.7
184.8	-10.92
185.02	23.89
185.239	-4.78
185.459	42.32
185.679	66.9
185.898	-53.93
186.118	-51.88
186.338	-47.79
186.557	30.04
186.777	17.75
186.997	34.13
187.216	-72.36
187.436	68.95
187.655	-19.11
187.875	11.61
188.095	-15.02
188.314	11.61
188.534	-0.68
188.753	5.46
188.973	11.61
189.192	48.47
189.412	46.42
189.631	7.51
189.851	21.85
190.07	68.95
190.29	-41.64
190.509	32.08
190.729	7.51
190.948	32.08
191.168	122.2
191.387	48.47
191.607	7.51
191.826	68.95
192.045	9.56
192.265	17.75
192.484	-6.83
192.704	13.65
192.923	1.37
193.142	64.85
193.362	13.65
193.581	62.8
193.8	64.85
194.02	40.28
194.239	-47.79
194.458	36.18
194.678	-62.12
194.897	38.23
195.116	-12.97
195.335	64.85
195.555	7.51
195.774	13.65
195.993	19.8
196.212	-19.11
196.432	27.99
196.651	-33.45
196.87	79.19
197.089	40.28
197.308	68.95
197.528	77.14
197.747	42.32
197.966	60.76
198.185	30.04
198.404	-8.87
198.623	1.37
198.842	58.71
199.062	42.32
199.281	79.19
199.5	-25.26
199.719	56.66
199.938	64.85
200.157	71
200.376	62.8
200.595	52.56
200.814	-2.73
201.033	32.08
201.252	7.51
201.471	107.86
201.69	1.37
201.909	-37.55
202.128	-15.02
202.347	-4.78
202.566	5.46
202.785	9.56
203.004	-10.92
203.223	19.8
203.442	11.61
203.661	38.23
203.879	-15.02
204.098	11.61
204.317	71
204.536	128.34
204.755	19.8
204.974	71
205.193	-31.4
205.411	15.7
205.63	23.89
205.849	-15.02
206.068	-55.98
206.287	36.18
206.505	27.99
206.724	107.86
206.943	-19.11
207.162	-6.83
207.381	21.85
207.599	-4.78
207.818	-17.07
208.037	1.37
208.255	-0.68
208.474	36.18
208.693	83.28
208.911	77.14
209.13	17.75
209.349	15.7
209.567	32.08
209.786	27.99
210.005	30.04
210.223	-4.78
210.442	-21.16
210.661	-29.35
210.879	79.19
211.098	34.13
211.316	3.41
211.535	21.85
211.753	21.85
211.972	-2.73
212.191	42.32
212.409	-10.92
212.628	75.09
212.846	38.23
213.065	-19.11
213.283	11.61
213.502	5.46
213.72	-49.83
213.938	11.61
214.157	-6.83
214.375	50.52
214.594	-68.27
214.812	50.52
215.031	54.61
215.249	-43.69
215.467	-8.87
215.686	-6.83
215.904	30.04
216.122	-15.02
216.341	52.56
216.559	-6.83
216.778	15.7
216.996	-8.87
217.214	1.37
217.432	58.71
217.651	3.41
217.869	81.24
218.087	95.57
218.306	42.32
218.524	60.76
218.742	23.89
218.96	54.61
219.179	-33.45
219.397	3.41
219.615	52.56
219.833	56.66
220.051	87.38
220.27	89.43
220.488	-35.5
220.706	30.04
220.924	-27.31
221.142	-8.87
221.36	19.8
221.578	17.75
221.796	-4.78
222.015	9.56
222.233	-51.88
222.451	62.8
222.669	-31.4
222.887	71
223.105	50.52
223.323	62.8
223.541	-31.4
223.759	27.99
223.977	54.61
224.195	50.52
224.413	81.24
224.631	32.08
224.849	40.28
225.067	62.8
225.285	71
225.503	23.89
225.721	-41.64
225.939	36.18
226.157	44.37
226.375	9.56
226.592	-47.79
226.81	7.51
227.028	11.61
227.246	134.48
227.464	62.8
227.682	101.72
227.9	73.04
228.117	-33.45
228.335	-2.73
228.553	60.76
228.771	-15.02
228.989	64.85
229.206	-21.16
229.424	27.99
229.642	-82.6
229.86	9.56
230.077	25.94
230.295	3.41
230.513	9.56
230.731	58.71
230.948	32.08
231.166	44.37
231.384	-31.4
231.601	9.56
231.819	46.42
232.037	44.37
232.254	-31.4
232.472	87.38
232.689	46.42
232.907	25.94
233.125	89.43
233.342	42.32
233.56	13.65
233.777	1.37
233.995	-12.97
234.213	124.24
234.43	-39.59
234.648	9.56
234.865	-12.97
235.083	17.75
235.3	42.32
235.518	-6.83
235.735	42.32
235.953	71
236.17	-35.5
236.388	-19.11
236.605	79.19
236.822	-19.11
237.04	107.86
237.257	-31.4
237.475	42.32
237.692	103.76
237.909	32.08
238.127	34.13
238.344	-25.26
238.562	-15.02
238.779	11.61
238.996	46.42
239.214	56.66
239.431	56.66
239.648	-29.35
239.865	13.65
240.083	-12.97
240.3	-31.4
240.517	-33.45
240.735	48.47
240.952	30.04
241.169	9.56
241.386	38.23
241.603	17.75
241.821	40.28
242.038	56.66
242.255	-19.11
242.472	-17.07
242.689	17.75
242.907	46.42
243.124	-2.73
243.341	23.89
243.558	50.52
243.775	25.94
243.992	-17.07
244.209	23.89
244.426	79.19
244.643	-39.59
244.86	-19.11
245.078	40.28
245.295	87.38
245.512	46.42
245.729	9.56
245.946	40.28
246.163	-6.83
246.38	-25.26
246.597	7.51
246.814	27.99
247.031	62.8
247.248	30.04
247.464	-41.64
247.681	38.23
247.898	25.94
248.115	25.94
248.332	-33.45
248.549	9.56
248.766	85.33
248.983	66.9
249.2	40.28
249.417	-0.68
249.633	40.28
249.85	91.48
250.067	-49.83
250.284	40.28
250.501	77.14
250.717	13.65
250.934	-27.31
251.151	-33.45
251.368	50.52
251.585	-35.5
251.801	-6.83
252.018	-25.26
252.235	-2.73
252.451	-64.17
252.668	-33.45
252.885	48.47
253.102	-12.97
253.318	54.61
253.535	-0.68
253.752	-19.11
253.968	23.89
254.185	-2.73
254.401	-60.07
254.618	-19.11
254.835	-15.02
255.051	56.66
255.268	38.23
255.484	114
255.701	42.32
255.917	-4.78
256.134	-37.55
256.351	17.75
256.567	-21.16
256.784	-8.87
257	-80.55
257.217	56.66
257.433	1.37
257.65	19.8
257.866	34.13
258.082	-4.78
258.299	-29.35
258.515	75.09
258.732	-55.98
258.948	60.76
259.165	-60.07
259.381	-53.93
259.597	34.13
259.814	54.61
260.03	5.46
260.246	48.47
260.463	46.42
260.679	68.95
260.895	-37.55
261.112	25.94
261.328	126.29
261.544	17.75
261.761	89.43
261.977	11.61
262.193	34.13
262.409	60.76
262.626	36.18
262.842	68.95
263.058	-21.16
263.274	13.65
263.49	-19.11
263.707	1.37
263.923	79.19
264.139	30.04
264.355	107.86
264.571	30.04
264.787	9.56
265.004	3.41
265.22	-6.83
265.436	1.37
265.652	23.89
265.868	30.04
266.084	81.24
266.3	19.8
266.516	-35.5
266.732	75.09
266.948	9.56
267.164	17.75
267.38	-15.02
267.596	11.61
267.812	23.89
268.028	44.37
268.244	-21.16
268.46	38.23
268.676	-29.35
268.892	-19.11
269.108	-41.64
269.324	23.89
269.54	1.37
269.756	25.94
269.972	-6.83
270.188	38.23
270.403	71
270.619	5.46
270.835	19.8
271.051	-2.73
271.267	-2.73
271.483	48.47
271.698	48.47
271.914	58.71
272.13	1.37
272.346	13.65
272.562	-21.16
272.777	17.75
272.993	-10.92
273.209	58.71
273.425	48.47
273.64	34.13
273.856	34.13
274.072	-2.73
274.287	-17.07
274.503	103.76
274.719	38.23
274.934	56.66
275.15	9.56
275.366	87.38
275.581	-8.87
275.797	50.52
276.012	99.67
276.228	15.7
276.444	23.89
276.659	5.46
276.875	-21.16
277.09	46.42
277.306	-23.21
277.521	71
277.737	11.61
277.952	-15.02
278.168	42.32
278.383	19.8
278.599	38.23
278.814	-58.03
279.03	-27.31
279.245	66.9
279.461	66.9
279.676	40.28
279.892	-15.02
280.107	19.8
280.322	-23.21
280.538	15.7
280.753	46.42
280.969	38.23
281.184	79.19
281.399	62.8
281.615	93.52
281.83	19.8
282.045	-27.31
282.26	42.32
282.476	34.13
282.691	64.85
282.906	23.89
283.122	-51.88
283.337	9.56
283.552	103.76
283.767	-23.21
283.983	48.47
284.198	-8.87
284.413	34.13
284.628	5.46
284.843	27.99
285.058	87.38
285.274	46.42
285.489	44.37
285.704	13.65
285.919	9.56
286.134	62.8
286.349	66.9
286.564	-4.78
286.779	13.65
286.995	60.76
287.21	36.18
287.425	1.37
287.64	-43.69
287.855	91.48
288.07	-74.41
288.285	62.8
288.5	116.05
288.715	19.8
288.93	-23.21
289.145	-21.16
289.36	32.08
289.575	42.32
289.79	-2.73
290.004	19.8
290.219	-29.35
290.434	3.41
290.649	40.28
290.864	81.24
291.079	-2.73
291.294	-2.73
291.509	9.56
291.724	-2.73
291.938	27.99
292.153	23.89
292.368	5.46
292.583	23.89
292.798	-21.16
293.012	27.99
293.227	34.13
293.442	17.75
293.657	-6.83
293.871	60.76
294.086	-2.73
294.301	36.18
294.516	30.04
294.73	91.48
294.945	38.23
295.16	-0.68
295.374	66.9
295.589	11.61
295.804	-47.79
296.018	19.8
296.233	91.48
296.447	56.66
296.662	-29.35
296.877	68.95
297.091	13.65
297.306	62.8
297.52	-25.26
297.735	75.09
297.949	50.52
298.164	87.38
298.378	54.61
298.593	15.7
298.807	62.8
299.022	75.09
299.236	32.08
299.451	99.67
299.665	75.09
299.88	21.85
300.094	50.52
300.309	73.04
300.523	77.14
300.737	27.99
300.952	52.56
301.166	23.89
301.381	25.94
301.595	-2.73
301.809	62.8
302.024	-35.5
302.238	-43.69
302.452	93.52
302.667	32.08
302.881	23.89
303.095	93.52
303.309	101.72
303.524	11.61
303.738	73.04
303.952	30.04
304.166	75.09
304.381	-33.45
304.595	62.8
304.809	-80.55
305.023	54.61
305.237	-33.45
305.452	17.75
305.666	42.32
305.88	-2.73
306.094	97.62
306.308	95.57
306.522	25.94
306.736	42.32
306.95	46.42
307.164	32.08
307.379	17.75
307.593	40.28
307.807	23.89
308.021	34.13
308.235	66.9
308.449	1.37
308.663	17.75
308.877	77.14
309.091	-8.87
309.305	54.61
309.519	-8.87
309.733	5.46
309.947	68.95
310.161	77.14
310.374	-33.45
310.588	71
310.802	36.18
311.016	23.89
311.23	81.24
311.444	17.75
311.658	-0.68
311.872	79.19
312.085	17.75
312.299	17.75
312.513	75.09
312.727	52.56
312.941	15.7
313.154	13.65
313.368	-29.35
313.582	40.28
313.796	21.85
314.009	1.37
314.223	52.56
314.437	46.42
314.651	-29.35
314.864	11.61
315.078	40.28
315.292	-6.83
315.505	64.85
315.719	30.04
315.933	83.28
316.146	9.56
316.36	64.85
316.573	32.08
316.787	66.9
317.001	50.52
317.214	46.42
317.428	60.76
317.641	71
317.855	66.9
318.068	30.04
318.282	54.61
318.495	42.32
318.709	52.56
318.922	56.66
319.136	38.23
319.349	50.52
319.563	-23.21
319.776	-37.55
319.99	15.7
320.203	27.99
320.417	25.94
320.63	-49.83
320.843	99.67
321.057	-29.35
321.27	-12.97
321.483	34.13
321.697	89.43
321.91	58.71
322.124	42.32
322.337	-15.02
322.55	-12.97
322.763	-49.83
322.977	11.61
323.19	-6.83
323.403	-17.07
323.617	50.52
323.83	15.7
324.043	-37.55
324.256	19.8
324.469	15.7
324.683	-10.92
324.896	27.99
325.109	62.8
325.322	-45.74
325.535	79.19
325.748	13.65
325.962	32.08
326.175	1.37
326.388	71
326.601	46.42
326.814	66.9
327.027	25.94
327.24	95.57
327.453	9.56
327.666	27.99
327.879	13.65
328.092	-12.97
328.305	17.75
328.518	38.23
328.731	-47.79
328.944	50.52
329.157	34.13
329.37	-35.5
329.583	5.46
329.796	30.04
330.009	-51.88
330.222	71
330.435	-23.21
330.648	27.99
330.861	-39.59
331.073	15.7
331.286	19.8
331.499	3.41
331.712	-2.73
331.925	44.37
332.138	-0.68
332.35	32.08
332.563	13.65
332.776	89.43
332.989	71
333.202	-12.97
333.414	23.89
333.627	15.7
333.84	21.85
334.053	83.28
334.265	-6.83
334.478	91.48
334.691	-21.16
334.903	46.42
335.116	7.51
335.329	17.75
335.541	19.8
335.754	75.09
335.966	64.85
336.179	111.96
336.392	48.47
336.604	38.23
336.817	44.37
337.029	46.42
337.242	23.89
337.454	64.85
337.667	38.23
337.88	111.96
338.092	27.99
338.305	-12.97
338.517	58.71
338.729	38.23
338.942	40.28
339.154	-4.78
339.367	99.67
339.579	122.2
339.792	-6.83
340.004	15.7
340.217	52.56
340.429	27.99
340.641	60.76
340.854	42.32
341.066	15.7
341.278	7.51
341.491	73.04
341.703	13.65
341.915	38.23
342.128	-4.78
342.34	15.7
342.552	40.28
342.764	17.75
342.977	46.42
343.189	34.13
343.401	-17.07
343.613	-47.79
343.826	21.85
344.038	-15.02
344.25	36.18
344.462	17.75
344.674	77.14
344.886	77.14
345.099	50.52
345.311	25.94
345.523	-6.83
345.735	21.85
345.947	85.33
346.159	30.04
346.371	25.94
346.583	-6.83
346.795	-37.55
347.007	17.75
347.219	5.46
347.431	-8.87
347.643	64.85
347.855	-4.78
348.067	42.32
348.279	-8.87
348.491	38.23
348.703	15.7
348.915	13.65
349.127	58.71
349.339	68.95
349.551	-15.02
349.763	25.94
349.975	15.7
350.187	-12.97
350.399	83.28
350.61	97.62
350.822	-15.02
351.034	30.04
351.246	46.42
351.458	64.85
351.669	54.61
351.881	19.8
352.093	15.7
352.305	34.13
352.517	38.23
352.728	58.71
352.94	64.85
353.152	81.24
353.363	-8.87
353.575	58.71
353.787	-0.68
353.999	62.8
354.21	52.56
354.422	17.75
354.633	3.41
354.845	1.37
355.057	50.52
355.268	58.71
355.48	62.8
355.692	42.32
355.903	-10.92
356.115	42.32
356.326	75.09
356.538	97.62
356.749	120.15
356.961	19.8
357.172	-31.4
357.384	-43.69
357.595	73.04
357.807	17.75
358.018	-47.79
358.23	71
358.441	32.08
358.653	25.94
358.864	-21.16
359.075	1.37
359.287	1.37
359.498	-25.26
359.709	44.37
359.921	77.14
360.132	5.46
360.344	87.38
360.555	7.51
360.766	13.65
360.977	21.85
361.189	-0.68
361.4	42.32
361.611	54.61
361.823	48.47
362.034	116.05
362.245	-2.73
362.456	103.76
362.667	13.65
362.879	54.61
363.09	23.89
363.301	-4.78
363.512	79.19
363.723	40.28
363.935	7.51
364.146	23.89
364.357	-2.73
364.568	116.05
364.779	11.61
364.99	101.72
365.201	111.96
365.412	79.19
365.623	17.75
365.834	91.48
366.045	83.28
366.256	60.76
366.467	38.23
366.678	-12.97
366.889	-37.55
367.1	1.37
367.311	25.94
367.522	46.42
367.733	-23.21
367.944	36.18
368.155	52.56
368.366	34.13
368.577	19.8
368.788	40.28
368.999	13.65
369.209	30.04
369.42	79.19
369.631	68.95
369.842	91.48
370.053	15.7
370.264	101.72
370.474	-58.03
370.685	1.37
370.896	-10.92
371.107	36.18
371.317	56.66
371.528	13.65
371.739	97.62
371.95	52.56
372.16	46.42
372.371	15.7
372.582	23.89
372.792	17.75
373.003	13.65
373.214	91.48
373.424	120.15
373.635	52.56
373.846	85.33
374.056	46.42
374.267	111.96
374.477	71
374.688	21.85
374.898	58.71
375.109	87.38
375.319	11.61
375.53	75.09
375.74	13.65
375.951	15.7
376.161	42.32
376.372	130.39
376.582	7.51
376.793	25.94
377.003	79.19
377.214	50.52
377.424	-21.16
377.635	11.61
377.845	17.75
378.055	23.89
378.266	-12.97
378.476	48.47
378.686	46.42
378.897	-31.4
379.107	118.1
379.317	46.42
379.528	44.37
379.738	97.62
379.948	68.95
380.158	89.43
380.369	68.95
380.579	36.18
380.789	11.61
380.999	99.67
381.21	85.33
381.42	89.43
381.63	-23.21
381.84	58.71
382.05	85.33
382.261	46.42
382.471	25.94
382.681	54.61
382.891	27.99
383.101	99.67
383.311	42.32
383.521	34.13
383.731	62.8
383.941	5.46
384.151	15.7
384.361	107.86
384.571	-19.11
384.781	85.33
384.991	50.52
385.201	68.95
385.411	66.9
385.621	81.24
385.831	30.04
386.041	17.75
386.251	-27.31
386.461	62.8
386.671	161.11
386.881	50.52
387.091	19.8
387.301	120.15
387.511	107.86
387.72	17.75
387.93	64.85
388.14	124.24
388.35	79.19
388.56	9.56
388.769	97.62
388.979	75.09
389.189	40.28
389.399	46.42
389.609	34.13
389.818	101.72
390.028	60.76
390.238	107.86
390.447	15.7
390.657	-15.02
390.867	40.28
391.076	9.56
391.286	56.66
391.496	1.37
391.705	42.32
391.915	99.67
392.125	15.7
392.334	85.33
392.544	5.46
392.753	56.66
392.963	-55.98
393.172	11.61
393.382	-6.83
393.591	93.52
393.801	36.18
394.01	114
394.22	89.43
394.429	17.75
394.639	27.99
394.848	111.96
395.058	13.65
395.267	91.48
395.477	66.9
395.686	36.18
395.895	68.95
396.105	77.14
396.314	77.14
396.524	95.57
396.733	81.24
396.942	163.15
397.152	71
397.361	44.37
397.57	30.04
397.78	-4.78
397.989	91.48
398.198	107.86
398.407	48.47
398.617	107.86
398.826	130.39
399.035	58.71
399.244	144.72
399.453	122.2
399.663	66.9
399.872	95.57
400.081	-21.16
400.29	120.15
400.499	30.04
400.708	103.76
400.917	68.95
401.127	79.19
401.336	19.8
401.545	114
401.754	126.29
401.963	124.24
402.172	111.96
402.381	114
402.59	85.33
402.799	97.62
403.008	75.09
403.217	122.2
403.426	97.62
403.635	79.19
403.844	87.38
404.053	66.9
404.262	183.63
404.471	124.24
404.68	138.58
404.888	101.72
405.097	75.09
405.306	89.43
405.515	64.85
405.724	73.04
405.933	157.01
406.142	200.02
406.35	187.73
406.559	120.15
406.768	169.3
406.977	202.07
407.185	134.48
407.394	183.63
407.603	111.96
407.812	136.53
408.02	185.68
408.229	122.2
408.438	187.73
408.646	183.63
408.855	75.09
409.064	177.49
409.272	218.45
409.481	263.51
409.69	128.34
409.898	152.92
410.107	265.55
410.315	226.64
410.524	230.74
410.733	279.89
410.941	142.68
411.15	200.02
411.358	267.6
411.567	247.12
411.775	304.46
411.984	372.05
412.192	255.31
412.401	294.22
412.609	357.71
412.818	372.05
413.026	374.1
413.234	365.9
413.443	376.14
413.651	398.67
413.86	445.77
414.068	484.69
414.276	449.87
414.485	460.11
414.693	492.88
414.901	515.41
415.11	509.26
415.318	568.65
415.526	513.36
415.734	560.46
415.943	568.65
416.151	605.52
416.359	605.52
416.567	607.56
416.776	695.63
416.984	836.94
417.192	695.63
417.4	763.21
417.608	734.54
417.817	814.41
418.025	783.69
418.233	847.18
418.441	804.17
418.649	906.57
418.857	1015.11
419.065	982.34
419.273	859.46
419.481	1054.02
419.689	1080.64
419.897	1127.75
420.105	1105.22
420.313	1133.89
420.521	1232.19
420.729	1213.76
420.937	1242.43
421.145	1303.87
421.353	1318.21
421.561	1441.09
421.769	1455.42
421.977	1500.48
422.185	1432.9
422.393	1668.41
422.601	1750.33
422.809	1617.21
423.017	1645.88
423.224	1897.78
423.432	1846.59
423.64	1971.51
423.848	2110.77
424.056	2000.18
424.263	2155.83
424.471	2235.7
424.679	2166.07
424.887	2342.19
425.094	2368.82
425.302	2368.82
425.51	2532.65
425.718	2510.13
425.925	2497.84
426.133	2590
426.341	2807.08
426.548	2903.34
426.756	2891.05
426.964	2954.54
427.171	3149.09
427.379	3259.68
427.586	3368.23
427.794	3347.75
428.001	3503.39
428.209	3800.35
428.417	3595.55
428.624	3947.8
428.832	3970.33
429.039	3874.07
429.247	4001.05
429.454	4138.26
429.662	4529.42
429.869	4134.17
430.076	4515.09
430.284	4369.68
430.491	4510.99
430.699	4941.07
430.906	4988.17
431.114	4912.39
431.321	5063.94
431.528	5223.69
431.736	5483.78
431.943	5797.12
432.15	5670.14
432.358	5573.89
432.565	6032.63
432.772	6008.06
432.979	6231.29
433.187	6358.26
433.394	6622.45
433.601	6835.44
433.808	6728.94
434.016	6821.1
434.223	7226.6
434.43	7539.94
434.637	7365.86
434.844	7902.43
435.052	8066.27
435.259	7845.09
435.466	7970.01
435.673	7994.59
435.88	8459.48
436.087	8875.21
436.294	8959.18
436.501	8625.36
436.708	8877.26
436.915	9274.57
437.122	9845.95
437.329	9534.66
437.537	9784.51
437.743	9862.33
437.95	9909.44
438.157	10466.49
438.364	10757.3
438.571	10933.42
438.778	10781.87
438.985	12000.41
439.192	11351.21
439.399	11922.59
439.606	11431.08
439.813	12186.78
440.02	12788.88
440.227	12727.44
440.433	12811.41
440.64	12915.86
440.847	13155.47
441.054	13120.65
441.261	14029.95
441.467	13499.53
441.674	14171.26
441.881	14759.03
442.088	14574.71
442.294	14505.08
442.501	14654.58
442.708	15207.53
442.914	15733.86
443.121	16149.6
443.328	15666.28
443.534	17128.53
443.741	16835.67
443.948	16311.39
444.154	17411.15
444.361	17531.98
444.568	17423.44
444.774	17341.52
444.981	17726.53
445.187	18152.51
445.394	19065.91
445.6	18689.08
445.807	20642.84
446.013	20108.32
446.22	20474.91
446.426	20743.19
446.633	20775.96
446.839	21699.59
447.046	20796.44
447.252	22033.41
447.459	22187.01
447.665	21914.63
447.871	23010.29
448.078	23815.15
448.284	22481.92
448.491	23337.97
448.697	24122.34
448.903	24886.23
449.11	24470.5
449.316	24140.77
449.522	24542.17
449.728	25234.39
449.935	25400.27
450.141	25447.38
450.347	26047.43
450.553	24933.34
450.76	25226.2
450.966	26192.84
451.172	25916.36
451.378	26686.4
451.584	26080.2
451.791	26655.68
451.997	26989.5
452.203	26934.2
452.409	26551.23
452.615	26395.59
452.821	25910.22
453.027	25842.63
453.233	26903.48
453.44	25781.2
453.646	26080.2
453.852	26221.51
454.058	26624.96
454.264	25461.71
454.47	26112.97
454.676	25584.59
454.882	26440.64
455.088	23991.27
455.294	24347.62
455.5	24583.13
455.705	25150.42
455.911	23956.46
456.117	23319.54
456.323	23133.17
456.529	22078.47
456.735	22811.64
456.941	22506.49
457.147	22064.13
457.352	21300.24
457.558	20773.91
457.764	21306.38
457.97	20483.1
458.176	20225.06
458.381	20040.74
458.587	19151.92
458.793	19319.85
458.999	17994.82
459.204	19622.95
459.41	18820.15
459.616	17587.27
459.821	17763.4
460.027	17548.36
460.233	17370.19
460.438	16331.87
460.644	16551
460.85	15787.11
461.055	15512.68
461.261	15551.59
461.466	14464.12
461.672	14193.79
461.878	14900.34
462.083	13911.17
462.289	13579.4
462.494	13511.82
462.7	12936.34
462.905	12672.15
463.111	13040.78
463.316	13110.41
463.522	12844.18
463.727	12848.27
463.932	12922
464.138	12674.2
464.343	12723.35
464.549	12422.3
464.754	13225.1
464.959	12563.61
465.165	12657.81
465.37	12065.95
465.575	11756.71
465.781	12272.79
465.986	12387.48
466.191	11846.82
466.397	11775.14
466.602	11142.32
466.807	11371.69
467.012	11545.77
467.218	11515.05
467.423	11318.44
467.628	11500.71
467.833	12035.23
468.038	11547.81
468.244	11029.68
468.449	11572.39
468.654	10990.77
468.859	11117.74
469.064	11025.58
469.269	10738.87
469.474	10835.12
469.679	10826.93
469.885	10579.12
470.09	10593.46
470.295	10783.92
470.5	10484.92
470.705	10446.01
470.91	10312.89
471.115	10116.28
471.32	10253.5
471.525	10212.54
471.73	10034.36
471.935	9794.75
472.139	9596.1
472.344	9723.07
472.549	9854.14
472.754	9553.09
472.959	9311.43
473.164	9127.11
473.369	8758.48
473.574	9360.58
473.778	9352.39
473.983	9247.94
474.188	9071.82
474.393	8694.99
474.598	8535.25
474.802	8629.46
475.007	8637.65
475.212	8680.66
475.417	8318.17
475.621	8393.94
475.826	8172.76
476.031	8092.89
476.235	8041.69
476.44	8262.87
476.645	7976.16
476.849	7806.17
477.054	7910.62
477.259	7824.61
477.463	7789.79
477.668	7609.57
477.872	7732.45
478.077	7537.89
478.282	7310.57
478.486	7441.64
478.691	7406.82
478.895	7238.89
479.1	7159.02
479.304	7369.96
479.509	6978.79
479.713	7150.82
479.918	7062.76
480.122	6939.88
480.326	6970.6
480.531	6800.62
480.735	6780.14
480.94	6778.09
481.144	6954.22
481.348	6751.47
481.553	6726.89
481.757	6661.36
481.961	6585.58
482.166	6913.26
482.37	6673.65
482.574	6573.3
482.778	6642.93
482.983	6827.25
483.187	6589.68
483.391	6720.75
483.595	6571.25
483.8	6710.51
484.004	6673.65
484.208	6728.94
484.412	6561.01
484.616	6829.29
484.821	6685.94
485.025	6429.94
485.229	6677.74
485.433	6577.39
485.637	6890.73
485.841	6681.84
486.045	6573.3
486.249	6665.46
486.453	6538.48
486.657	6712.56
486.861	6720.75
487.065	6448.37
487.269	6778.09
487.473	6448.37
487.677	6589.68
487.881	6710.51
488.085	6565.11
488.289	6741.23
488.493	6710.51
488.697	6696.18
488.901	6577.39
489.105	6673.65
489.309	6708.46
489.512	6929.64
489.716	6776.05
489.92	6722.8
490.124	6714.61
490.328	6724.85
490.531	6677.74
490.735	6909.16
490.939	6860.01
491.143	6833.39
491.346	6903.02
491.55	6872.3
491.754	6939.88
491.958	6853.87
492.161	7089.39
492.365	6853.87
492.569	7052.52
492.772	7025.9
492.976	7195.88
493.18	7029.99
493.383	7255.27
493.587	7281.89
493.79	7197.93
493.994	7185.64
494.197	7384.29
494.401	7316.71
494.605	7318.76
494.808	7447.78
495.012	7468.26
495.215	7578.85
495.419	7625.95
495.622	7591.14
495.825	7820.51
496.029	7707.87
496.232	7879.9
496.436	7808.22
496.639	8111.32
496.843	8037.59
497.046	8111.32
497.249	8250.58
497.453	8287.45
497.656	8514.77
497.859	8420.56
498.063	8637.65
498.266	8496.34
498.469	8656.08
498.673	8738
498.876	8893.65
499.079	8922.32
499.282	9012.43
499.485	9270.47
499.689	8987.85
499.892	9266.38
500.095	9436.36
500.298	9561.28
500.501	9549
500.705	9936.06
500.908	9686.21
501.111	9964.73
501.314	10161.34
501.517	10366.14
501.72	10327.22
501.923	10253.5
502.126	10562.74
502.329	10702
502.532	10622.13
502.735	10583.22
502.938	11089.07
503.141	11107.5
503.344	11121.84
503.547	11199.66
503.75	11334.82
503.953	11685.03
504.156	11670.69
504.359	11828.38
504.562	11738.27
504.765	11957.41
504.968	12004.51
505.17	12256.41
505.373	12260.51
505.576	12510.36
505.779	12661.91
505.982	12713.11
506.185	12696.72
506.387	13010.06
506.59	12985.49
506.793	13253.77
506.996	13278.35
507.198	13567.11
507.401	13517.96
507.604	13769.86
507.807	13978.75
508.009	13956.22
508.212	14216.32
508.415	14306.43
508.617	14675.06
508.82	14873.71
509.022	14646.39
509.225	15133.81
509.428	15058.03
509.63	15199.34
509.833	15115.37
510.035	15518.82
510.238	15469.67
510.44	16106.59
510.643	15873.12
510.845	15912.03
511.048	16039.01
511.25	16329.82
511.453	16421.98
511.655	17009.75
511.858	16733.27
512.06	16831.57
512.262	17085.52
512.465	17112.14
512.667	17323.08
512.87	17632.33
513.072	17732.68
513.274	17974.34
513.477	17976.39
513.679	18009.15
513.881	18607.16
514.084	18381.88
514.286	18824.25
514.488	18875.45
514.69	19268.66
514.893	19338.29
515.095	19457.07
515.297	19510.32
515.499	19639.34
515.701	19885.09
515.904	20139.04
516.106	20411.42
516.308	20425.76
516.51	21052.44
516.712	20638.75
516.914	21103.64
517.116	21294.1
517.318	21632.01
517.52	21642.25
517.722	21537.8
517.925	21955.59
518.127	22160.39
518.329	22213.63
518.531	22139.91
518.733	22815.74
518.935	22864.89
519.136	22991.86
519.338	23137.27
519.54	23411.7
519.742	23477.23
519.944	23712.75
520.146	24148.96
520.348	24046.57
520.55	24376.29
520.752	24421.34
520.954	25109.46
521.155	24599.52
521.357	24998.87
521.559	25234.39
521.761	25682.89
521.963	25406.42
522.164	25830.35
522.366	25838.54
522.568	25947.08
522.77	26102.73
522.971	26559.42
523.173	26299.33
523.375	26627.01
523.576	26532.8
523.778	26981.31
523.98	27370.42
524.181	27132.86
524.383	27395
524.584	27546.54
524.786	27497.39
524.988	27554.74
525.189	28187.56
525.391	28093.35
525.592	28287.91
525.794	28466.08
525.995	28507.04
526.197	28466.08
526.398	28439.46
526.6	28851.1
526.801	28787.61
527.003	29096.86
527.204	29447.06
527.406	29660.05
527.607	29256.6
527.808	29918.09
528.01	29219.74
528.211	29658
528.412	29854.61
528.614	29842.32
528.815	29891.47
529.016	30194.57
529.218	30100.36
529.419	30206.86
529.62	30176.14
529.822	30131.08
530.023	30145.42
530.224	30473.09
530.425	30221.19
530.626	30053.26
530.828	30202.76
531.029	30798.72
531.23	30215.05
531.431	30729.09
531.632	30909.31
531.833	30985.08
532.035	30892.93
532.236	30704.51
532.437	30923.65
532.638	30743.42
532.839	30927.74
533.04	30952.32
533.241	30770.05
533.442	30925.69
533.643	31261.56
533.844	31036.28
534.045	31286.14
534.246	30899.07
534.447	31339.38
534.648	31320.95
534.849	30956.41
535.05	30610.31
535.251	30956.41
535.451	30870.4
535.652	31437.69
535.853	30774.14
536.054	31398.77
536.255	31435.64
536.456	30995.32
536.657	31259.51
536.857	31058.81
537.058	30655.36
537.259	31579
537.46	31189.88
537.66	30970.75
537.861	31343.48
538.062	31302.52
538.263	31263.61
538.463	30970.75
538.664	31175.55
538.865	31167.35
539.065	31388.53
539.266	30874.49
539.466	31705.97
539.667	30911.36
539.868	31372.15
540.068	31435.64
540.269	31492.98
540.469	31298.42
540.67	31212.41
540.87	31261.56
541.071	30974.84
541.271	31370.1
541.472	31333.24
541.672	31146.87
541.873	31050.62
542.073	31017.85
542.274	31726.45
542.474	31527.8
542.675	30960.51
542.875	31390.58
543.075	31183.74
543.276	30866.3
543.476	31480.69
543.676	31191.93
543.877	30985.08
544.077	31138.68
544.277	30851.97
544.478	30978.94
544.678	31050.62
544.878	30962.56
545.078	31304.57
545.279	30819.2
545.479	30935.93
545.679	31130.49
545.879	31163.26
546.079	30888.83
546.28	30753.66
546.48	30768
546.68	31204.22
546.88	31112.06
547.08	30815.1
547.28	30884.73
547.48	30837.63
547.68	31210.36
547.88	30849.92
548.081	31095.67
548.281	30923.65
548.481	30403.46
548.681	31167.35
548.881	30948.22
549.081	31144.83
549.28	30817.15
549.48	30849.92
549.68	30821.25
549.88	31193.98
550.08	30903.17
550.28	30737.28
550.48	30927.74
550.68	30743.42
550.88	30837.63
551.08	30921.6
551.279	30841.73
551.479	30741.38
551.679	30808.96
551.879	30778.24
552.079	30925.69
552.278	30921.6
552.478	30813.06
552.678	30894.97
552.878	30831.49
553.077	30724.99
553.277	30473.09
553.477	31097.72
553.676	30956.41
553.876	30647.17
554.076	30440.32
554.275	30425.99
554.475	30215.05
554.674	30395.27
554.874	30366.6
555.074	30469
555.273	30550.92
555.473	30712.7
555.672	30198.66
555.872	30270.34
556.071	30425.99
556.271	30673.79
556.47	30307.21
556.67	30241.67
556.869	30155.66
557.068	29838.22
557.268	29895.57
557.467	30206.86
557.667	30098.31
557.866	29963.15
558.065	29926.28
558.265	29911.95
558.464	29369.24
558.663	30268.3
558.863	29584.27
559.062	30059.4
559.261	29451.16
559.461	29791.12
559.66	29526.93
559.859	29772.69
560.058	29442.96
560.258	29778.83
560.457	29500.31
560.656	29684.62
560.855	29375.38
561.054	29352.85
561.253	29221.78
561.453	29395.86
561.652	29293.46
561.851	29414.29
562.05	28773.28
562.249	29027.23
562.448	29666.19
562.647	29217.69
562.846	29172.63
563.045	29113.24
563.244	28695.46
563.443	29076.38
563.642	28480.42
563.841	28820.38
564.04	28922.78
564.239	28885.92
564.438	28496.8
564.637	28861.34
564.836	28490.66
565.035	28457.89
565.234	28529.57
565.432	28306.34
565.631	27949.99
565.83	28466.08
566.029	28255.14
566.228	27876.27
566.427	27900.84
566.625	27906.99
566.824	27917.23
567.023	28023.72
567.222	27388.85
567.42	27898.8
567.619	27548.59
567.818	27788.21
568.016	27411.38
568.215	27839.4
568.414	27339.7
568.612	27507.63
568.811	27274.17
569.01	27298.74
569.208	26977.21
569.407	27513.78
569.605	26395.59
569.804	27112.38
570.002	26835.9
570.201	26913.72
570.4	26520.51
570.598	26713.02
570.797	26555.33
570.995	26971.07
571.193	26072.01
571.392	26868.67
571.59	26172.36
571.789	26172.36
571.987	26104.77
572.186	25891.79
572.384	26086.34
572.582	26241.99
572.781	26227.65
572.979	25654.22
573.177	25816.01
573.376	25666.51
573.574	25738.19
573.772	25658.32
573.971	25562.06
574.169	25541.58
574.367	25295.83
574.565	25668.56
574.763	25408.47
574.962	25234.39
575.16	24693.72
575.358	25052.12
575.556	24746.97
575.754	24886.23
575.952	24837.08
576.151	25236.44
576.349	24671.2
576.547	24693.72
576.745	24771.55
576.943	24714.2
577.141	24488.93
577.339	24460.26
577.537	24468.45
577.735	24511.46
577.933	24056.81
578.131	24394.72
578.329	24007.65
578.527	24206.31
578.725	23817.19
578.923	24318.95
579.121	23716.84
579.319	23806.95
579.516	23776.23
579.714	23720.94
579.912	23546.86
580.11	23710.7
580.308	23811.05
580.506	23565.29
580.704	23215.09
580.901	23471.09
581.099	23622.64
581.297	23344.11
581.495	23331.83
581.692	23256.05
581.89	22914.04
582.088	23149.56
582.285	22793.21
582.483	22971.38
582.681	22922.23
582.878	22942.71
583.076	22844.41
583.274	22924.28
583.471	22486.01
583.669	22615.04
583.866	22541.31
584.064	22885.37
584.262	21994.5
584.459	22404.1
584.657	21963.78
584.854	22365.18
585.052	21920.77
585.249	21994.5
585.447	22098.95
585.644	22010.89
585.841	21967.88
586.039	21939.21
586.236	22021.13
586.434	21826.57
586.631	21515.28
586.828	21904.39
587.026	21371.92
587.223	21609.48
587.42	21468.17
587.618	21492.75
587.815	21177.36
588.012	21228.56
588.21	21081.11
588.407	21316.62
588.604	21025.81
588.801	20929.56
588.999	20896.79
589.196	20706.33
589.393	20974.61
589.59	21120.02
589.787	20569.12
589.984	20923.41
590.182	20409.37
590.379	20720.67
590.576	20313.12
590.773	20429.85
590.97	20513.82
591.167	20585.5
591.364	19940.39
591.561	20255.78
591.758	20050.98
591.955	20055.08
592.152	20130.85
592.349	20194.34
592.546	20065.32
592.743	20048.93
592.94	19561.51
593.137	19825.7
593.334	19604.52
593.531	19465.26
593.727	19653.67
593.924	19729.45
594.121	19387.44
594.318	19549.23
594.515	19067.95
594.712	19627.05
594.908	19078.19
595.105	19432.49
595.302	18926.64
595.499	19262.51
595.696	19024.95
595.892	18945.08
596.089	19061.81
596.286	18730.04
596.482	18764.85
596.679	18730.04
596.876	18805.81
597.072	18742.33
597.269	18781.24
597.466	18428.99
597.662	18242.62
597.859	18504.76
598.055	18715.7
598.252	18316.35
598.448	18136.13
598.645	18216
598.841	18117.7
599.038	18132.03
599.234	17898.56
599.431	17996.87
599.627	17699.91
599.824	18070.59
600.02	17716.29
600.217	17716.29
600.413	17771.59
600.609	17759.3
600.806	17689.67
601.002	17863.75
601.198	17396.81
601.395	17415.24
601.591	17450.06
601.787	17697.86
601.984	17052.75
602.18	17529.93
602.376	17058.9
602.572	17220.69
602.769	17163.34
602.965	16782.42
603.161	16979.03
603.357	16972.88
603.553	16909.4
603.75	17138.77
603.946	16933.97
604.142	16833.62
604.338	16493.66
604.534	16653.4
604.73	16405.6
604.926	16557.14
605.122	16432.22
605.318	16507.99
605.514	16370.78
605.71	16364.64
605.906	16532.57
606.102	16348.25
606.298	16295
606.494	16079.97
606.69	16174.17
606.886	16180.32
607.082	15928.42
607.278	16208.99
607.474	15922.27
607.67	16069.73
607.866	15645.8
608.062	15858.79
608.257	15776.87
608.453	15918.18
608.649	15840.36
608.845	15408.23
609.041	15522.92
609.236	15742.05
609.432	15512.68
609.628	15643.75
609.824	15504.49
610.019	15615.08
610.215	15369.32
610.411	15680.61
610.606	15352.94
610.802	15369.32
610.998	15357.03
611.193	15180.91
611.389	15187.05
611.584	15117.42
611.78	15168.62
611.976	15447.15
612.171	15148.14
612.367	15201.39
612.562	14900.34
612.758	14949.49
612.953	14771.32
613.149	15283.31
613.344	15060.08
613.539	15211.63
613.735	14900.34
613.93	14888.05
614.126	14767.22
614.321	15105.13
614.517	14785.65
614.712	14691.45
614.907	14701.68
615.103	14675.06
615.298	14720.12
615.493	14695.54
615.688	14498.94
615.884	15029.36
616.079	14570.61
616.274	14677.11
616.47	14402.68
616.665	14435.45
616.86	14515.32
617.055	14265.47
617.25	14421.11
617.445	14388.35
617.641	14062.72
617.836	14302.33
618.031	14189.69
618.226	14177.4
618.421	13937.79
618.616	14089.34
618.811	13851.78
619.006	14081.15
619.201	13802.63
619.396	14021.76
619.591	13405.32
619.786	13862.02
619.981	13747.33
620.176	13866.11
620.371	13462.66
620.566	13671.56
620.761	13495.43
620.956	13591.69
621.151	13563.01
621.346	13247.63
621.541	13167.76
621.735	13329.55
621.93	13001.87
622.125	13173.9
622.32	12883.09
622.515	13147.28
622.709	12756.11
622.904	12823.7
623.099	12858.51
623.294	12764.31
623.488	12762.26
623.683	12651.67
623.878	12545.17
624.072	12543.13
624.267	12506.26
624.462	12518.55
624.656	12211.35
624.851	12391.58
625.046	11912.35
625.24	12043.42
625.435	11906.21
625.629	12014.75
625.824	11832.48
626.018	12000.41
626.213	11740.32
626.407	11709.6
626.602	11547.81
626.796	11705.51
626.991	11562.15
627.185	11543.72
627.38	11386.02
627.574	11250.86
627.768	11160.75
627.963	11066.54
628.157	11021.49
628.352	11173.03
628.546	10929.33
628.74	11080.88
628.935	10927.28
629.129	10933.42
629.323	10538.16
629.517	10738.87
629.712	10636.47
629.906	10671.28
630.1	10511.54
630.294	10646.71
630.489	10073.28
630.683	10359.99
630.877	10130.62
631.071	10302.65
631.265	10405.05
631.459	10138.81
631.653	10169.53
631.848	9966.78
632.042	9946.3
632.236	10128.57
632.43	9866.43
632.624	9884.86
632.818	9659.59
633.012	9774.27
633.206	9567.43
633.4	9692.35
633.594	9516.23
633.788	9702.59
633.982	9573.57
634.176	9534.66
634.369	9297.1
634.563	9270.47
634.757	9333.96
634.951	9315.53
635.145	9428.17
635.339	9327.82
635.533	8994
635.726	8996.04
635.92	9104.59
636.114	8973.52
636.308	8858.83
636.501	9014.48
636.695	8735.95
636.889	8654.03
637.083	8664.27
637.276	8643.79
637.47	8631.51
637.664	8934.6
637.857	8615.12
638.051	8654.03
638.244	8324.31
638.438	8541.4
638.632	8344.79
638.825	8299.73
639.019	8273.11
639.212	8269.02
639.406	8307.93
639.599	8271.06
639.793	8125.66
639.986	7970.01
640.18	8125.66
640.373	7939.29
640.567	7857.37
640.76	8047.83
640.954	8013.02
641.147	7863.52
641.34	7740.64
641.534	7748.83
641.727	7740.64
641.92	7632.1
642.114	7564.51
642.307	7697.63
642.5	7490.79
642.694	7259.37
642.887	7560.42
643.08	7484.64
643.273	7285.99
643.467	7515.36
643.66	7146.73
643.853	7408.87
644.046	7056.62
644.239	7240.93
644.432	7107.82
644.626	7066.86
644.819	7144.68
645.012	7193.83
645.205	6937.84
645.398	6989.03
645.591	6821.1
645.784	6894.83
645.977	6806.77
646.17	6761.71
646.363	6718.7
646.556	6673.65
646.749	6827.25
646.942	6724.85
647.135	6636.78
647.328	6632.69
647.521	6616.3
647.714	6378.74
647.907	6393.08
648.099	6534.39
648.292	6331.64
648.485	6311.16
648.678	6280.44
648.871	6262.01
649.064	6276.34
649.256	6292.73
649.449	6241.53
649.642	6159.61
649.835	6221.05
650.027	6112.5
650.22	5979.39
650.413	6161.66
650.605	6087.93
650.798	6100.22
650.991	5958.91
651.183	5971.19
651.376	5813.5
651.568	5760.25
651.761	5946.62
651.954	5876.99
652.146	5784.83
652.339	5713.15
652.531	5696.77
652.724	5731.58
652.916	5676.29
653.109	5565.7
653.301	5522.69
653.494	5590.27
653.686	5565.7
653.879	5506.31
654.071	5455.11
654.263	5512.45
654.456	5348.61
654.648	5395.72
654.84	5139.72
655.033	5334.28
655.225	5387.52
655.417	5250.31
655.61	5244.17
655.802	5311.75
655.994	5328.13
656.186	5260.55
656.379	5037.32
656.571	5121.29
656.763	4902.15
656.955	5145.86
657.148	5061.9
657.34	5090.57
657.532	4961.55
657.724	4805.9
657.916	4992.27
658.108	5020.94
658.3	4828.43
658.492	4828.43
658.684	4850.96
658.876	4936.97
659.068	4683.02
659.26	4795.66
659.452	4742.41
659.644	4818.19
659.836	4558.1
660.028	4723.98
660.22	4554
660.412	4461.84
660.604	4738.32
660.796	4515.09
660.988	4494.61
661.18	4564.24
661.372	4554
661.563	4482.32
661.755	4527.38
661.947	4353.3
662.139	4543.76
662.331	4443.41
662.522	4431.12
662.714	4269.33
662.906	4414.74
663.097	4304.15
663.289	4402.45
663.481	4158.74
663.673	4265.24
663.864	4056.34
664.056	4228.37
664.247	4308.24
664.439	4085.02
664.631	4029.72
664.822	4197.65
665.014	4048.15
665.205	4019.48
665.397	4117.78
665.588	4076.82
665.78	4175.13
665.971	3994.9
666.163	3949.85
666.354	4001.05
666.546	3786.01
666.737	4031.77
666.929	3902.75
667.12	3960.09
667.311	3697.95
667.503	3869.98
667.694	3724.57
667.885	3865.88
668.077	3826.97
668.268	3675.42
668.459	3796.25
668.651	3767.58
668.842	3747.1
669.033	3714.33
669.224	3720.48
669.416	3743
669.607	3540.26
669.798	3583.26
669.989	3603.74
670.18	3652.89
670.371	3523.87
670.563	3513.63
670.754	3622.17
670.945	3450.14
671.136	3480.86
671.327	3587.36
671.518	3548.45
671.709	3525.92
671.9	3458.34
672.091	3419.43
672.282	3396.9
672.473	3333.41
672.664	3493.15
672.855	3345.7
673.046	3411.23
673.237	3294.5
673.428	3396.9
673.619	3392.8
673.809	3360.03
674	3380.51
674.191	3384.61
674.382	3343.65
674.573	3282.21
674.764	3290.4
674.954	3237.16
675.145	3298.6
675.336	3323.17
675.527	3165.48
675.717	3278.12
675.908	3247.4
676.099	3220.77
676.289	3163.43
676.48	3212.58
676.671	3259.68
676.861	3235.11
677.052	3065.13
677.243	3028.26
677.433	3112.23
677.624	3185.96
677.814	3190.05
678.005	3122.47
678.195	3151.14
678.386	3032.36
678.576	3124.52
678.767	3071.27
678.957	3132.71
679.148	3034.41
679.338	3077.41
679.529	3063.08
679.719	3015.98
679.909	3163.43
680.1	3108.13
680.29	2944.3
680.481	3011.88
680.671	2991.4
680.861	2876.71
681.052	2956.58
681.242	3044.65
681.432	2884.91
681.622	3034.41
681.813	2934.06
682.003	2913.58
682.193	2827.56
682.383	2921.77
682.573	2942.25
682.764	3013.93
682.954	2932.01
683.144	2958.63
683.334	2960.68
683.524	2889
683.714	2878.76
683.904	2766.12
684.094	2909.48
684.284	2759.98
684.474	3015.98
684.664	2753.84
684.854	2946.34
685.044	2870.57
685.234	2759.98
685.424	2786.6
685.614	2725.16
685.804	2778.41
685.994	2848.04
686.184	2673.96
686.374	2594.09
686.564	2815.27
686.753	2762.03
686.943	2708.78
687.133	2815.27
687.323	2716.97
687.513	2708.78
687.702	2626.86
687.892	2690.35
688.082	2688.3
688.272	2663.72
688.461	2581.81
688.651	2749.74
688.841	2604.33
689.03	2561.33
689.22	2549.04
689.41	2649.39
689.599	2575.66
689.789	2499.89
689.979	2540.85
690.168	2622.77
690.358	2508.08
690.547	2585.9
690.737	2557.23
690.926	2469.17
691.116	2483.5
691.305	2549.04
691.495	2397.49
691.684	2444.59
691.874	2506.03
692.063	2407.73
692.252	2389.3
692.442	2534.7
692.631	2399.54
692.82	2338.1
693.01	2465.07
693.199	2409.78
693.388	2460.98
693.578	2319.67
693.767	2321.71
693.956	2325.81
694.146	2239.8
694.335	2334
694.524	2297.14
694.713	2295.09
694.902	2252.08
695.092	2182.45
695.281	2274.61
695.47	2346.29
695.659	2299.19
695.848	2317.62
696.037	2235.7
696.226	2311.47
696.415	2260.27
696.604	2250.03
696.793	2211.12
696.982	2250.03
697.171	2348.34
697.36	2299.19
697.549	2159.92
697.738	2274.61
697.927	2231.6
698.116	2229.56
698.305	2309.43
698.494	2190.64
698.683	2245.94
698.872	2155.83
699.061	2207.03
699.25	2127.16
699.438	2114.87
699.627	2227.51
699.816	2325.81
700.005	2159.92
700.193	2192.69
700.382	2235.7
700.571	2250.03
700.76	2159.92
700.948	2071.86
701.137	2125.11
701.326	2223.41
701.514	2155.83
701.703	2192.69
701.892	2196.79
702.08	2186.55
702.269	2121.01
702.457	2108.73
702.646	2178.36
702.834	2110.77
703.023	2213.17
703.212	2219.32
703.4	2121.01
703.589	2022.71
703.777	2090.29
703.965	2020.66
704.154	2078.01
704.342	2131.25
704.531	2110.77
704.719	2145.59
704.907	2102.58
705.096	2106.68
705.284	2106.68
705.472	2170.16
705.661	2094.39
705.849	2149.68
706.037	2135.35
706.226	2151.73
706.414	2123.06
706.602	2096.44
706.79	2172.21
706.979	2176.31
707.167	2065.72
707.355	2080.05
707.543	2088.25
707.731	2098.49
707.919	2065.72
708.107	2061.62
708.296	2108.73
708.484	2131.25
708.672	2092.34
708.86	2024.76
709.048	2102.58
709.236	1994.04
709.424	2039.09
709.612	2170.16
709.8	2067.77
709.988	2061.62
710.176	2123.06
710.364	2024.76
710.551	2121.01
710.739	2002.23
710.927	2088.25
711.115	1989.94
711.303	2065.72
711.491	2104.63
711.679	1975.61
711.866	2078.01
712.054	1967.42
712.242	2069.81
712.43	2215.22
712.617	2049.33
712.805	1875.26
712.993	1989.94
713.181	2037.05
713.368	2018.61
713.556	2080.05
713.744	1963.32
713.931	1961.27
714.119	1934.65
714.306	2037.05
714.494	2002.23
714.682	1994.04
714.869	2037.05
715.057	2078.01
715.244	2059.57
715.432	2161.97
715.619	2024.76
715.807	1975.61
715.994	2092.34
716.182	1940.79
716.369	2020.66
716.556	1967.42
716.744	2090.29
716.931	2098.49
717.119	2012.47
717.306	2063.67
717.493	2063.67
717.681	2108.73
717.868	2030.9
718.055	1979.7
718.242	1971.51
718.43	2051.38
718.617	2106.68
718.804	2100.53
718.991	2014.52
719.179	1983.8
719.366	1940.79
719.553	2153.78
719.74	2000.18
719.927	1951.03
720.114	2022.71
720.301	1977.66
720.488	2020.66
720.676	1944.89
720.863	1942.84
721.05	2082.1
721.237	1985.85
721.424	1895.74
721.611	2053.43
721.798	1979.7
721.985	1910.07
722.172	1991.99
722.358	2012.47
722.545	1967.42
722.732	1934.65
722.919	1955.13
723.106	1926.46
723.293	1860.92
723.48	1991.99
723.667	1893.69
723.853	1963.32
724.04	2012.47
724.227	1987.9
724.414	1996.09
724.6	1918.26
724.787	2098.49
724.974	1895.74
725.161	1948.98
725.347	1942.84
725.534	1994.04
725.72	2022.71
725.907	1895.74
726.094	2082.1
726.28	2094.39
726.467	1848.63
726.653	1787.19
726.84	2075.96
727.027	1889.59
727.213	1934.65
727.4	2006.33
727.586	1899.83
727.773	1957.18
727.959	1867.06
728.145	2016.57
728.332	1973.56
728.518	1994.04
728.705	1934.65
728.891	1965.37
729.077	1885.5
729.264	1836.35
729.45	1965.37
729.636	2002.23
729.823	1951.03
730.009	1875.26
730.195	1998.13
730.382	1940.79
730.568	1891.64
730.754	1969.46
730.94	1893.69
731.126	1883.45
731.313	1887.54
731.499	2043.19
731.685	1922.36
731.871	1987.9
732.057	1957.18
732.243	1926.46
732.429	1916.22
732.615	1977.66
732.801	1903.93
732.987	1848.63
733.173	2006.33
733.359	1955.13
733.545	1899.83
733.731	2014.52
733.917	1883.45
734.103	1991.99
734.289	1869.11
734.475	1975.61
734.661	1961.27
734.847	1928.5
735.033	1932.6
735.219	1860.92
735.404	1875.26
735.59	1881.4
735.776	1871.16
735.962	1822.01
736.148	1979.7
736.333	1873.21
736.519	1942.84
736.705	1871.16
736.89	1895.74
737.076	1879.35
737.262	1815.87
737.447	1815.87
737.633	1920.31
737.819	1940.79
738.004	1822.01
738.19	1885.5
738.375	1899.83
738.561	1889.59
738.747	1776.95
738.932	1766.71
739.118	1971.51
739.303	1758.52
739.489	1860.92
739.674	1840.44
739.859	1879.35
740.045	1856.83
740.23	1830.2
740.416	1758.52
740.601	1836.35
740.786	1842.49
740.972	1688.89
741.157	1733.95
741.342	1709.37
741.528	1838.39
741.713	1905.98
741.898	1766.71
742.084	1815.87
742.269	1713.47
742.454	1785.15
742.639	1738.04
742.824	1731.9
743.01	1766.71
743.195	1797.43
743.38	1754.43
743.565	1729.85
743.75	1684.8
743.935	1699.13
744.12	1815.87
744.305	1695.04
744.49	1649.98
744.675	1666.36
744.86	1709.37
745.045	1781.05
745.23	1613.12
745.415	1580.35
745.6	1705.28
745.785	1678.65
745.97	1625.4
746.155	1619.26
746.34	1600.83
746.525	1715.52
746.71	1686.84
746.895	1500.48
747.079	1492.29
747.264	1512.77
747.449	1645.88
747.634	1549.63
747.819	1527.1
748.003	1566.01
748.188	1641.79
748.373	1541.44
748.557	1488.19
748.742	1488.19
748.927	1568.06
749.111	1475.9
749.296	1424.7
749.481	1488.19
749.665	1428.8
749.85	1398.08
750.034	1469.76
750.219	1357.12
750.404	1430.85
750.588	1414.46
750.773	1373.5
750.957	1465.66
751.141	1324.35
751.326	1400.13
751.51	1387.84
751.695	1275.2
751.879	1357.12
752.064	1312.07
752.248	1310.02
752.432	1271.11
752.617	1369.41
752.801	1291.59
752.985	1355.07
753.17	1254.72
753.354	1312.07
753.538	1291.59
753.722	1193.28
753.907	1264.96
754.091	1197.38
754.275	1287.49
754.459	1174.85
754.643	1262.91
754.828	1299.78
755.012	1195.33
755.196	1146.18
755.38	1199.43
755.564	1099.08
755.748	1140.04
755.932	1119.56
756.116	1150.28
756.3	1107.27
756.484	1195.33
756.668	1088.84
756.852	1111.36
757.036	1142.08
757.22	1033.54
757.404	1146.18
757.588	1162.56
757.772	1111.36
757.956	1099.08
758.14	1025.35
758.323	1017.16
758.507	1074.5
758.691	1045.83
758.875	1068.36
759.059	1140.04
759.242	1043.78
759.426	1051.97
759.61	1039.69
759.794	1049.93
759.977	988.49
760.161	1008.97
760.345	959.81
760.528	1008.97
760.712	949.57
760.895	1105.22
761.079	1013.06
761.263	951.62
761.446	986.44
761.63	920.9
761.813	959.81
761.997	953.67
762.18	931.14
762.364	1070.4
762.547	841.03
762.731	914.76
762.914	922.95
763.098	886.09
763.281	949.57
763.464	951.62
763.648	861.51
763.831	927.05
764.015	867.66
764.198	873.8
764.381	900.42
764.564	974.15
764.748	910.66
764.931	881.99
765.114	855.37
765.297	771.4
765.481	826.7
765.664	851.27
765.847	888.14
766.03	795.98
766.213	906.57
766.397	793.93
766.58	875.85
766.763	918.86
766.946	841.03
767.129	820.55
767.312	793.93
767.495	867.66
767.678	834.89
767.861	822.6
768.044	894.28
768.227	851.27
768.41	806.22
768.593	781.64
768.776	775.5
768.959	812.36
769.142	763.21
769.324	779.59
769.507	822.6
769.69	896.33
769.873	763.21
770.056	746.83
770.239	752.97
770.421	738.63
770.604	824.65
770.787	656.72
770.97	820.55
771.152	705.87
771.335	718.15
771.518	722.25
771.7	748.87
771.883	763.21
772.066	714.06
772.248	771.4
772.431	765.26
772.613	744.78
772.796	722.25
772.978	691.53
773.161	728.39
773.343	730.44
773.526	750.92
773.708	709.96
773.891	656.72
774.073	660.81
774.256	685.39
774.438	630.09
774.621	705.87
774.803	599.37
774.985	648.52
775.168	617.8
775.35	687.43
775.532	681.29
775.715	619.85
775.897	564.56
776.079	701.77
776.261	652.62
776.444	689.48
776.626	681.29
776.808	654.67
776.99	585.04
777.173	570.7
777.355	626
777.537	623.95
777.719	554.32
777.901	578.89
778.083	566.6
778.265	611.66
778.447	490.83
778.629	539.98
778.811	597.32
778.993	492.88
779.175	560.46
779.357	685.39
779.539	517.45
779.721	533.84
779.903	496.97
780.085	511.31
780.267	499.02
780.449	523.6
780.631	568.65
780.812	562.51
780.994	494.93
781.176	507.21
781.358	492.88
781.54	476.49
781.721	499.02
781.903	449.87
782.085	576.84
782.267	437.58
782.448	503.12
782.63	453.97
782.812	501.07
782.993	456.01
783.175	492.88
783.357	447.82
783.538	425.29
783.72	462.16
783.901	417.1
784.083	550.22
784.264	394.58
784.446	351.57
784.627	415.06
784.809	431.44
784.99	417.1
785.172	515.41
785.353	421.2
785.535	470.35
785.716	402.77
785.897	415.06
786.079	449.87
786.26	370
786.441	365.9
786.623	341.33
786.804	365.9
786.985	339.28
787.167	400.72
787.348	310.61
787.529	314.7
787.71	380.24
787.891	396.62
788.073	314.7
788.254	341.33
788.435	423.25
788.616	390.48
788.797	302.42
788.978	365.9
789.159	394.58
789.34	357.71
789.522	300.37
789.703	265.55
789.884	333.14
790.065	324.94
790.246	353.62
790.427	271.7
790.607	370
790.788	320.85
790.969	296.27
791.15	392.53
791.331	288.08
791.512	337.23
791.693	349.52
791.874	290.13
792.054	349.52
792.235	337.23
792.416	302.42
792.597	306.51
792.778	257.36
792.958	298.32
793.139	374.1
793.32	349.52
793.5	247.12
793.681	286.03
793.862	296.27
794.042	263.51
794.223	216.4
794.404	341.33
794.584	290.13
794.765	308.56
794.945	173.39
795.126	288.08
795.306	275.79
795.487	339.28
795.667	292.18
795.848	337.23
796.028	288.08
796.209	214.35
796.389	300.37
796.57	191.83
796.75	202.07
796.93	216.4
797.111	279.89
797.291	247.12
797.471	214.35
797.652	243.03
797.832	195.92
798.012	306.51
798.192	269.65
798.373	183.63
798.553	245.07
798.733	183.63
798.913	298.32
799.093	214.35
799.274	302.42
799.454	240.98
799.634	277.84
799.814	247.12
799.994	224.59
800.174	255.31
800.354	243.03
800.534	134.48
800.714	226.64
800.894	202.07
801.074	193.87
801.254	226.64
801.434	222.55
801.614	232.79
801.794	214.35
801.974	552.27
802.154	138.58
802.334	279.89
802.514	169.3
802.693	150.87
802.873	167.25
803.053	167.25
803.233	222.55
803.413	157.01
803.592	212.31
803.772	159.06
803.952	103.76
804.131	163.15
804.311	249.17
804.491	224.59
804.67	118.1
804.85	81.24
805.03	265.55
805.209	218.45
805.389	165.2
805.568	132.44
805.748	138.58
805.928	136.53
806.107	185.68
806.287	161.11
806.466	140.63
806.646	167.25
806.825	195.92
807.004	173.39
807.184	189.78
807.363	195.92
807.543	154.96
807.722	87.38
807.901	128.34
808.081	204.11
808.26	124.24
808.439	183.63
808.619	214.35
808.798	210.26
808.977	161.11
809.156	173.39
809.336	116.05
809.515	177.49
809.694	144.72
809.873	132.44
810.052	218.45
810.231	214.35
810.411	134.48
810.59	150.87
810.769	206.16
810.948	200.02
811.127	77.14
811.306	175.44
811.485	128.34
811.664	179.54
811.843	103.76
812.022	210.26
812.201	99.67
812.38	177.49
812.559	181.59
812.737	105.81
812.916	116.05
813.095	107.86
813.274	185.68
813.453	165.2
813.632	181.59
813.811	124.24
813.989	144.72
814.168	177.49
814.347	79.19
814.526	185.68
814.704	103.76
814.883	107.86
815.062	103.76
815.24	232.79
815.419	157.01
815.598	79.19
815.776	107.86
815.955	73.04
816.133	124.24
816.312	116.05
816.49	75.09
816.669	169.3
816.847	138.58
817.026	165.2
817.204	132.44
817.383	128.34
817.561	122.2
817.74	138.58
817.918	97.62
818.097	128.34
818.275	56.66
818.453	75.09
818.632	87.38
818.81	101.72
818.988	157.01
819.167	161.11
819.345	150.87
819.523	103.76
819.701	114
819.879	130.39
820.058	48.47
820.236	167.25
820.414	128.34
820.592	97.62
820.77	138.58
820.948	95.57
821.127	85.33
821.305	163.15
821.483	91.48
821.661	42.32
821.839	93.52
822.017	107.86
822.195	87.38
822.373	85.33
822.551	146.77
822.729	157.01
822.907	68.95
823.085	44.37
823.262	146.77
823.44	68.95
823.618	114
823.796	97.62
823.974	79.19
824.152	62.8
824.329	83.28
824.507	122.2
824.685	95.57
824.863	97.62
825.04	167.25
825.218	114
825.396	87.38
825.574	120.15
825.751	56.66
825.929	85.33
826.107	116.05
826.284	122.2
826.462	120.15
826.639	83.28
826.817	44.37
826.994	116.05
827.172	-21.16
827.349	101.72
827.527	30.04
827.704	89.43
827.882	46.42
828.059	9.56
828.237	3.41
828.414	138.58
828.591	136.53
828.769	36.18
828.946	30.04
829.124	56.66
829.301	19.8
829.478	25.94
829.655	87.38
829.833	48.47
830.01	64.85
830.187	75.09
830.364	62.8
830.542	60.76
830.719	103.76
830.896	107.86
831.073	103.76
831.25	62.8
831.427	124.24
831.604	46.42
831.782	-15.02
831.959	79.19
832.136	-25.26
832.313	3.41
832.49	34.13
832.667	91.48
832.844	75.09
833.021	89.43
833.198	79.19
833.374	122.2
833.551	138.58
833.728	73.04
833.905	27.99
834.082	161.11
834.259	99.67
834.436	48.47
834.612	50.52
834.789	44.37
834.966	34.13
835.143	107.86
835.319	81.24
835.496	73.04
835.673	44.37
835.85	93.52
836.026	99.67
836.203	107.86
836.38	13.65
836.556	-19.11
836.733	95.57
836.909	95.57
837.086	64.85
837.262	21.85
837.439	66.9
837.616	97.62
837.792	93.52
837.968	50.52
838.145	50.52
838.321	-17.07
838.498	75.09
838.674	19.8
838.851	34.13
839.027	130.39
839.203	42.32
839.38	-23.21
839.556	7.51
839.732	38.23
839.909	21.85
840.085	17.75
840.261	60.76
840.437	42.32
840.614	38.23
840.79	126.29
840.966	30.04
841.142	89.43
841.318	-2.73
841.494	-12.97
841.671	79.19
841.847	66.9
842.023	11.61
842.199	17.75
842.375	32.08
842.551	44.37
842.727	25.94
842.903	-6.83
843.079	83.28
843.255	87.38
843.431	85.33
843.607	23.89
843.783	-23.21
843.959	58.71
844.134	64.85
844.31	79.19
844.486	148.82
844.662	95.57
844.838	9.56
845.013	85.33
845.189	36.18
845.365	-12.97
845.541	46.42
845.716	38.23
845.892	44.37
846.068	60.76
846.244	15.7
846.419	25.94
846.595	1.37
846.77	46.42
846.946	56.66
847.122	19.8
847.297	-17.07
847.473	38.23
847.648	46.42
847.824	-6.83
847.999	-19.11
848.175	44.37
848.35	77.14
848.526	73.04
848.701	58.71
848.876	118.1
849.052	71
849.227	30.04
849.403	30.04
849.578	30.04
849.753	15.7
849.929	23.89
850.104	83.28
850.279	87.38
850.454	-4.78
850.63	109.91
850.805	5.46
850.98	9.56
851.155	-12.97
851.33	34.13
851.505	64.85
851.681	3.41
851.856	5.46
852.031	3.41
852.206	1.37
852.381	30.04
852.556	107.86
852.731	42.32
852.906	42.32
853.081	32.08
853.256	124.24
853.431	25.94
853.606	81.24
853.781	3.41
853.956	30.04
854.131	17.75
854.305	48.47
854.48	13.65
854.655	-37.55
854.83	44.37
855.005	19.8
855.18	52.56
855.354	-21.16
855.529	9.56
855.704	-15.02
855.879	68.95
856.053	-4.78
856.228	30.04
856.403	-2.73
856.577	34.13
856.752	1.37
856.926	50.52
857.101	50.52
857.276	34.13
857.45	-8.87
857.625	-19.11
857.799	1.37
857.974	44.37
858.148	-17.07
858.323	107.86
858.497	15.7
858.672	9.56
858.846	3.41
859.02	38.23
859.195	42.32
859.369	58.71
859.543	17.75
859.718	17.75
859.892	11.61
860.066	58.71
860.241	91.48
860.415	9.56
860.589	17.75
860.763	91.48
860.938	-15.02
861.112	99.67
861.286	9.56
861.46	21.85
861.634	-35.5
861.808	75.09
861.982	15.7
862.157	83.28
862.331	27.99
862.505	25.94
862.679	66.9
862.853	21.85
863.027	-4.78
863.201	-15.02
863.375	38.23
863.549	58.71
863.722	36.18
863.896	83.28
864.07	-2.73
864.244	-37.55
864.418	32.08
864.592	-23.21
864.766	30.04
864.939	73.04
865.113	105.81
865.287	46.42
865.461	-70.31
865.634	32.08
865.808	21.85
865.982	-74.41
866.156	-17.07
866.329	19.8
866.503	40.28
866.676	83.28
866.85	54.61
867.024	-37.55
867.197	1.37
867.371	21.85
867.544	-2.73
867.718	-17.07
867.891	15.7
868.065	34.13
868.238	7.51
868.412	50.52
868.585	3.41
868.759	7.51
868.932	91.48
869.105	11.61
869.279	-41.64
869.452	-31.4
869.625	13.65
869.799	30.04
869.972	-55.98
870.145	32.08
870.319	44.37
870.492	50.52
870.665	-55.98
870.838	32.08
871.011	13.65
871.185	-2.73
871.358	-43.69
871.531	-27.31
871.704	7.51
871.877	-8.87
872.05	54.61
872.223	-8.87
872.396	34.13
872.569	-4.78
872.742	-78.51
872.915	9.56
873.088	-8.87
873.261	-45.74
873.434	30.04
873.607	19.8
873.78	107.86
873.953	-2.73
874.126	50.52
874.299	42.32
874.471	-12.97
874.644	27.99
874.817	-29.35
874.99	79.19
875.163	5.46
875.335	56.66
875.508	1.37
875.681	66.9
875.853	9.56
876.026	-41.64
876.199	81.24
876.371	-51.88
876.544	46.42
876.717	54.61
876.889	56.66
877.062	25.94
877.234	-10.92
877.407	34.13
877.579	-31.4
877.752	34.13
877.924	54.61
878.097	66.9
878.269	75.09
878.442	17.75
878.614	5.46
878.786	21.85
878.959	-19.11
879.131	97.62
879.303	15.7
879.476	62.8
879.648	34.13
879.82	-29.35
879.993	32.08
880.165	-6.83
880.337	-35.5
880.509	-6.83
880.681	-10.92
880.854	17.75
881.026	3.41
881.198	107.86
881.37	-0.68
881.542	21.85
881.714	19.8
881.886	-25.26
882.058	9.56
882.23	-45.74
882.402	66.9
882.574	25.94
882.746	48.47
882.918	-39.59
883.09	40.28
883.262	-6.83
883.434	36.18
883.606	-27.31
883.778	25.94
883.95	1.37
884.122	27.99
884.293	54.61
884.465	-10.92
884.637	17.75
884.809	-8.87
884.98	-25.26
885.152	40.28
885.324	46.42
885.496	40.28
885.667	-43.69
885.839	54.61
886.011	-23.21
886.182	30.04
886.354	71
886.525	52.56
886.697	75.09
886.869	-25.26
887.04	7.51
887.212	44.37
887.383	46.42
887.555	-21.16
887.726	27.99
887.897	40.28
888.069	15.7
888.24	1.37
888.412	15.7
888.583	-29.35
888.754	-35.5
888.926	52.56
889.097	25.94
889.268	38.23
889.44	30.04
889.611	42.32
889.782	-25.26
889.953	48.47
890.125	40.28
890.296	-21.16
890.467	-31.4
890.638	30.04
890.809	-33.45
890.98	-31.4
891.151	-8.87
891.323	21.85
891.494	-37.55
891.665	13.65
891.836	-37.55
892.007	-29.35
892.178	52.56
892.349	-47.79
892.52	3.41
892.691	5.46
892.862	50.52
893.032	34.13
893.203	-10.92
893.374	-0.68
893.545	9.56
893.716	42.32
893.887	64.85
894.057	21.85
894.228	-23.21
894.399	-19.11
894.57	17.75
894.74	-74.41
894.911	17.75
895.082	-4.78
895.253	27.99
895.423	-64.17
895.594	62.8
895.764	-35.5
895.935	50.52
896.106	62.8
896.276	-51.88
896.447	-23.21
896.617	27.99
896.788	-2.73
896.958	46.42
897.129	52.56
897.299	-76.46
897.47	-31.4
897.64	42.32
897.81	30.04
897.981	46.42
898.151	40.28
898.322	-39.59
898.492	-31.4
898.662	-25.26
898.832	-17.07
899.003	34.13
899.173	34.13
899.343	-12.97
899.513	9.56
