Data from USB4F104151__206__11-10-16-358.txt Node

Date: Wed Mar 12 11:10:16 EDT 2025
User: louis
Spectrometer: USB4F10415
Trigger mode: 4
Integration Time (sec): 2.000000E-2
Scans to average: 1
Electric dark correction enabled: true
Nonlinearity correction enabled: false
Boxcar width: 0
XAxis mode: Wavelengths
Number of Pixels in Spectrum: 3648
>>>>>Begin Spectral Data<<<<<
178.204	-26.62
178.424	-26.62
178.644	-26.62
178.864	-22.53
179.084	-30.72
179.304	-47.1
179.524	-16.38
179.744	34.82
179.964	40.96
180.184	28.67
180.404	-22.53
180.624	-96.25
180.844	38.91
181.064	-38.91
181.283	-20.48
181.503	51.2
181.723	47.1
181.943	-51.2
182.163	-4.1
182.383	8.19
182.602	45.06
182.822	36.86
183.042	43.01
183.262	-18.43
183.482	8.19
183.701	71.68
183.921	22.53
184.141	-14.34
184.361	55.3
184.58	32.77
184.8	0
185.02	36.86
185.239	108.54
185.459	-36.86
185.679	-61.44
185.898	2.05
186.118	20.48
186.338	28.67
186.557	-14.34
186.777	20.48
186.997	51.2
187.216	57.34
187.436	79.87
187.655	-6.14
187.875	55.3
188.095	14.34
188.314	34.82
188.534	45.06
188.753	81.92
188.973	36.86
189.192	92.16
189.412	4.1
189.631	59.39
189.851	51.2
190.07	90.11
190.29	-6.14
190.509	0
190.729	-12.29
190.948	-10.24
191.168	178.17
191.387	0
191.607	-26.62
191.826	61.44
192.045	16.38
192.265	47.1
192.484	18.43
192.704	67.58
192.923	-10.24
193.142	96.25
193.362	-30.72
193.581	86.01
193.8	73.73
194.02	34.82
194.239	40.96
194.458	30.72
194.678	14.34
194.897	-8.19
195.116	22.53
195.335	67.58
195.555	102.4
195.774	-51.2
195.993	-8.19
196.212	10.24
196.432	22.53
196.651	8.19
196.87	20.48
197.089	47.1
197.308	16.38
197.528	24.58
197.747	10.24
197.966	16.38
198.185	108.54
198.404	71.68
198.623	-4.1
198.842	6.14
199.062	47.1
199.281	77.82
199.5	-2.05
199.719	-43.01
199.938	32.77
200.157	81.92
200.376	36.86
200.595	12.29
200.814	36.86
201.033	47.1
201.252	28.67
201.471	14.34
201.69	-4.1
201.909	-10.24
202.128	34.82
202.347	106.49
202.566	32.77
202.785	40.96
203.004	12.29
203.223	71.68
203.442	22.53
203.661	28.67
203.879	22.53
204.098	98.3
204.317	61.44
204.536	45.06
204.755	112.64
204.974	2.05
205.193	26.62
205.411	10.24
205.63	43.01
205.849	2.05
206.068	4.1
206.287	10.24
206.505	26.62
206.724	18.43
206.943	53.25
207.162	63.49
207.381	63.49
207.599	30.72
207.818	-10.24
208.037	38.91
208.255	47.1
208.474	61.44
208.693	83.97
208.911	16.38
209.13	-32.77
209.349	92.16
209.567	71.68
209.786	47.1
210.005	-12.29
210.223	86.01
210.442	28.67
210.661	51.2
210.879	92.16
211.098	16.38
211.316	8.19
211.535	10.24
211.753	51.2
211.972	43.01
212.191	32.77
212.409	55.3
212.628	30.72
212.846	51.2
213.065	79.87
213.283	118.78
213.502	14.34
213.72	104.45
213.938	47.1
214.157	-16.38
214.375	55.3
214.594	-30.72
214.812	16.38
215.031	32.77
215.249	-24.58
215.467	88.06
215.686	-34.82
215.904	79.87
216.122	2.05
216.341	73.73
216.559	94.21
216.778	83.97
216.996	83.97
217.214	-10.24
217.432	-2.05
217.651	34.82
217.869	61.44
218.087	-6.14
218.306	12.29
218.524	2.05
218.742	43.01
218.96	28.67
219.179	30.72
219.397	-16.38
219.615	75.77
219.833	65.54
220.051	36.86
220.27	61.44
220.488	61.44
220.706	43.01
220.924	81.92
221.142	16.38
221.36	40.96
221.578	55.3
221.796	-2.05
222.015	96.25
222.233	-8.19
222.451	100.35
222.669	-92.16
222.887	4.1
223.105	30.72
223.323	71.68
223.541	-18.43
223.759	57.34
223.977	36.86
224.195	98.3
224.413	59.39
224.631	47.1
224.849	88.06
225.067	57.34
225.285	4.1
225.503	43.01
225.721	18.43
225.939	12.29
226.157	61.44
226.375	53.25
226.592	-30.72
226.81	26.62
227.028	104.45
227.246	110.59
227.464	104.45
227.682	26.62
227.9	67.58
228.117	57.34
228.335	26.62
228.553	88.06
228.771	32.77
228.989	28.67
229.206	-34.82
229.424	96.25
229.642	-24.58
229.86	-30.72
230.077	79.87
230.295	71.68
230.513	63.49
230.731	47.1
230.948	77.82
231.166	63.49
231.384	45.06
231.601	2.05
231.819	77.82
232.037	36.86
232.254	-18.43
232.472	-2.05
232.689	24.58
232.907	49.15
233.125	28.67
233.342	14.34
233.56	55.3
233.777	61.44
233.995	55.3
234.213	73.73
234.43	51.2
234.648	65.54
234.865	34.82
235.083	34.82
235.3	63.49
235.518	16.38
235.735	75.77
235.953	16.38
236.17	45.06
236.388	55.3
236.605	6.14
236.822	53.25
237.04	-16.38
237.257	34.82
237.475	38.91
237.692	2.05
237.909	20.48
238.127	43.01
238.344	77.82
238.562	38.91
238.779	-22.53
238.996	34.82
239.214	24.58
239.431	47.1
239.648	-38.91
239.865	81.92
240.083	53.25
240.3	4.1
240.517	-16.38
240.735	43.01
240.952	38.91
241.169	4.1
241.386	10.24
241.603	6.14
241.821	34.82
242.038	59.39
242.255	36.86
242.472	88.06
242.689	10.24
242.907	30.72
243.124	-10.24
243.341	8.19
243.558	65.54
243.775	32.77
243.992	-10.24
244.209	-30.72
244.426	151.55
244.643	77.82
244.86	98.3
245.078	6.14
245.295	-18.43
245.512	57.34
245.729	18.43
245.946	86.01
246.163	83.97
246.38	45.06
246.597	20.48
246.814	-4.1
247.031	75.77
247.248	49.15
247.464	8.19
247.681	61.44
247.898	63.49
248.115	4.1
248.332	18.43
248.549	61.44
248.766	75.77
248.983	96.25
249.2	26.62
249.417	38.91
249.633	59.39
249.85	-36.86
250.067	24.58
250.284	94.21
250.501	81.92
250.717	47.1
250.934	2.05
251.151	43.01
251.368	-6.14
251.585	24.58
251.801	36.86
252.018	30.72
252.235	22.53
252.451	-28.67
252.668	20.48
252.885	28.67
253.102	-12.29
253.318	-28.67
253.535	36.86
253.752	88.06
253.968	14.34
254.185	-47.1
254.401	22.53
254.618	131.07
254.835	-43.01
255.051	32.77
255.268	51.2
255.484	22.53
255.701	-4.1
255.917	94.21
256.134	4.1
256.351	47.1
256.567	57.34
256.784	32.77
257	12.29
257.217	14.34
257.433	4.1
257.65	34.82
257.866	36.86
258.082	-24.58
258.299	67.58
258.515	26.62
258.732	12.29
258.948	51.2
259.165	30.72
259.381	30.72
259.597	10.24
259.814	-14.34
260.03	28.67
260.246	92.16
260.463	61.44
260.679	38.91
260.895	24.58
261.112	98.3
261.328	2.05
261.544	-22.53
261.761	22.53
261.977	59.39
262.193	81.92
262.409	38.91
262.626	-8.19
262.842	126.97
263.058	24.58
263.274	24.58
263.49	-18.43
263.707	28.67
263.923	106.49
264.139	-34.82
264.355	45.06
264.571	10.24
264.787	32.77
265.004	51.2
265.22	75.77
265.436	49.15
265.652	67.58
265.868	71.68
266.084	-12.29
266.3	55.3
266.516	24.58
266.732	49.15
266.948	47.1
267.164	94.21
267.38	22.53
267.596	96.25
267.812	98.3
268.028	61.44
268.244	63.49
268.46	65.54
268.676	22.53
268.892	-18.43
269.108	-47.1
269.324	43.01
269.54	-2.05
269.756	22.53
269.972	67.58
270.188	26.62
270.403	8.19
270.619	18.43
270.835	61.44
271.051	67.58
271.267	-47.1
271.483	28.67
271.698	51.2
271.914	51.2
272.13	-14.34
272.346	73.73
272.562	20.48
272.777	83.97
272.993	-24.58
273.209	6.14
273.425	32.77
273.64	32.77
273.856	24.58
274.072	40.96
274.287	2.05
274.503	96.25
274.719	51.2
274.934	-36.86
275.15	2.05
275.366	-12.29
275.581	12.29
275.797	10.24
276.012	71.68
276.228	24.58
276.444	71.68
276.659	-36.86
276.875	79.87
277.09	30.72
277.306	49.15
277.521	96.25
277.737	-75.77
277.952	71.68
278.168	49.15
278.383	51.2
278.599	53.25
278.814	40.96
279.03	55.3
279.245	20.48
279.461	8.19
279.676	77.82
279.892	-26.62
280.107	-53.25
280.322	40.96
280.538	20.48
280.753	-10.24
280.969	59.39
281.184	59.39
281.399	45.06
281.615	40.96
281.83	36.86
282.045	-2.05
282.26	30.72
282.476	24.58
282.691	75.77
282.906	47.1
283.122	36.86
283.337	40.96
283.552	51.2
283.767	-10.24
283.983	-24.58
284.198	47.1
284.413	122.88
284.628	-34.82
284.843	40.96
285.058	8.19
285.274	-30.72
285.489	-28.67
285.704	81.92
285.919	2.05
286.134	-22.53
286.349	-55.3
286.564	55.3
286.779	51.2
286.995	53.25
287.21	-18.43
287.425	100.35
287.64	40.96
287.855	88.06
288.07	32.77
288.285	61.44
288.5	51.2
288.715	51.2
288.93	36.86
289.145	4.1
289.36	102.4
289.575	47.1
289.79	24.58
290.004	30.72
290.219	116.73
290.434	32.77
290.649	86.01
290.864	14.34
291.079	18.43
291.294	114.69
291.509	67.58
291.724	51.2
291.938	28.67
292.153	14.34
292.368	38.91
292.583	63.49
292.798	-18.43
293.012	77.82
293.227	30.72
293.442	-20.48
293.657	32.77
293.871	30.72
294.086	22.53
294.301	77.82
294.516	51.2
294.73	129.02
294.945	-4.1
295.16	-18.43
295.374	22.53
295.589	67.58
295.804	63.49
296.018	45.06
296.233	47.1
296.447	10.24
296.662	65.54
296.877	16.38
297.091	45.06
297.306	69.63
297.52	4.1
297.735	14.34
297.949	6.14
298.164	77.82
298.378	-47.1
298.593	-4.1
298.807	4.1
299.022	40.96
299.236	69.63
299.451	83.97
299.665	47.1
299.88	-18.43
300.094	96.25
300.309	59.39
300.523	28.67
300.737	45.06
300.952	-8.19
301.166	110.59
301.381	94.21
301.595	38.91
301.809	55.3
302.024	61.44
302.238	47.1
302.452	116.73
302.667	10.24
302.881	106.49
303.095	108.54
303.309	53.25
303.524	32.77
303.738	-30.72
303.952	12.29
304.166	57.34
304.381	-59.39
304.595	14.34
304.809	20.48
305.023	53.25
305.237	20.48
305.452	94.21
305.666	102.4
305.88	69.63
306.094	22.53
306.308	22.53
306.522	69.63
306.736	75.77
306.95	47.1
307.164	0
307.379	55.3
307.593	55.3
307.807	59.39
308.021	-4.1
308.235	118.78
308.449	-30.72
308.663	38.91
308.877	71.68
309.091	30.72
309.305	83.97
309.519	-12.29
309.733	75.77
309.947	69.63
310.161	47.1
310.374	69.63
310.588	18.43
310.802	38.91
311.016	-20.48
311.23	34.82
311.444	2.05
311.658	59.39
311.872	96.25
312.085	57.34
312.299	69.63
312.513	2.05
312.727	6.14
312.941	26.62
313.154	114.69
313.368	-2.05
313.582	90.11
313.796	75.77
314.009	96.25
314.223	57.34
314.437	71.68
314.651	47.1
314.864	32.77
315.078	79.87
315.292	-2.05
315.505	30.72
315.719	112.64
315.933	49.15
316.146	-12.29
316.36	43.01
316.573	102.4
316.787	6.14
317.001	110.59
317.214	79.87
317.428	51.2
317.641	43.01
317.855	6.14
318.068	38.91
318.282	2.05
318.495	57.34
318.709	86.01
318.922	57.34
319.136	63.49
319.349	75.77
319.563	26.62
319.776	-12.29
319.99	57.34
320.203	4.1
320.417	4.1
320.63	28.67
320.843	81.92
321.057	88.06
321.27	28.67
321.483	131.07
321.697	-34.82
321.91	47.1
322.124	18.43
322.337	59.39
322.55	73.73
322.763	86.01
322.977	-43.01
323.19	34.82
323.403	120.83
323.617	28.67
323.83	79.87
324.043	63.49
324.256	108.54
324.469	14.34
324.683	63.49
324.896	61.44
325.109	94.21
325.322	-2.05
325.535	45.06
325.748	0
325.962	49.15
326.175	6.14
326.388	71.68
326.601	73.73
326.814	71.68
327.027	2.05
327.24	88.06
327.453	86.01
327.666	22.53
327.879	40.96
328.092	47.1
328.305	-32.77
328.518	63.49
328.731	71.68
328.944	14.34
329.157	-36.86
329.37	2.05
329.583	34.82
329.796	73.73
330.009	-53.25
330.222	59.39
330.435	24.58
330.648	12.29
330.861	-2.05
331.073	24.58
331.286	10.24
331.499	67.58
331.712	4.1
331.925	116.73
332.138	73.73
332.35	77.82
332.563	-20.48
332.776	63.49
332.989	77.82
333.202	-10.24
333.414	53.25
333.627	90.11
333.84	20.48
334.053	59.39
334.265	30.72
334.478	53.25
334.691	45.06
334.903	34.82
335.116	55.3
335.329	61.44
335.541	47.1
335.754	92.16
335.966	45.06
336.179	73.73
336.392	38.91
336.604	65.54
336.817	77.82
337.029	-14.34
337.242	55.3
337.454	43.01
337.667	73.73
337.88	129.02
338.092	10.24
338.305	22.53
338.517	28.67
338.729	88.06
338.942	55.3
339.154	61.44
339.367	51.2
339.579	2.05
339.792	-26.62
340.004	14.34
340.217	49.15
340.429	22.53
340.641	12.29
340.854	14.34
341.066	-18.43
341.278	69.63
341.491	55.3
341.703	-4.1
341.915	12.29
342.128	-4.1
342.34	26.62
342.552	124.93
342.764	53.25
342.977	63.49
343.189	63.49
343.401	20.48
343.613	22.53
343.826	-30.72
344.038	57.34
344.25	8.19
344.462	-18.43
344.674	110.59
344.886	92.16
345.099	104.45
345.311	4.1
345.523	63.49
345.735	4.1
345.947	98.3
346.159	6.14
346.371	16.38
346.583	67.58
346.795	14.34
347.007	-2.05
347.219	45.06
347.431	40.96
347.643	86.01
347.855	79.87
348.067	131.07
348.279	47.1
348.491	14.34
348.703	-69.63
348.915	30.72
349.127	118.78
349.339	45.06
349.551	67.58
349.763	108.54
349.975	-43.01
350.187	-8.19
350.399	51.2
350.61	28.67
350.822	102.4
351.034	61.44
351.246	57.34
351.458	116.73
351.669	30.72
351.881	36.86
352.093	71.68
352.305	57.34
352.517	96.25
352.728	59.39
352.94	-14.34
353.152	114.69
353.363	22.53
353.575	83.97
353.787	-2.05
353.999	30.72
354.21	92.16
354.422	53.25
354.633	26.62
354.845	45.06
355.057	22.53
355.268	14.34
355.48	-28.67
355.692	63.49
355.903	83.97
356.115	55.3
356.326	18.43
356.538	79.87
356.749	49.15
356.961	112.64
357.172	26.62
357.384	71.68
357.595	61.44
357.807	71.68
358.018	-45.06
358.23	65.54
358.441	63.49
358.653	104.45
358.864	16.38
359.075	-32.77
359.287	43.01
359.498	51.2
359.709	61.44
359.921	83.97
360.132	96.25
360.344	61.44
360.555	61.44
360.766	34.82
360.977	71.68
361.189	53.25
361.4	94.21
361.611	92.16
361.823	69.63
362.034	-20.48
362.245	43.01
362.456	10.24
362.667	49.15
362.879	6.14
363.09	36.86
363.301	57.34
363.512	98.3
363.723	79.87
363.935	-4.1
364.146	96.25
364.357	86.01
364.568	6.14
364.779	26.62
364.99	110.59
365.201	20.48
365.412	43.01
365.623	22.53
365.834	20.48
366.045	53.25
366.256	81.92
366.467	104.45
366.678	32.77
366.889	53.25
367.1	-2.05
367.311	98.3
367.522	24.58
367.733	49.15
367.944	94.21
368.155	16.38
368.366	26.62
368.577	14.34
368.788	81.92
368.999	63.49
369.209	88.06
369.42	22.53
369.631	133.12
369.842	51.2
370.053	59.39
370.264	71.68
370.474	49.15
370.685	120.83
370.896	57.34
371.107	30.72
371.317	90.11
371.528	20.48
371.739	79.87
371.95	63.49
372.16	71.68
372.371	28.67
372.582	-4.1
372.792	120.83
373.003	137.21
373.214	83.97
373.424	51.2
373.635	28.67
373.846	100.35
374.056	8.19
374.267	75.77
374.477	79.87
374.688	22.53
374.898	116.73
375.109	55.3
375.319	36.86
375.53	77.82
375.74	104.45
375.951	57.34
376.161	38.91
376.372	14.34
376.582	81.92
376.793	51.2
377.003	77.82
377.214	55.3
377.424	53.25
377.635	69.63
377.845	94.21
378.055	98.3
378.266	34.82
378.476	49.15
378.686	59.39
378.897	40.96
379.107	67.58
379.317	55.3
379.528	36.86
379.738	55.3
379.948	96.25
380.158	18.43
380.369	63.49
380.579	153.6
380.789	0
380.999	90.11
381.21	-20.48
381.42	118.78
381.63	-4.1
381.84	86.01
382.05	30.72
382.261	77.82
382.471	104.45
382.681	12.29
382.891	-28.67
383.101	26.62
383.311	-6.14
383.521	65.54
383.731	57.34
383.941	86.01
384.151	43.01
384.361	-30.72
384.571	65.54
384.781	43.01
384.991	141.31
385.201	161.79
385.411	63.49
385.621	147.45
385.831	96.25
386.041	83.97
386.251	92.16
386.461	53.25
386.671	34.82
386.881	67.58
387.091	28.67
387.301	112.64
387.511	83.97
387.72	32.77
387.93	77.82
388.14	-6.14
388.35	47.1
388.56	96.25
388.769	96.25
388.979	4.1
389.189	98.3
389.399	120.83
389.609	55.3
389.818	71.68
390.028	102.4
390.238	77.82
390.447	49.15
390.657	45.06
390.867	118.78
391.076	47.1
391.286	12.29
391.496	100.35
391.705	65.54
391.915	151.55
392.125	126.97
392.334	45.06
392.544	86.01
392.753	141.31
392.963	32.77
393.172	20.48
393.382	22.53
393.591	71.68
393.801	94.21
394.01	149.5
394.22	30.72
394.429	118.78
394.639	71.68
394.848	57.34
395.058	133.12
395.267	145.41
395.477	83.97
395.686	118.78
395.895	104.45
396.105	161.79
396.314	112.64
396.524	102.4
396.733	83.97
396.942	114.69
397.152	133.12
397.361	73.73
397.57	122.88
397.78	178.17
397.989	114.69
398.198	165.89
398.407	143.36
398.617	100.35
398.826	88.06
399.035	55.3
399.244	71.68
399.453	139.26
399.663	167.93
399.872	141.31
400.081	104.45
400.29	88.06
400.499	143.36
400.708	98.3
400.917	112.64
401.127	110.59
401.336	102.4
401.545	182.27
401.754	151.55
401.963	180.22
402.172	159.74
402.381	118.78
402.59	86.01
402.799	137.21
403.008	178.17
403.217	135.17
403.426	65.54
403.635	106.49
403.844	186.37
404.053	163.84
404.262	202.75
404.471	116.73
404.68	75.77
404.888	184.32
405.097	143.36
405.306	165.89
405.515	200.7
405.724	139.26
405.933	174.08
406.142	208.89
406.35	172.03
406.559	212.99
406.768	149.5
406.977	180.22
407.185	186.37
407.394	139.26
407.603	202.75
407.812	296.96
408.02	223.23
408.229	272.38
408.438	256
408.646	221.18
408.855	241.66
409.064	268.28
409.272	315.39
409.481	329.72
409.69	307.2
409.898	321.53
410.107	323.58
410.315	350.2
410.524	362.49
410.733	385.02
410.941	362.49
411.15	370.68
411.358	354.3
411.567	446.46
411.775	423.93
411.984	399.35
412.192	530.42
412.401	462.84
412.609	483.32
412.818	571.38
413.026	540.66
413.234	473.08
413.443	485.37
413.651	608.25
413.86	579.58
414.068	671.73
414.276	620.53
414.485	718.84
414.693	696.31
414.901	722.93
415.11	747.51
415.318	712.69
415.526	884.72
415.734	854
415.943	847.86
416.151	978.93
416.359	837.62
416.567	995.31
416.776	935.92
416.984	999.41
417.192	1028.08
417.4	1103.86
417.608	1023.98
417.817	1073.14
418.025	1249.26
418.233	1218.54
418.441	1150.96
418.649	1222.64
418.857	1390.57
419.065	1390.57
419.273	1300.46
419.481	1376.24
419.689	1531.88
419.897	1662.95
420.105	1665
420.313	1681.38
420.521	1861.6
420.729	1722.34
420.937	1834.98
421.145	1941.47
421.353	1886.18
421.561	2267.1
421.769	2220
421.977	2181.09
422.185	2240.48
422.393	2303.96
422.601	2410.46
422.809	2414.56
423.017	2426.84
423.224	2607.06
423.432	2668.5
423.64	2719.7
423.848	2940.88
424.056	3002.32
424.263	3065.81
424.471	2899.92
424.679	3125.2
424.887	3403.72
425.094	3473.36
425.302	3454.92
425.51	3602.38
425.718	3547.08
425.925	3735.5
426.133	3780.55
426.341	4065.22
426.548	4251.58
426.756	4122.56
426.964	4374.46
427.171	4542.39
427.379	4493.24
427.586	4812.73
427.794	4911.03
428.001	5167.03
428.209	5357.49
428.417	5308.34
428.624	5570.48
428.832	5640.11
429.039	5576.62
429.247	5439.41
429.454	6225.83
429.662	6371.23
429.869	6053.8
430.076	6571.93
430.284	6424.48
430.491	6698.91
430.699	6913.94
430.906	7081.88
431.114	7073.68
431.321	7413.65
431.528	7643.02
431.736	7962.5
431.943	8259.46
432.15	7864.2
432.358	8320.9
432.565	8605.56
432.772	8531.84
432.979	9054.07
433.187	9111.41
433.394	9287.54
433.601	9838.44
433.808	9793.39
434.016	9811.82
434.223	10385.25
434.43	10766.17
434.637	10860.38
434.844	11427.67
435.052	11659.09
435.259	11566.93
435.466	11634.51
435.673	11364.18
435.88	12236.61
436.087	12838.72
436.294	12883.77
436.501	12277.57
436.708	12738.37
436.915	13072.18
437.122	14049.07
437.329	13772.59
437.537	14180.14
437.743	14501.67
437.95	14176.04
438.157	15189.78
438.364	15345.43
438.571	15515.41
438.778	15640.34
438.985	17035
439.192	16316.17
439.399	17217.27
439.606	16738.05
439.813	17430.26
440.02	18632.42
440.227	18231.02
440.433	18093.8
440.64	18706.15
440.847	18431.72
441.054	18951.9
441.261	20106.96
441.467	19734.23
441.674	20451.02
441.881	21071.55
442.088	20856.51
442.294	20887.23
442.501	21325.5
442.708	21939.89
442.914	22668.97
443.121	23897.75
443.328	23082.66
443.534	24653.45
443.741	24137.36
443.948	23926.42
444.154	25489.02
444.361	24962.69
444.568	25460.35
444.774	25114.24
444.981	25579.13
445.187	26482.28
445.394	27405.92
445.6	27395.68
445.807	29742.65
446.013	28509.77
446.22	29156.93
446.426	29969.97
446.633	30281.27
446.839	31159.84
447.046	30002.74
447.252	31671.84
447.459	31870.49
447.665	31372.83
447.871	33000.97
448.078	34151.93
448.284	32652.81
448.491	33572.35
448.697	34838
448.903	35489.25
449.11	35642.85
449.316	34893.29
449.522	35382.76
449.728	36527.57
449.935	36777.42
450.141	36730.32
450.347	37868.99
450.553	36163.03
450.76	36595.15
450.966	37799.36
451.172	37266.89
451.378	38002.11
451.584	37588.42
451.791	38915.5
451.997	38522.29
452.203	39251.37
452.409	38714.8
452.615	38493.62
452.821	37141.96
453.027	36703.7
453.233	38915.5
453.44	37101
453.646	37649.86
453.852	37559.75
454.058	38546.87
454.264	36974.03
454.47	37588.42
454.676	37027.27
454.882	38215.1
455.088	34815.47
455.294	35272.17
455.5	35954.14
455.705	36498.9
455.911	35044.84
456.117	33947.13
456.323	33603.07
456.529	31829.53
456.735	33240.58
456.941	32509.46
457.147	31641.12
457.352	30752.3
457.558	30475.82
457.764	30400.05
457.97	30142
458.176	29097.54
458.381	29386.3
458.587	27647.58
458.793	27567.71
458.999	26496.62
459.204	28249.68
459.41	27786.84
459.616	25720.44
459.821	25669.24
460.027	25464.44
460.233	25083.52
460.438	23738.01
460.644	24196.75
460.85	22757.03
461.055	22816.42
461.261	22582.95
461.466	20745.92
461.672	20395.72
461.878	21771.96
462.083	20334.28
462.289	20014.8
462.494	19576.53
462.7	18835.17
462.905	18360.04
463.111	18994.91
463.316	19052.25
463.522	18609.89
463.727	18693.86
463.932	18589.41
464.138	18626.28
464.343	18460.39
464.549	18028.27
464.754	18796.26
464.959	18548.45
465.165	18376.42
465.37	17755.89
465.575	17200.89
465.781	17651.44
465.986	18028.27
466.191	17321.72
466.397	16946.94
466.602	16193.29
466.807	16918.27
467.012	16805.63
467.218	16512.77
467.423	16525.06
467.628	16541.44
467.833	17583.86
468.038	16652.03
468.244	15974.16
468.449	16998.14
468.654	16023.31
468.859	16240.39
469.064	16140.04
469.269	15296.28
469.474	15443.73
469.679	15857.42
469.885	15286.04
470.09	15580.95
470.295	15384.34
470.5	15062.81
470.705	15169.3
470.91	15036.19
471.115	14661.41
471.32	15021.85
471.525	14741.28
471.73	14481.19
471.935	14538.53
472.139	13948.72
472.344	14217
472.549	13958.95
472.754	13874.99
472.959	13545.27
473.164	13074.23
473.369	13145.91
473.574	13469.49
473.778	13340.47
473.983	13313.84
474.188	13086.52
474.393	12642.11
474.598	12558.14
474.802	12488.51
475.007	12519.23
475.212	12480.32
475.417	12105.54
475.621	12021.58
475.826	12044.1
476.031	11833.16
476.235	11644.75
476.44	11745.1
476.645	11687.76
476.849	11568.98
477.054	11433.81
477.259	11521.87
477.463	11329.36
477.668	11083.61
477.872	11229.01
478.077	10889.05
478.282	10827.61
478.486	10825.56
478.691	10723.16
478.895	10579.81
479.1	10522.46
479.304	10444.64
479.509	10266.47
479.713	10420.06
479.918	10258.28
480.122	10082.15
480.326	10131.3
480.531	10231.65
480.735	10030.95
480.94	9932.65
481.144	10356.58
481.348	9754.48
481.553	9801.58
481.757	9654.12
481.961	9795.43
482.166	9959.27
482.37	9951.08
482.574	9889.64
482.778	9695.08
482.983	9758.57
483.187	9979.75
483.391	9797.48
483.595	9670.51
483.8	9578.35
484.004	9760.62
484.208	9914.22
484.412	9824.11
484.616	9744.24
484.821	9756.52
485.025	9494.38
485.229	9701.23
485.433	9707.37
485.637	9897.83
485.841	9539.44
486.045	9580.4
486.249	9787.24
486.453	9670.51
486.657	9711.47
486.861	9846.63
487.065	9410.42
487.269	9791.34
487.473	9690.99
487.677	9901.93
487.881	9922.41
488.085	9746.28
488.289	9762.67
488.493	9518.96
488.697	9811.82
488.901	9873.26
489.105	9820.01
489.309	9736.04
489.512	9795.43
489.716	9764.71
489.92	9981.8
490.124	9994.09
490.328	10082.15
490.531	9908.07
490.735	10139.49
490.939	10028.9
491.143	9881.45
491.346	9973.61
491.55	10039.14
491.754	10116.97
491.958	10278.76
492.161	10325.86
492.365	10112.87
492.569	10114.92
492.772	10139.49
492.976	10202.98
493.18	10358.63
493.383	10514.27
493.587	10493.79
493.79	10418.02
493.994	10413.92
494.197	10766.17
494.401	10766.17
494.605	10807.13
494.808	10946.39
495.012	11056.98
495.215	11126.61
495.419	11255.64
495.622	10987.35
495.825	11384.66
496.029	11380.56
496.232	11577.17
496.436	11517.78
496.639	11812.68
496.843	11796.3
497.046	11970.38
497.249	12064.58
497.453	12146.5
497.656	12324.68
497.859	12314.44
498.063	12494.66
498.266	12826.43
498.469	12566.34
498.673	12955.45
498.876	12930.87
499.079	13238.07
499.282	12949.31
499.485	13580.08
499.689	13401.91
499.892	13715.25
500.095	13483.83
500.298	14024.49
500.501	13772.59
500.705	14251.81
500.908	14354.21
501.111	14554.91
501.314	14632.74
501.517	14862.11
501.72	14950.17
501.923	14984.99
502.126	15413.01
502.329	15507.22
502.532	15431.44
502.735	15548.18
502.938	16088.84
503.141	15949.58
503.344	16418.57
503.547	16553.73
503.75	16813.82
503.953	16811.78
504.156	17000.19
504.359	17356.54
504.562	17311.48
504.765	17487.61
504.968	17567.48
505.17	17811.18
505.373	18036.46
505.576	18360.04
505.779	18407.14
505.982	18308.84
506.185	19037.92
506.387	19121.88
506.59	19173.08
506.793	19437.27
506.996	19388.12
507.198	19908.3
507.401	19685.08
507.604	20061.9
507.807	20397.77
508.009	20586.18
508.212	20813.51
508.415	20750.02
508.617	21282.49
508.82	21536.44
509.022	21462.71
509.225	21870.26
509.428	22202.03
509.63	22210.22
509.833	22138.54
510.035	22937.25
510.238	22808.23
510.44	23088.8
510.643	23258.78
510.845	23654.04
511.048	23432.86
511.25	23918.23
511.453	23883.41
511.655	25173.63
511.858	24632.97
512.06	24639.11
512.262	25126.53
512.465	25155.2
512.667	25609.85
512.87	25802.36
513.072	25622.14
513.274	26390.13
513.477	26570.35
513.679	26660.46
513.881	27012.71
514.084	27399.77
514.286	27627.1
514.488	27426.4
514.69	28366.42
514.893	28169.81
515.095	28374.61
515.297	28896.84
515.499	28665.42
515.701	29064.77
515.904	29482.56
516.106	29384.26
516.308	30279.22
516.51	30133.81
516.712	29998.65
516.914	30680.62
517.116	31344.16
517.318	31360.55
517.52	31471.14
517.722	31524.38
517.925	31985.18
518.127	32390.67
518.329	32830.99
518.531	32550.42
518.733	33187.33
518.935	33349.12
519.136	33234.44
519.338	34082.3
519.54	34110.97
519.742	34424.31
519.944	34594.29
520.146	35132.9
520.348	35237.35
520.55	35536.35
520.752	35538.4
520.954	35931.61
521.155	35773.92
521.357	36586.96
521.559	36675.02
521.761	37101
521.963	37193.16
522.164	37496.26
522.366	37537.22
522.568	37752.26
522.77	38315.45
522.971	38653.36
523.173	38503.86
523.375	38935.98
523.576	38761.9
523.778	38952.37
523.98	39511.46
524.181	39669.15
524.383	39847.33
524.584	40166.81
524.786	39878.05
524.988	40103.32
525.189	40623.51
525.391	40861.07
525.592	41039.25
525.794	41459.08
525.995	41010.57
526.197	41211.28
526.398	41330.06
526.6	41584.01
526.801	42214.78
527.003	41901.44
527.204	41850.24
527.406	42311.03
527.607	42499.45
527.808	42753.4
528.01	41958.78
528.211	42657.14
528.412	43437.42
528.614	42950
528.815	43081.07
529.016	43744.61
529.218	43181.42
529.419	43777.38
529.62	43668.84
529.822	43613.54
530.023	43404.65
530.224	43761
530.425	44109.15
530.626	43449.7
530.828	43572.58
531.029	44520.79
531.23	43806.05
531.431	43994.46
531.632	44240.22
531.833	44662.1
532.035	44418.39
532.236	44371.29
532.437	44641.62
532.638	44133.73
532.839	44825.94
533.04	44723.54
533.241	44193.12
533.442	45069.65
533.643	44739.93
533.844	44856.66
534.045	44813.65
534.246	44862.8
534.447	44924.24
534.648	44766.55
534.849	44750.17
535.05	44496.22
535.251	44571.99
535.451	44557.66
535.652	44924.24
535.853	44985.68
536.054	45170
536.255	45184.33
536.456	44526.94
536.657	45069.65
536.857	44682.58
537.058	44268.89
537.259	45178.19
537.46	45161.81
537.66	44801.36
537.861	45026.64
538.062	45196.62
538.263	45288.78
538.463	44498.26
538.664	45077.84
538.865	44932.43
539.065	45194.57
539.266	44475.74
539.466	45489.48
539.667	44578.14
539.868	45268.3
540.068	44993.87
540.269	44827.99
540.469	45251.92
540.67	45018.45
540.87	44899.67
541.071	44983.63
541.271	45198.67
541.472	45004.11
541.672	44891.47
541.873	44535.13
542.073	44164.45
542.274	45266.25
542.474	44764.5
542.675	44350.81
542.875	45389.13
543.075	44639.57
543.276	44514.65
543.476	45217.1
543.676	44395.87
543.877	44830.04
544.077	44637.53
544.277	44877.14
544.478	44500.31
544.678	44481.88
544.878	44809.56
545.078	44864.85
545.279	44524.89
545.479	44420.44
545.679	44539.22
545.879	44598.62
546.079	44406.11
546.28	44426.59
546.48	44318.04
546.68	44682.58
546.88	44432.73
547.08	44844.37
547.28	44875.09
547.48	44197.21
547.68	44481.88
547.88	44119.39
548.081	44551.51
548.281	44518.74
548.481	44361.05
548.681	44969.3
548.881	44375.39
549.081	44322.14
549.28	44635.48
549.48	44752.21
549.68	44221.79
549.88	44830.04
550.08	44303.71
550.28	44318.04
550.48	44418.39
550.68	44688.73
550.88	44410.2
551.08	44201.31
551.279	44463.45
551.479	43967.84
551.679	44391.77
551.879	44002.66
552.079	44801.36
552.278	44432.73
552.478	44002.66
552.678	43822.44
552.878	44109.15
553.077	43879.78
553.277	43392.36
553.477	44373.34
553.676	43973.98
553.876	44002.66
554.076	43808.1
554.275	43898.21
554.475	43541.86
554.674	44043.62
554.874	43900.26
555.074	43582.82
555.273	43992.42
555.473	43832.68
555.672	43394.41
555.872	43525.48
556.071	43752.8
556.271	43973.98
556.47	43634.02
556.67	43111.79
556.869	43951.46
557.068	43304.3
557.268	43269.48
557.467	43224.43
557.667	43023.73
557.866	43154.8
558.065	43226.48
558.265	42892.66
558.464	42732.92
558.663	43535.72
558.863	42452.34
559.062	43191.66
559.261	42495.35
559.461	43076.97
559.66	42179.96
559.859	42581.37
560.058	42192.25
560.258	42704.24
560.457	41995.65
560.656	42667.38
560.855	42497.4
561.054	42577.27
561.253	42003.84
561.453	42235.26
561.652	42491.26
561.851	41700.74
562.05	42001.79
562.249	41909.63
562.448	42071.42
562.647	41682.31
562.846	41825.67
563.045	41577.86
563.244	41115.02
563.443	41911.68
563.642	41229.71
563.841	41696.64
564.04	41059.73
564.239	41840
564.438	41186.7
564.637	41155.98
564.836	40916.37
565.035	40635.8
565.234	40758.67
565.432	40789.39
565.631	40408.47
565.83	40846.74
566.029	40443.29
566.228	40332.7
566.427	40269.21
566.625	40088.99
566.824	39886.24
567.023	40381.85
567.222	39146.92
567.42	40248.73
567.619	39792.03
567.818	39634.34
568.016	39716.26
568.215	39867.81
568.414	39210.41
568.612	39878.05
568.811	39089.58
569.01	39439.78
569.208	38874.54
569.407	39161.26
569.605	38624.69
569.804	39251.37
570.002	38411.7
570.201	38743.47
570.4	38653.36
570.598	38370.74
570.797	38383.03
570.995	38809.01
571.193	38145.47
571.392	38712.75
571.59	37932.48
571.789	37848.51
571.987	37854.65
572.186	37723.58
572.384	37328.33
572.582	37764.54
572.781	37934.53
572.979	37262.79
573.177	37326.28
573.376	37598.66
573.574	37488.07
573.772	37295.56
573.971	36660.69
574.169	37031.37
574.367	36855.25
574.565	36953.55
574.763	36771.28
574.962	36896.2
575.16	36382.16
575.358	36564.43
575.556	36191.7
575.754	36734.42
575.952	35814.88
576.151	35939.8
576.349	35642.85
576.547	35851.74
576.745	35925.47
576.943	36230.62
577.141	35399.14
577.339	35483.11
577.537	35237.35
577.735	35239.4
577.933	35155.43
578.131	35456.48
578.329	34969.07
578.527	34950.63
578.725	34764.27
578.923	34700.78
579.121	34471.41
579.319	34352.63
579.516	34733.55
579.714	34717.17
579.912	34416.11
580.11	34369.01
580.308	34688.49
580.506	34176.5
580.704	33916.41
580.901	34149.88
581.099	33957.37
581.297	34096.63
581.495	33502.72
581.692	34239.99
581.89	33463.81
582.088	33781.24
582.285	33580.54
582.483	33580.54
582.681	32986.63
582.878	33084.94
583.076	32574.99
583.274	33070.6
583.471	32452.11
583.669	32462.35
583.866	32747.02
584.064	32839.18
584.262	32124.44
584.459	32611.85
584.657	31976.98
584.854	32278.04
585.052	31780.38
585.249	32116.25
585.447	32392.72
585.644	31645.21
585.841	31714.84
586.039	31878.68
586.236	31299.11
586.434	31503.9
586.631	31374.88
586.828	31731.23
587.026	31602.21
587.223	31305.25
587.42	31026.73
587.618	30826.03
587.815	30819.88
588.012	30905.9
588.21	30547.5
588.407	30680.62
588.604	30524.97
588.801	30363.18
588.999	30582.32
589.196	30369.33
589.393	30123.57
589.59	30256.69
589.787	29843
589.984	29617.72
590.182	29754.94
590.379	29980.21
590.576	29722.17
590.773	30051.89
590.97	29449.79
591.167	29748.79
591.364	29300.29
591.561	29503.04
591.758	28921.41
591.955	29132.36
592.152	29539.9
592.349	28970.57
592.546	28984.9
592.743	29042.24
592.94	28776.01
593.137	28909.13
593.334	28233.3
593.531	28165.71
593.727	28388.94
593.924	28343.89
594.121	28278.35
594.318	28855.88
594.515	28104.28
594.712	28069.46
594.908	28116.56
595.105	27942.49
595.302	27438.69
595.499	27803.22
595.696	27645.53
595.892	27074.15
596.089	27528.8
596.286	27532.89
596.482	27141.73
596.679	27491.93
596.876	27092.58
597.072	26779.24
597.269	27158.11
597.466	26685.03
597.662	26728.04
597.859	26719.85
598.055	26822.25
598.252	26508.91
598.448	26447.47
598.645	26375.79
598.841	26375.79
599.038	26250.86
599.234	26011.25
599.431	26170.99
599.627	25765.49
599.824	26390.13
600.02	25722.49
600.217	25859.7
600.413	26091.12
600.609	25695.86
600.806	25218.69
601.002	25585.27
601.198	25470.59
601.395	25271.93
601.591	25056.9
601.787	25122.43
601.984	25015.94
602.18	25165.44
602.376	24780.42
602.572	24782.47
602.769	25048.71
602.965	24428.17
603.161	24721.03
603.357	24721.03
603.553	24389.26
603.75	24483.47
603.946	24182.42
604.142	24495.75
604.338	23875.22
604.534	24080.02
604.73	23690.9
604.926	23662.23
605.122	23948.95
605.318	23754.39
605.514	23723.67
605.71	23563.93
605.906	23504.54
606.102	23602.84
606.298	23608.98
606.494	23430.81
606.69	23357.08
606.886	23355.04
607.082	22986.4
607.278	23211.68
607.474	22728.36
607.67	23183.01
607.866	22683.3
608.062	23236.25
608.257	23111.33
608.453	22783.65
608.649	22779.56
608.845	22705.83
609.041	22671.01
609.236	22884
609.432	22496.94
609.628	23013.02
609.824	22576.81
610.019	22367.91
610.215	22404.78
610.411	22447.79
610.606	22453.93
610.802	22558.38
610.998	22378.15
611.193	22453.93
611.389	22169.26
611.584	22099.63
611.78	21819.06
611.976	22169.26
612.171	21974.7
612.367	22199.98
612.562	21583.54
612.758	21540.54
612.953	21528.25
613.149	21765.81
613.344	21448.38
613.539	22005.42
613.735	21509.82
613.93	21458.62
614.126	21302.97
614.321	21673.65
614.517	21194.43
614.712	21259.96
614.907	21462.71
615.103	21405.37
615.298	20948.67
615.493	21204.67
615.688	20876.99
615.884	21468.86
616.079	20911.81
616.274	21118.65
616.47	20709.06
616.665	21073.6
616.86	20721.35
617.055	20948.67
617.25	20860.61
617.445	20889.28
617.641	20440.78
617.836	20997.82
618.031	20324.04
618.226	20821.7
618.421	20385.48
618.616	20545.22
618.811	20174.54
619.006	20479.69
619.201	19959.5
619.396	20111.05
619.591	19926.74
619.786	20133.58
619.981	19656.4
620.176	19975.89
620.371	19588.82
620.566	19926.74
620.761	19535.57
620.956	19779.28
621.151	19404.5
621.346	19404.5
621.541	19136.22
621.735	19388.12
621.93	18999.01
622.125	19062.49
622.32	18503.4
622.515	18712.29
622.709	18808.55
622.904	18622.18
623.099	18534.12
623.294	18613.99
623.488	18181.87
623.683	18456.29
623.878	17950.45
624.072	18200.3
624.267	18181.87
624.462	18067.18
624.656	17743.6
624.851	17628.92
625.046	17520.37
625.24	17547
625.435	17219.32
625.629	17315.58
625.824	17229.56
626.018	17164.03
626.213	16819.97
626.407	16967.42
626.602	16568.07
626.796	16840.45
626.991	16645.89
627.185	16602.88
627.38	16527.11
627.574	16469.76
627.768	16236.3
627.963	16140.04
628.157	15920.91
628.352	16045.84
628.546	15847.18
628.74	15990.54
628.935	15654.67
629.129	15853.33
629.323	15712.02
629.517	15630.1
629.712	15519.51
629.906	15320.85
630.1	15030.04
630.294	15499.03
630.489	14812.96
630.683	15234.84
630.877	15007.51
631.071	14833.44
631.265	15023.9
631.459	14937.88
631.653	14696.22
631.848	14513.95
632.042	14423.84
632.236	14575.39
632.43	14303.01
632.624	14415.65
632.818	14188.33
633.012	14055.21
633.206	14169.9
633.4	14042.92
633.594	13887.28
633.788	13864.75
633.982	13961
634.176	13686.58
634.369	13514.55
634.563	13653.81
634.757	13522.74
634.951	13606.7
635.145	13449.01
635.339	13457.2
635.533	13477.68
635.726	13358.9
635.92	13154.1
636.114	13141.82
636.308	12865.34
636.501	12771.13
636.695	12803.9
636.889	12808
637.083	12482.37
637.276	12433.22
637.47	12482.37
637.664	12461.89
637.857	12410.69
638.051	12511.04
638.244	12181.32
638.438	12228.42
638.632	12236.61
638.825	12255.04
639.019	12119.88
639.212	11974.47
639.406	11865.93
639.599	12021.58
639.793	11814.73
639.986	11675.47
640.18	11704.14
640.373	11550.54
640.567	11446.1
640.76	11528.02
640.954	11487.06
641.147	11358.03
641.34	11171.67
641.534	11302.74
641.727	11145.05
641.92	11278.16
642.114	11024.22
642.307	10983.26
642.5	10964.82
642.694	10755.93
642.887	10760.03
643.08	10884.95
643.273	10919.77
643.467	10792.8
643.66	10481.5
643.853	10674.01
644.046	10450.78
644.239	10536.8
644.432	10364.77
644.626	10196.84
644.819	10223.46
645.012	10192.74
645.205	10012.52
645.398	9817.96
645.591	9959.27
645.784	9924.46
645.977	9903.98
646.17	9856.87
646.363	9887.59
646.556	9746.28
646.749	9826.15
646.942	9693.04
647.135	9779.05
647.328	9590.64
647.521	9623.41
647.714	9262.96
647.907	9396.08
648.099	9453.42
648.292	9416.56
648.485	9189.24
648.678	9230.2
648.871	9107.32
649.064	9068.41
649.256	8968.06
649.449	8933.24
649.642	9058.17
649.835	8843.13
650.027	8923
650.22	8822.65
650.413	8669.05
650.605	8822.65
650.798	8726.39
650.991	8544.13
651.183	8634.24
651.376	8441.73
651.568	8511.36
651.761	8331.14
651.954	8370.05
652.146	8243.07
652.339	8351.62
652.531	8261.51
652.724	8216.45
652.916	8271.75
653.109	8077.19
653.301	7985.03
653.494	8081.28
653.686	7882.63
653.879	8163.2
654.071	8003.46
654.263	7542.67
654.456	7833.48
654.648	7935.88
654.84	7649.16
655.033	7872.39
655.225	7786.38
655.417	7755.66
655.61	7679.88
655.802	7458.7
655.994	7559.05
656.186	7614.35
656.379	7565.2
656.571	7366.54
656.763	7284.62
656.955	7327.63
657.148	7159.7
657.34	7288.72
657.532	7049.11
657.724	7186.32
657.916	7139.22
658.108	7137.17
658.3	7051.16
658.492	7077.78
658.684	7057.3
658.876	7018.39
659.068	6948.76
659.26	6821.78
659.452	6862.74
659.644	6805.4
659.836	6836.12
660.028	6700.95
660.22	6420.38
660.412	6754.2
660.604	6709.15
660.796	6668.19
660.988	6682.52
661.18	6338.46
661.372	6219.68
661.563	6522.78
661.755	6367.13
661.947	6457.25
662.139	6406.05
662.331	6240.16
662.522	6229.92
662.714	6404
662.906	6287.26
663.097	6358.94
663.289	5980.07
663.481	6002.6
663.673	6098.85
663.864	6064.04
664.056	6002.6
664.247	5926.82
664.439	5920.68
664.631	6086.56
664.822	5908.39
665.014	5863.33
665.205	5775.27
665.397	5742.5
665.588	5664.68
665.78	5736.36
665.971	5715.88
666.163	5752.74
666.354	5562.28
666.546	5623.72
666.737	5588.91
666.929	5482.41
667.12	5646.25
667.311	5562.28
667.503	5332.91
667.694	5453.74
667.885	5388.21
668.077	5453.74
668.268	5314.48
668.459	5380.01
668.651	5367.73
668.842	5326.77
669.033	5287.86
669.224	5328.81
669.416	5289.9
669.607	5228.46
669.798	5083.06
669.989	5257.14
670.18	5210.03
670.371	5222.32
670.563	4923.32
670.754	5035.96
670.945	4911.03
671.136	4933.56
671.327	4986.8
671.518	4859.83
671.709	4990.9
671.9	4896.69
672.091	5011.38
672.282	5015.48
672.473	4892.6
672.664	4698.04
672.855	4915.12
673.046	4747.19
673.237	4900.79
673.428	4747.19
673.619	4691.9
673.809	4695.99
674	4652.99
674.191	4538.3
674.382	4546.49
674.573	4636.6
674.764	4579.26
674.954	4515.77
675.145	4480.96
675.336	4464.57
675.527	4452.28
675.717	4548.54
675.908	4446.14
676.099	4571.07
676.289	4444.09
676.48	4474.81
676.671	4335.55
676.861	4310.97
677.052	4229.06
677.243	4405.18
677.433	4390.85
677.624	4380.61
677.814	4128.71
678.005	4327.36
678.195	4347.84
678.386	4343.74
678.576	4294.59
678.767	4327.36
678.957	4188.1
679.148	4298.69
679.338	4227.01
679.529	4106.18
679.719	4159.42
679.909	4102.08
680.1	4048.83
680.29	4016.07
680.481	4034.5
680.671	4143.04
680.861	4011.97
681.052	4054.98
681.242	4040.64
681.432	4020.16
681.622	3903.43
681.813	3893.19
682.003	4089.79
682.193	3925.96
682.383	3852.23
682.573	3891.14
682.764	3782.6
682.954	3837.89
683.144	3801.03
683.334	3813.32
683.524	3719.11
683.714	3889.09
683.904	3784.65
684.094	3721.16
684.284	3710.92
684.474	3827.65
684.664	3798.98
684.854	3803.08
685.044	3819.46
685.234	3532.75
685.424	3747.78
685.614	3731.4
685.804	3723.21
685.994	3596.23
686.184	3678.15
686.374	3561.42
686.564	3542.99
686.753	3526.6
686.943	3479.5
687.133	3559.37
687.323	3483.59
687.513	3512.27
687.702	3418.06
687.892	3442.64
688.082	3504.07
688.272	3549.13
688.461	3338.19
688.651	3436.49
688.841	3381.2
689.03	3289.04
689.22	3270.61
689.41	3401.68
689.599	3227.6
689.789	3340.24
689.979	3428.3
690.168	3379.15
690.358	3280.85
690.547	3252.17
690.737	3180.5
690.926	3334.09
691.116	3217.36
691.305	3110.86
691.495	3205.07
691.684	3209.17
691.874	3270.61
692.063	3041.23
692.252	3162.06
692.442	3151.82
692.631	3217.36
692.82	3100.62
693.01	3094.48
693.199	3008.47
693.388	3006.42
693.578	3051.47
693.767	3061.71
693.956	3069.91
694.146	3090.38
694.335	2994.13
694.524	2996.18
694.713	2983.89
694.902	2992.08
695.092	2987.99
695.281	2971.6
695.47	3151.82
695.659	2934.74
695.848	2961.36
696.037	2906.07
696.226	2889.68
696.415	2834.39
696.604	2922.45
696.793	2895.83
696.982	2906.07
697.171	2955.22
697.36	2906.07
697.549	2789.33
697.738	2811.86
697.927	2723.8
698.116	2934.74
698.305	2832.34
698.494	2844.63
698.683	2959.31
698.872	2840.53
699.061	2809.81
699.25	2949.08
699.438	2889.68
699.627	2789.33
699.816	2852.82
700.005	2676.7
700.193	2873.3
700.382	2766.81
700.571	2768.85
700.76	2793.43
700.948	2813.91
701.137	2826.2
701.326	2813.91
701.514	2871.25
701.703	2932.69
701.892	2686.94
702.08	2828.24
702.269	2813.91
702.457	2699.22
702.646	2828.24
702.834	2613.21
703.023	2742.23
703.212	2836.44
703.4	2830.29
703.589	2697.17
703.777	2787.29
703.965	2715.61
704.154	2848.72
704.342	2699.22
704.531	2693.08
704.719	2783.19
704.907	2680.79
705.096	2721.75
705.284	2734.04
705.472	2701.27
705.661	2772.95
705.849	2559.96
706.037	2744.28
706.226	2701.27
706.414	2736.09
706.602	2652.12
706.79	2635.74
706.979	2742.23
707.167	2719.7
707.355	2559.96
707.543	2568.15
707.731	2594.78
707.919	2863.06
708.107	2574.3
708.296	2611.16
708.484	2543.58
708.672	2605.02
708.86	2748.37
709.048	2742.23
709.236	2664.41
709.424	2736.09
709.612	2682.84
709.8	2553.82
709.988	2682.84
710.176	2521.05
710.364	2627.54
710.551	2725.85
710.739	2615.26
710.927	2584.54
711.115	2664.41
711.303	2627.54
711.491	2428.89
711.679	2609.11
711.866	2586.58
712.054	2582.49
712.242	2551.77
712.43	2592.73
712.617	2658.26
712.805	2545.63
712.993	2592.73
713.181	2453.47
713.368	2527.19
713.556	2557.91
713.744	2574.3
713.931	2539.48
714.119	2504.67
714.306	2504.67
714.494	2570.2
714.682	2668.5
714.869	2555.87
715.057	2471.9
715.244	2551.77
715.432	2672.6
715.619	2566.1
715.807	2459.61
715.994	2555.87
716.182	2461.66
716.369	2662.36
716.556	2537.43
716.744	2451.42
716.931	2422.75
717.119	2516.95
717.306	2566.1
717.493	2488.28
717.681	2435.03
717.868	2488.28
718.055	2426.84
718.242	2432.99
718.43	2373.6
718.617	2502.62
718.804	2486.23
718.991	2447.32
719.179	2605.02
719.366	2516.95
719.553	2443.23
719.74	2383.84
719.927	2385.88
720.114	2443.23
720.301	2365.4
720.488	2404.32
720.676	2383.84
720.863	2369.5
721.05	2465.75
721.237	2338.78
721.424	2590.68
721.611	2430.94
721.798	2338.78
721.985	2373.6
722.172	2369.5
722.358	2398.17
722.545	2320.35
722.732	2357.21
722.919	2387.93
723.106	2445.27
723.293	2394.08
723.48	2394.08
723.667	2342.88
723.853	2230.24
724.04	2437.08
724.227	2443.23
724.414	2322.4
724.6	2340.83
724.787	2365.4
724.974	2381.79
725.161	2291.68
725.347	2324.44
725.534	2299.87
725.72	2303.96
725.907	2412.51
726.094	2316.25
726.28	2334.68
726.467	2254.81
726.653	2365.4
726.84	2359.26
727.027	2424.8
727.213	2265.05
727.4	2312.16
727.586	2275.29
727.773	2336.73
727.959	2357.21
728.145	2361.31
728.332	2406.36
728.518	2258.91
728.705	2365.4
728.891	2158.56
729.077	2211.81
729.264	2283.49
729.45	2275.29
729.636	2250.72
729.823	2308.06
730.009	2353.12
730.195	2244.57
730.382	2220
730.568	2334.68
730.754	2234.33
730.94	2105.31
731.126	2310.11
731.313	2197.47
731.499	2279.39
731.685	2248.67
731.871	2263.01
732.057	2295.77
732.243	2271.2
732.429	2187.23
732.615	2289.63
732.801	2318.3
732.987	2222.05
733.173	2301.92
733.359	2230.24
733.545	2156.51
733.731	2168.8
733.917	2176.99
734.103	2179.04
734.289	2164.7
734.475	2176.99
734.661	2234.33
734.847	2232.29
735.033	2252.77
735.219	2160.61
735.404	2183.13
735.59	2199.52
735.776	1990.63
735.962	2093.02
736.148	2244.57
736.333	2140.13
736.519	2162.66
736.705	2197.47
736.89	2115.55
737.076	2152.42
737.262	2023.39
737.447	2156.51
737.633	2095.07
737.819	2152.42
738.004	2127.84
738.19	2033.63
738.375	2000.87
738.561	2084.83
738.747	2009.06
738.932	2156.51
739.118	2043.87
739.303	2072.54
739.489	2035.68
739.674	1994.72
739.859	2076.64
740.045	2004.96
740.23	2070.5
740.416	1890.28
740.601	2000.87
740.786	2025.44
740.972	1912.8
741.157	1929.19
741.342	1916.9
741.528	2078.69
741.713	1914.85
741.898	2009.06
742.084	1982.43
742.269	1943.52
742.454	2000.87
742.639	1877.99
742.824	1904.61
743.01	1816.55
743.195	1890.28
743.38	1927.14
743.565	1968.1
743.75	1920.99
743.935	1830.88
744.12	1837.03
744.305	1804.26
744.49	1804.26
744.675	1794.02
744.86	1834.98
745.045	1863.65
745.23	1875.94
745.415	1802.21
745.6	1736.68
745.785	1695.72
745.97	1742.82
746.155	1722.34
746.34	1742.82
746.525	1810.4
746.71	1746.92
746.895	1624.04
747.079	1736.68
747.264	1656.81
747.449	1765.35
747.634	1716.2
747.819	1765.35
748.003	1720.29
748.188	1585.13
748.373	1673.19
748.557	1570.79
748.742	1603.56
748.927	1718.25
749.111	1533.93
749.296	1683.43
749.481	1595.37
749.665	1554.41
749.85	1685.48
750.034	1566.7
750.219	1681.38
750.404	1538.02
750.588	1556.46
750.773	1490.92
750.957	1550.31
751.141	1568.74
751.326	1538.02
751.51	1517.54
751.695	1447.91
751.879	1437.67
752.064	1581.03
752.248	1435.63
752.432	1433.58
752.617	1378.28
752.801	1486.83
752.985	1398.76
753.17	1394.67
753.354	1406.95
753.538	1423.34
753.722	1400.81
753.907	1380.33
754.091	1339.37
754.275	1374.19
754.459	1359.85
754.643	1370.09
754.828	1269.74
755.012	1298.41
755.196	1265.64
755.38	1308.65
755.564	1265.64
755.748	1224.69
755.932	1282.03
756.116	1255.4
756.3	1320.94
756.484	1226.73
756.668	1327.08
756.852	1230.83
757.036	1187.82
757.22	1275.88
757.404	1226.73
757.588	1257.45
757.772	1284.08
757.956	1140.72
758.14	1169.39
758.323	1189.87
758.507	1177.58
758.691	1132.53
758.875	1161.2
759.059	1124.33
759.242	1202.16
759.426	1177.58
759.61	1136.62
759.794	1173.49
759.977	1062.9
760.161	1120.24
760.345	1073.14
760.528	1015.79
760.712	1021.94
760.895	1142.77
761.079	1023.98
761.263	1093.62
761.446	1101.81
761.63	1138.67
761.813	1097.71
761.997	1038.32
762.18	1013.74
762.364	1044.46
762.547	1081.33
762.731	956.4
762.914	989.17
763.098	958.45
763.281	1017.84
763.464	989.17
763.648	989.17
763.831	985.07
764.015	1052.66
764.198	1042.42
764.381	978.93
764.564	1001.46
764.748	974.83
764.931	1071.09
765.114	976.88
765.297	976.88
765.481	989.17
765.664	901.11
765.847	886.77
766.03	1001.46
766.213	1044.46
766.397	958.45
766.58	923.63
766.763	940.02
766.946	1044.46
767.129	907.25
767.312	993.26
767.495	907.25
767.678	923.63
767.861	821.24
768.044	886.77
768.227	892.91
768.41	899.06
768.593	897.01
768.776	913.39
768.959	804.85
769.142	931.83
769.324	884.72
769.507	882.67
769.69	886.77
769.873	905.2
770.056	899.06
770.239	876.53
770.421	841.72
770.604	899.06
770.787	831.48
770.97	856.05
771.152	804.85
771.335	862.19
771.518	772.08
771.7	876.53
771.883	823.28
772.066	874.48
772.248	901.11
772.431	786.42
772.613	802.8
772.796	815.09
772.978	774.13
773.161	835.57
773.343	786.42
773.526	739.32
773.708	743.41
773.891	815.09
774.073	755.7
774.256	858.1
774.438	716.79
774.621	720.89
774.803	757.75
774.985	733.17
775.168	835.57
775.35	724.98
775.532	790.52
775.715	774.13
775.897	835.57
776.079	638.97
776.261	743.41
776.444	729.08
776.626	702.45
776.808	722.93
776.99	704.5
777.173	700.41
777.355	722.93
777.537	649.21
777.719	724.98
777.901	630.77
778.083	606.2
778.265	679.93
778.447	698.36
778.629	622.58
778.811	729.08
778.993	581.62
779.175	636.92
779.357	653.3
779.539	561.14
779.721	641.01
779.903	563.19
780.085	577.53
780.267	595.96
780.449	620.53
780.631	573.43
780.812	624.63
780.994	600.05
781.176	657.4
781.358	690.17
781.54	589.82
781.721	548.86
781.903	591.86
782.085	552.95
782.267	489.46
782.448	606.2
782.63	624.63
782.812	579.58
782.993	608.25
783.175	464.89
783.357	561.14
783.538	471.03
783.72	571.38
783.901	516.09
784.083	487.42
784.264	520.18
784.446	452.6
784.627	499.7
784.809	423.93
784.99	565.24
785.172	464.89
785.353	438.27
785.535	561.14
785.716	497.66
785.897	409.59
786.079	423.93
786.26	446.46
786.441	434.17
786.623	423.93
786.804	428.03
786.985	518.14
787.167	501.75
787.348	358.39
787.529	423.93
787.71	436.22
787.891	468.98
788.073	440.31
788.254	438.27
788.435	407.55
788.616	509.94
788.797	479.22
788.978	344.06
789.159	380.92
789.34	325.63
789.522	446.46
789.703	403.45
789.884	460.79
790.065	411.64
790.246	342.01
790.427	374.78
790.607	393.21
790.788	385.02
790.969	327.68
791.15	391.16
791.331	395.26
791.512	380.92
791.693	327.68
791.874	372.73
792.054	335.87
792.235	395.26
792.416	358.39
792.597	315.39
792.778	356.35
792.958	380.92
793.139	284.67
793.32	364.54
793.5	309.24
793.681	442.36
793.862	391.16
794.042	399.35
794.223	241.66
794.404	313.34
794.584	309.24
794.765	286.72
794.945	342.01
795.126	309.24
795.306	303.1
795.487	294.91
795.667	276.48
795.848	292.86
796.028	323.58
796.209	305.15
796.389	253.95
796.57	280.57
796.75	339.96
796.93	366.59
797.111	323.58
797.291	284.67
797.471	274.43
797.652	286.72
797.832	307.2
798.012	286.72
798.192	231.42
798.373	251.9
798.553	243.71
798.733	256
798.913	288.76
799.093	280.57
799.274	266.24
799.454	352.25
799.634	278.52
799.814	219.13
799.994	282.62
800.174	305.15
800.354	235.52
800.534	290.81
800.714	262.14
800.894	276.48
801.074	194.56
801.254	266.24
801.434	317.44
801.614	208.89
801.794	329.72
801.974	696.31
802.154	233.47
802.334	243.71
802.514	186.37
802.693	223.23
802.873	247.8
803.053	217.08
803.233	235.52
803.413	260.09
803.592	266.24
803.772	245.76
803.952	245.76
804.131	264.19
804.311	274.43
804.491	215.04
804.67	270.33
804.85	223.23
805.03	229.37
805.209	344.06
805.389	231.42
805.568	235.52
805.748	247.8
805.928	210.94
806.107	235.52
806.287	237.56
806.466	239.61
806.646	223.23
806.825	135.17
807.004	167.93
807.184	294.91
807.363	231.42
807.543	192.51
807.722	231.42
807.901	221.18
808.081	180.22
808.26	145.41
808.439	184.32
808.619	180.22
808.798	172.03
808.977	159.74
809.156	237.56
809.336	204.8
809.515	182.27
809.694	139.26
809.873	215.04
810.052	167.93
810.231	182.27
810.411	194.56
810.59	219.13
810.769	137.21
810.948	141.31
811.127	200.7
811.306	106.49
811.485	120.83
811.664	243.71
811.843	188.41
812.022	202.75
812.201	237.56
812.38	247.8
812.559	184.32
812.737	165.89
812.916	131.07
813.095	219.13
813.274	188.41
813.453	161.79
813.632	155.65
813.811	139.26
813.989	198.65
814.168	139.26
814.347	149.5
814.526	149.5
814.704	215.04
814.883	165.89
815.062	81.92
815.24	221.18
815.419	90.11
815.598	172.03
815.776	131.07
815.955	88.06
816.133	147.45
816.312	155.65
816.49	182.27
816.669	147.45
816.847	221.18
817.026	88.06
817.204	69.63
817.383	120.83
817.561	102.4
817.74	157.69
817.918	149.5
818.097	169.98
818.275	116.73
818.453	194.56
818.632	139.26
818.81	106.49
818.988	161.79
819.167	135.17
819.345	151.55
819.523	178.17
819.701	40.96
819.879	96.25
820.058	118.78
820.236	96.25
820.414	137.21
820.592	143.36
820.77	143.36
820.948	86.01
821.127	104.45
821.305	124.93
821.483	141.31
821.661	83.97
821.839	126.97
822.017	51.2
822.195	104.45
822.373	129.02
822.551	106.49
822.729	141.31
822.907	120.83
823.085	149.5
823.262	169.98
823.44	71.68
823.618	153.6
823.796	71.68
823.974	32.77
824.152	86.01
824.329	94.21
824.507	75.77
824.685	133.12
824.863	96.25
825.04	92.16
825.218	159.74
825.396	120.83
825.574	157.69
825.751	116.73
825.929	108.54
826.107	63.49
826.284	88.06
826.462	118.78
826.639	38.91
826.817	88.06
826.994	137.21
827.172	73.73
827.349	110.59
827.527	34.82
827.704	112.64
827.882	104.45
828.059	81.92
828.237	34.82
828.414	51.2
828.591	77.82
828.769	26.62
828.946	73.73
829.124	98.3
829.301	116.73
829.478	104.45
829.655	116.73
829.833	90.11
830.01	98.3
830.187	77.82
830.364	61.44
830.542	65.54
830.719	176.13
830.896	161.79
831.073	100.35
831.25	122.88
831.427	141.31
831.604	73.73
831.782	61.44
831.959	96.25
832.136	83.97
832.313	100.35
832.49	106.49
832.667	120.83
832.844	55.3
833.021	94.21
833.198	129.02
833.374	167.93
833.551	67.58
833.728	75.77
833.905	73.73
834.082	98.3
834.259	73.73
834.436	122.88
834.612	67.58
834.789	110.59
834.966	36.86
835.143	116.73
835.319	45.06
835.496	45.06
835.673	59.39
835.85	61.44
836.026	86.01
836.203	88.06
836.38	69.63
836.556	49.15
836.733	77.82
836.909	131.07
837.086	141.31
837.262	43.01
837.439	94.21
837.616	137.21
837.792	30.72
837.968	2.05
838.145	69.63
838.321	92.16
838.498	92.16
838.674	40.96
838.851	71.68
839.027	79.87
839.203	45.06
839.38	98.3
839.556	36.86
839.732	106.49
839.909	104.45
840.085	120.83
840.261	51.2
840.437	104.45
840.614	43.01
840.79	81.92
840.966	118.78
841.142	149.5
841.318	71.68
841.494	47.1
841.671	88.06
841.847	61.44
842.023	141.31
842.199	92.16
842.375	90.11
842.551	-26.62
842.727	26.62
842.903	94.21
843.079	14.34
843.255	63.49
843.431	47.1
843.607	53.25
843.783	-18.43
843.959	28.67
844.134	34.82
844.31	22.53
844.486	10.24
844.662	100.35
844.838	43.01
845.013	49.15
845.189	67.58
845.365	45.06
845.541	63.49
845.716	65.54
845.892	55.3
846.068	92.16
846.244	38.91
846.419	108.54
846.595	47.1
846.77	43.01
846.946	36.86
847.122	114.69
847.297	49.15
847.473	45.06
847.648	-6.14
847.824	67.58
847.999	28.67
848.175	81.92
848.35	118.78
848.526	77.82
848.701	92.16
848.876	135.17
849.052	92.16
849.227	34.82
849.403	-4.1
849.578	61.44
849.753	79.87
849.929	98.3
850.104	4.1
850.279	75.77
850.454	6.14
850.63	34.82
850.805	71.68
850.98	75.77
851.155	28.67
851.33	73.73
851.505	-2.05
851.681	98.3
851.856	4.1
852.031	57.34
852.206	100.35
852.381	45.06
852.556	6.14
852.731	92.16
852.906	67.58
853.081	77.82
853.256	40.96
853.431	32.77
853.606	94.21
853.781	77.82
853.956	26.62
854.131	36.86
854.305	18.43
854.48	67.58
854.655	40.96
854.83	75.77
855.005	-20.48
855.18	38.91
855.354	-14.34
855.529	57.34
855.704	77.82
855.879	53.25
856.053	53.25
856.228	53.25
856.403	40.96
856.577	61.44
856.752	4.1
856.926	161.79
857.101	34.82
857.276	18.43
857.45	18.43
857.625	63.49
857.799	96.25
857.974	34.82
858.148	61.44
858.323	57.34
858.497	26.62
858.672	45.06
858.846	-14.34
859.02	14.34
859.195	-10.24
859.369	0
859.543	51.2
859.718	73.73
859.892	47.1
860.066	10.24
860.241	90.11
860.415	67.58
860.589	-24.58
860.763	49.15
860.938	79.87
861.112	96.25
861.286	-55.3
861.46	14.34
861.634	20.48
861.808	-10.24
861.982	45.06
862.157	2.05
862.331	47.1
862.505	43.01
862.679	36.86
862.853	77.82
863.027	24.58
863.201	14.34
863.375	16.38
863.549	28.67
863.722	34.82
863.896	-20.48
864.07	-47.1
864.244	45.06
864.418	79.87
864.592	-4.1
864.766	53.25
864.939	120.83
865.113	55.3
865.287	43.01
865.461	-14.34
865.634	22.53
865.808	51.2
865.982	55.3
866.156	22.53
866.329	51.2
866.503	26.62
866.676	47.1
866.85	28.67
867.024	-18.43
867.197	53.25
867.371	116.73
867.544	4.1
867.718	53.25
867.891	38.91
868.065	79.87
868.238	8.19
868.412	83.97
868.585	36.86
868.759	2.05
868.932	51.2
869.105	55.3
869.279	120.83
869.452	-10.24
869.625	51.2
869.799	32.77
869.972	43.01
870.145	110.59
870.319	32.77
870.492	-28.67
870.665	47.1
870.838	43.01
871.011	53.25
871.185	-14.34
871.358	6.14
871.531	57.34
871.704	55.3
871.877	112.64
872.05	73.73
872.223	49.15
872.396	71.68
872.569	6.14
872.742	20.48
872.915	-2.05
873.088	20.48
873.261	0
873.434	79.87
873.607	47.1
873.78	30.72
873.953	47.1
874.126	8.19
874.299	38.91
874.471	51.2
874.644	32.77
874.817	63.49
874.99	67.58
875.163	32.77
875.335	8.19
875.508	59.39
875.681	73.73
875.853	16.38
876.026	28.67
876.199	20.48
876.371	-30.72
876.544	30.72
876.717	-43.01
876.889	30.72
877.062	126.97
877.234	63.49
877.407	65.54
877.579	67.58
877.752	26.62
877.924	-38.91
878.097	12.29
878.269	-6.14
878.442	40.96
878.614	26.62
878.786	4.1
878.959	47.1
879.131	10.24
879.303	-28.67
879.476	12.29
879.648	34.82
879.82	47.1
879.993	79.87
880.165	24.58
880.337	-51.2
880.509	2.05
880.681	55.3
880.854	-26.62
881.026	-10.24
881.198	10.24
881.37	63.49
881.542	55.3
881.714	22.53
881.886	24.58
882.058	-14.34
882.23	34.82
882.402	-43.01
882.574	104.45
882.746	6.14
882.918	8.19
883.09	51.2
883.262	2.05
883.434	26.62
883.606	-18.43
883.778	14.34
883.95	81.92
884.122	10.24
884.293	24.58
884.465	24.58
884.637	-12.29
884.809	2.05
884.98	24.58
885.152	14.34
885.324	65.54
885.496	38.91
885.667	28.67
885.839	71.68
886.011	57.34
886.182	47.1
886.354	90.11
886.525	14.34
886.697	40.96
886.869	20.48
887.04	-8.19
887.212	55.3
887.383	10.24
887.555	96.25
887.726	51.2
887.897	4.1
888.069	90.11
888.24	2.05
888.412	28.67
888.583	40.96
888.754	26.62
888.926	-69.63
889.097	30.72
889.268	-28.67
889.44	-43.01
889.611	4.1
889.782	57.34
889.953	14.34
890.125	75.77
890.296	38.91
890.467	67.58
890.638	14.34
890.809	14.34
890.98	10.24
891.151	32.77
891.323	8.19
891.494	-14.34
891.665	26.62
891.836	38.91
892.007	34.82
892.178	2.05
892.349	22.53
892.52	14.34
892.691	40.96
892.862	51.2
893.032	10.24
893.203	24.58
893.374	-2.05
893.545	0
893.716	-40.96
893.887	18.43
894.057	-53.25
894.228	45.06
894.399	0
894.57	34.82
894.74	26.62
894.911	20.48
895.082	-40.96
895.253	73.73
895.423	63.49
895.594	18.43
895.764	45.06
895.935	22.53
896.106	24.58
896.276	43.01
896.447	-6.14
896.617	40.96
896.788	67.58
896.958	-24.58
897.129	-61.44
897.299	-73.73
897.47	59.39
897.64	4.1
897.81	-88.06
897.981	2.05
898.151	32.77
898.322	14.34
898.492	-32.77
898.662	24.58
898.832	26.62
899.003	-34.82
899.173	-51.2
899.343	-36.86
899.513	2.05
