Data from USB4F104151__241__11-11-24-231.txt Node

Date: Wed Mar 12 11:11:24 EDT 2025
User: louis
Spectrometer: USB4F10415
Trigger mode: 4
Integration Time (sec): 2.000000E-2
Scans to average: 1
Electric dark correction enabled: true
Nonlinearity correction enabled: false
Boxcar width: 0
XAxis mode: Wavelengths
Number of Pixels in Spectrum: 3648
>>>>>Begin Spectral Data<<<<<
178.204	-100.69
178.424	-100.69
178.644	-100.69
178.864	1.71
179.084	-98.64
179.304	-20.82
179.524	13.99
179.744	-37.2
179.964	20.14
180.184	-106.84
180.404	1.71
180.624	3.75
180.844	1.71
181.064	13.99
181.283	59.05
181.503	-2.39
181.723	52.91
181.943	11.95
182.163	100.01
182.383	-41.3
182.602	40.62
182.822	18.09
183.042	71.34
183.262	-14.68
183.482	7.85
183.701	-20.82
183.921	3.75
184.141	57
184.361	46.76
184.58	-29.01
184.8	73.39
185.02	34.47
185.239	114.34
185.459	-37.2
185.679	-8.53
185.898	22.19
186.118	50.86
186.338	85.67
186.557	85.67
186.777	24.23
186.997	77.48
187.216	-2.39
187.436	63.15
187.655	-6.49
187.875	77.48
188.095	42.67
188.314	-33.11
188.534	104.11
188.753	13.99
188.973	89.77
189.192	5.8
189.412	-10.58
189.631	-8.53
189.851	79.53
190.07	81.58
190.29	122.54
190.509	40.62
190.729	46.76
190.948	24.23
191.168	59.05
191.387	73.39
191.607	44.71
191.826	13.99
192.045	28.33
192.265	48.81
192.484	38.57
192.704	46.76
192.923	48.81
193.142	122.54
193.362	-24.92
193.581	89.77
193.8	75.43
194.02	24.23
194.239	11.95
194.458	18.09
194.678	40.62
194.897	34.47
195.116	34.47
195.335	83.63
195.555	-76.12
195.774	1.71
195.993	20.14
196.212	67.24
196.432	52.91
196.651	13.99
196.87	7.85
197.089	118.44
197.308	16.04
197.528	54.95
197.747	-10.58
197.966	-10.58
198.185	36.52
198.404	-12.63
198.623	-20.82
198.842	-6.49
199.062	30.38
199.281	79.53
199.5	24.23
199.719	110.25
199.938	63.15
200.157	110.25
200.376	24.23
200.595	44.71
200.814	34.47
201.033	65.19
201.252	36.52
201.471	81.58
201.69	13.99
201.909	126.63
202.128	-4.44
202.347	67.24
202.566	48.81
202.785	9.9
203.004	32.43
203.223	122.54
203.442	-18.77
203.661	32.43
203.879	57
204.098	44.71
204.317	71.34
204.536	18.09
204.755	67.24
204.974	16.04
205.193	34.47
205.411	40.62
205.63	-22.87
205.849	145.06
206.068	89.77
206.287	75.43
206.505	69.29
206.724	108.2
206.943	16.04
207.162	-20.82
207.381	28.33
207.599	-10.58
207.818	91.82
208.037	-6.49
208.255	1.71
208.474	59.05
208.693	-0.34
208.911	-45.4
209.13	44.71
209.349	50.86
209.567	38.57
209.786	83.63
210.005	34.47
210.223	54.95
210.442	52.91
210.661	59.05
210.879	24.23
211.098	46.76
211.316	28.33
211.535	73.39
211.753	32.43
211.972	-6.49
212.191	-2.39
212.409	22.19
212.628	13.99
212.846	93.87
213.065	42.67
213.283	110.25
213.502	75.43
213.72	36.52
213.938	75.43
214.157	-16.73
214.375	9.9
214.594	77.48
214.812	30.38
215.031	44.71
215.249	42.67
215.467	52.91
215.686	-2.39
215.904	151.21
216.122	91.82
216.341	57
216.559	-4.44
216.778	34.47
216.996	-12.63
217.214	50.86
217.432	24.23
217.651	-4.44
217.869	-4.44
218.087	73.39
218.306	57
218.524	42.67
218.742	-12.63
218.96	1.71
219.179	-2.39
219.397	50.86
219.615	42.67
219.833	11.95
220.051	-6.49
220.27	36.52
220.488	73.39
220.706	83.63
220.924	118.44
221.142	83.63
221.36	30.38
221.578	106.15
221.796	-14.68
222.015	22.19
222.233	-4.44
222.451	57
222.669	20.14
222.887	65.19
223.105	7.85
223.323	1.71
223.541	-63.83
223.759	20.14
223.977	-12.63
224.195	40.62
224.413	110.25
224.631	81.58
224.849	69.29
225.067	13.99
225.285	63.15
225.503	104.11
225.721	-20.82
225.939	-20.82
226.157	-12.63
226.375	75.43
226.592	-2.39
226.81	44.71
227.028	18.09
227.246	157.35
227.464	106.15
227.682	59.05
227.9	5.8
228.117	73.39
228.335	-10.58
228.553	40.62
228.771	24.23
228.989	-26.96
229.206	24.23
229.424	102.06
229.642	20.14
229.86	83.63
230.077	-16.73
230.295	54.95
230.513	71.34
230.731	57
230.948	97.96
231.166	16.04
231.384	-43.35
231.601	91.82
231.819	52.91
232.037	13.99
232.254	-14.68
232.472	59.05
232.689	77.48
232.907	106.15
233.125	-65.88
233.342	30.38
233.56	46.76
233.777	3.75
233.995	61.1
234.213	44.71
234.43	20.14
234.648	73.39
234.865	57
235.083	38.57
235.3	69.29
235.518	77.48
235.735	36.52
235.953	50.86
236.17	26.28
236.388	104.11
236.605	34.47
236.822	102.06
237.04	63.15
237.257	57
237.475	-22.87
237.692	48.81
237.909	69.29
238.127	59.05
238.344	-26.96
238.562	71.34
238.779	-41.3
238.996	44.71
239.214	26.28
239.431	85.67
239.648	-6.49
239.865	83.63
240.083	44.71
240.3	1.71
240.517	34.47
240.735	36.52
240.952	-22.87
241.169	120.49
241.386	83.63
241.603	-51.54
241.821	97.96
242.038	50.86
242.255	28.33
242.472	28.33
242.689	85.67
242.907	16.04
243.124	13.99
243.341	28.33
243.558	69.29
243.775	3.75
243.992	-33.11
244.209	65.19
244.426	130.73
244.643	67.24
244.86	85.67
245.078	-0.34
245.295	18.09
245.512	40.62
245.729	40.62
245.946	124.58
246.163	67.24
246.38	24.23
246.597	-0.34
246.814	30.38
247.031	48.81
247.248	143.02
247.464	42.67
247.681	73.39
247.898	85.67
248.115	102.06
248.332	-29.01
248.549	75.43
248.766	110.25
248.983	13.99
249.2	112.3
249.417	65.19
249.633	81.58
249.85	85.67
250.067	3.75
250.284	42.67
250.501	126.63
250.717	59.05
250.934	-0.34
251.151	73.39
251.368	77.48
251.585	75.43
251.801	57
252.018	9.9
252.235	32.43
252.451	-4.44
252.668	71.34
252.885	69.29
253.102	-20.82
253.318	87.72
253.535	67.24
253.752	-20.82
253.968	28.33
254.185	44.71
254.401	85.67
254.618	46.76
254.835	18.09
255.051	-0.34
255.268	61.1
255.484	63.15
255.701	-39.25
255.917	34.47
256.134	11.95
256.351	34.47
256.567	20.14
256.784	34.47
257	-8.53
257.217	91.82
257.433	95.91
257.65	34.47
257.866	112.3
258.082	11.95
258.299	13.99
258.515	5.8
258.732	32.43
258.948	24.23
259.165	5.8
259.381	65.19
259.597	40.62
259.814	36.52
260.03	59.05
260.246	48.81
260.463	5.8
260.679	106.15
260.895	44.71
261.112	30.38
261.328	97.96
261.544	46.76
261.761	77.48
261.977	36.52
262.193	-26.96
262.409	50.86
262.626	77.48
262.842	79.53
263.058	112.3
263.274	67.24
263.49	52.91
263.707	102.06
263.923	93.87
264.139	-24.92
264.355	26.28
264.571	13.99
264.787	44.71
265.004	22.19
265.22	32.43
265.436	54.95
265.652	-20.82
265.868	110.25
266.084	-45.4
266.3	28.33
266.516	-57.68
266.732	50.86
266.948	16.04
267.164	104.11
267.38	145.06
267.596	22.19
267.812	95.91
268.028	40.62
268.244	71.34
268.46	-2.39
268.676	59.05
268.892	40.62
269.108	-6.49
269.324	34.47
269.54	24.23
269.756	85.67
269.972	20.14
270.188	54.95
270.403	20.14
270.619	11.95
270.835	3.75
271.051	151.21
271.267	54.95
271.483	-49.49
271.698	32.43
271.914	9.9
272.13	91.82
272.346	46.76
272.562	61.1
272.777	11.95
272.993	18.09
273.209	42.67
273.425	13.99
273.64	-33.11
273.856	52.91
274.072	67.24
274.287	-16.73
274.503	57
274.719	130.73
274.934	-10.58
275.15	-4.44
275.366	108.2
275.581	-2.39
275.797	104.11
276.012	32.43
276.228	77.48
276.444	36.52
276.659	89.77
276.875	36.52
277.09	48.81
277.306	36.52
277.521	52.91
277.737	38.57
277.952	46.76
278.168	57
278.383	24.23
278.599	116.39
278.814	34.47
279.03	83.63
279.245	93.87
279.461	26.28
279.676	118.44
279.892	-16.73
280.107	-8.53
280.322	48.81
280.538	34.47
280.753	63.15
280.969	85.67
281.184	-18.77
281.399	116.39
281.615	44.71
281.83	18.09
282.045	-22.87
282.26	48.81
282.476	57
282.691	104.11
282.906	91.82
283.122	57
283.337	11.95
283.552	102.06
283.767	-16.73
283.983	-2.39
284.198	20.14
284.413	104.11
284.628	46.76
284.843	87.72
285.058	40.62
285.274	26.28
285.489	50.86
285.704	34.47
285.919	63.15
286.134	50.86
286.349	20.14
286.564	83.63
286.779	20.14
286.995	97.96
287.21	50.86
287.425	-6.49
287.64	28.33
287.855	38.57
288.07	-31.06
288.285	44.71
288.5	81.58
288.715	114.34
288.93	54.95
289.145	-33.11
289.36	124.58
289.575	57
289.79	48.81
290.004	52.91
290.219	100.01
290.434	61.1
290.649	9.9
290.864	44.71
291.079	67.24
291.294	7.85
291.509	44.71
291.724	18.09
291.938	67.24
292.153	7.85
292.368	36.52
292.583	46.76
292.798	11.95
293.012	57
293.227	57
293.442	38.57
293.657	79.53
293.871	36.52
294.086	81.58
294.301	65.19
294.516	79.53
294.73	38.57
294.945	71.34
295.16	26.28
295.374	61.1
295.589	89.77
295.804	30.38
296.018	38.57
296.233	59.05
296.447	69.29
296.662	34.47
296.877	-0.34
297.091	20.14
297.306	-29.01
297.52	57
297.735	5.8
297.949	20.14
298.164	89.77
298.378	1.71
298.593	50.86
298.807	52.91
299.022	83.63
299.236	26.28
299.451	46.76
299.665	32.43
299.88	57
300.094	69.29
300.309	69.29
300.523	114.34
300.737	65.19
300.952	48.81
301.166	120.49
301.381	104.11
301.595	11.95
301.809	73.39
302.024	116.39
302.238	46.76
302.452	87.72
302.667	36.52
302.881	108.2
303.095	20.14
303.309	63.15
303.524	57
303.738	73.39
303.952	5.8
304.166	79.53
304.381	48.81
304.595	11.95
304.809	-16.73
305.023	26.28
305.237	36.52
305.452	32.43
305.666	69.29
305.88	61.1
306.094	122.54
306.308	97.96
306.522	102.06
306.736	26.28
306.95	124.58
307.164	114.34
307.379	24.23
307.593	7.85
307.807	83.63
308.021	52.91
308.235	97.96
308.449	22.19
308.663	81.58
308.877	34.47
309.091	36.52
309.305	136.87
309.519	28.33
309.733	28.33
309.947	3.75
310.161	32.43
310.374	63.15
310.588	145.06
310.802	110.25
311.016	69.29
311.23	44.71
311.444	34.47
311.658	48.81
311.872	83.63
312.085	128.68
312.299	73.39
312.513	26.28
312.727	59.05
312.941	63.15
313.154	34.47
313.368	38.57
313.582	95.91
313.796	-33.11
314.009	77.48
314.223	71.34
314.437	38.57
314.651	44.71
314.864	50.86
315.078	61.1
315.292	52.91
315.505	114.34
315.719	75.43
315.933	54.95
316.146	79.53
316.36	-8.53
316.573	91.82
316.787	63.15
317.001	57
317.214	128.68
317.428	16.04
317.641	-6.49
317.855	81.58
318.068	38.57
318.282	24.23
318.495	126.63
318.709	16.04
318.922	118.44
319.136	73.39
319.349	85.67
319.563	83.63
319.776	104.11
319.99	-18.77
320.203	-4.44
320.417	100.01
320.63	100.01
320.843	112.3
321.057	61.1
321.27	30.38
321.483	50.86
321.697	85.67
321.91	9.9
322.124	11.95
322.337	20.14
322.55	52.91
322.763	67.24
322.977	61.1
323.19	32.43
323.403	122.54
323.617	28.33
323.83	50.86
324.043	61.1
324.256	32.43
324.469	83.63
324.683	20.14
324.896	34.47
325.109	69.29
325.322	1.71
325.535	83.63
325.748	16.04
325.962	40.62
326.175	34.47
326.388	44.71
326.601	63.15
326.814	71.34
327.027	89.77
327.24	100.01
327.453	28.33
327.666	5.8
327.879	122.54
328.092	132.78
328.305	28.33
328.518	65.19
328.731	-8.53
328.944	128.68
329.157	22.19
329.37	104.11
329.583	124.58
329.796	102.06
330.009	24.23
330.222	30.38
330.435	75.43
330.648	122.54
330.861	-0.34
331.073	61.1
331.286	63.15
331.499	67.24
331.712	1.71
331.925	-35.16
332.138	22.19
332.35	52.91
332.563	-26.96
332.776	40.62
332.989	77.48
333.202	38.57
333.414	11.95
333.627	79.53
333.84	77.48
334.053	20.14
334.265	52.91
334.478	26.28
334.691	44.71
334.903	-22.87
335.116	40.62
335.329	71.34
335.541	112.3
335.754	97.96
335.966	50.86
336.179	87.72
336.392	24.23
336.604	7.85
336.817	38.57
337.029	48.81
337.242	22.19
337.454	75.43
337.667	44.71
337.88	63.15
338.092	22.19
338.305	91.82
338.517	50.86
338.729	57
338.942	100.01
339.154	-49.49
339.367	32.43
339.579	52.91
339.792	57
340.004	102.06
340.217	73.39
340.429	22.19
340.641	-22.87
340.854	32.43
341.066	75.43
341.278	67.24
341.491	28.33
341.703	40.62
341.915	52.91
342.128	95.91
342.34	44.71
342.552	75.43
342.764	102.06
342.977	93.87
343.189	77.48
343.401	5.8
343.613	24.23
343.826	69.29
344.038	63.15
344.25	73.39
344.462	69.29
344.674	67.24
344.886	69.29
345.099	32.43
345.311	85.67
345.523	61.1
345.735	20.14
345.947	67.24
346.159	89.77
346.371	26.28
346.583	69.29
346.795	87.72
347.007	-22.87
347.219	34.47
347.431	73.39
347.643	143.02
347.855	36.52
348.067	124.58
348.279	57
348.491	104.11
348.703	67.24
348.915	77.48
349.127	85.67
349.339	40.62
349.551	59.05
349.763	40.62
349.975	50.86
350.187	-2.39
350.399	32.43
350.61	77.48
350.822	63.15
351.034	61.1
351.246	57
351.458	44.71
351.669	85.67
351.881	73.39
352.093	102.06
352.305	11.95
352.517	100.01
352.728	38.57
352.94	13.99
353.152	52.91
353.363	9.9
353.575	198.31
353.787	-14.68
353.999	63.15
354.21	89.77
354.422	65.19
354.633	83.63
354.845	18.09
355.057	122.54
355.268	81.58
355.48	52.91
355.692	26.28
355.903	-37.2
356.115	63.15
356.326	59.05
356.538	3.75
356.749	114.34
356.961	140.97
357.172	61.1
357.384	75.43
357.595	108.2
357.807	83.63
358.018	-0.34
358.23	42.67
358.441	89.77
358.653	102.06
358.864	26.28
359.075	44.71
359.287	-6.49
359.498	77.48
359.709	34.47
359.921	87.72
360.132	-37.2
360.344	77.48
360.555	112.3
360.766	28.33
360.977	77.48
361.189	114.34
361.4	63.15
361.611	59.05
361.823	95.91
362.034	65.19
362.245	57
362.456	69.29
362.667	75.43
362.879	46.76
363.09	81.58
363.301	118.44
363.512	50.86
363.723	61.1
363.935	128.68
364.146	108.2
364.357	71.34
364.568	57
364.779	81.58
364.99	100.01
365.201	54.95
365.412	71.34
365.623	63.15
365.834	112.3
366.045	48.81
366.256	44.71
366.467	7.85
366.678	89.77
366.889	157.35
367.1	42.67
367.311	124.58
367.522	89.77
367.733	118.44
367.944	132.78
368.155	50.86
368.366	102.06
368.577	165.54
368.788	57
368.999	73.39
369.209	61.1
369.42	79.53
369.631	42.67
369.842	100.01
370.053	87.72
370.264	77.48
370.474	143.02
370.685	20.14
370.896	89.77
371.107	54.95
371.317	108.2
371.528	-2.39
371.739	69.29
371.95	34.47
372.16	16.04
372.371	89.77
372.582	108.2
372.792	67.24
373.003	143.02
373.214	79.53
373.424	30.38
373.635	102.06
373.846	85.67
374.056	116.39
374.267	-29.01
374.477	132.78
374.688	149.16
374.898	3.75
375.109	26.28
375.319	50.86
375.53	85.67
375.74	79.53
375.951	63.15
376.161	165.54
376.372	54.95
376.582	-6.49
376.793	9.9
377.003	38.57
377.214	44.71
377.424	50.86
377.635	122.54
377.845	91.82
378.055	93.87
378.266	-12.63
378.476	83.63
378.686	122.54
378.897	1.71
379.107	77.48
379.317	81.58
379.528	59.05
379.738	44.71
379.948	34.47
380.158	57
380.369	50.86
380.579	145.06
380.789	18.09
380.999	128.68
381.21	69.29
381.42	118.44
381.63	91.82
381.84	159.4
382.05	71.34
382.261	153.26
382.471	89.77
382.681	114.34
382.891	143.02
383.101	83.63
383.311	75.43
383.521	100.01
383.731	44.71
383.941	106.15
384.151	85.67
384.361	102.06
384.571	65.19
384.781	108.2
384.991	93.87
385.201	116.39
385.411	36.52
385.621	57
385.831	48.81
386.041	77.48
386.251	75.43
386.461	20.14
386.671	73.39
386.881	116.39
387.091	34.47
387.301	7.85
387.511	69.29
387.72	106.15
387.93	57
388.14	30.38
388.35	81.58
388.56	132.78
388.769	73.39
388.979	85.67
389.189	50.86
389.399	83.63
389.609	120.49
389.818	118.44
390.028	30.38
390.238	116.39
390.447	81.58
390.657	163.5
390.867	77.48
391.076	89.77
391.286	57
391.496	95.91
391.705	100.01
391.915	97.96
392.125	104.11
392.334	83.63
392.544	38.57
392.753	52.91
392.963	91.82
393.172	106.15
393.382	18.09
393.591	155.3
393.801	132.78
394.01	112.3
394.22	120.49
394.429	77.48
394.639	73.39
394.848	93.87
395.058	124.58
395.267	89.77
395.477	63.15
395.686	116.39
395.895	44.71
396.105	102.06
396.314	151.21
396.524	110.25
396.733	40.62
396.942	134.82
397.152	100.01
397.361	83.63
397.57	93.87
397.78	97.96
397.989	63.15
398.198	169.64
398.407	106.15
398.617	106.15
398.826	132.78
399.035	124.58
399.244	140.97
399.453	143.02
399.663	95.91
399.872	69.29
400.081	153.26
400.29	237.22
400.499	75.43
400.708	132.78
400.917	143.02
401.127	194.22
401.336	120.49
401.545	173.74
401.754	167.59
401.963	161.45
402.172	118.44
402.381	106.15
402.59	206.5
402.799	167.59
403.008	149.16
403.217	165.54
403.426	163.5
403.635	167.59
403.844	159.4
404.053	222.89
404.262	171.69
404.471	216.74
404.68	171.69
404.888	194.22
405.097	220.84
405.306	183.98
405.515	243.37
405.724	288.42
405.933	208.55
406.142	263.85
406.35	208.55
406.559	278.18
406.768	269.99
406.977	274.09
407.185	231.08
407.394	226.98
407.603	251.56
407.812	306.85
408.02	300.71
408.229	317.09
408.438	290.47
408.646	220.84
408.855	280.23
409.064	360.1
409.272	296.61
409.481	378.53
409.69	306.85
409.898	405.16
410.107	331.43
410.315	341.67
410.524	439.97
410.733	413.35
410.941	413.35
411.15	437.92
411.358	579.23
411.567	485.03
411.775	493.22
411.984	444.07
412.192	485.03
412.401	579.23
412.609	546.47
412.818	538.27
413.026	505.51
413.234	540.32
413.443	601.76
413.651	601.76
413.86	597.67
414.068	691.87
414.276	771.74
414.485	720.54
414.693	724.64
414.901	812.7
415.11	784.03
415.318	790.17
415.526	892.57
415.734	894.62
415.943	775.84
416.151	1035.93
416.359	943.77
416.567	1005.21
416.776	1021.6
416.984	1080.99
417.192	1087.13
417.4	1224.34
417.608	1117.85
417.817	1277.59
418.025	1396.37
418.233	1259.16
418.441	1310.36
418.649	1369.75
418.857	1390.23
419.065	1511.06
419.273	1455.76
419.481	1619.6
419.689	1678.99
419.897	1689.23
420.105	1789.58
420.313	1742.48
420.521	1879.69
420.729	1902.22
420.937	1902.22
421.145	2027.15
421.353	2154.12
421.561	2078.35
421.769	2328.2
421.977	2285.19
422.185	2401.93
422.393	2555.52
422.601	2637.44
422.809	2489.99
423.017	2696.83
423.224	2862.72
423.432	2860.67
423.64	2954.88
423.848	3157.63
424.056	3032.7
424.263	3389.05
424.471	3247.74
424.679	3337.85
424.887	3577.46
425.094	3712.63
425.302	3638.9
425.51	3763.83
425.718	3894.9
425.925	4048.49
426.133	4085.36
426.341	4292.2
426.548	4497
426.756	4410.98
426.964	4406.89
427.171	4820.58
427.379	5121.63
427.586	4974.17
427.794	5121.63
428.001	5279.32
428.209	5662.29
428.417	5537.37
428.624	5981.78
428.832	6016.59
429.039	6051.41
429.247	5783.12
429.454	6313.55
429.662	6962.75
429.869	6518.34
430.076	6966.85
430.284	6794.82
430.491	6909.51
430.699	7411.26
430.906	7401.02
431.114	7474.74
431.321	7777.84
431.528	7968.31
431.736	8406.57
431.943	8797.73
432.15	8617.51
432.358	8678.95
432.565	9137.7
432.772	9039.39
432.979	9461.27
433.187	9704.98
433.394	9762.33
433.601	10464.78
433.808	10415.63
434.016	10444.3
434.223	10802.69
434.43	11435.52
434.637	11312.64
434.844	11783.67
435.052	12221.94
435.259	12197.36
435.466	12264.94
435.673	11951.6
435.88	12854.76
436.087	13559.26
436.294	13610.46
436.501	13022.69
436.708	13241.82
436.915	13895.13
437.122	14601.68
437.329	14687.69
437.537	14908.87
437.743	15275.46
437.95	15197.63
438.157	15879.61
438.364	16461.23
438.571	16180.66
438.778	16645.55
438.985	18097.56
439.192	17171.88
439.399	17878.43
439.606	17323.43
439.813	18423.19
440.02	19578.24
440.227	19178.89
440.433	18955.66
440.64	19774.84
440.847	19580.29
441.054	20118.9
441.261	21327.21
441.467	21312.87
441.674	21529.95
441.881	22396.24
442.088	22144.34
442.294	22154.58
442.501	22644.05
442.708	23522.63
442.914	23971.13
443.121	24745.27
443.328	24474.93
443.534	25853.22
443.741	25244.97
443.948	25068.84
444.154	26643.73
444.361	26713.36
444.568	26838.29
444.774	26705.17
444.981	27147.53
445.187	27831.55
445.394	29211.88
445.6	28472.57
445.807	31407.31
446.013	30051.55
446.22	30158.05
446.426	31497.42
446.633	31845.57
446.839	32951.48
447.046	31614.15
447.252	33563.82
447.459	33764.52
447.665	33313.97
447.871	34882.71
448.078	36138.12
448.284	34190.5
448.491	35204.24
448.697	36820.09
448.903	37280.88
449.11	37344.37
449.316	36787.32
449.522	37252.21
449.728	38501.47
449.935	39048.28
450.141	38304.87
450.347	39840.84
450.553	37745.77
450.76	38591.58
450.966	39634
451.172	39613.52
451.378	40184.9
451.584	39482.45
451.791	40506.43
451.997	40551.49
452.203	40977.47
452.409	40809.53
452.615	40653.89
452.821	38939.74
453.027	39203.92
453.233	41014.33
453.44	39388.24
453.646	39814.22
453.852	40041.54
454.058	40787
454.264	39119.96
454.47	40115.27
454.676	39076.95
454.882	40141.89
455.088	36861.05
455.294	37414
455.5	37655.66
455.705	38059.11
455.911	37028.98
456.117	36072.58
456.323	35628.17
456.529	33295.53
456.735	35116.18
456.941	33965.22
457.147	33518.76
457.352	32382.14
457.558	31980.74
457.764	32529.59
457.97	31591.62
458.176	30958.8
458.381	31036.63
458.587	29420.78
458.793	29439.21
458.999	27960.58
459.204	29834.47
459.41	29197.55
459.616	27231.5
459.821	26893.58
460.027	27114.76
460.233	26590.48
460.438	25232.68
460.644	25605.41
460.85	24583.48
461.055	23987.52
461.261	24126.78
461.466	21955.93
461.672	21300.58
461.878	23143.75
462.083	21609.82
462.289	21003.63
462.494	20974.95
462.7	20235.64
462.905	19406.21
463.111	20135.29
463.316	20247.93
463.522	19770.75
463.727	19938.68
463.932	19713.41
464.138	19549.57
464.343	19772.8
464.549	19002.76
464.754	19787.13
464.959	19709.31
465.165	19426.69
465.37	18769.29
465.575	18363.79
465.781	18810.25
465.986	19129.73
466.191	18283.92
466.397	17878.43
466.602	16965.03
466.807	17593.76
467.012	17841.56
467.218	17999.26
467.423	17388.96
467.628	17450.4
467.833	18474.38
468.038	17560.99
468.244	17141.16
468.449	17884.57
468.654	17178.02
468.859	16807.34
469.064	16858.54
469.269	16405.94
469.474	16403.89
469.679	17061.29
469.885	16422.32
470.09	16520.62
470.295	16604.59
470.5	16291.25
470.705	16016.82
470.91	15740.35
471.115	15760.83
471.32	16084.41
471.525	15668.67
471.73	15308.23
471.935	15398.34
472.139	14816.71
472.344	14925.25
472.549	15050.18
472.754	14853.58
472.959	14472.65
473.164	13770.2
473.369	13958.61
473.574	14386.64
473.778	14366.16
473.983	14198.23
474.188	14056.92
474.393	13407.71
474.598	13598.17
474.802	13274.59
475.007	13434.33
475.212	13440.48
475.417	12881.38
475.621	12785.13
475.826	13202.91
476.031	12760.55
476.235	12590.57
476.44	12484.08
476.645	12314.09
476.849	12328.43
477.054	12277.23
477.259	12271.09
477.463	12027.38
477.668	11810.29
477.872	11906.55
478.077	11554.3
478.282	11380.22
478.486	11531.77
478.691	11292.16
478.895	11355.65
479.1	11253.25
479.304	11077.12
479.509	11081.22
479.713	11187.71
479.918	10796.55
480.122	10700.3
480.326	10958.34
480.531	10927.62
480.735	10790.41
480.94	10755.59
481.144	10966.53
481.348	10610.18
481.553	10649.1
481.757	10501.64
481.961	10599.94
482.166	10905.09
482.37	10497.55
482.574	10259.98
482.778	10331.66
482.983	10810.89
483.187	10436.11
483.391	10731.01
483.595	10571.27
483.8	10395.15
484.004	10423.82
484.208	10735.11
484.412	10573.32
484.616	10599.94
484.821	10526.22
485.025	10014.23
485.229	10616.33
485.433	10374.67
485.637	10540.55
485.841	10343.95
486.045	10503.69
486.249	10513.93
486.453	10376.72
486.657	10552.84
486.861	10655.24
487.065	10362.38
487.269	10565.13
487.473	10249.74
487.677	10612.23
487.881	10626.57
488.085	10595.85
488.289	10475.02
488.493	10665.48
488.697	10577.42
488.901	10585.61
489.105	10493.45
489.309	10520.07
489.512	10518.03
489.716	10747.4
489.92	10823.17
490.124	10554.89
490.328	10817.03
490.531	10907.14
490.735	10728.97
490.939	10911.24
491.143	10755.59
491.346	10872.32
491.55	11140.61
491.754	10956.29
491.958	10978.82
492.161	10810.89
492.365	11204.1
492.569	10937.86
492.772	11220.48
492.976	11146.75
493.18	11333.12
493.383	11468.28
493.587	11726.33
493.79	11681.27
493.994	11562.49
494.197	11759.1
494.401	11705.85
494.605	11720.18
494.808	12054
495.012	11908.6
495.215	12031.48
495.419	12193.26
495.622	11974.13
495.825	12238.32
496.029	12293.62
496.232	12580.33
496.436	12623.34
496.639	12973.54
496.843	12803.56
497.046	12955.11
497.249	13182.43
497.453	13235.68
497.656	13364.7
497.859	13555.16
498.063	13616.6
498.266	13821.4
498.469	13891.03
498.673	13981.14
498.876	14319.06
499.079	14630.35
499.282	14091.73
499.485	14872.01
499.689	14769.61
499.892	15011.27
500.095	15062.47
500.298	15386.05
500.501	15111.62
500.705	15441.34
500.908	15664.57
501.111	15926.71
501.314	16027.06
501.517	16371.12
501.72	16268.72
501.923	16274.87
502.126	16856.49
502.329	16817.58
502.532	16954.79
502.735	17319.33
502.938	17452.45
503.141	17491.36
503.344	17757.6
503.547	17794.46
503.75	17999.26
503.953	18486.67
504.156	18824.59
504.359	18865.55
504.562	18904.46
504.765	19271.04
504.968	19408.26
505.17	19768.7
505.373	19684.73
505.576	20168.05
505.779	20303.22
505.982	20518.26
506.185	20839.79
506.387	20989.29
506.59	21218.66
506.793	21380.45
506.996	21284.2
507.198	21994.84
507.401	21611.87
507.604	22111.58
507.807	22547.79
508.009	22609.23
508.212	22844.75
508.415	22941
508.617	23430.47
508.82	23305.54
509.022	23643.46
509.225	23979.32
509.428	24237.37
509.63	24546.61
509.833	24522.04
510.035	25077.04
510.238	24943.92
510.44	25511.21
510.643	25677.09
510.845	25845.02
511.048	25779.49
511.25	26154.27
511.453	26514.71
511.655	27419.91
511.858	26881.3
512.06	27178.25
512.262	27723.01
512.465	27677.96
512.667	27892.99
512.87	28194.04
513.072	28232.96
513.274	29265.13
513.477	29261.04
513.679	29601
513.881	29453.55
514.084	29949.15
514.286	29605.09
514.488	30573.78
514.69	30862.55
514.893	31118.54
515.095	31210.7
515.297	31589.58
515.499	31567.05
515.701	31849.67
515.904	32443.58
516.106	32834.74
516.308	32537.79
516.51	33273.01
516.712	33135.79
516.914	33715.37
517.116	33914.02
517.318	34041
517.52	34464.92
517.722	34243.74
517.925	35087.51
518.127	35894.41
518.329	35609.74
518.531	35406.99
518.733	36459.65
518.935	36623.48
519.136	36662.4
519.338	37241.97
519.54	37244.02
519.742	37323.89
519.944	37307.51
520.146	38057.06
520.348	38085.73
520.55	38329.44
520.752	38532.19
520.954	39066.71
521.155	38904.92
521.357	39728.2
521.559	39820.36
521.761	40064.07
521.963	40295.49
522.164	40442.95
522.366	40936.51
522.568	40754.24
522.77	41632.82
522.971	41841.71
523.173	41550.9
523.375	41684.01
523.576	41810.99
523.778	42212.39
523.98	43033.63
524.181	43185.18
524.383	42681.38
524.584	43736.08
524.786	43588.63
524.988	43428.88
525.189	43840.53
525.391	44119.05
525.592	44104.71
525.794	44299.27
525.995	44483.59
526.197	44758.02
526.398	44760.06
526.6	44749.82
526.801	45108.22
527.003	45495.28
527.204	45163.51
527.406	46003.18
527.607	45880.3
527.808	46388.2
528.01	45571.06
528.211	45534.2
528.412	47250.39
528.614	46244.84
528.815	46420.97
529.016	46988.25
529.218	46412.77
529.419	47092.7
529.62	46939.1
529.822	46541.8
530.023	46951.39
530.224	46957.53
530.425	46969.82
530.626	46855.14
530.828	46707.68
531.029	48139.21
531.23	47061.98
531.431	46961.63
531.632	47279.07
531.833	47391.7
532.035	47762.39
532.236	47395.8
532.437	47842.26
532.638	47492.05
532.839	47715.28
533.04	47680.47
533.241	47234.01
533.442	48321.48
533.643	47410.14
533.844	47666.13
534.045	47991.76
534.246	47678.42
534.447	47827.92
534.648	48104.4
534.849	48387.02
535.05	47633.36
535.251	48378.82
535.451	47737.81
535.652	48239.56
535.853	48182.22
536.054	47920.08
536.255	48247.75
536.456	47754.19
536.657	48346.06
536.857	48149.45
537.058	47678.42
537.259	48417.74
537.46	48200.65
537.66	47829.97
537.861	47559.64
538.062	47791.06
538.263	48354.25
538.463	48038.86
538.664	47612.88
538.865	47911.89
539.065	48870.34
539.266	47979.47
539.466	48212.94
539.667	47723.47
539.868	48118.73
540.068	48186.32
540.269	47858.64
540.469	48047.05
540.67	47662.04
540.87	48102.35
541.071	47698.9
541.271	48264.14
541.472	48274.38
541.672	47557.59
541.873	47567.83
542.073	47561.68
542.274	48327.63
542.474	47725.52
542.675	47895.5
542.875	48088.01
543.075	47436.76
543.276	47619.03
543.476	48198.6
543.676	47883.22
543.877	47850.45
544.077	48008.14
544.277	47463.38
544.478	47643.6
544.678	47844.3
544.878	47958.99
545.078	48042.96
545.279	47449.05
545.479	47739.86
545.679	48124.88
545.879	47623.12
546.079	47551.45
546.28	47657.94
546.48	47547.35
546.68	48149.45
546.88	47899.6
547.08	47805.39
547.28	47678.42
547.48	47330.26
547.68	47821.78
547.88	47553.49
548.081	47756.24
548.281	47463.38
548.481	47049.69
548.681	47924.18
548.881	47578.07
549.081	47078.36
549.28	47350.74
549.48	47797.2
549.68	47586.26
549.88	48079.82
550.08	47530.97
550.28	47600.6
550.48	47387.61
550.68	47698.9
550.88	47021.02
551.08	47211.48
551.279	47643.6
551.479	47107.04
551.679	47346.65
551.879	47569.88
552.079	47518.68
552.278	47092.7
552.478	47281.11
552.678	47178.71
552.878	47764.43
553.077	47082.46
553.277	46373.86
553.477	47672.28
553.676	46883.81
553.876	47043.55
554.076	47248.35
554.275	46980.06
554.475	46670.82
554.674	47653.84
554.874	47135.71
555.074	46799.84
555.273	47322.07
555.473	47092.7
555.672	46810.08
555.872	46951.39
556.071	47135.71
556.271	47344.6
556.47	46908.38
556.67	46468.07
556.869	46343.14
557.068	46369.77
557.268	46420.97
557.467	46554.08
557.667	47094.75
557.866	46517.22
558.065	46740.45
558.265	46302.18
558.464	46081
558.663	46900.19
558.863	45925.36
559.062	46971.87
559.261	45997.04
559.461	46537.7
559.66	45573.11
559.859	46220.27
560.058	45763.57
560.258	46275.56
560.457	45409.27
560.656	46146.54
560.855	45802.48
561.054	45947.89
561.253	45337.59
561.453	45802.48
561.652	45734.9
561.851	45736.94
562.05	45466.61
562.249	45323.26
562.448	45437.94
562.647	45511.67
562.846	45468.66
563.045	45364.21
563.244	44594.18
563.443	45650.93
563.642	44784.64
563.841	45407.22
564.04	45061.12
564.239	45636.59
564.438	44979.2
564.637	44979.2
564.836	44790.78
565.035	44602.37
565.234	44735.49
565.432	44530.69
565.631	44407.81
565.83	44352.52
566.029	44708.86
566.228	44141.58
566.427	44010.51
566.625	43820.05
566.824	43508.75
567.023	44006.41
567.222	43017.24
567.42	44149.77
567.619	43516.95
567.818	43711.5
568.016	43572.24
568.215	44325.89
568.414	43283.48
568.612	43660.3
568.811	43508.75
569.01	43361.3
569.208	42986.52
569.407	43815.95
569.605	42941.47
569.804	43267.09
570.002	42994.71
570.201	42794.01
570.4	42812.45
570.598	42847.26
570.797	42230.82
570.995	43002.91
571.193	42646.56
571.392	42677.28
571.59	42155.05
571.789	42153
571.987	42112.04
572.186	42103.85
572.384	41749.55
572.582	41763.89
572.781	42189.86
572.979	41305.14
573.177	41690.16
573.376	41669.68
573.574	41573.42
573.772	41524.27
573.971	41083.96
574.169	41100.34
574.367	41083.96
574.565	40999.99
574.763	41165.88
574.962	41165.88
575.16	40240.2
575.358	40774.72
575.556	40447.04
575.754	41159.73
575.952	40086.6
576.151	40733.76
576.349	40211.53
576.547	40340.55
576.745	40281.16
576.943	39949.39
577.141	39928.91
577.339	40041.54
577.537	39474.26
577.735	39818.32
577.933	39324.75
578.131	39590.99
578.329	39158.87
578.527	39093.33
578.725	39023.7
578.923	39392.34
579.121	39060.57
579.319	39197.78
579.516	39079
579.714	38806.62
579.912	38704.22
580.11	38351.97
580.308	38458.46
580.506	38515.81
580.704	37932.14
580.901	38472.8
581.099	38485.09
581.297	37887.08
581.495	38138.98
581.692	38196.32
581.89	37680.24
582.088	38190.18
582.285	37569.65
582.483	37799.02
582.681	37563.5
582.878	37485.68
583.076	37106.8
583.274	37360.75
583.471	37100.66
583.669	37037.17
583.866	36908.15
584.064	37213.3
584.262	36461.69
584.459	36955.25
584.657	36359.3
584.854	36488.32
585.052	36263.04
585.249	36369.54
585.447	36154.5
585.644	35918.98
585.841	35966.09
586.039	36281.47
586.236	35779.72
586.434	35943.56
586.631	35605.64
586.828	35705.99
587.026	35591.31
587.223	35603.6
587.42	35392.65
587.618	35400.85
587.815	35232.91
588.012	35099.8
588.21	35015.83
588.407	35435.66
588.604	34989.2
588.801	34503.84
588.999	34636.95
589.196	34585.75
589.393	34655.39
589.59	34483.36
589.787	34428.06
589.984	34016.42
590.182	33895.59
590.379	34243.74
590.576	34137.25
590.773	33895.59
590.97	33811.62
591.167	33948.84
591.364	33504.43
591.561	33477.8
591.758	33152.18
591.955	33404.08
592.152	33678.5
592.349	32773.3
592.546	33682.6
592.743	33338.54
592.94	32648.38
593.137	32955.57
593.334	32640.18
593.531	32265.41
593.727	32543.93
593.924	32738.49
594.121	32451.77
594.318	32337.09
594.515	31724.74
594.712	32732.34
594.908	32142.53
595.105	31986.88
595.302	31702.21
595.499	32019.65
595.696	31610.06
595.892	31460.55
596.089	31837.38
596.286	31868.1
596.482	31165.65
596.679	31128.78
596.876	31274.19
597.072	31155.41
597.269	31073.49
597.466	30680.28
597.662	30737.62
597.859	30704.85
598.055	30647.51
598.252	30606.55
598.448	30434.52
598.645	30528.73
598.841	30102.75
599.038	30291.16
599.234	30182.62
599.431	29758.69
599.627	29719.78
599.824	30035.17
600.02	29555.94
600.217	29914.34
600.413	29744.36
600.609	29617.38
600.806	29304.04
601.002	29390.06
601.198	28843.25
601.395	29275.37
601.591	28945.65
601.787	29101.29
601.984	28519.67
602.18	29234.41
602.376	28552.44
602.572	28642.55
602.769	28400.89
602.965	28497.14
603.161	28703.99
603.357	27956.48
603.553	28386.55
603.75	28470.52
603.946	27819.27
604.142	28013.82
604.338	27776.26
604.534	28024.06
604.73	27634.95
604.926	27632.9
605.122	27571.46
605.318	27907.33
605.514	27340.04
605.71	27526.41
605.906	27542.79
606.102	27063.57
606.298	27092.24
606.494	27094.29
606.69	27036.94
606.886	27239.69
607.082	26912.02
607.278	26832.15
607.474	26406.17
607.67	26631.44
607.866	26604.82
608.062	26907.92
608.257	26262.81
608.453	26621.2
608.649	26514.71
608.845	26483.99
609.041	26303.77
609.236	26264.86
609.432	26311.96
609.628	26490.13
609.824	26021.15
610.019	25906.46
610.215	25820.45
610.411	25961.76
610.606	25832.74
610.802	25890.08
610.998	25939.23
611.193	25806.11
611.389	25460.01
611.584	25523.49
611.78	25482.53
611.976	25486.63
612.171	25615.65
612.367	25742.63
612.562	25363.75
612.758	24925.49
612.953	24900.91
613.149	25314.6
613.344	24898.86
613.539	25365.8
613.735	25152.81
613.93	25136.43
614.126	24954.16
614.321	25019.69
614.517	24737.07
614.712	25025.84
614.907	24976.69
615.103	24679.73
615.298	24493.36
615.493	24882.48
615.688	24431.93
615.884	25220.39
616.079	24302.9
616.274	24288.57
616.47	24401.21
616.665	24495.41
616.86	24444.21
617.055	24063.29
617.25	24429.88
617.445	24352.06
617.641	23825.73
617.836	24454.45
618.031	23833.92
618.226	24302.9
618.421	23815.49
618.616	24272.18
618.811	23618.88
619.006	24165.69
619.201	23713.09
619.396	23420.23
619.591	22994.25
619.786	23610.69
619.981	23076.17
620.176	23293.26
620.371	22887.76
620.566	23008.59
620.761	22889.81
620.956	23098.7
621.151	22512.98
621.346	22844.75
621.541	22377.81
621.735	22422.87
621.93	22195.54
622.125	22105.43
622.32	21863.77
622.515	21939.55
622.709	21638.5
622.904	21710.18
623.099	21669.22
623.294	21509.47
623.488	21276.01
623.683	21472.61
623.878	21026.15
624.072	21155.18
624.267	21026.15
624.462	20923.76
624.656	20813.17
624.851	20786.54
625.046	20489.59
625.24	20581.74
625.435	20354.42
625.629	20086.14
625.824	19942.78
626.018	19996.03
626.213	19557.76
626.407	20303.22
626.602	19490.18
626.796	19744.13
626.991	19719.55
627.185	19211.65
627.38	19312
627.574	19352.96
627.768	18978.19
627.963	19096.97
628.157	18650.51
628.352	18900.36
628.546	18640.27
628.74	18863.5
628.935	18460.05
629.129	18505.1
629.323	18261.4
629.517	18216.34
629.712	17982.87
629.906	18046.36
630.1	17919.39
630.294	17737.12
630.489	17522.08
630.683	17780.12
630.877	17431.97
631.071	17431.97
631.265	17536.42
631.459	17243.56
631.653	16946.6
631.848	16969.13
632.042	16840.11
632.236	17008.04
632.43	16651.69
632.624	16889.26
632.818	16713.13
633.012	16524.72
633.206	16494
633.4	16475.57
633.594	16061.88
633.788	16358.83
633.982	16145.84
634.176	16166.32
634.369	15953.34
634.563	16242.1
634.757	15650.24
634.951	15797.69
635.145	15855.03
635.339	15994.29
635.533	15515.07
635.726	15558.08
635.92	15130.05
636.114	15242.69
636.308	15117.76
636.501	15308.23
636.695	15072.71
636.889	14960.07
637.083	15085
637.276	14695.88
637.47	14755.27
637.664	14704.07
637.857	14609.87
638.051	14669.26
638.244	14372.3
638.438	14439.89
638.632	14337.49
638.825	14237.14
639.019	14108.12
639.212	14091.73
639.406	14132.69
639.599	13880.79
639.793	14003.67
639.986	13774.3
640.18	13827.54
640.373	13610.46
640.567	13487.58
640.76	13645.27
640.954	13413.85
641.147	13311.46
641.34	13153.76
641.534	13077.99
641.727	13194.72
641.92	13135.33
642.114	12957.16
642.307	12875.24
642.5	13045.22
642.694	12592.62
642.887	12742.12
643.08	12920.29
643.273	12525.04
643.467	12740.07
643.66	12602.86
643.853	12213.74
644.046	12178.93
644.239	12209.65
644.432	12238.32
644.626	12213.74
644.819	12033.52
645.012	12137.97
645.205	11927.03
645.398	11810.29
645.591	11822.58
645.784	12115.44
645.977	11605.5
646.17	11591.16
646.363	11605.5
646.556	11355.65
646.749	11552.25
646.942	11445.76
647.135	11292.16
647.328	11337.21
647.521	11333.12
647.714	11230.72
647.907	11447.8
648.099	11152.9
648.292	10974.72
648.485	11116.03
648.678	10870.28
648.871	10845.7
649.064	10819.08
649.256	10722.82
649.449	10753.54
649.642	10812.93
649.835	10507.79
650.027	10515.98
650.22	10432.01
650.413	10554.89
650.605	10352.14
650.798	10425.87
650.991	10184.21
651.183	10229.26
651.376	10141.2
651.568	10116.62
651.761	10051.09
651.954	10001.94
652.146	9993.75
652.339	9885.2
652.531	9825.81
652.724	9723.41
652.916	9653.78
653.109	9625.11
653.301	9655.83
653.494	9635.35
653.686	9526.81
653.879	9446.94
654.071	9479.71
654.263	9170.46
654.456	9215.52
654.648	9334.3
654.84	9231.9
655.033	9195.04
655.225	9080.35
655.417	8973.86
655.61	9049.63
655.802	9106.98
655.994	8904.23
656.186	8945.19
656.379	8941.09
656.571	8732.2
656.763	8707.62
656.955	8619.56
657.148	8496.68
657.34	8644.13
657.532	8468.01
657.724	8621.61
657.916	8623.66
658.108	8482.35
658.3	8408.62
658.492	8298.03
658.684	8269.36
658.876	8255.02
659.068	8111.66
659.26	8058.42
659.452	8060.46
659.644	7894.58
659.836	8001.07
660.028	7990.83
660.22	7902.77
660.412	7937.59
660.604	7812.66
660.796	7935.54
660.988	7761.46
661.18	7947.83
661.372	7671.35
661.563	7611.96
661.755	7476.79
661.947	7638.58
662.139	7441.98
662.331	7401.02
662.522	7380.54
662.714	7245.37
662.906	7312.96
663.097	7204.41
663.289	7183.93
663.481	7179.84
663.673	7171.65
663.864	7218.75
664.056	7081.53
664.247	7079.49
664.439	7073.34
664.631	7093.82
664.822	7052.86
665.014	6960.7
665.205	6917.7
665.397	6852.16
665.588	6665.8
665.78	6870.59
665.971	6788.68
666.163	6837.83
666.354	6737.48
666.546	6667.84
666.737	6518.34
666.929	6616.65
667.12	6692.42
667.311	6555.21
667.503	6477.38
667.694	6524.49
667.885	6399.56
668.077	6430.28
668.268	6319.69
668.459	6436.42
668.651	6336.07
668.842	6364.75
669.033	6176.33
669.224	6131.28
669.416	6178.38
669.607	6094.41
669.798	6049.36
669.989	6293.07
670.18	6069.84
670.371	5918.29
670.563	5938.77
670.754	6032.97
670.945	5670.48
671.136	6061.65
671.327	5770.83
671.518	5803.6
671.709	5758.55
671.9	5908.05
672.091	5918.29
672.282	5633.62
672.473	5656.15
672.664	5557.85
672.855	5469.78
673.046	5770.83
673.237	5570.13
673.428	5422.68
673.619	5598.81
673.809	5469.78
674	5449.3
674.191	5477.98
674.382	5432.92
674.573	5371.48
674.764	5342.81
674.954	5383.77
675.145	5252.7
675.336	5232.22
675.527	5262.94
675.717	5228.12
675.908	5310.04
676.099	5189.21
676.289	5187.16
676.48	5172.83
676.671	4980.32
676.861	5226.07
677.052	4968.03
677.243	4996.7
677.433	5015.13
677.624	5021.28
677.814	4929.12
678.005	5035.61
678.195	5088.86
678.386	4814.43
678.576	4918.88
678.767	4961.89
678.957	4802.15
679.148	4980.32
679.338	4705.89
679.529	4851.3
679.719	4699.75
679.909	4742.75
680.1	4683.36
680.29	4615.78
680.481	4777.57
680.671	4716.13
680.861	4570.72
681.052	4636.26
681.242	4572.77
681.432	4574.82
681.622	4578.92
681.813	4499.05
682.003	4486.76
682.193	4456.04
682.383	4523.62
682.573	4630.12
682.764	4537.96
682.954	4456.04
683.144	4554.34
683.334	4480.61
683.524	4308.58
683.714	4419.18
683.904	4331.11
684.094	4298.35
684.284	4324.97
684.474	4468.33
684.664	4300.39
684.854	4245.1
685.044	4210.28
685.234	4202.09
685.424	4386.41
685.614	4150.89
685.804	4226.67
685.994	4132.46
686.184	4286.06
686.374	4132.46
686.564	4208.23
686.753	4122.22
686.943	4107.88
687.133	4204.14
687.323	3995.25
687.513	4032.11
687.702	3890.8
687.892	3860.08
688.082	3853.94
688.272	3956.33
688.461	3819.12
688.651	3876.46
688.841	3860.08
689.03	3923.57
689.22	3751.54
689.41	3827.31
689.599	3841.65
689.789	3823.22
689.979	3747.44
690.168	3835.5
690.358	3796.59
690.547	3743.35
690.737	3718.77
690.926	3704.43
691.116	3626.61
691.305	3819.12
691.495	3661.43
691.684	3624.56
691.874	3554.93
692.063	3667.57
692.252	3628.66
692.442	3579.51
692.631	3503.73
692.82	3481.21
693.01	3497.59
693.199	3460.73
693.388	3526.26
693.578	3458.68
693.767	3382.9
693.956	3417.72
694.146	3491.45
694.335	3366.52
694.524	3368.57
694.713	3393.14
694.902	3380.86
695.092	3395.19
695.281	3368.57
695.47	3286.65
695.659	3272.31
695.848	3260.02
696.037	3276.41
696.226	3307.13
696.415	3124.86
696.604	3290.74
696.793	3260.02
696.982	3274.36
697.171	3194.49
697.36	3235.45
697.549	3272.31
697.738	3214.97
697.927	3100.28
698.116	3200.63
698.305	3237.5
698.494	3257.98
698.683	3092.09
698.872	3122.81
699.061	3155.58
699.25	3184.25
699.438	3139.19
699.627	3069.56
699.816	3274.36
700.005	3190.39
700.193	3026.56
700.382	3102.33
700.571	3022.46
700.76	3118.72
700.948	3081.85
701.137	2971.26
701.326	3049.08
701.514	2999.93
701.703	2989.69
701.892	2963.07
702.08	3073.66
702.269	3010.17
702.457	2864.77
702.646	2952.83
702.834	3001.98
703.023	3085.95
703.212	3004.03
703.4	3034.75
703.589	2911.87
703.777	2934.4
703.965	2797.18
704.154	3001.98
704.342	2895.49
704.531	2840.19
704.719	2848.38
704.907	2895.49
705.096	2811.52
705.284	2791.04
705.472	2754.18
705.661	2883.2
705.849	3094.14
706.037	2883.2
706.226	2776.7
706.414	2913.92
706.602	2782.85
706.79	2875.01
706.979	2715.27
707.167	2866.81
707.355	2786.94
707.543	2834.05
707.731	2823.81
707.919	2778.75
708.107	2782.85
708.296	2788.99
708.484	2797.18
708.672	2743.94
708.86	2813.57
709.048	2633.35
709.236	2651.78
709.424	2832
709.612	2645.63
709.8	2700.93
709.988	2635.39
710.176	2782.85
710.364	2760.32
710.551	2719.36
710.739	2606.72
710.927	2639.49
711.115	2707.07
711.303	2657.92
711.491	2614.91
711.679	2547.33
711.866	2637.44
712.054	2672.26
712.242	2563.72
712.43	2700.93
712.617	2602.63
712.805	2707.07
712.993	2584.2
713.181	2483.84
713.368	2555.52
713.556	2557.57
713.744	2432.65
713.931	2508.42
714.119	2512.52
714.306	2586.24
714.494	2553.48
714.682	2561.67
714.869	2489.99
715.057	2635.39
715.244	2582.15
715.432	2588.29
715.619	2674.31
715.807	2608.77
715.994	2522.76
716.182	2375.3
716.369	2473.6
716.556	2565.76
716.744	2555.52
716.931	2625.15
717.119	2498.18
717.306	2469.51
717.493	2449.03
717.681	2408.07
717.868	2373.25
718.055	2436.74
718.242	2469.51
718.43	2516.61
718.617	2428.55
718.804	2457.22
718.991	2467.46
719.179	2426.5
719.366	2446.98
719.553	2522.76
719.74	2426.5
719.927	2264.71
720.114	2379.4
720.301	2375.3
720.488	2391.69
720.676	2424.45
720.863	2471.56
721.05	2410.12
721.237	2397.83
721.424	2279.05
721.611	2416.26
721.798	2324.1
721.985	2350.73
722.172	2385.54
722.358	2227.85
722.545	2285.19
722.732	2248.33
722.919	2303.62
723.106	2287.24
723.293	2297.48
723.48	2277
723.667	2268.81
723.853	2186.89
724.04	2295.43
724.227	2301.58
724.414	2262.66
724.6	2252.42
724.787	2215.56
724.974	2264.71
725.161	2274.95
725.347	2190.99
725.534	2238.09
725.72	2242.18
725.907	2221.7
726.094	2168.46
726.28	2391.69
726.467	2154.12
726.653	2188.94
726.84	2301.58
727.027	2203.27
727.213	2104.97
727.4	2264.71
727.586	2190.99
727.773	2231.94
727.959	2283.14
728.145	2152.07
728.332	2160.27
728.518	2086.54
728.705	2152.07
728.891	2104.97
729.077	2166.41
729.264	2178.7
729.45	2041.48
729.636	2240.14
729.823	2170.51
730.009	2233.99
730.195	2119.31
730.382	2166.41
730.568	2078.35
730.754	2199.18
730.94	1994.38
731.126	2096.78
731.313	2039.44
731.499	2184.84
731.685	2098.83
731.871	2078.35
732.057	2041.48
732.243	2135.69
732.429	2115.21
732.615	2004.62
732.801	2016.91
732.987	2139.79
733.173	1967.76
733.359	1971.85
733.545	2086.54
733.731	2094.73
733.917	2123.4
734.103	2023.05
734.289	2104.97
734.475	1918.61
734.661	2147.98
734.847	2057.87
735.033	1971.85
735.219	2014.86
735.404	1984.14
735.59	1994.38
735.776	1953.42
735.962	1982.09
736.148	1994.38
736.333	1883.79
736.519	1928.85
736.705	2002.57
736.89	1949.32
737.076	2092.68
737.262	1969.8
737.447	1992.33
737.633	1869.45
737.819	1891.98
738.004	2037.39
738.19	1947.28
738.375	1955.47
738.561	1904.27
738.747	1910.41
738.932	1869.45
739.118	1918.61
739.303	1900.17
739.489	1924.75
739.674	1818.25
739.859	1877.65
740.045	1891.98
740.23	1928.85
740.416	1812.11
740.601	1877.65
740.786	1873.55
740.972	1789.58
741.157	1740.43
741.342	1814.16
741.528	1867.41
741.713	1810.06
741.898	1867.41
742.084	1832.59
742.269	1781.39
742.454	1816.21
742.639	1828.49
742.824	1765.01
743.01	1810.06
743.195	1728.14
743.38	1740.43
743.565	1605.27
743.75	1709.71
743.935	1676.95
744.12	1781.39
744.305	1658.51
744.49	1681.04
744.675	1719.95
744.86	1662.61
745.045	1736.34
745.23	1722
745.415	1607.31
745.6	1719.95
745.785	1588.88
745.97	1631.89
746.155	1660.56
746.34	1621.65
746.525	1689.23
746.71	1629.84
746.895	1515.16
747.079	1648.27
747.264	1601.17
747.449	1590.93
747.634	1470.1
747.819	1627.79
748.003	1494.68
748.188	1537.68
748.373	1623.7
748.557	1603.22
748.742	1402.52
748.927	1535.64
749.111	1484.44
749.296	1488.53
749.481	1517.2
749.665	1476.24
749.85	1447.57
750.034	1445.52
750.219	1365.65
750.404	1369.75
750.588	1355.41
750.773	1355.41
750.957	1392.28
751.141	1318.55
751.326	1414.81
751.51	1281.69
751.695	1441.43
751.879	1353.37
752.064	1298.07
752.248	1328.79
752.432	1296.02
752.617	1345.17
752.801	1308.31
752.985	1269.4
753.17	1341.08
753.354	1234.58
753.538	1248.92
753.722	1242.78
753.907	1261.21
754.091	1326.74
754.275	1273.5
754.459	1203.86
754.643	1175.19
754.828	1160.86
755.012	1230.49
755.196	1169.05
755.38	1203.86
755.564	1244.82
755.748	1185.43
755.932	1162.9
756.116	1111.71
756.3	1101.47
756.484	1189.53
756.668	1148.57
756.852	1095.32
757.036	1091.23
757.22	1076.89
757.404	1013.4
757.588	1033.88
757.772	1054.36
757.956	1046.17
758.14	1040.03
758.323	949.92
758.507	1099.42
758.691	1074.84
758.875	1076.89
759.059	1017.5
759.242	1011.36
759.426	1064.6
759.61	1023.64
759.794	1027.74
759.977	1095.32
760.161	1142.43
760.345	1033.88
760.528	1003.16
760.712	994.97
760.895	937.63
761.079	954.01
761.263	1017.5
761.446	958.11
761.63	974.49
761.813	1007.26
761.997	986.78
762.18	919.2
762.364	870.05
762.547	913.05
762.731	933.53
762.914	937.63
763.098	925.34
763.281	904.86
763.464	888.48
763.648	892.57
763.831	831.13
764.015	968.35
764.198	872.09
764.381	915.1
764.564	880.29
764.748	839.33
764.931	949.92
765.114	796.32
765.297	820.89
765.481	874.14
765.664	962.2
765.847	851.61
766.03	927.39
766.213	880.29
766.397	835.23
766.58	859.81
766.763	898.72
766.946	888.48
767.129	892.57
767.312	904.86
767.495	921.24
767.678	816.8
767.861	872.09
768.044	831.13
768.227	941.72
768.41	849.57
768.593	827.04
768.776	859.81
768.959	851.61
769.142	808.61
769.324	847.52
769.507	777.89
769.69	884.38
769.873	771.74
770.056	861.85
770.239	892.57
770.421	847.52
770.604	806.56
770.787	796.32
770.97	790.17
771.152	859.81
771.335	779.93
771.518	816.8
771.7	728.74
771.883	777.89
772.066	792.22
772.248	775.84
772.431	779.93
772.613	773.79
772.796	749.22
772.978	808.61
773.161	816.8
773.343	671.39
773.526	759.46
773.708	720.54
773.891	734.88
774.073	749.22
774.256	702.11
774.438	773.79
774.621	716.45
774.803	624.29
774.985	691.87
775.168	710.3
775.35	716.45
775.532	738.98
775.715	675.49
775.897	679.58
776.079	726.69
776.261	597.67
776.444	730.78
776.626	722.59
776.808	665.25
776.99	726.69
777.173	693.92
777.355	673.44
777.537	597.67
777.719	579.23
777.901	638.62
778.083	607.91
778.265	568.99
778.447	642.72
778.629	583.33
778.811	554.66
778.993	603.81
779.175	644.77
779.357	652.96
779.539	515.75
779.721	568.99
779.903	669.34
780.085	581.28
780.267	650.91
780.449	493.22
780.631	591.52
780.812	603.81
780.994	616.1
781.176	573.09
781.358	571.04
781.54	562.85
781.721	509.6
781.903	433.83
782.085	540.32
782.267	556.71
782.448	583.33
782.63	499.36
782.812	507.55
782.993	542.37
783.175	458.4
783.357	425.64
783.538	499.36
783.72	532.13
783.901	439.97
784.083	556.71
784.264	552.61
784.446	482.98
784.627	427.68
784.809	523.94
784.99	489.12
785.172	446.12
785.353	458.4
785.535	474.79
785.716	401.06
785.897	411.3
786.079	489.12
786.26	489.12
786.441	384.68
786.623	446.12
786.804	433.83
786.985	446.12
787.167	421.54
787.348	429.73
787.529	468.64
787.71	476.84
787.891	335.53
788.073	392.87
788.254	478.88
788.435	433.83
788.616	411.3
788.797	396.96
788.978	401.06
789.159	401.06
789.34	356.01
789.522	341.67
789.703	384.68
789.884	446.12
790.065	482.98
790.246	384.68
790.427	327.33
790.607	360.1
790.788	370.34
790.969	353.96
791.15	409.25
791.331	282.28
791.512	339.62
791.693	368.29
791.874	368.29
792.054	427.68
792.235	349.86
792.416	284.33
792.597	345.77
792.778	349.86
792.958	286.37
793.139	306.85
793.32	317.09
793.5	317.09
793.681	351.91
793.862	300.71
794.042	343.72
794.223	300.71
794.404	341.67
794.584	298.66
794.765	222.89
794.945	308.9
795.126	333.48
795.306	347.81
795.487	331.43
795.667	249.51
795.848	286.37
796.028	235.18
796.209	288.42
796.389	356.01
796.57	282.28
796.75	265.89
796.93	313
797.111	337.57
797.291	304.81
797.471	298.66
797.652	282.28
797.832	214.7
798.012	360.1
798.192	267.94
798.373	267.94
798.553	276.13
798.733	286.37
798.913	200.36
799.093	245.41
799.274	300.71
799.454	231.08
799.634	274.09
799.814	231.08
799.994	302.76
800.174	278.18
800.354	204.46
800.534	296.61
800.714	251.56
800.894	245.41
801.074	192.17
801.254	190.12
801.434	327.33
801.614	255.65
801.794	239.27
801.974	523.94
802.154	208.55
802.334	300.71
802.514	216.74
802.693	253.61
802.873	280.23
803.053	210.6
803.233	233.13
803.413	192.17
803.592	263.85
803.772	253.61
803.952	269.99
804.131	249.51
804.311	245.41
804.491	319.14
804.67	278.18
804.85	224.94
805.03	237.22
805.209	261.8
805.389	204.46
805.568	224.94
805.748	188.07
805.928	249.51
806.107	190.12
806.287	165.54
806.466	155.3
806.646	204.46
806.825	181.93
807.004	183.98
807.184	196.26
807.363	198.31
807.543	233.13
807.722	237.22
807.901	118.44
808.081	167.59
808.26	108.2
808.439	200.36
808.619	196.26
808.798	212.65
808.977	196.26
809.156	177.83
809.336	169.64
809.515	106.15
809.694	175.78
809.873	120.49
810.052	95.91
810.231	220.84
810.411	245.41
810.59	175.78
810.769	147.11
810.948	130.73
811.127	198.31
811.306	106.15
811.485	161.45
811.664	196.26
811.843	122.54
812.022	147.11
812.201	118.44
812.38	171.69
812.559	134.82
812.737	206.5
812.916	138.92
813.095	179.88
813.274	171.69
813.453	181.93
813.632	122.54
813.811	181.93
813.989	157.35
814.168	186.02
814.347	134.82
814.526	114.34
814.704	179.88
814.883	186.02
815.062	159.4
815.24	128.68
815.419	138.92
815.598	188.07
815.776	140.97
815.955	169.64
816.133	124.58
816.312	190.12
816.49	173.74
816.669	145.06
816.847	126.63
817.026	106.15
817.204	237.22
817.383	190.12
817.561	118.44
817.74	194.22
817.918	161.45
818.097	149.16
818.275	143.02
818.453	194.22
818.632	100.01
818.81	124.58
818.988	163.5
819.167	114.34
819.345	118.44
819.523	114.34
819.701	87.72
819.879	81.58
820.058	171.69
820.236	157.35
820.414	122.54
820.592	151.21
820.77	65.19
820.948	114.34
821.127	138.92
821.305	50.86
821.483	87.72
821.661	108.2
821.839	198.31
822.017	73.39
822.195	167.59
822.373	153.26
822.551	108.2
822.729	128.68
822.907	171.69
823.085	171.69
823.262	122.54
823.44	128.68
823.618	93.87
823.796	122.54
823.974	106.15
824.152	169.64
824.329	95.91
824.507	100.01
824.685	73.39
824.863	143.02
825.04	91.82
825.218	145.06
825.396	183.98
825.574	120.49
825.751	143.02
825.929	120.49
826.107	102.06
826.284	161.45
826.462	112.3
826.639	54.95
826.817	40.62
826.994	26.28
827.172	100.01
827.349	151.21
827.527	65.19
827.704	89.77
827.882	126.63
828.059	106.15
828.237	77.48
828.414	110.25
828.591	26.28
828.769	120.49
828.946	36.52
829.124	114.34
829.301	143.02
829.478	114.34
829.655	-8.53
829.833	108.2
830.01	153.26
830.187	44.71
830.364	136.87
830.542	128.68
830.719	147.11
830.896	130.73
831.073	59.05
831.25	44.71
831.427	132.78
831.604	89.77
831.782	61.1
831.959	118.44
832.136	110.25
832.313	85.67
832.49	95.91
832.667	63.15
832.844	110.25
833.021	126.63
833.198	147.11
833.374	48.81
833.551	67.24
833.728	100.01
833.905	65.19
834.082	106.15
834.259	73.39
834.436	143.02
834.612	100.01
834.789	59.05
834.966	132.78
835.143	91.82
835.319	73.39
835.496	104.11
835.673	130.73
835.85	36.52
836.026	34.47
836.203	22.19
836.38	73.39
836.556	89.77
836.733	120.49
836.909	108.2
837.086	75.43
837.262	18.09
837.439	54.95
837.616	102.06
837.792	102.06
837.968	61.1
838.145	65.19
838.321	91.82
838.498	100.01
838.674	110.25
838.851	138.92
839.027	52.91
839.203	18.09
839.38	100.01
839.556	87.72
839.732	147.11
839.909	65.19
840.085	73.39
840.261	102.06
840.437	9.9
840.614	102.06
840.79	108.2
840.966	61.1
841.142	132.78
841.318	-16.73
841.494	114.34
841.671	155.3
841.847	106.15
842.023	143.02
842.199	24.23
842.375	89.77
842.551	57
842.727	44.71
842.903	83.63
843.079	18.09
843.255	110.25
843.431	95.91
843.607	126.63
843.783	40.62
843.959	71.34
844.134	3.75
844.31	128.68
844.486	46.76
844.662	57
844.838	116.39
845.013	30.38
845.189	46.76
845.365	108.2
845.541	69.29
845.716	114.34
845.892	134.82
846.068	112.3
846.244	54.95
846.419	120.49
846.595	1.71
846.77	71.34
846.946	63.15
847.122	83.63
847.297	71.34
847.473	42.67
847.648	32.43
847.824	67.24
847.999	3.75
848.175	61.1
848.35	24.23
848.526	93.87
848.701	83.63
848.876	159.4
849.052	28.33
849.227	5.8
849.403	3.75
849.578	34.47
849.753	87.72
849.929	112.3
850.104	24.23
850.279	48.81
850.454	122.54
850.63	61.1
850.805	65.19
850.98	83.63
851.155	157.35
851.33	93.87
851.505	5.8
851.681	-0.34
851.856	59.05
852.031	85.67
852.206	54.95
852.381	-10.58
852.556	-51.54
852.731	40.62
852.906	65.19
853.081	52.91
853.256	63.15
853.431	73.39
853.606	20.14
853.781	73.39
853.956	11.95
854.131	104.11
854.305	42.67
854.48	9.9
854.655	104.11
854.83	32.43
855.005	26.28
855.18	91.82
855.354	-22.87
855.529	75.43
855.704	-14.68
855.879	-16.73
856.053	30.38
856.228	26.28
856.403	52.91
856.577	-37.2
856.752	77.48
856.926	106.15
857.101	34.47
857.276	89.77
857.45	83.63
857.625	69.29
857.799	69.29
857.974	24.23
858.148	-33.11
858.323	-16.73
858.497	67.24
858.672	24.23
858.846	18.09
859.02	40.62
859.195	102.06
859.369	65.19
859.543	44.71
859.718	48.81
859.892	65.19
860.066	61.1
860.241	-47.44
860.415	65.19
860.589	36.52
860.763	36.52
860.938	-10.58
861.112	52.91
861.286	50.86
861.46	75.43
861.634	42.67
861.808	130.73
861.982	85.67
862.157	20.14
862.331	50.86
862.505	36.52
862.679	67.24
862.853	42.67
863.027	48.81
863.201	59.05
863.375	34.47
863.549	79.53
863.722	61.1
863.896	54.95
864.07	-0.34
864.244	1.71
864.418	83.63
864.592	44.71
864.766	1.71
864.939	81.58
865.113	79.53
865.287	30.38
865.461	-37.2
865.634	69.29
865.808	-29.01
865.982	61.1
866.156	28.33
866.329	-4.44
866.503	54.95
866.676	22.19
866.85	38.57
867.024	36.52
867.197	18.09
867.371	20.14
867.544	-43.35
867.718	57
867.891	38.57
868.065	42.67
868.238	44.71
868.412	16.04
868.585	9.9
868.759	-2.39
868.932	89.77
869.105	24.23
869.279	-8.53
869.452	42.67
869.625	38.57
869.799	24.23
869.972	24.23
870.145	75.43
870.319	46.76
870.492	28.33
870.665	26.28
870.838	61.1
871.011	-29.01
871.185	-4.44
871.358	26.28
871.531	34.47
871.704	69.29
871.877	46.76
872.05	-47.44
872.223	-2.39
872.396	-26.96
872.569	13.99
872.742	-29.01
872.915	9.9
873.088	-31.06
873.261	-61.78
873.434	71.34
873.607	13.99
873.78	11.95
873.953	59.05
874.126	71.34
874.299	-6.49
874.471	102.06
874.644	77.48
874.817	67.24
874.99	87.72
875.163	40.62
875.335	32.43
875.508	28.33
875.681	52.91
875.853	22.19
876.026	52.91
876.199	38.57
876.371	73.39
876.544	32.43
876.717	-14.68
876.889	9.9
877.062	-8.53
877.234	9.9
877.407	50.86
877.579	-26.96
877.752	46.76
877.924	-2.39
878.097	34.47
878.269	5.8
878.442	11.95
878.614	28.33
878.786	-2.39
878.959	3.75
879.131	77.48
879.303	-41.3
879.476	81.58
879.648	61.1
879.82	57
879.993	30.38
880.165	65.19
880.337	-55.64
880.509	28.33
880.681	24.23
880.854	54.95
881.026	16.04
881.198	75.43
881.37	3.75
881.542	-8.53
881.714	-20.82
881.886	-49.49
882.058	22.19
882.23	-18.77
882.402	89.77
882.574	38.57
882.746	46.76
882.918	5.8
883.09	81.58
883.262	-16.73
883.434	3.75
883.606	-10.58
883.778	5.8
883.95	1.71
884.122	-8.53
884.293	52.91
884.465	-14.68
884.637	77.48
884.809	-2.39
884.98	-31.06
885.152	-6.49
885.324	7.85
885.496	3.75
885.667	42.67
885.839	54.95
886.011	67.24
886.182	40.62
886.354	38.57
886.525	18.09
886.697	95.91
886.869	63.15
887.04	-4.44
887.212	40.62
887.383	46.76
887.555	36.52
887.726	-33.11
887.897	77.48
888.069	24.23
888.24	5.8
888.412	-37.2
888.583	1.71
888.754	59.05
888.926	-0.34
889.097	9.9
889.268	22.19
889.44	20.14
889.611	-12.63
889.782	42.67
889.953	42.67
890.125	38.57
890.296	-24.92
890.467	1.71
890.638	-20.82
890.809	-29.01
890.98	44.71
891.151	67.24
891.323	63.15
891.494	118.44
891.665	95.91
891.836	9.9
892.007	73.39
892.178	-10.58
892.349	-18.77
892.52	30.38
892.691	61.1
892.862	102.06
893.032	36.52
893.203	-12.63
893.374	-2.39
893.545	11.95
893.716	-12.63
893.887	9.9
894.057	46.76
894.228	-26.96
894.399	-43.35
894.57	-20.82
894.74	28.33
894.911	-8.53
895.082	-35.16
895.253	30.38
895.423	22.19
895.594	36.52
895.764	-4.44
895.935	50.86
896.106	54.95
896.276	20.14
896.447	16.04
896.617	-16.73
896.788	3.75
896.958	50.86
897.129	-39.25
897.299	-35.16
897.47	36.52
897.64	1.71
897.81	52.91
897.981	89.77
898.151	24.23
898.322	38.57
898.492	63.15
898.662	3.75
898.832	54.95
899.003	38.57
899.173	69.29
899.343	42.67
899.513	3.75
