Data from USB4F104151__87__11-06-41-722.txt Node

Date: Wed Mar 12 11:06:41 EDT 2025
User: louis
Spectrometer: USB4F10415
Trigger mode: 4
Integration Time (sec): 2.000000E-2
Scans to average: 1
Electric dark correction enabled: true
Nonlinearity correction enabled: false
Boxcar width: 0
XAxis mode: Wavelengths
Number of Pixels in Spectrum: 3648
>>>>>Begin Spectral Data<<<<<
178.204	-73.21
178.424	-73.21
178.644	-73.21
178.864	-116.22
179.084	-73.21
179.304	18.94
179.524	25.09
179.744	-24.06
179.964	-3.58
180.184	-26.11
180.404	-38.4
180.624	18.94
180.844	41.47
181.064	-26.11
181.283	14.85
181.503	-24.06
181.723	23.04
181.943	6.66
182.163	61.95
182.383	23.04
182.602	47.62
182.822	51.71
183.042	47.62
183.262	35.33
183.482	76.29
183.701	23.04
183.921	39.42
184.141	-40.45
184.361	27.14
184.58	16.9
184.8	-9.73
185.02	-15.87
185.239	23.04
185.459	80.38
185.679	43.52
185.898	-15.87
186.118	55.81
186.338	-36.35
186.557	27.14
186.777	-11.78
186.997	27.14
187.216	37.38
187.436	-1.54
187.655	117.25
187.875	25.09
188.095	-15.87
188.314	61.95
188.534	68.09
188.753	-22.02
188.973	66.05
189.192	86.53
189.412	-3.58
189.631	64
189.851	64
190.07	84.48
190.29	8.7
190.509	61.95
190.729	16.9
190.948	119.29
191.168	53.76
191.387	92.67
191.607	-9.73
191.826	64
192.045	27.14
192.265	-17.92
192.484	12.8
192.704	-34.3
192.923	14.85
193.142	47.62
193.362	-11.78
193.581	18.94
193.8	64
194.02	18.94
194.239	-15.87
194.458	55.81
194.678	25.09
194.897	20.99
195.116	0.51
195.335	27.14
195.555	-1.54
195.774	72.19
195.993	23.04
196.212	37.38
196.432	59.9
196.651	2.56
196.87	39.42
197.089	35.33
197.308	64
197.528	-3.58
197.747	-5.63
197.966	0.51
198.185	78.33
198.404	43.52
198.623	16.9
198.842	23.04
199.062	53.76
199.281	29.18
199.5	51.71
199.719	23.04
199.938	-1.54
200.157	109.05
200.376	31.23
200.595	100.86
200.814	31.23
201.033	0.51
201.252	41.47
201.471	68.09
201.69	59.9
201.909	35.33
202.128	98.81
202.347	-11.78
202.566	-22.02
202.785	-11.78
203.004	-11.78
203.223	80.38
203.442	-7.68
203.661	-7.68
203.879	25.09
204.098	37.38
204.317	43.52
204.536	6.66
204.755	84.48
204.974	6.66
205.193	14.85
205.411	55.81
205.63	23.04
205.849	29.18
206.068	0.51
206.287	12.8
206.505	78.33
206.724	33.28
206.943	20.99
207.162	64
207.381	59.9
207.599	-7.68
207.818	-42.5
208.037	25.09
208.255	8.7
208.474	12.8
208.693	115.2
208.911	-13.82
209.13	88.57
209.349	-5.63
209.567	96.77
209.786	88.57
210.005	-22.02
210.223	-11.78
210.442	51.71
210.661	41.47
210.879	2.56
211.098	4.61
211.316	-17.92
211.535	98.81
211.753	20.99
211.972	74.24
212.191	68.09
212.409	41.47
212.628	35.33
212.846	-11.78
213.065	-1.54
213.283	27.14
213.502	27.14
213.72	43.52
213.938	68.09
214.157	88.57
214.375	29.18
214.594	-30.21
214.812	-9.73
215.031	90.62
215.249	33.28
215.467	61.95
215.686	45.57
215.904	43.52
216.122	2.56
216.341	31.23
216.559	4.61
216.778	72.19
216.996	31.23
217.214	-52.74
217.432	-58.88
217.651	90.62
217.869	-65.02
218.087	154.11
218.306	80.38
218.524	2.56
218.742	6.66
218.96	16.9
219.179	2.56
219.397	14.85
219.615	47.62
219.833	-7.68
220.051	-30.21
220.27	115.2
220.488	49.66
220.706	76.29
220.924	27.14
221.142	27.14
221.36	51.71
221.578	-50.69
221.796	47.62
222.015	-67.07
222.233	-11.78
222.451	20.99
222.669	-38.4
222.887	66.05
223.105	-1.54
223.323	10.75
223.541	-13.82
223.759	84.48
223.977	111.1
224.195	51.71
224.413	6.66
224.631	47.62
224.849	78.33
225.067	76.29
225.285	41.47
225.503	31.23
225.721	14.85
225.939	39.42
226.157	107.01
226.375	113.15
226.592	-26.11
226.81	88.57
227.028	27.14
227.246	100.86
227.464	31.23
227.682	-3.58
227.9	55.81
228.117	-30.21
228.335	-13.82
228.553	33.28
228.771	111.1
228.989	29.18
229.206	-26.11
229.424	49.66
229.642	-11.78
229.86	78.33
230.077	39.42
230.295	66.05
230.513	2.56
230.731	23.04
230.948	25.09
231.166	39.42
231.384	66.05
231.601	59.9
231.819	86.53
232.037	18.94
232.254	-40.45
232.472	131.58
232.689	8.7
232.907	39.42
233.125	-1.54
233.342	25.09
233.56	37.38
233.777	-15.87
233.995	47.62
234.213	25.09
234.43	37.38
234.648	-7.68
234.865	-1.54
235.083	27.14
235.3	51.71
235.518	59.9
235.735	125.44
235.953	47.62
236.17	4.61
236.388	41.47
236.605	10.75
236.822	70.14
237.04	29.18
237.257	18.94
237.475	16.9
237.692	49.66
237.909	20.99
238.127	64
238.344	-40.45
238.562	72.19
238.779	125.44
238.996	45.57
239.214	72.19
239.431	43.52
239.648	16.9
239.865	33.28
240.083	43.52
240.3	-44.54
240.517	41.47
240.735	80.38
240.952	10.75
241.169	-19.97
241.386	37.38
241.603	84.48
241.821	18.94
242.038	0.51
242.255	37.38
242.472	-7.68
242.689	-56.83
242.907	-15.87
243.124	31.23
243.341	-30.21
243.558	57.86
243.775	68.09
243.992	31.23
244.209	37.38
244.426	80.38
244.643	18.94
244.86	-5.63
245.078	37.38
245.295	35.33
245.512	41.47
245.729	12.8
245.946	4.61
246.163	10.75
246.38	123.39
246.597	76.29
246.814	39.42
247.031	33.28
247.248	47.62
247.464	39.42
247.681	-5.63
247.898	41.47
248.115	0.51
248.332	45.57
248.549	61.95
248.766	66.05
248.983	64
249.2	68.09
249.417	31.23
249.633	18.94
249.85	49.66
250.067	25.09
250.284	10.75
250.501	104.96
250.717	10.75
250.934	43.52
251.151	10.75
251.368	107.01
251.585	-17.92
251.801	49.66
252.018	-3.58
252.235	45.57
252.451	49.66
252.668	51.71
252.885	59.9
253.102	45.57
253.318	45.57
253.535	27.14
253.752	55.81
253.968	47.62
254.185	49.66
254.401	80.38
254.618	12.8
254.835	31.23
255.051	137.73
255.268	80.38
255.484	39.42
255.701	-13.82
255.917	6.66
256.134	-38.4
256.351	18.94
256.567	51.71
256.784	25.09
257	88.57
257.217	107.01
257.433	0.51
257.65	-17.92
257.866	27.14
258.082	8.7
258.299	8.7
258.515	113.15
258.732	-26.11
258.948	-28.16
259.165	88.57
259.381	12.8
259.597	41.47
259.814	53.76
260.03	59.9
260.246	20.99
260.463	76.29
260.679	88.57
260.895	94.72
261.112	12.8
261.328	14.85
261.544	-17.92
261.761	55.81
261.977	37.38
262.193	143.87
262.409	74.24
262.626	-30.21
262.842	33.28
263.058	86.53
263.274	113.15
263.49	64
263.707	55.81
263.923	55.81
264.139	53.76
264.355	47.62
264.571	43.52
264.787	-11.78
265.004	29.18
265.22	35.33
265.436	43.52
265.652	55.81
265.868	25.09
266.084	37.38
266.3	-1.54
266.516	-11.78
266.732	35.33
266.948	104.96
267.164	66.05
267.38	-13.82
267.596	43.52
267.812	64
268.028	47.62
268.244	-1.54
268.46	10.75
268.676	37.38
268.892	-9.73
269.108	51.71
269.324	-48.64
269.54	72.19
269.756	109.05
269.972	33.28
270.188	55.81
270.403	-11.78
270.619	68.09
270.835	47.62
271.051	18.94
271.267	-30.21
271.483	133.63
271.698	70.14
271.914	18.94
272.13	4.61
272.346	-22.02
272.562	10.75
272.777	57.86
272.993	35.33
273.209	37.38
273.425	12.8
273.64	66.05
273.856	2.56
274.072	31.23
274.287	29.18
274.503	41.47
274.719	16.9
274.934	27.14
275.15	-5.63
275.366	6.66
275.581	-19.97
275.797	20.99
276.012	16.9
276.228	27.14
276.444	31.23
276.659	10.75
276.875	-22.02
277.09	18.94
277.306	23.04
277.521	92.67
277.737	98.81
277.952	-1.54
278.168	-42.5
278.383	61.95
278.599	6.66
278.814	107.01
279.03	-24.06
279.245	72.19
279.461	27.14
279.676	55.81
279.892	18.94
280.107	35.33
280.322	6.66
280.538	12.8
280.753	-7.68
280.969	80.38
281.184	20.99
281.399	10.75
281.615	80.38
281.83	47.62
282.045	25.09
282.26	88.57
282.476	4.61
282.691	49.66
282.906	72.19
283.122	41.47
283.337	4.61
283.552	80.38
283.767	-1.54
283.983	6.66
284.198	43.52
284.413	59.9
284.628	0.51
284.843	68.09
285.058	25.09
285.274	102.91
285.489	-5.63
285.704	68.09
285.919	2.56
286.134	113.15
286.349	6.66
286.564	23.04
286.779	25.09
286.995	14.85
287.21	6.66
287.425	33.28
287.64	33.28
287.855	-24.06
288.07	84.48
288.285	29.18
288.5	72.19
288.715	20.99
288.93	37.38
289.145	-42.5
289.36	88.57
289.575	14.85
289.79	64
290.004	96.77
290.219	61.95
290.434	27.14
290.649	70.14
290.864	39.42
291.079	35.33
291.294	82.43
291.509	16.9
291.724	51.71
291.938	29.18
292.153	55.81
292.368	125.44
292.583	92.67
292.798	35.33
293.012	-7.68
293.227	31.23
293.442	0.51
293.657	35.33
293.871	18.94
294.086	74.24
294.301	20.99
294.516	61.95
294.73	10.75
294.945	-38.4
295.16	23.04
295.374	96.77
295.589	-9.73
295.804	-3.58
296.018	39.42
296.233	16.9
296.447	41.47
296.662	6.66
296.877	25.09
297.091	35.33
297.306	16.9
297.52	49.66
297.735	64
297.949	76.29
298.164	107.01
298.378	14.85
298.593	80.38
298.807	25.09
299.022	86.53
299.236	18.94
299.451	43.52
299.665	47.62
299.88	16.9
300.094	18.94
300.309	-32.26
300.523	39.42
300.737	55.81
300.952	94.72
301.166	23.04
301.381	20.99
301.595	2.56
301.809	80.38
302.024	29.18
302.238	49.66
302.452	55.81
302.667	16.9
302.881	35.33
303.095	41.47
303.309	133.63
303.524	29.18
303.738	43.52
303.952	47.62
304.166	51.71
304.381	64
304.595	59.9
304.809	49.66
305.023	84.48
305.237	27.14
305.452	82.43
305.666	90.62
305.88	29.18
306.094	39.42
306.308	66.05
306.522	68.09
306.736	61.95
306.95	59.9
307.164	61.95
307.379	61.95
307.593	55.81
307.807	59.9
308.021	35.33
308.235	39.42
308.449	39.42
308.663	45.57
308.877	16.9
309.091	31.23
309.305	-1.54
309.519	-32.26
309.733	49.66
309.947	64
310.161	25.09
310.374	27.14
310.588	27.14
310.802	49.66
311.016	20.99
311.23	98.81
311.444	43.52
311.658	53.76
311.872	55.81
312.085	37.38
312.299	96.77
312.513	-5.63
312.727	66.05
312.941	-9.73
313.154	-30.21
313.368	18.94
313.582	72.19
313.796	12.8
314.009	61.95
314.223	66.05
314.437	59.9
314.651	4.61
314.864	25.09
315.078	6.66
315.292	31.23
315.505	16.9
315.719	18.94
315.933	-1.54
316.146	59.9
316.36	117.25
316.573	123.39
316.787	94.72
317.001	74.24
317.214	76.29
317.428	33.28
317.641	-26.11
317.855	-22.02
318.068	72.19
318.282	35.33
318.495	66.05
318.709	76.29
318.922	-26.11
319.136	72.19
319.349	-38.4
319.563	39.42
319.776	39.42
319.99	47.62
320.203	18.94
320.417	31.23
320.63	59.9
320.843	37.38
321.057	88.57
321.27	35.33
321.483	12.8
321.697	139.77
321.91	6.66
322.124	29.18
322.337	49.66
322.55	18.94
322.763	33.28
322.977	-1.54
323.19	14.85
323.403	57.86
323.617	25.09
323.83	49.66
324.043	64
324.256	74.24
324.469	2.56
324.683	55.81
324.896	8.7
325.109	115.2
325.322	4.61
325.535	12.8
325.748	37.38
325.962	6.66
326.175	72.19
326.388	43.52
326.601	115.2
326.814	43.52
327.027	45.57
327.24	68.09
327.453	20.99
327.666	86.53
327.879	133.63
328.092	45.57
328.305	35.33
328.518	68.09
328.731	49.66
328.944	25.09
329.157	39.42
329.37	43.52
329.583	37.38
329.796	78.33
330.009	43.52
330.222	29.18
330.435	80.38
330.648	74.24
330.861	25.09
331.073	-50.69
331.286	-15.87
331.499	88.57
331.712	14.85
331.925	74.24
332.138	4.61
332.35	47.62
332.563	78.33
332.776	80.38
332.989	-1.54
333.202	51.71
333.414	23.04
333.627	76.29
333.84	129.53
334.053	18.94
334.265	12.8
334.478	72.19
334.691	49.66
334.903	-13.82
335.116	12.8
335.329	109.05
335.541	-36.35
335.754	14.85
335.966	59.9
336.179	94.72
336.392	2.56
336.604	35.33
336.817	137.73
337.029	90.62
337.242	6.66
337.454	43.52
337.667	100.86
337.88	18.94
338.092	98.81
338.305	51.71
338.517	35.33
338.729	12.8
338.942	107.01
339.154	70.14
339.367	57.86
339.579	115.2
339.792	2.56
340.004	25.09
340.217	111.1
340.429	31.23
340.641	59.9
340.854	39.42
341.066	-13.82
341.278	133.63
341.491	66.05
341.703	39.42
341.915	-13.82
342.128	90.62
342.34	70.14
342.552	27.14
342.764	55.81
342.977	-46.59
343.189	47.62
343.401	-17.92
343.613	59.9
343.826	84.48
344.038	8.7
344.25	117.25
344.462	37.38
344.674	43.52
344.886	72.19
345.099	88.57
345.311	64
345.523	37.38
345.735	27.14
345.947	125.44
346.159	66.05
346.371	41.47
346.583	37.38
346.795	35.33
347.007	-24.06
347.219	10.75
347.431	96.77
347.643	76.29
347.855	131.58
348.067	102.91
348.279	92.67
348.491	61.95
348.703	27.14
348.915	88.57
349.127	16.9
349.339	70.14
349.551	-1.54
349.763	113.15
349.975	94.72
350.187	90.62
350.399	14.85
350.61	35.33
350.822	129.53
351.034	68.09
351.246	41.47
351.458	55.81
351.669	59.9
351.881	57.86
352.093	4.61
352.305	88.57
352.517	-15.87
352.728	61.95
352.94	133.63
353.152	53.76
353.363	18.94
353.575	35.33
353.787	16.9
353.999	76.29
354.21	35.33
354.422	25.09
354.633	35.33
354.845	82.43
355.057	88.57
355.268	-24.06
355.48	-9.73
355.692	64
355.903	-32.26
356.115	55.81
356.326	43.52
356.538	123.39
356.749	76.29
356.961	59.9
357.172	43.52
357.384	55.81
357.595	45.57
357.807	41.47
358.018	43.52
358.23	92.67
358.441	141.82
358.653	74.24
358.864	23.04
359.075	92.67
359.287	33.28
359.498	76.29
359.709	80.38
359.921	121.34
360.132	-1.54
360.344	4.61
360.555	90.62
360.766	125.44
360.977	4.61
361.189	39.42
361.4	27.14
361.611	84.48
361.823	61.95
362.034	23.04
362.245	80.38
362.456	43.52
362.667	53.76
362.879	37.38
363.09	-3.58
363.301	66.05
363.512	41.47
363.723	39.42
363.935	70.14
364.146	18.94
364.357	66.05
364.568	70.14
364.779	66.05
364.99	86.53
365.201	-13.82
365.412	35.33
365.623	20.99
365.834	0.51
366.045	-36.35
366.256	-3.58
366.467	8.7
366.678	31.23
366.889	45.57
367.1	98.81
367.311	86.53
367.522	49.66
367.733	37.38
367.944	107.01
368.155	-44.54
368.366	104.96
368.577	80.38
368.788	47.62
368.999	51.71
369.209	82.43
369.42	145.92
369.631	84.48
369.842	-5.63
370.053	51.71
370.264	76.29
370.474	29.18
370.685	8.7
370.896	14.85
371.107	55.81
371.317	121.34
371.528	47.62
371.739	76.29
371.95	68.09
372.16	59.9
372.371	84.48
372.582	47.62
372.792	86.53
373.003	16.9
373.214	64
373.424	119.29
373.635	39.42
373.846	55.81
374.056	-1.54
374.267	72.19
374.477	33.28
374.688	47.62
374.898	37.38
375.109	57.86
375.319	51.71
375.53	53.76
375.74	119.29
375.951	4.61
376.161	55.81
376.372	10.75
376.582	61.95
376.793	94.72
377.003	-13.82
377.214	68.09
377.424	10.75
377.635	66.05
377.845	25.09
378.055	90.62
378.266	61.95
378.476	100.86
378.686	76.29
378.897	0.51
379.107	12.8
379.317	92.67
379.528	121.34
379.738	135.68
379.948	84.48
380.158	82.43
380.369	53.76
380.579	92.67
380.789	68.09
380.999	16.9
381.21	88.57
381.42	86.53
381.63	82.43
381.84	137.73
382.05	66.05
382.261	72.19
382.471	51.71
382.681	43.52
382.891	84.48
383.101	70.14
383.311	41.47
383.521	33.28
383.731	117.25
383.941	20.99
384.151	39.42
384.361	96.77
384.571	82.43
384.781	6.66
384.991	14.85
385.201	84.48
385.411	88.57
385.621	27.14
385.831	94.72
386.041	92.67
386.251	72.19
386.461	84.48
386.671	113.15
386.881	94.72
387.091	16.9
387.301	14.85
387.511	51.71
387.72	-7.68
387.93	84.48
388.14	90.62
388.35	115.2
388.56	96.77
388.769	68.09
388.979	74.24
389.189	57.86
389.399	47.62
389.609	57.86
389.818	45.57
390.028	68.09
390.238	14.85
390.447	82.43
390.657	53.76
390.867	47.62
391.076	-3.58
391.286	84.48
391.496	53.76
391.705	53.76
391.915	117.25
392.125	94.72
392.334	96.77
392.544	129.53
392.753	94.72
392.963	35.33
393.172	84.48
393.382	82.43
393.591	102.91
393.801	35.33
394.01	123.39
394.22	131.58
394.429	154.11
394.639	18.94
394.848	133.63
395.058	43.52
395.267	158.21
395.477	53.76
395.686	107.01
395.895	70.14
396.105	76.29
396.314	147.97
396.524	6.66
396.733	61.95
396.942	117.25
397.152	139.77
397.361	113.15
397.57	107.01
397.78	141.82
397.989	102.91
398.198	113.15
398.407	29.18
398.617	109.05
398.826	84.48
399.035	197.12
399.244	127.49
399.453	88.57
399.663	141.82
399.872	123.39
400.081	143.87
400.29	135.68
400.499	109.05
400.708	125.44
400.917	170.49
401.127	82.43
401.336	72.19
401.545	115.2
401.754	117.25
401.963	168.45
402.172	92.67
402.381	51.71
402.59	102.91
402.799	107.01
403.008	137.73
403.217	94.72
403.426	147.97
403.635	111.1
403.844	53.76
404.053	80.38
404.262	127.49
404.471	227.84
404.68	240.12
404.888	180.73
405.097	92.67
405.306	174.59
405.515	178.69
405.724	166.4
405.933	133.63
406.142	158.21
406.35	195.07
406.559	215.55
406.768	133.63
406.977	250.36
407.185	229.88
407.394	195.07
407.603	219.64
407.812	213.5
408.02	182.78
408.229	207.36
408.438	150.01
408.646	295.42
408.855	217.6
409.064	215.55
409.272	211.45
409.481	262.65
409.69	320
409.898	285.18
410.107	354.81
410.315	371.19
410.524	336.38
410.733	320
410.941	307.71
411.15	420.35
411.358	442.87
411.567	430.59
411.775	381.43
411.984	442.87
412.192	375.29
412.401	434.68
412.609	492.02
412.818	469.5
413.026	475.64
413.234	592.37
413.443	526.84
413.651	557.56
413.86	600.57
414.068	582.14
414.276	633.33
414.485	623.09
414.693	668.15
414.901	678.39
415.11	702.97
415.318	770.55
415.526	698.87
415.734	770.55
415.943	723.44
416.151	848.37
416.359	801.27
416.567	735.73
416.776	891.38
416.984	979.44
417.192	918
417.4	942.58
417.608	967.15
417.817	1063.41
418.025	1032.69
418.233	1229.29
418.441	1182.19
418.649	1219.05
418.857	1159.66
419.065	1257.96
419.273	1180.14
419.481	1395.18
419.689	1419.75
419.897	1518.06
420.105	1528.3
420.313	1604.07
420.521	1593.83
420.729	1718.76
420.937	1743.33
421.145	1669.61
421.353	1880.55
421.561	1866.21
421.769	1886.69
421.977	2054.62
422.185	2034.14
422.393	2058.72
422.601	2222.56
422.809	2275.81
423.017	2288.09
423.224	2413.02
423.432	2419.16
423.64	2423.26
423.848	2761.17
424.056	2689.49
424.263	2974.16
424.471	2867.67
424.679	3049.94
424.887	3148.24
425.094	3221.97
425.302	3097.04
425.51	3262.93
425.718	3285.45
425.925	3391.95
426.133	3518.92
426.341	3807.69
426.548	3877.32
426.756	3875.27
426.964	3930.56
427.171	4207.04
427.379	4450.75
427.586	4303.29
427.794	4497.85
428.001	4676.02
428.209	4934.07
428.417	4792.76
428.624	5226.93
428.832	5202.35
429.039	5276.08
429.247	5259.7
429.454	5646.76
429.662	6066.6
429.869	5497.26
430.076	6125.99
430.284	5890.47
430.491	6261.15
430.699	6461.85
430.906	6525.34
431.114	6490.52
431.321	6787.48
431.528	6986.13
431.736	7272.85
431.943	7772.55
432.15	7365.01
432.358	7670.15
432.565	7954.82
432.772	8104.32
432.979	8411.52
433.187	8632.7
433.394	8653.18
433.601	9165.17
433.808	9175.41
434.016	9062.77
434.223	9552.24
434.43	10115.43
434.637	9908.58
434.844	10568.03
435.052	10740.06
435.259	10371.43
435.466	10697.05
435.673	10543.46
435.88	11448.66
436.087	11901.26
436.294	12056.9
436.501	11706.7
436.708	11770.19
436.915	12190.02
437.122	12949.82
437.329	12779.84
437.537	12984.63
437.743	13326.64
437.95	13330.74
438.157	13953.32
438.364	14606.63
438.571	14324.01
438.778	14407.97
438.985	15761.68
439.192	14905.63
439.399	15700.24
439.606	15610.13
439.813	16195.85
440.02	17527.03
440.227	16638.21
440.433	16853.25
440.64	17119.48
440.847	17285.37
441.054	17713.39
441.261	18843.87
441.467	18551.01
441.674	19214.55
441.881	19673.3
442.088	19333.34
442.294	19144.92
442.501	20181.2
442.708	20275.4
442.914	21074.11
443.121	22177.97
443.328	21491.9
443.534	22898.85
443.741	22161.58
443.948	22075.57
444.154	23877.78
444.361	23777.43
444.568	23507.1
444.774	23738.52
444.981	24000.66
445.187	24793.22
445.394	25725.05
445.6	25206.91
445.807	27773.02
446.013	26861.67
446.22	26671.21
446.426	28272.72
446.633	28237.91
446.839	29247.55
447.046	27891.8
447.252	29564.99
447.459	29595.71
447.665	29595.71
447.871	30744.62
448.078	31825.95
448.284	30666.8
448.491	31510.56
448.697	32880.65
448.903	32921.61
449.11	33062.92
449.316	32796.68
449.522	33249.28
449.728	33888.25
449.935	34506.74
450.141	34273.27
450.347	34523.12
450.553	34068.47
450.76	34320.37
450.966	35264.49
451.172	35069.93
451.378	36059.1
451.584	35188.71
451.791	35870.68
451.997	35354.6
452.203	36270.04
452.409	35987.42
452.615	35968.99
452.821	34643.95
453.027	34435.06
453.233	36063.19
453.44	34490.35
453.646	34967.53
453.852	35434.47
454.058	35643.36
454.264	34430.96
454.47	35225.57
454.676	34676.72
454.882	35620.83
455.088	32452.62
455.294	32782.35
455.5	33275.91
455.705	33906.68
455.911	32491.54
456.117	31873.05
456.323	31426.59
456.529	29532.22
456.735	30736.43
456.941	30052.41
457.147	29462.59
457.352	28731.47
457.558	28135.51
457.764	28477.52
457.97	27988.05
458.176	27256.93
458.381	27086.95
458.587	25882.74
458.793	25720.95
458.999	24641.67
459.204	26146.93
459.41	25409.66
459.616	24158.35
459.821	23863.44
460.027	23765.14
460.233	23107.74
460.438	21956.78
460.644	22327.47
460.85	21698.74
461.055	21072.06
461.261	21201.08
461.466	19400.92
461.672	18643.17
461.878	20302.03
462.083	18880.74
462.289	18495.72
462.494	18352.36
462.7	17434.87
462.905	17123.58
463.111	17733.87
463.316	17834.22
463.522	17246.46
463.727	17246.46
463.932	17238.26
464.138	17250.55
464.343	17236.22
464.549	16771.33
464.754	17467.64
464.959	17154.3
465.165	17289.46
465.37	16439.56
465.575	15966.48
465.781	16664.83
465.986	16572.68
466.191	16146.7
466.397	15610.13
466.602	14991.64
466.807	15436.05
467.012	15671.57
467.218	15655.19
467.423	15362.33
467.628	15515.92
467.833	16122.12
468.038	15515.92
468.244	15149.34
468.449	15675.66
468.654	15210.78
468.859	15184.15
469.064	14836
469.269	14295.33
469.474	14149.93
469.679	14946.59
469.885	14194.98
470.09	14737.7
470.295	14319.91
470.5	13920.56
470.705	14367.01
470.91	13922.6
471.115	13601.07
471.32	13951.28
471.525	14008.62
471.73	13259.06
471.935	13486.39
472.139	12945.72
472.344	13177.14
472.549	13142.33
472.754	12876.09
472.959	12478.79
473.164	12317
473.369	12245.32
473.574	12767.55
473.778	12554.56
473.983	12486.98
474.188	12165.45
474.393	11762
474.598	11675.98
474.802	11837.77
475.007	11696.46
475.212	11868.49
475.417	11202.9
475.621	11219.28
475.826	11276.63
476.031	10938.71
476.235	10895.71
476.44	10916.19
476.645	10652
476.849	10860.89
477.054	10539.36
477.259	10602.85
477.463	10631.52
477.668	10154.34
477.872	10346.85
478.077	10277.22
478.282	9927.02
478.486	9951.59
478.691	10097
478.895	9832.81
479.1	9834.86
479.304	9699.69
479.509	9478.51
479.713	9464.18
479.918	9369.97
480.122	9372.02
480.326	9494.9
480.531	9464.18
480.735	9228.66
480.94	9441.65
481.144	9646.44
481.348	9111.92
481.553	9300.34
481.757	9015.67
481.961	9175.41
482.166	9175.41
482.37	9306.48
482.574	9052.53
482.778	8999.29
482.983	9353.59
483.187	8962.42
483.391	9204.08
483.595	9267.57
483.8	8896.89
484.004	9066.87
484.208	9224.56
484.412	9038.2
484.616	9054.58
484.821	9228.66
485.025	8831.35
485.229	9087.35
485.433	8886.65
485.637	8921.46
485.841	9079.16
486.045	8982.9
486.249	9146.74
486.453	9083.25
486.657	8948.09
486.861	9206.13
487.065	8823.16
487.269	9003.38
487.473	8823.16
487.677	9013.62
487.881	9064.82
488.085	9101.69
488.289	9021.81
488.493	9038.2
488.697	9214.32
488.901	9136.5
489.105	9271.67
489.309	9060.73
489.512	9107.83
489.716	9378.16
489.92	9185.65
490.124	9066.87
490.328	9410.93
490.531	9308.53
490.735	9470.32
490.939	9275.76
491.143	9185.65
491.346	9378.16
491.55	9347.44
491.754	9478.51
491.958	9322.87
492.161	9415.02
492.365	9699.69
492.569	9642.35
492.772	9511.28
492.976	9517.42
493.18	9671.02
493.383	9851.24
493.587	9896.3
493.79	9970.02
493.994	10041.7
494.197	9951.59
494.401	10013.03
494.605	9994.6
494.808	10090.85
495.012	10363.23
495.215	10426.72
495.419	10269.03
495.622	10412.39
495.825	10543.46
496.029	10574.17
496.232	10670.43
496.436	10889.56
496.639	11002.2
496.843	10881.37
497.046	11250
497.249	11211.09
497.453	11444.56
497.656	11411.79
497.859	11512.14
498.063	11585.87
498.266	11891.02
498.469	11798.86
498.673	12058.95
498.876	12185.93
499.079	12323.14
499.282	12046.66
499.485	12605.76
499.689	12568.9
499.892	13031.74
500.095	12710.21
500.298	13087.03
500.501	13281.59
500.705	13246.77
500.908	13437.23
501.111	13832.49
501.314	13799.73
501.517	13822.25
501.72	13969.71
501.923	14139.69
502.126	14344.49
502.329	14788.89
502.532	14776.61
502.735	14895.39
502.938	15102.23
503.141	15055.13
503.344	15264.02
503.547	15431.96
503.75	15782.16
503.953	15931.66
504.156	15870.22
504.359	16374.02
504.562	16226.57
504.765	16673.03
504.968	16838.91
505.17	16879.87
505.373	16601.35
505.576	17135.87
505.779	17232.12
505.982	17615.09
506.185	18184.43
506.387	17772.78
506.59	17895.66
506.793	18469.09
506.996	18317.54
507.198	19050.72
507.401	18884.83
507.604	18993.37
507.807	19603.67
508.009	19544.28
508.212	19783.89
508.415	19859.66
508.617	20304.07
508.82	20259.02
509.022	20041.93
509.225	20760.77
509.428	20859.07
509.63	20951.23
509.833	21051.58
510.035	21489.85
510.238	21670.07
510.44	21987.5
510.643	22251.69
510.845	22411.43
511.048	22257.84
511.25	22859.94
511.453	22845.6
511.655	23773.33
511.858	22993.06
512.06	23711.89
512.262	23912.6
512.465	23996.56
512.667	24293.52
512.87	24350.86
513.072	24393.87
513.274	25057.41
513.477	25348.22
513.679	25387.13
513.881	25989.24
514.084	25987.19
514.286	25895.03
514.488	26239.09
514.69	26726.5
514.893	26710.12
515.095	26886.25
515.297	27129.95
515.499	27281.5
515.701	27895.89
515.904	27889.75
516.106	28211.28
516.308	28694.6
516.51	28878.92
516.712	29091.91
516.914	29136.96
517.116	29399.1
517.318	29800.51
517.52	29777.98
517.722	30326.83
517.925	30470.19
518.127	31193.12
518.329	31053.86
518.531	30949.42
518.733	31615.01
518.935	31819.8
519.136	32194.58
519.338	32419.86
519.54	32385.04
519.742	32790.54
519.944	32952.33
520.146	33603.58
520.348	33441.79
520.55	33765.37
520.752	33861.63
520.954	34592.75
521.155	34670.57
521.357	34725.87
521.559	34992.11
521.761	36055
521.963	35829.73
522.164	35719.13
522.366	36110.3
522.568	36331.48
522.77	36405.2
522.971	37111.75
523.173	36890.57
523.375	37128.14
523.576	37197.77
523.778	37398.47
523.98	38412.21
524.181	37996.48
524.383	37912.51
524.584	38610.87
524.786	38868.91
524.988	38412.21
525.189	38842.29
525.391	39245.74
525.592	39579.56
525.794	39483.3
525.995	39813.02
526.197	39911.33
526.398	40107.93
526.6	40308.63
526.801	40370.07
527.003	40722.32
527.204	40753.04
527.406	40880.02
527.607	40886.16
527.808	41314.19
528.01	40415.13
528.211	40888.21
528.412	42299.26
528.614	41672.58
528.815	41648
529.016	42037.12
529.218	41500.55
529.419	41561.99
529.62	42045.31
529.822	42559.35
530.023	42237.82
530.224	42166.14
530.425	42094.46
530.626	42305.4
530.828	42033.02
531.029	43083.63
531.23	42334.07
531.431	42639.22
531.632	42719.09
531.833	43143.02
532.035	42987.38
532.236	42954.61
532.437	43179.89
532.638	42686.32
532.839	43237.23
533.04	43394.92
533.241	43038.58
533.442	43702.12
533.643	43102.06
533.844	43276.14
534.045	43456.36
534.246	43493.22
534.447	43749.22
534.648	43315.05
534.849	43517.8
535.05	43071.34
535.251	43341.67
535.451	43163.5
535.652	43341.67
535.853	43450.22
536.054	43497.32
536.255	43167.6
536.456	43126.64
536.657	43759.46
536.857	43212.65
537.058	43376.49
537.259	43874.15
537.46	43896.67
537.66	43847.52
537.861	43956.07
538.062	43356.01
538.263	43595.62
538.463	43095.92
538.664	43384.68
538.865	43849.57
539.065	43810.66
539.266	43241.32
539.466	43968.35
539.667	43143.02
539.868	44179.29
540.068	43439.98
540.269	43390.83
540.469	43636.58
540.67	42866.55
540.87	43599.72
541.071	43364.2
541.271	43503.46
541.472	43569
541.672	43335.53
541.873	43683.69
542.073	42964.85
542.274	43595.62
542.474	43247.47
542.675	43069.29
542.875	43491.18
543.075	43394.92
543.276	42970.99
543.476	43536.23
543.676	43339.63
543.877	43630.44
544.077	43513.7
544.277	43405.16
544.478	43515.75
544.678	43442.03
544.878	43343.72
545.078	43364.2
545.279	43005.81
545.479	43310.96
545.679	43386.73
545.879	43222.89
546.079	42876.79
546.28	43192.17
546.48	42981.23
546.68	43552.62
546.88	43384.68
547.08	43300.72
547.28	43128.69
547.48	42979.18
547.68	43042.67
547.88	42899.31
548.081	43120.49
548.281	43007.86
548.481	43310.96
548.681	43741.03
548.881	43257.71
549.081	43466.6
549.28	42977.14
549.48	43552.62
549.68	43358.06
549.88	43718.5
550.08	42915.7
550.28	42997.62
550.48	43446.12
550.68	43255.66
550.88	43026.29
551.08	42987.38
551.279	43134.83
551.479	42635.13
551.679	43016.05
551.879	42893.17
552.079	43114.35
552.278	42864.5
552.478	43173.74
552.678	43134.83
552.878	43286.38
553.077	42841.97
553.277	42430.33
553.477	43259.76
553.676	42813.3
553.876	42495.86
554.076	42442.62
554.275	42438.52
554.475	42262.4
554.674	42776.44
554.874	42557.3
555.074	42690.42
555.273	42817.39
555.473	42807.15
555.672	42471.29
555.872	42293.11
556.071	42299.26
556.271	42602.36
556.47	42381.18
556.67	42024.83
556.869	42284.92
557.068	42364.79
557.268	41908.1
557.467	42397.56
557.667	42020.73
557.866	42135.42
558.065	41709.44
558.265	41684.87
558.464	41766.79
558.663	42225.53
558.863	41349
559.062	42229.63
559.261	41611.14
559.461	41996.16
559.66	41514.89
559.859	41676.68
560.058	41379.72
560.258	41715.59
560.457	41201.55
560.656	41682.82
560.855	41351.05
561.054	41262.99
561.253	40769.43
561.453	41271.18
561.652	41037.71
561.851	41199.5
562.05	41187.21
562.249	41185.16
562.448	41029.52
562.647	40734.61
562.846	40742.8
563.045	40402.84
563.244	40294.3
563.443	40615.83
563.642	39741.35
563.841	40372.12
564.04	39882.66
564.239	40769.43
564.438	40132.51
564.637	40226.71
564.836	40411.03
565.035	39960.48
565.234	39845.79
565.432	39792.54
565.631	39628.71
565.83	39882.66
566.029	39509.93
566.228	39550.88
566.427	39557.03
566.625	38981.55
566.824	38604.72
567.023	39385
567.222	38641.59
567.42	39206.83
567.619	38723.51
567.818	38922.16
568.016	38711.22
568.215	38791.09
568.414	38465.46
568.612	38748.08
568.811	38498.23
569.01	38594.48
569.208	38008.76
569.407	38633.39
569.605	37570.5
569.804	38348.73
570.002	37756.86
570.201	38334.39
570.4	37744.58
570.598	37830.59
570.797	37410.76
570.995	37539.78
571.193	37081.03
571.392	37773.25
571.59	37162.95
571.789	37191.62
571.987	37175.24
572.186	37005.26
572.384	36667.34
572.582	36792.27
572.781	37058.51
572.979	36669.39
573.177	36515.79
573.376	36718.54
573.574	36161.5
573.772	36718.54
573.971	36057.05
574.169	35913.69
574.367	35631.07
574.565	36202.46
574.763	35821.53
574.962	35696.61
575.16	35180.52
575.358	35745.76
575.556	34914.28
575.754	35956.7
575.952	35082.22
576.151	35725.28
576.349	34932.71
576.547	34983.91
576.745	35104.74
576.943	35096.55
577.141	34775.02
577.339	35149.8
577.537	34746.35
577.735	34361.33
577.933	34756.59
578.131	34582.51
578.329	34091
578.527	33939.45
578.725	34486.26
578.923	34091
579.121	34222.07
579.319	34125.82
579.516	34095.1
579.714	33597.44
579.912	34000.89
580.11	33597.44
580.308	33986.55
580.506	33525.76
580.704	33073.16
580.901	33411.07
581.099	33636.35
581.297	33206.28
581.495	32921.61
581.692	33329.16
581.89	32878.6
582.088	33083.4
582.285	32405.52
582.483	32821.26
582.681	32944.14
582.878	32626.7
583.076	32233.49
583.274	32446.48
583.471	32253.97
583.669	32208.92
583.866	32262.16
584.064	32434.19
584.262	31754.27
584.459	32182.29
584.657	31936.54
584.854	32428.05
585.052	31756.32
585.249	31739.93
585.447	31887.39
585.644	31172.64
585.841	31371.3
586.039	31250.47
586.236	30756.91
586.434	31170.6
586.631	30896.17
586.828	31162.4
587.026	30961.7
587.223	30982.18
587.42	30568.49
587.618	30896.17
587.815	30324.79
588.012	30720.04
588.21	29911.1
588.407	30693.42
588.604	30613.55
588.801	30330.93
588.999	29855.8
589.196	30230.58
589.393	29882.42
589.59	29927.48
589.787	29943.86
589.984	29659.2
590.182	29661.24
590.379	29397.06
590.576	29065.28
590.773	29544.51
590.97	29345.86
591.167	29335.62
591.364	28913.73
591.561	28987.46
591.758	28770.38
591.955	28770.38
592.152	28973.13
592.349	28919.88
592.546	28923.97
592.743	28639.31
592.94	28151.89
593.137	28459.09
593.334	28479.57
593.531	28233.81
593.727	28483.66
593.924	28037.2
594.121	27713.63
594.318	27906.13
594.515	27824.22
594.712	28141.65
594.908	27826.26
595.105	27988.05
595.302	27529.31
595.499	27756.63
595.696	27650.14
595.892	27431.01
596.089	27572.32
596.286	27156.58
596.482	27220.06
596.679	27371.61
596.876	27371.61
597.072	26945.64
597.269	27148.39
597.466	26845.29
597.662	26671.21
597.859	26804.33
598.055	26841.19
598.252	26681.45
598.448	26267.76
598.645	26388.59
598.841	26234.99
599.038	25974.9
599.234	26132.59
599.431	26040.43
599.627	25915.51
599.824	25849.97
600.02	25927.8
600.217	26185.84
600.413	25833.59
600.609	25356.41
600.806	25405.56
601.002	25446.52
601.198	25467
601.395	25278.59
601.591	25372.8
601.787	25270.4
601.984	25223.3
602.18	25292.93
602.376	25024.64
602.572	25051.27
602.769	24967.3
602.965	24643.72
603.161	24785.03
603.357	24717.45
603.553	24459.4
603.75	24524.94
603.946	24332.43
604.142	24613
604.338	23824.53
604.534	24176.78
604.73	23685.27
604.926	24154.26
605.122	24039.57
605.318	23890.07
605.514	23687.32
605.71	23718.04
605.906	23894.16
606.102	23513.24
606.298	23638.17
606.494	23693.46
606.69	23822.48
606.886	23781.53
607.082	23183.52
607.278	23533.72
607.474	22878.37
607.67	23457.95
607.866	23009.44
608.062	23195.81
608.257	22929.57
608.453	23146.65
608.649	23226.53
608.845	22593.7
609.041	22900.9
609.236	23007.39
609.432	22861.99
609.628	22493.35
609.824	22784.16
610.019	22718.63
610.215	22747.3
610.411	22673.57
610.606	22456.49
610.802	22501.54
610.998	22683.81
611.193	22251.69
611.389	22157.49
611.584	22370.47
611.78	22192.3
611.976	21846.19
612.171	22036.66
612.367	22180.01
612.562	21903.54
612.758	22038.7
612.953	22003.89
613.149	21983.41
613.344	21889.2
613.539	22126.77
613.735	21844.15
613.93	21913.78
614.126	21919.92
614.321	22098.09
614.517	21842.1
614.712	21641.4
614.907	21522.62
615.103	21575.86
615.298	21450.94
615.493	21706.93
615.688	21516.47
615.884	21821.62
616.079	21188.8
616.274	21252.28
616.47	21358.78
616.665	21283
616.86	21022.91
617.055	21121.21
617.25	21135.55
617.445	21385.4
617.641	20795.59
617.836	21330.11
618.031	20859.07
618.226	20918.46
618.421	20887.75
618.616	21018.82
618.811	20347.08
619.006	20648.13
619.201	20281.55
619.396	20543.69
619.591	20216.01
619.786	20951.23
619.981	20089.04
620.176	20299.98
620.371	20013.26
620.566	20179.15
620.761	19814.61
620.956	20234.44
621.151	19714.26
621.346	19912.91
621.541	19437.78
621.735	20021.45
621.93	19202.27
622.125	19351.77
622.32	19032.29
622.515	19384.54
622.709	19114.2
622.904	19194.08
623.099	19067.1
623.294	19013.85
623.488	18579.68
623.683	18671.84
623.878	18438.37
624.072	18553.06
624.267	18399.46
624.462	18219.24
624.656	18419.94
624.851	17885.42
625.046	17885.42
625.24	17965.29
625.435	17897.71
625.629	17674.48
625.824	17764.59
626.018	17328.38
626.213	17213.69
626.407	17463.54
626.602	16978.17
626.796	17348.86
626.991	17361.14
627.185	17076.48
627.38	16965.89
627.574	16781.57
627.768	16496.9
627.963	16492.8
628.157	16451.84
628.352	16724.22
628.546	16402.69
628.74	16371.97
628.935	15888.65
629.129	16255.24
629.323	16025.87
629.517	15948.04
629.712	15984.91
629.906	16085.26
630.1	15741.2
630.294	15751.44
630.489	15614.23
630.683	15513.88
630.877	15247.64
631.071	15415.57
631.265	15257.88
631.459	15208.73
631.653	14960.92
631.848	15239.45
632.042	14938.4
632.236	14926.11
632.43	15001.88
632.624	14651.68
632.818	14666.02
633.012	14432.55
633.206	14506.27
633.4	14500.13
633.594	14119.21
633.788	14356.77
633.982	14170.41
634.176	13963.56
634.369	14094.63
634.563	13830.44
634.757	13730.09
634.951	13908.27
635.145	13969.71
635.339	13879.6
635.533	13549.87
635.726	13527.35
635.92	13381.94
636.114	13402.42
636.308	13279.54
636.501	13238.58
636.695	13379.89
636.889	13095.22
637.083	13109.56
637.276	13136.18
637.47	12949.82
637.664	12968.25
637.857	12773.69
638.051	12998.97
638.244	12552.51
638.438	12706.11
638.632	12478.79
638.825	12683.58
639.019	12552.51
639.212	12247.37
639.406	12265.8
639.599	12298.56
639.793	12106.06
639.986	11891.02
640.18	12280.13
640.373	12087.62
640.567	11637.07
640.76	11950.41
640.954	11682.13
641.147	11647.31
641.34	11559.25
641.534	11768.14
641.727	11546.96
641.92	11510.1
642.114	11442.51
642.307	11274.58
642.5	11188.57
642.694	11059.54
642.887	11016.54
643.08	10940.76
643.273	10885.47
643.467	10770.78
643.66	10809.69
643.853	10905.95
644.046	10668.38
644.239	10879.32
644.432	10574.17
644.626	10639.71
644.819	10525.02
645.012	10412.39
645.205	10525.02
645.398	10441.06
645.591	10273.12
645.784	10314.08
645.977	9920.87
646.17	10234.21
646.363	10092.9
646.556	10174.82
646.749	9869.67
646.942	10178.92
647.135	9675.12
647.328	9804.14
647.521	9855.34
647.714	9498.99
647.907	9666.92
648.099	9681.26
648.292	9728.36
648.485	9601.39
648.678	9605.49
648.871	9367.92
649.064	9351.54
649.256	9347.44
649.449	9335.15
649.642	9259.38
649.835	9333.11
650.027	9279.86
650.22	9060.73
650.413	9021.81
650.605	9091.45
650.798	8964.47
650.991	8851.83
651.183	9032.05
651.376	8864.12
651.568	8874.36
651.761	8817.02
651.954	8558.97
652.146	8665.47
652.339	8702.33
652.531	8489.34
652.724	8665.47
652.916	8350.08
653.109	8464.77
653.301	8610.17
653.494	8298.88
653.686	8112.52
653.879	8235.39
654.071	8196.48
654.263	8120.71
654.456	8071.56
654.648	8282.5
654.84	7942.53
655.033	7997.83
655.225	8024.45
655.417	7946.63
655.61	7973.25
655.802	7725.45
655.994	7801.22
656.186	7874.95
656.379	7670.15
656.571	7678.35
656.763	7567.76
656.955	7567.76
657.148	7715.21
657.34	7426.45
657.532	7324.05
657.724	7408.01
657.916	7412.11
658.108	7381.39
658.3	7432.59
658.492	7330.19
658.684	7123.35
658.876	7143.83
659.068	7272.85
659.26	7031.19
659.452	7012.76
659.644	7035.28
659.836	7000.47
660.028	7072.15
660.22	7000.47
660.412	6941.08
660.604	6830.49
660.796	6900.12
660.988	6769.05
661.18	6646.17
661.372	6623.64
661.563	6756.76
661.755	6482.33
661.947	6640.03
662.139	6556.06
662.331	6504.86
662.522	6582.68
662.714	6406.56
662.906	6310.3
663.097	6482.33
663.289	6162.85
663.481	6351.26
663.673	6273.44
663.864	6478.24
664.056	6355.36
664.247	6136.23
664.439	6107.55
664.631	6263.2
664.822	6181.28
665.014	5919.14
665.205	6158.75
665.397	5988.77
665.588	6058.4
665.78	6029.73
665.971	5818.79
666.163	5925.29
666.354	5929.38
666.546	5847.46
666.737	5802.41
666.929	5802.41
667.12	5663.15
667.311	5745.06
667.503	5693.87
667.694	5613.99
667.885	5499.31
668.077	5740.97
668.268	5517.74
668.459	5757.35
668.651	5489.07
668.842	5458.35
669.033	5360.05
669.224	5388.72
669.416	5601.71
669.607	5450.16
669.798	5444.01
669.989	5427.63
670.18	5384.62
670.371	5398.96
670.563	5337.52
670.754	5163.44
670.945	5171.63
671.136	5138.87
671.327	5312.94
671.518	5147.06
671.709	5261.74
671.9	5138.87
672.091	5188.02
672.282	5120.43
672.473	5020.08
672.664	5161.39
672.855	4964.79
673.046	4958.64
673.237	4975.03
673.428	5177.78
673.619	5005.75
673.809	4917.68
674	4860.34
674.191	4891.06
674.382	4860.34
674.573	4737.46
674.764	4872.63
674.954	4858.29
675.145	4759.99
675.336	4803
675.527	4747.7
675.717	4637.11
675.908	4729.27
676.099	4841.91
676.289	4798.9
676.48	4721.08
676.671	4729.27
676.861	4708.79
677.052	4633.02
677.243	4559.29
677.433	4555.19
677.624	4604.35
677.814	4485.56
678.005	4608.44
678.195	4549.05
678.386	4557.24
678.576	4471.23
678.767	4446.65
678.957	4473.28
679.148	4682.17
679.338	4553.15
679.529	4622.78
679.719	4493.76
679.909	4465.08
680.1	4305.34
680.29	4463.04
680.481	4409.79
680.671	4352.45
680.861	4307.39
681.052	4368.83
681.242	4256.19
681.432	4377.02
681.622	4317.63
681.813	4295.1
682.003	4284.86
682.193	4227.52
682.383	4286.91
682.573	4325.82
682.764	4323.77
682.954	4336.06
683.144	4217.28
683.334	4387.26
683.524	4192.7
683.714	4248
683.904	4178.37
684.094	4073.92
684.284	4227.52
684.474	4170.18
684.664	4075.97
684.854	4123.07
685.044	4166.08
685.234	4118.98
685.424	4055.49
685.614	4084.16
685.804	4153.79
685.994	4053.44
686.184	4106.69
686.374	4045.25
686.564	3891.65
686.753	3946.95
686.943	4051.39
687.133	4012.48
687.323	3914.18
687.513	3953.09
687.702	3914.18
687.892	3885.51
688.082	3887.56
688.272	3795.4
688.461	3959.24
688.651	3862.98
688.841	3838.41
689.03	3793.35
689.22	3781.06
689.41	3752.39
689.599	3774.92
689.789	3774.92
689.979	3686.86
690.168	3668.42
690.358	3680.71
690.547	3633.61
690.737	3615.18
690.926	3576.27
691.116	3717.58
691.305	3672.52
691.495	3420.62
691.684	3602.89
691.874	3537.35
692.063	3523.02
692.252	3633.61
692.442	3723.72
692.631	3463.63
692.82	3498.44
693.01	3496.39
693.199	3437
693.388	3273.17
693.578	3543.5
693.767	3336.65
693.956	3443.15
694.146	3365.32
694.335	3461.58
694.524	3422.67
694.713	3324.37
694.902	3379.66
695.092	3410.38
695.281	3353.04
695.47	3287.5
695.659	3242.45
695.848	3217.87
696.037	3363.28
696.226	3312.08
696.415	3461.58
696.604	3283.41
696.793	3283.41
696.982	3344.84
697.171	3410.38
697.36	3295.69
697.549	3234.25
697.738	3377.61
697.927	3185.1
698.116	3246.54
698.305	3199.44
698.494	3346.89
698.683	3258.83
698.872	3273.17
699.061	3324.37
699.25	3236.3
699.438	3150.29
699.627	3260.88
699.816	3365.32
700.005	3293.65
700.193	3226.06
700.382	3275.21
700.571	3209.68
700.76	3176.91
700.948	3203.54
701.137	3213.77
701.326	3103.18
701.514	3140.05
701.703	3244.49
701.892	3127.76
702.08	3226.06
702.269	3295.69
702.457	3174.86
702.646	3209.68
702.834	3062.23
703.023	3195.34
703.212	3092.94
703.4	3094.99
703.589	3107.28
703.777	3189.2
703.965	3252.69
704.154	3066.32
704.342	3183.06
704.531	3185.1
704.719	3080.66
704.907	3221.97
705.096	3099.09
705.284	3097.04
705.472	3148.24
705.661	3049.94
705.849	3051.99
706.037	3097.04
706.226	3142.1
706.414	3033.55
706.602	3215.82
706.79	3060.18
706.979	3076.56
707.167	3148.24
707.355	3047.89
707.543	3142.1
707.731	3090.9
707.919	3027.41
708.107	3168.72
708.296	2957.78
708.484	3013.07
708.672	3039.7
708.86	3086.8
709.048	3082.7
709.236	3008.98
709.424	3060.18
709.612	3090.9
709.8	2972.11
709.988	3025.36
710.176	2951.63
710.364	3035.6
710.551	3023.31
710.739	2968.02
710.927	3148.24
711.115	2939.35
711.303	3021.27
711.491	2888.15
711.679	2906.58
711.866	2996.69
712.054	3023.31
712.242	2849.24
712.43	2992.59
712.617	3023.31
712.805	2859.48
712.993	3000.79
713.181	2894.29
713.368	2886.1
713.556	3023.31
713.744	2988.5
713.931	3054.03
714.119	3017.17
714.306	3025.36
714.494	2888.15
714.682	2877.91
714.869	3002.83
715.057	2998.74
715.244	2861.52
715.432	2953.68
715.619	2847.19
715.807	2980.31
715.994	2859.48
716.182	2982.35
716.369	2972.11
716.556	2925.01
716.744	3000.79
716.931	2941.4
717.119	2947.54
717.306	2882
717.493	2857.43
717.681	2918.87
717.868	2820.56
718.055	2947.54
718.242	2904.53
718.43	2978.26
718.617	2935.25
718.804	2857.43
718.991	2894.29
719.179	2953.68
719.366	2853.33
719.553	2941.4
719.74	2900.44
719.927	2791.89
720.114	2849.24
720.301	2847.19
720.488	2910.68
720.676	2787.8
720.863	2673.11
721.05	2914.77
721.237	2836.95
721.424	2873.81
721.611	2804.18
721.798	2845.14
721.985	2789.85
722.172	2793.94
722.358	2800.09
722.545	2703.83
722.732	2800.09
722.919	2802.13
723.106	2841.04
723.293	2814.42
723.48	2750.93
723.667	2824.66
723.853	2671.06
724.04	2795.99
724.227	2734.55
724.414	2677.21
724.6	2585.05
724.787	2810.33
724.974	2759.13
725.161	2814.42
725.347	2673.11
725.534	2732.5
725.72	2779.61
725.907	2638.3
726.094	2748.89
726.28	2673.11
726.467	2810.33
726.653	2699.73
726.84	2761.17
727.027	2783.7
727.213	2734.55
727.4	2851.28
727.586	2836.95
727.773	2697.69
727.959	2687.45
728.145	2746.84
728.332	2748.89
728.518	2683.35
728.705	2757.08
728.891	2677.21
729.077	2666.97
729.264	2632.15
729.45	2630.1
729.636	2707.93
729.823	2683.35
730.009	2673.11
730.195	2636.25
730.382	2685.4
730.568	2699.73
730.754	2732.5
730.94	2607.58
731.126	2681.3
731.313	2742.74
731.499	2687.45
731.685	2693.59
731.871	2748.89
732.057	2683.35
732.243	2677.21
732.429	2687.45
732.615	2755.03
732.801	2679.26
732.987	2689.49
733.173	2658.78
733.359	2605.53
733.545	2752.98
733.731	2685.4
733.917	2601.43
734.103	2736.6
734.289	2648.54
734.475	2738.65
734.661	2656.73
734.847	2701.78
735.033	2623.96
735.219	2595.29
735.404	2671.06
735.59	2714.07
735.776	2693.59
735.962	2830.8
736.148	2660.82
736.333	2632.15
736.519	2564.57
736.705	2490.84
736.89	2726.36
737.076	2599.38
737.262	2546.14
737.447	2535.9
737.633	2501.08
737.819	2599.38
738.004	2513.37
738.19	2644.44
738.375	2548.19
738.561	2593.24
738.747	2529.75
738.932	2554.33
739.118	2685.4
739.303	2556.38
739.489	2558.42
739.674	2429.4
739.859	2486.75
740.045	2490.84
740.23	2480.6
740.416	2482.65
740.601	2496.99
740.786	2410.97
740.972	2529.75
741.157	2583
741.342	2558.42
741.528	2460.12
741.713	2335.2
741.898	2341.34
742.084	2427.35
742.269	2394.59
742.454	2439.64
742.639	2320.86
742.824	2398.68
743.01	2351.58
743.195	2456.03
743.38	2415.07
743.565	2410.97
743.75	2302.43
743.935	2370.01
744.12	2357.72
744.305	2402.78
744.49	2294.24
744.675	2353.63
744.86	2204.13
745.045	2277.85
745.23	2210.27
745.415	2308.57
745.6	2107.87
745.785	2169.31
745.97	2181.6
746.155	2193.89
746.34	2279.9
746.525	2114.02
746.71	2132.45
746.895	2071.01
747.079	2071.01
747.264	2071.01
747.449	2126.3
747.634	2005.47
747.819	2146.78
748.003	2128.35
748.188	2011.62
748.373	2064.86
748.557	2071.01
748.742	1972.71
748.927	2091.49
749.111	1989.09
749.296	1974.75
749.481	2007.52
749.665	1825.25
749.85	1911.27
750.034	1964.51
750.219	1862.12
750.404	1880.55
750.588	1894.88
750.773	1884.64
750.957	1882.6
751.141	1847.78
751.326	1933.79
751.51	1858.02
751.695	1712.61
751.879	1855.97
752.064	1960.42
752.248	1667.56
752.432	1751.53
752.617	1710.57
752.801	1860.07
752.985	1778.15
753.17	1870.31
753.354	1673.7
753.538	1788.39
753.722	1710.57
753.907	1712.61
754.091	1690.09
754.275	1714.66
754.459	1681.89
754.643	1690.09
754.828	1677.8
755.012	1485.29
755.196	1630.7
755.38	1481.19
755.564	1604.07
755.748	1651.17
755.932	1468.91
756.116	1554.92
756.3	1497.58
756.484	1583.59
756.668	1673.7
756.852	1534.44
757.036	1624.55
757.22	1513.96
757.404	1501.67
757.588	1493.48
757.772	1493.48
757.956	1454.57
758.14	1397.23
758.323	1393.13
758.507	1413.61
758.691	1358.32
758.875	1415.66
759.059	1446.38
759.242	1317.36
759.426	1378.79
759.61	1352.17
759.794	1352.17
759.977	1411.56
760.161	1395.18
760.345	1386.99
760.528	1348.08
760.712	1329.64
760.895	1343.98
761.079	1321.45
761.263	1149.42
761.446	1204.72
761.63	1360.36
761.813	1221.1
761.997	1214.96
762.18	1317.36
762.364	1194.48
762.547	1178.09
762.731	1255.92
762.914	1247.72
763.098	1298.92
763.281	1206.77
763.464	1167.85
763.648	1262.06
763.831	1171.95
764.015	1204.72
764.198	1225.2
764.381	1255.92
764.564	1169.9
764.748	1157.61
764.931	1214.96
765.114	1225.2
765.297	1151.47
765.481	1249.77
765.664	1133.04
765.847	1083.89
766.03	1171.95
766.213	1151.47
766.397	1163.76
766.58	1118.7
766.763	1044.98
766.946	1073.65
767.129	1008.11
767.312	1159.66
767.495	1087.98
767.678	1063.41
767.861	1149.42
768.044	1128.94
768.227	1165.81
768.41	1077.74
768.593	1030.64
768.776	1063.41
768.959	1032.69
769.142	1022.45
769.324	1018.35
769.507	1063.41
769.69	1069.55
769.873	1114.61
770.056	1024.5
770.239	997.87
770.421	1006.06
770.604	1008.11
770.787	1075.7
770.97	989.68
771.152	1026.54
771.335	963.06
771.518	1055.22
771.7	991.73
771.883	1053.17
772.066	1008.11
772.248	975.35
772.431	961.01
772.613	975.35
772.796	944.63
772.978	999.92
773.161	1028.59
773.343	899.57
773.526	868.85
773.708	1004.02
773.891	879.09
774.073	805.36
774.256	899.57
774.438	950.77
774.621	778.74
774.803	918
774.985	842.23
775.168	874.99
775.35	913.91
775.532	791.03
775.715	799.22
775.897	774.64
776.079	813.56
776.261	856.56
776.444	770.55
776.626	866.8
776.808	803.32
776.99	834.04
777.173	836.08
777.355	844.28
777.537	799.22
777.719	758.26
777.901	805.36
778.083	803.32
778.265	821.75
778.447	764.4
778.629	760.31
778.811	723.44
778.993	676.34
779.175	696.82
779.357	737.78
779.539	711.16
779.721	788.98
779.903	723.44
780.085	733.68
780.267	717.3
780.449	756.21
780.631	664.05
780.812	694.77
780.994	682.49
781.176	666.1
781.358	662.01
781.54	627.19
781.721	657.91
781.903	680.44
782.085	639.48
782.267	678.39
782.448	709.11
782.63	573.94
782.812	651.77
782.993	612.85
783.175	590.33
783.357	547.32
783.538	625.14
783.72	621.05
783.901	627.19
784.083	524.79
784.264	549.37
784.446	553.46
784.627	582.14
784.809	496.12
784.99	571.9
785.172	526.84
785.353	559.61
785.535	573.94
785.716	506.36
785.897	633.33
786.079	528.89
786.26	555.51
786.441	561.66
786.623	506.36
786.804	506.36
786.985	625.14
787.167	619
787.348	565.75
787.529	508.41
787.71	422.39
787.891	504.31
788.073	559.61
788.254	514.55
788.435	510.46
788.616	514.55
788.797	498.17
788.978	449.02
789.159	506.36
789.34	512.5
789.522	451.07
789.703	422.39
789.884	418.3
790.065	406.01
790.246	451.07
790.427	399.87
790.607	496.12
790.788	543.22
790.969	391.67
791.15	379.39
791.331	426.49
791.512	440.83
791.693	442.87
791.874	502.26
792.054	469.5
792.235	459.26
792.416	444.92
792.597	360.95
792.778	332.28
792.958	356.86
793.139	336.38
793.32	389.63
793.5	389.63
793.681	371.19
793.862	416.25
794.042	324.09
794.223	338.43
794.404	428.54
794.584	320
794.765	348.67
794.945	399.87
795.126	383.48
795.306	322.04
795.487	385.53
795.667	338.43
795.848	354.81
796.028	328.19
796.209	295.42
796.389	360.95
796.57	324.09
796.75	367.1
796.93	420.35
797.111	281.08
797.291	426.49
797.471	268.8
797.652	256.51
797.832	328.19
798.012	363
798.192	303.61
798.373	379.39
798.553	346.62
798.733	305.66
798.913	303.61
799.093	330.23
799.274	324.09
799.454	289.28
799.634	297.47
799.814	317.95
799.994	283.13
800.174	320
800.354	285.18
800.534	287.23
800.714	289.28
800.894	356.86
801.074	315.9
801.254	313.85
801.434	324.09
801.614	328.19
801.794	264.7
801.974	678.39
802.154	268.8
802.334	262.65
802.514	174.59
802.693	272.89
802.873	266.75
803.053	276.99
803.233	301.56
803.413	326.14
803.592	246.27
803.772	225.79
803.952	301.56
804.131	252.41
804.311	283.13
804.491	297.47
804.67	236.03
804.85	213.5
805.03	272.89
805.209	338.43
805.389	256.51
805.568	246.27
805.748	201.21
805.928	256.51
806.107	276.99
806.287	258.56
806.466	256.51
806.646	266.75
806.825	211.45
807.004	199.16
807.184	233.98
807.363	264.7
807.543	195.07
807.722	186.88
807.901	223.74
808.081	242.17
808.26	209.4
808.439	256.51
808.619	213.5
808.798	231.93
808.977	256.51
809.156	215.55
809.336	244.22
809.515	137.73
809.694	225.79
809.873	276.99
810.052	213.5
810.231	279.04
810.411	201.21
810.59	303.61
810.769	254.46
810.948	217.6
811.127	199.16
811.306	162.3
811.485	199.16
811.664	190.97
811.843	209.4
812.022	225.79
812.201	170.49
812.38	164.35
812.559	160.25
812.737	199.16
812.916	166.4
813.095	172.54
813.274	193.02
813.453	262.65
813.632	272.89
813.811	248.32
813.989	121.34
814.168	236.03
814.347	188.93
814.526	147.97
814.704	213.5
814.883	178.69
815.062	152.06
815.24	276.99
815.419	139.77
815.598	215.55
815.776	211.45
815.955	158.21
816.133	236.03
816.312	152.06
816.49	156.16
816.669	203.26
816.847	203.26
817.026	233.98
817.204	139.77
817.383	178.69
817.561	82.43
817.74	217.6
817.918	143.87
818.097	152.06
818.275	158.21
818.453	145.92
818.632	162.3
818.81	154.11
818.988	190.97
819.167	115.2
819.345	164.35
819.523	109.05
819.701	131.58
819.879	168.45
820.058	166.4
820.236	164.35
820.414	127.49
820.592	76.29
820.77	139.77
820.948	100.86
821.127	127.49
821.305	150.01
821.483	217.6
821.661	193.02
821.839	182.78
822.017	92.67
822.195	158.21
822.373	141.82
822.551	137.73
822.729	195.07
822.907	150.01
823.085	117.25
823.262	162.3
823.44	176.64
823.618	129.53
823.796	121.34
823.974	131.58
824.152	125.44
824.329	178.69
824.507	152.06
824.685	119.29
824.863	129.53
825.04	147.97
825.218	94.72
825.396	102.91
825.574	115.2
825.751	172.54
825.929	125.44
826.107	150.01
826.284	162.3
826.462	57.86
826.639	176.64
826.817	88.57
826.994	90.62
827.172	111.1
827.349	248.32
827.527	131.58
827.704	147.97
827.882	141.82
828.059	137.73
828.237	129.53
828.414	164.35
828.591	121.34
828.769	154.11
828.946	49.66
829.124	147.97
829.301	111.1
829.478	174.59
829.655	145.92
829.833	115.2
830.01	141.82
830.187	160.25
830.364	98.81
830.542	133.63
830.719	145.92
830.896	158.21
831.073	119.29
831.25	170.49
831.427	98.81
831.604	74.24
831.782	100.86
831.959	115.2
832.136	113.15
832.313	193.02
832.49	27.14
832.667	164.35
832.844	113.15
833.021	160.25
833.198	84.48
833.374	88.57
833.551	115.2
833.728	51.71
833.905	133.63
834.082	78.33
834.259	150.01
834.436	68.09
834.612	94.72
834.789	231.93
834.966	70.14
835.143	82.43
835.319	104.96
835.496	84.48
835.673	66.05
835.85	57.86
836.026	109.05
836.203	72.19
836.38	64
836.556	92.67
836.733	92.67
836.909	113.15
837.086	72.19
837.262	45.57
837.439	27.14
837.616	94.72
837.792	147.97
837.968	55.81
838.145	57.86
838.321	84.48
838.498	90.62
838.674	49.66
838.851	96.77
839.027	150.01
839.203	115.2
839.38	92.67
839.556	129.53
839.732	176.64
839.909	121.34
840.085	164.35
840.261	74.24
840.437	158.21
840.614	76.29
840.79	82.43
840.966	31.23
841.142	64
841.318	100.86
841.494	133.63
841.671	90.62
841.847	104.96
842.023	88.57
842.199	27.14
842.375	90.62
842.551	78.33
842.727	25.09
842.903	111.1
843.079	61.95
843.255	25.09
843.431	64
843.607	66.05
843.783	12.8
843.959	74.24
844.134	84.48
844.31	61.95
844.486	80.38
844.662	51.71
844.838	100.86
845.013	117.25
845.189	-26.11
845.365	117.25
845.541	14.85
845.716	55.81
845.892	-9.73
846.068	10.75
846.244	14.85
846.419	88.57
846.595	25.09
846.77	-15.87
846.946	88.57
847.122	78.33
847.297	104.96
847.473	-30.21
847.648	66.05
847.824	64
847.999	59.9
848.175	78.33
848.35	16.9
848.526	43.52
848.701	111.1
848.876	100.86
849.052	59.9
849.227	64
849.403	43.52
849.578	43.52
849.753	55.81
849.929	66.05
850.104	96.77
850.279	78.33
850.454	86.53
850.63	68.09
850.805	23.04
850.98	43.52
851.155	117.25
851.33	78.33
851.505	18.94
851.681	111.1
851.856	43.52
852.031	55.81
852.206	41.47
852.381	4.61
852.556	25.09
852.731	37.38
852.906	-15.87
853.081	51.71
853.256	84.48
853.431	-15.87
853.606	74.24
853.781	-1.54
853.956	49.66
854.131	74.24
854.305	-13.82
854.48	76.29
854.655	53.76
854.83	47.62
855.005	31.23
855.18	84.48
855.354	-3.58
855.529	72.19
855.704	123.39
855.879	76.29
856.053	74.24
856.228	119.29
856.403	43.52
856.577	84.48
856.752	33.28
856.926	-3.58
857.101	53.76
857.276	0.51
857.45	39.42
857.625	10.75
857.799	23.04
857.974	82.43
858.148	39.42
858.323	6.66
858.497	66.05
858.672	68.09
858.846	33.28
859.02	31.23
859.195	12.8
859.369	68.09
859.543	16.9
859.718	10.75
859.892	33.28
860.066	2.56
860.241	37.38
860.415	4.61
860.589	61.95
860.763	57.86
860.938	-1.54
861.112	53.76
861.286	45.57
861.46	47.62
861.634	68.09
861.808	-1.54
861.982	4.61
862.157	68.09
862.331	35.33
862.505	68.09
862.679	115.2
862.853	51.71
863.027	-9.73
863.201	80.38
863.375	-52.74
863.549	-3.58
863.722	64
863.896	45.57
864.07	47.62
864.244	107.01
864.418	-32.26
864.592	-22.02
864.766	31.23
864.939	-5.63
865.113	51.71
865.287	72.19
865.461	-24.06
865.634	55.81
865.808	51.71
865.982	14.85
866.156	49.66
866.329	0.51
866.503	82.43
866.676	74.24
866.85	74.24
867.024	64
867.197	6.66
867.371	43.52
867.544	66.05
867.718	35.33
867.891	16.9
868.065	23.04
868.238	90.62
868.412	55.81
868.585	86.53
868.759	39.42
868.932	33.28
869.105	4.61
869.279	-36.35
869.452	45.57
869.625	35.33
869.799	68.09
869.972	0.51
870.145	0.51
870.319	80.38
870.492	76.29
870.665	94.72
870.838	64
871.011	-24.06
871.185	59.9
871.358	-22.02
871.531	53.76
871.704	72.19
871.877	53.76
872.05	10.75
872.223	41.47
872.396	2.56
872.569	86.53
872.742	-13.82
872.915	23.04
873.088	43.52
873.261	61.95
873.434	78.33
873.607	-5.63
873.78	29.18
873.953	61.95
874.126	-13.82
874.299	59.9
874.471	45.57
874.644	35.33
874.817	20.99
874.99	49.66
875.163	-13.82
875.335	49.66
875.508	80.38
875.681	51.71
875.853	-67.07
876.026	25.09
876.199	8.7
876.371	74.24
876.544	-11.78
876.717	-22.02
876.889	41.47
877.062	23.04
877.234	-5.63
877.407	18.94
877.579	20.99
877.752	-9.73
877.924	39.42
878.097	10.75
878.269	-11.78
878.442	4.61
878.614	-5.63
878.786	33.28
878.959	18.94
879.131	-5.63
879.303	16.9
879.476	4.61
879.648	-17.92
879.82	45.57
879.993	137.73
880.165	-5.63
880.337	-79.36
880.509	12.8
880.681	45.57
880.854	20.99
881.026	-1.54
881.198	2.56
881.37	53.76
881.542	39.42
881.714	-1.54
881.886	6.66
882.058	-13.82
882.23	92.67
882.402	18.94
882.574	-17.92
882.746	0.51
882.918	51.71
883.09	-30.21
883.262	20.99
883.434	45.57
883.606	68.09
883.778	37.38
883.95	61.95
884.122	0.51
884.293	57.86
884.465	-1.54
884.637	-3.58
884.809	29.18
884.98	25.09
885.152	64
885.324	-3.58
885.496	10.75
885.667	27.14
885.839	-5.63
886.011	8.7
886.182	27.14
886.354	39.42
886.525	-30.21
886.697	-24.06
886.869	-50.69
887.04	18.94
887.212	-17.92
887.383	37.38
887.555	41.47
887.726	45.57
887.897	-46.59
888.069	4.61
888.24	-3.58
888.412	-17.92
888.583	47.62
888.754	-17.92
888.926	-62.98
889.097	-17.92
889.268	-30.21
889.44	16.9
889.611	39.42
889.782	45.57
889.953	27.14
890.125	-42.5
890.296	-67.07
890.467	-54.78
890.638	39.42
890.809	29.18
890.98	39.42
891.151	14.85
891.323	23.04
891.494	0.51
891.665	27.14
891.836	6.66
892.007	-11.78
892.178	25.09
892.349	-30.21
892.52	12.8
892.691	-1.54
892.862	8.7
893.032	16.9
893.203	10.75
893.374	55.81
893.545	35.33
893.716	4.61
893.887	49.66
894.057	6.66
894.228	61.95
894.399	-28.16
894.57	29.18
894.74	55.81
894.911	45.57
895.082	-56.83
895.253	-1.54
895.423	14.85
895.594	39.42
895.764	57.86
895.935	33.28
896.106	-22.02
896.276	66.05
896.447	41.47
896.617	-15.87
896.788	-34.3
896.958	6.66
897.129	49.66
897.299	2.56
897.47	135.68
897.64	29.18
897.81	-30.21
897.981	39.42
898.151	8.7
898.322	39.42
898.492	113.15
898.662	84.48
898.832	-30.21
899.003	0.51
899.173	-24.06
899.343	-30.21
899.513	27.14
