Data from USB4F104151__56__11-05-54-426.txt Node

Date: Wed Mar 12 11:05:54 EDT 2025
User: louis
Spectrometer: USB4F10415
Trigger mode: 4
Integration Time (sec): 2.000000E-2
Scans to average: 1
Electric dark correction enabled: true
Nonlinearity correction enabled: false
Boxcar width: 0
XAxis mode: Wavelengths
Number of Pixels in Spectrum: 3648
>>>>>Begin Spectral Data<<<<<
178.204	-116.05
178.424	-116.05
178.644	-116.05
178.864	-68.95
179.084	-62.8
179.304	-48.47
179.524	-48.47
179.744	37.55
179.964	29.35
180.184	51.88
180.404	2.73
180.624	-34.13
180.844	-44.37
181.064	21.16
181.283	8.87
181.503	-21.85
181.723	45.74
181.943	-56.66
182.163	-13.65
182.383	80.55
182.602	66.22
182.822	17.07
183.042	37.55
183.262	-23.89
183.482	33.45
183.701	49.83
183.921	-36.18
184.141	31.4
184.361	-3.41
184.58	0.68
184.8	51.88
185.02	-23.89
185.239	92.84
185.459	76.46
185.679	25.26
185.898	-77.14
186.118	15.02
186.338	6.83
186.557	2.73
186.777	2.73
186.997	43.69
187.216	41.64
187.436	-44.37
187.655	45.74
187.875	47.79
188.095	29.35
188.314	94.89
188.534	60.07
188.753	6.83
188.973	-17.75
189.192	27.31
189.412	39.59
189.631	45.74
189.851	86.7
190.07	-9.56
190.29	-40.28
190.509	39.59
190.729	-9.56
190.948	33.45
191.168	29.35
191.387	17.07
191.607	15.02
191.826	70.31
192.045	47.79
192.265	45.74
192.484	23.21
192.704	84.65
192.923	-44.37
193.142	47.79
193.362	23.21
193.581	66.22
193.8	45.74
194.02	76.46
194.239	64.17
194.458	37.55
194.678	113.32
194.897	49.83
195.116	25.26
195.335	66.22
195.555	29.35
195.774	45.74
195.993	47.79
196.212	17.07
196.432	-5.46
196.651	10.92
196.87	-17.75
197.089	74.41
197.308	64.17
197.528	98.99
197.747	43.69
197.966	-54.61
198.185	-13.65
198.404	21.16
198.623	0.68
198.842	-1.37
199.062	53.93
199.281	33.45
199.5	21.16
199.719	-23.89
199.938	39.59
200.157	-15.7
200.376	78.51
200.595	74.41
200.814	27.31
201.033	0.68
201.252	23.21
201.471	-7.51
201.69	115.37
201.909	45.74
202.128	64.17
202.347	45.74
202.566	-54.61
202.785	27.31
203.004	-9.56
203.223	43.69
203.442	17.07
203.661	94.89
203.879	25.26
204.098	25.26
204.317	25.26
204.536	4.78
204.755	-5.46
204.974	51.88
205.193	-3.41
205.411	51.88
205.63	8.87
205.849	53.93
206.068	-5.46
206.287	15.02
206.505	10.92
206.724	-32.08
206.943	0.68
207.162	45.74
207.381	41.64
207.599	66.22
207.818	-23.89
208.037	29.35
208.255	43.69
208.474	45.74
208.693	60.07
208.911	25.26
209.13	-36.18
209.349	0.68
209.567	43.69
209.786	82.6
210.005	45.74
210.223	6.83
210.442	-3.41
210.661	49.83
210.879	76.46
211.098	43.69
211.316	35.5
211.535	33.45
211.753	-19.8
211.972	23.21
212.191	45.74
212.409	-7.51
212.628	68.27
212.846	-1.37
213.065	45.74
213.283	51.88
213.502	76.46
213.72	74.41
213.938	35.5
214.157	21.16
214.375	23.21
214.594	-25.94
214.812	27.31
215.031	-17.75
215.249	4.78
215.467	60.07
215.686	37.55
215.904	80.55
216.122	10.92
216.341	64.17
216.559	41.64
216.778	17.07
216.996	64.17
217.214	-11.61
217.432	10.92
217.651	-15.7
217.869	2.73
218.087	-73.04
218.306	-25.94
218.524	51.88
218.742	37.55
218.96	27.31
219.179	45.74
219.397	60.07
219.615	115.37
219.833	17.07
220.051	25.26
220.27	53.93
220.488	-36.18
220.706	25.26
220.924	74.41
221.142	4.78
221.36	64.17
221.578	21.16
221.796	103.08
222.015	84.65
222.233	27.31
222.451	62.12
222.669	-58.71
222.887	19.11
223.105	15.02
223.323	0.68
223.541	12.97
223.759	47.79
223.977	-5.46
224.195	101.03
224.413	35.5
224.631	39.59
224.849	41.64
225.067	72.36
225.285	86.7
225.503	37.55
225.721	-17.75
225.939	-9.56
226.157	31.4
226.375	29.35
226.592	70.31
226.81	41.64
227.028	27.31
227.246	-9.56
227.464	-5.46
227.682	58.03
227.9	37.55
228.117	113.32
228.335	0.68
228.553	-3.41
228.771	51.88
228.989	39.59
229.206	58.03
229.424	33.45
229.642	25.26
229.86	103.08
230.077	27.31
230.295	-3.41
230.513	96.94
230.731	27.31
230.948	19.11
231.166	80.55
231.384	-15.7
231.601	68.27
231.819	68.27
232.037	-21.85
232.254	35.5
232.472	43.69
232.689	58.03
232.907	23.21
233.125	-7.51
233.342	74.41
233.56	76.46
233.777	4.78
233.995	27.31
234.213	68.27
234.43	45.74
234.648	70.31
234.865	23.21
235.083	51.88
235.3	-11.61
235.518	4.78
235.735	49.83
235.953	39.59
236.17	-25.94
236.388	68.27
236.605	-30.04
236.822	23.21
237.04	74.41
237.257	12.97
237.475	45.74
237.692	33.45
237.909	25.26
238.127	31.4
238.344	70.31
238.562	53.93
238.779	25.26
238.996	-64.85
239.214	25.26
239.431	103.08
239.648	47.79
239.865	-34.13
240.083	25.26
240.3	37.55
240.517	17.07
240.735	37.55
240.952	88.75
241.169	43.69
241.386	29.35
241.603	51.88
241.821	58.03
242.038	101.03
242.255	80.55
242.472	-40.28
242.689	64.17
242.907	37.55
243.124	29.35
243.341	6.83
243.558	-40.28
243.775	12.97
243.992	-52.56
244.209	-81.24
244.426	25.26
244.643	8.87
244.86	25.26
245.078	47.79
245.295	-30.04
245.512	51.88
245.729	-7.51
245.946	45.74
246.163	72.36
246.38	21.16
246.597	-1.37
246.814	35.5
247.031	25.26
247.248	62.12
247.464	12.97
247.681	15.02
247.898	-32.08
248.115	-9.56
248.332	17.07
248.549	27.31
248.766	121.51
248.983	45.74
249.2	0.68
249.417	47.79
249.633	37.55
249.85	4.78
250.067	-5.46
250.284	29.35
250.501	109.22
250.717	-48.47
250.934	-13.65
251.151	8.87
251.368	39.59
251.585	43.69
251.801	55.98
252.018	33.45
252.235	60.07
252.451	45.74
252.668	19.11
252.885	43.69
253.102	10.92
253.318	53.93
253.535	29.35
253.752	-25.94
253.968	74.41
254.185	35.5
254.401	43.69
254.618	41.64
254.835	21.16
255.051	113.32
255.268	33.45
255.484	53.93
255.701	31.4
255.917	51.88
256.134	-5.46
256.351	70.31
256.567	-21.85
256.784	23.21
257	-23.89
257.217	10.92
257.433	19.11
257.65	51.88
257.866	33.45
258.082	39.59
258.299	35.5
258.515	49.83
258.732	-11.61
258.948	58.03
259.165	47.79
259.381	-27.99
259.597	-19.8
259.814	49.83
260.03	39.59
260.246	66.22
260.463	53.93
260.679	82.6
260.895	-11.61
261.112	115.37
261.328	49.83
261.544	45.74
261.761	98.99
261.977	66.22
262.193	37.55
262.409	72.36
262.626	27.31
262.842	-75.09
263.058	8.87
263.274	2.73
263.49	37.55
263.707	80.55
263.923	-32.08
264.139	-11.61
264.355	39.59
264.571	39.59
264.787	-30.04
265.004	10.92
265.22	76.46
265.436	17.07
265.652	19.11
265.868	8.87
266.084	8.87
266.3	-46.42
266.516	12.97
266.732	41.64
266.948	78.51
267.164	39.59
267.38	31.4
267.596	0.68
267.812	82.6
268.028	-19.8
268.244	62.12
268.46	-27.99
268.676	29.35
268.892	-11.61
269.108	17.07
269.324	-3.41
269.54	43.69
269.756	70.31
269.972	-9.56
270.188	27.31
270.403	-25.94
270.619	15.02
270.835	2.73
271.051	33.45
271.267	-1.37
271.483	39.59
271.698	0.68
271.914	105.13
272.13	60.07
272.346	-15.7
272.562	68.27
272.777	66.22
272.993	21.16
273.209	-25.94
273.425	70.31
273.64	-7.51
273.856	53.93
274.072	17.07
274.287	4.78
274.503	43.69
274.719	0.68
274.934	41.64
275.15	-9.56
275.366	33.45
275.581	25.26
275.797	94.89
276.012	-3.41
276.228	33.45
276.444	15.02
276.659	60.07
276.875	72.36
277.09	-23.89
277.306	-13.65
277.521	35.5
277.737	82.6
277.952	66.22
278.168	82.6
278.383	12.97
278.599	86.7
278.814	49.83
279.03	31.4
279.245	92.84
279.461	-32.08
279.676	31.4
279.892	68.27
280.107	51.88
280.322	37.55
280.538	37.55
280.753	123.56
280.969	25.26
281.184	12.97
281.399	55.98
281.615	-11.61
281.83	21.16
282.045	8.87
282.26	92.84
282.476	-48.47
282.691	31.4
282.906	2.73
283.122	21.16
283.337	19.11
283.552	31.4
283.767	19.11
283.983	39.59
284.198	72.36
284.413	64.17
284.628	-15.7
284.843	88.75
285.058	82.6
285.274	68.27
285.489	8.87
285.704	41.64
285.919	10.92
286.134	10.92
286.349	-19.8
286.564	39.59
286.779	17.07
286.995	62.12
287.21	39.59
287.425	90.79
287.64	17.07
287.855	88.75
288.07	0.68
288.285	10.92
288.5	62.12
288.715	66.22
288.93	21.16
289.145	0.68
289.36	66.22
289.575	31.4
289.79	27.31
290.004	84.65
290.219	35.5
290.434	29.35
290.649	62.12
290.864	72.36
291.079	35.5
291.294	17.07
291.509	41.64
291.724	41.64
291.938	19.11
292.153	113.32
292.368	17.07
292.583	27.31
292.798	47.79
293.012	-13.65
293.227	92.84
293.442	58.03
293.657	64.17
293.871	0.68
294.086	17.07
294.301	23.21
294.516	55.98
294.73	64.17
294.945	-9.56
295.16	-23.89
295.374	98.99
295.589	78.51
295.804	39.59
296.018	27.31
296.233	53.93
296.447	25.26
296.662	49.83
296.877	35.5
297.091	80.55
297.306	17.07
297.52	2.73
297.735	8.87
297.949	-7.51
298.164	-3.41
298.378	29.35
298.593	68.27
298.807	47.79
299.022	84.65
299.236	55.98
299.451	43.69
299.665	53.93
299.88	25.26
300.094	6.83
300.309	39.59
300.523	29.35
300.737	80.55
300.952	27.31
301.166	58.03
301.381	41.64
301.595	29.35
301.809	53.93
302.024	43.69
302.238	-3.41
302.452	0.68
302.667	55.98
302.881	66.22
303.095	82.6
303.309	-23.89
303.524	35.5
303.738	2.73
303.952	96.94
304.166	66.22
304.381	2.73
304.595	19.11
304.809	117.42
305.023	58.03
305.237	25.26
305.452	19.11
305.666	-32.08
305.88	53.93
306.094	12.97
306.308	29.35
306.522	12.97
306.736	133.8
306.95	33.45
307.164	39.59
307.379	21.16
307.593	90.79
307.807	60.07
308.021	72.36
308.235	23.21
308.449	82.6
308.663	68.27
308.877	4.78
309.091	80.55
309.305	-42.32
309.519	43.69
309.733	96.94
309.947	35.5
310.161	66.22
310.374	98.99
310.588	27.31
310.802	66.22
311.016	39.59
311.23	21.16
311.444	53.93
311.658	53.93
311.872	29.35
312.085	33.45
312.299	176.81
312.513	-21.85
312.727	105.13
312.941	33.45
313.154	53.93
313.368	2.73
313.582	23.21
313.796	4.78
314.009	49.83
314.223	-7.51
314.437	70.31
314.651	58.03
314.864	-38.23
315.078	55.98
315.292	90.79
315.505	17.07
315.719	45.74
315.933	-5.46
316.146	-36.18
316.36	64.17
316.573	49.83
316.787	27.31
317.001	90.79
317.214	31.4
317.428	0.68
317.641	4.78
317.855	4.78
318.068	51.88
318.282	10.92
318.495	103.08
318.709	72.36
318.922	70.31
319.136	103.08
319.349	31.4
319.563	49.83
319.776	62.12
319.99	76.46
320.203	94.89
320.417	70.31
320.63	19.11
320.843	64.17
321.057	39.59
321.27	29.35
321.483	66.22
321.697	72.36
321.91	21.16
322.124	82.6
322.337	25.26
322.55	19.11
322.763	51.88
322.977	88.75
323.19	8.87
323.403	80.55
323.617	51.88
323.83	29.35
324.043	-5.46
324.256	41.64
324.469	19.11
324.683	131.75
324.896	68.27
325.109	-19.8
325.322	-7.51
325.535	29.35
325.748	66.22
325.962	39.59
326.175	47.79
326.388	31.4
326.601	-21.85
326.814	129.7
327.027	-23.89
327.24	37.55
327.453	58.03
327.666	43.69
327.879	105.13
328.092	111.27
328.305	35.5
328.518	72.36
328.731	-3.41
328.944	15.02
329.157	29.35
329.37	62.12
329.583	92.84
329.796	88.75
330.009	35.5
330.222	35.5
330.435	41.64
330.648	53.93
330.861	-7.51
331.073	133.8
331.286	68.27
331.499	45.74
331.712	-23.89
331.925	64.17
332.138	55.98
332.35	66.22
332.563	29.35
332.776	76.46
332.989	53.93
333.202	82.6
333.414	80.55
333.627	-42.32
333.84	-21.85
334.053	0.68
334.265	21.16
334.478	33.45
334.691	-23.89
334.903	78.51
335.116	-3.41
335.329	53.93
335.541	70.31
335.754	98.99
335.966	41.64
336.179	19.11
336.392	45.74
336.604	37.55
336.817	62.12
337.029	60.07
337.242	35.5
337.454	72.36
337.667	-3.41
337.88	119.46
338.092	70.31
338.305	66.22
338.517	-15.7
338.729	39.59
338.942	109.22
339.154	-23.89
339.367	-3.41
339.579	-27.99
339.792	43.69
340.004	-3.41
340.217	29.35
340.429	-32.08
340.641	62.12
340.854	27.31
341.066	2.73
341.278	25.26
341.491	74.41
341.703	94.89
341.915	-30.04
342.128	-7.51
342.34	76.46
342.552	41.64
342.764	60.07
342.977	37.55
343.189	72.36
343.401	98.99
343.613	2.73
343.826	78.51
344.038	8.87
344.25	23.21
344.462	35.5
344.674	70.31
344.886	6.83
345.099	88.75
345.311	82.6
345.523	-23.89
345.735	4.78
345.947	84.65
346.159	21.16
346.371	64.17
346.583	19.11
346.795	66.22
347.007	51.88
347.219	21.16
347.431	-19.8
347.643	78.51
347.855	51.88
348.067	119.46
348.279	27.31
348.491	94.89
348.703	19.11
348.915	-1.37
349.127	94.89
349.339	55.98
349.551	78.51
349.763	103.08
349.975	12.97
350.187	51.88
350.399	58.03
350.61	-3.41
350.822	82.6
351.034	62.12
351.246	-13.65
351.458	33.45
351.669	119.46
351.881	4.78
352.093	39.59
352.305	53.93
352.517	53.93
352.728	70.31
352.94	86.7
353.152	123.56
353.363	25.26
353.575	82.6
353.787	60.07
353.999	64.17
354.21	121.51
354.422	146.09
354.633	-17.75
354.845	33.45
355.057	33.45
355.268	33.45
355.48	35.5
355.692	70.31
355.903	58.03
356.115	80.55
356.326	39.59
356.538	21.16
356.749	55.98
356.961	21.16
357.172	70.31
357.384	80.55
357.595	70.31
357.807	8.87
358.018	-7.51
358.23	17.07
358.441	68.27
358.653	21.16
358.864	23.21
359.075	55.98
359.287	43.69
359.498	39.59
359.709	115.37
359.921	66.22
360.132	66.22
360.344	78.51
360.555	49.83
360.766	107.18
360.977	17.07
361.189	53.93
361.4	74.41
361.611	98.99
361.823	43.69
362.034	45.74
362.245	4.78
362.456	72.36
362.667	25.26
362.879	84.65
363.09	92.84
363.301	-7.51
363.512	55.98
363.723	86.7
363.935	17.07
364.146	33.45
364.357	72.36
364.568	74.41
364.779	109.22
364.99	68.27
365.201	96.94
365.412	88.75
365.623	-1.37
365.834	119.46
366.045	51.88
366.256	111.27
366.467	101.03
366.678	53.93
366.889	53.93
367.1	64.17
367.311	88.75
367.522	45.74
367.733	17.07
367.944	70.31
368.155	72.36
368.366	98.99
368.577	23.21
368.788	45.74
368.999	19.11
369.209	-13.65
369.42	-3.41
369.631	72.36
369.842	90.79
370.053	86.7
370.264	62.12
370.474	82.6
370.685	88.75
370.896	25.26
371.107	58.03
371.317	19.11
371.528	33.45
371.739	41.64
371.95	125.61
372.16	98.99
372.371	37.55
372.582	45.74
372.792	23.21
373.003	84.65
373.214	49.83
373.424	74.41
373.635	29.35
373.846	170.66
374.056	53.93
374.267	90.79
374.477	12.97
374.688	101.03
374.898	76.46
375.109	37.55
375.319	72.36
375.53	78.51
375.74	45.74
375.951	123.56
376.161	70.31
376.372	92.84
376.582	58.03
376.793	27.31
377.003	6.83
377.214	131.75
377.424	82.6
377.635	37.55
377.845	144.04
378.055	94.89
378.266	-36.18
378.476	43.69
378.686	74.41
378.897	94.89
379.107	84.65
379.317	29.35
379.528	29.35
379.738	27.31
379.948	23.21
380.158	23.21
380.369	76.46
380.579	37.55
380.789	66.22
380.999	12.97
381.21	86.7
381.42	119.46
381.63	41.64
381.84	62.12
382.05	88.75
382.261	195.24
382.471	29.35
382.681	78.51
382.891	27.31
383.101	62.12
383.311	8.87
383.521	29.35
383.731	17.07
383.941	160.42
384.151	43.69
384.361	49.83
384.571	76.46
384.781	12.97
384.991	156.33
385.201	131.75
385.411	90.79
385.621	103.08
385.831	45.74
386.041	12.97
386.251	55.98
386.461	139.94
386.671	29.35
386.881	37.55
387.091	68.27
387.301	121.51
387.511	49.83
387.72	156.33
387.93	101.03
388.14	176.81
388.35	90.79
388.56	80.55
388.769	78.51
388.979	43.69
389.189	98.99
389.399	62.12
389.609	121.51
389.818	90.79
390.028	45.74
390.238	53.93
390.447	74.41
390.657	-11.61
390.867	103.08
391.076	41.64
391.286	109.22
391.496	41.64
391.705	86.7
391.915	78.51
392.125	139.94
392.334	76.46
392.544	45.74
392.753	164.52
392.963	80.55
393.172	8.87
393.382	103.08
393.591	152.23
393.801	49.83
394.01	66.22
394.22	144.04
394.429	182.95
394.639	12.97
394.848	76.46
395.058	72.36
395.267	170.66
395.477	55.98
395.686	117.42
395.895	201.38
396.105	135.85
396.314	152.23
396.524	109.22
396.733	141.99
396.942	105.13
397.152	133.8
397.361	174.76
397.57	58.03
397.78	78.51
397.989	115.37
398.198	80.55
398.407	146.09
398.617	86.7
398.826	137.9
399.035	45.74
399.244	94.89
399.453	121.51
399.663	74.41
399.872	121.51
400.081	33.45
400.29	105.13
400.499	109.22
400.708	127.66
400.917	68.27
401.127	154.28
401.336	144.04
401.545	164.52
401.754	172.71
401.963	103.08
402.172	144.04
402.381	111.27
402.59	88.75
402.799	66.22
403.008	88.75
403.217	127.66
403.426	148.14
403.635	191.14
403.844	170.66
404.053	189.1
404.262	141.99
404.471	205.48
404.68	242.34
404.888	154.28
405.097	117.42
405.306	88.75
405.515	180.9
405.724	168.62
405.933	115.37
406.142	158.38
406.35	176.81
406.559	201.38
406.768	174.76
406.977	283.3
407.185	221.86
407.394	307.88
407.603	234.15
407.812	211.62
408.02	232.1
408.229	256.68
408.438	271.01
408.646	326.31
408.855	293.54
409.064	211.62
409.272	283.3
409.481	307.88
409.69	320.17
409.898	363.17
410.107	393.89
410.315	416.42
410.524	404.13
410.733	352.93
410.941	361.13
411.15	387.75
411.358	422.56
411.567	404.13
411.775	359.08
411.984	443.04
412.192	393.89
412.401	537.25
412.609	516.77
412.818	475.81
413.026	596.64
413.234	488.1
413.443	574.11
413.651	647.84
413.86	608.93
414.068	656.03
414.276	664.22
414.485	707.23
414.693	740
414.901	770.72
415.11	813.73
415.318	811.68
415.526	809.63
415.734	815.77
415.943	975.52
416.151	971.42
416.359	895.64
416.567	942.75
416.776	1030.81
416.984	1094.3
417.192	1063.58
417.4	977.56
417.608	996
417.817	1157.78
418.025	1266.33
418.233	1237.66
418.441	1331.86
418.649	1346.2
418.857	1442.45
419.065	1581.71
419.273	1460.88
419.481	1518.23
419.689	1602.19
419.897	1655.44
420.105	1763.98
420.313	1702.54
420.521	1794.7
420.729	1856.14
420.937	1991.31
421.145	2060.94
421.353	2065.04
421.561	2155.15
421.769	2273.93
421.977	2364.04
422.185	2323.08
422.393	2437.77
422.601	2587.27
422.809	2669.19
423.017	2638.47
423.224	2689.67
423.432	2927.23
423.64	2908.8
423.848	3129.98
424.056	3023.48
424.263	3226.23
424.471	3318.39
424.679	3312.25
424.887	3439.22
425.094	3484.28
425.302	3625.59
425.51	3834.48
425.718	3844.72
425.925	3981.93
426.133	3953.26
426.341	4321.9
426.548	4352.62
426.756	4543.08
426.964	4569.7
427.171	4848.22
427.379	4946.53
427.586	4981.34
427.794	5149.28
428.001	5413.46
428.209	5577.3
428.417	5632.6
428.624	5917.26
428.832	5900.88
429.039	5919.31
429.247	5886.54
429.454	6474.31
429.662	6926.91
429.869	6363.72
430.076	6867.52
430.284	6695.49
430.491	7172.67
430.699	7393.85
430.906	7494.2
431.114	7602.74
431.321	7846.45
431.528	7954.99
431.736	8284.72
431.943	8993.31
432.15	8466.99
432.358	8858.15
432.565	9169.44
432.772	9173.53
432.979	9611.8
433.187	9730.58
433.394	9722.39
433.601	10545.67
433.808	10519.05
434.016	10646.02
434.223	11061.76
434.43	11715.06
434.637	11379.2
434.844	12120.56
435.052	12306.93
435.259	12093.94
435.466	12145.14
435.673	12259.82
435.88	13320.67
436.087	13658.59
436.294	13748.7
436.501	13388.25
436.708	13705.69
436.915	14299.6
437.122	14703.05
437.329	14678.47
437.537	15227.33
437.743	15247.81
437.95	15256
438.157	16273.84
438.364	16603.57
438.571	16689.58
438.778	16603.57
438.985	18684.3
439.192	17729.95
439.399	18151.83
439.606	18045.34
439.813	19040.65
440.02	19704.19
440.227	19634.56
440.433	19349.89
440.64	20488.56
440.847	20029.82
441.054	20603.25
441.261	21891.42
441.467	21387.62
441.674	22073.69
441.881	22759.76
442.088	22856.01
442.294	22597.97
442.501	23028.04
442.708	23441.73
442.914	24631.6
443.121	25819.42
443.328	24996.14
443.534	26753.3
443.741	25940.25
443.948	25760.03
444.154	27678.98
444.361	27261.19
444.568	27482.38
444.774	27881.73
444.981	28174.59
445.187	28948.72
445.394	29612.26
445.6	29395.18
445.807	32342.21
446.013	30730.45
446.22	31287.5
446.426	32643.26
446.633	33325.23
446.839	33788.07
447.046	32602.3
447.252	34134.18
447.459	34455.71
447.665	34300.06
447.871	36163.71
448.078	37308.53
448.284	35614.86
448.491	36845.69
448.697	38068.33
448.903	38684.76
449.11	38907.99
449.316	38008.93
449.522	38645.85
449.728	39338.07
449.935	39604.3
450.141	40005.7
450.347	40962.11
450.553	39802.96
450.76	40048.71
450.966	41365.56
451.172	40693.82
451.378	41476.15
451.584	40888.38
451.791	42088.49
451.997	41834.54
452.203	42506.27
452.409	42264.61
452.615	42297.38
452.821	40456.26
453.027	40108.1
453.233	42074.15
453.44	40566.85
453.646	40757.31
453.852	41494.58
454.058	41793.58
454.264	40663.1
454.47	41527.34
454.676	40243.27
454.882	41652.27
455.088	37945.45
455.294	38371.43
455.5	38774.88
455.705	39209.04
455.911	37841
456.117	37173.36
456.323	36526.21
456.529	34271.39
456.735	35930.25
456.941	35328.14
457.147	34443.42
457.352	33583.27
457.558	33167.54
457.764	33419.44
457.97	32536.76
458.176	31598.79
458.381	31809.73
458.587	30226.65
458.793	30124.25
458.999	28672.25
459.204	30472.41
459.41	29677.8
459.616	27486.47
459.821	28029.18
460.027	27871.49
460.233	27048.21
460.438	26136.86
460.644	26204.44
460.85	25088.3
461.055	24754.48
461.261	24361.27
461.466	22901.07
461.672	21950.81
461.878	24017.21
462.083	22206.81
462.289	21692.77
462.494	21467.49
462.7	20740.46
462.905	20296.05
463.111	20781.42
463.316	20785.52
463.522	20314.48
463.727	20490.61
463.932	20148.6
464.138	20324.72
464.343	20298.1
464.549	19575.17
464.754	20306.29
464.959	20144.5
465.165	20246.9
465.37	19261.83
465.575	18934.15
465.781	19603.84
465.986	19624.32
466.191	18946.44
466.397	18471.31
466.602	17650.08
466.807	18465.17
467.012	18336.15
467.218	18330
467.423	18012.57
467.628	18307.48
467.833	18997.64
468.038	18325.91
468.244	17691.04
468.449	18755.98
468.654	17897.88
468.859	17582.49
469.064	17514.91
469.269	16744.88
469.474	17138.09
469.679	17316.26
469.885	16861.61
470.09	16986.54
470.295	17058.21
470.5	16480.69
470.705	16751.02
470.91	16097.72
471.115	16073.14
471.32	16351.67
471.525	16189.88
471.73	15921.59
471.935	15909.3
472.139	15495.61
472.344	15370.69
472.549	15299.01
472.754	15153.6
472.959	15024.58
473.164	14592.46
473.369	14436.81
473.574	15069.64
473.778	14625.23
473.983	14586.32
474.188	14588.36
474.393	13701.59
474.598	14119.38
474.802	13869.53
475.007	13869.53
475.212	13777.37
475.417	13251.04
475.621	13353.44
475.826	13369.82
476.031	13023.72
476.235	12792.3
476.44	13142.5
476.645	12925.41
476.849	12814.82
477.054	12530.16
477.259	12339.69
477.463	12528.11
477.668	11774.45
477.872	12349.93
478.077	12034.55
478.282	11665.91
478.486	11756.02
478.691	11569.66
478.895	11672.06
479.1	11432.44
479.304	11545.08
479.509	11145.73
479.713	11375.1
479.918	11072
480.122	11057.67
480.326	11174.4
480.531	11164.16
480.735	11106.82
480.94	10883.59
481.144	11282.94
481.348	10842.63
481.553	10842.63
481.757	10768.9
481.961	11096.58
482.166	11016.71
482.37	10963.46
482.574	10824.2
482.778	10811.91
482.983	11047.43
483.187	10664.46
483.391	10832.39
483.595	10633.74
483.8	10717.7
484.004	10830.34
484.208	11000.32
484.412	10656.26
484.616	10926.6
484.821	10928.64
485.025	10564.11
485.229	10918.4
485.433	10678.79
485.637	10875.4
485.841	10920.45
486.045	10891.78
486.249	10928.64
486.453	10910.21
486.657	10740.23
486.861	10947.08
487.065	10553.87
487.269	10744.33
487.473	10760.71
487.677	10899.97
487.881	10703.37
488.085	10605.06
488.289	10910.21
488.493	10664.46
488.697	10670.6
488.901	10832.39
489.105	10787.33
489.309	10957.32
489.512	10953.22
489.716	10885.64
489.92	10912.26
490.124	11080.19
490.328	11090.43
490.531	11096.58
490.735	11172.35
490.939	11026.95
491.143	11047.43
491.346	11090.43
491.55	11291.13
491.754	11252.22
491.958	11416.06
492.161	11284.99
492.365	11491.84
492.569	11246.08
492.772	11420.16
492.976	11760.12
493.18	11667.96
493.383	11932.15
493.587	11876.85
493.79	12009.97
493.994	11704.82
494.197	11819.51
494.401	11878.9
494.605	12118.51
494.808	12206.58
495.012	12526.06
495.215	12331.5
495.419	12356.08
495.622	12433.9
495.825	12573.16
496.029	12761.58
496.232	12933.61
496.436	12900.84
496.639	13228.51
496.843	13058.53
497.046	13418.97
497.249	13824.47
497.453	13699.55
497.656	13758.94
497.859	13914.58
498.063	13937.11
498.266	14103
498.469	14397.9
498.673	14676.43
498.876	14672.33
499.079	14502.35
499.282	14776.78
499.485	15245.76
499.689	14981.57
499.892	15333.82
500.095	15462.85
500.298	15712.7
500.501	15573.44
500.705	16177.59
500.908	16290.23
501.111	16468.4
501.314	16560.56
501.517	16722.35
501.72	16861.61
501.923	16937.38
502.126	17467.81
502.329	17832.35
502.532	17611.17
502.735	17826.2
502.938	18272.66
503.141	18291.09
503.344	18379.15
503.547	18573.71
503.75	18928.01
503.953	19120.52
504.156	19229.06
504.359	19544.45
504.562	19442.05
504.765	20144.5
504.968	20121.98
505.17	20457.84
505.373	20463.99
505.576	20730.22
505.779	21098.86
505.982	21340.52
506.185	21447.01
506.387	21594.47
506.59	22122.84
506.793	22301.01
506.996	22141.27
507.198	22909.26
507.401	22712.66
507.604	22952.27
507.807	23349.57
508.009	23664.96
508.212	23937.34
508.415	24148.28
508.617	24473.91
508.82	24596.79
509.022	24723.76
509.225	24938.8
509.428	25411.88
509.63	25624.87
509.833	25473.32
510.035	26280.22
510.238	26034.46
510.44	26648.85
510.643	27083.02
510.845	27035.92
511.048	27248.91
511.25	27728.13
511.453	27711.75
511.655	29049.07
511.858	28150.01
512.06	28506.36
512.262	29112.56
512.465	29147.37
512.667	29745.38
512.87	30019.81
513.072	29976.8
513.274	30609.62
513.477	30816.47
513.679	31056.08
513.881	31312.08
514.084	31944.9
514.286	31412.43
514.488	32274.62
514.69	32913.59
514.893	33065.14
515.095	32876.72
515.297	33646.76
515.499	33337.52
515.701	34375.84
515.904	34527.39
516.106	34859.16
516.308	34990.23
516.51	35534.99
516.712	35369.1
516.914	35868.81
517.116	36593.79
517.318	36515.97
517.52	36823.16
517.722	37052.53
517.925	37310.58
518.127	37994.6
518.329	38496.35
518.531	38172.77
518.733	38901.85
518.935	39123.03
519.136	39362.64
519.338	39712.84
519.54	40020.04
519.742	40628.29
519.944	40525.89
520.146	40964.15
520.348	41402.42
520.55	41721.9
520.752	41863.21
520.954	42649.63
521.155	42289.19
521.357	43061.27
521.559	43237.4
521.761	43954.19
521.963	43874.32
522.164	44165.13
522.366	44255.24
522.568	44693.5
522.77	44898.3
522.971	45778.93
523.173	45449.21
523.375	45985.77
523.576	46092.27
523.778	46194.67
523.98	46714.85
524.181	47069.15
524.383	47122.4
524.584	47658.96
524.786	47955.92
524.988	47208.41
525.189	48269.26
525.391	48330.7
525.592	48570.31
525.794	48846.79
525.995	49254.33
526.197	49403.83
526.398	49674.16
526.6	49731.51
526.801	49962.93
527.003	49868.72
527.204	49719.22
527.406	50749.35
527.607	50663.33
527.808	50499.5
528.01	49932.21
528.211	50544.55
528.412	51685.27
528.614	51320.73
528.815	51113.89
529.016	52072.34
529.218	51634.07
529.419	51898.26
529.62	52058
529.822	52000.66
530.023	52086.67
530.224	52088.72
530.425	52180.88
530.626	51808.15
530.828	51679.13
531.029	53297.02
531.23	52250.51
531.431	52828.04
531.632	52803.46
531.833	52819.84
532.035	52973.44
532.236	52776.84
532.437	53641.08
532.638	52903.81
532.839	53614.46
533.04	53352.32
533.241	53378.94
533.442	53835.64
533.643	53145.47
533.844	53630.84
534.045	53811.06
534.246	53739.38
534.447	53745.53
534.648	53878.64
534.849	53815.16
535.05	53145.47
535.251	53698.42
535.451	53456.76
535.652	53784.44
535.853	53485.43
536.054	53589.88
536.255	53901.17
536.456	53432.19
536.657	54400.88
536.857	53974.9
537.058	53823.35
537.259	53811.06
537.46	53679.99
537.66	53596.02
537.861	53995.38
538.062	54185.84
538.263	54105.97
538.463	53688.18
538.664	53856.12
538.865	54050.67
539.065	54361.97
539.266	53704.57
539.466	54148.98
539.667	53454.71
539.868	54032.24
540.068	53716.85
540.269	53700.47
540.469	54212.46
540.67	54128.5
540.87	53880.69
541.071	53983.09
541.271	53694.33
541.472	54243.18
541.672	53659.51
541.873	53323.64
542.073	53155.71
542.274	54079.35
542.474	53462.91
542.675	53266.3
542.875	54398.83
543.075	53520.25
543.276	53108.61
543.476	54126.45
543.676	53471.1
543.877	53815.16
544.077	53686.14
544.277	53956.47
544.478	53831.54
544.678	53835.64
544.878	53780.34
545.078	54189.94
545.279	53655.42
545.479	53837.69
545.679	54210.42
545.879	53233.53
546.079	53557.11
546.28	53798.77
546.48	53462.91
546.68	54017.91
546.88	53897.08
547.08	53774.2
547.28	53319.55
547.48	53380.99
547.68	53587.83
547.88	53354.36
548.081	53942.13
548.281	53380.99
548.481	53528.44
548.681	54093.68
548.881	53700.47
549.081	53712.76
549.28	53589.88
549.48	53409.66
549.68	53667.7
549.88	54155.12
550.08	52948.87
550.28	53651.32
550.48	53589.88
550.68	53733.24
550.88	53417.85
551.08	53657.46
551.279	53598.07
551.479	52844.42
551.679	53163.9
551.879	53446.52
552.079	53491.58
552.278	53483.39
552.478	53452.67
552.678	53737.33
552.878	53540.73
553.077	53614.46
553.277	53147.52
553.477	53471.1
553.676	53200.77
553.876	53598.07
554.076	53079.94
554.275	53155.71
554.475	53165.95
554.674	53303.17
554.874	53301.12
555.074	52766.6
555.273	53806.97
555.473	53458.81
555.672	52549.51
555.872	52766.6
556.071	53020.55
556.271	52864.9
556.47	52825.99
556.67	52316.04
556.869	52520.84
557.068	52731.78
557.268	52379.53
557.467	52483.98
557.667	52379.53
557.866	52488.07
558.065	52178.83
558.265	52416.39
558.464	51812.24
558.663	52701.06
558.863	51597.21
559.062	52592.52
559.261	51814.29
559.461	52739.97
559.66	51629.97
559.859	52322.19
560.058	51826.58
560.258	52051.86
560.457	51304.35
560.656	52074.38
560.855	51572.63
561.054	51644.31
561.253	50915.23
561.453	51529.62
561.652	51656.6
561.851	51230.62
562.05	51154.85
562.249	50935.71
562.448	51376.03
562.647	51251.1
562.846	50677.67
563.045	51101.6
563.244	50225.07
563.443	50644.9
563.642	50599.85
563.841	50481.06
564.04	50132.91
564.239	50497.45
564.438	49946.54
564.637	50466.73
564.836	50044.85
565.035	49604.53
565.234	50055.09
565.432	49586.1
565.631	49506.23
565.83	49911.73
566.029	49164.22
566.228	49342.39
566.427	49563.57
566.625	49086.4
566.824	48666.56
567.023	49266.62
567.222	48461.77
567.42	49303.48
567.619	48572.36
567.818	48742.34
568.016	48205.77
568.215	48517.06
568.414	48525.25
568.612	48412.62
568.811	48236.49
569.01	48121.8
569.208	47945.68
569.407	48486.34
569.605	47669.2
569.804	48101.32
570.002	47024.09
570.201	47208.41
570.4	46888.93
570.598	46790.62
570.797	46610.4
570.995	47527.89
571.193	46561.25
571.392	47020
571.59	46399.46
571.789	46880.74
571.987	46471.14
572.186	46460.9
572.384	46241.77
572.582	46233.58
572.781	46209
572.979	45518.84
573.177	46063.6
573.376	46016.49
573.574	45592.56
573.772	46073.84
573.971	45348.85
574.169	44996.6
574.367	45096.95
574.565	45686.77
574.763	45406.2
574.962	45002.75
575.16	44677.12
575.358	44918.78
575.556	44363.78
575.754	44824.57
575.952	44464.13
576.151	44453.89
576.349	44050.44
576.547	43919.37
576.745	44226.57
576.943	43673.62
577.141	43634.7
577.339	43649.04
577.537	43112.47
577.735	43710.48
577.933	43259.93
578.131	43616.27
578.329	43315.22
578.527	43022.36
578.725	43169.82
578.923	43245.59
579.121	42747.93
579.319	42780.7
579.516	42991.64
579.714	42813.47
579.912	42489.89
580.11	42215.46
580.308	42432.55
580.506	42285.09
580.704	41467.95
580.901	41752.62
581.099	42264.61
581.297	41658.42
581.495	41412.66
581.692	41687.09
581.89	41408.56
582.088	41543.73
582.285	40902.71
582.483	41621.55
582.681	41343.03
582.878	40937.53
583.076	40609.85
583.274	40929.34
583.471	40644.67
583.669	40755.26
583.866	40097.86
584.064	40249.41
584.262	39901.26
584.459	40181.83
584.657	40089.67
584.854	40654.91
585.052	39565.39
585.249	40138.82
585.447	39716.94
585.644	39542.86
585.841	39673.93
586.039	39649.36
586.236	38989.91
586.434	39286.87
586.631	38963.29
586.828	38721.63
587.026	39274.58
587.223	38787.16
587.42	39039.06
587.618	38598.75
587.815	38185.06
588.012	38236.26
588.21	38322.27
588.407	38668.38
588.604	37949.54
588.801	37986.41
588.999	37777.51
589.196	38180.96
589.393	37771.37
589.59	37681.26
589.787	37759.08
589.984	37206.13
590.182	37476.46
590.379	37638.25
590.576	37396.59
590.773	37286
590.97	37083.25
591.167	37054.58
591.364	36687.99
591.561	36788.35
591.758	36706.43
591.955	36841.59
592.152	36909.18
592.349	36221.06
592.546	36382.85
592.743	36200.58
592.94	35760.26
593.137	36110.47
593.334	36001.93
593.531	35360.91
593.727	35793.03
593.924	36006.02
594.121	35387.53
594.318	35446.93
594.515	35096.72
594.712	35567.76
594.908	34932.89
595.105	35166.35
595.302	34717.85
595.499	35033.24
595.696	35029.14
595.892	34756.76
596.089	34318.49
596.286	34420.89
596.482	34326.69
596.679	34138.27
596.876	34560.16
597.072	34101.41
597.269	34439.33
597.466	33994.92
597.662	33796.26
597.859	33978.53
598.055	33908.9
598.252	33437.87
598.448	33362.09
598.645	33499.31
598.841	33081.52
599.038	33257.65
599.234	33140.91
599.431	32733.37
599.627	32565.43
599.824	32952.5
600.02	32618.68
600.217	32495.8
600.413	32508.09
600.609	32417.98
600.806	32217.28
601.002	32686.26
601.198	31905.99
601.395	31791.3
601.591	32037.06
601.787	32030.91
601.984	31664.33
602.18	32166.08
602.376	31604.94
602.572	31219.92
602.769	31662.28
602.965	31338.7
603.161	31365.32
603.357	31070.42
603.553	30961.87
603.75	31166.67
603.946	30927.06
604.142	30947.54
604.338	30468.31
604.534	30806.23
604.73	30599.38
604.926	30460.12
605.122	30552.28
605.318	30824.66
605.514	30185.69
605.71	30183.65
605.906	30269.66
606.102	30306.52
606.298	30318.81
606.494	30152.93
606.69	30066.91
606.886	29681.89
607.082	29346.03
607.278	30087.39
607.474	29624.55
607.67	29671.65
607.866	28932.34
608.062	29685.99
608.257	29352.17
608.453	29090.03
608.649	29333.74
608.845	29042.93
609.041	29157.61
609.236	29290.73
609.432	28950.77
609.628	29087.98
609.824	28449.02
610.019	28926.19
610.215	28874.99
610.411	28678.39
610.606	28164.35
610.802	28936.43
610.998	28621.05
611.193	28535.03
611.389	28469.5
611.584	28330.23
611.78	28121.34
611.976	28324.09
612.171	28274.94
612.367	28203.26
612.562	27955.46
612.758	27822.34
612.953	27969.79
613.149	28064
613.344	27709.7
613.539	27871.49
613.735	27914.5
613.93	28070.14
614.126	27719.94
614.321	27603.21
614.517	27537.67
614.712	27701.51
614.907	27277.58
615.103	27732.23
615.298	27509
615.493	27566.34
615.688	27271.43
615.884	27300.11
616.079	27140.36
616.274	27527.43
616.47	27228.43
616.665	27238.67
616.86	26800.4
617.055	26951.95
617.25	26816.79
617.445	27183.37
617.641	26546.45
617.836	26634.52
618.031	26614.04
618.226	26591.51
618.421	26337.56
618.616	26847.5
618.811	26202.39
619.006	26796.31
619.201	26065.18
619.396	26341.66
619.591	25604.39
619.786	26198.3
619.981	25364.78
620.176	25887.01
620.371	25588
620.566	25794.85
620.761	25033
620.956	25622.82
621.151	24928.56
621.346	25133.36
621.541	24676.66
621.735	25379.11
621.93	24473.91
622.125	24615.22
622.32	24287.54
622.515	24359.22
622.709	24135.99
622.904	24097.08
623.099	24011.07
623.294	24201.53
623.488	23851.33
623.683	24019.26
623.878	23368.01
624.072	23546.18
624.267	23402.82
624.462	23212.36
624.656	23038.28
624.851	23103.82
625.046	22782.29
625.24	22952.27
625.435	22511.96
625.629	22608.21
625.824	22075.74
626.018	22163.8
626.213	21743.97
626.407	21938.52
626.602	21455.2
626.796	21973.34
626.991	22040.92
627.185	21913.95
627.38	21739.87
627.574	21076.33
627.768	21135.72
627.963	21305.7
628.157	20881.77
628.352	20875.63
628.546	20539.76
628.74	20937.07
628.935	20769.13
629.129	20863.34
629.323	20119.93
629.517	20377.97
629.712	20300.15
629.906	20169.08
630.1	19790.2
630.294	20156.79
630.489	20316.53
630.683	20019.58
630.877	19442.05
631.071	19499.39
631.265	19366.28
631.459	19128.71
631.653	19206.53
631.848	19100.04
632.042	18997.64
632.236	18928.01
632.43	18719.12
632.624	18979.21
632.818	18653.58
633.012	18602.38
633.206	18698.64
633.4	18680.21
633.594	18385.3
633.788	18002.33
633.982	17990.04
634.176	18147.73
634.369	17732
634.563	18049.43
634.757	17615.26
634.951	17830.3
635.145	17418.66
635.339	17680.8
635.533	17365.41
635.726	17240.48
635.92	16984.49
636.114	17160.61
636.308	16976.3
636.501	17138.09
636.695	17148.32
636.889	16638.38
637.083	16744.88
637.276	16619.95
637.47	16482.74
637.664	16277.94
637.857	16677.29
638.051	16286.13
638.244	16165.3
638.438	15862.2
638.632	16058.81
638.825	15833.53
639.019	15485.37
639.212	15589.82
639.406	15536.57
639.599	15632.83
639.793	15604.16
639.986	15282.63
640.18	15321.54
640.373	15249.86
640.567	15131.08
640.76	15200.71
640.954	14932.42
641.147	14965.19
641.34	14571.98
641.534	14901.7
641.727	14733.77
641.92	14637.52
642.114	14506.45
642.307	14479.82
642.5	14512.59
642.694	14232.02
642.887	14037.46
643.08	14432.72
643.273	14203.35
643.467	14068.18
643.66	13701.59
643.853	14010.84
644.046	13779.42
644.239	13726.17
644.432	13861.34
644.626	13566.43
644.819	13564.38
645.012	13412.83
645.205	13437.41
645.398	13185.51
645.591	13287.9
645.784	13052.39
645.977	13036
646.17	13173.22
646.363	12880.36
646.556	12947.94
646.749	12784.1
646.942	12802.54
647.135	12573.16
647.328	12601.83
647.521	12685.8
647.714	12270.06
647.907	12726.76
648.099	12280.3
648.292	12384.75
648.485	12130.8
648.678	12030.45
648.871	11930.1
649.064	11917.81
649.256	12046.83
649.449	11932.15
649.642	11915.76
649.835	11766.26
650.027	11880.95
650.22	11733.5
650.413	11592.19
650.605	11360.77
650.798	11461.12
650.991	11342.33
651.183	11225.6
651.376	11317.76
651.568	11211.26
651.761	11354.62
651.954	10955.27
652.146	11065.86
652.339	11080.19
652.531	10947.08
652.724	10945.03
652.916	10498.57
653.109	10609.16
653.301	10590.73
653.494	10842.63
653.686	10590.73
653.879	10732.04
654.071	10494.47
654.263	10414.6
654.456	10428.94
654.648	10375.69
654.84	10252.81
655.033	10097.17
655.225	10271.25
655.417	10140.18
655.61	10033.68
655.802	10084.88
655.994	10035.73
656.186	10052.11
656.379	10013.2
656.571	10052.11
656.763	9863.7
656.955	9650.71
657.148	9923.09
657.34	9761.3
657.532	9478.68
657.724	9552.41
657.916	9622.04
658.108	9462.3
658.3	9335.32
658.492	9447.96
658.684	9314.84
658.876	9329.18
659.068	9163.29
659.26	9132.58
659.452	9232.93
659.644	9093.66
659.836	8837.67
660.028	8921.63
660.22	8770.08
660.412	8817.19
660.604	8835.62
660.796	8874.53
660.988	9007.65
661.18	8790.56
661.372	8647.21
661.563	8581.67
661.755	8667.69
661.947	8477.23
662.139	8409.64
662.331	8493.61
662.522	8292.91
662.714	8358.44
662.906	8217.13
663.097	8200.75
663.289	8137.26
663.481	8184.37
663.673	8129.07
663.864	7995.95
664.056	7901.75
664.247	7973.42
664.439	7721.52
664.631	7930.42
664.822	7850.55
665.014	7899.7
665.205	7860.79
665.397	7721.52
665.588	7907.89
665.78	7918.13
665.971	7598.65
666.163	7625.27
666.354	7531.06
666.546	7563.83
666.737	7672.37
666.929	7621.17
667.12	7330.36
667.311	7498.3
667.503	7363.13
667.694	7356.99
667.885	7150.14
668.077	7342.65
668.268	7051.84
668.459	7356.99
668.651	7410.23
668.842	6998.59
669.033	6857.28
669.224	6976.06
669.416	7144
669.607	6988.35
669.798	6916.67
669.989	7068.22
670.18	6879.81
670.371	6715.97
670.563	6771.27
670.754	6761.03
670.945	6713.92
671.136	6722.12
671.327	6558.28
671.518	6687.3
671.709	6730.31
671.9	6785.6
672.091	6625.86
672.282	6502.98
672.473	6611.53
672.664	6548.04
672.855	6300.23
673.046	6337.1
673.237	6392.39
673.428	6437.45
673.619	6509.13
673.809	6455.88
674	6390.35
674.191	6511.18
674.382	6093.39
674.573	6218.32
674.764	6175.31
674.954	6230.6
675.145	6171.21
675.336	6136.4
675.527	6097.49
675.717	6310.47
675.908	6199.88
676.099	6089.29
676.289	6064.72
676.48	6210.12
676.671	6040.14
676.861	6077.01
677.052	5872.21
677.243	5712.47
677.433	5923.41
677.624	5968.46
677.814	5958.22
678.005	5874.26
678.195	5868.11
678.386	6038.09
678.576	5706.32
678.767	5855.83
678.957	5853.78
679.148	5835.35
679.338	5610.07
679.529	5800.53
679.719	5761.62
679.909	5747.28
680.1	5755.47
680.29	5759.57
680.481	5663.32
680.671	5671.51
680.861	5593.69
681.052	5667.41
681.242	5526.1
681.432	5458.52
681.622	5571.16
681.813	5493.33
682.003	5505.62
682.193	5384.79
682.383	5530.2
682.573	5464.66
682.764	5345.88
682.954	5474.9
683.144	5360.22
683.334	5452.38
683.524	5329.5
683.714	5225.05
683.904	5354.07
684.094	5378.65
684.284	5255.77
684.474	5390.94
684.664	5341.79
684.854	5333.59
685.044	5280.35
685.234	5128.8
685.424	5200.48
685.614	5157.47
685.804	5255.77
685.994	5132.89
686.184	5106.27
686.374	5274.2
686.564	4964.96
686.753	5141.08
686.943	4989.53
687.133	4977.25
687.323	5087.84
687.513	4956.77
687.702	5046.88
687.892	5022.3
688.082	4969.05
688.272	4913.76
688.461	4856.42
688.651	4946.53
688.841	4934.24
689.03	5057.12
689.22	4848.22
689.41	4915.81
689.599	4954.72
689.789	4792.93
689.979	4735.59
690.168	4756.07
690.358	4555.37
690.547	4682.34
690.737	4737.63
690.926	4614.76
691.116	4577.89
691.305	4604.52
691.495	4481.64
691.684	4733.54
691.874	4616.8
692.063	4614.76
692.252	4426.34
692.442	4600.42
692.631	4622.95
692.82	4463.21
693.01	4330.09
693.199	4553.32
693.388	4430.44
693.578	4434.53
693.767	4432.49
693.956	4354.66
694.146	4352.62
694.335	4473.45
694.524	4498.02
694.713	4201.07
694.902	4448.87
695.092	4401.77
695.281	4301.42
695.47	4393.58
695.659	4186.73
695.848	4352.62
696.037	4223.59
696.226	4387.43
696.415	4203.11
696.604	4356.71
696.793	4237.93
696.982	4178.54
697.171	4219.5
697.36	4287.08
697.549	4289.13
697.738	4239.98
697.927	4186.73
698.116	4352.62
698.305	4145.77
698.494	4086.38
698.683	4239.98
698.872	4188.78
699.061	4024.94
699.25	4270.7
699.438	4121.2
699.627	4162.16
699.816	4239.98
700.005	4199.02
700.193	4104.81
700.382	4182.63
700.571	4059.76
700.76	4217.45
700.948	4162.16
701.137	4113
701.326	4149.87
701.514	4190.83
701.703	3983.98
701.892	4143.72
702.08	4244.07
702.269	4209.26
702.457	4065.9
702.646	4180.59
702.834	4004.46
703.023	3924.59
703.212	4149.87
703.4	4106.86
703.589	3965.55
703.777	4135.53
703.965	4043.37
704.154	4055.66
704.342	4110.96
704.531	3951.21
704.719	3879.54
704.907	4072.04
705.096	4059.76
705.284	3910.25
705.472	3928.69
705.661	3906.16
705.849	4004.46
706.037	3977.84
706.226	3885.68
706.414	4049.52
706.602	3947.12
706.79	3914.35
706.979	3836.53
707.167	4047.47
707.355	3992.17
707.543	3949.17
707.731	3777.14
707.919	3998.32
708.107	3881.58
708.296	4024.94
708.484	3721.84
708.672	3912.3
708.86	3797.62
709.048	3760.75
709.236	3893.87
709.424	3930.73
709.612	3877.49
709.8	3938.93
709.988	3715.7
710.176	3773.04
710.364	3777.14
710.551	3795.57
710.739	3664.5
710.927	3811.95
711.115	3732.08
711.303	3689.07
711.491	3789.42
711.679	3627.64
711.866	3805.81
712.054	3805.81
712.242	3691.12
712.43	3805.81
712.617	3666.55
712.805	3689.07
712.993	3676.79
713.181	3660.4
713.368	3719.79
713.556	3752.56
713.744	3578.48
713.931	3545.72
714.119	3742.32
714.306	3598.96
714.494	3719.79
714.682	3576.44
714.869	3582.58
715.057	3654.26
715.244	3504.76
715.432	3662.45
715.619	3588.72
715.807	3613.3
715.994	3527.28
716.182	3621.49
716.369	3551.86
716.556	3682.93
716.744	3680.88
716.931	3545.72
717.119	3592.82
717.306	3558
717.493	3535.48
717.681	3568.24
717.868	3555.96
718.055	3541.62
718.242	3572.34
718.43	3582.58
718.617	3449.46
718.804	3494.52
718.991	3383.93
719.179	3639.92
719.366	3328.63
719.553	3617.4
719.74	3420.79
719.927	3455.61
720.114	3476.09
720.301	3463.8
720.488	3498.61
720.676	3523.19
720.863	3338.87
721.05	3431.03
721.237	3506.81
721.424	3369.59
721.611	3279.48
721.798	3474.04
721.985	3365.5
722.172	3428.98
722.358	3232.38
722.545	3437.17
722.732	3252.86
722.919	3308.15
723.106	3414.65
723.293	3398.26
723.48	3302.01
723.667	3322.49
723.853	3308.15
724.04	3342.97
724.227	3396.21
724.414	3285.62
724.6	3383.93
724.787	3308.15
724.974	3302.01
725.161	3136.12
725.347	3107.45
725.534	3244.67
725.72	3320.44
725.907	3349.11
726.094	3295.86
726.28	3164.79
726.467	3345.02
726.653	3240.57
726.84	3265.14
727.027	3322.49
727.213	3238.52
727.4	3369.59
727.586	3129.98
727.773	3250.81
727.959	3302.01
728.145	3179.13
728.332	3209.85
728.518	3060.35
728.705	3166.84
728.891	3175.03
729.077	3138.17
729.264	3072.64
729.45	3185.27
729.636	3197.56
729.823	3136.12
730.009	3236.47
730.195	3136.12
730.382	3170.94
730.568	3142.27
730.754	3138.17
730.94	3113.6
731.126	3107.45
731.313	3132.03
731.499	3312.25
731.685	3103.36
731.871	3107.45
732.057	3170.94
732.243	3029.63
732.429	3064.44
732.615	3052.16
732.801	3060.35
732.987	3146.36
733.173	3099.26
733.359	3068.54
733.545	2996.86
733.731	3021.44
733.917	2964.09
734.103	3000.96
734.289	3076.73
734.475	2968.19
734.661	3107.45
734.847	3013.24
735.033	2998.91
735.219	2949.76
735.404	3017.34
735.59	2937.47
735.776	2972.29
735.962	3021.44
736.148	2861.69
736.333	2980.48
736.519	2790.02
736.705	3021.44
736.89	3027.58
737.076	2898.56
737.262	2888.32
737.447	2976.38
737.633	2925.18
737.819	3025.53
738.004	2744.96
738.19	2960
738.375	2941.57
738.561	2882.17
738.747	2830.98
738.932	2830.98
739.118	2847.36
739.303	2855.55
739.489	2857.6
739.674	2773.63
739.859	2900.61
740.045	2798.21
740.23	2861.69
740.416	2824.83
740.601	2773.63
740.786	2724.48
740.972	2689.67
741.157	2755.2
741.342	2757.25
741.528	2673.28
741.713	2704
741.898	2769.54
742.084	2665.09
742.269	2802.3
742.454	2798.21
742.639	2656.9
742.824	2787.97
743.01	2648.71
743.195	2734.72
743.38	2568.84
743.565	2644.61
743.75	2529.92
743.935	2660.99
744.12	2513.54
744.305	2488.96
744.49	2648.71
744.675	2523.78
744.86	2503.3
745.045	2534.02
745.23	2482.82
745.415	2550.4
745.6	2517.64
745.785	2353.8
745.97	2579.08
746.155	2460.29
746.34	2460.29
746.525	2431.62
746.71	2433.67
746.895	2376.33
747.079	2411.14
747.264	2349.7
747.449	2296.46
747.634	2351.75
747.819	2376.33
748.003	2302.6
748.188	2280.07
748.373	2253.45
748.557	2249.35
748.742	2167.43
748.927	2112.14
749.111	2232.97
749.296	2339.46
749.481	2179.72
749.665	2151.05
749.85	1999.5
750.034	2060.94
750.219	2124.43
750.404	2069.13
750.588	2122.38
750.773	2128.52
750.957	2124.43
751.141	2036.36
751.326	2073.23
751.51	2112.14
751.695	1931.92
751.879	2099.85
752.064	2146.95
752.248	1950.35
752.432	1952.4
752.617	1895.05
752.801	1964.68
752.985	1925.77
753.17	2034.32
753.354	2026.12
753.538	2003.6
753.722	1870.48
753.907	1831.57
754.091	1872.53
754.275	1782.42
754.459	1880.72
754.643	1782.42
754.828	1862.29
755.012	1854.09
755.196	1712.78
755.38	1727.12
755.564	1786.51
755.748	1708.69
755.932	1704.59
756.116	1772.18
756.3	1786.51
756.484	1712.78
756.668	1630.87
756.852	1684.11
757.036	1659.54
757.22	1587.86
757.404	1688.21
757.588	1495.7
757.772	1659.54
757.956	1675.92
758.14	1702.54
758.323	1688.21
758.507	1598.1
758.691	1499.8
758.875	1700.5
759.059	1493.65
759.242	1546.9
759.426	1503.89
759.61	1563.28
759.794	1579.67
759.977	1485.46
760.161	1464.98
760.345	1487.51
760.528	1516.18
760.712	1440.4
760.895	1454.74
761.079	1516.18
761.263	1378.97
761.446	1383.06
761.63	1307.29
761.813	1475.22
761.997	1376.92
762.18	1372.82
762.364	1464.98
762.547	1358.49
762.731	1374.87
762.914	1364.63
763.098	1340.05
763.281	1360.53
763.464	1325.72
763.648	1333.91
763.831	1469.08
764.015	1266.33
764.198	1192.6
764.381	1338.01
764.564	1313.43
764.748	1360.53
764.931	1368.73
765.114	1305.24
765.297	1258.14
765.481	1333.91
765.664	1245.85
765.847	1245.85
766.03	1274.52
766.213	1241.75
766.397	1239.7
766.58	1323.67
766.763	1301.14
766.946	1200.79
767.129	1211.03
767.312	1235.61
767.495	1239.7
767.678	1192.6
767.861	1196.7
768.044	1241.75
768.227	1221.27
768.41	1215.13
768.593	1247.9
768.776	1184.41
768.959	1200.79
769.142	1180.31
769.324	1192.6
769.507	1096.35
769.69	1217.18
769.873	1192.6
770.056	1188.5
770.239	1141.4
770.421	1151.64
770.604	1053.34
770.787	1110.68
770.97	1073.82
771.152	1010.33
771.335	1159.83
771.518	1049.24
771.7	1159.83
771.883	1163.93
772.066	1202.84
772.248	1116.83
772.431	1159.83
772.613	1182.36
772.796	1026.71
772.978	1096.35
773.161	1014.43
773.343	1071.77
773.526	1067.67
773.708	1102.49
773.891	1084.06
774.073	1049.24
774.256	1026.71
774.438	985.76
774.621	918.17
774.803	1012.38
774.985	912.03
775.168	993.95
775.35	955.04
775.532	1006.24
775.715	922.27
775.897	983.71
776.079	946.84
776.261	944.8
776.444	871.07
776.626	983.71
776.808	922.27
776.99	883.36
777.173	916.12
777.355	920.22
777.537	899.74
777.719	828.06
777.901	875.17
778.083	832.16
778.265	858.78
778.447	918.17
778.629	877.21
778.811	875.17
778.993	826.01
779.175	811.68
779.357	856.73
779.539	838.3
779.721	840.35
779.903	795.29
780.085	799.39
780.267	770.72
780.449	766.62
780.631	795.29
780.812	783.01
780.994	834.21
781.176	735.9
781.358	787.1
781.54	766.62
781.721	705.18
781.903	762.53
782.085	705.18
782.267	674.46
782.448	713.38
782.63	740
782.812	725.66
782.993	676.51
783.175	670.37
783.357	692.9
783.538	709.28
783.72	561.83
783.901	676.51
784.083	742.05
784.264	619.17
784.446	711.33
784.627	576.16
784.809	627.36
784.99	590.5
785.172	651.94
785.353	651.94
785.535	531.11
785.716	596.64
785.897	561.83
786.079	623.27
786.26	567.97
786.441	656.03
786.623	527.01
786.804	610.98
786.985	586.4
787.167	627.36
787.348	459.43
787.529	494.24
787.71	584.35
787.891	580.26
788.073	567.97
788.254	543.39
788.435	518.82
788.616	578.21
788.797	590.5
788.978	514.72
789.159	408.23
789.34	467.62
789.522	461.48
789.703	490.15
789.884	486.05
790.065	488.1
790.246	518.82
790.427	492.2
790.607	516.77
790.788	484
790.969	535.2
791.15	455.33
791.331	461.48
791.512	443.04
791.693	369.32
791.874	496.29
792.054	449.19
792.235	408.23
792.416	516.77
792.597	496.29
792.778	549.54
792.958	414.37
793.139	445.09
793.32	504.48
793.5	447.14
793.681	496.29
793.862	461.48
794.042	412.32
794.223	424.61
794.404	383.65
794.584	363.17
794.765	389.8
794.945	406.18
795.126	469.67
795.306	443.04
795.487	422.56
795.667	365.22
795.848	436.9
796.028	438.95
796.209	354.98
796.389	402.08
796.57	367.27
796.75	418.47
796.93	404.13
797.111	311.97
797.291	363.17
797.471	397.99
797.652	457.38
797.832	330.41
798.012	369.32
798.192	346.79
798.373	303.78
798.553	412.32
798.733	385.7
798.913	324.26
799.093	254.63
799.274	410.28
799.454	453.28
799.634	344.74
799.814	389.8
799.994	381.6
800.174	334.5
800.354	359.08
800.534	330.41
800.714	357.03
800.894	336.55
801.074	316.07
801.254	309.93
801.434	314.02
801.614	361.13
801.794	254.63
801.974	740
802.154	285.35
802.334	320.17
802.514	303.78
802.693	217.77
802.873	303.78
803.053	293.54
803.233	271.01
803.413	350.89
803.592	297.64
803.772	277.16
803.952	262.82
804.131	330.41
804.311	318.12
804.491	324.26
804.67	328.36
804.85	248.49
805.03	281.25
805.209	363.17
805.389	197.29
805.568	352.93
805.748	182.95
805.928	254.63
806.107	189.1
806.287	277.16
806.466	258.73
806.646	223.91
806.825	234.15
807.004	232.1
807.184	244.39
807.363	271.01
807.543	172.71
807.722	258.73
807.901	283.3
808.081	322.21
808.26	191.14
808.439	187.05
808.619	213.67
808.798	256.68
808.977	232.1
809.156	301.73
809.336	236.2
809.515	271.01
809.694	203.43
809.873	264.87
810.052	150.18
810.231	189.1
810.411	166.57
810.59	316.07
810.769	266.92
810.948	301.73
811.127	228.01
811.306	225.96
811.485	111.27
811.664	285.35
811.843	164.52
812.022	156.33
812.201	144.04
812.38	209.58
812.559	215.72
812.737	189.1
812.916	258.73
813.095	180.9
813.274	240.29
813.453	234.15
813.632	275.11
813.811	256.68
813.989	209.58
814.168	180.9
814.347	209.58
814.526	154.28
814.704	240.29
814.883	266.92
815.062	244.39
815.24	203.43
815.419	246.44
815.598	293.54
815.776	219.82
815.955	246.44
816.133	156.33
816.312	215.72
816.49	109.22
816.669	182.95
816.847	213.67
817.026	146.09
817.204	121.51
817.383	133.8
817.561	150.18
817.74	174.76
817.918	217.77
818.097	94.89
818.275	162.47
818.453	203.43
818.632	146.09
818.81	246.44
818.988	129.7
819.167	223.91
819.345	223.91
819.523	230.06
819.701	156.33
819.879	221.86
820.058	213.67
820.236	135.85
820.414	174.76
820.592	144.04
820.77	109.22
820.948	135.85
821.127	199.34
821.305	109.22
821.483	168.62
821.661	256.68
821.839	137.9
822.017	191.14
822.195	223.91
822.373	129.7
822.551	135.85
822.729	148.14
822.907	113.32
823.085	168.62
823.262	160.42
823.44	160.42
823.618	127.66
823.796	131.75
823.974	121.51
824.152	135.85
824.329	121.51
824.507	111.27
824.685	103.08
824.863	176.81
825.04	148.14
825.218	103.08
825.396	119.46
825.574	141.99
825.751	156.33
825.929	111.27
826.107	111.27
826.284	152.23
826.462	82.6
826.639	117.42
826.817	101.03
826.994	150.18
827.172	80.55
827.349	131.75
827.527	76.46
827.704	103.08
827.882	86.7
828.059	156.33
828.237	64.17
828.414	111.27
828.591	94.89
828.769	129.7
828.946	76.46
829.124	135.85
829.301	94.89
829.478	137.9
829.655	12.97
829.833	76.46
830.01	76.46
830.187	219.82
830.364	129.7
830.542	137.9
830.719	125.61
830.896	148.14
831.073	144.04
831.25	127.66
831.427	98.99
831.604	172.71
831.782	94.89
831.959	182.95
832.136	90.79
832.313	23.21
832.49	92.84
832.667	139.94
832.844	141.99
833.021	146.09
833.198	94.89
833.374	94.89
833.551	41.64
833.728	131.75
833.905	101.03
834.082	164.52
834.259	78.51
834.436	115.37
834.612	74.41
834.789	146.09
834.966	94.89
835.143	37.55
835.319	103.08
835.496	86.7
835.673	111.27
835.85	150.18
836.026	98.99
836.203	113.32
836.38	31.4
836.556	58.03
836.733	86.7
836.909	121.51
837.086	78.51
837.262	117.42
837.439	53.93
837.616	78.51
837.792	160.42
837.968	103.08
838.145	94.89
838.321	60.07
838.498	60.07
838.674	117.42
838.851	123.56
839.027	80.55
839.203	135.85
839.38	74.41
839.556	90.79
839.732	148.14
839.909	17.07
840.085	29.35
840.261	60.07
840.437	127.66
840.614	98.99
840.79	55.98
840.966	35.5
841.142	115.37
841.318	33.45
841.494	33.45
841.671	133.8
841.847	53.93
842.023	53.93
842.199	58.03
842.375	70.31
842.551	27.31
842.727	27.31
842.903	137.9
843.079	133.8
843.255	111.27
843.431	47.79
843.607	86.7
843.783	94.89
843.959	117.42
844.134	49.83
844.31	103.08
844.486	35.5
844.662	23.21
844.838	-15.7
845.013	113.32
845.189	80.55
845.365	53.93
845.541	96.94
845.716	29.35
845.892	191.14
846.068	58.03
846.244	107.18
846.419	47.79
846.595	2.73
846.77	55.98
846.946	103.08
847.122	51.88
847.297	88.75
847.473	115.37
847.648	-27.99
847.824	137.9
847.999	19.11
848.175	45.74
848.35	90.79
848.526	45.74
848.701	72.36
848.876	115.37
849.052	84.65
849.227	29.35
849.403	43.69
849.578	62.12
849.753	64.17
849.929	117.42
850.104	119.46
850.279	47.79
850.454	12.97
850.63	98.99
850.805	105.13
850.98	74.41
851.155	92.84
851.33	15.02
851.505	19.11
851.681	88.75
851.856	80.55
852.031	-5.46
852.206	76.46
852.381	60.07
852.556	43.69
852.731	96.94
852.906	78.51
853.081	45.74
853.256	78.51
853.431	37.55
853.606	92.84
853.781	12.97
853.956	68.27
854.131	53.93
854.305	8.87
854.48	39.59
854.655	21.16
854.83	35.5
855.005	41.64
855.18	94.89
855.354	12.97
855.529	58.03
855.704	105.13
855.879	8.87
856.053	43.69
856.228	29.35
856.403	35.5
856.577	82.6
856.752	98.99
856.926	51.88
857.101	2.73
857.276	-5.46
857.45	119.46
857.625	21.16
857.799	53.93
857.974	15.02
858.148	-30.04
858.323	4.78
858.497	21.16
858.672	29.35
858.846	43.69
859.02	107.18
859.195	-54.61
859.369	33.45
859.543	72.36
859.718	119.46
859.892	60.07
860.066	41.64
860.241	6.83
860.415	15.02
860.589	-25.94
860.763	21.16
860.938	21.16
861.112	78.51
861.286	-27.99
861.46	35.5
861.634	53.93
861.808	80.55
861.982	-13.65
862.157	43.69
862.331	17.07
862.505	-11.61
862.679	-54.61
862.853	-17.75
863.027	-15.7
863.201	51.88
863.375	21.16
863.549	27.31
863.722	70.31
863.896	31.4
864.07	29.35
864.244	6.83
864.418	-21.85
864.592	55.98
864.766	10.92
864.939	10.92
865.113	-21.85
865.287	58.03
865.461	53.93
865.634	60.07
865.808	-54.61
865.982	12.97
866.156	27.31
866.329	43.69
866.503	23.21
866.676	0.68
866.85	51.88
867.024	4.78
867.197	53.93
867.371	27.31
867.544	12.97
867.718	15.02
867.891	49.83
868.065	-42.32
868.238	94.89
868.412	-38.23
868.585	0.68
868.759	6.83
868.932	17.07
869.105	25.26
869.279	51.88
869.452	41.64
869.625	115.37
869.799	66.22
869.972	58.03
870.145	55.98
870.319	51.88
870.492	6.83
870.665	6.83
870.838	-40.28
871.011	-13.65
871.185	86.7
871.358	19.11
871.531	6.83
871.704	-27.99
871.877	33.45
872.05	23.21
872.223	4.78
872.396	37.55
872.569	80.55
872.742	-9.56
872.915	47.79
873.088	25.26
873.261	39.59
873.434	27.31
873.607	15.02
873.78	33.45
873.953	15.02
874.126	-17.75
874.299	17.07
874.471	15.02
874.644	4.78
874.817	-25.94
874.99	12.97
875.163	35.5
875.335	33.45
875.508	62.12
875.681	25.26
875.853	-25.94
876.026	29.35
876.199	49.83
876.371	45.74
876.544	-13.65
876.717	2.73
876.889	45.74
877.062	-19.8
877.234	-54.61
877.407	66.22
877.579	21.16
877.752	-11.61
877.924	12.97
878.097	51.88
878.269	0.68
878.442	37.55
878.614	62.12
878.786	12.97
878.959	72.36
879.131	101.03
879.303	23.21
879.476	15.02
879.648	15.02
879.82	4.78
879.993	45.74
880.165	12.97
880.337	25.26
880.509	-30.04
880.681	-21.85
880.854	-66.9
881.026	64.17
881.198	15.02
881.37	-15.7
881.542	8.87
881.714	-15.7
881.886	23.21
882.058	39.59
882.23	43.69
882.402	6.83
882.574	27.31
882.746	-3.41
882.918	113.32
883.09	47.79
883.262	39.59
883.434	-46.42
883.606	-9.56
883.778	21.16
883.95	27.31
884.122	21.16
884.293	4.78
884.465	2.73
884.637	-44.37
884.809	-27.99
884.98	17.07
885.152	25.26
885.324	53.93
885.496	12.97
885.667	4.78
885.839	88.75
886.011	43.69
886.182	66.22
886.354	17.07
886.525	21.16
886.697	-25.94
886.869	-3.41
887.04	2.73
887.212	-15.7
887.383	25.26
887.555	80.55
887.726	12.97
887.897	8.87
888.069	39.59
888.24	-77.14
888.412	74.41
888.583	-3.41
888.754	25.26
888.926	-79.19
889.097	-13.65
889.268	33.45
889.44	33.45
889.611	33.45
889.782	-36.18
889.953	-79.19
890.125	68.27
890.296	-17.75
890.467	-68.95
890.638	15.02
890.809	21.16
890.98	-79.19
891.151	25.26
891.323	29.35
891.494	4.78
891.665	25.26
891.836	-1.37
892.007	-5.46
892.178	17.07
892.349	80.55
892.52	21.16
892.691	-25.94
892.862	29.35
893.032	78.51
893.203	39.59
893.374	109.22
893.545	-21.85
893.716	58.03
893.887	10.92
894.057	-13.65
894.228	10.92
894.399	-21.85
894.57	90.79
894.74	-79.19
894.911	27.31
895.082	-7.51
895.253	68.27
895.423	-7.51
895.594	27.31
895.764	15.02
895.935	15.02
896.106	2.73
896.276	15.02
896.447	47.79
896.617	-3.41
896.788	-15.7
896.958	15.02
897.129	-11.61
897.299	-34.13
897.47	-7.51
897.64	96.94
897.81	90.79
897.981	39.59
898.151	-44.37
898.322	15.02
898.492	-32.08
898.662	15.02
898.832	19.11
899.003	29.35
899.173	-23.89
899.343	-48.47
899.513	37.55
