Data from USB4F104151__270__11-12-06-746.txt Node

Date: Wed Mar 12 11:12:06 EDT 2025
User: louis
Spectrometer: USB4F10415
Trigger mode: 4
Integration Time (sec): 2.000000E-2
Scans to average: 1
Electric dark correction enabled: true
Nonlinearity correction enabled: false
Boxcar width: 0
XAxis mode: Wavelengths
Number of Pixels in Spectrum: 3648
>>>>>Begin Spectral Data<<<<<
178.204	-56.83
178.424	-56.83
178.644	-56.83
178.864	-60.93
179.084	-48.64
179.304	-5.63
179.524	-22.02
179.744	33.28
179.964	96.77
180.184	-126.46
180.404	72.19
180.624	-30.21
180.844	55.81
181.064	-24.06
181.283	6.66
181.503	10.75
181.723	-67.07
181.943	-89.6
182.163	-11.78
182.383	27.14
182.602	35.33
182.822	-32.26
183.042	47.62
183.262	-1.54
183.482	64
183.701	-24.06
183.921	-19.97
184.141	-5.63
184.361	2.56
184.58	-5.63
184.8	27.14
185.02	10.75
185.239	8.7
185.459	-36.35
185.679	43.52
185.898	-52.74
186.118	0.51
186.338	45.57
186.557	49.66
186.777	61.95
186.997	-9.73
187.216	-44.54
187.436	27.14
187.655	8.7
187.875	-7.68
188.095	31.23
188.314	74.24
188.534	55.81
188.753	-11.78
188.973	29.18
189.192	47.62
189.412	-67.07
189.631	-28.16
189.851	-30.21
190.07	27.14
190.29	18.94
190.509	4.61
190.729	12.8
190.948	8.7
191.168	102.91
191.387	78.33
191.607	-3.58
191.826	6.66
192.045	10.75
192.265	23.04
192.484	-24.06
192.704	39.42
192.923	45.57
193.142	102.91
193.362	-30.21
193.581	84.48
193.8	-15.87
194.02	-7.68
194.239	84.48
194.458	14.85
194.678	16.9
194.897	-3.58
195.116	-22.02
195.335	25.09
195.555	10.75
195.774	64
195.993	66.05
196.212	27.14
196.432	35.33
196.651	18.94
196.87	20.99
197.089	135.68
197.308	0.51
197.528	29.18
197.747	-1.54
197.966	-22.02
198.185	16.9
198.404	10.75
198.623	-11.78
198.842	-1.54
199.062	78.33
199.281	27.14
199.5	20.99
199.719	51.71
199.938	43.52
200.157	41.47
200.376	-26.11
200.595	119.29
200.814	-58.88
201.033	-13.82
201.252	-11.78
201.471	43.52
201.69	-13.82
201.909	23.04
202.128	31.23
202.347	68.09
202.566	-1.54
202.785	12.8
203.004	23.04
203.223	53.76
203.442	-3.58
203.661	-22.02
203.879	-79.36
204.098	-24.06
204.317	-22.02
204.536	84.48
204.755	12.8
204.974	41.47
205.193	-17.92
205.411	47.62
205.63	33.28
205.849	64
206.068	-38.4
206.287	31.23
206.505	43.52
206.724	-54.78
206.943	-9.73
207.162	90.62
207.381	8.7
207.599	0.51
207.818	-7.68
208.037	-15.87
208.255	20.99
208.474	76.29
208.693	27.14
208.911	-36.35
209.13	25.09
209.349	12.8
209.567	14.85
209.786	147.97
210.005	82.43
210.223	94.72
210.442	8.7
210.661	-7.68
210.879	43.52
211.098	-11.78
211.316	12.8
211.535	18.94
211.753	-42.5
211.972	39.42
212.191	92.67
212.409	37.38
212.628	12.8
212.846	-7.68
213.065	66.05
213.283	29.18
213.502	14.85
213.72	23.04
213.938	-42.5
214.157	25.09
214.375	47.62
214.594	-1.54
214.812	23.04
215.031	43.52
215.249	10.75
215.467	55.81
215.686	-38.4
215.904	72.19
216.122	-46.59
216.341	18.94
216.559	25.09
216.778	12.8
216.996	84.48
217.214	39.42
217.432	0.51
217.651	8.7
217.869	8.7
218.087	80.38
218.306	18.94
218.524	39.42
218.742	8.7
218.96	43.52
219.179	-38.4
219.397	-46.59
219.615	39.42
219.833	-24.06
220.051	-38.4
220.27	55.81
220.488	37.38
220.706	4.61
220.924	27.14
221.142	23.04
221.36	8.7
221.578	27.14
221.796	-42.5
222.015	18.94
222.233	-32.26
222.451	49.66
222.669	47.62
222.887	20.99
223.105	35.33
223.323	18.94
223.541	29.18
223.759	68.09
223.977	-46.59
224.195	35.33
224.413	59.9
224.631	25.09
224.849	31.23
225.067	4.61
225.285	37.38
225.503	27.14
225.721	64
225.939	47.62
226.157	35.33
226.375	96.77
226.592	-67.07
226.81	-7.68
227.028	43.52
227.246	82.43
227.464	-28.16
227.682	57.86
227.9	6.66
228.117	25.09
228.335	-1.54
228.553	8.7
228.771	-5.63
228.989	-26.11
229.206	-30.21
229.424	31.23
229.642	-5.63
229.86	49.66
230.077	-5.63
230.295	0.51
230.513	4.61
230.731	125.44
230.948	154.11
231.166	57.86
231.384	-40.45
231.601	33.28
231.819	23.04
232.037	2.56
232.254	-67.07
232.472	47.62
232.689	8.7
232.907	14.85
233.125	23.04
233.342	90.62
233.56	-13.82
233.777	43.52
233.995	59.9
234.213	111.1
234.43	-1.54
234.648	-34.3
234.865	57.86
235.083	8.7
235.3	57.86
235.518	16.9
235.735	51.71
235.953	41.47
236.17	55.81
236.388	86.53
236.605	2.56
236.822	10.75
237.04	-30.21
237.257	-42.5
237.475	-13.82
237.692	20.99
237.909	-5.63
238.127	-15.87
238.344	-24.06
238.562	16.9
238.779	35.33
238.996	53.76
239.214	94.72
239.431	27.14
239.648	-13.82
239.865	27.14
240.083	23.04
240.3	-1.54
240.517	4.61
240.735	-32.26
240.952	33.28
241.169	18.94
241.386	23.04
241.603	72.19
241.821	-22.02
242.038	53.76
242.255	-56.83
242.472	-48.64
242.689	70.14
242.907	29.18
243.124	-58.88
243.341	-9.73
243.558	33.28
243.775	23.04
243.992	55.81
244.209	6.66
244.426	59.9
244.643	78.33
244.86	33.28
245.078	10.75
245.295	-24.06
245.512	2.56
245.729	-13.82
245.946	33.28
246.163	-9.73
246.38	57.86
246.597	33.28
246.814	-5.63
247.031	10.75
247.248	72.19
247.464	18.94
247.681	0.51
247.898	-13.82
248.115	-24.06
248.332	18.94
248.549	23.04
248.766	4.61
248.983	-42.5
249.2	43.52
249.417	-44.54
249.633	-17.92
249.85	18.94
250.067	51.71
250.284	27.14
250.501	-9.73
250.717	84.48
250.934	-52.74
251.151	-11.78
251.368	23.04
251.585	6.66
251.801	20.99
252.018	0.51
252.235	4.61
252.451	8.7
252.668	-108.03
252.885	104.96
253.102	-1.54
253.318	74.24
253.535	8.7
253.752	16.9
253.968	49.66
254.185	18.94
254.401	25.09
254.618	68.09
254.835	-19.97
255.051	8.7
255.268	51.71
255.484	57.86
255.701	61.95
255.917	35.33
256.134	8.7
256.351	8.7
256.567	27.14
256.784	64
257	12.8
257.217	8.7
257.433	43.52
257.65	-40.45
257.866	74.24
258.082	-1.54
258.299	12.8
258.515	35.33
258.732	-38.4
258.948	-19.97
259.165	51.71
259.381	96.77
259.597	14.85
259.814	-5.63
260.03	43.52
260.246	10.75
260.463	41.47
260.679	-17.92
260.895	-42.5
261.112	43.52
261.328	-75.26
261.544	47.62
261.761	82.43
261.977	-1.54
262.193	59.9
262.409	27.14
262.626	33.28
262.842	4.61
263.058	14.85
263.274	33.28
263.49	41.47
263.707	68.09
263.923	-58.88
264.139	14.85
264.355	37.38
264.571	0.51
264.787	23.04
265.004	-15.87
265.22	27.14
265.436	70.14
265.652	-36.35
265.868	102.91
266.084	64
266.3	18.94
266.516	-9.73
266.732	27.14
266.948	14.85
267.164	-28.16
267.38	57.86
267.596	33.28
267.812	53.76
268.028	45.57
268.244	-30.21
268.46	-44.54
268.676	23.04
268.892	57.86
269.108	49.66
269.324	-69.12
269.54	35.33
269.756	4.61
269.972	8.7
270.188	41.47
270.403	10.75
270.619	20.99
270.835	-34.3
271.051	29.18
271.267	-19.97
271.483	14.85
271.698	82.43
271.914	33.28
272.13	-1.54
272.346	33.28
272.562	68.09
272.777	25.09
272.993	8.7
273.209	37.38
273.425	104.96
273.64	61.95
273.856	-24.06
274.072	-36.35
274.287	-1.54
274.503	10.75
274.719	0.51
274.934	-9.73
275.15	-42.5
275.366	-34.3
275.581	35.33
275.797	53.76
276.012	2.56
276.228	20.99
276.444	-5.63
276.659	66.05
276.875	-40.45
277.09	20.99
277.306	76.29
277.521	45.57
277.737	-11.78
277.952	-7.68
278.168	55.81
278.383	2.56
278.599	-13.82
278.814	39.42
279.03	35.33
279.245	47.62
279.461	18.94
279.676	29.18
279.892	98.81
280.107	16.9
280.322	-5.63
280.538	18.94
280.753	0.51
280.969	51.71
281.184	41.47
281.399	61.95
281.615	35.33
281.83	10.75
282.045	64
282.26	-77.31
282.476	68.09
282.691	68.09
282.906	49.66
283.122	84.48
283.337	23.04
283.552	-7.68
283.767	0.51
283.983	68.09
284.198	29.18
284.413	-34.3
284.628	35.33
284.843	20.99
285.058	31.23
285.274	16.9
285.489	33.28
285.704	74.24
285.919	25.09
286.134	76.29
286.349	14.85
286.564	47.62
286.779	111.1
286.995	-56.83
287.21	-1.54
287.425	92.67
287.64	-9.73
287.855	53.76
288.07	-3.58
288.285	10.75
288.5	16.9
288.715	45.57
288.93	47.62
289.145	25.09
289.36	8.7
289.575	61.95
289.79	64
290.004	8.7
290.219	8.7
290.434	31.23
290.649	-48.64
290.864	18.94
291.079	35.33
291.294	-34.3
291.509	6.66
291.724	68.09
291.938	-79.36
292.153	39.42
292.368	47.62
292.583	12.8
292.798	53.76
293.012	-42.5
293.227	14.85
293.442	6.66
293.657	10.75
293.871	59.9
294.086	53.76
294.301	53.76
294.516	82.43
294.73	49.66
294.945	29.18
295.16	90.62
295.374	33.28
295.589	43.52
295.804	35.33
296.018	55.81
296.233	80.38
296.447	25.09
296.662	53.76
296.877	2.56
297.091	31.23
297.306	-11.78
297.52	64
297.735	6.66
297.949	14.85
298.164	16.9
298.378	-26.11
298.593	33.28
298.807	-32.26
299.022	55.81
299.236	51.71
299.451	18.94
299.665	14.85
299.88	25.09
300.094	57.86
300.309	2.56
300.523	27.14
300.737	-28.16
300.952	-17.92
301.166	2.56
301.381	39.42
301.595	-26.11
301.809	61.95
302.024	53.76
302.238	-48.64
302.452	12.8
302.667	0.51
302.881	-3.58
303.095	49.66
303.309	59.9
303.524	16.9
303.738	61.95
303.952	14.85
304.166	43.52
304.381	-32.26
304.595	74.24
304.809	8.7
305.023	14.85
305.237	10.75
305.452	25.09
305.666	0.51
305.88	-22.02
306.094	16.9
306.308	-11.78
306.522	33.28
306.736	27.14
306.95	72.19
307.164	-19.97
307.379	29.18
307.593	64
307.807	68.09
308.021	59.9
308.235	-22.02
308.449	41.47
308.663	2.56
308.877	121.34
309.091	39.42
309.305	86.53
309.519	-24.06
309.733	78.33
309.947	-26.11
310.161	70.14
310.374	84.48
310.588	49.66
310.802	-19.97
311.016	16.9
311.23	57.86
311.444	16.9
311.658	66.05
311.872	-15.87
312.085	-19.97
312.299	-1.54
312.513	59.9
312.727	102.91
312.941	-38.4
313.154	39.42
313.368	49.66
313.582	-42.5
313.796	-5.63
314.009	82.43
314.223	16.9
314.437	39.42
314.651	35.33
314.864	29.18
315.078	-30.21
315.292	25.09
315.505	37.38
315.719	98.81
315.933	-52.74
316.146	14.85
316.36	-44.54
316.573	23.04
316.787	35.33
317.001	53.76
317.214	12.8
317.428	-13.82
317.641	10.75
317.855	29.18
318.068	-3.58
318.282	16.9
318.495	92.67
318.709	-67.07
318.922	16.9
319.136	72.19
319.349	16.9
319.563	-1.54
319.776	33.28
319.99	51.71
320.203	25.09
320.417	-15.87
320.63	29.18
320.843	-15.87
321.057	61.95
321.27	29.18
321.483	57.86
321.697	23.04
321.91	55.81
322.124	78.33
322.337	-15.87
322.55	10.75
322.763	59.9
322.977	-22.02
323.19	14.85
323.403	-5.63
323.617	68.09
323.83	78.33
324.043	12.8
324.256	49.66
324.469	39.42
324.683	139.77
324.896	2.56
325.109	27.14
325.322	80.38
325.535	78.33
325.748	53.76
325.962	-15.87
326.175	0.51
326.388	68.09
326.601	16.9
326.814	14.85
327.027	-24.06
327.24	78.33
327.453	-5.63
327.666	25.09
327.879	10.75
328.092	72.19
328.305	14.85
328.518	-13.82
328.731	55.81
328.944	90.62
329.157	70.14
329.37	53.76
329.583	-5.63
329.796	133.63
330.009	10.75
330.222	47.62
330.435	27.14
330.648	-13.82
330.861	35.33
331.073	-15.87
331.286	76.29
331.499	37.38
331.712	-9.73
331.925	53.76
332.138	-5.63
332.35	59.9
332.563	53.76
332.776	104.96
332.989	-73.21
333.202	10.75
333.414	-13.82
333.627	41.47
333.84	49.66
334.053	-19.97
334.265	10.75
334.478	88.57
334.691	31.23
334.903	84.48
335.116	-13.82
335.329	4.61
335.541	-17.92
335.754	16.9
335.966	25.09
336.179	-30.21
336.392	88.57
336.604	43.52
336.817	33.28
337.029	31.23
337.242	68.09
337.454	18.94
337.667	51.71
337.88	168.45
338.092	6.66
338.305	-7.68
338.517	37.38
338.729	55.81
338.942	27.14
339.154	55.81
339.367	23.04
339.579	-1.54
339.792	37.38
340.004	57.86
340.217	55.81
340.429	61.95
340.641	0.51
340.854	59.9
341.066	-9.73
341.278	53.76
341.491	18.94
341.703	39.42
341.915	10.75
342.128	119.29
342.34	-24.06
342.552	39.42
342.764	25.09
342.977	29.18
343.189	49.66
343.401	137.73
343.613	-36.35
343.826	-11.78
344.038	10.75
344.25	66.05
344.462	-89.6
344.674	55.81
344.886	33.28
345.099	98.81
345.311	70.14
345.523	-11.78
345.735	64
345.947	84.48
346.159	-15.87
346.371	39.42
346.583	84.48
346.795	102.91
347.007	-56.83
347.219	78.33
347.431	80.38
347.643	-15.87
347.855	6.66
348.067	82.43
348.279	-22.02
348.491	16.9
348.703	12.8
348.915	43.52
349.127	-17.92
349.339	51.71
349.551	0.51
349.763	-15.87
349.975	2.56
350.187	68.09
350.399	137.73
350.61	37.38
350.822	-15.87
351.034	-3.58
351.246	117.25
351.458	-1.54
351.669	20.99
351.881	68.09
352.093	18.94
352.305	49.66
352.517	-3.58
352.728	80.38
352.94	84.48
353.152	18.94
353.363	-40.45
353.575	-1.54
353.787	43.52
353.999	59.9
354.21	29.18
354.422	49.66
354.633	-26.11
354.845	6.66
355.057	45.57
355.268	57.86
355.48	4.61
355.692	-112.13
355.903	14.85
356.115	12.8
356.326	-46.59
356.538	23.04
356.749	6.66
356.961	98.81
357.172	78.33
357.384	-62.98
357.595	25.09
357.807	68.09
358.018	35.33
358.23	10.75
358.441	100.86
358.653	70.14
358.864	29.18
359.075	27.14
359.287	49.66
359.498	78.33
359.709	-13.82
359.921	4.61
360.132	-19.97
360.344	12.8
360.555	37.38
360.766	10.75
360.977	82.43
361.189	47.62
361.4	41.47
361.611	92.67
361.823	31.23
362.034	33.28
362.245	18.94
362.456	98.81
362.667	-3.58
362.879	96.77
363.09	37.38
363.301	31.23
363.512	66.05
363.723	41.47
363.935	57.86
364.146	80.38
364.357	-52.74
364.568	86.53
364.779	-77.31
364.99	100.86
365.201	33.28
365.412	10.75
365.623	-5.63
365.834	86.53
366.045	64
366.256	117.25
366.467	2.56
366.678	66.05
366.889	23.04
367.1	115.2
367.311	72.19
367.522	-26.11
367.733	23.04
367.944	10.75
368.155	16.9
368.366	31.23
368.577	33.28
368.788	64
368.999	59.9
369.209	90.62
369.42	33.28
369.631	43.52
369.842	35.33
370.053	4.61
370.264	51.71
370.474	-3.58
370.685	18.94
370.896	82.43
371.107	14.85
371.317	94.72
371.528	37.38
371.739	-11.78
371.95	37.38
372.16	39.42
372.371	8.7
372.582	27.14
372.792	84.48
373.003	16.9
373.214	-36.35
373.424	10.75
373.635	-22.02
373.846	-11.78
374.056	66.05
374.267	82.43
374.477	64
374.688	16.9
374.898	4.61
375.109	-9.73
375.319	51.71
375.53	78.33
375.74	100.86
375.951	59.9
376.161	41.47
376.372	35.33
376.582	12.8
376.793	14.85
377.003	16.9
377.214	68.09
377.424	66.05
377.635	53.76
377.845	76.29
378.055	43.52
378.266	76.29
378.476	111.1
378.686	49.66
378.897	37.38
379.107	72.19
379.317	-7.68
379.528	80.38
379.738	90.62
379.948	12.8
380.158	8.7
380.369	10.75
380.579	49.66
380.789	33.28
380.999	109.05
381.21	31.23
381.42	27.14
381.63	-19.97
381.84	2.56
382.05	-3.58
382.261	35.33
382.471	41.47
382.681	-34.3
382.891	72.19
383.101	88.57
383.311	37.38
383.521	-19.97
383.731	90.62
383.941	55.81
384.151	49.66
384.361	66.05
384.571	-67.07
384.781	51.71
384.991	94.72
385.201	90.62
385.411	-38.4
385.621	57.86
385.831	4.61
386.041	-22.02
386.251	43.52
386.461	31.23
386.671	43.52
386.881	45.57
387.091	12.8
387.301	43.52
387.511	37.38
387.72	41.47
387.93	18.94
388.14	64
388.35	33.28
388.56	59.9
388.769	57.86
388.979	72.19
389.189	6.66
389.399	59.9
389.609	90.62
389.818	119.29
390.028	14.85
390.238	-62.98
390.447	39.42
390.657	41.47
390.867	88.57
391.076	61.95
391.286	88.57
391.496	20.99
391.705	98.81
391.915	104.96
392.125	-9.73
392.334	88.57
392.544	23.04
392.753	119.29
392.963	-7.68
393.172	92.67
393.382	80.38
393.591	100.86
393.801	20.99
394.01	90.62
394.22	113.15
394.429	20.99
394.639	84.48
394.848	154.11
395.058	64
395.267	68.09
395.477	102.91
395.686	104.96
395.895	41.47
396.105	31.23
396.314	80.38
396.524	66.05
396.733	20.99
396.942	119.29
397.152	64
397.361	86.53
397.57	113.15
397.78	92.67
397.989	76.29
398.198	213.5
398.407	25.09
398.617	123.39
398.826	113.15
399.035	129.53
399.244	111.1
399.453	72.19
399.663	94.72
399.872	96.77
400.081	92.67
400.29	121.34
400.499	145.92
400.708	86.53
400.917	23.04
401.127	152.06
401.336	162.3
401.545	129.53
401.754	84.48
401.963	143.87
402.172	119.29
402.381	68.09
402.59	8.7
402.799	82.43
403.008	84.48
403.217	98.81
403.426	143.87
403.635	53.76
403.844	125.44
404.053	109.05
404.262	139.77
404.471	125.44
404.68	174.59
404.888	135.68
405.097	61.95
405.306	150.01
405.515	104.96
405.724	66.05
405.933	125.44
406.142	98.81
406.35	135.68
406.559	53.76
406.768	137.73
406.977	211.45
407.185	199.16
407.394	262.65
407.603	180.73
407.812	164.35
408.02	238.08
408.229	182.78
408.438	182.78
408.646	141.82
408.855	158.21
409.064	156.16
409.272	219.64
409.481	244.22
409.69	158.21
409.898	248.32
410.107	289.28
410.315	346.62
410.524	248.32
410.733	338.43
410.941	236.03
411.15	287.23
411.358	268.8
411.567	293.37
411.775	340.47
411.984	365.05
412.192	395.77
412.401	336.38
412.609	383.48
412.818	461.3
413.026	436.73
413.234	373.24
413.443	432.63
413.651	391.67
413.86	473.59
414.068	528.89
414.276	592.37
414.485	528.89
414.693	598.52
414.901	592.37
415.11	596.47
415.318	573.94
415.526	604.66
415.734	670.2
415.943	752.12
416.151	793.08
416.359	780.79
416.567	700.92
416.776	852.47
416.984	807.41
417.192	836.08
417.4	821.75
417.608	877.04
417.817	868.85
418.025	1079.79
418.233	1075.7
418.441	893.43
418.649	1047.02
418.857	1174
419.065	1141.23
419.273	1159.66
419.481	1126.89
419.689	1251.82
419.897	1317.36
420.105	1262.06
420.313	1286.64
420.521	1475.05
420.729	1528.3
420.937	1415.66
421.145	1634.79
421.353	1563.11
421.561	1685.99
421.769	1657.32
421.977	1726.95
422.185	1792.48
422.393	1960.42
422.601	1915.36
422.809	1935.84
423.017	1972.71
423.224	1956.32
423.432	2114.02
423.64	2148.83
423.848	2431.45
424.056	2304.48
424.263	2466.27
424.471	2367.96
424.679	2394.59
424.887	2716.12
425.094	2812.37
425.302	2673.11
425.51	2949.59
425.718	2896.34
425.925	2912.72
426.133	3051.99
426.341	3287.5
426.548	3410.38
426.756	3402.19
426.964	3408.33
427.171	3649.99
427.379	3791.3
427.586	3738.05
427.794	3824.07
428.001	3889.6
428.209	4219.33
428.417	4092.35
428.624	4534.71
428.832	4491.71
429.039	4327.87
429.247	4399.55
429.454	4766.14
429.662	5163.44
429.869	4893.11
430.076	5251.5
430.284	4884.92
430.491	5247.41
430.699	5484.97
430.906	5523.88
431.114	5628.33
431.321	5869.99
431.528	5915.05
431.736	6275.49
431.943	6517.15
432.15	6498.72
432.358	6519.2
432.565	6898.07
432.772	6814.1
432.979	7047.57
433.187	7307.66
433.394	7391.63
433.601	7948.68
433.808	7909.77
434.016	7909.77
434.223	8089.99
434.43	8542.59
434.637	8401.28
434.844	8991.09
435.052	9206.13
435.259	9197.94
435.466	9075.06
435.673	9251.19
435.88	9644.4
436.087	10178.92
436.294	9992.55
436.501	9841
436.708	10234.21
436.915	10275.17
437.122	11002.2
437.329	10723.68
437.537	11360.59
437.743	11141.46
437.95	11280.72
438.157	11860.3
438.364	12278.08
438.571	12255.56
438.778	12398.91
438.985	13623.6
439.192	12980.54
439.399	13322.55
439.606	13230.39
439.813	13867.31
440.02	14645.54
440.227	14209.32
440.433	14041.39
440.64	14866.72
440.847	14711.07
441.054	15057.18
441.261	15843.6
441.467	15603.99
441.674	16261.38
441.881	16648.45
442.088	16582.91
442.294	16591.11
442.501	16959.74
442.708	17135.87
442.914	17959.15
443.121	18657.51
443.328	18143.47
443.534	19558.61
443.741	19241.18
443.948	18444.52
444.154	20142.28
444.361	20005.07
444.568	19976.4
444.774	20127.95
444.981	20074.7
445.187	20775.11
445.394	21792.95
445.6	21264.57
445.807	23591.06
446.013	22446.25
446.22	22904.99
446.426	23859.35
446.633	24049.81
446.839	24670.34
447.046	23683.22
447.252	25084.03
447.459	25301.12
447.665	24782.98
447.871	26126.45
448.078	27013.22
448.284	25786.49
448.491	26355.82
448.697	27428.96
448.903	27967.57
449.11	28330.06
449.316	27586.65
449.522	27943
449.728	28887.11
449.935	29143.11
450.141	28870.73
450.347	29685.82
450.553	28991.56
450.76	28993.61
450.966	30208.05
451.172	29558.84
451.378	30226.48
451.584	29915.19
451.791	30496.81
451.997	30525.49
452.203	30883.88
452.409	30763.05
452.615	30582.83
452.821	29691.96
453.027	29106.24
453.233	30844.97
453.44	29231.17
453.646	30081.08
453.852	30134.32
454.058	30623.79
454.264	29771.83
454.47	30521.39
454.676	29564.99
454.882	30339.12
455.088	27582.56
455.294	28266.58
455.5	28489.81
455.705	28790.86
455.911	27611.23
456.117	27123.81
456.323	26865.77
456.529	25198.72
456.735	26345.58
456.941	25555.07
457.147	25145.47
457.352	24606.86
457.558	23863.44
457.764	24381.58
457.97	24125.58
458.176	23263.39
458.381	23398.55
458.587	22370.47
458.793	21907.63
458.999	21039.29
459.204	22708.39
459.41	22001.84
459.616	20785.35
459.821	20648.13
460.027	20183.24
460.233	19857.62
460.438	19079.39
460.644	19042.53
460.85	18557.16
461.055	18067.69
461.261	18118.89
461.466	16976.12
461.672	16136.46
461.878	17299.7
462.083	16163.08
462.289	16062.73
462.494	15755.54
462.7	15063.32
462.905	14653.73
463.111	15104.28
463.316	15184.15
463.522	14995.74
463.727	14993.69
463.932	14973.21
464.138	14831.9
464.343	14723.36
464.549	14262.57
464.754	14813.47
464.959	14682.4
465.165	14696.74
465.37	14221.61
465.575	13551.92
465.781	14235.94
465.986	14309.67
466.191	13881.64
466.397	13418.8
466.602	12992.83
466.807	13547.83
467.012	13383.99
467.218	13216.05
467.423	12996.92
467.628	13406.52
467.833	13549.87
468.038	13181.24
468.244	12859.71
468.449	13371.7
468.654	12876.09
468.859	12740.93
469.064	13070.65
469.269	12284.23
469.474	12273.99
469.679	12538.18
469.885	12380.48
470.09	12368.2
470.295	12327.24
470.5	11993.42
470.705	12118.34
470.91	11817.29
471.115	11577.68
471.32	11899.21
471.525	12013.9
471.73	11411.79
471.935	11467.09
472.139	11092.31
472.344	11268.44
472.549	11297.11
472.754	10969.43
472.959	10828.12
473.164	10506.59
473.369	10473.82
473.574	10813.79
473.778	10852.7
473.983	10633.57
474.188	10565.98
474.393	10002.79
474.598	10223.97
474.802	9955.69
475.007	9978.22
475.212	9863.53
475.417	9646.44
475.621	9640.3
475.826	9507.18
476.031	9539.95
476.235	9138.55
476.44	9445.74
476.645	9242.99
476.849	9337.2
477.054	9044.34
477.259	9089.4
477.463	9138.55
477.668	8851.83
477.872	8759.67
478.077	8694.14
478.282	8444.29
478.486	8563.07
478.691	8483.2
478.895	8436.1
479.1	8372.61
479.304	8298.88
479.509	8116.61
479.713	8280.45
479.918	8001.93
480.122	7960.97
480.326	8180.1
480.531	8003.97
480.735	7942.53
480.94	7930.25
481.144	8186.24
481.348	7788.94
481.553	7999.88
481.757	7721.35
481.961	7747.98
482.166	7877
482.37	7790.99
482.574	7666.06
482.778	7704.97
482.983	7924.1
483.187	7682.44
483.391	7885.19
483.595	7686.54
483.8	7659.92
484.004	7836.04
484.208	7977.35
484.412	7756.17
484.616	7805.32
484.821	7610.76
485.025	7539.08
485.229	7891.34
485.433	7801.22
485.637	7778.7
485.841	7635.34
486.045	7731.59
486.249	7700.87
486.453	7547.28
486.657	7481.74
486.861	7776.65
487.065	7432.59
487.269	7653.77
487.473	7485.84
487.677	7680.39
487.881	7756.17
488.085	7776.65
488.289	7897.48
488.493	7551.37
488.697	7846.28
488.901	7698.83
489.105	7793.03
489.309	7707.02
489.512	7809.42
489.716	7561.61
489.92	7793.03
490.124	7754.12
490.328	7795.08
490.531	7793.03
490.735	7872.9
490.939	8069.51
491.143	7848.33
491.346	7952.77
491.55	7954.82
491.754	7967.11
491.958	8130.95
492.161	7971.21
492.365	8137.09
492.569	8126.85
492.772	8065.41
492.976	8169.86
493.18	8384.9
493.383	8284.55
493.587	8497.53
493.79	8436.1
493.994	8247.68
494.197	8415.62
494.401	8575.36
494.605	8665.47
494.808	8704.38
495.012	8653.18
495.215	8735.1
495.419	8855.93
495.622	8935.8
495.825	8991.09
496.029	8892.79
496.232	9124.21
496.436	9152.88
496.639	9392.5
496.843	9226.61
497.046	9548.14
497.249	9703.79
497.453	9666.92
497.656	9730.41
497.859	9771.37
498.063	9836.91
498.266	9984.36
498.469	9972.07
498.673	10037.61
498.876	10248.55
499.079	10391.91
499.282	10217.83
499.485	10664.29
499.689	10529.12
499.892	10791.26
500.095	10936.67
500.298	11153.75
500.501	10924.38
500.705	11336.02
500.908	11247.96
501.111	11372.88
501.314	11430.23
501.517	11733.32
501.72	11868.49
501.923	11682.13
502.126	11893.07
502.329	12292.42
502.532	12216.65
502.735	12280.13
502.938	12378.44
503.141	12751.17
503.344	12906.81
503.547	12919.1
503.75	12951.87
503.953	13246.77
504.156	13441.33
504.359	13279.54
504.562	13467.95
504.765	14113.06
504.968	14027.05
505.17	14090.54
505.373	14178.6
505.576	14385.44
505.779	14582.05
505.982	14547.23
506.185	14854.43
506.387	15014.17
506.59	14885.15
506.793	15124.76
506.996	15397.14
507.198	15778.06
507.401	15673.62
507.604	16193.8
507.807	16056.59
508.009	16238.86
508.212	16240.9
508.415	16421.13
508.617	16681.22
508.82	16933.12
509.022	16582.91
509.225	17271.03
509.428	17111.29
509.63	17688.82
509.833	17494.26
510.035	17899.76
510.238	18145.52
510.44	17948.91
510.643	18364.65
510.845	18477.29
511.048	18710.75
511.25	18712.8
511.453	18708.71
511.655	19247.32
511.858	19306.71
512.06	19349.72
512.262	19618
512.465	19890.38
512.667	20103.37
512.87	20154.57
513.072	20170.96
513.274	20748.48
513.477	20775.11
513.679	21106.88
513.881	21364.92
514.084	21260.48
514.286	21399.74
514.488	21688.5
514.69	22216.88
514.893	22151.34
515.095	22321.32
515.297	22655.14
515.499	22374.57
515.701	23111.84
515.904	23046.3
516.106	23314.59
516.308	23652.5
516.51	23660.69
516.712	23709.85
516.914	23595.16
517.116	24459.4
517.318	24522.89
517.52	24629.38
517.722	24873.09
517.925	25213.06
518.127	25399.42
518.329	25163.9
518.531	25571.45
518.733	25751.67
518.935	26314.86
519.136	26206.32
519.338	26787.94
519.54	26800.23
519.742	26859.62
519.944	27013.22
520.146	27623.51
520.348	27578.46
520.55	27490.4
520.752	27803.74
520.954	28293.2
521.155	28151.89
521.357	28528.72
521.559	28747.85
521.761	28940.36
521.963	28624.97
522.164	29208.64
522.366	29300.8
522.568	29595.71
522.77	29577.28
522.971	30001.21
523.173	30146.61
523.375	30064.69
523.576	30318.64
523.778	30582.83
523.98	30906.41
524.181	31021.09
524.383	31127.59
524.584	31457.31
524.786	31465.5
524.988	31205.41
525.189	31766.56
525.391	32073.75
525.592	32059.41
525.794	32043.03
525.995	32436.24
526.197	32231.44
526.398	32315.41
526.6	33202.18
526.801	32657.42
527.003	33058.82
527.204	33011.72
527.406	33237
527.607	33396.74
527.808	33599.49
528.01	33130.5
528.211	33417.22
528.412	34224.12
528.614	33853.44
528.815	33626.11
529.016	34185.21
529.218	34109.43
529.419	34091
529.62	34091
529.822	34234.36
530.023	34191.35
530.224	34217.97
530.425	34091
530.626	34199.54
530.828	33755.13
531.029	34813.93
531.23	34342.9
531.431	34637.81
531.632	34678.77
531.833	34947.05
532.035	34693.1
532.236	34770.93
532.437	34869.23
532.638	34750.45
532.839	34975.72
533.04	35385.32
533.241	34732.01
533.442	35399.65
533.643	35174.38
533.844	34893.8
534.045	34961.39
534.246	34594.8
534.447	35170.28
534.648	35233.77
534.849	35182.57
535.05	34942.95
535.251	35381.22
535.451	35117.03
535.652	35354.6
535.853	35315.69
536.054	35168.23
536.255	35340.26
536.456	34852.84
536.657	35420.13
536.857	35383.27
537.058	34768.88
537.259	35434.47
537.46	35342.31
537.66	35145.7
537.861	35287.01
538.062	35123.18
538.263	35049.45
538.463	35065.83
538.664	35405.8
538.865	35379.17
539.065	35383.27
539.266	34811.88
539.466	35782.62
539.667	34729.97
539.868	35655.65
540.068	35215.33
540.269	35065.83
540.469	35854.3
540.67	34752.49
540.87	35096.55
541.071	35127.27
541.271	35170.28
541.472	34910.19
541.672	34902
541.873	35180.52
542.073	34572.27
542.274	35332.07
542.474	34863.08
542.675	34852.84
542.875	35393.51
543.075	35209.19
543.276	34772.97
543.476	35493.86
543.676	35043.31
543.877	35108.84
544.077	34848.75
544.277	34877.42
544.478	34959.34
544.678	35368.93
544.878	34732.01
545.078	35551.2
545.279	34240.5
545.479	35303.4
545.679	35078.12
545.879	35160.04
546.079	34813.93
546.28	35065.83
546.48	34433.01
546.68	35262.44
546.88	35016.68
547.08	34940.91
547.28	34938.86
547.48	34717.68
547.68	34820.08
547.88	34639.86
548.081	34691.05
548.281	34621.42
548.481	34572.27
548.681	35278.82
548.881	34775.02
549.081	34848.75
549.28	34576.37
549.48	34938.86
549.68	34721.77
549.88	35108.84
550.08	34781.17
550.28	34602.99
550.48	34721.77
550.68	34738.16
550.88	34527.22
551.08	34492.4
551.279	34826.22
551.479	34211.83
551.679	34572.27
551.879	34607.09
552.079	34836.46
552.278	34674.67
552.478	34883.56
552.678	34738.16
552.878	34418.67
553.077	34338.8
553.277	34263.03
553.477	34547.7
553.676	34576.37
553.876	34293.75
554.076	34254.84
554.275	34279.41
554.475	34129.91
554.674	34359.28
554.874	34164.73
555.074	34050.04
555.273	34379.76
555.473	34267.13
555.672	33660.93
555.872	34009.08
556.071	33921.02
556.271	34437.11
556.47	33572.86
556.67	33808.38
556.869	34131.96
557.068	34193.4
557.268	33595.39
557.467	34181.11
557.667	33820.67
557.866	33955.83
558.065	33681.41
558.265	33755.13
558.464	33402.88
558.663	33730.56
558.863	33441.79
559.062	33619.97
559.261	33116.17
559.461	34062.33
559.66	33120.26
559.859	33218.57
560.058	33003.53
560.258	33130.5
560.457	32948.23
560.656	33529.86
560.855	32714.76
561.054	33021.96
561.253	32600.08
561.453	33142.79
561.652	32976.9
561.851	32907.27
562.05	32929.8
562.249	32800.78
562.448	32921.61
562.647	32907.27
562.846	32387.09
563.045	32708.62
563.244	32366.61
563.443	32622.61
563.642	32114.71
563.841	32153.62
564.04	32190.48
564.239	32479.25
564.438	31791.13
564.637	31963.16
564.836	31918.1
565.035	31584.29
565.234	32079.89
565.432	31834.14
565.631	31768.6
565.83	31287.33
566.029	31518.75
566.228	31899.67
566.427	31232.04
566.625	31158.31
566.824	30691.37
567.023	31373.35
567.222	30703.66
567.42	31283.23
567.619	31150.12
567.818	30957.61
568.016	30691.37
568.215	31246.37
568.414	30857.26
568.612	30971.94
568.811	30425.14
569.01	30756.91
569.208	30072.89
569.407	30650.41
569.605	30109.75
569.804	30535.73
570.002	30093.36
570.201	30332.98
570.4	30136.37
570.598	30068.79
570.797	29786.17
570.995	29665.34
571.193	29634.62
571.392	29739.07
571.59	29341.76
571.789	29597.76
571.987	29427.77
572.186	29532.22
572.384	28753.99
572.582	29272.13
572.781	29468.73
572.979	28923.97
573.177	29050.95
573.376	29478.97
573.574	28809.29
573.772	29096
573.971	28727.37
574.169	28756.04
574.367	28350.54
574.565	28792.9
574.763	27986
574.962	28254.29
575.16	28106.84
575.358	28069.97
575.556	27850.84
575.754	28139.6
575.952	27770.97
576.151	27902.04
576.349	27517.02
576.547	27801.69
576.745	27965.53
576.943	27723.86
577.141	27537.5
577.339	27641.95
577.537	27375.71
577.735	27351.13
577.933	26986.6
578.131	27392.09
578.329	26972.26
578.527	26820.71
578.725	26894.44
578.923	27318.37
579.121	26740.84
579.319	26566.76
579.516	26982.5
579.714	26910.82
579.912	26892.39
580.11	26673.26
580.308	26484.84
580.506	26310.77
580.704	26198.13
580.901	26654.83
581.099	26419.31
581.297	26296.43
581.495	26163.31
581.692	26312.81
581.89	26026.1
582.088	26216.56
582.285	25753.72
582.483	25710.71
582.681	25712.76
582.878	25745.53
583.076	25636.98
583.274	25655.42
583.471	25401.47
583.669	25251.97
583.866	25448.57
584.064	25241.73
584.262	24967.3
584.459	25622.65
584.657	25297.02
584.854	25340.03
585.052	24457.35
585.249	24694.92
585.447	24811.65
585.644	24729.73
585.841	24537.23
586.039	24658.06
586.236	24567.95
586.434	24203.41
586.631	24408.2
586.828	24344.72
587.026	24207.5
587.223	24424.59
587.42	24289.42
587.618	24211.6
587.815	23935.12
588.012	23990.42
588.21	23883.92
588.407	23933.07
588.604	23441.56
588.801	23406.75
588.999	23683.22
589.196	23650.46
589.393	23677.08
589.59	23339.16
589.787	23380.12
589.984	23160.99
590.182	23044.26
590.379	23236.77
590.576	22993.06
590.773	22952.1
590.97	22976.67
591.167	22657.19
591.364	22452.39
591.561	22503.59
591.758	22735.01
591.955	22655.14
592.152	22769.83
592.349	22335.66
592.546	22597.8
592.743	22528.17
592.94	21815.48
593.137	22171.82
593.334	22479.02
593.531	21936.31
593.727	22069.42
593.924	22134.96
594.121	21795
594.318	22018.22
594.515	21459.13
594.712	21854.39
594.908	21622.97
595.105	21600.44
595.302	21502.14
595.499	21307.58
595.696	21604.53
595.892	21027.01
596.089	21295.29
596.286	21559.48
596.482	21194.94
596.679	20943.04
596.876	21266.62
597.072	21047.49
597.269	21090.49
597.466	20803.78
597.662	20736.2
597.859	20543.69
598.055	21002.43
598.252	20455.62
598.448	20459.72
598.645	20361.42
598.841	20355.27
599.038	20598.98
599.234	20443.34
599.431	20394.18
599.627	20021.45
599.824	20189.39
600.02	19947.73
600.217	20134.09
600.413	20015.31
600.609	20076.75
600.806	19798.23
601.002	20142.28
601.198	19644.63
601.395	19611.86
601.591	19648.72
601.787	19689.68
601.984	19509.46
602.18	19618
602.376	19337.43
602.572	19183.84
602.769	19261.66
602.965	19081.44
603.161	19259.61
603.357	18907.36
603.553	18909.41
603.75	19013.85
603.946	18688.23
604.142	18864.35
604.338	18366.7
604.534	18985.18
604.73	18610.4
604.926	18596.07
605.122	18864.35
605.318	18512.1
605.514	18338.02
605.71	18245.87
605.906	18245.87
606.102	18407.66
606.298	18215.15
606.494	18376.94
606.69	18057.45
606.886	18188.52
607.082	18039.02
607.278	17891.57
607.474	17981.68
607.67	18147.56
607.866	17993.97
608.062	17979.63
608.257	17785.07
608.453	17977.58
608.649	17662.19
608.845	17443.06
609.041	17471.73
609.236	17740.02
609.432	17631.47
609.628	17643.76
609.824	17580.28
610.019	17438.97
610.215	17641.71
610.411	17565.94
610.606	17375.48
610.802	17197.31
610.998	17363.19
611.193	17207.55
611.389	17262.84
611.584	17084.67
611.78	17062.14
611.976	17334.52
612.171	17228.03
612.367	16894.21
612.562	16935.17
612.758	16638.21
612.953	16867.58
613.149	17049.85
613.344	16720.13
613.539	16793.86
613.735	16959.74
613.93	16898.3
614.126	16857.34
614.321	16795.9
614.517	16857.34
614.712	16634.11
614.907	16519.43
615.103	16476.42
615.298	16441.61
615.493	16832.77
615.688	16054.54
615.884	16505.09
616.079	16199.94
616.274	16525.57
616.47	16386.31
616.665	16226.57
616.86	16130.31
617.055	16128.27
617.25	16341.25
617.445	16115.98
617.641	15954.19
617.836	16304.39
618.031	15597.84
618.226	15837.45
618.421	15773.97
618.616	15816.97
618.811	15675.66
619.006	16062.73
619.201	15579.41
619.396	15593.75
619.591	15579.41
619.786	15391
619.981	15427.86
620.176	15464.72
620.371	15382.81
620.566	15120.67
620.761	15223.06
620.956	15585.55
621.151	14899.48
621.346	15188.25
621.541	15048.99
621.735	14879
621.93	14577.95
622.125	14858.53
622.32	14391.59
622.515	14956.83
622.709	14575.91
622.904	14608.67
623.099	14512.42
623.294	14526.75
623.488	14162.22
623.683	14305.57
623.878	13797.68
624.072	14096.68
624.267	13922.6
624.462	13922.6
624.656	13697.33
624.851	13844.78
625.046	13721.9
625.24	13723.95
625.435	13422.9
625.629	13582.64
625.824	13502.77
626.018	13242.68
626.213	13019.45
626.407	13254.97
626.602	13052.22
626.796	13097.27
626.991	13021.5
627.185	13080.89
627.38	12839.23
627.574	12925.24
627.768	12855.61
627.963	12841.28
628.157	12409.15
628.352	12405.06
628.546	12411.2
628.74	12534.08
628.935	12206.41
629.129	12372.29
629.323	12173.64
629.517	12204.36
629.712	11833.68
629.906	11938.12
630.1	12034.38
630.294	11860.3
630.489	11821.39
630.683	11682.13
630.877	11614.54
631.071	11462.99
631.265	11645.26
631.459	11432.27
631.653	11340.11
631.848	11495.76
632.042	11207
632.236	11485.52
632.43	11264.34
632.624	11235.67
632.818	11065.69
633.012	11112.79
633.206	10910.04
633.4	11104.6
633.594	11010.39
633.788	10895.71
633.982	10813.79
634.176	10684.76
634.369	10422.62
634.563	10508.64
634.757	10586.46
634.951	10576.22
635.145	10422.62
635.339	10527.07
635.533	10418.53
635.726	10453.34
635.92	10031.46
636.114	10195.3
636.308	10129.77
636.501	9933.16
636.695	10107.24
636.889	9955.69
637.083	9787.75
637.276	9728.36
637.47	9865.58
637.664	9750.89
637.857	9662.83
638.051	9554.29
638.244	9595.25
638.438	9599.34
638.632	9564.53
638.825	9433.46
639.019	9468.27
639.212	9412.98
639.406	9177.46
639.599	9247.09
639.793	9195.89
639.986	9030.01
640.18	9148.79
640.373	9034.1
640.567	8923.51
640.76	9113.97
640.954	8917.37
641.147	8864.12
641.34	8915.32
641.534	8753.53
641.727	8749.43
641.92	8771.96
642.114	8675.71
642.307	8651.13
642.5	8724.86
642.694	8542.59
642.887	8350.08
643.08	8513.92
643.273	8305.03
643.467	8556.93
643.66	8434.05
643.853	8112.52
644.046	8159.62
644.239	8208.77
644.432	8182.15
644.626	7977.35
644.819	8216.96
645.012	8055.17
645.205	7778.7
645.398	7995.78
645.591	7821.7
645.784	7952.77
645.977	7782.79
646.17	7762.31
646.363	7399.82
646.556	7623.05
646.749	7606.67
646.942	7704.97
647.135	7680.39
647.328	7592.33
647.521	7526.8
647.714	7367.06
647.907	7526.8
648.099	7322
648.292	7463.31
648.485	7227.79
648.678	7149.97
648.871	7143.83
649.064	6988.18
649.256	7156.11
649.449	7121.3
649.642	6998.42
649.835	7043.48
650.027	6853.02
650.22	6887.83
650.413	6977.94
650.605	6920.6
650.798	6939.03
650.991	6820.25
651.183	6781.34
651.376	6822.3
651.568	6801.82
651.761	6652.31
651.954	6662.55
652.146	6617.5
652.339	6484.38
652.531	6445.47
652.724	6400.41
652.916	6377.89
653.109	6504.86
653.301	6488.48
653.494	6375.84
653.686	6222.24
653.879	6324.64
654.071	6293.92
654.263	6093.22
654.456	6214.05
654.648	6095.27
654.84	6007.2
655.033	6068.64
655.225	6130.08
655.417	5906.85
655.61	5921.19
655.802	5929.38
655.994	5884.33
656.186	5980.58
656.379	5753.26
656.571	5937.57
656.763	5820.84
656.955	5751.21
657.148	5804.46
657.34	5740.97
657.532	5728.68
657.724	5675.43
657.916	5542.32
658.108	5620.14
658.3	5591.47
658.492	5464.49
658.684	5446.06
658.876	5413.29
659.068	5421.49
659.26	5288.37
659.452	5362.09
659.644	5360.05
659.836	5122.48
660.028	5253.55
660.22	5355.95
660.412	5138.87
660.604	5073.33
660.796	5243.31
660.988	5140.91
661.18	5218.74
661.372	5128.63
661.563	5067.19
661.755	5124.53
661.947	5130.67
662.139	5124.53
662.331	4897.21
662.522	4958.64
662.714	5009.84
662.906	4909.49
663.097	4893.11
663.289	4782.52
663.481	4630.97
663.673	4858.29
663.864	4729.27
664.056	4622.78
664.247	4823.48
664.439	4848.05
664.631	4757.94
664.822	4721.08
665.014	4610.49
665.205	4622.78
665.397	4608.44
665.588	4618.68
665.78	4432.32
665.971	4520.38
666.163	4405.69
666.354	4561.34
666.546	4463.04
666.737	4354.49
666.929	4428.22
667.12	4532.67
667.311	4471.23
667.503	4393.4
667.694	4340.16
667.885	4303.29
668.077	4186.56
668.268	4192.7
668.459	4293.05
668.651	4067.78
668.842	4096.45
669.033	4200.9
669.224	4291.01
669.416	4176.32
669.607	4075.97
669.798	4084.16
669.989	4215.23
670.18	3969.48
670.371	4200.9
670.563	3938.76
670.754	4092.35
670.945	4010.43
671.136	4026.82
671.327	4059.59
671.518	3862.98
671.709	4020.67
671.9	4014.53
672.091	3895.75
672.282	3869.12
672.473	3637.7
672.664	3869.12
672.855	3740.1
673.046	3754.44
673.237	3789.25
673.428	3686.86
673.619	3832.26
673.809	3789.25
674	3643.85
674.191	3713.48
674.382	3637.7
674.573	3709.38
674.764	3596.75
674.954	3639.75
675.145	3695.05
675.336	3695.05
675.527	3654.09
675.717	3621.32
675.908	3582.41
676.099	3588.55
676.289	3568.07
676.48	3563.98
676.671	3496.39
676.861	3490.25
677.052	3482.06
677.243	3486.15
677.433	3420.62
677.624	3475.91
677.814	3496.39
678.005	3494.35
678.195	3344.84
678.386	3396.04
678.576	3377.61
678.767	3445.2
678.957	3281.36
679.148	3385.8
679.338	3396.04
679.529	3185.1
679.719	3217.87
679.909	3412.43
680.1	3344.84
680.29	3295.69
680.481	3291.6
680.671	3350.99
680.861	3336.65
681.052	3246.54
681.242	3201.49
681.432	3256.78
681.622	3307.98
681.813	3215.82
682.003	3269.07
682.193	3234.25
682.383	3310.03
682.573	3285.45
682.764	3197.39
682.954	3164.62
683.144	3148.24
683.334	3062.23
683.524	3047.89
683.714	3094.99
683.904	3119.57
684.094	3125.71
684.284	3090.9
684.474	3115.47
684.664	3047.89
684.854	3129.81
685.044	3004.88
685.234	3035.6
685.424	2972.11
685.614	2906.58
685.804	2941.4
685.994	2984.4
686.184	3008.98
686.374	3111.38
686.564	3070.42
686.753	2869.72
686.943	2965.97
687.133	2939.35
687.323	2896.34
687.513	2927.06
687.702	2742.74
687.892	2953.68
688.082	2857.43
688.272	2894.29
688.461	2869.72
688.651	2798.04
688.841	2746.84
689.03	2677.21
689.22	2755.03
689.41	2660.82
689.599	2746.84
689.789	2834.9
689.979	2795.99
690.168	2685.4
690.358	2857.43
690.547	2660.82
690.737	2746.84
690.926	2693.59
691.116	2591.19
691.305	2765.27
691.495	2689.49
691.684	2517.47
691.874	2669.02
692.063	2525.66
692.252	2632.15
692.442	2679.26
692.631	2513.37
692.82	2548.19
693.01	2587.1
693.199	2519.51
693.388	2480.6
693.578	2533.85
693.767	2615.77
693.956	2494.94
694.146	2552.28
694.335	2572.76
694.524	2464.22
694.713	2480.6
694.902	2499.03
695.092	2503.13
695.281	2437.59
695.47	2337.24
695.659	2380.25
695.848	2337.24
696.037	2496.99
696.226	2507.23
696.415	2470.36
696.604	2392.54
696.793	2408.92
696.982	2380.25
697.171	2488.79
697.36	2273.76
697.549	2374.11
697.738	2300.38
697.927	2322.91
698.116	2349.53
698.305	2329.05
698.494	2386.4
698.683	2357.72
698.872	2484.7
699.061	2228.7
699.25	2316.76
699.438	2294.24
699.627	2226.65
699.816	2249.18
700.005	2396.64
700.193	2310.62
700.382	2480.6
700.571	2382.3
700.76	2257.37
700.948	2169.31
701.137	2277.85
701.326	2345.44
701.514	2308.57
701.703	2255.33
701.892	2214.37
702.08	2288.09
702.269	2284
702.457	2191.84
702.646	2226.65
702.834	2300.38
703.023	2234.85
703.212	2351.58
703.4	2220.51
703.589	2324.96
703.777	2331.1
703.965	2337.24
704.154	2312.67
704.342	2279.9
704.531	2304.48
704.719	2091.49
704.907	2367.96
705.096	2257.37
705.284	2165.21
705.472	2226.65
705.661	2226.65
705.849	2267.61
706.037	2197.98
706.226	2302.43
706.414	2281.95
706.602	2140.64
706.79	2181.6
706.979	2146.78
707.167	2279.9
707.355	2255.33
707.543	2187.74
707.731	2253.28
707.919	2265.57
708.107	2185.69
708.296	2175.45
708.484	2208.22
708.672	2197.98
708.86	2210.27
709.048	2247.13
709.236	2226.65
709.424	2197.98
709.612	2300.38
709.8	2253.28
709.988	2165.21
710.176	2218.46
710.364	2290.14
710.551	2083.3
710.739	2195.93
710.927	2230.75
711.115	2144.74
711.303	2251.23
711.491	2152.93
711.679	2148.83
711.866	2128.35
712.054	2046.43
712.242	2195.93
712.43	2197.98
712.617	2206.17
712.805	2157.02
712.993	2247.13
713.181	2081.25
713.368	2224.61
713.556	2150.88
713.744	2173.41
713.931	2212.32
714.119	2193.89
714.306	2247.13
714.494	2187.74
714.682	2191.84
714.869	2146.78
715.057	2253.28
715.244	2251.23
715.432	2124.26
715.619	2144.74
715.807	2218.46
715.994	2132.45
716.182	2140.64
716.369	2161.12
716.556	2116.06
716.744	2216.41
716.931	2058.72
717.119	2159.07
717.306	2163.17
717.493	2259.42
717.681	2091.49
717.868	2179.55
718.055	2062.82
718.242	2177.5
718.43	2216.41
718.617	2142.69
718.804	2161.12
718.991	2195.93
719.179	2142.69
719.366	2083.3
719.553	2206.17
719.74	2214.37
719.927	2185.69
720.114	2023.91
720.301	2087.39
720.488	2103.78
720.676	2019.81
720.863	2269.66
721.05	2138.59
721.237	2048.48
721.424	2150.88
721.611	2097.63
721.798	2159.07
721.985	2128.35
722.172	2079.2
722.358	2130.4
722.545	2228.7
722.732	2142.69
722.919	2107.87
723.106	2101.73
723.293	1991.14
723.48	1980.9
723.667	2030.05
723.853	2091.49
724.04	2142.69
724.227	2054.62
724.414	2054.62
724.6	2089.44
724.787	2122.21
724.974	2204.13
725.161	2107.87
725.347	2025.95
725.534	2077.15
725.72	2068.96
725.907	2034.14
726.094	2195.93
726.28	2056.67
726.467	2144.74
726.653	2083.3
726.84	2091.49
727.027	2144.74
727.213	2148.83
727.4	2159.07
727.586	2132.45
727.773	2050.53
727.959	2079.2
728.145	2157.02
728.332	1993.19
728.518	2066.91
728.705	2101.73
728.891	2036.19
729.077	2042.34
729.264	2064.86
729.45	2105.82
729.636	2103.78
729.823	2081.25
730.009	2181.6
730.195	2085.34
730.382	1999.33
730.568	2122.21
730.754	2021.86
730.94	2044.38
731.126	2089.44
731.313	1997.28
731.499	1944.03
731.685	2077.15
731.871	2148.83
732.057	2013.67
732.243	2054.62
732.429	2003.43
732.615	2107.87
732.801	2087.39
732.987	2083.3
733.173	2193.89
733.359	2058.72
733.545	2097.63
733.731	2036.19
733.917	2103.78
734.103	2023.91
734.289	2013.67
734.475	2032.1
734.661	2126.3
734.847	2087.39
735.033	1974.75
735.219	2019.81
735.404	1980.9
735.59	1944.03
735.776	1927.65
735.962	2001.38
736.148	2025.95
736.333	1948.13
736.519	2050.53
736.705	1964.51
736.89	1993.19
737.076	1929.7
737.262	1991.14
737.447	1995.23
737.633	1919.46
737.819	1958.37
738.004	1896.93
738.19	2048.48
738.375	1892.84
738.561	1921.51
738.747	1907.17
738.932	1886.69
739.118	2015.71
739.303	1870.31
739.489	1939.94
739.674	1929.7
739.859	1954.27
740.045	1915.36
740.23	1952.23
740.416	1984.99
740.601	1903.07
740.786	1913.31
740.972	1909.22
741.157	1815.01
741.342	1694.18
741.528	1989.09
741.713	1862.12
741.898	1796.58
742.084	1888.74
742.269	2001.38
742.454	1868.26
742.639	1886.69
742.824	1898.98
743.01	1792.48
743.195	1802.72
743.38	1745.38
743.565	1763.81
743.75	1753.57
743.935	1806.82
744.12	1866.21
744.305	1714.66
744.49	1759.72
744.675	1796.58
744.86	1812.96
745.045	1870.31
745.23	1700.33
745.415	1757.67
745.6	1761.77
745.785	1763.81
745.97	1733.09
746.155	1632.74
746.34	1659.37
746.525	1698.28
746.71	1720.81
746.895	1536.49
747.079	1673.7
747.264	1626.6
747.449	1708.52
747.634	1700.33
747.819	1595.88
748.003	1642.98
748.188	1667.56
748.373	1573.35
748.557	1538.54
748.742	1505.77
748.927	1485.29
749.111	1505.77
749.296	1526.25
749.481	1532.39
749.665	1511.91
749.85	1495.53
750.034	1468.91
750.219	1511.91
750.404	1499.63
750.588	1509.86
750.773	1559.02
750.957	1436.14
751.141	1427.95
751.326	1415.66
751.51	1479.15
751.695	1436.14
751.879	1432.04
752.064	1475.05
752.248	1544.68
752.432	1417.71
752.617	1438.19
752.801	1382.89
752.985	1356.27
753.17	1415.66
753.354	1343.98
753.538	1364.46
753.722	1368.56
753.907	1348.08
754.091	1245.68
754.275	1288.68
754.459	1296.88
754.643	1296.88
754.828	1313.26
755.012	1260.01
755.196	1227.25
755.38	1331.69
755.564	1262.06
755.748	1221.1
755.932	1257.96
756.116	1253.87
756.3	1171.95
756.484	1239.53
756.668	1141.23
756.852	1180.14
757.036	1192.43
757.22	1188.33
757.404	1071.6
757.588	1139.18
757.772	1120.75
757.956	1202.67
758.14	1190.38
758.323	1227.25
758.507	1165.81
758.691	1059.31
758.875	1223.15
759.059	1159.66
759.242	1040.88
759.426	1094.13
759.61	1112.56
759.794	1077.74
759.977	993.78
760.161	1118.7
760.345	1065.46
760.528	999.92
760.712	1083.89
760.895	1010.16
761.079	1055.22
761.263	1032.69
761.446	956.91
761.63	963.06
761.813	979.44
761.997	1024.5
762.18	952.82
762.364	952.82
762.547	981.49
762.731	946.67
762.914	942.58
763.098	1016.3
763.281	1012.21
763.464	911.86
763.648	1010.16
763.831	905.71
764.015	1018.35
764.198	1020.4
764.381	973.3
764.564	881.14
764.748	883.19
764.931	952.82
765.114	889.33
765.297	981.49
765.481	967.15
765.664	942.58
765.847	913.91
766.03	938.48
766.213	940.53
766.397	926.19
766.58	866.8
766.763	877.04
766.946	854.51
767.129	924.15
767.312	903.67
767.495	936.43
767.678	911.86
767.861	854.51
768.044	862.71
768.227	881.14
768.41	782.84
768.593	961.01
768.776	846.32
768.959	899.57
769.142	862.71
769.324	778.74
769.507	840.18
769.69	856.56
769.873	893.43
770.056	797.17
770.239	764.4
770.421	858.61
770.604	764.4
770.787	848.37
770.97	852.47
771.152	698.87
771.335	745.97
771.518	788.98
771.7	829.94
771.883	852.47
772.066	711.16
772.248	752.12
772.431	764.4
772.613	791.03
772.796	823.8
772.978	774.64
773.161	715.25
773.343	795.12
773.526	721.4
773.708	750.07
773.891	719.35
774.073	674.29
774.256	709.11
774.438	819.7
774.621	752.12
774.803	762.36
774.985	760.31
775.168	696.82
775.35	702.97
775.532	700.92
775.715	651.77
775.897	680.44
776.079	655.86
776.261	748.02
776.444	739.83
776.626	612.85
776.808	682.49
776.99	692.73
777.173	659.96
777.355	592.37
777.537	627.19
777.719	698.87
777.901	633.33
778.083	575.99
778.265	590.33
778.447	614.9
778.629	582.14
778.811	668.15
778.993	625.14
779.175	616.95
779.357	567.8
779.539	524.79
779.721	678.39
779.903	543.22
780.085	549.37
780.267	600.57
780.449	567.8
780.631	649.72
780.812	625.14
780.994	537.08
781.176	573.94
781.358	539.13
781.54	532.98
781.721	555.51
781.903	537.08
782.085	465.4
782.267	606.71
782.448	532.98
782.63	547.32
782.812	539.13
782.993	424.44
783.175	518.65
783.357	500.22
783.538	514.55
783.72	504.31
783.901	473.59
784.083	514.55
784.264	403.96
784.446	459.26
784.627	473.59
784.809	455.16
784.99	473.59
785.172	500.22
785.353	428.54
785.535	375.29
785.716	379.39
785.897	399.87
786.079	436.73
786.26	438.78
786.441	379.39
786.623	412.15
786.804	416.25
786.985	455.16
787.167	408.06
787.348	393.72
787.529	383.48
787.71	356.86
787.891	346.62
788.073	369.15
788.254	354.81
788.435	387.58
788.616	455.16
788.797	356.86
788.978	373.24
789.159	311.8
789.34	348.67
789.522	412.15
789.703	299.52
789.884	416.25
790.065	295.42
790.246	363
790.427	348.67
790.607	391.67
790.788	360.95
790.969	287.23
791.15	360.95
791.331	342.52
791.512	346.62
791.693	328.19
791.874	246.27
792.054	371.19
792.235	371.19
792.416	403.96
792.597	279.04
792.778	311.8
792.958	315.9
793.139	313.85
793.32	264.7
793.5	281.08
793.681	342.52
793.862	248.32
794.042	256.51
794.223	320
794.404	258.56
794.584	283.13
794.765	225.79
794.945	248.32
795.126	295.42
795.306	289.28
795.487	276.99
795.667	272.89
795.848	338.43
796.028	233.98
796.209	338.43
796.389	313.85
796.57	336.38
796.75	303.61
796.93	184.83
797.111	250.36
797.291	268.8
797.471	233.98
797.652	324.09
797.832	279.04
798.012	287.23
798.192	256.51
798.373	260.6
798.553	219.64
798.733	252.41
798.913	289.28
799.093	291.32
799.274	207.36
799.454	215.55
799.634	283.13
799.814	227.84
799.994	281.08
800.174	223.74
800.354	272.89
800.534	285.18
800.714	256.51
800.894	207.36
801.074	174.59
801.254	205.31
801.434	236.03
801.614	164.35
801.794	190.97
801.974	575.99
802.154	281.08
802.334	297.47
802.514	244.22
802.693	236.03
802.873	203.26
803.053	244.22
803.233	170.49
803.413	152.06
803.592	207.36
803.772	215.55
803.952	160.25
804.131	129.53
804.311	203.26
804.491	188.93
804.67	182.78
804.85	150.01
805.03	184.83
805.209	254.46
805.389	164.35
805.568	233.98
805.748	145.92
805.928	238.08
806.107	219.64
806.287	145.92
806.466	115.2
806.646	199.16
806.825	168.45
807.004	152.06
807.184	170.49
807.363	233.98
807.543	195.07
807.722	186.88
807.901	188.93
808.081	164.35
808.26	133.63
808.439	193.02
808.619	166.4
808.798	203.26
808.977	174.59
809.156	303.61
809.336	178.69
809.515	225.79
809.694	242.17
809.873	117.25
810.052	207.36
810.231	182.78
810.411	154.11
810.59	174.59
810.769	188.93
810.948	137.73
811.127	158.21
811.306	135.68
811.485	123.39
811.664	213.5
811.843	223.74
812.022	178.69
812.201	141.82
812.38	205.31
812.559	141.82
812.737	150.01
812.916	102.91
813.095	152.06
813.274	133.63
813.453	37.38
813.632	115.2
813.811	133.63
813.989	111.1
814.168	211.45
814.347	107.01
814.526	94.72
814.704	141.82
814.883	147.97
815.062	100.86
815.24	96.77
815.419	98.81
815.598	119.29
815.776	137.73
815.955	121.34
816.133	84.48
816.312	86.53
816.49	121.34
816.669	154.11
816.847	131.58
817.026	94.72
817.204	141.82
817.383	90.62
817.561	123.39
817.74	174.59
817.918	150.01
818.097	180.73
818.275	166.4
818.453	115.2
818.632	96.77
818.81	104.96
818.988	31.23
819.167	127.49
819.345	119.29
819.523	102.91
819.701	59.9
819.879	115.2
820.058	104.96
820.236	125.44
820.414	96.77
820.592	127.49
820.77	117.25
820.948	135.68
821.127	74.24
821.305	133.63
821.483	104.96
821.661	88.57
821.839	152.06
822.017	66.05
822.195	143.87
822.373	121.34
822.551	104.96
822.729	117.25
822.907	150.01
823.085	74.24
823.262	137.73
823.44	84.48
823.618	164.35
823.796	64
823.974	123.39
824.152	80.38
824.329	109.05
824.507	80.38
824.685	104.96
824.863	100.86
825.04	84.48
825.218	53.76
825.396	123.39
825.574	156.16
825.751	6.66
825.929	107.01
826.107	43.52
826.284	88.57
826.462	37.38
826.639	61.95
826.817	127.49
826.994	0.51
827.172	104.96
827.349	127.49
827.527	117.25
827.704	102.91
827.882	141.82
828.059	104.96
828.237	74.24
828.414	49.66
828.591	80.38
828.769	121.34
828.946	55.81
829.124	80.38
829.301	147.97
829.478	92.67
829.655	72.19
829.833	43.52
830.01	49.66
830.187	72.19
830.364	6.66
830.542	127.49
830.719	74.24
830.896	92.67
831.073	76.29
831.25	92.67
831.427	57.86
831.604	55.81
831.782	100.86
831.959	53.76
832.136	37.38
832.313	119.29
832.49	51.71
832.667	129.53
832.844	82.43
833.021	104.96
833.198	104.96
833.374	59.9
833.551	68.09
833.728	92.67
833.905	70.14
834.082	-58.88
834.259	31.23
834.436	66.05
834.612	102.91
834.789	80.38
834.966	137.73
835.143	41.47
835.319	59.9
835.496	84.48
835.673	64
835.85	27.14
836.026	84.48
836.203	20.99
836.38	68.09
836.556	70.14
836.733	80.38
836.909	72.19
837.086	84.48
837.262	18.94
837.439	16.9
837.616	57.86
837.792	66.05
837.968	121.34
838.145	123.39
838.321	-44.54
838.498	78.33
838.674	92.67
838.851	35.33
839.027	135.68
839.203	64
839.38	127.49
839.556	80.38
839.732	59.9
839.909	68.09
840.085	27.14
840.261	94.72
840.437	57.86
840.614	80.38
840.79	113.15
840.966	119.29
841.142	72.19
841.318	18.94
841.494	2.56
841.671	14.85
841.847	6.66
842.023	-9.73
842.199	25.09
842.375	59.9
842.551	-22.02
842.727	12.8
842.903	70.14
843.079	0.51
843.255	66.05
843.431	4.61
843.607	70.14
843.783	14.85
843.959	84.48
844.134	27.14
844.31	115.2
844.486	8.7
844.662	43.52
844.838	8.7
845.013	74.24
845.189	2.56
845.365	80.38
845.541	72.19
845.716	92.67
845.892	20.99
846.068	39.42
846.244	25.09
846.419	78.33
846.595	23.04
846.77	49.66
846.946	2.56
847.122	182.78
847.297	33.28
847.473	125.44
847.648	53.76
847.824	55.81
847.999	-15.87
848.175	-36.35
848.35	37.38
848.526	104.96
848.701	2.56
848.876	47.62
849.052	23.04
849.227	-1.54
849.403	45.57
849.578	72.19
849.753	72.19
849.929	102.91
850.104	-48.64
850.279	90.62
850.454	10.75
850.63	102.91
850.805	115.2
850.98	51.71
851.155	-22.02
851.33	45.57
851.505	23.04
851.681	72.19
851.856	16.9
852.031	92.67
852.206	-15.87
852.381	55.81
852.556	51.71
852.731	37.38
852.906	23.04
853.081	98.81
853.256	-3.58
853.431	47.62
853.606	72.19
853.781	61.95
853.956	-32.26
854.131	27.14
854.305	-5.63
854.48	10.75
854.655	-5.63
854.83	64
855.005	10.75
855.18	68.09
855.354	18.94
855.529	47.62
855.704	39.42
855.879	25.09
856.053	59.9
856.228	20.99
856.403	59.9
856.577	53.76
856.752	-26.11
856.926	55.81
857.101	6.66
857.276	0.51
857.45	72.19
857.625	57.86
857.799	-22.02
857.974	23.04
858.148	82.43
858.323	57.86
858.497	-46.59
858.672	4.61
858.846	16.9
859.02	23.04
859.195	-26.11
859.369	-19.97
859.543	-7.68
859.718	18.94
859.892	16.9
860.066	53.76
860.241	-19.97
860.415	43.52
860.589	-56.83
860.763	68.09
860.938	2.56
861.112	27.14
861.286	78.33
861.46	6.66
861.634	-9.73
861.808	113.15
861.982	-103.93
862.157	10.75
862.331	-5.63
862.505	-48.64
862.679	-30.21
862.853	-17.92
863.027	-38.4
863.201	2.56
863.375	27.14
863.549	27.14
863.722	4.61
863.896	39.42
864.07	-42.5
864.244	57.86
864.418	-7.68
864.592	6.66
864.766	23.04
864.939	43.52
865.113	2.56
865.287	125.44
865.461	8.7
865.634	-15.87
865.808	59.9
865.982	2.56
866.156	0.51
866.329	0.51
866.503	25.09
866.676	29.18
866.85	33.28
867.024	39.42
867.197	18.94
867.371	23.04
867.544	27.14
867.718	16.9
867.891	-24.06
868.065	-22.02
868.238	16.9
868.412	76.29
868.585	12.8
868.759	-48.64
868.932	-36.35
869.105	16.9
869.279	45.57
869.452	49.66
869.625	80.38
869.799	53.76
869.972	-46.59
870.145	-5.63
870.319	-1.54
870.492	25.09
870.665	-36.35
870.838	43.52
871.011	-56.83
871.185	31.23
871.358	-48.64
871.531	14.85
871.704	-7.68
871.877	-22.02
872.05	35.33
872.223	-13.82
872.396	-15.87
872.569	29.18
872.742	-38.4
872.915	45.57
873.088	-19.97
873.261	35.33
873.434	31.23
873.607	-7.68
873.78	-17.92
873.953	-5.63
874.126	29.18
874.299	-44.54
874.471	-24.06
874.644	47.62
874.817	-58.88
874.99	74.24
875.163	43.52
875.335	64
875.508	4.61
875.681	-38.4
875.853	20.99
876.026	0.51
876.199	49.66
876.371	39.42
876.544	-44.54
876.717	-3.58
876.889	-9.73
877.062	-38.4
877.234	-36.35
877.407	31.23
877.579	-60.93
877.752	14.85
877.924	41.47
878.097	43.52
878.269	10.75
878.442	49.66
878.614	61.95
878.786	31.23
878.959	18.94
879.131	-3.58
879.303	-3.58
879.476	55.81
879.648	-26.11
879.82	14.85
879.993	61.95
880.165	43.52
880.337	10.75
880.509	35.33
880.681	68.09
880.854	2.56
881.026	16.9
881.198	64
881.37	76.29
881.542	6.66
881.714	27.14
881.886	35.33
882.058	37.38
882.23	16.9
882.402	-42.5
882.574	0.51
882.746	-30.21
882.918	31.23
883.09	2.56
883.262	4.61
883.434	39.42
883.606	-19.97
883.778	-15.87
883.95	55.81
884.122	-1.54
884.293	-7.68
884.465	29.18
884.637	51.71
884.809	53.76
884.98	41.47
885.152	-7.68
885.324	41.47
885.496	-62.98
885.667	20.99
885.839	-22.02
886.011	-1.54
886.182	39.42
886.354	29.18
886.525	-30.21
886.697	-9.73
886.869	-1.54
887.04	-46.59
887.212	37.38
887.383	18.94
887.555	-40.45
887.726	25.09
887.897	-9.73
888.069	33.28
888.24	0.51
888.412	25.09
888.583	59.9
888.754	39.42
888.926	-38.4
889.097	39.42
889.268	0.51
889.44	29.18
889.611	35.33
889.782	18.94
889.953	-69.12
890.125	-9.73
890.296	-9.73
890.467	-36.35
890.638	-13.82
890.809	53.76
890.98	-60.93
891.151	-7.68
891.323	92.67
891.494	-5.63
891.665	37.38
891.836	20.99
892.007	37.38
892.178	47.62
892.349	-42.5
892.52	-1.54
892.691	23.04
892.862	-34.3
893.032	41.47
893.203	-54.78
893.374	43.52
893.545	-9.73
893.716	-56.83
893.887	43.52
894.057	23.04
894.228	-42.5
894.399	-36.35
894.57	-44.54
894.74	25.09
894.911	29.18
895.082	-7.68
895.253	37.38
895.423	-22.02
895.594	39.42
895.764	-71.17
895.935	-17.92
896.106	-60.93
896.276	59.9
896.447	-30.21
896.617	23.04
896.788	-32.26
896.958	0.51
897.129	-32.26
897.299	10.75
897.47	35.33
897.64	-1.54
897.81	-44.54
897.981	10.75
898.151	18.94
898.322	-79.36
898.492	-60.93
898.662	35.33
898.832	-42.5
899.003	-40.45
899.173	-5.63
899.343	23.04
899.513	23.04
