Data from USB4F104151__158__11-08-33-209.txt Node

Date: Wed Mar 12 11:08:33 EDT 2025
User: louis
Spectrometer: USB4F10415
Trigger mode: 4
Integration Time (sec): 2.000000E-2
Scans to average: 1
Electric dark correction enabled: true
Nonlinearity correction enabled: false
Boxcar width: 0
XAxis mode: Wavelengths
Number of Pixels in Spectrum: 3648
>>>>>Begin Spectral Data<<<<<
178.204	-108.54
178.424	-108.54
178.644	-108.54
178.864	-135.17
179.084	-118.78
179.304	-53.25
179.524	-47.1
179.744	51.2
179.964	38.91
180.184	-12.29
180.404	8.19
180.624	4.1
180.844	43.01
181.064	-16.38
181.283	-2.05
181.503	16.38
181.723	-30.72
181.943	-102.4
182.163	65.54
182.383	0
182.602	28.67
182.822	47.1
183.042	63.49
183.262	16.38
183.482	-40.96
183.701	10.24
183.921	-32.77
184.141	45.06
184.361	67.58
184.58	92.16
184.8	38.91
185.02	6.14
185.239	38.91
185.459	4.1
185.679	28.67
185.898	-16.38
186.118	24.58
186.338	-47.1
186.557	28.67
186.777	36.86
186.997	28.67
187.216	-49.15
187.436	16.38
187.655	6.14
187.875	-4.1
188.095	53.25
188.314	49.15
188.534	92.16
188.753	34.82
188.973	12.29
189.192	38.91
189.412	8.19
189.631	-61.44
189.851	30.72
190.07	-51.2
190.29	30.72
190.509	-12.29
190.729	24.58
190.948	69.63
191.168	133.12
191.387	20.48
191.607	-43.01
191.826	75.77
192.045	-20.48
192.265	45.06
192.484	-45.06
192.704	10.24
192.923	-2.05
193.142	22.53
193.362	8.19
193.581	18.43
193.8	-51.2
194.02	8.19
194.239	2.05
194.458	20.48
194.678	-53.25
194.897	75.77
195.116	-24.58
195.335	26.62
195.555	8.19
195.774	20.48
195.993	-6.14
196.212	53.25
196.432	-36.86
196.651	-32.77
196.87	77.82
197.089	43.01
197.308	-2.05
197.528	69.63
197.747	-47.1
197.966	65.54
198.185	92.16
198.404	-12.29
198.623	16.38
198.842	6.14
199.062	20.48
199.281	22.53
199.5	59.39
199.719	-24.58
199.938	-47.1
200.157	69.63
200.376	-4.1
200.595	40.96
200.814	34.82
201.033	-20.48
201.252	30.72
201.471	-63.49
201.69	43.01
201.909	8.19
202.128	-20.48
202.347	6.14
202.566	-2.05
202.785	4.1
203.004	-61.44
203.223	67.58
203.442	14.34
203.661	-28.67
203.879	-49.15
204.098	32.77
204.317	20.48
204.536	-2.05
204.755	-6.14
204.974	59.39
205.193	65.54
205.411	94.21
205.63	24.58
205.849	24.58
206.068	4.1
206.287	-8.19
206.505	20.48
206.724	14.34
206.943	-28.67
207.162	69.63
207.381	-30.72
207.599	20.48
207.818	38.91
208.037	-18.43
208.255	-53.25
208.474	16.38
208.693	77.82
208.911	-10.24
209.13	22.53
209.349	65.54
209.567	-32.77
209.786	-6.14
210.005	12.29
210.223	26.62
210.442	38.91
210.661	86.01
210.879	71.68
211.098	63.49
211.316	61.44
211.535	-8.19
211.753	-12.29
211.972	8.19
212.191	-28.67
212.409	18.43
212.628	34.82
212.846	-26.62
213.065	24.58
213.283	-18.43
213.502	16.38
213.72	71.68
213.938	-4.1
214.157	38.91
214.375	-43.01
214.594	30.72
214.812	-6.14
215.031	12.29
215.249	16.38
215.467	28.67
215.686	-20.48
215.904	-12.29
216.122	-4.1
216.341	4.1
216.559	-12.29
216.778	65.54
216.996	4.1
217.214	-98.3
217.432	-53.25
217.651	43.01
217.869	-14.34
218.087	20.48
218.306	2.05
218.524	14.34
218.742	16.38
218.96	112.64
219.179	-12.29
219.397	-47.1
219.615	65.54
219.833	32.77
220.051	-16.38
220.27	-2.05
220.488	-22.53
220.706	77.82
220.924	40.96
221.142	65.54
221.36	30.72
221.578	-26.62
221.796	20.48
222.015	-34.82
222.233	18.43
222.451	22.53
222.669	8.19
222.887	-47.1
223.105	24.58
223.323	10.24
223.541	-36.86
223.759	-2.05
223.977	-24.58
224.195	-6.14
224.413	-57.34
224.631	98.3
224.849	-36.86
225.067	6.14
225.285	-4.1
225.503	79.87
225.721	-28.67
225.939	-22.53
226.157	-22.53
226.375	51.2
226.592	8.19
226.81	10.24
227.028	-8.19
227.246	124.93
227.464	4.1
227.682	14.34
227.9	2.05
228.117	51.2
228.335	18.43
228.553	57.34
228.771	18.43
228.989	22.53
229.206	49.15
229.424	51.2
229.642	-51.2
229.86	-61.44
230.077	-26.62
230.295	32.77
230.513	61.44
230.731	49.15
230.948	-22.53
231.166	-6.14
231.384	20.48
231.601	12.29
231.819	110.59
232.037	-28.67
232.254	8.19
232.472	57.34
232.689	-4.1
232.907	4.1
233.125	-86.01
233.342	-20.48
233.56	-32.77
233.777	6.14
233.995	28.67
234.213	36.86
234.43	-8.19
234.648	-16.38
234.865	45.06
235.083	40.96
235.3	-6.14
235.518	14.34
235.735	75.77
235.953	40.96
236.17	-18.43
236.388	49.15
236.605	49.15
236.822	30.72
237.04	4.1
237.257	96.25
237.475	-40.96
237.692	-12.29
237.909	47.1
238.127	-32.77
238.344	-45.06
238.562	67.58
238.779	8.19
238.996	65.54
239.214	22.53
239.431	-14.34
239.648	8.19
239.865	8.19
240.083	-26.62
240.3	40.96
240.517	-12.29
240.735	2.05
240.952	16.38
241.169	-8.19
241.386	26.62
241.603	-12.29
241.821	38.91
242.038	34.82
242.255	14.34
242.472	-12.29
242.689	47.1
242.907	73.73
243.124	2.05
243.341	-16.38
243.558	30.72
243.775	-12.29
243.992	-20.48
244.209	2.05
244.426	22.53
244.643	69.63
244.86	43.01
245.078	73.73
245.295	18.43
245.512	90.11
245.729	8.19
245.946	120.83
246.163	40.96
246.38	-18.43
246.597	-16.38
246.814	12.29
247.031	4.1
247.248	71.68
247.464	55.3
247.681	-6.14
247.898	20.48
248.115	69.63
248.332	8.19
248.549	36.86
248.766	59.39
248.983	2.05
249.2	4.1
249.417	6.14
249.633	18.43
249.85	61.44
250.067	12.29
250.284	-12.29
250.501	18.43
250.717	51.2
250.934	-36.86
251.151	-16.38
251.368	18.43
251.585	47.1
251.801	4.1
252.018	-47.1
252.235	36.86
252.451	18.43
252.668	16.38
252.885	38.91
253.102	2.05
253.318	-6.14
253.535	-53.25
253.752	8.19
253.968	65.54
254.185	32.77
254.401	4.1
254.618	22.53
254.835	43.01
255.051	102.4
255.268	18.43
255.484	59.39
255.701	-24.58
255.917	57.34
256.134	2.05
256.351	16.38
256.567	6.14
256.784	100.35
257	30.72
257.217	-8.19
257.433	18.43
257.65	59.39
257.866	8.19
258.082	6.14
258.299	-40.96
258.515	8.19
258.732	12.29
258.948	34.82
259.165	67.58
259.381	61.44
259.597	57.34
259.814	98.3
260.03	20.48
260.246	51.2
260.463	49.15
260.679	88.06
260.895	26.62
261.112	2.05
261.328	-14.34
261.544	22.53
261.761	114.69
261.977	45.06
262.193	-6.14
262.409	8.19
262.626	22.53
262.842	22.53
263.058	22.53
263.274	30.72
263.49	106.49
263.707	28.67
263.923	-6.14
264.139	51.2
264.355	83.97
264.571	65.54
264.787	83.97
265.004	77.82
265.22	14.34
265.436	-24.58
265.652	28.67
265.868	65.54
266.084	38.91
266.3	47.1
266.516	-45.06
266.732	34.82
266.948	0
267.164	53.25
267.38	43.01
267.596	-34.82
267.812	24.58
268.028	16.38
268.244	10.24
268.46	24.58
268.676	6.14
268.892	18.43
269.108	47.1
269.324	30.72
269.54	0
269.756	65.54
269.972	14.34
270.188	32.77
270.403	-45.06
270.619	10.24
270.835	22.53
271.051	-71.68
271.267	8.19
271.483	26.62
271.698	26.62
271.914	73.73
272.13	63.49
272.346	67.58
272.562	43.01
272.777	153.6
272.993	-2.05
273.209	30.72
273.425	4.1
273.64	55.3
273.856	0
274.072	4.1
274.287	-6.14
274.503	-12.29
274.719	63.49
274.934	43.01
275.15	-26.62
275.366	20.48
275.581	94.21
275.797	40.96
276.012	20.48
276.228	24.58
276.444	4.1
276.659	71.68
276.875	8.19
277.09	-45.06
277.306	24.58
277.521	12.29
277.737	34.82
277.952	-36.86
278.168	65.54
278.383	-6.14
278.599	61.44
278.814	38.91
279.03	-6.14
279.245	18.43
279.461	63.49
279.676	24.58
279.892	-8.19
280.107	43.01
280.322	-10.24
280.538	57.34
280.753	32.77
280.969	-6.14
281.184	20.48
281.399	30.72
281.615	47.1
281.83	0
282.045	-18.43
282.26	-65.53
282.476	10.24
282.691	49.15
282.906	-16.38
283.122	71.68
283.337	-34.82
283.552	120.83
283.767	-12.29
283.983	-4.1
284.198	-8.19
284.413	28.67
284.628	-32.77
284.843	-12.29
285.058	32.77
285.274	-38.91
285.489	100.35
285.704	-32.77
285.919	30.72
286.134	28.67
286.349	36.86
286.564	-16.38
286.779	51.2
286.995	-26.62
287.21	30.72
287.425	14.34
287.64	67.58
287.855	51.2
288.07	38.91
288.285	77.82
288.5	6.14
288.715	-14.34
288.93	22.53
289.145	4.1
289.36	-28.67
289.575	-32.77
289.79	-12.29
290.004	106.49
290.219	49.15
290.434	-28.67
290.649	0
290.864	71.68
291.079	-75.77
291.294	79.87
291.509	59.39
291.724	-16.38
291.938	-59.39
292.153	4.1
292.368	22.53
292.583	10.24
292.798	45.06
293.012	47.1
293.227	24.58
293.442	18.43
293.657	20.48
293.871	79.87
294.086	67.58
294.301	0
294.516	59.39
294.73	-6.14
294.945	-79.87
295.16	18.43
295.374	65.54
295.589	61.44
295.804	-36.86
296.018	71.68
296.233	86.01
296.447	12.29
296.662	-63.49
296.877	-20.48
297.091	57.34
297.306	45.06
297.52	-81.92
297.735	88.06
297.949	83.97
298.164	71.68
298.378	108.54
298.593	18.43
298.807	45.06
299.022	45.06
299.236	0
299.451	8.19
299.665	45.06
299.88	-12.29
300.094	-55.3
300.309	26.62
300.523	83.97
300.737	75.77
300.952	-28.67
301.166	34.82
301.381	59.39
301.595	51.2
301.809	38.91
302.024	20.48
302.238	55.3
302.452	45.06
302.667	8.19
302.881	34.82
303.095	32.77
303.309	47.1
303.524	30.72
303.738	-59.39
303.952	18.43
304.166	-32.77
304.381	18.43
304.595	22.53
304.809	-30.72
305.023	36.86
305.237	114.69
305.452	-16.38
305.666	43.01
305.88	114.69
306.094	53.25
306.308	30.72
306.522	24.58
306.736	77.82
306.95	8.19
307.164	90.11
307.379	26.62
307.593	45.06
307.807	92.16
308.021	120.83
308.235	47.1
308.449	71.68
308.663	63.49
308.877	55.3
309.091	-28.67
309.305	24.58
309.519	4.1
309.733	63.49
309.947	22.53
310.161	90.11
310.374	4.1
310.588	65.54
310.802	92.16
311.016	135.17
311.23	34.82
311.444	-16.38
311.658	-2.05
311.872	-55.3
312.085	43.01
312.299	81.92
312.513	110.59
312.727	20.48
312.941	32.77
313.154	16.38
313.368	43.01
313.582	10.24
313.796	18.43
314.009	36.86
314.223	59.39
314.437	4.1
314.651	12.29
314.864	47.1
315.078	-45.06
315.292	47.1
315.505	-8.19
315.719	67.58
315.933	92.16
316.146	-10.24
316.36	-45.06
316.573	-16.38
316.787	116.73
317.001	36.86
317.214	34.82
317.428	112.64
317.641	61.44
317.855	51.2
318.068	-32.77
318.282	53.25
318.495	51.2
318.709	-6.14
318.922	-4.1
319.136	75.77
319.349	92.16
319.563	8.19
319.776	16.38
319.99	4.1
320.203	75.77
320.417	-20.48
320.63	90.11
320.843	16.38
321.057	55.3
321.27	-28.67
321.483	40.96
321.697	38.91
321.91	86.01
322.124	81.92
322.337	-10.24
322.55	26.62
322.763	47.1
322.977	36.86
323.19	34.82
323.403	71.68
323.617	18.43
323.83	20.48
324.043	-12.29
324.256	49.15
324.469	-12.29
324.683	69.63
324.896	12.29
325.109	6.14
325.322	-32.77
325.535	28.67
325.748	61.44
325.962	12.29
326.175	-36.86
326.388	28.67
326.601	20.48
326.814	59.39
327.027	-10.24
327.24	67.58
327.453	22.53
327.666	57.34
327.879	2.05
328.092	18.43
328.305	12.29
328.518	67.58
328.731	47.1
328.944	59.39
329.157	-32.77
329.37	2.05
329.583	0
329.796	57.34
330.009	0
330.222	51.2
330.435	22.53
330.648	73.73
330.861	14.34
331.073	24.58
331.286	24.58
331.499	88.06
331.712	47.1
331.925	86.01
332.138	26.62
332.35	8.19
332.563	12.29
332.776	65.54
332.989	-4.1
333.202	61.44
333.414	24.58
333.627	65.54
333.84	12.29
334.053	118.78
334.265	36.86
334.478	61.44
334.691	34.82
334.903	77.82
335.116	-6.14
335.329	2.05
335.541	10.24
335.754	69.63
335.966	-12.29
336.179	-26.62
336.392	-14.34
336.604	4.1
336.817	38.91
337.029	59.39
337.242	57.34
337.454	-6.14
337.667	28.67
337.88	86.01
338.092	57.34
338.305	51.2
338.517	65.54
338.729	20.48
338.942	86.01
339.154	-20.48
339.367	0
339.579	-8.19
339.792	47.1
340.004	45.06
340.217	63.49
340.429	30.72
340.641	-4.1
340.854	-2.05
341.066	-49.15
341.278	28.67
341.491	-12.29
341.703	14.34
341.915	61.44
342.128	4.1
342.34	102.4
342.552	63.49
342.764	30.72
342.977	-45.06
343.189	0
343.401	53.25
343.613	28.67
343.826	53.25
344.038	18.43
344.25	30.72
344.462	88.06
344.674	40.96
344.886	-26.62
345.099	30.72
345.311	98.3
345.523	38.91
345.735	-28.67
345.947	71.68
346.159	-24.58
346.371	102.4
346.583	32.77
346.795	79.87
347.007	-28.67
347.219	-14.34
347.431	45.06
347.643	53.25
347.855	65.54
348.067	32.77
348.279	10.24
348.491	49.15
348.703	55.3
348.915	18.43
349.127	24.58
349.339	34.82
349.551	36.86
349.763	69.63
349.975	77.82
350.187	77.82
350.399	61.44
350.61	79.87
350.822	61.44
351.034	18.43
351.246	53.25
351.458	10.24
351.669	-12.29
351.881	-24.58
352.093	73.73
352.305	-8.19
352.517	38.91
352.728	75.77
352.94	16.38
353.152	79.87
353.363	-12.29
353.575	43.01
353.787	36.86
353.999	16.38
354.21	45.06
354.422	75.77
354.633	-12.29
354.845	59.39
355.057	-20.48
355.268	81.92
355.48	10.24
355.692	14.34
355.903	14.34
356.115	90.11
356.326	-2.05
356.538	57.34
356.749	73.73
356.961	63.49
357.172	28.67
357.384	-10.24
357.595	92.16
357.807	30.72
358.018	-10.24
358.23	-4.1
358.441	26.62
358.653	26.62
358.864	69.63
359.075	28.67
359.287	59.39
359.498	94.21
359.709	98.3
359.921	-16.38
360.132	49.15
360.344	67.58
360.555	79.87
360.766	110.59
360.977	28.67
361.189	90.11
361.4	-4.1
361.611	47.1
361.823	133.12
362.034	0
362.245	-14.34
362.456	28.67
362.667	-79.87
362.879	36.86
363.09	65.54
363.301	69.63
363.512	67.58
363.723	69.63
363.935	100.35
364.146	63.49
364.357	28.67
364.568	20.48
364.779	28.67
364.99	32.77
365.201	55.3
365.412	49.15
365.623	51.2
365.834	124.93
366.045	0
366.256	22.53
366.467	61.44
366.678	4.1
366.889	28.67
367.1	34.82
367.311	2.05
367.522	63.49
367.733	75.77
367.944	75.77
368.155	24.58
368.366	112.64
368.577	12.29
368.788	61.44
368.999	26.62
369.209	-2.05
369.42	98.3
369.631	36.86
369.842	22.53
370.053	-8.19
370.264	38.91
370.474	49.15
370.685	100.35
370.896	57.34
371.107	34.82
371.317	-40.96
371.528	53.25
371.739	67.58
371.95	86.01
372.16	36.86
372.371	49.15
372.582	47.1
372.792	86.01
373.003	0
373.214	53.25
373.424	-4.1
373.635	86.01
373.846	120.83
374.056	86.01
374.267	94.21
374.477	55.3
374.688	22.53
374.898	32.77
375.109	38.91
375.319	26.62
375.53	2.05
375.74	20.48
375.951	-10.24
376.161	73.73
376.372	51.2
376.582	51.2
376.793	143.36
377.003	-8.19
377.214	-10.24
377.424	43.01
377.635	61.44
377.845	47.1
378.055	108.54
378.266	32.77
378.476	86.01
378.686	34.82
378.897	49.15
379.107	8.19
379.317	86.01
379.528	32.77
379.738	14.34
379.948	53.25
380.158	71.68
380.369	-18.43
380.579	6.14
380.789	20.48
380.999	12.29
381.21	2.05
381.42	94.21
381.63	49.15
381.84	110.59
382.05	-20.48
382.261	32.77
382.471	73.73
382.681	-10.24
382.891	49.15
383.101	141.31
383.311	-12.29
383.521	57.34
383.731	116.73
383.941	100.35
384.151	49.15
384.361	57.34
384.571	69.63
384.781	108.54
384.991	147.45
385.201	75.77
385.411	59.39
385.621	77.82
385.831	36.86
386.041	18.43
386.251	16.38
386.461	36.86
386.671	30.72
386.881	120.83
387.091	67.58
387.301	79.87
387.511	4.1
387.72	2.05
387.93	59.39
388.14	75.77
388.35	36.86
388.56	65.54
388.769	40.96
388.979	36.86
389.189	-4.1
389.399	45.06
389.609	88.06
389.818	4.1
390.028	81.92
390.238	102.4
390.447	-26.62
390.657	94.21
390.867	118.78
391.076	61.44
391.286	32.77
391.496	38.91
391.705	47.1
391.915	20.48
392.125	20.48
392.334	43.01
392.544	126.97
392.753	69.63
392.963	57.34
393.172	135.17
393.382	43.01
393.591	43.01
393.801	77.82
394.01	77.82
394.22	90.11
394.429	49.15
394.639	137.21
394.848	96.25
395.058	26.62
395.267	63.49
395.477	90.11
395.686	143.36
395.895	98.3
396.105	174.08
396.314	112.64
396.524	106.49
396.733	100.35
396.942	16.38
397.152	65.54
397.361	141.31
397.57	100.35
397.78	45.06
397.989	86.01
398.198	106.49
398.407	139.26
398.617	108.54
398.826	155.65
399.035	67.58
399.244	116.73
399.453	90.11
399.663	98.3
399.872	139.26
400.081	73.73
400.29	106.49
400.499	43.01
400.708	163.84
400.917	112.64
401.127	67.58
401.336	135.17
401.545	129.02
401.754	118.78
401.963	116.73
402.172	51.2
402.381	116.73
402.59	145.41
402.799	83.97
403.008	153.6
403.217	149.5
403.426	233.47
403.635	143.36
403.844	184.32
404.053	155.65
404.262	206.84
404.471	192.51
404.68	45.06
404.888	151.55
405.097	149.5
405.306	118.78
405.515	186.37
405.724	233.47
405.933	221.18
406.142	219.13
406.35	237.56
406.559	241.66
406.768	223.23
406.977	278.52
407.185	249.85
407.394	206.84
407.603	161.79
407.812	268.28
408.02	274.43
408.229	258.04
408.438	270.33
408.646	282.62
408.855	327.68
409.064	294.91
409.272	329.72
409.481	362.49
409.69	299
409.898	256
410.107	389.11
410.315	264.19
410.524	292.86
410.733	364.54
410.941	360.44
411.15	317.44
411.358	454.65
411.567	507.9
411.775	436.22
411.984	450.55
412.192	503.8
412.401	524.28
412.609	569.34
412.818	536.57
413.026	641.01
413.234	591.86
413.443	591.86
413.651	555
413.86	581.62
414.068	659.45
414.276	694.26
414.485	704.5
414.693	829.43
414.901	794.61
415.11	817.14
415.318	786.42
415.526	835.57
415.734	985.07
415.943	985.07
416.151	933.87
416.359	1023.98
416.567	999.41
416.776	1060.85
416.984	1052.66
417.192	1118.19
417.4	1185.77
417.608	1189.87
417.817	1198.06
418.025	1380.33
418.233	1431.53
418.441	1372.14
418.649	1409
418.857	1495.02
419.065	1445.87
419.273	1482.73
419.481	1568.74
419.689	1722.34
419.897	1789.92
420.105	1777.64
420.313	1884.13
420.521	1916.9
420.729	1814.5
420.937	1978.34
421.145	2090.98
421.353	2181.09
421.561	2308.06
421.769	2367.45
421.977	2387.93
422.185	2396.12
422.393	2635.74
422.601	2695.13
422.809	2711.51
423.017	2699.22
423.224	2904.02
423.432	3022.8
423.64	3067.86
423.848	3278.8
424.056	3180.5
424.263	3452.88
424.471	3395.53
424.679	3534.79
424.887	3497.93
425.094	3813.32
425.302	3839.94
425.51	3903.43
425.718	4079.55
425.925	4112.32
426.133	4134.85
426.341	4442.04
426.548	4644.79
426.756	4749.24
426.964	4669.37
427.171	4986.8
427.379	5052.34
427.586	5119.92
427.794	5459.88
428.001	5724.07
428.209	5973.92
428.417	5826.47
428.624	6324.13
428.832	6133.67
429.039	6262.69
429.247	6283.17
429.454	6772.63
429.662	7024.53
429.869	6913.94
430.076	7204.75
430.284	7034.77
430.491	7448.46
430.699	7831.43
430.906	7931.78
431.114	7956.36
431.321	8187.78
431.528	8265.6
431.736	9015.16
431.943	9176.95
432.15	9023.35
432.358	9015.16
432.565	9611.12
432.772	9551.73
432.979	10012.52
433.187	10395.49
433.394	10233.7
433.601	11145.05
433.808	10932.06
434.016	11122.52
434.223	11229.01
434.43	12158.79
434.637	11872.07
434.844	12615.49
435.052	13002.55
435.259	12752.7
435.466	12965.69
435.673	12597.06
435.88	13672.24
436.087	14368.55
436.294	14352.16
436.501	14004.01
436.708	14309.16
436.915	14851.87
437.122	15281.94
437.329	15294.23
437.537	15752.98
437.743	15947.53
437.95	15841.04
438.157	16807.68
438.364	17383.16
438.571	17260.28
438.778	17041.15
438.985	18972.38
439.192	18587.36
439.399	18863.84
439.606	18556.64
439.813	19437.27
440.02	20520.65
440.227	20381.38
440.433	19777.23
440.64	20614.85
440.847	20711.11
441.054	21188.28
441.261	22240.94
441.467	21986.99
441.674	22605.48
441.881	23449.24
442.088	23309.98
442.294	23383.71
442.501	24059.54
442.708	24223.37
442.914	25292.41
443.121	25982.58
443.328	25697.91
443.534	27133.54
443.741	26556.01
443.948	26328.69
444.154	28382.8
444.361	27948.63
444.568	28237.39
444.774	28556.88
444.981	28726.86
445.187	29222.47
445.394	30834.22
445.6	29992.5
445.807	33388.03
446.013	31620.64
446.22	32179.73
446.426	33713.66
446.633	33560.06
446.839	34598.38
447.046	33566.21
447.252	35190.25
447.459	35190.25
447.665	34760.17
447.871	36511.19
448.078	37795.26
448.284	36398.55
448.491	37393.86
448.697	38862.25
448.903	39249.32
449.11	39353.77
449.316	38516.15
449.522	39550.37
449.728	40250.78
449.935	40293.79
450.141	40639.89
450.347	41692.55
450.553	39980.45
450.76	40527.25
450.966	41530.76
451.172	41489.8
451.378	42100.09
451.584	41457.03
451.791	42382.71
451.997	42108.29
452.203	42759.54
452.409	42943.86
452.615	42659.19
452.821	41092.49
453.027	41006.48
453.233	42847.6
453.44	40756.63
453.646	41299.34
453.852	41196.94
454.058	42116.48
454.264	40496.53
454.47	41581.96
454.676	40865.17
454.882	41739.65
455.088	38393.27
455.294	39105.96
455.5	39488.93
455.705	39919.01
455.911	37977.53
456.117	37238.22
456.323	36845.01
456.529	34657.78
456.735	36173.27
456.941	35438.05
457.147	34723.31
457.352	33826.3
457.558	33162.76
457.764	33668.61
457.97	32368.15
458.176	32187.92
458.381	32005.66
458.587	30398
458.793	30488.11
458.999	28802.63
459.204	30846.51
459.41	30137.91
459.616	28145.23
459.821	28096.08
460.027	27956.82
460.233	27350.62
460.438	26121.84
460.644	26474.09
460.85	25257.6
461.055	25038.47
461.261	24755.85
461.466	22902.43
461.672	22347.43
461.878	23889.56
462.083	22435.5
462.289	21997.23
462.494	21649.08
462.7	20647.62
462.905	19914.45
463.111	21049.02
463.316	21089.98
463.522	20440.78
463.727	20432.58
463.932	20399.82
464.138	20276.94
464.343	20285.13
464.549	19891.92
464.754	20430.54
464.959	20334.28
465.165	20201.16
465.37	19369.69
465.575	18755.3
465.781	19429.08
465.986	19666.64
466.191	18661.09
466.397	18560.74
466.602	17833.71
466.807	18466.53
467.012	18355.94
467.218	18222.83
467.423	18212.59
467.628	18138.86
467.833	19125.98
468.038	18487.01
468.244	17745.65
468.449	18468.58
468.654	17983.21
468.859	17940.21
469.064	17360.63
469.269	16897.79
469.474	17043.2
469.679	17471.22
469.885	16885.5
470.09	17045.24
470.295	16981.76
470.5	16488.2
470.705	16715.52
470.91	16541.44
471.115	16142.09
471.32	16342.79
471.525	16363.27
471.73	15894.29
471.935	15773.46
472.139	15320.85
472.344	15286.04
472.549	15316.76
472.754	15195.93
472.959	14819.1
473.164	14579.49
473.369	14413.6
473.574	14759.71
473.778	14833.44
473.983	14405.41
474.188	14481.19
474.393	13768.49
474.598	13846.32
474.802	13604.66
475.007	13731.63
475.212	13598.51
475.417	13102.9
475.621	13211.45
475.826	13346.61
476.031	12928.83
476.235	12787.52
476.44	12693.31
476.645	12691.26
476.849	12603.2
477.054	12517.18
477.259	12291.91
477.463	12463.94
477.668	11974.47
477.872	12271.43
478.077	11982.67
478.282	11620.17
478.486	11577.17
478.691	11626.32
478.895	11327.32
479.1	11528.02
479.304	11417.43
479.509	11233.11
479.713	11302.74
479.918	11120.47
480.122	11024.22
480.326	10948.44
480.531	10895.19
480.735	10985.3
480.94	10729.31
481.144	11288.4
481.348	10608.48
481.553	10897.24
481.757	10352.48
481.961	10743.64
482.166	10950.49
482.37	10708.83
482.574	10647.39
482.778	10684.25
482.983	10882.91
483.187	10800.99
483.391	10477.41
483.595	10729.31
483.8	10530.66
484.004	10600.29
484.208	10710.88
484.412	10424.16
484.616	10674.01
484.821	10780.51
485.025	10456.93
485.229	10620.77
485.433	10465.12
485.637	10739.55
485.841	10532.7
486.045	10731.36
486.249	10575.71
486.453	10626.91
486.657	10438.5
486.861	10647.39
487.065	10172.26
487.269	10655.58
487.473	10227.56
487.677	10508.13
487.881	10821.47
488.085	10608.48
488.289	10663.77
488.493	10501.98
488.697	10794.84
488.901	10678.11
489.105	10708.83
489.309	10469.22
489.512	10669.92
489.716	10491.74
489.92	10696.54
490.124	10624.86
490.328	10956.63
490.531	10714.97
490.735	10741.6
490.939	10899.29
491.143	10893.15
491.346	10768.22
491.55	10874.71
491.754	11050.84
491.958	10815.32
492.161	10915.67
492.365	11061.08
492.569	11159.38
492.772	11056.98
492.976	11196.25
493.18	11251.54
493.383	11550.54
493.587	11333.46
493.79	11511.63
493.994	11364.18
494.197	11556.69
494.401	11867.98
494.605	11931.47
494.808	11765.58
495.012	11779.92
495.215	11984.71
495.419	12048.2
495.622	12158.79
495.825	12269.38
496.029	12459.84
496.232	12494.66
496.436	12328.77
496.639	13076.28
496.843	12826.43
497.046	12918.59
497.249	13111.1
497.453	13133.62
497.656	13295.41
497.859	13401.91
498.063	13584.18
498.266	13762.35
498.469	13635.38
498.673	14067.5
498.876	13858.6
499.079	14147.37
499.282	13944.62
499.485	14409.51
499.689	14581.54
499.892	14724.9
500.095	14884.64
500.298	14954.27
500.501	14860.06
500.705	15601.43
500.908	15460.12
501.111	16056.07
501.314	16076.55
501.517	15980.3
501.72	16043.79
501.923	16154.38
502.126	16793.34
502.329	16832.26
502.532	16942.85
502.735	16891.65
502.938	17342.2
503.141	17458.93
503.344	17704.69
503.547	17731.31
503.75	18073.32
503.953	18106.09
504.156	18462.44
504.359	18697.95
504.562	18812.64
504.765	19211.99
504.968	19058.4
505.17	19363.54
505.373	19511
505.576	19971.79
505.779	19904.21
505.982	20215.5
506.185	20360.91
506.387	20342.47
506.59	20805.31
506.793	20913.86
506.996	21341.88
507.198	21624.5
507.401	21415.61
507.604	21720.76
507.807	22144.69
508.009	22361.77
508.212	22380.2
508.415	22517.42
508.617	23021.22
508.82	23211.68
509.022	22986.4
509.225	23434.91
509.428	23893.65
509.63	23977.62
509.833	24084.11
510.035	24798.85
510.238	24553.1
510.44	24792.71
510.643	25104
510.845	25441.92
511.048	25417.34
511.25	25564.79
511.453	25671.29
511.655	26801.77
511.858	26513
512.06	26936.93
512.262	27096.67
512.465	27084.39
512.667	27469.4
512.87	27887.19
513.072	27735.64
513.274	28110.42
513.477	28524.11
513.679	28573.26
513.881	29066.82
514.084	29335.1
514.286	29296.19
514.488	29709.88
514.69	30381.62
514.893	30301.75
515.095	30463.54
515.297	30737.96
515.499	30731.82
515.701	31426.08
515.904	31544.86
516.106	32054.81
516.308	32316.95
516.51	32368.15
516.712	32304.66
516.914	32423.44
517.116	33345.03
517.318	33488.38
517.52	33447.43
517.722	33910.27
517.925	34434.55
518.127	34305.52
518.329	34817.52
518.531	34481.65
518.733	35401.19
518.935	35364.32
519.136	35266.02
519.338	36290.01
519.54	36185.56
519.742	36566.48
519.944	36634.06
520.146	37309.89
520.348	37590.47
520.55	37207.5
520.752	37565.89
520.954	38555.06
521.155	37891.52
521.357	38651.31
521.559	38553.01
521.761	39597.48
521.963	39372.2
522.164	39501.22
522.366	39941.53
522.568	40146.33
522.77	40353.18
522.971	40770.96
523.173	40465.81
523.375	40756.63
523.576	41067.92
523.778	41457.03
523.98	41352.58
524.181	41852.29
524.383	41555.33
524.584	42114.43
524.786	42044.8
524.988	42087.81
525.189	42751.35
525.391	43208.04
525.592	43144.56
525.794	43070.83
525.995	43369.83
526.197	43111.79
526.398	43206
526.6	43689.32
526.801	43552.1
527.003	44191.07
527.204	43996.51
527.406	44701.01
527.607	44559.7
527.808	44973.39
528.01	43857.25
528.211	44676.44
528.412	45708.61
528.614	45462.86
528.815	44866.9
529.016	46089.54
529.218	44895.57
529.419	45010.26
529.62	45503.82
529.822	45139.28
530.023	45505.87
530.224	45577.54
530.425	45188.43
530.626	45634.89
530.828	45454.67
531.029	46470.46
531.23	45657.42
531.431	45514.06
531.632	45872.45
531.833	46269.76
532.035	46259.52
532.236	46140.74
532.437	46187.84
532.638	46187.84
532.839	46148.93
533.04	46087.49
533.241	46099.78
533.442	46622.01
533.643	46060.87
533.844	46441.79
534.045	46327.1
534.246	45970.75
534.447	46179.65
534.648	46404.92
534.849	46443.84
535.05	45970.75
535.251	46724.41
535.451	46048.58
535.652	46701.88
535.853	46488.89
536.054	46691.64
536.255	46708.02
536.456	45870.4
536.657	46597.43
536.857	46118.21
537.058	46095.68
537.259	46552.38
537.46	46503.23
537.66	46200.13
537.861	46167.36
538.062	46306.62
538.263	46679.35
538.463	46134.59
538.664	45954.37
538.865	46388.54
539.065	46587.19
539.266	45630.79
539.466	46875.96
539.667	45679.94
539.868	46888.24
540.068	46271.81
540.269	46114.11
540.469	46624.06
540.67	45958.47
540.87	46363.96
541.071	45788.49
541.271	46540.09
541.472	46124.35
541.672	46060.87
541.873	46458.17
542.073	45438.28
542.274	46318.91
542.474	46191.94
542.675	45864.26
542.875	46163.26
543.075	46245.18
543.276	45573.45
543.476	46443.84
543.676	45612.36
543.877	46028.1
544.077	45956.42
544.277	46388.54
544.478	45419.85
544.678	45804.87
544.878	46019.91
545.078	46157.12
545.279	45501.77
545.479	45999.43
545.679	46026.05
545.879	45983.04
546.079	45489.48
546.28	45913.41
546.48	45675.85
546.68	46003.52
546.88	45770.05
547.08	45989.19
547.28	45569.35
547.48	45284.68
547.68	45684.04
547.88	45626.7
548.081	45827.4
548.281	45745.48
548.481	45526.35
548.681	46220.61
548.881	45628.74
549.081	46114.11
549.28	44991.83
549.48	45800.77
549.68	45071.7
549.88	45950.27
550.08	45348.17
550.28	45425.99
550.48	44914
550.68	45872.45
550.88	45280.59
551.08	45387.08
551.279	45667.66
551.479	45129.04
551.679	45432.14
551.879	45391.18
552.079	45346.12
552.278	45366.6
552.478	45358.41
552.678	45358.41
552.878	45462.86
553.077	44725.59
553.277	44823.89
553.477	45471.05
553.676	44885.33
553.876	45307.21
554.076	44733.78
554.275	44840.28
554.475	44522.84
554.674	45018.45
554.874	44924.24
555.074	44610.9
555.273	44746.07
555.473	44864.85
555.672	44774.74
555.872	44551.51
556.071	44316
556.271	45014.35
556.47	44451.16
556.67	44580.18
556.869	44600.66
557.068	44727.64
557.268	44655.96
557.467	44266.84
557.667	44320.09
557.866	44172.64
558.065	44297.56
558.265	44238.17
558.464	43668.84
558.663	44717.4
558.863	43595.11
559.062	44574.04
559.261	43533.67
559.461	44500.31
559.66	43740.52
559.859	43971.94
560.058	43185.52
560.258	43652.45
560.457	43261.29
560.656	43775.33
560.855	43226.48
561.054	43720.04
561.253	43144.56
561.453	43597.16
561.652	43400.55
561.851	43455.85
562.05	43199.85
562.249	42845.55
562.448	43357.55
562.647	43181.42
562.846	42708.34
563.045	43011.44
563.244	42382.71
563.443	43154.8
563.642	42417.53
563.841	42646.9
564.04	42284.41
564.239	42952.05
564.438	42343.8
564.637	42442.1
564.836	42343.8
565.035	41983.36
565.234	42298.75
565.432	41876.86
565.631	41897.34
565.83	42132.86
566.029	42055.04
566.228	41551.24
566.427	41506.18
566.625	41516.42
566.824	41076.11
567.023	41674.12
567.222	40873.36
567.42	41680.26
567.619	41500.04
567.818	40846.74
568.016	41393.54
568.215	41209.23
568.414	40670.61
568.612	41078.16
568.811	40351.13
569.01	40400.28
569.208	39992.73
569.407	40349.08
569.605	40211.87
569.804	40791.44
570.002	40048.03
570.201	40592.79
570.4	39990.69
570.598	39783.84
570.797	39638.44
570.995	40058.27
571.193	39556.52
571.392	40121.76
571.59	39304.62
571.789	39552.42
571.987	39466.41
572.186	39273.9
572.384	39079.34
572.582	39384.49
572.781	39335.34
572.979	38421.94
573.177	38960.56
573.376	38811.06
573.574	38573.49
573.772	38749.62
573.971	38550.96
574.169	38434.23
574.367	37686.72
574.565	38311.35
574.763	38202.81
574.962	37889.47
575.16	38004.16
575.358	38032.83
575.556	37670.34
575.754	38016.44
575.952	37260.74
576.151	37670.34
576.349	36924.88
576.547	37354.95
576.745	37565.89
576.943	37242.31
577.141	36941.26
577.339	37590.47
577.537	36744.66
577.735	37027.27
577.933	36691.41
578.131	37041.61
578.329	36853.2
578.527	36595.15
578.725	36613.59
578.923	36478.42
579.121	36214.23
579.319	36138.46
579.516	36128.22
579.714	36302.29
579.912	36013.53
580.11	36113.88
580.308	35800.54
580.506	35896.8
580.704	35229.16
580.901	35352.04
581.099	35689.95
581.297	35202.53
581.495	35362.28
581.692	35249.64
581.89	35196.39
582.088	35405.28
582.285	35122.66
582.483	35173.86
582.681	34633.2
582.878	34713.07
583.076	33912.31
583.274	34383.35
583.471	34395.64
583.669	34831.85
583.866	34233.85
584.064	34264.57
584.262	33750.53
584.459	34590.19
584.657	33869.31
584.854	34047.48
585.052	33469.95
585.249	33730.05
585.447	33850.88
585.644	33195.53
585.841	32861.71
586.039	33361.41
586.236	33035.78
586.434	33263.11
586.631	33021.45
586.828	33050.12
587.026	32962.06
587.223	32955.91
587.42	32962.06
587.618	33105.41
587.815	32286.23
588.012	32378.39
588.21	32677.39
588.407	32347.67
588.604	32001.56
588.801	31802.91
588.999	32060.95
589.196	32239.12
589.393	31761.95
589.59	31731.23
589.787	31536.67
589.984	31546.91
590.182	31122.98
590.379	31481.38
590.576	31192.61
590.773	31319.59
590.97	31258.15
591.167	31143.46
591.364	30901.8
591.561	31360.55
591.758	30838.31
591.955	30547.5
592.152	30934.57
592.349	30391.86
592.546	30629.42
592.743	30742.06
592.94	29810.23
593.137	30445.1
593.334	30185.01
593.531	29994.55
593.727	30049.85
593.924	30105.14
594.121	29791.8
594.318	30006.84
594.515	29427.26
594.712	29756.99
594.908	29374.02
595.105	29607.48
595.302	29044.29
595.499	29457.98
595.696	29062.72
595.892	28847.69
596.089	29144.64
596.286	29220.42
596.482	28528.2
596.679	28839.5
596.876	28620.36
597.072	28563.02
597.269	28522.06
597.466	28253.78
597.662	28315.22
597.859	27876.95
598.055	28302.93
598.252	28120.66
598.448	28010.07
598.645	28139.09
598.841	27565.66
599.038	27727.45
599.234	27792.98
599.431	27424.35
599.627	27199.07
599.824	27799.13
600.02	27199.07
600.217	27393.63
600.413	27119.2
600.609	27033.19
600.806	26762.86
601.002	27010.66
601.198	26754.66
601.395	26760.81
601.591	26576.49
601.787	26492.52
601.984	26238.58
602.18	26519.15
602.376	26267.25
602.572	26494.57
602.769	26009.2
602.965	25949.81
603.161	26185.33
603.357	26017.39
603.553	25734.78
603.75	25859.7
603.946	25478.78
604.142	25806.45
604.338	25540.22
604.534	25683.58
604.73	25138.82
604.926	25476.73
605.122	25562.75
605.318	25235.07
605.514	25114.24
605.71	24954.5
605.906	25220.74
606.102	24968.83
606.298	24759.94
606.494	24893.06
606.69	24796.81
606.886	24913.54
607.082	24370.83
607.278	24714.89
607.474	24092.3
607.67	24583.82
607.866	24114.83
608.062	24901.25
608.257	24358.54
608.453	24336.01
608.649	24237.71
608.845	24000.15
609.041	24120.98
609.236	24243.85
609.432	23879.32
609.628	23819.92
609.824	24288.91
610.019	23846.55
610.215	23754.39
610.411	23723.67
610.606	23391.9
610.802	23651.99
610.998	23477.91
611.193	23561.88
611.389	23547.54
611.584	23264.92
611.78	23131.81
611.976	23592.6
612.171	23211.68
612.367	23529.11
612.562	23283.36
612.758	22906.53
612.953	22937.25
613.149	23299.74
613.344	22849.19
613.539	23477.91
613.735	22892.19
613.93	22986.4
614.126	22705.83
614.321	22929.06
614.517	22687.4
614.712	22662.82
614.907	22873.76
615.103	22871.72
615.298	22474.41
615.493	22984.35
615.688	22525.61
615.884	22640.29
616.079	22480.55
616.274	22537.9
616.47	22558.38
616.665	22511.27
616.86	22369.96
617.055	22257.32
617.25	22150.83
617.445	22613.67
617.641	21925.55
617.836	21796.53
618.031	21673.65
618.226	21958.32
618.421	21831.35
618.616	21853.87
618.811	21630.65
619.006	21993.14
619.201	21415.61
619.396	21370.55
619.591	21020.35
619.786	21497.53
619.981	21180.09
620.176	21190.33
620.371	21022.4
620.566	20965.06
620.761	20897.47
620.956	20913.86
621.151	20369.1
621.346	20534.98
621.541	20250.31
621.735	20635.33
621.93	20158.16
622.125	20326.09
622.32	20182.73
622.515	19859.15
622.709	20029.13
622.904	19783.38
623.099	19855.06
623.294	19873.49
623.488	19314.39
623.683	19711.7
623.878	18970.33
624.072	19189.47
624.267	19023.58
624.462	18824.93
624.656	18783.97
624.851	18972.38
625.046	18646.76
625.24	18573.03
625.435	18521.83
625.629	18714.34
625.824	18214.63
626.018	18054.89
626.213	18044.65
626.407	18259.69
626.602	17747.7
626.796	17757.94
626.991	17839.86
627.185	17934.06
627.38	17665.78
627.574	17590
627.768	17356.54
627.963	17243.9
628.157	17135.35
628.352	17274.62
628.546	17024.76
628.74	17006.33
628.935	16705.28
629.129	16729.86
629.323	16660.23
629.517	16465.67
629.712	16668.42
629.906	16381.7
630.1	16246.54
630.294	16383.75
630.489	16129.8
630.683	16334.6
630.877	15972.11
631.071	15912.72
631.265	15886.09
631.459	15800.08
631.653	15662.86
631.848	15513.36
632.042	15462.16
632.236	15558.42
632.43	15501.08
632.624	15331.09
632.818	15144.73
633.012	15101.72
633.206	14825.25
633.4	15118.11
633.594	14884.64
633.788	14921.5
633.982	14655.26
634.176	14712.61
634.369	14755.61
634.563	14559.01
634.757	14436.13
634.951	14319.4
635.145	14192.42
635.339	14114.6
635.533	13987.63
635.726	13952.81
635.92	13840.17
636.114	14063.4
636.308	13930.28
636.501	13864.75
636.695	13946.67
636.889	13285.17
637.083	13520.69
637.276	13475.63
637.47	13401.91
637.664	13268.79
637.857	13479.73
638.051	13471.54
638.244	13033.27
638.438	13023.03
638.632	12957.5
638.825	13055.8
639.019	13025.08
639.212	12883.77
639.406	12654.4
639.599	12607.3
639.793	12496.71
639.986	12658.49
640.18	12621.63
640.373	12451.65
640.567	12289.86
640.76	12306.24
640.954	11947.85
641.147	11951.95
641.34	11947.85
641.534	12263.24
641.727	12095.3
641.92	11951.95
642.114	11726.67
642.307	11845.45
642.5	11646.8
642.694	11542.35
642.887	11521.87
643.08	11515.73
643.273	11499.34
643.467	11497.3
643.66	11423.57
643.853	11374.42
644.046	11204.44
644.239	11116.37
644.432	11036.5
644.626	10837.85
644.819	11007.83
645.012	10995.54
645.205	10868.57
645.398	11022.17
645.591	10540.9
645.784	10827.61
645.977	10708.83
646.17	10665.82
646.363	10661.73
646.556	10440.54
646.749	10508.13
646.942	10393.44
647.135	10315.62
647.328	10407.78
647.521	10282.85
647.714	10176.36
647.907	10078.05
648.099	10264.42
648.292	10196.84
648.485	10045.29
648.678	9897.83
648.871	10026.85
649.064	9793.39
649.256	9910.12
649.449	9586.54
649.642	9748.33
649.835	9625.45
650.027	9555.82
650.22	9615.21
650.413	9498.48
650.605	9416.56
650.798	9426.8
650.991	9131.89
651.183	9498.48
651.376	8877.94
651.568	9420.66
651.761	8990.58
651.954	9029.49
652.146	8980.34
652.339	8982.39
652.531	9064.31
652.724	8871.8
652.916	8806.27
653.109	8697.72
653.301	8636.28
653.494	8931.19
653.686	8492.93
653.879	8834.94
654.071	8540.03
654.263	8583.04
654.456	8544.13
654.648	8462.21
654.84	8308.61
655.033	8363.9
655.225	8214.4
655.417	8243.07
655.61	8433.54
655.802	8312.71
655.994	8208.26
656.186	8099.72
656.379	7909.26
656.571	8122.24
656.763	7892.87
656.955	7696.27
657.148	7769.99
657.34	7808.9
657.532	7651.21
657.724	7788.43
657.916	7524.24
658.108	7606.16
658.3	7559.05
658.492	7597.96
658.684	7454.61
658.876	7733.13
659.068	7387.02
659.26	7427.98
659.452	7456.65
659.644	7368.59
659.836	7178.13
660.028	7151.51
660.22	7280.53
660.412	7223.19
660.604	7180.18
660.796	7036.82
660.988	7163.79
661.18	6956.95
661.372	6989.72
661.563	7024.53
661.755	6985.62
661.947	7014.29
662.139	7002.01
662.331	6829.98
662.522	6705.05
662.714	6778.78
662.906	6821.78
663.097	6623.13
663.289	6684.57
663.481	6621.08
663.673	6614.94
663.864	6616.99
664.056	6393.76
664.247	6637.47
664.439	6404
664.631	6406.05
664.822	6477.73
665.014	6451.1
665.205	6381.47
665.397	6418.33
665.588	6150.05
665.78	6150.05
665.971	6213.54
666.163	6305.7
666.354	6045.6
666.546	6213.54
666.737	6008.74
666.929	6049.7
667.12	6082.47
667.311	6076.32
667.503	5781.42
667.694	5935.01
667.885	5982.12
668.077	6014.88
668.268	5844.9
668.459	5801.9
668.651	5779.37
668.842	5871.53
669.033	5679.02
669.224	5599.15
669.416	5584.81
669.607	5646.25
669.798	5504.94
669.989	5605.29
670.18	5765.03
670.371	5554.09
670.563	5531.56
670.754	5504.94
670.945	5423.02
671.136	5408.69
671.327	5457.84
671.518	5300.14
671.709	5457.84
671.9	5377.97
672.091	5386.16
672.282	5404.59
672.473	5126.07
672.664	5396.4
672.855	5224.37
673.046	5253.04
673.237	5320.62
673.428	5050.29
673.619	5220.27
673.809	5074.87
674	5033.91
674.191	5124.02
674.382	5017.52
674.573	4954.04
674.764	5085.11
674.954	5156.79
675.145	4902.84
675.336	5001.14
675.527	4849.59
675.717	4925.36
675.908	5052.34
676.099	5029.81
676.289	5066.67
676.48	4906.93
676.671	4898.74
676.861	4829.11
677.052	4861.88
677.243	4691.9
677.433	4773.82
677.624	4736.95
677.814	4730.81
678.005	4894.65
678.195	4743.1
678.386	4820.92
678.576	4626.36
678.767	4657.08
678.957	4679.61
679.148	4487.1
679.338	4669.37
679.529	4601.79
679.719	4497.34
679.909	4648.89
680.1	4499.39
680.29	4624.31
680.481	4554.68
680.671	4638.65
680.861	4456.38
681.052	4521.91
681.242	4536.25
681.432	4454.33
681.622	4366.27
681.813	4468.67
682.003	4329.41
682.193	4356.03
682.383	4444.09
682.573	4413.37
682.764	4349.89
682.954	4468.67
683.144	4241.34
683.334	4448.19
683.524	4319.17
683.714	4251.58
683.904	4216.77
684.094	4192.19
684.284	4300.73
684.474	4157.38
684.664	4151.23
684.854	4317.12
685.044	4073.41
685.234	4192.19
685.424	4181.95
685.614	4089.79
685.804	4118.47
685.994	4077.51
686.184	4212.67
686.374	4143.04
686.564	4091.84
686.753	4069.31
686.943	4110.27
687.133	4042.69
687.323	4079.55
687.513	4003.78
687.702	3962.82
687.892	3958.72
688.082	3741.64
688.272	3940.29
688.461	3971.01
688.651	3938.24
688.841	3811.27
689.03	3755.97
689.22	3938.24
689.41	3821.51
689.599	3719.11
689.789	3844.04
689.979	3755.97
690.168	3581.9
690.358	3688.39
690.547	3686.34
690.737	3700.68
690.926	3813.32
691.116	3565.51
691.305	3674.06
691.495	3575.75
691.684	3618.76
691.874	3534.79
692.063	3631.05
692.252	3477.45
692.442	3604.43
692.631	3454.92
692.82	3413.96
693.01	3524.55
693.199	3534.79
693.388	3491.79
693.578	3370.96
693.767	3422.16
693.956	3325.9
694.146	3491.79
694.335	3375.05
694.524	3422.16
694.713	3286.99
694.902	3342.29
695.092	3323.85
695.281	3321.81
695.47	3266.51
695.659	3262.41
695.848	3227.6
696.037	3141.58
696.226	3354.57
696.415	3168.21
696.604	3340.24
696.793	3209.17
696.982	3248.08
697.171	3114.96
697.36	3153.87
697.549	3100.62
697.738	3147.73
697.927	3110.86
698.116	3125.2
698.305	3108.82
698.494	3209.17
698.683	3076.05
698.872	3100.62
699.061	2992.08
699.25	3104.72
699.438	3196.88
699.627	3012.56
699.816	3299.28
700.005	3074
700.193	3035.09
700.382	3000.27
700.571	3059.67
700.76	3080.15
700.948	3030.99
701.137	2942.93
701.326	3026.9
701.514	3172.3
701.703	2965.46
701.892	3084.24
702.08	3016.66
702.269	2904.02
702.457	2977.75
702.646	3030.99
702.834	2922.45
703.023	2920.4
703.212	2951.12
703.4	3002.32
703.589	2924.5
703.777	2922.45
703.965	2832.34
704.154	2901.97
704.342	2901.97
704.531	2797.53
704.719	2846.68
704.907	3004.37
705.096	2785.24
705.284	2920.4
705.472	2865.11
705.661	2908.12
705.849	2979.79
706.037	2953.17
706.226	2820.05
706.414	2959.31
706.602	2879.44
706.79	2963.41
706.979	2764.76
707.167	2731.99
707.355	2822.1
707.543	2844.63
707.731	2959.31
707.919	2844.63
708.107	2754.52
708.296	2883.54
708.484	2813.91
708.672	2869.2
708.86	2858.96
709.048	2861.01
709.236	2791.38
709.424	2879.44
709.612	2807.77
709.8	2729.94
709.988	2828.24
710.176	2797.53
710.364	2791.38
710.551	2826.2
710.739	2785.24
710.927	2830.29
711.115	2777.05
711.303	2854.87
711.491	2762.71
711.679	2777.05
711.866	2842.58
712.054	2797.53
712.242	2721.75
712.43	2867.16
712.617	2697.17
712.805	2713.56
712.993	2815.96
713.181	2731.99
713.368	2719.7
713.556	2627.54
713.744	2742.23
713.931	2727.89
714.119	2666.46
714.306	2678.74
714.494	2719.7
714.682	2693.08
714.869	2666.46
715.057	2756.57
715.244	2695.13
715.432	2682.84
715.619	2615.26
715.807	2699.22
715.994	2746.33
716.182	2717.65
716.369	2688.98
716.556	2707.41
716.744	2734.04
716.931	2754.52
717.119	2717.65
717.306	2641.88
717.493	2703.32
717.681	2768.85
717.868	2652.12
718.055	2680.79
718.242	2807.77
718.43	2654.17
718.617	2654.17
718.804	2709.46
718.991	2652.12
719.179	2631.64
719.366	2736.09
719.553	2658.26
719.74	2648.02
719.927	2654.17
720.114	2537.43
720.301	2670.55
720.488	2572.25
720.676	2662.36
720.863	2785.24
721.05	2637.78
721.237	2736.09
721.424	2613.21
721.611	2678.74
721.798	2539.48
721.985	2602.97
722.172	2711.51
722.358	2707.41
722.545	2658.26
722.732	2541.53
722.919	2654.17
723.106	2625.5
723.293	2637.78
723.48	2615.26
723.667	2582.49
723.853	2613.21
724.04	2656.22
724.227	2629.59
724.414	2600.92
724.6	2494.43
724.787	2607.06
724.974	2568.15
725.161	2510.81
725.347	2596.82
725.534	2721.75
725.72	2557.91
725.907	2580.44
726.094	2731.99
726.28	2570.2
726.467	2596.82
726.653	2613.21
726.84	2566.1
727.027	2676.7
727.213	2588.63
727.4	2721.75
727.586	2619.35
727.773	2549.72
727.959	2469.85
728.145	2504.67
728.332	2607.06
728.518	2643.93
728.705	2539.48
728.891	2715.61
729.077	2492.38
729.264	2564.06
729.45	2588.63
729.636	2686.94
729.823	2449.37
730.009	2686.94
730.195	2611.16
730.382	2678.74
730.568	2586.58
730.754	2617.3
730.94	2584.54
731.126	2699.22
731.313	2725.85
731.499	2678.74
731.685	2727.89
731.871	2621.4
732.057	2678.74
732.243	2682.84
732.429	2482.14
732.615	2475.99
732.801	2660.31
732.987	2498.52
733.173	2619.35
733.359	2562.01
733.545	2658.26
733.731	2482.14
733.917	2609.11
734.103	2699.22
734.289	2697.17
734.475	2463.71
734.661	2506.71
734.847	2543.58
735.033	2478.04
735.219	2508.76
735.404	2611.16
735.59	2527.19
735.776	2519
735.962	2594.78
736.148	2533.34
736.333	2516.95
736.519	2570.2
736.705	2598.87
736.89	2619.35
737.076	2451.42
737.262	2547.67
737.447	2492.38
737.633	2523.1
737.819	2533.34
738.004	2519
738.19	2504.67
738.375	2527.19
738.561	2449.37
738.747	2494.43
738.932	2516.95
739.118	2613.21
739.303	2443.23
739.489	2602.97
739.674	2449.37
739.859	2488.28
740.045	2453.47
740.23	2490.33
740.416	2392.03
740.601	2475.99
740.786	2488.28
740.972	2508.76
741.157	2379.74
741.342	2328.54
741.528	2529.24
741.713	2418.65
741.898	2289.63
742.084	2404.32
742.269	2437.08
742.454	2308.06
742.639	2344.92
742.824	2379.74
743.01	2334.68
743.195	2406.36
743.38	2248.67
743.565	2322.4
743.75	2260.96
743.935	2422.75
744.12	2289.63
744.305	2344.92
744.49	2377.69
744.675	2256.86
744.86	2287.58
745.045	2205.66
745.23	2328.54
745.415	2215.9
745.6	2250.72
745.785	2015.2
745.97	2328.54
746.155	2164.7
746.34	2265.05
746.525	2181.09
746.71	2121.7
746.895	2084.83
747.079	2119.65
747.264	2113.5
747.449	2140.13
747.634	2131.94
747.819	2138.08
748.003	2105.31
748.188	2000.87
748.373	2064.35
748.557	1964
748.742	2025.44
748.927	1978.34
749.111	1998.82
749.296	2062.3
749.481	1888.23
749.665	1984.48
749.85	1931.23
750.034	2019.3
750.219	1869.8
750.404	1923.04
750.588	1800.16
750.773	1771.49
750.957	1849.32
751.141	1826.79
751.326	1923.04
751.51	1853.41
751.695	1902.56
751.879	1785.83
752.064	1687.53
752.248	1812.45
752.432	1787.88
752.617	1744.87
752.801	1763.3
752.985	1808.36
753.17	1810.4
753.354	1744.87
753.538	1746.92
753.722	1585.13
753.907	1671.14
754.091	1585.13
754.275	1712.1
754.459	1683.43
754.643	1734.63
754.828	1658.85
755.012	1546.22
755.196	1605.61
755.38	1574.89
755.564	1564.65
755.748	1523.69
755.932	1595.37
756.116	1634.28
756.3	1540.07
756.484	1501.16
756.668	1548.26
756.852	1468.39
757.036	1464.3
757.22	1499.11
757.404	1429.48
757.588	1515.5
757.772	1478.63
757.956	1392.62
758.14	1437.67
758.323	1398.76
758.507	1466.35
758.691	1468.39
758.875	1488.87
759.059	1384.43
759.242	1368.04
759.426	1466.35
759.61	1306.6
759.794	1279.98
759.977	1347.56
760.161	1411.05
760.345	1390.57
760.528	1318.89
760.712	1357.8
760.895	1273.84
761.079	1339.37
761.263	1337.32
761.446	1339.37
761.63	1374.19
761.813	1314.8
761.997	1357.8
762.18	1214.45
762.364	1259.5
762.547	1245.17
762.731	1236.97
762.914	1257.45
763.098	1198.06
763.281	1322.99
763.464	1230.83
763.648	1220.59
763.831	1198.06
764.015	1208.3
764.198	1220.59
764.381	1167.34
764.564	1243.12
764.748	1251.31
764.931	1196.01
765.114	1136.62
765.297	1218.54
765.481	1105.9
765.664	1159.15
765.847	1124.33
766.03	1105.9
766.213	1107.95
766.397	1196.01
766.58	1097.71
766.763	1169.39
766.946	1091.57
767.129	1140.72
767.312	1081.33
767.495	1087.47
767.678	1124.33
767.861	1017.84
768.044	1105.9
768.227	1087.47
768.41	1028.08
768.593	1148.91
768.776	1099.76
768.959	1095.66
769.142	1093.62
769.324	1015.79
769.507	1028.08
769.69	972.79
769.873	1050.61
770.056	1075.18
770.239	1083.38
770.421	1023.98
770.604	1003.5
770.787	1046.51
770.97	942.07
771.152	983.03
771.335	946.16
771.518	1056.75
771.7	1077.23
771.883	987.12
772.066	960.5
772.248	1034.22
772.431	991.22
772.613	978.93
772.796	991.22
772.978	1007.6
773.161	970.74
773.343	956.4
773.526	944.11
773.708	915.44
773.891	946.16
774.073	909.3
774.256	1003.5
774.438	946.16
774.621	851.96
774.803	991.22
774.985	942.07
775.168	839.67
775.35	901.11
775.532	856.05
775.715	907.25
775.897	921.59
776.079	849.91
776.261	815.09
776.444	774.13
776.626	872.43
776.808	786.42
776.99	747.51
777.173	731.12
777.355	833.52
777.537	741.36
777.719	804.85
777.901	919.54
778.083	774.13
778.265	753.65
778.447	727.03
778.629	755.7
778.811	780.28
778.993	679.93
779.175	702.45
779.357	780.28
779.539	653.3
779.721	641.01
779.903	704.5
780.085	798.71
780.267	688.12
780.449	743.41
780.631	716.79
780.812	681.97
780.994	628.73
781.176	712.69
781.358	622.58
781.54	591.86
781.721	643.06
781.903	684.02
782.085	612.34
782.267	593.91
782.448	645.11
782.63	653.3
782.812	600.05
782.993	649.21
783.175	641.01
783.357	624.63
783.538	520.18
783.72	641.01
783.901	548.86
784.083	546.81
784.264	587.77
784.446	663.54
784.627	530.42
784.809	641.01
784.99	675.83
785.172	438.27
785.353	577.53
785.535	462.84
785.716	571.38
785.897	542.71
786.079	565.24
786.26	522.23
786.441	559.1
786.623	495.61
786.804	532.47
786.985	493.56
787.167	509.94
787.348	532.47
787.529	559.1
787.71	524.28
787.891	518.14
788.073	454.65
788.254	452.6
788.435	511.99
788.616	479.22
788.797	436.22
788.978	428.03
789.159	487.42
789.34	454.65
789.522	495.61
789.703	450.55
789.884	395.26
790.065	438.27
790.246	409.59
790.427	391.16
790.607	389.11
790.788	389.11
790.969	399.35
791.15	452.6
791.331	397.31
791.512	380.92
791.693	393.21
791.874	368.63
792.054	425.98
792.235	444.41
792.416	425.98
792.597	344.06
792.778	399.35
792.958	409.59
793.139	360.44
793.32	346.11
793.5	344.06
793.681	368.63
793.862	423.93
794.042	397.31
794.223	335.87
794.404	362.49
794.584	258.04
794.765	319.48
794.945	319.48
795.126	313.34
795.306	348.15
795.487	348.15
795.667	376.83
795.848	409.59
796.028	305.15
796.209	294.91
796.389	335.87
796.57	380.92
796.75	342.01
796.93	301.05
797.111	337.91
797.291	303.1
797.471	315.39
797.652	364.54
797.832	270.33
798.012	321.53
798.192	239.61
798.373	327.68
798.553	258.04
798.733	264.19
798.913	264.19
799.093	325.63
799.274	282.62
799.454	215.04
799.634	352.25
799.814	335.87
799.994	329.72
800.174	327.68
800.354	315.39
800.534	294.91
800.714	329.72
800.894	243.71
801.074	266.24
801.254	305.15
801.434	380.92
801.614	212.99
801.794	143.36
801.974	653.3
802.154	270.33
802.334	311.29
802.514	253.95
802.693	323.58
802.873	294.91
803.053	286.72
803.233	237.56
803.413	262.14
803.592	184.32
803.772	253.95
803.952	210.94
804.131	294.91
804.311	235.52
804.491	235.52
804.67	223.23
804.85	282.62
805.03	223.23
805.209	270.33
805.389	225.28
805.568	198.65
805.748	225.28
805.928	247.8
806.107	299
806.287	206.84
806.466	327.68
806.646	245.76
806.825	231.42
807.004	262.14
807.184	245.76
807.363	225.28
807.543	219.13
807.722	219.13
807.901	188.41
808.081	221.18
808.26	161.79
808.439	233.47
808.619	208.89
808.798	182.27
808.977	186.37
809.156	202.75
809.336	155.65
809.515	208.89
809.694	253.95
809.873	235.52
810.052	221.18
810.231	204.8
810.411	174.08
810.59	239.61
810.769	176.13
810.948	221.18
811.127	122.88
811.306	253.95
811.485	120.83
811.664	221.18
811.843	153.6
812.022	149.5
812.201	204.8
812.38	104.45
812.559	202.75
812.737	159.74
812.916	163.84
813.095	196.61
813.274	243.71
813.453	188.41
813.632	190.46
813.811	225.28
813.989	143.36
814.168	176.13
814.347	178.17
814.526	190.46
814.704	116.73
814.883	231.42
815.062	124.93
815.24	120.83
815.419	172.03
815.598	184.32
815.776	110.59
815.955	126.97
816.133	139.26
816.312	135.17
816.49	106.49
816.669	227.32
816.847	63.49
817.026	149.5
817.204	120.83
817.383	186.37
817.561	126.97
817.74	180.22
817.918	172.03
818.097	198.65
818.275	92.16
818.453	135.17
818.632	208.89
818.81	88.06
818.988	81.92
819.167	71.68
819.345	145.41
819.523	198.65
819.701	151.55
819.879	167.93
820.058	155.65
820.236	135.17
820.414	145.41
820.592	155.65
820.77	190.46
820.948	86.01
821.127	167.93
821.305	49.15
821.483	112.64
821.661	190.46
821.839	131.07
822.017	57.34
822.195	118.78
822.373	124.93
822.551	137.21
822.729	131.07
822.907	88.06
823.085	122.88
823.262	124.93
823.44	71.68
823.618	73.73
823.796	169.98
823.974	116.73
824.152	131.07
824.329	145.41
824.507	112.64
824.685	151.55
824.863	149.5
825.04	45.06
825.218	102.4
825.396	86.01
825.574	143.36
825.751	67.58
825.929	161.79
826.107	69.63
826.284	63.49
826.462	86.01
826.639	104.45
826.817	122.88
826.994	131.07
827.172	112.64
827.349	77.82
827.527	131.07
827.704	88.06
827.882	106.49
828.059	88.06
828.237	83.97
828.414	167.93
828.591	110.59
828.769	96.25
828.946	40.96
829.124	94.21
829.301	92.16
829.478	102.4
829.655	57.34
829.833	94.21
830.01	135.17
830.187	65.54
830.364	51.2
830.542	98.3
830.719	124.93
830.896	137.21
831.073	57.34
831.25	81.92
831.427	94.21
831.604	94.21
831.782	61.44
831.959	90.11
832.136	100.35
832.313	96.25
832.49	77.82
832.667	106.49
832.844	151.55
833.021	96.25
833.198	47.1
833.374	43.01
833.551	126.97
833.728	-28.67
833.905	104.45
834.082	79.87
834.259	47.1
834.436	65.54
834.612	32.77
834.789	28.67
834.966	-4.1
835.143	75.77
835.319	92.16
835.496	69.63
835.673	63.49
835.85	69.63
836.026	102.4
836.203	57.34
836.38	69.63
836.556	22.53
836.733	51.2
836.909	96.25
837.086	47.1
837.262	94.21
837.439	106.49
837.616	104.45
837.792	-10.24
837.968	73.73
838.145	16.38
838.321	6.14
838.498	139.26
838.674	69.63
838.851	38.91
839.027	16.38
839.203	137.21
839.38	22.53
839.556	18.43
839.732	120.83
839.909	36.86
840.085	22.53
840.261	20.48
840.437	53.25
840.614	79.87
840.79	77.82
840.966	22.53
841.142	133.12
841.318	108.54
841.494	108.54
841.671	92.16
841.847	10.24
842.023	65.54
842.199	67.58
842.375	63.49
842.551	-10.24
842.727	18.43
842.903	83.97
843.079	73.73
843.255	-16.38
843.431	28.67
843.607	86.01
843.783	16.38
843.959	73.73
844.134	18.43
844.31	22.53
844.486	34.82
844.662	-18.43
844.838	81.92
845.013	10.24
845.189	92.16
845.365	34.82
845.541	69.63
845.716	112.64
845.892	12.29
846.068	49.15
846.244	6.14
846.419	28.67
846.595	4.1
846.77	-6.14
846.946	118.78
847.122	71.68
847.297	53.25
847.473	67.58
847.648	-65.53
847.824	55.3
847.999	-16.38
848.175	55.3
848.35	18.43
848.526	30.72
848.701	16.38
848.876	81.92
849.052	67.58
849.227	73.73
849.403	18.43
849.578	36.86
849.753	73.73
849.929	36.86
850.104	18.43
850.279	43.01
850.454	86.01
850.63	67.58
850.805	38.91
850.98	4.1
851.155	12.29
851.33	75.77
851.505	0
851.681	63.49
851.856	12.29
852.031	49.15
852.206	-8.19
852.381	20.48
852.556	57.34
852.731	40.96
852.906	28.67
853.081	22.53
853.256	59.39
853.431	22.53
853.606	73.73
853.781	30.72
853.956	30.72
854.131	0
854.305	40.96
854.48	65.54
854.655	22.53
854.83	73.73
855.005	43.01
855.18	124.93
855.354	40.96
855.529	28.67
855.704	-14.34
855.879	61.44
856.053	28.67
856.228	8.19
856.403	10.24
856.577	90.11
856.752	63.49
856.926	26.62
857.101	6.14
857.276	-24.58
857.45	-36.86
857.625	47.1
857.799	-4.1
857.974	18.43
858.148	-16.38
858.323	34.82
858.497	2.05
858.672	-20.48
858.846	12.29
859.02	30.72
859.195	36.86
859.369	20.48
859.543	16.38
859.718	14.34
859.892	53.25
860.066	-40.96
860.241	38.91
860.415	57.34
860.589	-22.53
860.763	45.06
860.938	-16.38
861.112	26.62
861.286	-43.01
861.46	73.73
861.634	-38.91
861.808	22.53
861.982	-20.48
862.157	10.24
862.331	-8.19
862.505	14.34
862.679	-4.1
862.853	36.86
863.027	28.67
863.201	36.86
863.375	-36.86
863.549	24.58
863.722	36.86
863.896	12.29
864.07	20.48
864.244	71.68
864.418	-10.24
864.592	10.24
864.766	20.48
864.939	20.48
865.113	-20.48
865.287	20.48
865.461	69.63
865.634	-4.1
865.808	28.67
865.982	38.91
866.156	16.38
866.329	-16.38
866.503	53.25
866.676	18.43
866.85	53.25
867.024	18.43
867.197	71.68
867.371	45.06
867.544	59.39
867.718	-65.53
867.891	10.24
868.065	24.58
868.238	-4.1
868.412	75.77
868.585	14.34
868.759	-86.01
868.932	28.67
869.105	36.86
869.279	-18.43
869.452	16.38
869.625	-14.34
869.799	-53.25
869.972	-22.53
870.145	22.53
870.319	38.91
870.492	47.1
870.665	69.63
870.838	-26.62
871.011	-16.38
871.185	-30.72
871.358	67.58
871.531	4.1
871.704	-16.38
871.877	2.05
872.05	49.15
872.223	-45.06
872.396	20.48
872.569	49.15
872.742	28.67
872.915	10.24
873.088	-22.53
873.261	-65.53
873.434	-12.29
873.607	4.1
873.78	36.86
873.953	-57.34
874.126	-22.53
874.299	8.19
874.471	4.1
874.644	-40.96
874.817	47.1
874.99	-34.82
875.163	10.24
875.335	32.77
875.508	38.91
875.681	86.01
875.853	12.29
876.026	53.25
876.199	-120.83
876.371	8.19
876.544	-4.1
876.717	2.05
876.889	28.67
877.062	16.38
877.234	-16.38
877.407	-10.24
877.579	-18.43
877.752	45.06
877.924	10.24
878.097	6.14
878.269	24.58
878.442	-24.58
878.614	45.06
878.786	0
878.959	-34.82
879.131	-98.3
879.303	-4.1
879.476	0
879.648	92.16
879.82	98.3
879.993	61.44
880.165	-10.24
880.337	4.1
880.509	45.06
880.681	-18.43
880.854	-6.14
881.026	-20.48
881.198	-55.3
881.37	-12.29
881.542	-18.43
881.714	-38.91
881.886	-12.29
882.058	43.01
882.23	24.58
882.402	-4.1
882.574	-16.38
882.746	0
882.918	-22.53
883.09	4.1
883.262	-6.14
883.434	57.34
883.606	69.63
883.778	-2.05
883.95	12.29
884.122	-22.53
884.293	77.82
884.465	26.62
884.637	-32.77
884.809	26.62
884.98	-38.91
885.152	-8.19
885.324	63.49
885.496	-18.43
885.667	12.29
885.839	-34.82
886.011	53.25
886.182	12.29
886.354	86.01
886.525	-43.01
886.697	32.77
886.869	-2.05
887.04	8.19
887.212	71.68
887.383	16.38
887.555	61.44
887.726	-38.91
887.897	20.48
888.069	0
888.24	-81.92
888.412	57.34
888.583	20.48
888.754	-26.62
888.926	-2.05
889.097	47.1
889.268	-16.38
889.44	12.29
889.611	-20.48
889.782	0
889.953	-14.34
890.125	-24.58
890.296	-10.24
890.467	8.19
890.638	28.67
890.809	-8.19
890.98	16.38
891.151	-26.62
891.323	-30.72
891.494	-47.1
891.665	28.67
891.836	65.54
892.007	24.58
892.178	-6.14
892.349	-16.38
892.52	-73.73
892.691	10.24
892.862	-22.53
893.032	-55.3
893.203	40.96
893.374	-26.62
893.545	61.44
893.716	-73.73
893.887	-2.05
894.057	-14.34
894.228	4.1
894.399	-32.77
894.57	24.58
894.74	-10.24
894.911	4.1
895.082	45.06
895.253	-16.38
895.423	14.34
895.594	-20.48
895.764	63.49
895.935	-20.48
896.106	24.58
896.276	-8.19
896.447	-10.24
896.617	-12.29
896.788	-14.34
896.958	8.19
897.129	57.34
897.299	-16.38
897.47	30.72
897.64	28.67
897.81	-28.67
897.981	-12.29
898.151	-36.86
898.322	40.96
898.492	-30.72
898.662	-45.06
898.832	-16.38
899.003	18.43
899.173	-43.01
899.343	-59.39
899.513	-8.19
