Data from USB4F104151__145__11-08-12-852.txt Node

Date: Wed Mar 12 11:08:12 EDT 2025
User: louis
Spectrometer: USB4F10415
Trigger mode: 4
Integration Time (sec): 2.000000E-2
Scans to average: 1
Electric dark correction enabled: true
Nonlinearity correction enabled: false
Boxcar width: 0
XAxis mode: Wavelengths
Number of Pixels in Spectrum: 3648
>>>>>Begin Spectral Data<<<<<
178.204	-30.38
178.424	-30.38
178.644	-30.38
178.864	-112.3
179.084	-91.82
179.304	-13.99
179.524	45.4
179.744	0.34
179.964	31.06
180.184	2.39
180.404	59.73
180.624	-36.52
180.844	-1.71
181.064	-11.95
181.283	-44.71
181.503	12.63
181.723	-42.67
181.943	-5.8
182.163	8.53
182.383	2.39
182.602	115.03
182.822	12.63
183.042	26.96
183.262	45.4
183.482	26.96
183.701	39.25
183.921	-30.38
184.141	57.68
184.361	20.82
184.58	-26.28
184.8	22.87
185.02	82.26
185.239	63.83
185.459	-7.85
185.679	45.4
185.898	-69.29
186.118	20.82
186.338	49.49
186.557	10.58
186.777	-20.14
186.997	4.44
187.216	-36.52
187.436	143.7
187.655	18.77
187.875	33.11
188.095	53.59
188.314	4.44
188.534	8.53
188.753	20.82
188.973	-57
189.192	41.3
189.412	63.83
189.631	59.73
189.851	86.36
190.07	61.78
190.29	-7.85
190.509	41.3
190.729	143.7
190.948	117.08
191.168	88.4
191.387	55.64
191.607	20.82
191.826	57.68
192.045	57.68
192.265	26.96
192.484	61.78
192.704	49.49
192.923	-52.91
193.142	117.08
193.362	33.11
193.581	110.93
193.8	26.96
194.02	41.3
194.239	55.64
194.458	63.83
194.678	-54.95
194.897	35.16
195.116	53.59
195.335	123.22
195.555	20.82
195.774	20.82
195.993	16.73
196.212	51.54
196.432	16.73
196.651	47.44
196.87	-5.8
197.089	80.21
197.308	43.35
197.528	12.63
197.747	51.54
197.966	-13.99
198.185	-7.85
198.404	39.25
198.623	6.49
198.842	35.16
199.062	-5.8
199.281	117.08
199.5	2.39
199.719	-5.8
199.938	22.87
200.157	84.31
200.376	6.49
200.595	112.98
200.814	69.97
201.033	57.68
201.252	-5.8
201.471	20.82
201.69	82.26
201.909	57.68
202.128	-28.33
202.347	53.59
202.566	14.68
202.785	39.25
203.004	49.49
203.223	94.55
203.442	-26.28
203.661	35.16
203.879	51.54
204.098	55.64
204.317	-1.71
204.536	12.63
204.755	8.53
204.974	45.4
205.193	59.73
205.411	112.98
205.63	20.82
205.849	137.56
206.068	-28.33
206.287	67.92
206.505	100.69
206.724	-75.43
206.943	90.45
207.162	-11.95
207.381	24.92
207.599	69.97
207.818	6.49
208.037	74.07
208.255	8.53
208.474	-11.95
208.693	45.4
208.911	37.2
209.13	55.64
209.349	12.63
209.567	22.87
209.786	53.59
210.005	37.2
210.223	53.59
210.442	-69.29
210.661	26.96
210.879	74.07
211.098	86.36
211.316	-38.57
211.535	98.64
211.753	29.01
211.972	-22.19
212.191	-46.76
212.409	98.64
212.628	121.17
212.846	45.4
213.065	31.06
213.283	76.12
213.502	8.53
213.72	-16.04
213.938	67.92
214.157	-7.85
214.375	-50.86
214.594	33.11
214.812	39.25
215.031	24.92
215.249	16.73
215.467	6.49
215.686	-63.15
215.904	84.31
216.122	43.35
216.341	65.88
216.559	67.92
216.778	-28.33
216.996	127.32
217.214	-32.43
217.432	-7.85
217.651	57.68
217.869	-16.04
218.087	67.92
218.306	22.87
218.524	57.68
218.742	65.88
218.96	37.2
219.179	41.3
219.397	-28.33
219.615	78.16
219.833	49.49
220.051	-54.95
220.27	67.92
220.488	57.68
220.706	53.59
220.924	106.84
221.142	20.82
221.36	14.68
221.578	88.4
221.796	41.3
222.015	51.54
222.233	39.25
222.451	12.63
222.669	33.11
222.887	-28.33
223.105	4.44
223.323	49.49
223.541	-36.52
223.759	74.07
223.977	63.83
224.195	72.02
224.413	100.69
224.631	72.02
224.849	86.36
225.067	72.02
225.285	14.68
225.503	69.97
225.721	35.16
225.939	69.97
226.157	16.73
226.375	145.75
226.592	69.97
226.81	29.01
227.028	49.49
227.246	88.4
227.464	104.79
227.682	20.82
227.9	45.4
228.117	-3.75
228.335	43.35
228.553	57.68
228.771	37.2
228.989	57.68
229.206	-54.95
229.424	55.64
229.642	16.73
229.86	47.44
230.077	26.96
230.295	22.87
230.513	88.4
230.731	-34.47
230.948	102.74
231.166	-5.8
231.384	43.35
231.601	6.49
231.819	69.97
232.037	61.78
232.254	33.11
232.472	2.39
232.689	43.35
232.907	51.54
233.125	-28.33
233.342	0.34
233.56	37.2
233.777	8.53
233.995	94.55
234.213	59.73
234.43	59.73
234.648	18.77
234.865	18.77
235.083	31.06
235.3	22.87
235.518	29.01
235.735	51.54
235.953	-28.33
236.17	55.64
236.388	-24.23
236.605	18.77
236.822	20.82
237.04	-9.9
237.257	24.92
237.475	37.2
237.692	35.16
237.909	51.54
238.127	72.02
238.344	24.92
238.562	76.12
238.779	-1.71
238.996	20.82
239.214	-26.28
239.431	12.63
239.648	-9.9
239.865	29.01
240.083	53.59
240.3	45.4
240.517	-9.9
240.735	-40.62
240.952	16.73
241.169	100.69
241.386	-5.8
241.603	26.96
241.821	-11.95
242.038	37.2
242.255	33.11
242.472	16.73
242.689	31.06
242.907	14.68
243.124	33.11
243.341	10.58
243.558	-3.75
243.775	0.34
243.992	6.49
244.209	-24.23
244.426	121.17
244.643	61.78
244.86	-30.38
245.078	41.3
245.295	-1.71
245.512	0.34
245.729	31.06
245.946	45.4
246.163	18.77
246.38	74.07
246.597	24.92
246.814	14.68
247.031	-3.75
247.248	102.74
247.464	45.4
247.681	-7.85
247.898	20.82
248.115	74.07
248.332	16.73
248.549	61.78
248.766	16.73
248.983	35.16
249.2	-3.75
249.417	47.44
249.633	90.45
249.85	69.97
250.067	-59.05
250.284	51.54
250.501	-42.67
250.717	8.53
250.934	59.73
251.151	41.3
251.368	10.58
251.585	22.87
251.801	65.88
252.018	-13.99
252.235	12.63
252.451	26.96
252.668	0.34
252.885	37.2
253.102	74.07
253.318	106.84
253.535	-87.72
253.752	49.49
253.968	55.64
254.185	45.4
254.401	18.77
254.618	20.82
254.835	108.88
255.051	96.6
255.268	59.73
255.484	63.83
255.701	24.92
255.917	45.4
256.134	10.58
256.351	55.64
256.567	41.3
256.784	72.02
257	22.87
257.217	74.07
257.433	53.59
257.65	74.07
257.866	57.68
258.082	51.54
258.299	45.4
258.515	47.44
258.732	55.64
258.948	41.3
259.165	8.53
259.381	29.01
259.597	80.21
259.814	18.77
260.03	29.01
260.246	24.92
260.463	4.44
260.679	-7.85
260.895	59.73
261.112	14.68
261.328	22.87
261.544	12.63
261.761	37.2
261.977	16.73
262.193	65.88
262.409	35.16
262.626	22.87
262.842	39.25
263.058	39.25
263.274	65.88
263.49	-7.85
263.707	24.92
263.923	57.68
264.139	-36.52
264.355	41.3
264.571	33.11
264.787	53.59
265.004	51.54
265.22	41.3
265.436	31.06
265.652	-18.09
265.868	45.4
266.084	-32.43
266.3	4.44
266.516	55.64
266.732	94.55
266.948	-40.62
267.164	57.68
267.38	22.87
267.596	-30.38
267.812	80.21
268.028	59.73
268.244	26.96
268.46	78.16
268.676	53.59
268.892	-20.14
269.108	67.92
269.324	-11.95
269.54	86.36
269.756	51.54
269.972	-67.24
270.188	74.07
270.403	-32.43
270.619	4.44
270.835	55.64
271.051	65.88
271.267	67.92
271.483	41.3
271.698	20.82
271.914	86.36
272.13	-18.09
272.346	55.64
272.562	-3.75
272.777	47.44
272.993	121.17
273.209	45.4
273.425	100.69
273.64	26.96
273.856	88.4
274.072	33.11
274.287	37.2
274.503	10.58
274.719	59.73
274.934	18.77
275.15	-30.38
275.366	-9.9
275.581	8.53
275.797	31.06
276.012	10.58
276.228	98.64
276.444	106.84
276.659	20.82
276.875	-18.09
277.09	35.16
277.306	51.54
277.521	47.44
277.737	76.12
277.952	61.78
278.168	110.93
278.383	12.63
278.599	57.68
278.814	2.39
279.03	-22.19
279.245	90.45
279.461	39.25
279.676	33.11
279.892	-7.85
280.107	-40.62
280.322	22.87
280.538	57.68
280.753	-26.28
280.969	14.68
281.184	41.3
281.399	57.68
281.615	80.21
281.83	-3.75
282.045	45.4
282.26	102.74
282.476	-24.23
282.691	84.31
282.906	18.77
283.122	45.4
283.337	41.3
283.552	84.31
283.767	-9.9
283.983	112.98
284.198	16.73
284.413	74.07
284.628	-73.39
284.843	-9.9
285.058	65.88
285.274	65.88
285.489	63.83
285.704	-57
285.919	12.63
286.134	55.64
286.349	26.96
286.564	86.36
286.779	41.3
286.995	76.12
287.21	8.53
287.425	98.64
287.64	-24.23
287.855	18.77
288.07	-13.99
288.285	2.39
288.5	86.36
288.715	139.6
288.93	-16.04
289.145	59.73
289.36	20.82
289.575	67.92
289.79	16.73
290.004	55.64
290.219	26.96
290.434	31.06
290.649	65.88
290.864	20.82
291.079	69.97
291.294	-9.9
291.509	37.2
291.724	39.25
291.938	43.35
292.153	18.77
292.368	37.2
292.583	39.25
292.798	-46.76
293.012	88.4
293.227	24.92
293.442	74.07
293.657	26.96
293.871	74.07
294.086	-7.85
294.301	69.97
294.516	-20.14
294.73	22.87
294.945	-18.09
295.16	6.49
295.374	86.36
295.589	33.11
295.804	16.73
296.018	39.25
296.233	65.88
296.447	4.44
296.662	16.73
296.877	10.58
297.091	31.06
297.306	106.84
297.52	-24.23
297.735	72.02
297.949	63.83
298.164	76.12
298.378	37.2
298.593	94.55
298.807	37.2
299.022	82.26
299.236	108.88
299.451	-13.99
299.665	88.4
299.88	112.98
300.094	59.73
300.309	-65.19
300.523	-13.99
300.737	-22.19
300.952	45.4
301.166	29.01
301.381	41.3
301.595	41.3
301.809	-3.75
302.024	61.78
302.238	45.4
302.452	49.49
302.667	47.44
302.881	10.58
303.095	78.16
303.309	59.73
303.524	39.25
303.738	29.01
303.952	14.68
304.166	31.06
304.381	-18.09
304.595	110.93
304.809	51.54
305.023	65.88
305.237	72.02
305.452	26.96
305.666	20.82
305.88	102.74
306.094	127.32
306.308	53.59
306.522	67.92
306.736	39.25
306.95	26.96
307.164	94.55
307.379	74.07
307.593	0.34
307.807	74.07
308.021	-42.67
308.235	14.68
308.449	-48.81
308.663	10.58
308.877	12.63
309.091	65.88
309.305	98.64
309.519	2.39
309.733	35.16
309.947	63.83
310.161	41.3
310.374	12.63
310.588	41.3
310.802	80.21
311.016	74.07
311.23	-44.71
311.444	98.64
311.658	-13.99
311.872	24.92
312.085	-3.75
312.299	53.59
312.513	72.02
312.727	57.68
312.941	35.16
313.154	104.79
313.368	33.11
313.582	45.4
313.796	-16.04
314.009	65.88
314.223	94.55
314.437	65.88
314.651	10.58
314.864	-46.76
315.078	72.02
315.292	41.3
315.505	41.3
315.719	63.83
315.933	63.83
316.146	139.6
316.36	-30.38
316.573	80.21
316.787	18.77
317.001	57.68
317.214	-13.99
317.428	39.25
317.641	69.97
317.855	39.25
318.068	14.68
318.282	43.35
318.495	41.3
318.709	49.49
318.922	29.01
319.136	67.92
319.349	14.68
319.563	6.49
319.776	51.54
319.99	24.92
320.203	69.97
320.417	26.96
320.63	6.49
320.843	78.16
321.057	31.06
321.27	90.45
321.483	96.6
321.697	90.45
321.91	53.59
322.124	57.68
322.337	14.68
322.55	-32.43
322.763	35.16
322.977	78.16
323.19	20.82
323.403	33.11
323.617	59.73
323.83	10.58
324.043	16.73
324.256	-16.04
324.469	24.92
324.683	53.59
324.896	24.92
325.109	33.11
325.322	-9.9
325.535	78.16
325.748	82.26
325.962	-26.28
326.175	72.02
326.388	94.55
326.601	45.4
326.814	-18.09
327.027	102.74
327.24	29.01
327.453	100.69
327.666	16.73
327.879	78.16
328.092	29.01
328.305	-87.72
328.518	67.92
328.731	12.63
328.944	61.78
329.157	104.79
329.37	121.17
329.583	20.82
329.796	104.79
330.009	72.02
330.222	45.4
330.435	45.4
330.648	117.08
330.861	104.79
331.073	74.07
331.286	63.83
331.499	18.77
331.712	47.44
331.925	61.78
332.138	63.83
332.35	35.16
332.563	61.78
332.776	49.49
332.989	26.96
333.202	51.54
333.414	45.4
333.627	84.31
333.84	41.3
334.053	0.34
334.265	24.92
334.478	74.07
334.691	57.68
334.903	86.36
335.116	22.87
335.329	35.16
335.541	24.92
335.754	69.97
335.966	10.58
336.179	31.06
336.392	74.07
336.604	20.82
336.817	80.21
337.029	37.2
337.242	76.12
337.454	45.4
337.667	-13.99
337.88	61.78
338.092	35.16
338.305	72.02
338.517	-18.09
338.729	-13.99
338.942	88.4
339.154	47.44
339.367	6.49
339.579	41.3
339.792	14.68
340.004	12.63
340.217	-13.99
340.429	-11.95
340.641	-3.75
340.854	-3.75
341.066	4.44
341.278	74.07
341.491	37.2
341.703	-28.33
341.915	29.01
342.128	100.69
342.34	72.02
342.552	24.92
342.764	59.73
342.977	20.82
343.189	90.45
343.401	100.69
343.613	76.12
343.826	20.82
344.038	-11.95
344.25	-46.76
344.462	96.6
344.674	61.78
344.886	37.2
345.099	26.96
345.311	57.68
345.523	69.97
345.735	16.73
345.947	74.07
346.159	29.01
346.371	65.88
346.583	45.4
346.795	151.89
347.007	18.77
347.219	61.78
347.431	26.96
347.643	155.99
347.855	24.92
348.067	10.58
348.279	45.4
348.491	55.64
348.703	49.49
348.915	29.01
349.127	-24.23
349.339	49.49
349.551	-7.85
349.763	76.12
349.975	-40.62
350.187	33.11
350.399	53.59
350.61	16.73
350.822	41.3
351.034	4.44
351.246	22.87
351.458	53.59
351.669	53.59
351.881	90.45
352.093	104.79
352.305	100.69
352.517	49.49
352.728	98.64
352.94	57.68
353.152	94.55
353.363	0.34
353.575	69.97
353.787	33.11
353.999	45.4
354.21	47.44
354.422	20.82
354.633	47.44
354.845	53.59
355.057	10.58
355.268	-5.8
355.48	0.34
355.692	39.25
355.903	84.31
356.115	96.6
356.326	8.53
356.538	53.59
356.749	100.69
356.961	72.02
357.172	92.5
357.384	53.59
357.595	72.02
357.807	33.11
358.018	51.54
358.23	82.26
358.441	102.74
358.653	102.74
358.864	29.01
359.075	43.35
359.287	49.49
359.498	53.59
359.709	45.4
359.921	94.55
360.132	76.12
360.344	6.49
360.555	78.16
360.766	41.3
360.977	29.01
361.189	26.96
361.4	59.73
361.611	74.07
361.823	6.49
362.034	78.16
362.245	16.73
362.456	82.26
362.667	94.55
362.879	10.58
363.09	47.44
363.301	53.59
363.512	94.55
363.723	80.21
363.935	96.6
364.146	39.25
364.357	0.34
364.568	-9.9
364.779	49.49
364.99	74.07
365.201	4.44
365.412	45.4
365.623	0.34
365.834	45.4
366.045	6.49
366.256	76.12
366.467	41.3
366.678	72.02
366.889	4.44
367.1	14.68
367.311	-30.38
367.522	39.25
367.733	55.64
367.944	61.78
368.155	16.73
368.366	123.22
368.577	57.68
368.788	80.21
368.999	2.39
369.209	-7.85
369.42	86.36
369.631	55.64
369.842	88.4
370.053	82.26
370.264	-24.23
370.474	78.16
370.685	20.82
370.896	16.73
371.107	125.27
371.317	94.55
371.528	82.26
371.739	37.2
371.95	22.87
372.16	106.84
372.371	51.54
372.582	69.97
372.792	41.3
373.003	82.26
373.214	37.2
373.424	-5.8
373.635	22.87
373.846	96.6
374.056	51.54
374.267	90.45
374.477	94.55
374.688	115.03
374.898	57.68
375.109	43.35
375.319	59.73
375.53	82.26
375.74	80.21
375.951	69.97
376.161	26.96
376.372	41.3
376.582	31.06
376.793	24.92
377.003	67.92
377.214	65.88
377.424	76.12
377.635	139.6
377.845	-32.43
378.055	61.78
378.266	69.97
378.476	53.59
378.686	43.35
378.897	22.87
379.107	86.36
379.317	24.92
379.528	90.45
379.738	102.74
379.948	96.6
380.158	139.6
380.369	22.87
380.579	94.55
380.789	4.44
380.999	86.36
381.21	39.25
381.42	53.59
381.63	74.07
381.84	115.03
382.05	84.31
382.261	59.73
382.471	80.21
382.681	90.45
382.891	82.26
383.101	86.36
383.311	0.34
383.521	59.73
383.731	127.32
383.941	84.31
384.151	69.97
384.361	43.35
384.571	20.82
384.781	-59.05
384.991	90.45
385.201	108.88
385.411	98.64
385.621	39.25
385.831	63.83
386.041	74.07
386.251	121.17
386.461	129.36
386.671	-18.09
386.881	94.55
387.091	49.49
387.301	51.54
387.511	37.2
387.72	135.51
387.93	22.87
388.14	65.88
388.35	-16.04
388.56	112.98
388.769	121.17
388.979	123.22
389.189	26.96
389.399	102.74
389.609	72.02
389.818	67.92
390.028	57.68
390.238	139.6
390.447	59.73
390.657	53.59
390.867	88.4
391.076	31.06
391.286	106.84
391.496	53.59
391.705	92.5
391.915	112.98
392.125	176.47
392.334	96.6
392.544	-3.75
392.753	112.98
392.963	63.83
393.172	61.78
393.382	29.01
393.591	76.12
393.801	125.27
394.01	151.89
394.22	141.65
394.429	80.21
394.639	80.21
394.848	88.4
395.058	112.98
395.267	80.21
395.477	127.32
395.686	151.89
395.895	98.64
396.105	78.16
396.314	63.83
396.524	49.49
396.733	49.49
396.942	176.47
397.152	135.51
397.361	74.07
397.57	94.55
397.78	82.26
397.989	20.82
398.198	133.46
398.407	76.12
398.617	119.12
398.826	110.93
399.035	41.3
399.244	74.07
399.453	102.74
399.663	180.56
399.872	74.07
400.081	149.84
400.29	96.6
400.499	117.08
400.708	151.89
400.917	104.79
401.127	174.42
401.336	2.39
401.545	131.41
401.754	88.4
401.963	80.21
402.172	88.4
402.381	102.74
402.59	153.94
402.799	123.22
403.008	129.36
403.217	133.46
403.426	72.02
403.635	141.65
403.844	137.56
404.053	37.2
404.262	59.73
404.471	96.6
404.68	151.89
404.888	137.56
405.097	172.37
405.306	94.55
405.515	94.55
405.724	117.08
405.933	108.88
406.142	151.89
406.35	125.27
406.559	180.56
406.768	106.84
406.977	160.08
407.185	201.04
407.394	186.71
407.603	158.03
407.812	164.18
408.02	266.58
408.229	166.23
408.438	256.34
408.646	217.43
408.855	186.71
409.064	227.67
409.272	225.62
409.481	276.82
409.69	262.48
409.898	282.96
410.107	315.73
410.315	303.44
410.524	272.72
410.733	317.78
410.941	293.2
411.15	356.69
411.358	377.17
411.567	401.74
411.775	411.98
411.984	434.51
412.192	385.36
412.401	364.88
412.609	389.46
412.818	467.28
413.026	436.56
413.234	489.81
413.443	461.13
413.651	502.09
413.86	549.2
414.068	498
414.276	514.38
414.485	547.15
414.693	547.15
414.901	612.68
415.11	651.6
415.318	641.36
415.526	719.18
415.734	667.98
415.943	725.32
416.151	684.36
416.359	713.03
416.567	706.89
416.776	756.04
416.984	880.97
417.192	942.41
417.4	952.65
417.608	842.06
417.817	831.82
418.025	977.22
418.233	1030.47
418.441	919.88
418.649	956.74
418.857	1165.64
419.065	1161.54
419.273	1186.12
419.481	1196.36
419.689	1165.64
419.897	1323.33
420.105	1354.05
420.313	1415.49
420.521	1306.95
420.729	1456.45
420.937	1462.59
421.145	1499.45
421.353	1642.81
421.561	1755.45
421.769	1667.39
421.977	1872.18
422.185	1894.71
422.393	1982.78
422.601	2054.45
422.809	1894.71
423.017	2033.97
423.224	2132.28
423.432	2206
423.64	2179.38
423.848	2447.66
424.056	2367.79
424.263	2339.12
424.471	2416.94
424.679	2494.77
424.887	2693.42
425.094	2801.96
425.302	2785.58
425.51	2867.5
425.718	3029.29
425.925	3072.29
426.133	3078.44
426.341	3291.43
426.548	3375.39
426.756	3303.71
426.964	3410.21
427.171	3701.02
427.379	3842.33
427.586	3795.23
427.794	3948.83
428.001	4237.59
428.209	4204.82
428.417	4258.07
428.624	4548.88
428.832	4534.54
429.039	4317.46
429.247	4649.23
429.454	4806.92
429.662	5153.03
429.869	5081.35
430.076	5312.77
430.284	5107.98
430.491	5474.56
430.699	5660.93
430.906	5718.27
431.114	5695.74
431.321	5804.28
431.528	6101.24
431.736	6482.16
431.943	6836.46
432.15	6363.38
432.358	6703.34
432.565	6973.67
432.772	7004.39
432.979	7196.9
433.187	7344.36
433.394	7493.86
433.601	7977.18
433.808	7944.41
434.016	7876.83
434.223	8261.85
434.43	8732.88
434.637	8546.51
434.844	9158.86
435.052	9183.43
435.259	9011.4
435.466	9312.46
435.673	9195.72
435.88	9681.09
436.087	10363.06
436.294	10381.49
436.501	10219.71
436.708	10281.14
436.915	10725.55
437.122	11051.18
437.329	11239.59
437.537	11364.52
437.743	11636.9
437.95	11645.09
438.157	12241.05
438.364	12519.57
438.571	12509.33
438.778	12632.21
438.985	13518.98
439.192	13168.78
439.399	13578.37
439.606	13248.65
439.813	14205.05
440.02	15001.71
440.227	14647.41
440.433	14571.64
440.64	15054.96
440.847	15014
441.054	15497.32
441.261	16287.84
441.467	15839.33
441.674	16552.02
441.881	16975.95
442.088	16971.86
442.294	16754.77
442.501	17340.49
442.708	17559.63
442.914	18110.53
443.121	19107.89
443.328	18538.55
443.534	19865.64
443.741	19189.81
443.948	18851.89
444.154	20631.58
444.361	20262.94
444.568	20736.02
444.774	20185.12
444.981	20545.56
445.187	21311.5
445.394	22317.06
445.6	21843.98
445.807	24010.73
446.013	22831.1
446.22	23302.13
446.426	24094.69
446.633	24606.69
446.839	25442.26
447.046	24051.69
447.252	25591.76
447.459	25591.76
447.665	25282.52
447.871	26722.24
448.078	27678.64
448.284	26400.71
448.491	27017.15
448.697	27756.46
448.903	28280.74
449.11	28594.08
449.316	28178.34
449.522	28796.83
449.728	29341.59
449.935	29669.26
450.141	29769.62
450.347	30394.25
450.553	29132.7
450.76	29527.95
450.966	30537.6
451.172	30312.33
451.378	30865.28
451.584	30361.48
451.791	31057.79
451.997	31027.07
452.203	31463.29
452.409	31496.05
452.615	31258.49
452.821	30017.42
453.027	29783.95
453.233	31502.2
453.44	29812.62
453.646	30404.49
453.852	30607.23
454.058	31131.51
454.264	29622.16
454.47	30834.56
454.676	30115.72
454.882	30967.68
455.088	27930.54
455.294	28342.18
455.5	29294.49
455.705	29093.79
455.911	28075.94
456.117	27473.84
456.323	26750.91
456.529	25561.04
456.735	26847.16
456.941	26003.4
457.147	26030.02
457.352	25145.3
457.558	24451.04
457.764	24690.65
457.97	24309.73
458.176	23650.28
458.381	23685.1
458.587	22446.08
458.793	22413.31
458.999	21293.07
459.204	22958.07
459.41	22231.04
459.616	20944.92
459.821	20783.13
460.027	20340.77
460.233	20348.96
460.438	19327.02
460.644	19406.89
460.85	18706.49
461.055	18284.61
461.261	18280.51
461.466	16816.21
461.672	16265.31
461.878	17780.81
462.083	16525.4
462.289	16191.58
462.494	16027.74
462.7	15360.11
462.905	14854.26
463.111	15407.21
463.316	15386.73
463.522	15161.45
463.727	15179.89
463.932	15026.29
464.138	14893.17
464.343	14930.03
464.549	14622.84
464.754	15171.69
464.959	14872.69
465.165	14690.42
465.37	14256.25
465.575	13918.34
465.781	14338.17
465.986	14454.9
466.191	13734.02
466.397	13547.65
466.602	12961.94
466.807	13381.77
467.012	13668.48
467.218	13504.65
467.423	13349
467.628	13342.86
467.833	14155.9
468.038	13404.3
468.244	12974.22
468.449	13527.17
468.654	13113.49
468.859	13195.4
469.064	12880.02
469.269	12308.63
469.474	12525.72
469.679	12699.8
469.885	12331.16
470.09	12646.55
470.295	12492.95
470.5	12148.89
470.705	12365.98
470.91	11905.18
471.115	11724.96
471.32	11862.18
471.525	12023.97
471.73	11407.53
471.935	11661.48
472.139	11425.96
472.344	11614.37
472.549	11172.01
472.754	11192.49
472.959	10762.42
473.164	10541.24
473.369	10342.58
473.574	10883.25
473.778	10782.9
473.983	10711.22
474.188	10674.35
474.393	10256.57
474.598	10254.52
474.802	10143.93
475.007	10148.03
475.212	9908.41
475.417	9605.31
475.621	9674.95
475.826	9797.82
476.031	9535.68
476.235	9423.05
476.44	9597.12
476.645	9439.43
476.849	9246.92
477.054	9320.65
477.259	9015.5
477.463	9156.81
477.668	8884.43
477.872	8888.53
478.077	8980.68
478.282	8575.19
478.486	8597.71
478.691	8587.47
478.895	8423.64
479.1	8444.12
479.304	8534.23
479.509	8102.11
479.713	8241.37
479.918	8233.18
480.122	8134.87
480.326	8364.25
480.531	8192.22
480.735	8009.95
480.94	8100.06
481.144	8167.64
481.348	7719.14
481.553	7940.32
481.757	7794.91
481.961	7954.65
482.166	8009.95
482.37	7839.97
482.574	7819.49
482.778	8014.04
482.983	7885.02
483.187	7899.36
483.391	7846.11
483.595	7848.16
483.8	7743.71
484.004	7936.22
484.208	7934.17
484.412	7839.97
484.616	7975.13
484.821	7899.36
485.025	7712.99
485.229	7831.77
485.433	7899.36
485.637	7727.33
485.841	7739.62
486.045	7571.68
486.249	7831.77
486.453	7721.18
486.657	7899.36
486.861	7993.56
487.065	7784.67
487.269	7870.69
487.473	7764.19
487.677	7725.28
487.881	7803.1
488.085	7864.54
488.289	7895.26
488.493	7756
488.697	7921.88
488.901	7844.06
489.105	7950.56
489.309	7854.3
489.512	7995.61
489.716	7936.22
489.92	7860.45
490.124	7758.05
490.328	8024.28
490.531	7981.28
490.735	8188.12
490.939	7997.66
491.143	8026.33
491.346	8083.67
491.55	8347.86
491.754	8284.37
491.958	8241.37
492.161	8163.54
492.365	8104.15
492.569	8224.98
492.772	8315.09
492.976	8437.97
493.18	8362.2
493.383	8425.68
493.587	8587.47
493.79	8648.91
493.994	8435.92
494.197	8454.36
494.401	8745.17
494.605	8792.27
494.808	8896.72
495.012	8847.57
495.215	8761.55
495.419	9173.19
495.622	8984.78
495.825	9203.91
496.029	9210.06
496.232	9451.72
496.436	9210.06
496.639	9474.24
496.843	9470.15
497.046	9603.27
497.249	9760.96
497.453	9863.36
497.656	9898.17
497.859	9720
498.063	10211.51
498.266	10123.45
498.469	10193.08
498.673	10248.38
498.876	10283.19
499.079	10715.31
499.282	10391.73
499.485	11030.7
499.689	10922.16
499.892	10870.96
500.095	10938.54
500.298	11272.36
500.501	11260.07
500.705	11518.12
500.908	11763.87
501.111	11669.67
501.314	11810.98
501.517	12001.44
501.72	12325.02
501.923	11993.25
502.126	12402.84
502.329	12560.53
502.532	12593.3
502.735	12730.52
502.938	12767.38
503.141	12884.11
503.344	13144.2
503.547	13344.91
503.75	13486.22
503.953	13648.01
504.156	13736.07
504.359	13822.08
504.562	13746.31
504.765	14196.86
504.968	14280.83
505.17	14504.06
505.373	14467.19
505.576	14936.18
505.779	14827.64
505.982	15206.51
506.185	15206.51
506.387	15333.48
506.59	15313
506.793	15839.33
506.996	15429.74
507.198	16226.4
507.401	16015.46
507.604	16423
507.807	16627.8
508.009	16812.12
508.212	16595.03
508.415	17033.3
508.617	17229.9
508.82	17213.52
509.022	17270.86
509.225	17741.89
509.428	17766.47
509.63	17895.49
509.833	18186.3
510.035	18491.45
510.238	18763.83
510.44	19083.31
510.643	19013.68
510.845	19308.59
511.048	18651.19
511.25	19421.23
511.453	19470.38
511.655	20058.15
511.858	20031.52
512.06	20234.27
512.262	20129.83
512.465	20465.69
512.667	20615.19
512.87	20846.62
513.072	20852.76
513.274	21223.44
513.477	21508.11
513.679	21749.77
513.881	22130.69
514.084	22149.12
514.286	22167.56
514.488	22364.16
514.69	23201.78
514.893	23019.51
515.095	23160.82
515.297	23377.9
515.499	23230.45
515.701	23625.71
515.904	24356.83
516.106	23885.8
516.308	24612.83
516.51	24739.8
516.712	24545.25
516.914	25143.25
517.116	25419.73
517.318	25657.29
517.52	25472.98
517.722	25698.25
517.925	25995.21
518.127	26281.92
518.329	27070.39
518.531	26470.34
518.733	27049.91
518.935	27463.6
519.136	27248.57
519.338	27473.84
519.54	27471.79
519.742	28153.77
519.944	28409.76
520.146	28819.36
520.348	28751.77
520.55	28735.39
520.752	29075.35
520.954	29826.96
521.155	29142.94
521.357	29847.44
521.559	29835.15
521.761	30441.35
521.963	30416.77
522.164	30652.29
522.366	30957.44
522.568	30934.91
522.77	31117.18
522.971	31813.49
523.173	31797.1
523.375	31952.75
523.576	31893.36
523.778	32092.01
523.98	32278.38
524.181	32507.75
524.383	32417.64
524.584	33095.52
524.786	33390.42
524.988	32917.34
525.189	33187.67
525.391	33859.41
525.592	33994.57
525.794	33779.54
525.995	33935.18
526.197	34264.91
526.398	33910.61
526.6	34312.01
526.801	34533.19
527.003	34844.48
527.204	34879.3
527.406	35032.89
527.607	34989.89
527.808	35190.59
528.01	34877.25
528.211	35235.64
528.412	36013.87
528.614	35673.91
528.815	35890.99
529.016	36290.35
529.218	35675.96
529.419	35903.28
529.62	35993.39
529.822	35942.19
530.023	36284.2
530.224	36353.83
530.425	36210.48
530.626	35835.7
530.828	36017.97
531.029	36687.65
531.23	36628.26
531.431	36560.68
531.632	36917.03
531.833	36648.74
532.035	36706.09
532.236	37035.81
532.437	37021.47
532.638	36595.49
532.839	36728.61
533.04	37324.57
533.241	36515.62
533.442	37406.49
533.643	37123.87
533.844	36972.32
534.045	36939.55
534.246	36988.7
534.447	37465.88
534.648	37185.31
534.849	37463.83
535.05	36986.66
535.251	37345.05
535.451	37084.96
535.652	37312.28
535.853	36923.17
536.054	37291.8
536.255	37168.93
536.456	36898.59
536.657	37619.48
536.857	37041.95
537.058	37347.1
537.259	37666.58
537.46	37154.59
537.66	37326.62
537.861	37197.6
538.062	37224.22
538.263	37492.51
538.463	37162.78
538.664	37271.32
538.865	37445.4
539.065	37478.17
539.266	37019.42
539.466	37662.49
539.667	36669.22
539.868	37656.34
540.068	37353.24
540.269	36951.84
540.469	37474.07
540.67	37308.19
540.87	37467.93
541.071	36824.87
541.271	37334.81
541.472	37244.7
541.672	37058.34
541.873	37476.12
542.073	36892.45
542.274	37220.13
542.474	36978.47
542.675	36693.8
542.875	37089.06
543.075	37379.87
543.276	36874.02
543.476	37142.3
543.676	37170.97
543.877	37187.36
544.077	36892.45
544.277	37011.23
544.478	37013.28
544.678	36964.13
544.878	37132.06
545.078	37017.38
545.279	36788
545.479	36941.6
545.679	37336.86
545.879	37084.96
546.079	36792.1
546.28	37201.69
546.48	36562.73
546.68	37226.27
546.88	36863.78
547.08	36960.03
547.28	36994.85
547.48	36853.54
547.68	36894.5
547.88	36480.81
548.081	37256.99
548.281	36738.85
548.481	36511.53
548.681	37087.01
548.881	36810.53
549.081	36753.19
549.28	36726.56
549.48	36759.33
549.68	36425.51
549.88	37033.76
550.08	36865.83
550.28	36890.4
550.48	36620.07
550.68	37000.99
550.88	36945.7
551.08	36427.56
551.279	36808.48
551.479	36329.26
551.679	36687.65
551.879	36458.28
552.079	36765.48
552.278	36749.09
552.478	36611.88
552.678	36663.08
552.878	36867.87
553.077	36767.52
553.277	36296.49
553.477	37095.2
553.676	36255.53
553.876	36685.61
554.076	36548.39
554.275	36607.78
554.475	35821.36
554.674	36149.04
554.874	36259.63
555.074	36192.05
555.273	36208.43
555.473	36458.28
555.672	35684.15
555.872	36091.69
556.071	36146.99
556.271	35884.85
556.47	36034.35
556.67	35680.05
556.869	35774.26
557.068	35989.3
557.268	35704.63
557.467	35575.61
557.667	35856.18
557.866	35741.49
558.065	35696.44
558.265	35800.88
558.464	35522.36
558.663	35874.61
558.863	35616.57
559.062	35735.35
559.261	34707.27
559.461	35827.51
559.66	34729.8
559.859	34979.65
560.058	34717.51
560.258	34953.02
560.457	34838.34
560.656	35116.86
560.855	34852.67
561.054	34928.45
561.253	34662.21
561.453	34903.87
561.652	35018.56
561.851	34989.89
562.05	34690.88
562.249	34395.98
562.448	34418.5
562.647	34522.95
562.846	34322.25
563.045	34000.72
563.244	34293.58
563.443	34527.05
563.642	33892.18
563.841	34056.01
564.04	33916.75
564.239	34117.45
564.438	34004.81
564.637	34211.66
564.836	33806.16
565.035	33922.9
565.234	33732.43
565.432	33603.41
565.631	33494.87
565.83	33613.65
566.029	33341.27
566.228	32966.49
566.427	33378.14
566.625	33253.21
566.824	32751.46
567.023	32982.88
567.222	32395.11
567.42	32946.01
567.619	32704.35
567.818	32687.97
568.016	32601.96
568.215	32991.07
568.414	32155.5
568.612	32561
568.811	32501.61
569.01	32503.65
569.208	31987.57
569.407	32302.95
569.605	31768.43
569.804	32331.62
570.002	31825.78
570.201	31786.86
570.4	31487.86
570.598	31844.21
570.797	31375.22
570.995	31657.84
571.193	31250.3
571.392	31405.94
571.59	31084.41
571.789	31186.81
571.987	30914.43
572.186	31004.54
572.384	30832.51
572.582	30775.17
572.781	30891.9
572.979	30676.87
573.177	30676.87
573.376	30572.42
573.574	30076.81
573.772	30646.15
573.971	30168.97
574.169	29835.15
574.367	29859.73
574.565	30082.95
574.763	30044.04
574.962	29775.76
575.16	29263.77
575.358	29783.95
575.556	29546.39
575.754	29859.73
575.952	29247.38
576.151	29613.97
576.349	29114.27
576.547	29564.82
576.745	29390.74
576.943	29294.49
577.141	29206.42
577.339	28809.12
577.537	28635.04
577.735	28891.04
577.933	28755.87
578.131	29050.78
578.329	28817.31
578.527	28559.27
578.725	28702.62
578.923	28458.92
579.121	28536.74
579.319	28047.27
579.516	27838.38
579.714	27867.05
579.912	28415.91
580.11	27881.39
580.308	27963.31
580.506	27727.79
580.704	27479.99
580.901	27815.85
581.099	27891.63
581.297	27746.22
581.495	27537.33
581.692	27484.08
581.89	27342.77
582.088	27383.73
582.285	27498.42
582.483	27324.34
582.681	27092.92
582.878	26734.53
583.076	26537.92
583.274	26881.98
583.471	26707.9
583.669	26630.08
583.866	26382.27
584.064	26683.33
584.262	26339.27
584.459	26628.03
584.657	25941.96
584.854	26429.38
585.052	26167.24
585.249	26081.22
585.447	26099.66
585.644	25866.19
585.841	25786.32
586.039	26062.79
586.236	25317.33
586.434	25784.27
586.631	25554.9
586.828	25667.53
587.026	25657.29
587.223	25515.98
587.42	25221.08
587.618	25378.77
587.815	25044.95
588.012	24936.41
588.21	24821.72
588.407	25438.16
588.604	24809.43
588.801	24420.32
588.999	24643.55
589.196	24840.15
589.393	24606.69
589.59	24479.71
589.787	24373.22
589.984	24305.63
590.182	24045.54
590.379	24350.69
590.576	24365.03
590.773	24387.55
590.97	24307.68
591.167	24233.96
591.364	23764.97
591.561	23916.52
591.758	23406.58
591.955	23615.47
592.152	24053.73
592.349	23541.74
592.546	23568.37
592.743	23316.47
592.94	23056.37
593.137	23607.28
593.334	23351.28
593.531	23136.24
593.727	23164.92
593.924	23119.86
594.121	22890.49
594.318	23035.89
594.515	22601.72
594.712	23048.18
594.908	22710.27
595.105	22945.78
595.302	22573.05
595.499	22927.35
595.696	22597.63
595.892	22208.51
596.089	22372.35
596.286	22294.53
596.482	22325.25
596.679	22306.82
596.876	22306.82
597.072	22145.03
597.269	22257.67
597.466	21864.46
597.662	21915.65
597.859	21825.54
598.055	21682.19
598.252	21514.25
598.448	21454.86
598.645	21968.9
598.841	21282.83
599.038	21692.43
599.234	21469.2
599.431	21200.91
599.627	20998.16
599.824	21336.08
600.02	21315.6
600.217	21393.42
600.413	20957.21
600.609	20795.42
600.806	20729.88
601.002	21102.61
601.198	20770.84
601.395	20699.16
601.591	20607
601.787	20312.1
601.984	20289.57
602.18	20615.19
602.376	20185.12
602.572	20420.64
602.769	20228.13
602.965	20103.2
603.161	20353.05
603.357	20033.57
603.553	19896.36
603.75	19697.7
603.946	19759.14
604.142	20025.38
604.338	19486.76
604.534	19728.42
604.73	19648.55
604.926	19472.43
605.122	19523.63
605.318	19388.46
605.514	19404.85
605.71	19204.14
605.906	19167.28
606.102	19292.21
606.298	19140.66
606.494	19286.06
606.69	19169.33
606.886	19284.02
607.082	18681.91
607.278	18970.68
607.474	18737.21
607.67	19009.59
607.866	18788.41
608.062	18956.34
608.257	18612.28
608.453	18729.02
608.649	18616.38
608.845	18593.85
609.041	18432.06
609.236	18587.71
609.432	18403.39
609.628	18536.51
609.824	18346.05
610.019	18255.93
610.215	18217.02
610.411	18405.44
610.606	18286.65
610.802	18075.71
610.998	18159.68
611.193	18098.24
611.389	17795.14
611.584	18081.86
611.78	17793.09
611.976	17641.54
612.171	17864.77
612.367	17811.53
612.562	17756.23
612.758	17514.57
612.953	17758.28
613.149	17541.19
613.344	17467.47
613.539	17647.69
613.735	17610.82
613.93	17743.94
614.126	17508.43
614.321	17510.47
614.517	17578.06
614.712	17234
614.907	17317.97
615.103	17414.22
615.298	17145.94
615.493	17475.66
615.688	17129.55
615.884	17408.08
616.079	17289.29
616.274	17182.8
616.47	17297.49
616.665	17197.13
616.86	17041.49
617.055	17213.52
617.25	16916.56
617.445	16734.29
617.641	16808.02
617.836	16902.23
618.031	16623.7
618.226	16558.17
618.421	16453.72
618.616	16676.95
618.811	16201.82
619.006	16816.21
619.201	16484.44
619.396	16717.91
619.591	16312.41
619.786	16355.42
619.981	16189.53
620.176	16369.76
620.371	15931.49
620.566	16218.21
620.761	15919.2
620.956	15958.11
621.151	15911.01
621.346	15800.42
621.541	15538.28
621.735	15773.8
621.93	15411.31
622.125	15544.42
622.32	15288.43
622.515	15437.93
622.709	15083.63
622.904	15382.63
623.099	15159.41
623.294	15007.86
623.488	15042.67
623.683	15106.16
623.878	14596.21
624.072	14848.11
624.267	14778.48
624.462	14577.78
624.656	14358.65
624.851	14516.34
625.046	14524.54
625.24	14336.12
625.435	14413.95
625.629	14102.65
625.824	14182.52
626.018	13772.93
626.213	13584.52
626.407	14012.54
626.602	13504.65
626.796	13682.82
626.991	13588.61
627.185	13480.07
627.38	13543.56
627.574	13441.16
627.768	13234.32
627.963	13222.03
628.157	13119.63
628.352	13234.32
628.546	12796.05
628.74	13074.57
628.935	12777.62
629.129	12841.11
629.323	12617.88
629.517	12851.35
629.712	12669.08
629.906	12427.42
630.1	12159.13
630.294	12437.66
630.489	12394.65
630.683	12359.83
630.877	12234.91
631.071	12159.13
631.265	11954.33
631.459	11966.62
631.653	12005.53
631.848	11860.13
632.042	11948.19
632.236	11839.65
632.43	11958.43
632.624	11638.95
632.818	11702.43
633.012	11460.77
633.206	11366.57
633.4	11487.4
633.594	11172.01
633.788	11354.28
633.982	11444.39
634.176	11358.38
634.369	11147.44
634.563	11106.48
634.757	10934.45
634.951	10959.02
635.145	10827.95
635.339	10842.29
635.533	10901.68
635.726	10635.44
635.92	10764.47
636.114	10565.81
636.308	10457.27
636.501	10743.99
636.695	10514.61
636.889	10223.8
637.083	10399.93
637.276	10318.01
637.47	10342.58
637.664	10281.14
637.857	10234.04
638.051	10293.43
638.244	10059.96
638.438	9949.37
638.632	9943.23
638.825	9785.54
639.019	9973.95
639.212	9803.97
639.406	9746.62
639.599	9681.09
639.793	9605.31
639.986	9498.82
640.18	9654.47
640.373	9504.96
640.567	9371.85
640.76	9390.28
640.954	9189.58
641.147	9175.24
641.34	9175.24
641.534	9126.09
641.727	9175.24
641.92	9083.08
642.114	8872.14
642.307	9013.45
642.5	9027.79
642.694	8669.39
642.887	8753.36
643.08	8818.89
643.273	8704.21
643.467	8763.6
643.66	8655.06
643.853	8704.21
644.046	8394.97
644.239	8437.97
644.432	8425.68
644.626	8480.98
644.819	8351.96
645.012	8241.37
645.205	8448.21
645.398	8249.56
645.591	8212.7
645.784	8124.63
645.977	8048.86
646.17	8218.84
646.363	8016.09
646.556	7864.54
646.749	8009.95
646.942	7887.07
647.135	7796.96
647.328	7743.71
647.521	7694.56
647.714	7706.85
647.907	7674.08
648.099	7829.73
648.292	7567.59
648.485	7743.71
648.678	7510.24
648.871	7543.01
649.064	7553.25
649.256	7514.34
649.449	7518.43
649.642	7389.41
649.835	7250.15
650.027	7237.86
650.22	7076.07
650.413	7256.29
650.605	7127.27
650.798	7196.9
650.991	6988.01
651.183	7215.34
651.376	7110.89
651.568	6887.66
651.761	6781.17
651.954	6897.9
652.146	6801.65
652.339	6895.85
652.531	6695.15
652.724	6865.13
652.916	6584.56
653.109	6734.06
653.301	6582.51
653.494	6719.73
653.686	6682.86
653.879	6506.74
654.071	6795.5
654.263	6361.33
654.456	6430.96
654.648	6682.86
654.84	6361.33
655.033	6361.33
655.225	6322.42
655.417	6228.21
655.61	6140.15
655.802	6123.77
655.994	6172.92
656.186	6136.06
656.379	6041.85
656.571	6035.71
656.763	6023.42
656.955	5941.5
657.148	5955.83
657.34	5906.68
657.532	5902.59
657.724	5949.69
657.916	5822.72
658.108	5798.14
658.3	5918.97
658.492	5845.24
658.684	5710.08
658.876	5722.37
659.068	5673.21
659.26	5734.65
659.452	5628.16
659.644	5619.97
659.836	5439.75
660.028	5558.53
660.22	5351.68
660.412	5480.71
660.604	5552.38
660.796	5425.41
660.988	5363.97
661.18	5456.13
661.372	5282.05
661.563	5288.2
661.755	5202.18
661.947	5398.79
662.139	5191.94
662.331	5132.55
662.522	5107.98
662.714	5136.65
662.906	5046.54
663.097	5255.43
663.289	5103.88
663.481	5046.54
663.673	5171.46
663.864	4790.54
664.056	5034.25
664.247	5009.67
664.439	4903.18
664.631	4870.41
664.822	4841.74
665.014	4933.9
665.205	4804.88
665.397	4753.68
665.588	4638.99
665.78	4710.67
665.971	4634.89
666.163	4751.63
666.354	4694.29
666.546	4593.94
666.737	4469.01
666.929	4768.01
667.12	4542.74
667.311	4602.13
667.503	4524.3
667.694	4448.53
667.885	4399.38
668.077	4540.69
668.268	4428.05
668.459	4430.1
668.651	4417.81
668.842	4360.47
669.033	4309.27
669.224	4296.98
669.416	4395.28
669.607	4247.83
669.798	4145.43
669.989	4301.08
670.18	4258.07
670.371	4243.73
670.563	4223.25
670.754	4161.81
670.945	4131.09
671.136	4139.29
671.327	4112.66
671.518	4243.73
671.709	4149.53
671.9	4043.03
672.091	4215.06
672.282	4086.04
672.473	3881.24
672.664	3909.91
672.855	4049.18
673.046	4086.04
673.237	4102.42
673.428	4094.23
673.619	3834.14
673.809	3881.24
674	4018.46
674.191	3928.35
674.382	3821.85
674.573	3920.15
674.764	3946.78
674.954	3959.06
675.145	3881.24
675.336	3686.69
675.527	3907.87
675.717	3766.56
675.908	3807.52
676.099	3662.11
676.289	3588.38
676.48	3655.97
676.671	3655.97
676.861	3690.78
677.052	3762.46
677.243	3631.39
677.433	3627.29
677.624	3604.77
677.814	3627.29
678.005	3678.49
678.195	3508.51
678.386	3496.22
678.576	3684.64
678.767	3615.01
678.957	3514.66
679.148	3586.33
679.338	3473.7
679.529	3516.7
679.719	3604.77
679.909	3402.02
680.1	3391.78
680.29	3498.27
680.481	3555.62
680.671	3432.74
680.861	3479.84
681.052	3383.59
681.242	3383.59
681.432	3543.33
681.622	3369.25
681.813	3418.4
682.003	3285.28
682.193	3455.26
682.383	3332.39
682.573	3451.17
682.764	3371.3
682.954	3328.29
683.144	3371.3
683.334	3408.16
683.524	3283.24
683.714	3328.29
683.904	3240.23
684.094	3326.24
684.284	3270.95
684.474	3373.35
684.664	3238.18
684.854	3326.24
685.044	3303.71
685.234	3227.94
685.424	3426.59
685.614	3184.93
685.804	3148.07
685.994	3244.32
686.184	3242.28
686.374	3121.45
686.564	3219.75
686.753	3223.84
686.943	3113.25
687.133	3025.19
687.323	3189.03
687.513	2982.18
687.702	3084.58
687.892	3199.27
688.082	3049.77
688.272	3092.77
688.461	3006.76
688.651	3004.71
688.841	2986.28
689.03	2947.37
689.22	3025.19
689.41	3053.86
689.599	3008.81
689.789	3060.01
689.979	2877.74
690.168	2869.55
690.358	2918.7
690.547	2867.5
690.737	2963.75
690.926	2902.31
691.116	2789.67
691.305	2838.83
691.495	2851.11
691.684	2824.49
691.874	2703.66
692.063	2746.67
692.252	2742.57
692.442	2818.35
692.631	2734.38
692.82	2707.76
693.01	2634.03
693.199	2603.31
693.388	2763.05
693.578	2693.42
693.767	2834.73
693.956	2619.69
694.146	2662.7
694.335	2619.69
694.524	2754.86
694.713	2674.99
694.902	2642.22
695.092	2765.1
695.281	2603.31
695.47	2648.36
695.659	2593.07
695.848	2558.25
696.037	2636.08
696.226	2595.12
696.415	2623.79
696.604	2609.45
696.793	2548.01
696.982	2681.13
697.171	2683.18
697.36	2474.29
697.549	2517.29
697.738	2429.23
697.927	2535.73
698.116	2515.25
698.305	2425.14
698.494	2619.69
698.683	2468.14
698.872	2517.29
699.061	2576.69
699.25	2595.12
699.438	2578.73
699.627	2519.34
699.816	2537.77
700.005	2568.49
700.193	2562.35
700.382	2459.95
700.571	2539.82
700.76	2462
700.948	2566.45
701.137	2525.49
701.326	2486.58
701.514	2500.91
701.703	2509.1
701.892	2423.09
702.08	2564.4
702.269	2476.34
702.457	2404.66
702.646	2548.01
702.834	2609.45
703.023	2462
703.212	2433.33
703.4	2363.7
703.589	2345.27
703.777	2527.53
703.965	2418.99
704.154	2519.34
704.342	2380.08
704.531	2531.63
704.719	2519.34
704.907	2472.24
705.096	2332.98
705.284	2455.86
705.472	2339.12
705.661	2416.94
705.849	2490.67
706.037	2388.27
706.226	2408.75
706.414	2433.33
706.602	2392.37
706.79	2472.24
706.979	2457.9
707.167	2433.33
707.355	2414.9
707.543	2472.24
707.731	2418.99
707.919	2378.03
708.107	2449.71
708.296	2480.43
708.484	2361.65
708.672	2468.14
708.86	2400.56
709.048	2365.75
709.236	2353.46
709.424	2537.77
709.612	2451.76
709.8	2355.51
709.988	2361.65
710.176	2287.92
710.364	2380.08
710.551	2363.7
710.739	2412.85
710.927	2371.89
711.115	2398.51
711.303	2312.5
711.491	2242.87
711.679	2298.16
711.866	2375.99
712.054	2402.61
712.242	2441.52
712.43	2466.1
712.617	2451.76
712.805	2330.93
712.993	2298.16
713.181	2363.7
713.368	2304.31
713.556	2298.16
713.744	2414.9
713.931	2367.79
714.119	2302.26
714.306	2464.05
714.494	2347.31
714.682	2257.2
714.869	2302.26
715.057	2464.05
715.244	2322.74
715.432	2369.84
715.619	2361.65
715.807	2324.79
715.994	2418.99
716.182	2337.07
716.369	2292.02
716.556	2212.15
716.744	2240.82
716.931	2289.97
717.119	2462
717.306	2390.32
717.493	2216.24
717.681	2316.59
717.868	2402.61
718.055	2330.93
718.242	2300.21
718.43	2355.51
718.617	2359.6
718.804	2314.55
718.991	2267.44
719.179	2330.93
719.366	2322.74
719.553	2400.56
719.74	2289.97
719.927	2324.79
720.114	2281.78
720.301	2283.83
720.488	2230.58
720.676	2373.94
720.863	2365.75
721.05	2322.74
721.237	2306.35
721.424	2259.25
721.611	2300.21
721.798	2242.87
721.985	2220.34
722.172	2226.48
722.358	2212.15
722.545	2136.37
722.732	2212.15
722.919	2339.12
723.106	2220.34
723.293	2273.59
723.48	2271.54
723.667	2306.35
723.853	2337.07
724.04	2339.12
724.227	2296.11
724.414	2265.39
724.6	2249.01
724.787	2283.83
724.974	2330.93
725.161	2310.45
725.347	2238.77
725.534	2183.48
725.72	2185.52
725.907	2257.2
726.094	2318.64
726.28	2201.91
726.467	2363.7
726.653	2261.3
726.84	2330.93
727.027	2283.83
727.213	2257.2
727.4	2318.64
727.586	2163
727.773	2183.48
727.959	2238.77
728.145	2400.56
728.332	2206
728.518	2382.13
728.705	2240.82
728.891	2355.51
729.077	2322.74
729.264	2222.39
729.45	2234.68
729.636	2326.83
729.823	2226.48
730.009	2230.58
730.195	2271.54
730.382	2328.88
730.568	2394.42
730.754	2187.57
730.94	2363.7
731.126	2300.21
731.313	2263.35
731.499	2285.87
731.685	2246.96
731.871	2316.59
732.057	2306.35
732.243	2265.39
732.429	2367.79
732.615	2246.96
732.801	2115.89
732.987	2281.78
733.173	2189.62
733.359	2208.05
733.545	2261.3
733.731	2109.75
733.917	2228.53
734.103	2142.52
734.289	2398.51
734.475	2292.02
734.661	2283.83
734.847	2236.72
735.033	2203.96
735.219	2173.24
735.404	2208.05
735.59	2210.1
735.776	2156.85
735.962	2113.85
736.148	2134.32
736.333	2253.11
736.519	2259.25
736.705	2244.92
736.89	2244.92
737.076	2169.14
737.262	2228.53
737.447	2246.96
737.633	2173.24
737.819	2128.18
738.004	2117.94
738.19	2093.37
738.375	2169.14
738.561	2206
738.747	2185.52
738.932	2197.81
739.118	2117.94
739.303	2236.72
739.489	2203.96
739.674	2085.17
739.859	2191.67
740.045	2099.51
740.23	2165.04
740.416	2115.89
740.601	2074.93
740.786	1993.01
740.972	2199.86
741.157	2144.56
741.342	2136.37
741.528	2046.26
741.713	2036.02
741.898	2048.31
742.084	2031.93
742.269	1997.11
742.454	1962.3
742.639	2025.78
742.824	2117.94
743.01	1958.2
743.195	1958.2
743.38	2023.73
743.565	1964.34
743.75	1964.34
743.935	2027.83
744.12	1950.01
744.305	1886.52
744.49	1904.95
744.675	1943.86
744.86	1947.96
745.045	1925.43
745.23	1921.34
745.415	1861.94
745.6	1988.92
745.785	1855.8
745.97	1956.15
746.155	1806.65
746.34	1911.1
746.525	1923.38
746.71	1976.63
746.895	1888.57
747.079	1788.22
747.264	1874.23
747.449	1806.65
747.634	1868.09
747.819	1786.17
748.003	1728.83
748.188	1749.31
748.373	1743.16
748.557	1753.4
748.742	1829.18
748.927	1866.04
749.111	1737.02
749.296	1739.07
749.481	1685.82
749.665	1708.35
749.85	1677.63
750.034	1749.31
750.219	1620.28
750.404	1673.53
750.588	1679.68
750.773	1612.09
750.957	1651
751.141	1591.61
751.326	1661.24
751.51	1573.18
751.695	1601.85
751.879	1579.33
752.064	1528.13
752.248	1483.07
752.432	1569.09
752.617	1460.54
752.801	1530.17
752.985	1474.88
753.17	1478.97
753.354	1519.93
753.538	1608
753.722	1511.74
753.907	1550.65
754.091	1421.63
754.275	1462.59
754.459	1464.64
754.643	1456.45
754.828	1429.82
755.012	1388.86
755.196	1386.82
755.38	1458.5
755.564	1356.1
755.748	1337.66
755.932	1407.3
756.116	1300.8
756.3	1390.91
756.484	1364.29
756.668	1325.38
756.852	1274.18
757.036	1345.86
757.22	1253.7
757.404	1237.31
757.588	1167.68
757.772	1294.66
757.956	1333.57
758.14	1366.34
758.323	1147.2
758.507	1233.22
758.691	1161.54
758.875	1317.19
759.059	1349.95
759.242	1257.79
759.426	1202.5
759.61	1184.07
759.794	1233.22
759.977	1155.4
760.161	1298.75
760.345	1165.64
760.528	1069.38
760.712	1108.29
760.895	1122.63
761.079	1186.12
761.263	1110.34
761.446	1184.07
761.63	1139.01
761.813	1077.57
761.997	1009.99
762.18	1186.12
762.364	1061.19
762.547	1065.29
762.731	1106.24
762.914	1143.11
763.098	1089.86
763.281	1024.33
763.464	997.7
763.648	1159.49
763.831	1003.85
764.015	1053
764.198	1059.14
764.381	981.32
764.564	1022.28
764.748	991.56
764.931	995.65
765.114	1036.61
765.297	1065.29
765.481	1001.8
765.664	940.36
765.847	1007.94
766.03	1048.9
766.213	1059.14
766.397	954.69
766.58	1012.04
766.763	1085.76
766.946	1012.04
767.129	966.98
767.312	952.65
767.495	940.36
767.678	938.31
767.861	915.78
768.044	1030.47
768.227	940.36
768.41	899.4
768.593	928.07
768.776	942.41
768.959	926.02
769.142	856.39
769.324	907.59
769.507	954.69
769.69	985.41
769.873	928.07
770.056	985.41
770.239	889.16
770.421	868.68
770.604	831.82
770.787	872.78
770.97	938.31
771.152	868.68
771.335	833.86
771.518	786.76
771.7	858.44
771.883	860.49
772.066	919.88
772.248	864.58
772.431	868.68
772.613	840.01
772.796	833.86
772.978	766.28
773.161	803.15
773.343	809.29
773.526	727.37
773.708	809.29
773.891	774.47
774.073	885.06
774.256	751.95
774.438	837.96
774.621	764.23
774.803	846.15
774.985	772.43
775.168	782.67
775.35	807.24
775.532	768.33
775.715	694.6
775.897	815.43
776.079	823.62
776.261	727.37
776.444	708.94
776.626	764.23
776.808	676.17
776.99	700.75
777.173	717.13
777.355	727.37
777.537	764.23
777.719	782.67
777.901	647.5
778.083	747.85
778.265	684.36
778.447	684.36
778.629	627.02
778.811	620.88
778.993	672.08
779.175	676.17
779.357	610.64
779.539	627.02
779.721	698.7
779.903	653.64
780.085	549.2
780.267	608.59
780.449	538.96
780.631	708.94
780.812	586.06
780.994	663.88
781.176	530.77
781.358	596.3
781.54	514.38
781.721	553.29
781.903	645.45
782.085	553.29
782.267	598.35
782.448	526.67
782.63	557.39
782.812	637.26
782.993	575.82
783.175	569.68
783.357	571.72
783.538	586.06
783.72	541.01
783.901	516.43
784.083	487.76
784.264	506.19
784.446	522.57
784.627	457.04
784.809	491.85
784.99	520.53
785.172	461.13
785.353	471.37
785.535	518.48
785.716	471.37
785.897	446.8
786.079	430.41
786.26	516.43
786.441	397.65
786.623	430.41
786.804	483.66
786.985	375.12
787.167	475.47
787.348	430.41
787.529	385.36
787.71	454.99
787.891	442.7
788.073	504.14
788.254	387.41
788.435	454.99
788.616	375.12
788.797	395.6
788.978	405.84
789.159	422.22
789.34	438.61
789.522	481.61
789.703	409.94
789.884	428.37
790.065	414.03
790.246	448.85
790.427	387.41
790.607	401.74
790.788	450.89
790.969	375.12
791.15	467.28
791.331	321.87
791.512	342.35
791.693	352.59
791.874	280.91
792.054	432.46
792.235	379.22
792.416	401.74
792.597	403.79
792.778	315.73
792.958	350.54
793.139	397.65
793.32	358.74
793.5	446.8
793.681	407.89
793.862	340.3
794.042	422.22
794.223	362.83
794.404	385.36
794.584	381.26
794.765	299.34
794.945	311.63
795.126	317.78
795.306	291.15
795.487	348.5
795.667	250.19
795.848	246.1
796.028	340.3
796.209	381.26
796.389	291.15
796.57	289.1
796.75	303.44
796.93	278.87
797.111	285.01
797.291	401.74
797.471	340.3
797.652	403.79
797.832	244.05
798.012	295.25
798.192	198.99
798.373	309.58
798.553	323.92
798.733	229.71
798.913	246.1
799.093	252.24
799.274	205.14
799.454	274.77
799.634	262.48
799.814	278.87
799.994	307.54
800.174	291.15
800.354	231.76
800.534	231.76
800.714	342.35
800.894	278.87
801.074	213.33
801.254	297.3
801.434	246.1
801.614	282.96
801.794	203.09
801.974	618.83
802.154	229.71
802.334	227.67
802.514	219.47
802.693	231.76
802.873	203.09
803.053	280.91
803.233	242
803.413	231.76
803.592	203.09
803.772	242
803.952	297.3
804.131	256.34
804.311	180.56
804.491	270.67
804.67	190.8
804.85	217.43
805.03	248.15
805.209	213.33
805.389	196.95
805.568	248.15
805.748	278.87
805.928	248.15
806.107	225.62
806.287	231.76
806.466	252.24
806.646	207.19
806.825	170.32
807.004	248.15
807.184	194.9
807.363	268.63
807.543	270.67
807.722	231.76
807.901	194.9
808.081	242
808.26	133.46
808.439	170.32
808.619	178.51
808.798	182.61
808.977	217.43
809.156	155.99
809.336	196.95
809.515	229.71
809.694	180.56
809.873	162.13
810.052	336.21
810.231	205.14
810.411	192.85
810.59	223.57
810.769	213.33
810.948	221.52
811.127	198.99
811.306	203.09
811.485	190.8
811.664	151.89
811.843	219.47
812.022	256.34
812.201	155.99
812.38	225.62
812.559	129.36
812.737	98.64
812.916	141.65
813.095	117.08
813.274	153.94
813.453	143.7
813.632	295.25
813.811	205.14
813.989	117.08
814.168	172.37
814.347	172.37
814.526	141.65
814.704	164.18
814.883	211.28
815.062	155.99
815.24	174.42
815.419	149.84
815.598	131.41
815.776	145.75
815.955	170.32
816.133	164.18
816.312	198.99
816.49	147.8
816.669	143.7
816.847	172.37
817.026	219.47
817.204	125.27
817.383	248.15
817.561	242
817.74	178.51
817.918	164.18
818.097	174.42
818.275	151.89
818.453	174.42
818.632	112.98
818.81	166.23
818.988	74.07
819.167	139.6
819.345	143.7
819.523	102.74
819.701	143.7
819.879	115.03
820.058	192.85
820.236	125.27
820.414	90.45
820.592	90.45
820.77	82.26
820.948	98.64
821.127	115.03
821.305	135.51
821.483	110.93
821.661	153.94
821.839	92.5
822.017	137.56
822.195	149.84
822.373	172.37
822.551	110.93
822.729	92.5
822.907	110.93
823.085	153.94
823.262	119.12
823.44	153.94
823.618	121.17
823.796	123.22
823.974	155.99
824.152	160.08
824.329	162.13
824.507	106.84
824.685	151.89
824.863	53.59
825.04	47.44
825.218	180.56
825.396	139.6
825.574	123.22
825.751	162.13
825.929	117.08
826.107	123.22
826.284	117.08
826.462	198.99
826.639	80.21
826.817	59.73
826.994	106.84
827.172	43.35
827.349	186.71
827.527	112.98
827.704	119.12
827.882	29.01
828.059	106.84
828.237	133.46
828.414	119.12
828.591	80.21
828.769	155.99
828.946	131.41
829.124	104.79
829.301	112.98
829.478	125.27
829.655	180.56
829.833	127.32
830.01	45.4
830.187	143.7
830.364	98.64
830.542	90.45
830.719	35.16
830.896	182.61
831.073	82.26
831.25	94.55
831.427	127.32
831.604	24.92
831.782	69.97
831.959	49.49
832.136	86.36
832.313	155.99
832.49	153.94
832.667	102.74
832.844	119.12
833.021	129.36
833.198	131.41
833.374	102.74
833.551	102.74
833.728	63.83
833.905	151.89
834.082	67.92
834.259	139.6
834.436	90.45
834.612	69.97
834.789	102.74
834.966	41.3
835.143	102.74
835.319	82.26
835.496	137.56
835.673	69.97
835.85	98.64
836.026	139.6
836.203	72.02
836.38	12.63
836.556	94.55
836.733	155.99
836.909	137.56
837.086	65.88
837.262	74.07
837.439	80.21
837.616	86.36
837.792	102.74
837.968	88.4
838.145	37.2
838.321	67.92
838.498	82.26
838.674	110.93
838.851	133.46
839.027	84.31
839.203	57.68
839.38	127.32
839.556	82.26
839.732	155.99
839.909	22.87
840.085	74.07
840.261	100.69
840.437	22.87
840.614	65.88
840.79	94.55
840.966	76.12
841.142	123.22
841.318	76.12
841.494	57.68
841.671	55.64
841.847	61.78
842.023	26.96
842.199	127.32
842.375	88.4
842.551	29.01
842.727	26.96
842.903	115.03
843.079	37.2
843.255	139.6
843.431	49.49
843.607	65.88
843.783	-20.14
843.959	86.36
844.134	29.01
844.31	72.02
844.486	84.31
844.662	65.88
844.838	57.68
845.013	78.16
845.189	104.79
845.365	61.78
845.541	35.16
845.716	80.21
845.892	121.17
846.068	43.35
846.244	-7.85
846.419	61.78
846.595	100.69
846.77	10.58
846.946	141.65
847.122	31.06
847.297	10.58
847.473	100.69
847.648	43.35
847.824	37.2
847.999	14.68
848.175	55.64
848.35	65.88
848.526	41.3
848.701	59.73
848.876	37.2
849.052	55.64
849.227	31.06
849.403	57.68
849.578	129.36
849.753	86.36
849.929	90.45
850.104	18.77
850.279	20.82
850.454	8.53
850.63	20.82
850.805	135.51
850.98	-26.28
851.155	-13.99
851.33	82.26
851.505	84.31
851.681	49.49
851.856	55.64
852.031	6.49
852.206	53.59
852.381	51.54
852.556	43.35
852.731	55.64
852.906	59.73
853.081	145.75
853.256	-32.43
853.431	94.55
853.606	-20.14
853.781	6.49
853.956	2.39
854.131	16.73
854.305	96.6
854.48	72.02
854.655	53.59
854.83	14.68
855.005	90.45
855.18	49.49
855.354	20.82
855.529	26.96
855.704	14.68
855.879	84.31
856.053	26.96
856.228	69.97
856.403	55.64
856.577	8.53
856.752	-40.62
856.926	96.6
857.101	26.96
857.276	14.68
857.45	84.31
857.625	-5.8
857.799	55.64
857.974	-5.8
858.148	16.73
858.323	74.07
858.497	45.4
858.672	74.07
858.846	8.53
859.02	131.41
859.195	10.58
859.369	33.11
859.543	-7.85
859.718	67.92
859.892	-9.9
860.066	4.44
860.241	-20.14
860.415	-42.67
860.589	18.77
860.763	45.4
860.938	33.11
861.112	53.59
861.286	49.49
861.46	67.92
861.634	24.92
861.808	16.73
861.982	35.16
862.157	22.87
862.331	45.4
862.505	57.68
862.679	57.68
862.853	51.54
863.027	-11.95
863.201	59.73
863.375	-18.09
863.549	20.82
863.722	61.78
863.896	-5.8
864.07	-16.04
864.244	98.64
864.418	84.31
864.592	-11.95
864.766	39.25
864.939	18.77
865.113	39.25
865.287	135.51
865.461	18.77
865.634	22.87
865.808	55.64
865.982	57.68
866.156	-61.1
866.329	8.53
866.503	-7.85
866.676	39.25
866.85	-18.09
867.024	31.06
867.197	39.25
867.371	29.01
867.544	-52.91
867.718	-26.28
867.891	65.88
868.065	72.02
868.238	65.88
868.412	98.64
868.585	41.3
868.759	31.06
868.932	-11.95
869.105	59.73
869.279	131.41
869.452	12.63
869.625	82.26
869.799	10.58
869.972	43.35
870.145	-5.8
870.319	86.36
870.492	-28.33
870.665	18.77
870.838	6.49
871.011	88.4
871.185	55.64
871.358	12.63
871.531	22.87
871.704	57.68
871.877	63.83
872.05	-57
872.223	-9.9
872.396	33.11
872.569	74.07
872.742	45.4
872.915	6.49
873.088	-104.11
873.261	29.01
873.434	96.6
873.607	-30.38
873.78	69.97
873.953	12.63
874.126	76.12
874.299	-42.67
874.471	53.59
874.644	18.77
874.817	31.06
874.99	102.74
875.163	-40.62
875.335	41.3
875.508	90.45
875.681	110.93
875.853	-18.09
876.026	74.07
876.199	65.88
876.371	49.49
876.544	24.92
876.717	26.96
876.889	12.63
877.062	31.06
877.234	104.79
877.407	63.83
877.579	26.96
877.752	-22.19
877.924	100.69
878.097	106.84
878.269	47.44
878.442	37.2
878.614	59.73
878.786	18.77
878.959	59.73
879.131	41.3
879.303	53.59
879.476	2.39
879.648	-30.38
879.82	2.39
879.993	45.4
880.165	18.77
880.337	-11.95
880.509	10.58
880.681	-83.63
880.854	6.49
881.026	18.77
881.198	49.49
881.37	-9.9
881.542	45.4
881.714	139.6
881.886	-16.04
882.058	57.68
882.23	37.2
882.402	8.53
882.574	20.82
882.746	59.73
882.918	67.92
883.09	121.17
883.262	37.2
883.434	41.3
883.606	67.92
883.778	-9.9
883.95	22.87
884.122	39.25
884.293	45.4
884.465	57.68
884.637	37.2
884.809	29.01
884.98	123.22
885.152	14.68
885.324	10.58
885.496	74.07
885.667	69.97
885.839	59.73
886.011	143.7
886.182	41.3
886.354	33.11
886.525	18.77
886.697	67.92
886.869	-34.47
887.04	22.87
887.212	0.34
887.383	67.92
887.555	74.07
887.726	14.68
887.897	16.73
888.069	47.44
888.24	67.92
888.412	10.58
888.583	31.06
888.754	45.4
888.926	8.53
889.097	2.39
889.268	37.2
889.44	61.78
889.611	8.53
889.782	8.53
889.953	74.07
890.125	-42.67
890.296	-26.28
890.467	33.11
890.638	24.92
890.809	8.53
890.98	24.92
891.151	14.68
891.323	57.68
891.494	-20.14
891.665	12.63
891.836	88.4
892.007	-32.43
892.178	4.44
892.349	45.4
892.52	37.2
892.691	-20.14
892.862	-20.14
893.032	-77.48
893.203	84.31
893.374	39.25
893.545	94.55
893.716	12.63
893.887	22.87
894.057	22.87
894.228	-30.38
894.399	26.96
894.57	-3.75
894.74	-22.19
894.911	59.73
895.082	35.16
895.253	6.49
895.423	67.92
895.594	45.4
895.764	-3.75
895.935	-7.85
896.106	41.3
896.276	49.49
896.447	-61.1
896.617	10.58
896.788	59.73
896.958	49.49
897.129	37.2
897.299	74.07
897.47	6.49
897.64	24.92
897.81	-26.28
897.981	59.73
898.151	49.49
898.322	33.11
898.492	16.73
898.662	-34.47
898.832	18.77
899.003	14.68
899.173	4.44
899.343	-36.52
899.513	-71.34
