Data from USB4F104151__27__11-05-08-972.txt Node

Date: Wed Mar 12 11:05:08 EDT 2025
User: louis
Spectrometer: USB4F10415
Trigger mode: 4
Integration Time (sec): 2.000000E-2
Scans to average: 1
Electric dark correction enabled: true
Nonlinearity correction enabled: false
Boxcar width: 0
XAxis mode: Wavelengths
Number of Pixels in Spectrum: 3648
>>>>>Begin Spectral Data<<<<<
178.204	-119.81
178.424	-119.81
178.644	-119.81
178.864	-80.89
179.084	-99.33
179.304	15.36
179.524	9.22
179.744	-62.46
179.964	91.13
180.184	-3.07
180.404	-5.12
180.624	29.7
180.844	-78.85
181.064	-1.02
181.283	11.26
181.503	3.07
181.723	-9.22
181.943	-64.51
182.163	39.94
182.383	3.07
182.602	105.47
182.822	46.08
183.042	76.8
183.262	35.84
183.482	-21.5
183.701	60.42
183.921	-11.26
184.141	13.31
184.361	11.26
184.58	31.74
184.8	3.07
185.02	60.42
185.239	-13.31
185.459	44.03
185.679	103.42
185.898	3.07
186.118	9.22
186.338	13.31
186.557	25.6
186.777	-58.37
186.997	-21.5
187.216	-1.02
187.436	19.46
187.655	-1.02
187.875	9.22
188.095	19.46
188.314	52.22
188.534	35.84
188.753	19.46
188.973	23.55
189.192	44.03
189.412	76.8
189.631	11.26
189.851	27.65
190.07	-3.07
190.29	46.08
190.509	37.89
190.729	-11.26
190.948	21.5
191.168	132.09
191.387	54.27
191.607	-13.31
191.826	-37.89
192.045	25.6
192.265	-21.5
192.484	-21.5
192.704	13.31
192.923	27.65
193.142	21.5
193.362	66.56
193.581	23.55
193.8	119.81
194.02	21.5
194.239	19.46
194.458	-17.41
194.678	41.98
194.897	27.65
195.116	84.99
195.335	3.07
195.555	21.5
195.774	21.5
195.993	17.41
196.212	50.18
196.432	1.02
196.651	-9.22
196.87	44.03
197.089	56.32
197.308	33.79
197.528	56.32
197.747	37.89
197.966	-35.84
198.185	13.31
198.404	-41.98
198.623	13.31
198.842	58.37
199.062	107.52
199.281	78.85
199.5	-21.5
199.719	56.32
199.938	5.12
200.157	-17.41
200.376	64.51
200.595	29.7
200.814	-17.41
201.033	29.7
201.252	68.61
201.471	25.6
201.69	25.6
201.909	7.17
202.128	-17.41
202.347	13.31
202.566	-21.5
202.785	41.98
203.004	52.22
203.223	31.74
203.442	17.41
203.661	-17.41
203.879	-31.74
204.098	17.41
204.317	-5.12
204.536	37.89
204.755	-46.08
204.974	33.79
205.193	-13.31
205.411	-35.84
205.63	13.31
205.849	13.31
206.068	37.89
206.287	11.26
206.505	9.22
206.724	64.51
206.943	1.02
207.162	-25.6
207.381	101.37
207.599	72.7
207.818	1.02
208.037	64.51
208.255	-27.65
208.474	-3.07
208.693	56.32
208.911	17.41
209.13	-9.22
209.349	15.36
209.567	17.41
209.786	76.8
210.005	-39.94
210.223	-54.27
210.442	-1.02
210.661	-29.7
210.879	31.74
211.098	60.42
211.316	60.42
211.535	72.7
211.753	60.42
211.972	52.22
212.191	35.84
212.409	78.85
212.628	99.33
212.846	25.6
213.065	52.22
213.283	162.81
213.502	78.85
213.72	44.03
213.938	19.46
214.157	46.08
214.375	76.8
214.594	31.74
214.812	-7.17
215.031	-23.55
215.249	-60.42
215.467	29.7
215.686	9.22
215.904	60.42
216.122	21.5
216.341	107.52
216.559	37.89
216.778	31.74
216.996	-9.22
217.214	-76.8
217.432	33.79
217.651	-1.02
217.869	7.17
218.087	27.65
218.306	25.6
218.524	68.61
218.742	21.5
218.96	23.55
219.179	-11.26
219.397	-13.31
219.615	52.22
219.833	-7.17
220.051	66.56
220.27	101.37
220.488	70.65
220.706	-7.17
220.924	-15.36
221.142	56.32
221.36	37.89
221.578	-27.65
221.796	39.94
222.015	21.5
222.233	87.04
222.451	25.6
222.669	-15.36
222.887	17.41
223.105	-39.94
223.323	58.37
223.541	-7.17
223.759	29.7
223.977	35.84
224.195	39.94
224.413	80.89
224.631	3.07
224.849	-64.51
225.067	68.61
225.285	27.65
225.503	29.7
225.721	-33.79
225.939	23.55
226.157	68.61
226.375	31.74
226.592	-17.41
226.81	-1.02
227.028	105.47
227.246	93.18
227.464	72.7
227.682	44.03
227.9	52.22
228.117	15.36
228.335	29.7
228.553	72.7
228.771	9.22
228.989	64.51
229.206	44.03
229.424	29.7
229.642	-19.46
229.86	-19.46
230.077	91.13
230.295	48.13
230.513	80.89
230.731	-23.55
230.948	7.17
231.166	87.04
231.384	13.31
231.601	7.17
231.819	25.6
232.037	9.22
232.254	9.22
232.472	21.5
232.689	3.07
232.907	80.89
233.125	44.03
233.342	-9.22
233.56	-1.02
233.777	97.28
233.995	44.03
234.213	41.98
234.43	23.55
234.648	11.26
234.865	25.6
235.083	84.99
235.3	70.65
235.518	56.32
235.735	80.89
235.953	41.98
236.17	115.71
236.388	-23.55
236.605	19.46
236.822	74.75
237.04	60.42
237.257	27.65
237.475	-64.51
237.692	17.41
237.909	-5.12
238.127	-7.17
238.344	17.41
238.562	17.41
238.779	46.08
238.996	56.32
239.214	46.08
239.431	105.47
239.648	-27.65
239.865	17.41
240.083	19.46
240.3	1.02
240.517	-46.08
240.735	66.56
240.952	-13.31
241.169	84.99
241.386	17.41
241.603	-9.22
241.821	-25.6
242.038	78.85
242.255	84.99
242.472	-15.36
242.689	60.42
242.907	-17.41
243.124	11.26
243.341	23.55
243.558	-7.17
243.775	41.98
243.992	-70.65
244.209	19.46
244.426	95.23
244.643	119.81
244.86	23.55
245.078	74.75
245.295	11.26
245.512	70.65
245.729	48.13
245.946	33.79
246.163	-60.42
246.38	64.51
246.597	39.94
246.814	37.89
247.031	56.32
247.248	60.42
247.464	-15.36
247.681	27.65
247.898	15.36
248.115	58.37
248.332	46.08
248.549	-17.41
248.766	23.55
248.983	56.32
249.2	29.7
249.417	31.74
249.633	29.7
249.85	17.41
250.067	25.6
250.284	78.85
250.501	-23.55
250.717	68.61
250.934	-35.84
251.151	-48.13
251.368	-7.17
251.585	1.02
251.801	-3.07
252.018	11.26
252.235	60.42
252.451	44.03
252.668	56.32
252.885	15.36
253.102	9.22
253.318	31.74
253.535	74.75
253.752	-13.31
253.968	-54.27
254.185	-17.41
254.401	-11.26
254.618	-13.31
254.835	128
255.051	76.8
255.268	-15.36
255.484	-3.07
255.701	-9.22
255.917	13.31
256.134	13.31
256.351	37.89
256.567	39.94
256.784	3.07
257	-15.36
257.217	78.85
257.433	23.55
257.65	35.84
257.866	99.33
258.082	117.76
258.299	66.56
258.515	-29.7
258.732	-1.02
258.948	-5.12
259.165	66.56
259.381	9.22
259.597	17.41
259.814	-1.02
260.03	-5.12
260.246	-17.41
260.463	17.41
260.679	19.46
260.895	-21.5
261.112	5.12
261.328	11.26
261.544	39.94
261.761	97.28
261.977	31.74
262.193	-11.26
262.409	29.7
262.626	13.31
262.842	39.94
263.058	3.07
263.274	-3.07
263.49	35.84
263.707	27.65
263.923	3.07
264.139	46.08
264.355	-11.26
264.571	19.46
264.787	5.12
265.004	25.6
265.22	-3.07
265.436	54.27
265.652	17.41
265.868	9.22
266.084	-52.22
266.3	74.75
266.516	27.65
266.732	13.31
266.948	44.03
267.164	5.12
267.38	-19.46
267.596	54.27
267.812	33.79
268.028	31.74
268.244	-15.36
268.46	76.8
268.676	5.12
268.892	46.08
269.108	13.31
269.324	-27.65
269.54	70.65
269.756	13.31
269.972	-80.89
270.188	-1.02
270.403	-35.84
270.619	-64.51
270.835	11.26
271.051	64.51
271.267	-27.65
271.483	78.85
271.698	78.85
271.914	44.03
272.13	21.5
272.346	-23.55
272.562	-33.79
272.777	76.8
272.993	39.94
273.209	101.37
273.425	62.46
273.64	87.04
273.856	97.28
274.072	-9.22
274.287	-3.07
274.503	25.6
274.719	-9.22
274.934	44.03
275.15	93.18
275.366	48.13
275.581	13.31
275.797	-1.02
276.012	-3.07
276.228	29.7
276.444	23.55
276.659	44.03
276.875	19.46
277.09	48.13
277.306	9.22
277.521	11.26
277.737	-19.46
277.952	66.56
278.168	5.12
278.383	33.79
278.599	-9.22
278.814	-23.55
279.03	97.28
279.245	66.56
279.461	7.17
279.676	105.47
279.892	5.12
280.107	21.5
280.322	15.36
280.538	-107.52
280.753	9.22
280.969	9.22
281.184	74.75
281.399	44.03
281.615	-58.37
281.83	56.32
282.045	23.55
282.26	-21.5
282.476	-60.42
282.691	33.79
282.906	17.41
283.122	23.55
283.337	58.37
283.552	64.51
283.767	-80.89
283.983	31.74
284.198	25.6
284.413	27.65
284.628	74.75
284.843	1.02
285.058	54.27
285.274	93.18
285.489	31.74
285.704	17.41
285.919	-46.08
286.134	-46.08
286.349	101.37
286.564	-5.12
286.779	48.13
286.995	62.46
287.21	-41.98
287.425	37.89
287.64	27.65
287.855	66.56
288.07	-15.36
288.285	33.79
288.5	70.65
288.715	64.51
288.93	-5.12
289.145	21.5
289.36	-5.12
289.575	89.09
289.79	-74.75
290.004	41.98
290.219	54.27
290.434	-1.02
290.649	-7.17
290.864	21.5
291.079	68.61
291.294	52.22
291.509	44.03
291.724	93.18
291.938	25.6
292.153	-9.22
292.368	11.26
292.583	121.85
292.798	7.17
293.012	39.94
293.227	48.13
293.442	25.6
293.657	46.08
293.871	-39.94
294.086	7.17
294.301	-3.07
294.516	31.74
294.73	46.08
294.945	-56.32
295.16	3.07
295.374	39.94
295.589	25.6
295.804	76.8
296.018	-15.36
296.233	82.94
296.447	33.79
296.662	44.03
296.877	70.65
297.091	68.61
297.306	-13.31
297.52	-13.31
297.735	84.99
297.949	-21.5
298.164	44.03
298.378	-46.08
298.593	-3.07
298.807	44.03
299.022	87.04
299.236	29.7
299.451	52.22
299.665	-3.07
299.88	-23.55
300.094	-23.55
300.309	50.18
300.523	-3.07
300.737	-1.02
300.952	87.04
301.166	48.13
301.381	-19.46
301.595	54.27
301.809	37.89
302.024	119.81
302.238	-11.26
302.452	-5.12
302.667	11.26
302.881	-7.17
303.095	44.03
303.309	101.37
303.524	-9.22
303.738	-29.7
303.952	-1.02
304.166	3.07
304.381	-31.74
304.595	29.7
304.809	44.03
305.023	68.61
305.237	9.22
305.452	35.84
305.666	23.55
305.88	25.6
306.094	21.5
306.308	33.79
306.522	56.32
306.736	41.98
306.95	35.84
307.164	46.08
307.379	64.51
307.593	50.18
307.807	52.22
308.021	3.07
308.235	76.8
308.449	78.85
308.663	35.84
308.877	97.28
309.091	-11.26
309.305	35.84
309.519	-3.07
309.733	27.65
309.947	54.27
310.161	7.17
310.374	-37.89
310.588	52.22
310.802	17.41
311.016	-25.6
311.23	39.94
311.444	74.75
311.658	1.02
311.872	23.55
312.085	64.51
312.299	54.27
312.513	37.89
312.727	46.08
312.941	7.17
313.154	15.36
313.368	-41.98
313.582	37.89
313.796	58.37
314.009	-11.26
314.223	7.17
314.437	82.94
314.651	41.98
314.864	66.56
315.078	58.37
315.292	31.74
315.505	1.02
315.719	35.84
315.933	82.94
316.146	80.89
316.36	3.07
316.573	31.74
316.787	66.56
317.001	39.94
317.214	-29.7
317.428	74.75
317.641	-19.46
317.855	21.5
318.068	50.18
318.282	9.22
318.495	134.14
318.709	93.18
318.922	35.84
319.136	68.61
319.349	87.04
319.563	-29.7
319.776	21.5
319.99	27.65
320.203	3.07
320.417	-1.02
320.63	44.03
320.843	56.32
321.057	31.74
321.27	78.85
321.483	-3.07
321.697	44.03
321.91	41.98
322.124	7.17
322.337	56.32
322.55	-3.07
322.763	-19.46
322.977	37.89
323.19	9.22
323.403	41.98
323.617	50.18
323.83	37.89
324.043	48.13
324.256	19.46
324.469	35.84
324.683	17.41
324.896	87.04
325.109	39.94
325.322	-17.41
325.535	44.03
325.748	17.41
325.962	31.74
326.175	25.6
326.388	29.7
326.601	23.55
326.814	-1.02
327.027	72.7
327.24	99.33
327.453	-17.41
327.666	29.7
327.879	58.37
328.092	89.09
328.305	-29.7
328.518	35.84
328.731	21.5
328.944	23.55
329.157	-37.89
329.37	15.36
329.583	84.99
329.796	-9.22
330.009	9.22
330.222	56.32
330.435	27.65
330.648	19.46
330.861	-25.6
331.073	27.65
331.286	-7.17
331.499	37.89
331.712	-25.6
331.925	68.61
332.138	23.55
332.35	76.8
332.563	31.74
332.776	48.13
332.989	13.31
333.202	29.7
333.414	82.94
333.627	93.18
333.84	33.79
334.053	9.22
334.265	103.42
334.478	3.07
334.691	17.41
334.903	48.13
335.116	41.98
335.329	93.18
335.541	46.08
335.754	37.89
335.966	44.03
336.179	35.84
336.392	56.32
336.604	44.03
336.817	-19.46
337.029	58.37
337.242	72.7
337.454	-23.55
337.667	-33.79
337.88	44.03
338.092	-82.94
338.305	29.7
338.517	19.46
338.729	21.5
338.942	-1.02
339.154	-1.02
339.367	29.7
339.579	27.65
339.792	50.18
340.004	-33.79
340.217	-17.41
340.429	46.08
340.641	52.22
340.854	93.18
341.066	19.46
341.278	31.74
341.491	35.84
341.703	7.17
341.915	58.37
342.128	107.52
342.34	82.94
342.552	15.36
342.764	48.13
342.977	44.03
343.189	27.65
343.401	1.02
343.613	21.5
343.826	5.12
344.038	50.18
344.25	17.41
344.462	-11.26
344.674	44.03
344.886	52.22
345.099	9.22
345.311	23.55
345.523	31.74
345.735	-70.65
345.947	64.51
346.159	123.9
346.371	37.89
346.583	19.46
346.795	5.12
347.007	27.65
347.219	-1.02
347.431	-41.98
347.643	58.37
347.855	-5.12
348.067	70.65
348.279	-21.5
348.491	48.13
348.703	1.02
348.915	44.03
349.127	89.09
349.339	60.42
349.551	-21.5
349.763	37.89
349.975	48.13
350.187	52.22
350.399	33.79
350.61	17.41
350.822	5.12
351.034	89.09
351.246	31.74
351.458	64.51
351.669	52.22
351.881	54.27
352.093	115.71
352.305	113.66
352.517	93.18
352.728	11.26
352.94	7.17
353.152	60.42
353.363	3.07
353.575	72.7
353.787	56.32
353.999	97.28
354.21	74.75
354.422	-27.65
354.633	-5.12
354.845	66.56
355.057	125.95
355.268	37.89
355.48	29.7
355.692	60.42
355.903	11.26
356.115	-46.08
356.326	-52.22
356.538	97.28
356.749	101.37
356.961	33.79
357.172	58.37
357.384	37.89
357.595	76.8
357.807	37.89
358.018	-11.26
358.23	25.6
358.441	-7.17
358.653	54.27
358.864	48.13
359.075	31.74
359.287	15.36
359.498	62.46
359.709	68.61
359.921	25.6
360.132	72.7
360.344	-3.07
360.555	74.75
360.766	78.85
360.977	41.98
361.189	50.18
361.4	54.27
361.611	3.07
361.823	103.42
362.034	66.56
362.245	27.65
362.456	56.32
362.667	9.22
362.879	1.02
363.09	5.12
363.301	-31.74
363.512	33.79
363.723	-11.26
363.935	-54.27
364.146	70.65
364.357	41.98
364.568	60.42
364.779	13.31
364.99	70.65
365.201	1.02
365.412	84.99
365.623	7.17
365.834	27.65
366.045	27.65
366.256	68.61
366.467	35.84
366.678	35.84
366.889	-9.22
367.1	56.32
367.311	46.08
367.522	54.27
367.733	29.7
367.944	84.99
368.155	-1.02
368.366	21.5
368.577	58.37
368.788	142.33
368.999	46.08
369.209	13.31
369.42	64.51
369.631	64.51
369.842	74.75
370.053	-17.41
370.264	-15.36
370.474	121.85
370.685	37.89
370.896	52.22
371.107	115.71
371.317	80.89
371.528	41.98
371.739	31.74
371.95	39.94
372.16	62.46
372.371	82.94
372.582	54.27
372.792	72.7
373.003	64.51
373.214	76.8
373.424	33.79
373.635	52.22
373.846	128
374.056	31.74
374.267	80.89
374.477	23.55
374.688	-17.41
374.898	41.98
375.109	54.27
375.319	89.09
375.53	35.84
375.74	5.12
375.951	99.33
376.161	113.66
376.372	74.75
376.582	64.51
376.793	46.08
377.003	-1.02
377.214	7.17
377.424	54.27
377.635	60.42
377.845	-17.41
378.055	70.65
378.266	113.66
378.476	97.28
378.686	58.37
378.897	48.13
379.107	-5.12
379.317	82.94
379.528	84.99
379.738	62.46
379.948	64.51
380.158	-19.46
380.369	101.37
380.579	101.37
380.789	84.99
380.999	35.84
381.21	52.22
381.42	78.85
381.63	29.7
381.84	93.18
382.05	39.94
382.261	35.84
382.471	19.46
382.681	64.51
382.891	134.14
383.101	48.13
383.311	103.42
383.521	-21.5
383.731	66.56
383.941	46.08
384.151	-25.6
384.361	82.94
384.571	39.94
384.781	39.94
384.991	41.98
385.201	109.57
385.411	66.56
385.621	15.36
385.831	-9.22
386.041	80.89
386.251	117.76
386.461	109.57
386.671	78.85
386.881	31.74
387.091	39.94
387.301	91.13
387.511	54.27
387.72	99.33
387.93	84.99
388.14	15.36
388.35	74.75
388.56	87.04
388.769	66.56
388.979	50.18
389.189	54.27
389.399	23.55
389.609	39.94
389.818	156.67
390.028	-17.41
390.238	54.27
390.447	41.98
390.657	25.6
390.867	29.7
391.076	52.22
391.286	46.08
391.496	107.52
391.705	9.22
391.915	56.32
392.125	39.94
392.334	58.37
392.544	64.51
392.753	19.46
392.963	23.55
393.172	33.79
393.382	44.03
393.591	136.19
393.801	44.03
394.01	109.57
394.22	9.22
394.429	113.66
394.639	54.27
394.848	76.8
395.058	82.94
395.267	64.51
395.477	148.48
395.686	140.29
395.895	87.04
396.105	121.85
396.314	93.18
396.524	52.22
396.733	58.37
396.942	46.08
397.152	70.65
397.361	113.66
397.57	91.13
397.78	115.71
397.989	95.23
398.198	109.57
398.407	66.56
398.617	91.13
398.826	91.13
399.035	68.61
399.244	80.89
399.453	62.46
399.663	72.7
399.872	80.89
400.081	87.04
400.29	44.03
400.499	99.33
400.708	132.09
400.917	35.84
401.127	70.65
401.336	84.99
401.545	82.94
401.754	156.67
401.963	128
402.172	93.18
402.381	35.84
402.59	140.29
402.799	80.89
403.008	97.28
403.217	113.66
403.426	107.52
403.635	119.81
403.844	113.66
404.053	140.29
404.262	171.01
404.471	189.44
404.68	107.52
404.888	113.66
405.097	160.77
405.306	164.86
405.515	181.25
405.724	80.89
405.933	171.01
406.142	183.29
406.35	158.72
406.559	109.57
406.768	166.91
406.977	218.11
407.185	166.91
407.394	207.87
407.603	183.29
407.812	93.18
408.02	187.39
408.229	236.54
408.438	207.87
408.646	152.57
408.855	197.63
409.064	183.29
409.272	232.44
409.481	250.88
409.69	195.58
409.898	199.68
410.107	304.12
410.315	295.93
410.524	226.3
410.733	336.89
410.941	281.6
411.15	386.04
411.358	269.31
411.567	330.75
411.775	318.46
411.984	359.42
412.192	377.85
412.401	410.62
412.609	418.81
412.818	437.24
413.026	525.3
413.234	545.78
413.443	420.86
413.651	433.15
413.86	521.21
414.068	527.35
414.276	510.97
414.485	533.5
414.693	560.12
414.901	648.18
415.11	611.32
415.318	728.05
415.526	621.56
415.734	607.22
415.943	723.96
416.151	736.24
416.359	744.44
416.567	875.51
416.776	805.88
416.984	842.74
417.192	932.85
417.4	902.13
417.608	936.95
417.817	951.28
418.025	973.81
418.233	1000.43
418.441	1047.54
418.649	1094.64
418.857	1188.85
419.065	1217.52
419.273	1182.7
419.481	1201.13
419.689	1326.06
419.897	1518.57
420.105	1371.12
420.313	1405.93
420.521	1475.56
420.729	1526.76
420.937	1614.82
421.145	1674.21
421.353	1729.51
421.561	1643.49
421.769	1756.13
421.977	1821.67
422.185	1862.63
422.393	1876.96
422.601	2030.56
422.809	1989.6
423.017	2157.54
423.224	2188.25
423.432	2184.16
423.64	2288.61
423.848	2452.44
424.056	2479.07
424.263	2651.1
424.471	2497.5
424.679	2661.34
424.887	2843.6
425.094	2948.05
425.302	2794.45
425.51	3036.11
425.718	3124.18
425.925	3152.85
426.133	3363.79
426.341	3560.39
426.548	3376.08
426.756	3621.83
426.964	3634.12
427.171	3894.21
427.379	3953.6
427.586	3955.65
427.794	4123.59
428.001	4332.48
428.209	4561.85
428.417	4479.93
428.624	4617.15
428.832	4770.74
429.039	4705.21
429.247	4742.07
429.454	5301.17
429.662	5491.63
429.869	5233.58
430.076	5520.3
430.284	5370.8
430.491	5540.78
430.699	5987.24
430.906	6052.77
431.114	6046.63
431.321	6335.39
431.528	6429.6
431.736	6720.41
431.943	7056.28
432.15	6904.73
432.358	6970.26
432.565	7431.05
432.772	7291.79
432.979	7658.38
433.187	7920.52
433.394	7758.73
433.601	8371.07
433.808	8266.63
434.016	8418.18
434.223	8719.23
434.43	9300.85
434.637	9116.53
434.844	9663.34
435.052	9718.64
435.259	9784.17
435.466	9843.56
435.673	9786.22
435.88	10543.97
436.087	11053.91
436.294	10978.14
436.501	10632.03
436.708	11037.53
436.915	11275.09
437.122	12026.7
437.329	11752.27
437.537	12262.21
437.743	12350.28
437.95	12303.17
438.157	12987.19
438.364	13306.68
438.571	13198.13
438.778	13507.38
438.985	14809.89
439.192	14150.44
439.399	14322.47
439.606	14168.87
439.813	15115.03
440.02	15766.29
440.227	15719.18
440.433	15381.27
440.64	15825.68
440.847	15868.69
441.054	16302.86
441.261	17429.24
441.467	17122.04
441.674	17732.34
441.881	18252.52
442.088	18236.14
442.294	17787.63
442.501	18289.38
442.708	18862.82
442.914	19706.58
443.121	20564.68
443.328	19749.59
443.534	21461.69
443.741	20671.17
443.948	20329.16
444.154	21799.6
444.361	21865.14
444.568	21684.92
444.774	22065.84
444.981	22375.08
445.187	22807.2
445.394	23753.37
445.6	23429.79
445.807	25563.77
446.013	24732.29
446.22	24789.64
446.426	26008.18
446.633	26270.32
446.839	27495
447.046	26133.11
447.252	27282.02
447.459	27495
447.665	27476.57
447.871	28514.89
448.078	29573.69
448.284	28371.54
448.491	29104.71
448.697	30388.78
448.903	30497.33
449.11	30880.3
449.316	30392.88
449.522	30497.33
449.728	31341.09
449.935	31967.77
450.141	31838.75
450.347	32133.65
450.553	31549.98
450.76	31935
450.966	32625.17
451.172	32522.77
451.378	33513.98
451.584	32424.47
451.791	33282.56
451.997	32938.51
452.203	33630.72
452.409	33335.81
452.615	33509.89
452.821	32166.42
453.027	31838.75
453.233	33450.5
453.44	32094.74
453.646	32315.92
453.852	32514.58
454.058	32903.69
454.264	31707.68
454.47	32471.57
454.676	31664.67
454.882	32598.54
455.088	29747.77
455.294	30255.67
455.5	30399.02
455.705	31169.06
455.911	29704.76
456.117	29237.83
456.323	28635.72
456.529	27009.64
456.735	28148.31
456.941	27370.08
457.147	27046.5
457.352	26215.02
457.558	25866.87
457.764	25916.02
457.97	25399.93
458.176	24824.45
458.381	24609.42
458.587	23556.76
458.793	23415.45
458.999	22391.47
459.204	23736.98
459.41	23141.02
459.616	21611.19
459.821	22114.99
460.027	21658.29
460.233	20990.66
460.438	20157.13
460.644	20257.48
460.85	19538.65
461.055	19172.06
461.261	19045.09
461.466	17693.43
461.672	17054.46
461.878	18371.3
462.083	17136.38
462.289	16589.57
462.494	16460.55
462.7	15958.8
462.905	15573.78
463.111	15870.73
463.316	16079.63
463.522	15624.98
463.727	15747.86
463.932	15536.91
464.138	15768.34
464.343	15485.72
464.549	15285.01
464.754	15661.84
464.959	15790.86
465.165	15379.22
465.37	14691.1
465.575	14693.15
465.781	15037.21
465.986	15022.87
466.191	14355.24
466.397	14236.45
466.602	13499.19
466.807	14117.67
467.012	14060.33
467.218	14123.82
467.423	13857.58
467.628	13957.93
467.833	14598.95
468.038	14023.47
468.244	13695.79
468.449	14390.05
468.654	13839.15
468.859	13501.23
469.064	13515.57
469.269	12809.02
469.474	13105.98
469.679	13308.72
469.885	13032.25
470.09	12993.34
470.295	12940.09
470.5	12546.88
470.705	12598.08
470.91	12421.95
471.115	12565.31
471.32	12520.26
471.525	12335.94
471.73	12381
471.935	12168.01
472.139	11705.17
472.344	11998.02
472.549	11647.82
472.754	11604.81
472.959	11385.68
473.164	11060.06
473.369	11168.6
473.574	11451.22
473.778	11406.16
473.983	11049.82
474.188	11133.78
474.393	10537.82
474.598	10646.37
474.802	10427.23
475.007	10419.04
475.212	10335.07
475.417	10142.57
475.621	10357.6
475.826	10109.8
476.031	9986.92
476.235	9827.18
476.44	9907.05
476.645	9700.2
476.849	9786.22
477.054	9544.56
477.259	9282.42
477.463	9511.79
477.668	8993.65
477.872	9292.66
478.077	9175.92
478.282	9020.28
478.486	8891.26
478.691	8823.67
478.895	8823.67
479.1	8713.08
479.304	8866.68
479.509	8543.1
479.713	8778.62
479.918	8670.08
480.122	8438.66
480.326	8674.17
480.531	8561.53
480.735	8379.26
480.94	8393.6
481.144	8733.56
481.348	8256.39
481.553	8268.67
481.757	8160.13
481.961	8242.05
482.166	8510.33
482.37	8244.1
482.574	8059.78
482.778	8082.31
482.983	8317.83
483.187	8213.38
483.391	8170.37
483.595	7981.96
483.8	8004.49
484.004	8186.76
484.208	8147.84
484.412	8176.52
484.616	8299.39
484.821	8156.04
485.025	8141.7
485.229	8321.92
485.433	8047.49
485.637	8080.26
485.841	8045.45
486.045	8065.92
486.249	8074.12
486.453	7957.38
486.657	8268.67
486.861	8162.18
487.065	8172.42
487.269	8194.95
487.473	8108.93
487.677	8319.87
487.881	8385.41
488.085	8219.52
488.289	8242.05
488.493	8219.52
488.697	8274.82
488.901	8289.15
489.105	8266.63
489.309	8225.67
489.512	8287.11
489.716	8221.57
489.92	8356.74
490.124	8110.98
490.328	8534.91
490.531	8285.06
490.735	8430.46
490.939	8319.87
491.143	8485.76
491.346	8342.4
491.55	8518.53
491.754	8493.95
491.958	8502.14
492.161	8399.74
492.365	8678.27
492.569	8661.88
492.772	8674.17
492.976	8629.12
493.18	8795
493.383	8995.7
493.587	8874.87
493.79	8948.6
493.994	8627.07
494.197	9112.44
494.401	8989.56
494.605	9190.26
494.808	9274.23
495.012	9333.62
495.215	9298.8
495.419	9593.71
495.622	9208.69
495.825	9677.68
496.029	9450.35
496.232	9843.56
496.436	9796.46
496.639	9923.43
496.843	9919.34
497.046	10113.89
497.249	10183.52
497.453	10279.78
497.656	10394.47
497.859	10462.05
498.063	10638.17
498.266	10808.16
498.469	10840.92
498.673	10943.32
498.876	11008.86
499.079	11164.5
499.282	11105.11
499.485	11187.03
499.689	11322.2
499.892	11393.87
500.095	11647.82
500.298	11895.63
500.501	12008.26
500.705	12014.41
500.908	12010.31
501.111	12540.74
501.314	12626.75
501.517	12536.64
501.72	12727.1
501.923	12751.68
502.126	12987.19
502.329	13087.54
502.532	13052.73
502.735	13427.51
502.938	13785.9
503.141	13765.42
503.344	14017.32
503.547	14160.68
503.75	14050.09
503.953	14410.53
504.156	14543.65
504.359	14375.72
504.562	14746.4
504.765	15117.08
504.968	14961.44
505.17	15547.15
505.373	15235.86
505.576	15549.2
505.779	15878.93
505.982	15966.99
506.185	16208.65
506.387	16311.05
506.59	16560.9
506.793	16724.74
506.996	16415.49
507.198	17281.78
507.401	16902.91
507.604	17177.34
507.807	17603.32
508.009	17765.1
508.212	17947.37
508.415	18127.6
508.617	18502.37
508.82	18438.89
509.022	18375.4
509.225	19038.94
509.428	19153.63
509.63	19040.99
509.833	19407.58
510.035	19714.77
510.238	19690.2
510.44	19806.93
510.643	20275.91
510.845	20316.87
511.048	20411.08
511.25	20992.7
511.453	20949.7
511.655	21861.04
511.858	21338.81
512.06	21336.76
512.262	22209.2
512.465	21910.19
512.667	22135.47
512.87	22557.35
513.072	22420.14
513.274	23052.96
513.477	23100.06
513.679	23607.96
513.881	23741.08
514.084	24236.69
514.286	23958.16
514.488	24105.62
514.69	24687.24
514.893	24736.39
515.095	25100.93
515.297	25242.24
515.499	25793.14
515.701	25801.33
515.904	26049.14
516.106	26227.31
516.308	26399.34
516.51	26618.47
516.712	26643.05
516.914	27339.36
517.116	27710.04
517.318	27675.23
517.52	27746.9
517.722	27963.99
517.925	28615.24
518.127	28828.23
518.329	29043.27
518.531	29198.91
518.733	29395.52
518.935	29899.32
519.136	29925.94
519.338	30642.73
519.54	30577.2
519.742	30753.32
519.944	31214.12
520.146	31642.14
520.348	31539.74
520.55	31703.58
520.752	32090.65
520.954	32475.66
521.155	32367.12
521.357	33063.43
521.559	33233.41
521.761	33747.45
521.963	33190.41
522.164	33858.04
522.366	33958.39
522.568	34673.13
522.77	34157.05
522.971	34982.38
523.173	34953.71
523.375	35107.3
523.576	35355.11
523.778	35312.1
523.98	35858.91
524.181	36200.92
524.383	36299.22
524.584	36475.35
524.786	36796.88
524.988	36585.94
525.189	37394.89
525.391	37622.21
525.592	37798.34
525.794	37933.5
525.995	37978.56
526.197	38420.92
526.398	37980.6
526.6	38441.4
526.801	38824.37
527.003	38697.39
527.204	38740.4
527.406	38998.44
527.607	39096.75
527.808	39567.78
528.01	39133.61
528.211	39571.88
528.412	40563.09
528.614	39997.85
528.815	40044.96
529.016	40583.57
529.218	39991.71
529.419	39997.85
529.62	40333.72
529.822	40356.25
530.023	40444.31
530.224	40468.89
530.425	40364.44
530.626	40364.44
530.828	40552.85
531.029	41400.71
531.23	40640.92
531.431	41128.33
531.632	41052.56
531.833	41283.98
532.035	41212.3
532.236	41292.17
532.437	41390.47
532.638	41302.41
532.839	41904.51
533.04	42054.01
533.241	41359.75
533.442	42240.38
533.643	41529.73
533.844	41390.47
534.045	41892.22
534.246	41496.97
534.447	41998.72
534.648	41615.75
534.849	41699.72
535.05	41830.79
535.251	41912.7
535.451	42115.45
535.652	42146.17
535.853	41701.76
536.054	42109.31
536.255	42443.13
536.456	41656.71
536.657	42283.39
536.857	41894.27
537.058	41978.24
537.259	42260.86
537.46	42250.62
537.66	42051.97
537.861	42113.41
538.062	41927.04
538.263	42256.76
538.463	41838.98
538.664	41963.9
538.865	42070.4
539.065	42199.42
539.266	41841.03
539.466	42316.15
539.667	41519.49
539.868	42252.67
540.068	42086.78
540.269	42133.89
540.469	42041.73
540.67	42119.55
540.87	41652.61
541.071	41843.07
541.271	42279.29
541.472	42211.71
541.672	41791.87
541.873	41996.67
542.073	41013.65
542.274	42170.75
542.474	41865.6
542.675	41800.07
542.875	42082.69
543.075	42133.89
543.276	41881.98
543.476	42267
543.676	41464.2
543.877	42058.11
544.077	42033.53
544.277	41791.87
544.478	41685.38
544.678	41992.58
544.878	42049.92
545.078	42039.68
545.279	41566.6
545.479	41924.99
545.679	41841.03
545.879	41877.89
546.079	41998.72
546.28	41554.31
546.48	41576.84
546.68	42189.18
546.88	42123.65
547.08	41456.01
547.28	41404.81
547.48	41513.35
547.68	41675.14
547.88	41193.87
548.081	42090.88
548.281	41449.86
548.481	41599.37
548.681	41836.93
548.881	41978.24
549.081	41390.47
549.28	41318.79
549.48	41529.73
549.68	41292.17
549.88	41988.48
550.08	41343.37
550.28	41939.33
550.48	41537.93
550.68	41775.49
550.88	41247.11
551.08	41556.36
551.279	41433.48
551.479	41402.76
551.679	41564.55
551.879	40980.88
552.079	41902.46
552.278	41306.51
552.478	41404.81
552.678	41537.93
552.878	41437.58
553.077	41507.21
553.277	40530.33
553.477	41320.84
553.676	41122.19
553.876	41316.75
554.076	41017.74
554.275	40841.62
554.475	40589.72
554.674	40962.45
554.874	41136.52
555.074	40792.47
555.273	40917.39
555.473	40898.96
555.672	40751.51
555.872	40599.96
556.071	40583.57
556.271	40767.89
556.47	40665.49
556.67	40198.55
556.869	40610.2
557.068	40776.08
557.268	40153.5
557.467	40307.1
557.667	40712.59
557.866	40542.61
558.065	40270.23
558.265	40165.79
558.464	39635.36
558.663	40081.82
558.863	39504.29
559.062	40317.34
559.261	39907.74
559.461	40073.63
559.66	39373.22
559.859	40073.63
560.058	39281.06
560.258	39668.13
560.457	38994.35
560.656	39668.13
560.855	39309.74
561.054	39354.79
561.253	39129.51
561.453	39412.13
561.652	39104.94
561.851	39575.97
562.05	39193
562.249	38597.04
562.448	38818.22
562.647	38977.97
562.846	38836.66
563.045	38713.78
563.244	38457.78
563.443	39174.57
563.642	38087.1
563.841	38523.32
564.04	37870.01
564.239	38504.88
564.438	37765.57
564.637	38250.94
564.836	38056.38
565.035	37759.42
565.234	37566.91
565.432	37376.45
565.631	37398.98
565.83	37820.86
566.029	37343.69
566.228	37210.57
566.427	36831.69
566.625	36731.34
566.824	36600.27
567.023	36950.48
567.222	36227.54
567.42	36878.8
567.619	36596.18
567.818	36219.35
568.016	36342.23
568.215	36639.18
568.414	35936.73
568.612	36352.47
568.811	35912.16
569.01	36168.15
569.208	35549.67
569.407	36016.6
569.605	35221.99
569.804	35635.68
570.002	35285.48
570.201	35584.48
570.4	35142.12
570.598	35082.73
570.797	34533.87
570.995	35031.53
571.193	34812.4
571.392	35172.84
571.59	34159.09
571.789	34615.79
571.987	34677.23
572.186	34316.79
572.384	34150.9
572.582	34345.46
572.781	34359.8
572.979	33638.91
573.177	34034.17
573.376	33829.37
573.574	33413.63
573.772	33765.88
573.971	33448.45
574.169	33522.18
574.367	32893.45
574.565	33638.91
574.763	33092.1
574.962	32973.32
575.16	32332.31
575.358	32690.7
575.556	32461.33
575.754	32909.83
575.952	32317.97
576.151	32631.31
576.349	32209.43
576.547	32363.03
576.745	32440.85
576.943	32043.54
577.141	31945.24
577.339	32070.17
577.537	31947.29
577.735	31820.31
577.933	31898.14
578.131	31578.65
578.329	31406.62
578.527	31140.39
578.725	31220.26
578.923	31226.4
579.121	30902.82
579.319	30851.63
579.516	31109.67
579.714	31103.53
579.912	30540.33
580.11	30497.33
580.308	30591.53
580.506	30501.42
580.704	30046.77
580.901	30419.5
581.099	30421.55
581.297	29915.7
581.495	29989.43
581.692	29923.9
581.89	29823.54
582.088	29971
582.285	29680.19
582.483	29719.1
582.681	29727.29
582.878	29424.19
583.076	29092.42
583.274	29784.63
583.471	29176.39
583.669	29162.05
583.866	28717.64
584.064	28809.8
584.262	28498.51
584.459	29002.31
584.657	28777.03
584.854	28688.97
585.052	27945.56
585.249	28559.95
585.447	28885.58
585.644	28301.9
585.841	28312.14
586.039	28678.73
586.236	27738.71
586.434	27755.1
586.631	27734.62
586.828	27845.21
587.026	27841.11
587.223	27423.33
587.42	27624.03
587.618	27630.17
587.815	27550.3
588.012	27374.17
588.21	27294.3
588.407	27560.54
588.604	27112.03
588.801	26595.95
588.999	26839.65
589.196	26753.64
589.393	26860.13
589.59	26542.7
589.787	26520.17
589.984	26239.6
590.182	26462.83
590.379	26344.05
590.576	26079.86
590.773	26372.72
590.97	25952.88
591.167	26266.22
591.364	25983.6
591.561	26094.19
591.758	25662.07
591.955	25737.85
592.152	26081.91
592.349	25209.47
592.546	25895.54
592.743	25582.2
592.94	25182.85
593.137	25158.27
593.334	25264.77
593.531	24793.73
593.727	25033.35
593.924	25035.39
594.121	24709.77
594.318	25027.2
594.515	24642.18
594.712	24724.1
594.908	24517.26
595.105	24496.78
595.302	24298.13
595.499	24722.05
595.696	24427.15
595.892	23931.54
596.089	24171.15
596.286	24314.51
596.482	23827.09
596.679	23792.28
596.876	24007.31
597.072	23478.94
597.269	23601.82
597.466	23382.68
597.662	23575.19
597.859	23489.18
598.055	23341.72
598.252	23231.13
598.448	23175.84
598.645	23378.59
598.841	23243.42
599.038	23214.75
599.234	23071.39
599.431	22473.39
599.627	22719.14
599.824	23220.89
600.02	22698.66
600.217	22882.98
600.413	22471.34
600.609	22395.56
600.806	22364.84
601.002	22354.6
601.198	22368.94
601.395	22190.77
601.591	22092.46
601.787	21797.56
601.984	21996.21
602.18	22024.88
602.376	21834.42
602.572	21766.84
602.769	21881.52
602.965	21516.98
603.161	21652.15
603.357	21078.72
603.553	21705.4
603.75	21422.78
603.946	21492.41
604.142	21437.11
604.338	20863.68
604.534	21152.45
604.73	20701.89
604.926	20781.76
605.122	21105.34
605.318	20830.91
605.514	20841.15
605.71	20742.85
605.906	20560.58
606.102	20579.01
606.298	20406.98
606.494	20290.25
606.69	20619.97
606.886	20554.44
607.082	20062.93
607.278	20091.6
607.474	19804.88
607.67	20247.24
607.866	19591.89
608.062	20148.94
608.257	19983.06
608.453	19792.59
608.649	20044.49
608.845	19929.81
609.041	19585.75
609.236	19876.56
609.432	19720.92
609.628	19722.96
609.824	19899.09
610.019	19495.64
610.215	19354.33
610.411	19436.25
610.606	19200.73
610.802	19557.08
610.998	19464.92
611.193	19466.97
611.389	18973.41
611.584	19073.76
611.78	18959.07
611.976	19147.48
612.171	18879.2
612.367	18764.51
612.562	18801.38
612.758	18832.1
612.953	18707.17
613.149	19043.04
613.344	18479.85
613.539	19073.76
613.735	18707.17
613.93	18760.42
614.126	18627.3
614.321	18807.52
614.517	18465.51
614.712	18506.47
614.907	18457.32
615.103	18453.22
615.298	18256.62
615.493	18658.02
615.688	17900.27
615.884	18576.1
616.079	18148.08
616.274	18342.63
616.47	18442.98
616.665	18174.7
616.86	18010.86
617.055	18002.67
617.25	18139.88
617.445	18098.92
617.641	17736.43
617.836	17666.8
618.031	17652.47
618.226	17525.49
618.421	17722.1
618.616	17543.92
618.811	17349.37
619.006	17623.8
619.201	17203.96
619.396	17208.06
619.591	16896.77
619.786	17525.49
619.981	16907.01
620.176	17117.95
620.371	16784.13
620.566	16913.15
620.761	17017.6
620.956	16773.89
621.151	16419.59
621.346	16587.52
621.541	16284.42
621.735	16499.46
621.93	16325.38
622.125	16423.69
622.32	16200.46
622.515	16261.9
622.709	16130.83
622.904	15743.76
623.099	16153.35
623.294	16136.97
623.488	15815.44
623.683	15811.34
623.878	15414.04
624.072	15510.29
624.267	15360.79
624.462	15452.95
624.656	15194.9
624.851	15258.39
625.046	15090.46
625.24	14867.23
625.435	14832.41
625.629	15035.16
625.824	14871.33
626.018	14807.84
626.213	14437.16
626.407	14551.84
626.602	14144.3
626.796	14445.35
626.991	14519.07
627.185	14230.31
627.38	14215.98
627.574	14191.4
627.768	13939.5
627.963	13988.65
628.157	13886.25
628.352	13740.85
628.546	13652.78
628.74	13826.86
628.935	13439.79
629.129	13757.23
629.323	13437.75
629.517	13357.88
629.712	13349.68
629.906	12995.39
630.1	12985.15
630.294	13165.37
630.489	12677.95
630.683	13017.91
630.877	12645.18
631.071	12702.53
631.265	12655.42
631.459	12639.04
631.653	12655.42
631.848	12438.34
632.042	12602.18
632.236	12432.19
632.43	12419.91
632.624	12397.38
632.818	12215.11
633.012	12108.62
633.206	11987.79
633.4	12094.28
633.594	11729.74
633.788	11772.75
633.982	11914.06
634.176	11860.81
634.369	11647.82
634.563	11631.44
634.757	11664.21
634.951	11510.61
635.145	11326.29
635.339	11393.87
635.533	11301.72
635.726	11264.85
635.92	11211.6
636.114	11217.75
636.308	11158.36
636.501	11070.3
636.695	11193.17
636.889	10824.54
637.083	10810.2
637.276	10851.16
637.47	10597.21
637.664	10742.62
637.857	10621.79
638.051	10576.73
638.244	10640.22
638.438	10275.68
638.632	10287.97
638.825	10392.42
639.019	10353.51
639.212	10410.85
639.406	10023.78
639.599	10169.19
639.793	10259.3
639.986	10040.17
640.18	10148.71
640.373	10150.76
640.567	9583.47
640.76	9591.66
640.954	9485.17
641.147	9634.67
641.34	9382.77
641.534	9603.95
641.727	9384.82
641.92	9519.98
642.114	9466.74
642.307	9403.25
642.5	9188.21
642.694	9249.65
642.887	9036.66
643.08	9370.48
643.273	9223.03
643.467	9192.31
643.66	9055.09
643.853	8977.27
644.046	8840.06
644.239	8846.2
644.432	8827.77
644.626	8811.39
644.819	8840.06
645.012	8786.81
645.205	8733.56
645.398	8569.73
645.591	8514.43
645.784	8387.46
645.977	8465.28
646.17	8496
646.363	8272.77
646.556	8274.82
646.749	8319.87
646.942	8356.74
647.135	8076.16
647.328	8223.62
647.521	8158.08
647.714	7961.48
647.907	7889.8
648.099	7762.83
648.292	7836.55
648.485	7846.79
648.678	7601.04
648.871	7883.66
649.064	7607.18
649.256	7857.03
649.449	7574.41
649.642	7650.19
649.835	7693.19
650.027	7537.55
650.22	7474.06
650.413	7318.42
650.605	7381.9
650.798	7429.01
650.991	7252.88
651.183	7250.83
651.376	7322.51
651.568	7218.07
651.761	7216.02
651.954	7191.44
652.146	7220.11
652.339	7052.18
652.531	6966.17
652.724	7023.51
652.916	6763.42
653.109	6974.36
653.301	6794.14
653.494	6845.34
653.686	6583.2
653.879	6783.9
654.071	6632.35
654.263	6765.46
654.456	6488.99
654.648	6587.29
654.84	6607.77
655.033	6491.04
655.225	6611.87
655.417	6437.79
655.61	6466.46
655.802	6511.52
655.994	6333.34
656.186	6319.01
656.379	6257.57
656.571	6468.51
656.763	6208.42
656.955	6278.05
657.148	6337.44
657.34	5966.76
657.532	6042.53
657.724	6171.55
657.916	6044.58
658.108	6087.59
658.3	6054.82
658.492	5946.28
658.684	5952.42
658.876	5931.94
659.068	5874.6
659.26	5727.14
659.452	5753.77
659.644	5860.26
659.836	5886.89
660.028	5624.75
660.22	5620.65
660.412	5751.72
660.604	5665.71
660.796	5520.3
660.988	5493.68
661.18	5456.81
661.372	5579.69
661.563	5462.96
661.755	5413.81
661.947	5499.82
662.139	5307.31
662.331	5252.02
662.522	5168.05
662.714	5286.83
662.906	5282.74
663.097	5186.48
663.289	5278.64
663.481	5217.2
663.673	5245.87
663.864	5069.75
664.056	5055.41
664.247	5127.09
664.439	5108.66
664.631	4961.2
664.822	5106.61
665.014	5143.47
665.205	5053.36
665.397	5073.84
665.588	5047.22
665.78	4983.73
665.971	4828.09
666.163	4879.29
666.354	4668.34
666.546	4862.9
666.737	4838.33
666.929	4776.89
667.12	4750.26
667.311	4727.74
667.503	4684.73
667.694	4713.4
667.885	4649.91
668.077	4715.45
668.268	4637.63
668.459	4656.06
668.651	4613.05
668.842	4606.91
669.033	4479.93
669.224	4578.23
669.416	4592.57
669.607	4500.41
669.798	4539.32
669.989	4463.55
670.18	4527.03
670.371	4400.06
670.563	4484.03
670.754	4320.19
670.945	4293.57
671.136	4344.77
671.327	4383.68
671.518	4385.73
671.709	4307.9
671.9	4273.09
672.091	4201.41
672.282	4047.81
672.473	4205.5
672.664	4230.08
672.855	4111.3
673.046	4295.61
673.237	4150.21
673.428	4127.68
673.619	4139.97
673.809	4148.16
674	4264.89
674.191	4139.97
674.382	4139.97
674.573	4070.34
674.764	3926.98
674.954	3974.08
675.145	4019.14
675.336	4031.43
675.527	3957.7
675.717	3924.93
675.908	3918.79
676.099	3904.45
676.289	3906.5
676.48	3877.83
676.671	3972.04
676.861	3828.68
677.052	3912.64
677.243	3800.01
677.433	3881.92
677.624	3869.64
677.814	3855.3
678.005	3986.37
678.195	3744.71
678.386	3742.66
678.576	3642.31
678.767	3783.62
678.957	3754.95
679.148	3867.59
679.338	3908.55
679.529	3673.03
679.719	3795.91
679.909	3836.87
680.1	3726.28
680.29	3677.13
680.481	3582.92
680.671	3754.95
680.861	3644.36
681.052	3828.68
681.242	3693.51
681.432	3769.29
681.622	3677.13
681.813	3511.24
682.003	3660.74
682.193	3584.97
682.383	3781.57
682.573	3562.44
682.764	3552.2
682.954	3562.44
683.144	3613.64
683.334	3568.59
683.524	3595.21
683.714	3754.95
683.904	3627.98
684.094	3636.17
684.284	3601.35
684.474	3572.68
684.664	3515.34
684.854	3449.8
685.044	3449.8
685.234	3648.46
685.424	3603.4
685.614	3537.87
685.804	3390.41
685.994	3492.81
686.184	3417.04
686.374	3455.95
686.564	3427.28
686.753	3423.18
686.943	3443.66
687.133	3341.26
687.323	3308.49
687.513	3398.6
687.702	3412.94
687.892	3371.98
688.082	3320.78
688.272	3300.3
688.461	3369.93
688.651	3496.91
688.841	3314.64
689.03	3347.4
689.22	3308.49
689.41	3310.54
689.599	3396.56
689.789	3283.92
689.979	3308.49
690.168	3224.53
690.358	3189.71
690.547	3181.52
690.737	3308.49
690.926	3257.29
691.116	3165.14
691.305	3193.81
691.495	3066.83
691.684	3103.7
691.874	3091.41
692.063	3156.94
692.252	3091.41
692.442	3199.95
692.631	3095.5
692.82	3148.75
693.01	3001.3
693.199	3034.07
693.388	3087.31
693.578	2952.15
693.767	2980.82
693.956	3070.93
694.146	3001.3
694.335	2995.15
694.524	2814.93
694.713	3058.64
694.902	3021.78
695.092	2989.01
695.281	2925.52
695.47	3027.92
695.659	2946
695.848	2984.91
696.037	2812.89
696.226	3140.56
696.415	2948.05
696.604	2976.72
696.793	2993.11
696.982	2958.29
697.171	2991.06
697.36	3038.16
697.549	2921.43
697.738	3009.49
697.927	2909.14
698.116	3046.35
698.305	2966.48
698.494	3044.31
698.683	2952.15
698.872	2993.11
699.061	2954.19
699.25	3013.59
699.438	2851.8
699.627	2845.65
699.816	2890.71
700.005	2982.87
700.193	2931.67
700.382	2903
700.571	2919.38
700.76	2862.04
700.948	3032.02
701.137	3050.45
701.326	2874.32
701.514	2753.49
701.703	2931.67
701.892	3019.73
702.08	2898.9
702.269	2935.76
702.457	2903
702.646	2974.67
702.834	2907.09
703.023	2890.71
703.212	2855.89
703.4	2923.48
703.589	2882.52
703.777	2843.6
703.965	2816.98
704.154	2976.72
704.342	2909.14
704.531	2886.61
704.719	2790.36
704.907	2907.09
705.096	2784.21
705.284	2937.81
705.472	2835.41
705.661	2937.81
705.849	2927.57
706.037	3011.54
706.226	2831.32
706.414	2886.61
706.602	2929.62
706.79	2851.8
706.979	2851.8
707.167	2898.9
707.355	2919.38
707.543	2878.42
707.731	2706.39
707.919	2814.93
708.107	2786.26
708.296	2827.22
708.484	2776.02
708.672	2827.22
708.86	2810.84
709.048	2962.39
709.236	2767.83
709.424	2784.21
709.612	2919.38
709.8	2763.73
709.988	2776.02
710.176	2882.52
710.364	2915.28
710.551	2829.27
710.739	2810.84
710.927	2935.76
711.115	2868.18
711.303	2790.36
711.491	2882.52
711.679	2929.62
711.866	2816.98
712.054	2933.72
712.242	2894.8
712.43	2845.65
712.617	2769.88
712.805	2685.91
712.993	2796.5
713.181	2859.99
713.368	2724.82
713.556	2773.97
713.744	2667.48
713.931	2849.75
714.119	2720.73
714.306	2833.36
714.494	2718.68
714.682	2767.83
714.869	2702.29
715.057	2788.31
715.244	2665.43
715.432	2804.69
715.619	2849.75
715.807	2694.1
715.994	2755.54
716.182	2794.45
716.369	2745.3
716.556	2802.65
716.744	2710.49
716.931	2739.16
717.119	2778.07
717.306	2665.43
717.493	2763.73
717.681	2726.87
717.868	2726.87
718.055	2728.92
718.242	2753.49
718.43	2710.49
718.617	2829.27
718.804	2794.45
718.991	2671.58
719.179	2819.03
719.366	2649.05
719.553	2837.46
719.74	2632.66
719.927	2675.67
720.114	2616.28
720.301	2755.54
720.488	2702.29
720.676	2716.63
720.863	2696.15
721.05	2761.69
721.237	2698.2
721.424	2784.21
721.611	2704.34
721.798	2681.82
721.985	2679.77
722.172	2694.1
722.358	2653.14
722.545	2612.18
722.732	2659.29
722.919	2749.4
723.106	2667.48
723.293	2679.77
723.48	2692.05
723.667	2706.39
723.853	2735.06
724.04	2610.14
724.227	2692.05
724.414	2690.01
724.6	2755.54
724.787	2589.66
724.974	2685.91
725.161	2663.38
725.347	2565.08
725.534	2677.72
725.72	2618.33
725.907	2583.51
726.094	2579.42
726.28	2595.8
726.467	2517.98
726.653	2673.62
726.84	2638.81
727.027	2616.28
727.213	2563.03
727.4	2692.05
727.586	2655.19
727.773	2587.61
727.959	2544.6
728.145	2563.03
728.332	2753.49
728.518	2622.42
728.705	2673.62
728.891	2618.33
729.077	2511.83
729.264	2528.22
729.45	2575.32
729.636	2698.2
729.823	2528.22
730.009	2505.69
730.195	2642.9
730.382	2425.82
730.568	2599.9
730.754	2563.03
730.94	2690.01
731.126	2638.81
731.313	2558.94
731.499	2599.9
731.685	2538.46
731.871	2606.04
732.057	2517.98
732.243	2587.61
732.429	2550.75
732.615	2642.9
732.801	2550.75
732.987	2530.27
733.173	2528.22
733.359	2528.22
733.545	2524.12
733.731	2651.1
733.917	2556.89
734.103	2548.7
734.289	2501.59
734.475	2513.88
734.661	2587.61
734.847	2626.52
735.033	2491.35
735.219	2575.32
735.404	2542.55
735.59	2499.55
735.776	2583.51
735.962	2434.01
736.148	2558.94
736.333	2462.68
736.519	2515.93
736.705	2425.82
736.89	2534.36
737.076	2538.46
737.262	2477.02
737.447	2448.35
737.633	2501.59
737.819	2517.98
738.004	2413.53
738.19	2370.52
738.375	2364.38
738.561	2421.72
738.747	2446.3
738.932	2542.55
739.118	2423.77
739.303	2456.54
739.489	2413.53
739.674	2362.33
739.859	2374.62
740.045	2431.96
740.23	2333.66
740.416	2268.13
740.601	2380.76
740.786	2343.9
740.972	2354.14
741.157	2249.69
741.342	2249.69
741.528	2317.28
741.713	2436.06
741.898	2304.99
742.084	2264.03
742.269	2483.16
742.454	2329.56
742.639	2239.45
742.824	2235.36
743.01	2386.91
743.195	2329.56
743.38	2315.23
743.565	2190.3
743.75	2161.63
743.935	2204.64
744.12	2214.88
744.305	2073.57
744.49	2143.2
744.675	2173.92
744.86	2171.87
745.045	2175.97
745.23	2110.43
745.415	2087.9
745.6	2139.1
745.785	2126.82
745.97	2243.55
746.155	2102.24
746.34	2020.32
746.525	2116.58
746.71	2075.62
746.895	1979.36
747.079	2051.04
747.264	2085.86
747.449	2096.1
747.634	2046.94
747.819	2001.89
748.003	2005.99
748.188	1922.02
748.373	2001.89
748.557	1952.74
748.742	1932.26
748.927	1926.11
749.111	1854.44
749.296	1833.96
749.481	1981.41
749.665	1815.52
749.85	1803.24
750.034	1795.04
750.219	1856.48
750.404	1756.13
750.588	1774.56
750.773	1760.23
750.957	1723.37
751.141	1842.15
751.326	1690.6
751.51	1747.94
751.695	1729.51
751.879	1780.71
752.064	1649.64
752.248	1719.27
752.432	1700.84
752.617	1637.35
752.801	1666.02
752.985	1672.17
753.17	1758.18
753.354	1631.21
753.538	1641.45
753.722	1639.4
753.907	1446.89
754.091	1565.67
754.275	1612.78
754.459	1549.29
754.643	1561.58
754.828	1489.9
755.012	1491.95
755.196	1567.72
755.38	1506.28
755.564	1471.47
755.748	1496.04
755.932	1549.29
756.116	1498.09
756.3	1457.13
756.484	1471.47
756.668	1434.6
756.852	1401.83
757.036	1375.21
757.22	1399.79
757.404	1405.93
757.588	1317.87
757.772	1317.87
757.956	1424.36
758.14	1330.16
758.323	1328.11
758.507	1399.79
758.691	1362.92
758.875	1283.05
759.059	1389.55
759.242	1403.88
759.426	1250.28
759.61	1305.58
759.794	1301.48
759.977	1272.81
760.161	1471.47
760.345	1207.28
760.528	1170.41
760.712	1256.43
760.895	1252.33
761.079	1252.33
761.263	1336.3
761.446	1201.13
761.63	1168.37
761.813	1197.04
761.997	1125.36
762.18	1172.46
762.364	1238
762.547	1133.55
762.731	1143.79
762.914	1197.04
763.098	1184.75
763.281	1119.21
763.464	1104.88
763.648	1141.74
763.831	1129.45
764.015	1121.26
764.198	1182.7
764.381	1074.16
764.564	1219.57
764.748	1104.88
764.931	1133.55
765.114	1094.64
765.297	1090.54
765.481	1068.02
765.664	1094.64
765.847	1000.43
766.03	1025.01
766.213	1166.32
766.397	1057.78
766.58	1002.48
766.763	955.38
766.946	990.19
767.129	1014.77
767.312	1080.3
767.495	1129.45
767.678	1027.06
767.861	1018.86
768.044	1082.35
768.227	961.52
768.41	969.71
768.593	1022.96
768.776	967.67
768.959	1041.39
769.142	1033.2
769.324	961.52
769.507	900.08
769.69	926.71
769.873	961.52
770.056	988.14
770.239	971.76
770.421	936.95
770.604	936.95
770.787	977.91
770.97	918.51
771.152	938.99
771.335	912.37
771.518	945.14
771.7	889.84
771.883	910.32
772.066	887.79
772.248	943.09
772.431	846.84
772.613	791.54
772.796	936.95
772.978	846.84
773.161	822.26
773.343	889.84
773.526	760.82
773.708	910.32
773.891	830.45
774.073	812.02
774.256	865.27
774.438	967.67
774.621	846.84
774.803	904.18
774.985	809.97
775.168	871.41
775.35	793.59
775.532	756.72
775.715	789.49
775.897	805.88
776.079	797.68
776.261	764.92
776.444	762.87
776.626	750.58
776.808	785.4
776.99	726
777.173	758.77
777.355	799.73
777.537	728.05
777.719	715.77
777.901	760.82
778.083	662.52
778.265	615.41
778.447	709.62
778.629	672.76
778.811	705.53
778.993	715.77
779.175	740.34
779.357	553.98
779.539	687.09
779.721	660.47
779.903	611.32
780.085	711.67
780.267	633.85
780.449	674.81
780.631	625.65
780.812	703.48
780.994	668.66
781.176	578.55
781.358	605.17
781.54	654.33
781.721	576.5
781.903	670.71
782.085	470.01
782.267	623.61
782.448	568.31
782.63	576.5
782.812	570.36
782.993	648.18
783.175	578.55
783.357	646.13
783.538	521.21
783.72	533.5
783.901	531.45
784.083	494.58
784.264	527.35
784.446	504.82
784.627	494.58
784.809	596.98
784.99	547.83
785.172	543.74
785.353	529.4
785.535	513.02
785.716	422.91
785.897	474.1
786.079	564.22
786.26	490.49
786.441	560.12
786.623	498.68
786.804	463.86
786.985	412.67
787.167	467.96
787.348	431.1
787.529	416.76
787.71	488.44
787.891	431.1
788.073	455.67
788.254	457.72
788.435	510.97
788.616	427
788.797	433.15
788.978	472.06
789.159	379.9
789.34	447.48
789.522	373.75
789.703	412.67
789.884	420.86
790.065	451.58
790.246	371.71
790.427	392.19
790.607	457.72
790.788	359.42
790.969	412.67
791.15	320.51
791.331	351.23
791.512	383.99
791.693	404.47
791.874	306.17
792.054	408.57
792.235	371.71
792.416	381.95
792.597	371.71
792.778	324.6
792.958	394.23
793.139	355.32
793.32	345.08
793.5	320.51
793.681	308.22
793.862	427
794.042	349.18
794.223	347.13
794.404	351.23
794.584	336.89
794.765	402.43
794.945	291.84
795.126	297.98
795.306	308.22
795.487	306.17
795.667	347.13
795.848	347.13
796.028	228.35
796.209	211.96
796.389	461.82
796.57	332.79
796.75	308.22
796.93	326.65
797.111	285.69
797.291	289.79
797.471	345.08
797.652	345.08
797.832	244.73
798.012	396.28
798.192	224.25
798.373	279.55
798.553	238.59
798.733	236.54
798.913	306.17
799.093	220.16
799.274	246.78
799.454	287.74
799.634	285.69
799.814	310.27
799.994	283.64
800.174	257.02
800.354	263.16
800.534	254.97
800.714	236.54
800.894	287.74
801.074	308.22
801.254	205.82
801.434	265.21
801.614	242.68
801.794	265.21
801.974	568.31
802.154	273.4
802.334	263.16
802.514	199.68
802.693	160.77
802.873	287.74
803.053	248.83
803.233	250.88
803.413	271.36
803.592	222.2
803.772	185.34
803.952	314.36
804.131	257.02
804.311	275.45
804.491	275.45
804.67	189.44
804.85	214.01
805.03	228.35
805.209	230.4
805.389	201.72
805.568	293.88
805.748	238.59
805.928	263.16
806.107	191.49
806.287	257.02
806.466	197.63
806.646	248.83
806.825	228.35
807.004	168.96
807.184	164.86
807.363	226.3
807.543	244.73
807.722	214.01
807.901	160.77
808.081	259.07
808.26	168.96
808.439	257.02
808.619	199.68
808.798	171.01
808.977	150.53
809.156	189.44
809.336	238.59
809.515	185.34
809.694	138.24
809.873	232.44
810.052	273.4
810.231	177.15
810.411	179.2
810.59	162.81
810.769	257.02
810.948	185.34
811.127	156.67
811.306	222.2
811.485	168.96
811.664	209.92
811.843	216.06
812.022	199.68
812.201	78.85
812.38	156.67
812.559	136.19
812.737	158.72
812.916	162.81
813.095	211.96
813.274	97.28
813.453	230.4
813.632	185.34
813.811	150.53
813.989	136.19
814.168	138.24
814.347	203.77
814.526	140.29
814.704	125.95
814.883	203.77
815.062	175.1
815.24	140.29
815.419	189.44
815.598	173.05
815.776	119.81
815.955	191.49
816.133	154.62
816.312	140.29
816.49	115.71
816.669	113.66
816.847	138.24
817.026	222.2
817.204	181.25
817.383	162.81
817.561	119.81
817.74	113.66
817.918	27.65
818.097	154.62
818.275	142.33
818.453	201.72
818.632	187.39
818.81	154.62
818.988	123.9
819.167	138.24
819.345	113.66
819.523	68.61
819.701	140.29
819.879	193.53
820.058	105.47
820.236	64.51
820.414	123.9
820.592	95.23
820.77	117.76
820.948	134.14
821.127	70.65
821.305	64.51
821.483	111.61
821.661	164.86
821.839	109.57
822.017	125.95
822.195	93.18
822.373	193.53
822.551	134.14
822.729	146.43
822.907	52.22
823.085	211.96
823.262	154.62
823.44	121.85
823.618	72.7
823.796	123.9
823.974	91.13
824.152	156.67
824.329	128
824.507	93.18
824.685	132.09
824.863	121.85
825.04	146.43
825.218	103.42
825.396	132.09
825.574	148.48
825.751	140.29
825.929	168.96
826.107	103.42
826.284	177.15
826.462	111.61
826.639	80.89
826.817	25.6
826.994	93.18
827.172	140.29
827.349	136.19
827.527	33.79
827.704	97.28
827.882	52.22
828.059	68.61
828.237	64.51
828.414	52.22
828.591	148.48
828.769	123.9
828.946	134.14
829.124	132.09
829.301	93.18
829.478	80.89
829.655	117.76
829.833	93.18
830.01	58.37
830.187	142.33
830.364	68.61
830.542	48.13
830.719	62.46
830.896	97.28
831.073	91.13
831.25	84.99
831.427	160.77
831.604	119.81
831.782	128
831.959	84.99
832.136	76.8
832.313	115.71
832.49	78.85
832.667	80.89
832.844	142.33
833.021	111.61
833.198	123.9
833.374	142.33
833.551	121.85
833.728	105.47
833.905	130.05
834.082	-25.6
834.259	70.65
834.436	148.48
834.612	84.99
834.789	140.29
834.966	25.6
835.143	70.65
835.319	109.57
835.496	19.46
835.673	5.12
835.85	89.09
836.026	-11.26
836.203	93.18
836.38	56.32
836.556	111.61
836.733	84.99
836.909	76.8
837.086	15.36
837.262	97.28
837.439	39.94
837.616	76.8
837.792	44.03
837.968	82.94
838.145	50.18
838.321	66.56
838.498	74.75
838.674	82.94
838.851	101.37
839.027	56.32
839.203	46.08
839.38	78.85
839.556	52.22
839.732	76.8
839.909	68.61
840.085	52.22
840.261	62.46
840.437	46.08
840.614	52.22
840.79	54.27
840.966	136.19
841.142	101.37
841.318	119.81
841.494	115.71
841.671	60.42
841.847	76.8
842.023	-5.12
842.199	168.96
842.375	-27.65
842.551	66.56
842.727	70.65
842.903	25.6
843.079	3.07
843.255	-5.12
843.431	-17.41
843.607	117.76
843.783	13.31
843.959	80.89
844.134	56.32
844.31	111.61
844.486	17.41
844.662	74.75
844.838	9.22
845.013	7.17
845.189	150.53
845.365	35.84
845.541	29.7
845.716	84.99
845.892	41.98
846.068	35.84
846.244	68.61
846.419	31.74
846.595	-21.5
846.77	60.42
846.946	29.7
847.122	33.79
847.297	27.65
847.473	84.99
847.648	103.42
847.824	35.84
847.999	7.17
848.175	-27.65
848.35	64.51
848.526	33.79
848.701	39.94
848.876	64.51
849.052	11.26
849.227	91.13
849.403	50.18
849.578	89.09
849.753	115.71
849.929	31.74
850.104	3.07
850.279	44.03
850.454	21.5
850.63	84.99
850.805	-1.02
850.98	89.09
851.155	48.13
851.33	17.41
851.505	60.42
851.681	91.13
851.856	60.42
852.031	50.18
852.206	3.07
852.381	-17.41
852.556	70.65
852.731	37.89
852.906	33.79
853.081	19.46
853.256	19.46
853.431	3.07
853.606	35.84
853.781	37.89
853.956	-37.89
854.131	44.03
854.305	5.12
854.48	-3.07
854.655	31.74
854.83	115.71
855.005	44.03
855.18	27.65
855.354	-46.08
855.529	29.7
855.704	-7.17
855.879	46.08
856.053	-13.31
856.228	-15.36
856.403	46.08
856.577	25.6
856.752	-46.08
856.926	13.31
857.101	-5.12
857.276	25.6
857.45	11.26
857.625	68.61
857.799	-5.12
857.974	-60.42
858.148	-3.07
858.323	29.7
858.497	33.79
858.672	29.7
858.846	19.46
859.02	17.41
859.195	19.46
859.369	13.31
859.543	29.7
859.718	23.55
859.892	76.8
860.066	27.65
860.241	9.22
860.415	29.7
860.589	11.26
860.763	-21.5
860.938	-25.6
861.112	41.98
861.286	-21.5
861.46	56.32
861.634	5.12
861.808	-9.22
861.982	41.98
862.157	46.08
862.331	1.02
862.505	50.18
862.679	11.26
862.853	-23.55
863.027	46.08
863.201	84.99
863.375	-17.41
863.549	60.42
863.722	46.08
863.896	52.22
864.07	27.65
864.244	-66.56
864.418	31.74
864.592	48.13
864.766	25.6
864.939	-56.32
865.113	82.94
865.287	109.57
865.461	97.28
865.634	-31.74
865.808	15.36
865.982	-21.5
866.156	74.75
866.329	3.07
866.503	25.6
866.676	78.85
866.85	21.5
867.024	7.17
867.197	76.8
867.371	1.02
867.544	21.5
867.718	11.26
867.891	-21.5
868.065	-37.89
868.238	-46.08
868.412	7.17
868.585	-23.55
868.759	-15.36
868.932	-5.12
869.105	-29.7
869.279	58.37
869.452	-1.02
869.625	15.36
869.799	58.37
869.972	-15.36
870.145	-17.41
870.319	64.51
870.492	-25.6
870.665	54.27
870.838	-9.22
871.011	1.02
871.185	78.85
871.358	-17.41
871.531	21.5
871.704	52.22
871.877	7.17
872.05	-91.13
872.223	11.26
872.396	-29.7
872.569	62.46
872.742	27.65
872.915	41.98
873.088	-54.27
873.261	-54.27
873.434	-15.36
873.607	44.03
873.78	-5.12
873.953	-3.07
874.126	50.18
874.299	109.57
874.471	-9.22
874.644	21.5
874.817	-11.26
874.99	35.84
875.163	35.84
875.335	-23.55
875.508	58.37
875.681	-5.12
875.853	-23.55
876.026	35.84
876.199	72.7
876.371	-9.22
876.544	23.55
876.717	-17.41
876.889	-25.6
877.062	7.17
877.234	-39.94
877.407	37.89
877.579	-41.98
877.752	9.22
877.924	19.46
878.097	66.56
878.269	-27.65
878.442	58.37
878.614	35.84
878.786	29.7
878.959	33.79
879.131	-5.12
879.303	9.22
879.476	56.32
879.648	-21.5
879.82	7.17
879.993	-56.32
880.165	35.84
880.337	-3.07
880.509	-52.22
880.681	-46.08
880.854	56.32
881.026	25.6
881.198	66.56
881.37	23.55
881.542	31.74
881.714	-19.46
881.886	-31.74
882.058	11.26
882.23	78.85
882.402	37.89
882.574	48.13
882.746	-21.5
882.918	-21.5
883.09	19.46
883.262	-13.31
883.434	-5.12
883.606	-13.31
883.778	54.27
883.95	-3.07
884.122	-78.85
884.293	15.36
884.465	21.5
884.637	78.85
884.809	-23.55
884.98	15.36
885.152	17.41
885.324	80.89
885.496	-19.46
885.667	3.07
885.839	-3.07
886.011	1.02
886.182	54.27
886.354	15.36
886.525	1.02
886.697	37.89
886.869	-58.37
887.04	27.65
887.212	76.8
887.383	-1.02
887.555	25.6
887.726	76.8
887.897	15.36
888.069	21.5
888.24	7.17
888.412	27.65
888.583	46.08
888.754	-1.02
888.926	44.03
889.097	33.79
889.268	-39.94
889.44	5.12
889.611	-23.55
889.782	-35.84
889.953	3.07
890.125	44.03
890.296	89.09
890.467	25.6
890.638	29.7
890.809	64.51
890.98	13.31
891.151	31.74
891.323	35.84
891.494	-46.08
891.665	29.7
891.836	-37.89
892.007	56.32
892.178	-7.17
892.349	-25.6
892.52	-39.94
892.691	-9.22
892.862	-19.46
893.032	25.6
893.203	56.32
893.374	54.27
893.545	-19.46
893.716	-33.79
893.887	-17.41
894.057	39.94
894.228	25.6
894.399	-9.22
894.57	3.07
894.74	37.89
894.911	29.7
895.082	84.99
895.253	-35.84
895.423	33.79
895.594	31.74
895.764	52.22
895.935	19.46
896.106	9.22
896.276	-41.98
896.447	140.29
896.617	-9.22
896.788	-5.12
896.958	11.26
897.129	11.26
897.299	-35.84
897.47	-68.61
897.64	62.46
897.81	-62.46
897.981	35.84
898.151	5.12
898.322	66.56
898.492	13.31
898.662	-64.51
898.832	5.12
899.003	-60.42
899.173	48.13
899.343	-7.17
899.513	31.74
