Data from USB4F104151__13__11-04-42-235.txt Node

Date: Wed Mar 12 11:04:42 EDT 2025
User: louis
Spectrometer: USB4F10415
Trigger mode: 4
Integration Time (sec): 2.000000E-2
Scans to average: 1
Electric dark correction enabled: true
Nonlinearity correction enabled: false
Boxcar width: 0
XAxis mode: Wavelengths
Number of Pixels in Spectrum: 3648
>>>>>Begin Spectral Data<<<<<
178.204	1.71
178.424	1.71
178.644	1.71
178.864	-76.12
179.084	-45.4
179.304	44.71
179.524	-0.34
179.744	7.85
179.964	-20.82
180.184	-41.3
180.404	7.85
180.624	-31.06
180.844	-63.83
181.064	18.09
181.283	32.43
181.503	32.43
181.723	13.99
181.943	-45.4
182.163	1.71
182.383	-22.87
182.602	67.24
182.822	7.85
183.042	59.05
183.262	44.71
183.482	-57.68
183.701	102.06
183.921	11.95
184.141	79.53
184.361	1.71
184.58	9.9
184.8	-39.25
185.02	-31.06
185.239	48.81
185.459	95.91
185.679	71.34
185.898	-16.73
186.118	52.91
186.338	11.95
186.557	48.81
186.777	-6.49
186.997	-45.4
187.216	-12.63
187.436	81.58
187.655	59.05
187.875	5.8
188.095	-20.82
188.314	30.38
188.534	87.72
188.753	-26.96
188.973	89.77
189.192	106.15
189.412	48.81
189.631	13.99
189.851	85.67
190.07	93.87
190.29	32.43
190.509	28.33
190.729	85.67
190.948	50.86
191.168	151.21
191.387	-6.49
191.607	50.86
191.826	79.53
192.045	-6.49
192.265	22.19
192.484	48.81
192.704	85.67
192.923	32.43
193.142	57
193.362	-2.39
193.581	46.76
193.8	106.15
194.02	67.24
194.239	89.77
194.458	87.72
194.678	61.1
194.897	42.67
195.116	-8.53
195.335	-29.01
195.555	-22.87
195.774	-72.02
195.993	83.63
196.212	-8.53
196.432	28.33
196.651	69.29
196.87	48.81
197.089	85.67
197.308	1.71
197.528	59.05
197.747	-53.59
197.966	54.95
198.185	-31.06
198.404	-35.16
198.623	22.19
198.842	40.62
199.062	44.71
199.281	104.11
199.5	-6.49
199.719	1.71
199.938	36.52
200.157	69.29
200.376	22.19
200.595	50.86
200.814	22.19
201.033	-57.68
201.252	71.34
201.471	22.19
201.69	79.53
201.909	-16.73
202.128	-0.34
202.347	-8.53
202.566	71.34
202.785	-8.53
203.004	-12.63
203.223	79.53
203.442	85.67
203.661	13.99
203.879	-51.54
204.098	-12.63
204.317	28.33
204.536	61.1
204.755	77.48
204.974	16.04
205.193	-2.39
205.411	69.29
205.63	65.19
205.849	61.1
206.068	-39.25
206.287	73.39
206.505	104.11
206.724	22.19
206.943	69.29
207.162	-59.73
207.381	48.81
207.599	63.15
207.818	116.39
208.037	13.99
208.255	5.8
208.474	61.1
208.693	38.57
208.911	-35.16
209.13	-16.73
209.349	32.43
209.567	52.91
209.786	38.57
210.005	65.19
210.223	-2.39
210.442	9.9
210.661	-69.97
210.879	42.67
211.098	-18.77
211.316	36.52
211.535	16.04
211.753	22.19
211.972	-8.53
212.191	89.77
212.409	5.8
212.628	52.91
212.846	50.86
213.065	110.25
213.283	44.71
213.502	-10.58
213.72	-8.53
213.938	18.09
214.157	28.33
214.375	100.01
214.594	3.75
214.812	77.48
215.031	5.8
215.249	28.33
215.467	61.1
215.686	59.05
215.904	38.57
216.122	106.15
216.341	34.47
216.559	54.95
216.778	1.71
216.996	28.33
217.214	36.52
217.432	32.43
217.651	18.09
217.869	87.72
218.087	40.62
218.306	-29.01
218.524	5.8
218.742	71.34
218.96	-10.58
219.179	28.33
219.397	-39.25
219.615	38.57
219.833	28.33
220.051	30.38
220.27	36.52
220.488	-0.34
220.706	63.15
220.924	-2.39
221.142	11.95
221.36	-63.83
221.578	20.14
221.796	13.99
222.015	46.76
222.233	50.86
222.451	95.91
222.669	26.28
222.887	59.05
223.105	75.43
223.323	46.76
223.541	-2.39
223.759	140.97
223.977	42.67
224.195	36.52
224.413	63.15
224.631	63.15
224.849	71.34
225.067	28.33
225.285	-6.49
225.503	13.99
225.721	-29.01
225.939	67.24
226.157	-12.63
226.375	26.28
226.592	30.38
226.81	81.58
227.028	63.15
227.246	120.49
227.464	-12.63
227.682	73.39
227.9	13.99
228.117	79.53
228.335	34.47
228.553	48.81
228.771	46.76
228.989	46.76
229.206	106.15
229.424	42.67
229.642	26.28
229.86	46.76
230.077	20.14
230.295	-6.49
230.513	24.23
230.731	13.99
230.948	24.23
231.166	71.34
231.384	38.57
231.601	59.05
231.819	122.54
232.037	-29.01
232.254	-4.44
232.472	-14.68
232.689	-26.96
232.907	50.86
233.125	87.72
233.342	48.81
233.56	36.52
233.777	-22.87
233.995	57
234.213	42.67
234.43	57
234.648	7.85
234.865	28.33
235.083	46.76
235.3	46.76
235.518	22.19
235.735	97.96
235.953	42.67
236.17	-0.34
236.388	38.57
236.605	26.28
236.822	46.76
237.04	95.91
237.257	24.23
237.475	-24.92
237.692	104.11
237.909	69.29
238.127	40.62
238.344	-12.63
238.562	46.76
238.779	44.71
238.996	59.05
239.214	69.29
239.431	57
239.648	-10.58
239.865	36.52
240.083	13.99
240.3	-0.34
240.517	54.95
240.735	81.58
240.952	83.63
241.169	-35.16
241.386	124.58
241.603	67.24
241.821	-22.87
242.038	48.81
242.255	1.71
242.472	7.85
242.689	151.21
242.907	138.92
243.124	93.87
243.341	-51.54
243.558	32.43
243.775	46.76
243.992	13.99
244.209	110.25
244.426	122.54
244.643	20.14
244.86	44.71
245.078	54.95
245.295	40.62
245.512	79.53
245.729	-26.96
245.946	-37.2
246.163	52.91
246.38	24.23
246.597	24.23
246.814	61.1
247.031	63.15
247.248	34.47
247.464	48.81
247.681	34.47
247.898	65.19
248.115	-22.87
248.332	46.76
248.549	75.43
248.766	81.58
248.983	112.3
249.2	95.91
249.417	59.05
249.633	71.34
249.85	65.19
250.067	18.09
250.284	57
250.501	122.54
250.717	22.19
250.934	-57.68
251.151	5.8
251.368	67.24
251.585	48.81
251.801	11.95
252.018	-10.58
252.235	-43.35
252.451	-26.96
252.668	54.95
252.885	59.05
253.102	24.23
253.318	46.76
253.535	22.19
253.752	95.91
253.968	26.28
254.185	-4.44
254.401	28.33
254.618	134.82
254.835	30.38
255.051	110.25
255.268	-69.97
255.484	89.77
255.701	-6.49
255.917	54.95
256.134	7.85
256.351	79.53
256.567	110.25
256.784	77.48
257	130.73
257.217	46.76
257.433	34.47
257.65	-10.58
257.866	20.14
258.082	46.76
258.299	-4.44
258.515	20.14
258.732	-10.58
258.948	65.19
259.165	63.15
259.381	24.23
259.597	16.04
259.814	42.67
260.03	48.81
260.246	42.67
260.463	71.34
260.679	57
260.895	-35.16
261.112	-6.49
261.328	32.43
261.544	36.52
261.761	-26.96
261.977	59.05
262.193	5.8
262.409	5.8
262.626	32.43
262.842	22.19
263.058	1.71
263.274	24.23
263.49	48.81
263.707	26.28
263.923	67.24
264.139	7.85
264.355	71.34
264.571	61.1
264.787	91.82
265.004	95.91
265.22	63.15
265.436	116.39
265.652	75.43
265.868	54.95
266.084	34.47
266.3	-12.63
266.516	13.99
266.732	7.85
266.948	59.05
267.164	26.28
267.38	79.53
267.596	-18.77
267.812	81.58
268.028	30.38
268.244	52.91
268.46	42.67
268.676	54.95
268.892	65.19
269.108	7.85
269.324	52.91
269.54	69.29
269.756	32.43
269.972	73.39
270.188	28.33
270.403	18.09
270.619	-0.34
270.835	34.47
271.051	-26.96
271.267	-18.77
271.483	-14.68
271.698	106.15
271.914	30.38
272.13	34.47
272.346	52.91
272.562	24.23
272.777	81.58
272.993	-18.77
273.209	65.19
273.425	-20.82
273.64	50.86
273.856	65.19
274.072	-55.64
274.287	-41.3
274.503	67.24
274.719	-6.49
274.934	140.97
275.15	22.19
275.366	118.44
275.581	-6.49
275.797	50.86
276.012	18.09
276.228	67.24
276.444	34.47
276.659	95.91
276.875	5.8
277.09	67.24
277.306	79.53
277.521	63.15
277.737	89.77
277.952	71.34
278.168	26.28
278.383	30.38
278.599	40.62
278.814	52.91
279.03	13.99
279.245	65.19
279.461	28.33
279.676	34.47
279.892	7.85
280.107	7.85
280.322	22.19
280.538	57
280.753	38.57
280.969	87.72
281.184	-2.39
281.399	59.05
281.615	16.04
281.83	118.44
282.045	-16.73
282.26	11.95
282.476	75.43
282.691	38.57
282.906	28.33
283.122	18.09
283.337	22.19
283.552	63.15
283.767	13.99
283.983	52.91
284.198	48.81
284.413	-2.39
284.628	52.91
284.843	110.25
285.058	89.77
285.274	24.23
285.489	-4.44
285.704	36.52
285.919	61.1
286.134	65.19
286.349	-33.11
286.564	106.15
286.779	124.58
286.995	48.81
287.21	34.47
287.425	61.1
287.64	34.47
287.855	42.67
288.07	16.04
288.285	83.63
288.5	143.02
288.715	26.28
288.93	42.67
289.145	-4.44
289.36	24.23
289.575	75.43
289.79	40.62
290.004	85.67
290.219	71.34
290.434	38.57
290.649	24.23
290.864	9.9
291.079	85.67
291.294	3.75
291.509	75.43
291.724	-10.58
291.938	20.14
292.153	71.34
292.368	-18.77
292.583	100.01
292.798	44.71
293.012	102.06
293.227	75.43
293.442	24.23
293.657	24.23
293.871	42.67
294.086	24.23
294.301	50.86
294.516	42.67
294.73	28.33
294.945	40.62
295.16	-0.34
295.374	-4.44
295.589	75.43
295.804	44.71
296.018	-33.11
296.233	91.82
296.447	7.85
296.662	20.14
296.877	46.76
297.091	81.58
297.306	7.85
297.52	79.53
297.735	48.81
297.949	-16.73
298.164	50.86
298.378	61.1
298.593	59.05
298.807	-26.96
299.022	61.1
299.236	44.71
299.451	24.23
299.665	30.38
299.88	52.91
300.094	9.9
300.309	87.72
300.523	44.71
300.737	-10.58
300.952	34.47
301.166	-14.68
301.381	61.1
301.595	28.33
301.809	18.09
302.024	61.1
302.238	20.14
302.452	54.95
302.667	24.23
302.881	81.58
303.095	18.09
303.309	30.38
303.524	69.29
303.738	65.19
303.952	1.71
304.166	106.15
304.381	38.57
304.595	46.76
304.809	42.67
305.023	75.43
305.237	57
305.452	-8.53
305.666	54.95
305.88	116.39
306.094	67.24
306.308	79.53
306.522	87.72
306.736	77.48
306.95	108.2
307.164	13.99
307.379	63.15
307.593	114.34
307.807	18.09
308.021	5.8
308.235	3.75
308.449	54.95
308.663	46.76
308.877	118.44
309.091	-57.68
309.305	102.06
309.519	124.58
309.733	151.21
309.947	44.71
310.161	28.33
310.374	30.38
310.588	54.95
310.802	42.67
311.016	128.68
311.23	89.77
311.444	54.95
311.658	102.06
311.872	16.04
312.085	28.33
312.299	65.19
312.513	30.38
312.727	30.38
312.941	28.33
313.154	22.19
313.368	-10.58
313.582	9.9
313.796	65.19
314.009	28.33
314.223	149.16
314.437	81.58
314.651	77.48
314.864	20.14
315.078	67.24
315.292	-24.92
315.505	44.71
315.719	106.15
315.933	13.99
316.146	50.86
316.36	-6.49
316.573	75.43
316.787	134.82
317.001	91.82
317.214	18.09
317.428	118.44
317.641	36.52
317.855	13.99
318.068	38.57
318.282	153.26
318.495	44.71
318.709	87.72
318.922	36.52
319.136	22.19
319.349	46.76
319.563	1.71
319.776	91.82
319.99	69.29
320.203	-51.54
320.417	126.63
320.63	13.99
320.843	124.58
321.057	67.24
321.27	22.19
321.483	5.8
321.697	44.71
321.91	28.33
322.124	50.86
322.337	42.67
322.55	-37.2
322.763	-18.77
322.977	59.05
323.19	89.77
323.403	32.43
323.617	61.1
323.83	71.34
324.043	34.47
324.256	32.43
324.469	97.96
324.683	-0.34
324.896	18.09
325.109	83.63
325.322	1.71
325.535	40.62
325.748	50.86
325.962	61.1
326.175	18.09
326.388	106.15
326.601	116.39
326.814	34.47
327.027	24.23
327.24	71.34
327.453	11.95
327.666	-41.3
327.879	110.25
328.092	65.19
328.305	100.01
328.518	-4.44
328.731	77.48
328.944	-0.34
329.157	50.86
329.37	-12.63
329.583	44.71
329.796	81.58
330.009	-12.63
330.222	5.8
330.435	124.58
330.648	13.99
330.861	36.52
331.073	61.1
331.286	20.14
331.499	28.33
331.712	-12.63
331.925	18.09
332.138	-6.49
332.35	69.29
332.563	28.33
332.776	63.15
332.989	97.96
333.202	50.86
333.414	9.9
333.627	83.63
333.84	30.38
334.053	95.91
334.265	140.97
334.478	-10.58
334.691	93.87
334.903	83.63
335.116	38.57
335.329	1.71
335.541	50.86
335.754	52.91
335.966	-6.49
336.179	34.47
336.392	54.95
336.604	97.96
336.817	67.24
337.029	26.28
337.242	93.87
337.454	11.95
337.667	89.77
337.88	91.82
338.092	46.76
338.305	26.28
338.517	59.05
338.729	26.28
338.942	38.57
339.154	7.85
339.367	91.82
339.579	28.33
339.792	52.91
340.004	71.34
340.217	34.47
340.429	30.38
340.641	9.9
340.854	38.57
341.066	-26.96
341.278	50.86
341.491	36.52
341.703	61.1
341.915	-12.63
342.128	93.87
342.34	-0.34
342.552	1.71
342.764	110.25
342.977	110.25
343.189	59.05
343.401	-4.44
343.613	-51.54
343.826	147.11
344.038	26.28
344.25	65.19
344.462	65.19
344.674	110.25
344.886	132.78
345.099	46.76
345.311	46.76
345.523	54.95
345.735	108.2
345.947	34.47
346.159	97.96
346.371	30.38
346.583	54.95
346.795	46.76
347.007	-43.35
347.219	97.96
347.431	32.43
347.643	93.87
347.855	75.43
348.067	81.58
348.279	34.47
348.491	7.85
348.703	116.39
348.915	120.49
349.127	87.72
349.339	110.25
349.551	71.34
349.763	93.87
349.975	67.24
350.187	136.87
350.399	-8.53
350.61	46.76
350.822	63.15
351.034	63.15
351.246	22.19
351.458	46.76
351.669	52.91
351.881	54.95
352.093	79.53
352.305	63.15
352.517	83.63
352.728	71.34
352.94	34.47
353.152	50.86
353.363	57
353.575	18.09
353.787	104.11
353.999	87.72
354.21	69.29
354.422	95.91
354.633	5.8
354.845	57
355.057	18.09
355.268	46.76
355.48	69.29
355.692	71.34
355.903	38.57
356.115	124.58
356.326	57
356.538	71.34
356.749	59.05
356.961	63.15
357.172	57
357.384	28.33
357.595	54.95
357.807	73.39
358.018	-37.2
358.23	73.39
358.441	48.81
358.653	61.1
358.864	63.15
359.075	34.47
359.287	22.19
359.498	18.09
359.709	24.23
359.921	85.67
360.132	34.47
360.344	-0.34
360.555	77.48
360.766	42.67
360.977	120.49
361.189	122.54
361.4	52.91
361.611	126.63
361.823	-2.39
362.034	69.29
362.245	40.62
362.456	69.29
362.667	57
362.879	97.96
363.09	79.53
363.301	122.54
363.512	163.5
363.723	-37.2
363.935	26.28
364.146	75.43
364.357	54.95
364.568	61.1
364.779	-20.82
364.99	102.06
365.201	73.39
365.412	46.76
365.623	32.43
365.834	73.39
366.045	104.11
366.256	130.73
366.467	67.24
366.678	71.34
366.889	85.67
367.1	18.09
367.311	75.43
367.522	71.34
367.733	54.95
367.944	30.38
368.155	30.38
368.366	104.11
368.577	83.63
368.788	11.95
368.999	-0.34
369.209	79.53
369.42	102.06
369.631	97.96
369.842	30.38
370.053	93.87
370.264	112.3
370.474	-4.44
370.685	11.95
370.896	106.15
371.107	85.67
371.317	120.49
371.528	48.81
371.739	140.97
371.95	48.81
372.16	159.4
372.371	20.14
372.582	79.53
372.792	32.43
373.003	110.25
373.214	-2.39
373.424	83.63
373.635	46.76
373.846	108.2
374.056	122.54
374.267	100.01
374.477	57
374.688	63.15
374.898	3.75
375.109	100.01
375.319	93.87
375.53	63.15
375.74	116.39
375.951	95.91
376.161	52.91
376.372	110.25
376.582	77.48
376.793	87.72
377.003	69.29
377.214	79.53
377.424	85.67
377.635	147.11
377.845	-47.44
378.055	106.15
378.266	18.09
378.476	83.63
378.686	3.75
378.897	73.39
379.107	61.1
379.317	50.86
379.528	46.76
379.738	95.91
379.948	81.58
380.158	69.29
380.369	108.2
380.579	22.19
380.789	-8.53
380.999	75.43
381.21	79.53
381.42	54.95
381.63	104.11
381.84	116.39
382.05	87.72
382.261	97.96
382.471	95.91
382.681	110.25
382.891	89.77
383.101	83.63
383.311	38.57
383.521	77.48
383.731	77.48
383.941	20.14
384.151	75.43
384.361	22.19
384.571	87.72
384.781	34.47
384.991	132.78
385.201	61.1
385.411	22.19
385.621	61.1
385.831	79.53
386.041	50.86
386.251	104.11
386.461	167.59
386.671	13.99
386.881	145.06
387.091	11.95
387.301	122.54
387.511	73.39
387.72	114.34
387.93	59.05
388.14	120.49
388.35	67.24
388.56	91.82
388.769	118.44
388.979	100.01
389.189	126.63
389.399	108.2
389.609	108.2
389.818	89.77
390.028	91.82
390.238	153.26
390.447	42.67
390.657	155.3
390.867	69.29
391.076	112.3
391.286	93.87
391.496	147.11
391.705	28.33
391.915	52.91
392.125	173.74
392.334	114.34
392.544	145.06
392.753	112.3
392.963	3.75
393.172	153.26
393.382	57
393.591	136.87
393.801	177.83
394.01	165.54
394.22	171.69
394.429	102.06
394.639	108.2
394.848	110.25
395.058	116.39
395.267	83.63
395.477	134.82
395.686	97.96
395.895	200.36
396.105	149.16
396.314	124.58
396.524	126.63
396.733	77.48
396.942	104.11
397.152	130.73
397.361	155.3
397.57	183.98
397.78	145.06
397.989	136.87
398.198	218.79
398.407	163.5
398.617	110.25
398.826	163.5
399.035	175.78
399.244	116.39
399.453	179.88
399.663	130.73
399.872	85.67
400.081	91.82
400.29	181.93
400.499	143.02
400.708	204.46
400.917	126.63
401.127	192.17
401.336	126.63
401.545	204.46
401.754	153.26
401.963	198.31
402.172	149.16
402.381	183.98
402.59	67.24
402.799	134.82
403.008	128.68
403.217	186.02
403.426	198.31
403.635	159.4
403.844	173.74
404.053	253.61
404.262	218.79
404.471	216.74
404.68	216.74
404.888	231.08
405.097	206.5
405.306	173.74
405.515	175.78
405.724	188.07
405.933	341.67
406.142	235.18
406.35	259.75
406.559	235.18
406.768	292.52
406.977	267.94
407.185	235.18
407.394	280.23
407.603	296.61
407.812	286.37
408.02	224.94
408.229	290.47
408.438	333.48
408.646	321.19
408.855	302.76
409.064	401.06
409.272	319.14
409.481	464.55
409.69	372.39
409.898	417.44
410.107	491.17
410.315	468.64
410.524	478.88
410.733	470.69
410.941	450.21
411.15	489.12
411.358	638.62
411.567	552.61
411.775	562.85
411.984	540.32
412.192	665.25
412.401	702.11
412.609	732.83
412.818	681.63
413.026	738.98
413.234	667.3
413.443	708.26
413.651	794.27
413.86	788.13
414.068	847.52
414.276	855.71
414.485	888.48
414.693	853.66
414.901	929.44
415.11	980.64
415.318	1003.16
415.526	1050.27
415.734	1134.23
415.943	1142.43
416.151	1173.14
416.359	1136.28
416.567	1160.86
416.776	1224.34
416.984	1314.45
417.192	1363.61
417.4	1382.04
417.608	1453.72
417.817	1549.97
418.025	1472.15
418.233	1683.09
418.441	1619.6
418.649	1549.97
418.857	1767.06
419.065	1697.42
419.273	1840.78
419.481	1998.48
419.689	2090.63
419.897	2137.74
420.105	2299.53
420.313	2068.11
420.521	2326.15
420.729	2391.69
420.937	2442.89
421.145	2535.04
421.353	2616.96
421.561	2688.64
421.769	2768.51
421.977	2827.9
422.185	2922.11
422.393	3010.17
422.601	3288.7
422.809	3198.59
423.017	3270.26
423.224	3571.32
423.432	3673.71
423.64	3726.96
423.848	3894.9
424.056	3841.65
424.263	4099.69
424.471	4111.98
424.679	4236.91
424.887	4535.91
425.094	4501.09
425.302	4574.82
425.51	4693.6
425.718	4937.31
425.925	4929.12
426.133	5191.26
426.341	5525.08
426.548	5600.85
426.756	5703.25
426.964	5760.59
427.171	5992.02
427.379	6065.74
427.586	6387.27
427.794	6559.3
428.001	6925.89
428.209	7118.4
428.417	6981.18
428.624	7571
428.832	7593.53
429.039	7616.05
429.247	7513.66
429.454	8257.07
429.662	8748.58
429.869	8193.58
430.076	8746.53
430.284	8357.42
430.491	8980
430.699	9356.83
430.906	9422.36
431.114	9639.45
431.321	9909.78
431.528	10133.01
431.736	10845.7
431.943	11400.7
432.15	10847.75
432.358	11091.46
432.565	11654.65
432.772	11757.05
432.979	12223.98
433.187	12512.75
433.394	12625.39
433.601	13440.48
433.808	13585.88
434.016	13293.02
434.223	14063.06
434.43	14630.35
434.637	14695.88
434.844	15412.67
435.052	15605.18
435.259	15627.71
435.466	15726.01
435.673	15343.04
435.88	16725.42
436.087	17599.9
436.294	17327.52
436.501	17141.16
436.708	17487.26
436.915	17929.63
437.122	18636.17
437.329	18654.61
437.537	19322.24
437.743	19690.88
437.95	19811.71
438.157	20491.63
438.364	21419.36
438.571	21159.27
438.778	21437.8
438.985	23379.27
439.192	22476.12
439.399	23317.83
439.606	22789.45
439.813	24114.49
440.02	25568.55
440.227	24859.95
440.433	24640.82
440.64	25857.31
440.847	25599.27
441.054	26078.49
441.261	27864.32
441.467	27438.34
441.674	28179.71
441.881	28994.8
442.088	28742.9
442.294	28626.17
442.501	29525.22
442.708	30143.71
442.914	31229.13
443.121	32427.2
443.328	31755.46
443.534	34024.61
443.741	33045.68
443.948	32427.2
444.154	34882.71
444.361	34516.12
444.568	35271.82
444.774	34895
444.981	35157.14
445.187	36379.78
445.394	38087.78
445.6	37592.17
445.807	40782.91
446.013	39447.63
446.22	39844.94
446.426	41544.75
446.633	41835.56
446.839	42900.51
447.046	41270.32
447.252	43629.58
447.459	43494.42
447.665	43236.37
447.871	45210.62
448.078	46910.43
448.284	44678.14
448.491	45945.84
448.697	47942.61
448.903	48116.68
449.11	48395.21
449.316	47289.31
449.522	48417.74
449.728	49509.3
449.935	50396.07
450.141	50205.61
450.347	51338.14
450.553	49544.12
450.76	50004.91
450.966	51354.52
451.172	50527.14
451.378	52083.6
451.584	50666.41
451.791	52317.07
451.997	51803.03
452.203	52874.12
452.409	52358.03
452.615	52210.57
452.821	50248.62
453.027	49830.83
453.233	52190.09
453.44	50658.21
453.646	50834.34
453.852	51035.04
454.058	51602.33
454.264	49896.37
454.47	50826.15
454.676	49875.89
454.882	51293.08
455.088	46670.82
455.294	47184.86
455.5	47881.17
455.705	48782.27
455.911	46805.98
456.117	45714.42
456.323	44950.52
456.529	42535.97
456.735	44012.56
456.941	42998.81
457.147	42452
457.352	41204.79
457.558	40850.49
457.764	40909.88
457.97	39547.98
458.176	38831.19
458.381	38906.97
458.587	37039.22
458.793	36523.13
458.999	35140.75
459.204	37473.39
459.41	36615.29
459.616	34266.27
459.821	34063.52
460.027	33967.27
460.233	33068.21
460.438	31325.39
460.644	31954.12
460.85	30297.31
461.055	30158.05
461.261	29727.97
461.466	27723.01
461.672	26742.03
461.878	28953.84
462.083	27243.79
462.289	26582.29
462.494	26494.23
462.7	25023.79
462.905	24558.9
463.111	25451.81
463.316	25296.17
463.522	24884.53
463.727	25056.56
463.932	25126.19
464.138	24495.41
464.343	24685.87
464.549	23772.48
464.754	24808.75
464.959	24427.83
465.165	24288.57
465.37	23614.79
465.575	22760.78
465.781	23643.46
465.986	24079.68
466.191	22943.05
466.397	22381.91
466.602	21495.14
466.807	22472.02
467.012	22633.81
467.218	22158.68
467.423	21962.08
467.628	22345.05
467.833	23106.89
468.038	21953.88
468.244	21687.65
468.449	22316.37
468.654	21527.91
468.859	21359.97
469.064	21171.56
469.269	20690.29
469.474	20755.82
469.679	20852.08
469.885	20555.12
470.09	20925.8
470.295	20571.5
470.5	19809.66
470.705	20123
470.91	19729.79
471.115	19449.22
471.32	19799.42
471.525	19651.97
471.73	19250.56
471.935	18939.27
472.139	18300.31
472.344	18777.48
472.549	18535.82
472.754	18292.12
472.959	18220.44
473.164	17583.52
473.369	17434.02
473.574	17956.25
473.778	17651.1
473.983	17612.19
474.188	17536.42
474.393	16760.23
474.598	16655.79
474.802	16369.07
475.007	16291.25
475.212	16483.76
475.417	15689.15
475.621	15670.72
475.826	16119.22
476.031	15543.74
476.235	15459.77
476.44	15562.17
476.645	15269.31
476.849	15336.9
477.054	15289.79
477.259	15080.9
477.463	14863.82
477.668	14317.01
477.872	14585.29
478.077	14476.75
478.282	14077.4
478.486	14069.2
478.691	14003.67
478.895	13798.87
479.1	13989.33
479.304	13688.28
479.509	13278.69
479.713	13688.28
479.918	13358.56
480.122	12967.4
480.326	13338.08
480.531	13440.48
480.735	12967.4
480.94	13243.87
481.144	13528.54
481.348	12897.77
481.553	13227.49
481.757	13000.16
481.961	13110.75
482.166	13227.49
482.37	12996.07
482.574	12774.89
482.778	12838.37
482.983	13043.17
483.187	13010.4
483.391	13010.4
483.595	13012.45
483.8	12799.46
484.004	12899.81
484.208	13135.33
484.412	12942.82
484.616	12946.92
484.821	12869.09
485.025	12627.43
485.229	12934.63
485.433	12961.25
485.637	12865
485.841	12860.9
486.045	12865
486.249	12764.65
486.453	12740.07
486.657	12850.66
486.861	13020.64
487.065	12445.16
487.269	12764.65
487.473	12762.6
487.677	12819.94
487.881	12973.54
488.085	12897.77
488.289	12832.23
488.493	12926.44
488.697	12797.42
488.901	12983.78
489.105	12899.81
489.309	12938.73
489.512	12951.01
489.716	13082.08
489.92	13006.31
490.124	12934.63
490.328	13391.33
490.531	12957.16
490.735	13149.67
490.939	13225.44
491.143	13051.36
491.346	13211.11
491.55	13454.81
491.754	13274.59
491.958	13397.47
492.161	13438.43
492.365	13614.55
492.569	13735.39
492.772	13606.36
492.976	13780.44
493.18	13944.28
493.383	13968.85
493.587	14077.4
493.79	13751.77
493.994	13809.11
494.197	14175.7
494.401	14323.15
494.605	14300.62
494.808	14427.6
495.012	14609.87
495.215	14525.9
495.419	14865.86
495.622	14806.47
495.825	15054.28
496.029	14853.58
496.232	15408.58
496.436	15422.91
496.639	15611.32
496.843	15609.28
497.046	15760.83
497.249	16000.44
497.453	15961.53
497.656	16139.7
497.859	16356.79
498.063	16268.72
498.266	16934.31
498.469	16825.77
498.673	17178.02
498.876	17153.44
499.079	17601.95
499.282	17388.96
499.485	18036.12
499.689	18091.41
499.892	18085.27
500.095	18181.53
500.298	18531.73
500.501	18261.4
500.705	18943.37
500.908	19053.96
501.111	19295.62
501.314	19385.73
501.517	19766.65
501.72	19850.62
501.923	19887.48
502.126	20555.12
502.329	20536.69
502.532	20800.88
502.735	20624.75
502.938	21398.88
503.141	21339.49
503.344	21736.8
503.547	21949.79
503.75	21972.32
503.953	22281.56
504.156	22701.39
504.359	22762.83
504.562	23090.51
504.765	23156.04
504.968	23649.6
505.17	23795.01
505.373	23774.53
505.576	24302.9
505.779	24689.97
505.982	24692.02
506.185	25005.36
506.387	25074.99
506.59	25578.79
506.793	26074.4
506.996	25752.87
507.198	26584.34
507.401	26395.93
507.604	26658.07
507.807	27499.78
508.009	27538.69
508.212	27378.95
508.415	28237.05
508.617	28265.72
508.82	28574.97
509.022	28318.97
509.225	29181.17
509.428	29482.22
509.63	29660.39
509.833	29742.31
510.035	30563.54
510.238	29854.95
510.44	30629.08
510.643	31014.1
510.845	31368.4
511.048	31239.37
511.25	31800.52
511.453	32148.67
511.655	33191.09
511.858	32312.51
512.06	32763.06
512.262	33137.84
512.465	33326.25
512.667	34233.5
512.87	34399.39
513.072	34387.1
513.274	35114.13
513.477	35103.89
513.679	35546.25
513.881	35714.19
514.084	36365.44
514.286	36381.82
514.488	36494.46
514.69	37450.86
514.893	37502.06
515.095	37786.73
515.297	38302.82
515.499	38354.02
515.701	38982.74
515.904	38952.02
516.106	39617.61
516.308	39902.28
516.51	40117.32
516.712	39832.65
516.914	40688.7
517.116	41124.92
517.318	41899.05
517.52	41882.67
517.722	41995.31
517.925	42269.73
518.127	43140.12
518.329	43162.65
518.531	43111.45
518.733	43727.89
518.935	44336.13
519.136	43994.12
519.338	44706.82
519.54	45333.49
519.742	45308.92
519.944	45583.35
520.146	46660.58
520.348	46152.68
520.55	46431.21
520.752	46793.7
520.954	47514.58
521.155	47285.21
521.357	48128.97
521.559	48272.33
521.761	48686.02
521.963	49296.31
522.164	48933.82
522.366	49386.43
522.568	49890.23
522.77	49972.14
522.971	50795.43
523.173	50654.12
523.375	51073.95
523.576	50586.53
523.778	50932.64
523.98	52214.67
524.181	51372.95
524.383	51768.21
524.584	52665.22
524.786	52300.68
524.988	52456.33
525.189	52945.79
525.391	53224.32
525.592	53341.05
525.794	53496.7
525.995	53937.01
526.197	53730.17
526.398	53789.56
526.6	54238.06
526.801	54965.09
527.003	55313.25
527.204	54782.82
527.406	55425.88
527.607	55536.48
527.808	55767.9
528.01	55270.24
528.211	55647.07
528.412	56169.3
528.614	55753.56
528.815	55681.88
529.016	56564.56
529.218	55978.84
529.419	56572.75
529.62	56896.33
529.822	56429.39
530.023	56949.57
530.224	56630.09
530.425	56564.56
530.626	56398.67
530.828	56355.66
531.029	57551.68
531.23	56920.9
531.431	57359.17
531.632	57201.47
531.833	57629.5
532.035	57373.5
532.236	57502.53
532.437	57580.35
532.638	57680.7
532.839	57715.51
533.04	57959.22
533.241	57735.99
533.442	58153.78
533.643	57674.55
533.844	57221.95
534.045	57660.22
534.246	57269.06
534.447	58336.05
534.648	57903.93
534.849	58096.44
535.05	57383.74
535.251	57756.47
535.451	57742.14
535.652	58196.79
535.853	57451.33
536.054	58108.72
536.255	58194.74
536.456	57480
536.657	58473.26
536.857	58041.14
537.058	57549.63
537.259	58129.2
537.46	58235.7
537.66	57953.08
537.861	58092.34
538.062	57791.29
538.263	57877.3
538.463	57547.58
538.664	57680.7
538.865	58006.33
539.065	58293.04
539.266	57408.32
539.466	57932.6
539.667	57193.28
539.868	58295.09
540.068	57633.6
540.269	58039.09
540.469	58106.68
540.67	57899.83
540.87	57664.31
541.071	57957.17
541.271	57682.75
541.472	57690.94
541.672	57518.91
541.873	57279.3
542.073	56621.9
542.274	57912.12
542.474	57484.09
542.675	57174.85
542.875	57858.87
543.075	57496.38
543.276	57312.06
543.476	57742.14
543.676	57762.62
543.877	57531.2
544.077	57387.84
544.277	57373.5
544.478	57297.73
544.678	57801.53
544.878	57457.47
545.078	57203.52
545.279	56957.77
545.479	57228.1
545.679	57109.32
545.879	57477.95
546.079	57471.81
546.28	57207.62
546.48	56877.89
546.68	57281.34
546.88	57273.15
547.08	57346.88
547.28	56970.05
547.48	56994.63
547.68	57176.9
547.88	57062.21
548.081	57471.81
548.281	57187.14
548.481	56769.35
548.681	57398.08
548.881	56990.53
549.081	57056.07
549.28	56609.61
549.48	56994.63
549.68	57047.88
549.88	57645.88
550.08	56748.87
550.28	57123.65
550.48	56662.86
550.68	57035.59
550.88	56630.09
551.08	56789.83
551.279	56959.81
551.479	56441.68
551.679	56769.35
551.879	56693.58
552.079	56703.82
552.278	56576.84
552.478	56910.66
552.678	56124.24
552.878	57011.01
553.077	56531.79
553.277	55413.6
553.477	56810.31
553.676	56494.92
553.876	56658.76
554.076	56306.51
554.275	56263.5
554.475	55913.3
554.674	56093.52
554.874	55978.84
555.074	55839.57
555.273	56306.51
555.473	56478.54
555.672	55735.13
555.872	55567.19
556.071	55989.08
556.271	56081.23
556.47	55450.46
556.67	55360.35
556.869	55507.8
557.068	55753.56
557.268	55724.89
557.467	55542.62
557.667	55591.77
557.866	55378.78
558.065	55389.02
558.265	54971.24
558.464	55087.97
558.663	55749.46
558.863	55190.37
559.062	55102.31
559.261	54616.94
559.461	55524.19
559.66	54754.15
559.859	54760.3
560.058	54510.44
560.258	54942.56
560.457	54451.05
560.656	55071.59
560.855	54393.71
561.054	54248.3
561.253	54178.67
561.453	53992.31
561.652	54094.71
561.851	54313.84
562.05	53920.63
562.249	53996.4
562.448	54137.71
562.647	53871.48
562.846	53728.12
563.045	53932.92
563.244	53252.99
563.443	54068.08
563.642	53037.95
563.841	53449.6
564.04	53009.28
564.239	53519.23
564.438	52712.33
564.637	53209.98
564.836	53048.19
565.035	52460.43
565.234	52960.13
565.432	52607.88
565.631	52308.88
565.83	52599.69
566.029	52124.56
566.228	52054.93
566.427	52306.83
566.625	51569.56
566.824	51272.6
567.023	52214.67
567.222	51258.27
567.42	52089.74
567.619	51458.97
567.818	51735.45
568.016	51010.46
568.215	51532.7
568.414	51039.14
568.612	51700.63
568.811	50772.9
569.01	51387.29
569.208	50207.66
569.407	50932.64
569.605	50170.8
569.804	50877.35
570.002	50080.69
570.201	50684.84
570.4	49755.06
570.598	49873.84
570.797	49388.47
570.995	49734.58
571.193	49071.04
571.392	49687.48
571.59	49161.15
571.789	49288.12
571.987	49241.02
572.186	49222.59
572.384	48645.06
572.582	49425.34
572.781	48944.06
572.979	48120.78
573.177	48729.03
573.376	48862.15
573.574	48274.38
573.772	48647.11
573.971	48526.28
574.169	47805.39
574.367	47848.4
574.565	48174.03
574.763	47686.61
574.962	47809.49
575.16	46865.38
575.358	47594.45
575.556	47086.56
575.754	47598.55
575.952	46863.33
576.151	47252.44
576.349	46619.62
576.547	46676.96
576.745	46851.04
576.943	46621.67
577.141	46396.39
577.339	46748.64
577.537	46414.82
577.735	45974.51
577.933	45763.57
578.131	45515.76
578.329	45700.08
578.527	45431.8
578.725	45708.27
578.923	45843.44
579.121	45257.72
579.319	45190.14
579.516	44971
579.714	44932.09
579.912	44760.06
580.11	44551.17
580.308	44952.57
580.506	44616.71
580.704	44309.51
580.901	44667.91
581.099	44592.13
581.297	44090.38
581.495	44284.93
581.692	43940.88
581.89	43760.65
582.088	43867.15
582.285	42877.98
582.483	43525.14
582.681	43625.49
582.878	43392.02
583.076	42605.6
583.274	43461.65
583.471	42640.42
583.669	43361.3
583.866	42804.25
584.064	42953.76
584.262	42140.71
584.459	42757.15
584.657	42425.38
584.854	42791.97
585.052	41606.19
585.249	41712.69
585.447	41739.31
585.644	41493.55
585.841	41704.49
586.039	41882.67
586.236	41419.83
586.434	41198.65
586.631	41106.49
586.828	41247.8
587.026	41118.78
587.223	40971.32
587.42	40401.99
587.618	41051.19
587.815	40256.58
588.012	40539.2
588.21	40139.85
588.407	40455.23
588.604	40191.05
588.801	39711.82
588.999	40008.78
589.196	40068.17
589.393	39695.44
589.59	39660.62
589.787	39486.54
589.984	39611.47
590.182	38964.31
590.379	39328.85
590.576	38835.29
590.773	38915.16
590.97	38599.77
591.167	39275.6
591.364	38206.56
591.561	38845.53
591.758	37952.62
591.955	38028.39
592.152	38689.88
592.349	38024.29
592.546	37786.73
592.743	37813.35
592.94	37452.91
593.137	37796.97
593.334	37903.46
593.531	37133.43
593.727	37469.29
593.924	37524.59
594.121	37256.31
594.318	37479.53
594.515	36795.51
594.712	37047.41
594.908	36484.22
595.105	36877.43
595.302	36441.21
595.499	36738.17
595.696	36500.61
595.892	36103.3
596.089	36387.97
596.286	36508.8
596.482	36312.19
596.679	35781.77
596.876	35732.62
597.072	35503.24
597.269	35855.5
597.466	35675.27
597.662	35253.39
597.859	35427.47
598.055	34991.25
598.252	34890.9
598.448	34755.74
598.645	34737.3
598.841	34393.25
599.038	34665.63
599.234	34610.33
599.431	34221.22
599.627	34426.01
599.824	34340
600.02	33844.39
600.217	34327.71
600.413	33957.03
600.609	33737.9
600.806	33651.88
601.002	34041
601.198	33774.76
601.395	33559.72
601.591	33133.75
601.787	32978.1
601.984	32941.24
602.18	33035.44
602.376	32625.85
602.572	32793.78
602.769	32564.41
602.965	32533.69
603.161	32832.69
603.357	32378.04
603.553	31929.54
603.75	32726.2
603.946	32031.94
604.142	32091.33
604.338	31669.45
604.534	32185.54
604.73	31403.21
604.926	31636.68
605.122	31730.89
605.318	31515.85
605.514	31362.25
605.71	31100.11
605.906	31020.24
606.102	31034.58
606.298	31245.52
606.494	31059.15
606.69	31120.59
606.886	30932.18
607.082	30463.19
607.278	30739.67
607.474	30395.61
607.67	30878.93
607.866	30090.46
608.062	30711
608.257	30307.55
608.453	30250.21
608.649	29857
608.845	29977.83
609.041	29955.3
609.236	30053.6
609.432	29832.42
609.628	29889.76
609.824	30090.46
610.019	29603.05
610.215	29816.04
610.411	29869.28
610.606	29469.93
610.802	29459.69
610.998	29777.12
611.193	29256.94
611.389	29390.06
611.584	29080.81
611.78	28884.21
611.976	29132.01
612.171	29050.1
612.367	29119.73
612.562	28919.03
612.758	28491
612.953	28609.78
613.149	28738.8
613.344	28429.56
613.539	29027.57
613.735	28833.01
613.93	28697.84
614.126	28138.75
614.321	28718.32
614.517	28591.35
614.712	28523.77
614.907	27964.67
615.103	28347.64
615.298	28122.37
615.493	28132.61
615.688	27809.03
615.884	28404.99
616.079	27890.95
616.274	27864.32
616.47	27888.9
616.665	27976.96
616.86	27643.14
617.055	27618.57
617.25	27407.62
617.445	27591.94
617.641	27286.79
617.836	27628.81
618.031	26688.79
618.226	27596.04
618.421	26918.16
618.616	27487.5
618.811	26975.5
619.006	27135.24
619.201	26516.76
619.396	27346.19
619.591	26180.89
619.786	26813.71
619.981	26008.86
620.176	26250.52
620.371	26322.2
620.566	26113.31
620.761	25906.46
620.956	25908.51
621.151	25726.24
621.346	25820.45
621.541	25306.41
621.735	25613.6
621.93	25443.62
622.125	25287.98
622.32	24864.05
622.515	25122.09
622.709	24952.11
622.904	24644.91
623.099	24814.9
623.294	24409.4
623.488	23936.32
623.683	24257.85
623.878	23983.42
624.072	24091.96
624.267	23870.78
624.462	23835.97
624.656	23510.34
624.851	23424.33
625.046	23342.41
625.24	23299.4
625.435	22881.61
625.629	23063.88
625.824	22713.68
626.018	22891.85
626.213	22359.38
626.407	22562.13
626.602	21914.97
626.796	22390.1
626.991	22343
627.185	22078.81
627.38	21939.55
627.574	21634.4
627.768	21654.88
627.963	21560.67
628.157	21153.13
628.352	21282.15
628.546	21071.21
628.74	21241.19
628.935	21022.06
629.129	20946.28
629.323	20569.46
629.517	20733.29
629.712	20333.94
629.906	20331.89
630.1	20254.07
630.294	20233.59
630.489	20071.8
630.683	20262.26
630.877	20012.41
631.071	19680.64
631.265	19826.04
631.459	19869.05
631.653	19477.89
631.848	19217.8
632.042	19369.35
632.236	19725.69
632.43	19107.21
632.624	18967.95
632.818	18986.38
633.012	18881.93
633.206	18816.4
633.4	18666.89
633.594	18464.14
633.788	18173.33
633.982	18521.49
634.176	18191.77
634.369	18167.19
634.563	18234.77
634.757	17913.24
634.951	18046.36
635.145	17995.16
635.339	17773.98
635.533	17571.23
635.726	17614.24
635.92	17280.42
636.114	17495.46
636.308	17393.06
636.501	17163.68
636.695	17122.73
636.889	17116.58
637.083	16725.42
637.276	17001.9
637.47	16766.38
637.664	16442.8
637.857	16688.56
638.051	16590.25
638.244	16227.76
638.438	16291.25
638.632	16369.07
638.825	16182.71
639.019	16031.16
639.212	16000.44
639.406	15930.81
639.599	15846.84
639.793	15551.93
639.986	15562.17
640.18	15842.74
640.373	15549.89
640.567	15336.9
640.76	15379.9
640.954	15107.52
641.147	15263.17
641.34	15119.81
641.534	14968.26
641.727	14665.16
641.92	14896.58
642.114	14806.47
642.307	14814.66
642.5	14669.26
642.694	14269.9
642.887	14284.24
643.08	14407.12
643.273	14298.58
643.467	14128.6
643.66	14120.4
643.853	13964.76
644.046	13878.74
644.239	13956.57
644.432	13827.54
644.626	13667.8
644.819	13387.23
645.012	13362.65
645.205	13506.01
645.398	13518.3
645.591	13243.87
645.784	13383.13
645.977	13288.93
646.17	13110.75
646.363	12762.6
646.556	13104.61
646.749	13073.89
646.942	12844.52
647.135	12705.26
647.328	12899.81
647.521	12752.36
647.714	12432.88
647.907	12443.12
648.099	12400.11
648.292	12629.48
648.485	12510.7
648.678	12223.98
648.871	12205.55
649.064	12068.34
649.256	12387.82
649.449	11967.99
649.642	12170.74
649.835	11693.56
650.027	11937.27
650.22	11892.21
650.413	11648.5
650.605	11613.69
650.798	11646.46
650.991	11605.5
651.183	11509.24
651.376	11392.51
651.568	11273.73
651.761	11251.2
651.954	11304.45
652.146	11331.07
652.339	11027.97
652.531	10903.04
652.724	11161.09
652.916	10771.97
653.109	10851.85
653.301	10778.12
653.494	10876.42
653.686	10542.6
653.879	10688.01
654.071	10647.05
654.263	10520.07
654.456	10585.61
654.648	10579.47
654.84	10212.88
655.033	10333.71
655.225	10313.23
655.417	10325.52
655.61	10235.41
655.802	10001.94
655.994	9971.22
656.186	10241.55
656.379	9928.21
656.571	9952.79
656.763	9909.78
656.955	9747.99
657.148	9645.59
657.34	9815.57
657.532	9631.26
657.724	9512.47
657.916	9608.73
658.108	9725.46
658.3	9307.68
658.492	9567.77
658.684	9440.79
658.876	9276.96
659.068	9127.46
659.26	9176.61
659.452	9043.49
659.644	9219.61
659.836	9094.69
660.028	9029.15
660.22	9031.2
660.412	8855.08
660.604	8924.71
660.796	9002.53
660.988	8642.09
661.18	8662.57
661.372	8769.06
661.563	8625.7
661.755	8494.63
661.947	8597.03
662.139	8637.99
662.331	8570.41
662.522	8459.82
662.714	8490.54
662.906	8494.63
663.097	8384.04
663.289	8097.33
663.481	8150.57
663.673	8199.73
663.864	8037.94
664.056	8121.9
664.247	8009.26
664.439	7904.82
664.631	7988.78
664.822	7945.78
665.014	7857.71
665.205	7771.7
665.397	7876.15
665.588	7650.87
665.78	7661.11
665.971	7484.98
666.163	7636.53
666.354	7556.66
666.546	7642.68
666.737	7421.5
666.929	7417.4
667.12	7630.39
667.311	7497.27
667.503	7292.48
667.694	7317.05
667.885	7497.27
668.077	7335.48
668.268	7331.39
668.459	7265.85
668.651	7102.01
668.842	7239.23
669.033	6962.75
669.224	6966.85
669.416	7116.35
669.607	6993.47
669.798	6886.98
669.989	7087.68
670.18	6782.53
670.371	6803.01
670.563	6815.3
670.754	6827.59
670.945	6839.87
671.136	6741.57
671.327	6696.52
671.518	6760
671.709	6753.86
671.9	6671.94
672.091	6696.52
672.282	6471.24
672.473	6575.69
672.664	6530.63
672.855	6538.82
673.046	6600.26
673.237	6403.66
673.428	6420.04
673.619	6231.63
673.809	6299.21
674	6248.01
674.191	6262.35
674.382	6360.65
674.573	6411.85
674.764	6297.16
674.954	6223.44
675.145	6131.28
675.336	6129.23
675.527	6233.68
675.717	6059.6
675.908	6006.35
676.099	6108.75
676.289	6184.52
676.48	6086.22
676.671	5938.77
676.861	5889.62
677.052	5803.6
677.243	5740.12
677.433	5797.46
677.624	6086.22
677.814	5934.67
678.005	5817.94
678.195	5815.89
678.386	5856.85
678.576	5756.5
678.767	5854.8
678.957	5652.05
679.148	5826.13
679.338	5729.88
679.529	5748.31
679.719	5652.05
679.909	5604.95
680.1	5650
680.29	5592.66
680.481	5697.11
680.671	5461.59
680.861	5598.81
681.052	5568.09
681.242	5459.54
681.432	5502.55
681.622	5353.05
681.813	5398.1
682.003	5385.82
682.193	5324.38
682.383	5504.6
682.573	5410.39
682.764	5324.38
682.954	5396.06
683.144	5287.51
683.334	5264.99
683.524	5135.96
683.714	5318.23
683.904	5324.38
684.094	5293.66
684.284	5129.82
684.474	5133.92
684.664	5187.16
684.854	5172.83
685.044	5262.94
685.234	5148.25
685.424	5168.73
685.614	4968.03
685.804	4976.22
685.994	5176.92
686.184	5076.57
686.374	5015.13
686.564	4824.67
686.753	4951.65
686.943	4875.87
687.133	4869.73
687.323	4904.54
687.513	4968.03
687.702	4972.13
687.892	4855.39
688.082	4843.1
688.272	4873.82
688.461	4873.82
688.651	4666.98
688.841	4683.36
689.03	4730.47
689.22	4595.3
689.41	4863.58
689.599	4695.65
689.789	4742.75
689.979	4601.44
690.168	4554.34
690.358	4464.23
690.547	4433.51
690.737	4552.29
690.926	4544.1
691.116	4566.63
691.305	4621.92
691.495	4419.18
691.684	4345.45
691.874	4535.91
692.063	4529.77
692.252	4392.55
692.442	4359.78
692.631	4228.71
692.82	4226.67
693.01	4214.38
693.199	4241
693.388	4400.74
693.578	4226.67
693.767	4302.44
693.956	4228.71
694.146	4257.39
694.335	4273.77
694.524	4243.05
694.713	4183.66
694.902	3982.96
695.092	4060.78
695.281	4208.23
695.47	4021.87
695.659	4036.21
695.848	4083.31
696.037	4003.44
696.226	4107.88
696.415	4095.6
696.604	4023.92
696.793	4005.49
696.982	4038.25
697.171	4046.44
697.36	3989.1
697.549	4001.39
697.738	3995.25
697.927	3860.08
698.116	3976.81
698.305	3919.47
698.494	4011.63
698.683	3917.42
698.872	3935.85
699.061	3759.73
699.25	3866.22
699.438	3837.55
699.627	3882.61
699.816	3812.98
700.005	3907.18
700.193	3847.79
700.382	3835.5
700.571	3808.88
700.76	3942
700.948	3800.69
701.137	3755.63
701.326	3845.74
701.514	3823.22
701.703	3802.74
701.892	3767.92
702.08	3757.68
702.269	3933.81
702.457	3733.11
702.646	3649.14
702.834	3708.53
703.023	3765.87
703.212	3735.15
703.4	3765.87
703.589	3649.14
703.777	3853.94
703.965	3673.71
704.154	3653.23
704.342	3667.57
704.531	3696.24
704.719	3595.89
704.907	3837.55
705.096	3602.04
705.284	3718.77
705.472	3659.38
705.661	3552.88
705.849	3659.38
706.037	3714.67
706.226	3726.96
706.414	3716.72
706.602	3544.69
706.79	3683.95
706.979	3626.61
707.167	3581.56
707.355	3628.66
707.543	3630.71
707.731	3638.9
707.919	3620.47
708.107	3669.62
708.296	3501.69
708.484	3526.26
708.672	3503.73
708.86	3655.28
709.048	3524.21
709.236	3421.81
709.424	3663.47
709.612	3597.94
709.8	3552.88
709.988	3481.21
710.176	3683.95
710.364	3458.68
710.551	3520.12
710.739	3444.34
710.927	3470.97
711.115	3470.97
711.303	3470.97
711.491	3505.78
711.679	3411.57
711.866	3440.25
712.054	3528.31
712.242	3391.09
712.43	3442.29
712.617	3393.14
712.805	3311.22
712.993	3589.75
713.181	3442.29
713.368	3335.8
713.556	3456.63
713.744	3286.65
713.931	3518.07
714.119	3376.76
714.306	3401.33
714.494	3450.49
714.682	3343.99
714.869	3513.97
715.057	3284.6
715.244	3212.92
715.432	3237.5
715.619	3366.52
715.807	3413.62
715.994	3313.27
716.182	3292.79
716.369	3292.79
716.556	3239.55
716.744	3403.38
716.931	3276.41
717.119	3393.14
717.306	3364.47
717.493	3147.39
717.681	3335.8
717.868	3315.32
718.055	3311.22
718.242	3284.6
718.43	3401.33
718.617	3300.98
718.804	3268.22
718.991	3325.56
719.179	3317.37
719.366	3274.36
719.553	3194.49
719.74	3192.44
719.927	3225.21
720.114	3311.22
720.301	3174.01
720.488	3042.94
720.676	3260.02
720.863	3270.26
721.05	3120.76
721.237	3221.11
721.424	3180.15
721.611	3255.93
721.798	3106.43
721.985	3104.38
722.172	3194.49
722.358	3098.24
722.545	3210.87
722.732	3208.83
722.919	3188.35
723.106	3171.96
723.293	3143.29
723.48	3139.19
723.667	3196.54
723.853	3081.85
724.04	2999.93
724.227	3126.91
724.414	3206.78
724.6	3165.82
724.787	3118.72
724.974	3016.32
725.161	3135.1
725.347	3030.65
725.534	3020.41
725.72	3008.12
725.907	3143.29
726.094	3083.9
726.28	2950.78
726.467	3110.52
726.653	2905.73
726.84	3081.85
727.027	3075.71
727.213	2942.59
727.4	3112.57
727.586	3055.23
727.773	3073.66
727.959	3024.51
728.145	3006.08
728.332	3024.51
728.518	2948.73
728.705	2979.45
728.891	3012.22
729.077	2907.77
729.264	2936.45
729.45	2985.6
729.636	3069.56
729.823	2987.65
730.009	3098.24
730.195	2969.21
730.382	3059.32
730.568	2999.93
730.754	2915.97
730.94	2940.54
731.126	2961.02
731.313	2956.93
731.499	2885.25
731.685	2938.49
731.871	2868.86
732.057	2807.42
732.243	3100.28
732.429	2907.77
732.615	2895.49
732.801	2975.36
732.987	2805.38
733.173	2786.94
733.359	2924.16
733.545	2956.93
733.731	2797.18
733.917	2971.26
734.103	3026.56
734.289	2969.21
734.475	2899.58
734.661	2852.48
734.847	2840.19
735.033	2860.67
735.219	2846.34
735.404	2840.19
735.59	2858.62
735.776	2850.43
735.962	2905.73
736.148	2797.18
736.333	2858.62
736.519	2793.09
736.705	2889.34
736.89	2750.08
737.076	2860.67
737.262	2832
737.447	2915.97
737.633	2786.94
737.819	2832
738.004	2752.13
738.19	2754.18
738.375	2696.83
738.561	2756.22
738.747	2780.8
738.932	2700.93
739.118	2774.66
739.303	2827.9
739.489	2729.6
739.674	2553.48
739.859	2696.83
740.045	2709.12
740.23	2782.85
740.416	2754.18
740.601	2547.33
740.786	2653.83
740.972	2653.83
741.157	2592.39
741.342	2702.98
741.528	2629.25
741.713	2625.15
741.898	2608.77
742.084	2619.01
742.269	2489.99
742.454	2616.96
742.639	2492.04
742.824	2539.14
743.01	2569.86
743.195	2586.24
743.38	2551.43
743.565	2612.87
743.75	2504.32
743.935	2504.32
744.12	2483.84
744.305	2459.27
744.49	2496.13
744.675	2498.18
744.86	2389.64
745.045	2350.73
745.23	2408.07
745.415	2469.51
745.6	2422.41
745.785	2369.16
745.97	2414.21
746.155	2340.49
746.34	2336.39
746.525	2326.15
746.71	2348.68
746.895	2233.99
747.079	2240.14
747.264	2367.11
747.449	2248.33
747.634	2250.38
747.819	2279.05
748.003	2225.8
748.188	2143.88
748.373	2240.14
748.557	2233.99
748.742	2158.22
748.927	2119.31
749.111	2201.23
749.296	2059.92
749.481	2027.15
749.665	2090.63
749.85	2076.3
750.034	2139.79
750.219	2098.83
750.404	1988.24
750.588	1986.19
750.773	2018.96
750.957	2051.72
751.141	1975.95
751.326	1939.09
751.51	1934.99
751.695	1943.18
751.879	1969.8
752.064	2014.86
752.248	1959.56
752.432	1934.99
752.617	1965.71
752.801	1922.7
752.985	1859.21
753.17	1898.13
753.354	1877.65
753.538	1865.36
753.722	1830.54
753.907	1779.34
754.091	1724.05
754.275	1848.97
754.459	1683.09
754.643	1793.68
754.828	1650.32
755.012	1715.86
755.196	1758.86
755.38	1668.75
755.564	1685.14
755.748	1621.65
755.932	1668.75
756.116	1724.05
756.3	1726.1
756.484	1648.27
756.668	1562.26
756.852	1635.99
757.036	1517.2
757.22	1635.99
757.404	1517.2
757.588	1693.33
757.772	1519.25
757.956	1529.49
758.14	1617.55
758.323	1468.05
758.507	1527.44
758.691	1502.87
758.875	1527.44
759.059	1535.64
759.242	1535.64
759.426	1470.1
759.61	1521.3
759.794	1339.03
759.977	1517.2
760.161	1543.83
760.345	1382.04
760.528	1445.52
760.712	1427.09
760.895	1394.33
761.079	1472.15
761.263	1365.65
761.446	1463.96
761.63	1357.46
761.813	1394.33
761.997	1425.04
762.18	1328.79
762.364	1437.33
762.547	1279.64
762.731	1357.46
762.914	1312.41
763.098	1289.88
763.281	1328.79
763.464	1375.89
763.648	1341.08
763.831	1189.53
764.015	1367.7
764.198	1267.35
764.381	1334.93
764.564	1302.17
764.748	1359.51
764.931	1244.82
765.114	1244.82
765.297	1289.88
765.481	1212.06
765.664	1199.77
765.847	1187.48
766.03	1185.43
766.213	1214.1
766.397	1148.57
766.58	1185.43
766.763	1281.69
766.946	1236.63
767.129	1246.87
767.312	1117.85
767.495	1265.3
767.678	1201.82
767.861	1095.32
768.044	1193.62
768.227	1107.61
768.41	1150.62
768.593	1205.91
768.776	1148.57
768.959	1144.47
769.142	1093.27
769.324	1248.92
769.507	1105.56
769.69	1160.86
769.873	1052.31
770.056	1181.34
770.239	1027.74
770.421	1136.28
770.604	1160.86
770.787	1130.14
770.97	1140.38
771.152	1062.55
771.335	1078.94
771.518	1091.23
771.7	1060.51
771.883	1089.18
772.066	1044.12
772.248	1003.16
772.431	1119.9
772.613	1046.17
772.796	1046.17
772.978	994.97
773.161	1048.22
773.343	978.59
773.526	978.59
773.708	1052.31
773.891	962.2
774.073	992.92
774.256	958.11
774.438	966.3
774.621	994.97
774.803	1003.16
774.985	962.2
775.168	904.86
775.35	939.68
775.532	988.83
775.715	935.58
775.897	927.39
776.079	868
776.261	968.35
776.444	913.05
776.626	931.48
776.808	884.38
776.99	843.42
777.173	837.28
777.355	845.47
777.537	824.99
777.719	882.33
777.901	872.09
778.083	831.13
778.265	767.65
778.447	794.27
778.629	935.58
778.811	841.37
778.993	882.33
779.175	765.6
779.357	814.75
779.539	738.98
779.721	769.69
779.903	771.74
780.085	794.27
780.267	757.41
780.449	810.65
780.631	822.94
780.812	812.7
780.994	743.07
781.176	704.16
781.358	779.93
781.54	753.31
781.721	755.36
781.903	800.41
782.085	657.06
782.267	722.59
782.448	667.3
782.63	695.97
782.812	646.82
782.993	700.06
783.175	630.43
783.357	560.8
783.538	714.4
783.72	636.58
783.901	652.96
784.083	622.24
784.264	605.86
784.446	720.54
784.627	638.62
784.809	612
784.99	609.95
785.172	583.33
785.353	640.67
785.535	644.77
785.716	560.8
785.897	573.09
786.079	566.95
786.26	548.51
786.441	542.37
786.623	544.42
786.804	519.84
786.985	540.32
787.167	538.27
787.348	470.69
787.529	560.8
787.71	544.42
787.891	622.24
788.073	480.93
788.254	466.6
788.435	528.03
788.616	546.47
788.797	437.92
788.978	464.55
789.159	503.46
789.34	525.99
789.522	489.12
789.703	546.47
789.884	505.51
790.065	499.36
790.246	454.31
790.427	425.64
790.607	450.21
790.788	468.64
790.969	337.57
791.15	437.92
791.331	388.77
791.512	491.17
791.693	464.55
791.874	399.01
792.054	415.4
792.235	452.26
792.416	448.16
792.597	396.96
792.778	384.68
792.958	405.16
793.139	413.35
793.32	417.44
793.5	392.87
793.681	444.07
793.862	437.92
794.042	413.35
794.223	448.16
794.404	452.26
794.584	392.87
794.765	376.48
794.945	374.44
795.126	405.16
795.306	349.86
795.487	403.11
795.667	310.95
795.848	353.96
796.028	335.53
796.209	325.29
796.389	386.72
796.57	442.02
796.75	374.44
796.93	366.25
797.111	364.2
797.291	278.18
797.471	384.68
797.652	431.78
797.832	327.33
798.012	235.18
798.192	308.9
798.373	331.43
798.553	335.53
798.733	401.06
798.913	362.15
799.093	382.63
799.274	337.57
799.454	343.72
799.634	325.29
799.814	304.81
799.994	292.52
800.174	290.47
800.354	343.72
800.534	308.9
800.714	372.39
800.894	257.7
801.074	327.33
801.254	347.81
801.434	384.68
801.614	255.65
801.794	253.61
801.974	710.3
802.154	249.51
802.334	249.51
802.514	212.65
802.693	394.92
802.873	308.9
803.053	267.94
803.233	317.09
803.413	276.13
803.592	243.37
803.772	235.18
803.952	267.94
804.131	247.46
804.311	302.76
804.491	308.9
804.67	208.55
804.85	323.24
805.03	233.13
805.209	265.89
805.389	255.65
805.568	310.95
805.748	300.71
805.928	247.46
806.107	313
806.287	251.56
806.466	317.09
806.646	327.33
806.825	220.84
807.004	224.94
807.184	310.95
807.363	267.94
807.543	249.51
807.722	220.84
807.901	241.32
808.081	241.32
808.26	116.39
808.439	231.08
808.619	282.28
808.798	218.79
808.977	165.54
809.156	302.76
809.336	183.98
809.515	278.18
809.694	224.94
809.873	183.98
810.052	214.7
810.231	276.13
810.411	292.52
810.59	222.89
810.769	190.12
810.948	255.65
811.127	269.99
811.306	226.98
811.485	226.98
811.664	188.07
811.843	214.7
812.022	194.22
812.201	226.98
812.38	194.22
812.559	132.78
812.737	161.45
812.916	192.17
813.095	108.2
813.274	229.03
813.453	218.79
813.632	288.42
813.811	239.27
813.989	192.17
814.168	122.54
814.347	126.63
814.526	263.85
814.704	128.68
814.883	169.64
815.062	161.45
815.24	231.08
815.419	159.4
815.598	124.58
815.776	173.74
815.955	173.74
816.133	202.41
816.312	130.73
816.49	136.87
816.669	122.54
816.847	165.54
817.026	192.17
817.204	149.16
817.383	206.5
817.561	112.3
817.74	173.74
817.918	231.08
818.097	126.63
818.275	186.02
818.453	243.37
818.632	190.12
818.81	188.07
818.988	190.12
819.167	116.39
819.345	169.64
819.523	50.86
819.701	140.97
819.879	143.02
820.058	181.93
820.236	112.3
820.414	155.3
820.592	132.78
820.77	118.44
820.948	124.58
821.127	120.49
821.305	190.12
821.483	79.53
821.661	163.5
821.839	134.82
822.017	175.78
822.195	171.69
822.373	145.06
822.551	171.69
822.729	149.16
822.907	163.5
823.085	140.97
823.262	132.78
823.44	136.87
823.618	151.21
823.796	204.46
823.974	136.87
824.152	116.39
824.329	145.06
824.507	75.43
824.685	169.64
824.863	134.82
825.04	140.97
825.218	100.01
825.396	138.92
825.574	157.35
825.751	100.01
825.929	134.82
826.107	79.53
826.284	179.88
826.462	95.91
826.639	124.58
826.817	130.73
826.994	120.49
827.172	122.54
827.349	73.39
827.527	210.6
827.704	130.73
827.882	112.3
828.059	149.16
828.237	134.82
828.414	153.26
828.591	126.63
828.769	151.21
828.946	159.4
829.124	91.82
829.301	124.58
829.478	38.57
829.655	95.91
829.833	120.49
830.01	61.1
830.187	140.97
830.364	116.39
830.542	81.58
830.719	122.54
830.896	130.73
831.073	143.02
831.25	128.68
831.427	143.02
831.604	173.74
831.782	122.54
831.959	130.73
832.136	50.86
832.313	100.01
832.49	28.33
832.667	124.58
832.844	71.34
833.021	102.06
833.198	118.44
833.374	50.86
833.551	120.49
833.728	89.77
833.905	95.91
834.082	114.34
834.259	63.15
834.436	151.21
834.612	61.1
834.789	194.22
834.966	138.92
835.143	100.01
835.319	54.95
835.496	93.87
835.673	61.1
835.85	89.77
836.026	77.48
836.203	179.88
836.38	28.33
836.556	100.01
836.733	138.92
836.909	110.25
837.086	40.62
837.262	149.16
837.439	54.95
837.616	81.58
837.792	134.82
837.968	59.05
838.145	-6.49
838.321	46.76
838.498	120.49
838.674	40.62
838.851	100.01
839.027	114.34
839.203	85.67
839.38	140.97
839.556	79.53
839.732	181.93
839.909	57
840.085	120.49
840.261	26.28
840.437	83.63
840.614	108.2
840.79	79.53
840.966	95.91
841.142	30.38
841.318	42.67
841.494	140.97
841.671	100.01
841.847	69.29
842.023	40.62
842.199	112.3
842.375	161.45
842.551	75.43
842.727	-2.39
842.903	48.81
843.079	59.05
843.255	75.43
843.431	104.11
843.607	126.63
843.783	67.24
843.959	114.34
844.134	26.28
844.31	63.15
844.486	50.86
844.662	32.43
844.838	22.19
845.013	83.63
845.189	18.09
845.365	81.58
845.541	46.76
845.716	50.86
845.892	71.34
846.068	161.45
846.244	54.95
846.419	34.47
846.595	54.95
846.77	46.76
846.946	3.75
847.122	77.48
847.297	-10.58
847.473	100.01
847.648	97.96
847.824	100.01
847.999	30.38
848.175	65.19
848.35	108.2
848.526	69.29
848.701	40.62
848.876	30.38
849.052	77.48
849.227	54.95
849.403	42.67
849.578	38.57
849.753	-14.68
849.929	116.39
850.104	52.91
850.279	-0.34
850.454	-4.44
850.63	65.19
850.805	67.24
850.98	75.43
851.155	-14.68
851.33	100.01
851.505	11.95
851.681	63.15
851.856	38.57
852.031	95.91
852.206	46.76
852.381	42.67
852.556	11.95
852.731	34.47
852.906	73.39
853.081	48.81
853.256	26.28
853.431	69.29
853.606	30.38
853.781	59.05
853.956	46.76
854.131	75.43
854.305	18.09
854.48	34.47
854.655	-10.58
854.83	48.81
855.005	-22.87
855.18	40.62
855.354	7.85
855.529	42.67
855.704	-29.01
855.879	147.11
856.053	48.81
856.228	26.28
856.403	40.62
856.577	59.05
856.752	108.2
856.926	65.19
857.101	-16.73
857.276	85.67
857.45	46.76
857.625	-2.39
857.799	-12.63
857.974	1.71
858.148	34.47
858.323	46.76
858.497	54.95
858.672	11.95
858.846	-24.92
859.02	153.26
859.195	-8.53
859.369	59.05
859.543	73.39
859.718	93.87
859.892	67.24
860.066	50.86
860.241	-20.82
860.415	61.1
860.589	16.04
860.763	-18.77
860.938	-43.35
861.112	122.54
861.286	44.71
861.46	-4.44
861.634	-26.96
861.808	38.57
861.982	42.67
862.157	-8.53
862.331	36.52
862.505	57
862.679	59.05
862.853	-2.39
863.027	-0.34
863.201	28.33
863.375	7.85
863.549	-0.34
863.722	65.19
863.896	59.05
864.07	61.1
864.244	-0.34
864.418	38.57
864.592	-26.96
864.766	22.19
864.939	73.39
865.113	5.8
865.287	120.49
865.461	-14.68
865.634	36.52
865.808	-16.73
865.982	38.57
866.156	28.33
866.329	-14.68
866.503	83.63
866.676	-12.63
866.85	63.15
867.024	22.19
867.197	34.47
867.371	-0.34
867.544	42.67
867.718	-6.49
867.891	-31.06
868.065	44.71
868.238	28.33
868.412	38.57
868.585	24.23
868.759	69.29
868.932	-24.92
869.105	11.95
869.279	52.91
869.452	63.15
869.625	42.67
869.799	20.14
869.972	18.09
870.145	-49.49
870.319	71.34
870.492	5.8
870.665	-22.87
870.838	44.71
871.011	-0.34
871.185	13.99
871.358	-39.25
871.531	42.67
871.704	181.93
871.877	22.19
872.05	-65.88
872.223	38.57
872.396	46.76
872.569	50.86
872.742	71.34
872.915	16.04
873.088	46.76
873.261	97.96
873.434	20.14
873.607	16.04
873.78	-22.87
873.953	36.52
874.126	81.58
874.299	-18.77
874.471	30.38
874.644	-24.92
874.817	-8.53
874.99	20.14
875.163	-26.96
875.335	63.15
875.508	54.95
875.681	-26.96
875.853	-74.07
876.026	34.47
876.199	-22.87
876.371	9.9
876.544	38.57
876.717	50.86
876.889	-4.44
877.062	40.62
877.234	-10.58
877.407	20.14
877.579	-43.35
877.752	50.86
877.924	42.67
878.097	24.23
878.269	-14.68
878.442	30.38
878.614	83.63
878.786	52.91
878.959	40.62
879.131	-37.2
879.303	42.67
879.476	38.57
879.648	36.52
879.82	59.05
879.993	-33.11
880.165	-6.49
880.337	26.28
880.509	40.62
880.681	-102.74
880.854	5.8
881.026	-22.87
881.198	79.53
881.37	-45.4
881.542	71.34
881.714	79.53
881.886	52.91
882.058	36.52
882.23	11.95
882.402	16.04
882.574	40.62
882.746	9.9
882.918	122.54
883.09	50.86
883.262	3.75
883.434	28.33
883.606	-2.39
883.778	95.91
883.95	7.85
884.122	30.38
884.293	22.19
884.465	-2.39
884.637	28.33
884.809	-35.16
884.98	13.99
885.152	54.95
885.324	48.81
885.496	46.76
885.667	-102.74
885.839	26.28
886.011	95.91
886.182	61.1
886.354	24.23
886.525	30.38
886.697	38.57
886.869	-63.83
887.04	40.62
887.212	-8.53
887.383	34.47
887.555	-45.4
887.726	-8.53
887.897	3.75
888.069	7.85
888.24	54.95
888.412	-31.06
888.583	63.15
888.754	-24.92
888.926	30.38
889.097	13.99
889.268	16.04
889.44	11.95
889.611	18.09
889.782	3.75
889.953	-47.44
890.125	52.91
890.296	9.9
890.467	-31.06
890.638	-12.63
890.809	1.71
890.98	-31.06
891.151	16.04
891.323	24.23
891.494	42.67
891.665	-12.63
891.836	-29.01
892.007	44.71
892.178	83.63
892.349	32.43
892.52	54.95
892.691	46.76
892.862	7.85
893.032	-0.34
893.203	11.95
893.374	75.43
893.545	52.91
893.716	40.62
893.887	30.38
894.057	22.19
894.228	-26.96
894.399	3.75
894.57	5.8
894.74	-43.35
894.911	-12.63
895.082	50.86
895.253	-33.11
895.423	30.38
895.594	7.85
895.764	-18.77
895.935	-12.63
896.106	-22.87
896.276	-0.34
896.447	-6.49
896.617	-18.77
896.788	-31.06
896.958	22.19
897.129	-37.2
897.299	26.28
897.47	97.96
897.64	-51.54
897.81	44.71
897.981	13.99
898.151	36.52
898.322	48.81
898.492	-29.01
898.662	26.28
898.832	-10.58
899.003	-4.44
899.173	30.38
899.343	-18.77
899.513	32.43
