Data from USB4F104151__160__11-08-34-369.txt Node

Date: Wed Mar 12 11:08:34 EDT 2025
User: louis
Spectrometer: USB4F10415
Trigger mode: 4
Integration Time (sec): 2.000000E-2
Scans to average: 1
Electric dark correction enabled: true
Nonlinearity correction enabled: false
Boxcar width: 0
XAxis mode: Wavelengths
Number of Pixels in Spectrum: 3648
>>>>>Begin Spectral Data<<<<<
178.204	-51.54
178.424	-51.54
178.644	-51.54
178.864	-108.88
179.084	-49.49
179.304	7.85
179.524	26.28
179.744	-2.39
179.964	11.95
180.184	-33.11
180.404	1.71
180.624	34.47
180.844	-92.5
181.064	-16.73
181.283	59.05
181.503	1.71
181.723	1.71
181.943	13.99
182.163	59.05
182.383	3.75
182.602	28.33
182.822	44.71
183.042	-14.68
183.262	52.91
183.482	34.47
183.701	75.43
183.921	26.28
184.141	-2.39
184.361	34.47
184.58	100.01
184.8	65.19
185.02	7.85
185.239	-16.73
185.459	18.09
185.679	57
185.898	54.95
186.118	26.28
186.338	48.81
186.557	61.1
186.777	26.28
186.997	20.14
187.216	40.62
187.436	36.52
187.655	91.82
187.875	16.04
188.095	32.43
188.314	42.67
188.534	34.47
188.753	-41.3
188.973	1.71
189.192	20.14
189.412	-2.39
189.631	79.53
189.851	1.71
190.07	48.81
190.29	-108.88
190.509	-45.4
190.729	-4.44
190.948	73.39
191.168	89.77
191.387	-8.53
191.607	28.33
191.826	36.52
192.045	7.85
192.265	34.47
192.484	48.81
192.704	57
192.923	32.43
193.142	108.2
193.362	73.39
193.581	79.53
193.8	79.53
194.02	75.43
194.239	32.43
194.458	38.57
194.678	3.75
194.897	75.43
195.116	67.24
195.335	13.99
195.555	13.99
195.774	13.99
195.993	40.62
196.212	-18.77
196.432	16.04
196.651	-10.58
196.87	89.77
197.089	93.87
197.308	130.73
197.528	18.09
197.747	-20.82
197.966	28.33
198.185	93.87
198.404	16.04
198.623	11.95
198.842	13.99
199.062	73.39
199.281	-6.49
199.5	50.86
199.719	24.23
199.938	22.19
200.157	34.47
200.376	40.62
200.595	11.95
200.814	71.34
201.033	71.34
201.252	50.86
201.471	34.47
201.69	18.09
201.909	69.29
202.128	120.49
202.347	38.57
202.566	13.99
202.785	-16.73
203.004	-16.73
203.223	59.05
203.442	22.19
203.661	16.04
203.879	-45.4
204.098	69.29
204.317	-53.59
204.536	93.87
204.755	52.91
204.974	24.23
205.193	65.19
205.411	57
205.63	7.85
205.849	110.25
206.068	-43.35
206.287	48.81
206.505	5.8
206.724	67.24
206.943	-16.73
207.162	69.29
207.381	-22.87
207.599	79.53
207.818	46.76
208.037	81.58
208.255	95.91
208.474	-16.73
208.693	26.28
208.911	-20.82
209.13	-18.77
209.349	30.38
209.567	7.85
209.786	155.3
210.005	28.33
210.223	52.91
210.442	-6.49
210.661	79.53
210.879	46.76
211.098	-4.44
211.316	28.33
211.535	26.28
211.753	36.52
211.972	36.52
212.191	44.71
212.409	22.19
212.628	69.29
212.846	77.48
213.065	44.71
213.283	114.34
213.502	50.86
213.72	38.57
213.938	34.47
214.157	13.99
214.375	52.91
214.594	1.71
214.812	9.9
215.031	1.71
215.249	50.86
215.467	-2.39
215.686	7.85
215.904	30.38
216.122	108.2
216.341	73.39
216.559	18.09
216.778	9.9
216.996	36.52
217.214	5.8
217.432	67.24
217.651	95.91
217.869	44.71
218.087	9.9
218.306	57
218.524	104.11
218.742	20.14
218.96	11.95
219.179	18.09
219.397	46.76
219.615	-14.68
219.833	63.15
220.051	87.72
220.27	54.95
220.488	46.76
220.706	-0.34
220.924	16.04
221.142	-37.2
221.36	-39.25
221.578	54.95
221.796	42.67
222.015	40.62
222.233	83.63
222.451	91.82
222.669	7.85
222.887	38.57
223.105	63.15
223.323	40.62
223.541	44.71
223.759	59.05
223.977	7.85
224.195	65.19
224.413	71.34
224.631	89.77
224.849	7.85
225.067	54.95
225.285	59.05
225.503	44.71
225.721	18.09
225.939	-12.63
226.157	11.95
226.375	108.2
226.592	-8.53
226.81	36.52
227.028	9.9
227.246	36.52
227.464	57
227.682	73.39
227.9	93.87
228.117	89.77
228.335	36.52
228.553	-47.44
228.771	57
228.989	118.44
229.206	20.14
229.424	22.19
229.642	57
229.86	36.52
230.077	18.09
230.295	100.01
230.513	1.71
230.731	116.39
230.948	104.11
231.166	63.15
231.384	34.47
231.601	-33.11
231.819	71.34
232.037	22.19
232.254	34.47
232.472	34.47
232.689	-57.68
232.907	67.24
233.125	-29.01
233.342	65.19
233.56	30.38
233.777	20.14
233.995	85.67
234.213	63.15
234.43	-31.06
234.648	75.43
234.865	67.24
235.083	32.43
235.3	97.96
235.518	-43.35
235.735	83.63
235.953	34.47
236.17	93.87
236.388	34.47
236.605	50.86
236.822	110.25
237.04	22.19
237.257	7.85
237.475	91.82
237.692	46.76
237.909	30.38
238.127	26.28
238.344	-26.96
238.562	71.34
238.779	-4.44
238.996	59.05
239.214	18.09
239.431	9.9
239.648	-6.49
239.865	-26.96
240.083	91.82
240.3	54.95
240.517	69.29
240.735	46.76
240.952	61.1
241.169	134.82
241.386	30.38
241.603	65.19
241.821	59.05
242.038	73.39
242.255	22.19
242.472	9.9
242.689	59.05
242.907	48.81
243.124	24.23
243.341	65.19
243.558	18.09
243.775	3.75
243.992	-22.87
244.209	30.38
244.426	48.81
244.643	13.99
244.86	44.71
245.078	9.9
245.295	67.24
245.512	24.23
245.729	1.71
245.946	9.9
246.163	38.57
246.38	75.43
246.597	13.99
246.814	50.86
247.031	-59.73
247.248	61.1
247.464	34.47
247.681	28.33
247.898	26.28
248.115	104.11
248.332	18.09
248.549	18.09
248.766	-49.49
248.983	112.3
249.2	30.38
249.417	57
249.633	91.82
249.85	7.85
250.067	9.9
250.284	67.24
250.501	102.06
250.717	44.71
250.934	44.71
251.151	34.47
251.368	26.28
251.585	-10.58
251.801	-0.34
252.018	3.75
252.235	54.95
252.451	26.28
252.668	97.96
252.885	59.05
253.102	46.76
253.318	102.06
253.535	44.71
253.752	81.58
253.968	13.99
254.185	-10.58
254.401	3.75
254.618	-10.58
254.835	38.57
255.051	69.29
255.268	26.28
255.484	97.96
255.701	24.23
255.917	16.04
256.134	-8.53
256.351	59.05
256.567	-31.06
256.784	-22.87
257	11.95
257.217	24.23
257.433	93.87
257.65	57
257.866	50.86
258.082	3.75
258.299	34.47
258.515	48.81
258.732	77.48
258.948	22.19
259.165	42.67
259.381	52.91
259.597	54.95
259.814	114.34
260.03	32.43
260.246	44.71
260.463	24.23
260.679	44.71
260.895	61.1
261.112	77.48
261.328	5.8
261.544	-37.2
261.761	67.24
261.977	48.81
262.193	13.99
262.409	-2.39
262.626	54.95
262.842	16.04
263.058	-10.58
263.274	140.97
263.49	13.99
263.707	42.67
263.923	16.04
264.139	65.19
264.355	22.19
264.571	69.29
264.787	48.81
265.004	112.3
265.22	34.47
265.436	59.05
265.652	-4.44
265.868	36.52
266.084	1.71
266.3	32.43
266.516	46.76
266.732	52.91
266.948	38.57
267.164	26.28
267.38	73.39
267.596	57
267.812	42.67
268.028	34.47
268.244	57
268.46	13.99
268.676	54.95
268.892	83.63
269.108	140.97
269.324	34.47
269.54	-37.2
269.756	50.86
269.972	-22.87
270.188	9.9
270.403	34.47
270.619	95.91
270.835	57
271.051	13.99
271.267	30.38
271.483	-18.77
271.698	65.19
271.914	11.95
272.13	59.05
272.346	65.19
272.562	-16.73
272.777	67.24
272.993	40.62
273.209	18.09
273.425	81.58
273.64	46.76
273.856	-0.34
274.072	7.85
274.287	65.19
274.503	71.34
274.719	63.15
274.934	38.57
275.15	20.14
275.366	91.82
275.581	24.23
275.797	-37.2
276.012	-33.11
276.228	18.09
276.444	61.1
276.659	18.09
276.875	1.71
277.09	28.33
277.306	13.99
277.521	85.67
277.737	85.67
277.952	57
278.168	28.33
278.383	57
278.599	20.14
278.814	5.8
279.03	-37.2
279.245	85.67
279.461	9.9
279.676	97.96
279.892	46.76
280.107	38.57
280.322	63.15
280.538	24.23
280.753	42.67
280.969	81.58
281.184	5.8
281.399	61.1
281.615	91.82
281.83	-0.34
282.045	-18.77
282.26	20.14
282.476	20.14
282.691	100.01
282.906	85.67
283.122	85.67
283.337	63.15
283.552	28.33
283.767	-16.73
283.983	42.67
284.198	46.76
284.413	38.57
284.628	-12.63
284.843	50.86
285.058	104.11
285.274	102.06
285.489	-37.2
285.704	-10.58
285.919	-12.63
286.134	69.29
286.349	-4.44
286.564	38.57
286.779	65.19
286.995	9.9
287.21	-8.53
287.425	38.57
287.64	-35.16
287.855	87.72
288.07	-14.68
288.285	40.62
288.5	106.15
288.715	85.67
288.93	42.67
289.145	28.33
289.36	59.05
289.575	-18.77
289.79	79.53
290.004	16.04
290.219	36.52
290.434	44.71
290.649	69.29
290.864	36.52
291.079	5.8
291.294	85.67
291.509	71.34
291.724	67.24
291.938	-35.16
292.153	147.11
292.368	44.71
292.583	112.3
292.798	81.58
293.012	102.06
293.227	106.15
293.442	85.67
293.657	54.95
293.871	61.1
294.086	57
294.301	24.23
294.516	112.3
294.73	-14.68
294.945	77.48
295.16	3.75
295.374	38.57
295.589	50.86
295.804	77.48
296.018	112.3
296.233	69.29
296.447	18.09
296.662	40.62
296.877	42.67
297.091	83.63
297.306	46.76
297.52	-29.01
297.735	20.14
297.949	36.52
298.164	50.86
298.378	22.19
298.593	57
298.807	-6.49
299.022	87.72
299.236	30.38
299.451	67.24
299.665	42.67
299.88	11.95
300.094	71.34
300.309	-0.34
300.523	59.05
300.737	67.24
300.952	50.86
301.166	50.86
301.381	118.44
301.595	46.76
301.809	-4.44
302.024	71.34
302.238	40.62
302.452	69.29
302.667	63.15
302.881	85.67
303.095	89.77
303.309	77.48
303.524	73.39
303.738	18.09
303.952	46.76
304.166	28.33
304.381	-80.21
304.595	126.63
304.809	-14.68
305.023	24.23
305.237	-31.06
305.452	13.99
305.666	42.67
305.88	63.15
306.094	-31.06
306.308	22.19
306.522	73.39
306.736	97.96
306.95	93.87
307.164	1.71
307.379	-0.34
307.593	106.15
307.807	61.1
308.021	32.43
308.235	22.19
308.449	61.1
308.663	34.47
308.877	54.95
309.091	1.71
309.305	65.19
309.519	42.67
309.733	34.47
309.947	-16.73
310.161	91.82
310.374	50.86
310.588	106.15
310.802	34.47
311.016	-65.88
311.23	-4.44
311.444	28.33
311.658	44.71
311.872	102.06
312.085	3.75
312.299	83.63
312.513	85.67
312.727	87.72
312.941	71.34
313.154	26.28
313.368	59.05
313.582	71.34
313.796	69.29
314.009	34.47
314.223	-0.34
314.437	100.01
314.651	42.67
314.864	-74.07
315.078	-18.77
315.292	54.95
315.505	26.28
315.719	81.58
315.933	46.76
316.146	5.8
316.36	104.11
316.573	110.25
316.787	7.85
317.001	87.72
317.214	-31.06
317.428	16.04
317.641	1.71
317.855	34.47
318.068	48.81
318.282	97.96
318.495	145.06
318.709	89.77
318.922	97.96
319.136	52.91
319.349	71.34
319.563	-12.63
319.776	-14.68
319.99	38.57
320.203	83.63
320.417	20.14
320.63	32.43
320.843	165.54
321.057	59.05
321.27	16.04
321.483	106.15
321.697	87.72
321.91	104.11
322.124	18.09
322.337	120.49
322.55	38.57
322.763	32.43
322.977	59.05
323.19	83.63
323.403	87.72
323.617	52.91
323.83	83.63
324.043	42.67
324.256	13.99
324.469	63.15
324.683	97.96
324.896	116.39
325.109	87.72
325.322	7.85
325.535	75.43
325.748	30.38
325.962	24.23
326.175	40.62
326.388	79.53
326.601	71.34
326.814	57
327.027	28.33
327.24	87.72
327.453	108.2
327.666	65.19
327.879	97.96
328.092	-8.53
328.305	40.62
328.518	26.28
328.731	63.15
328.944	36.52
329.157	71.34
329.37	18.09
329.583	120.49
329.796	63.15
330.009	61.1
330.222	46.76
330.435	13.99
330.648	106.15
330.861	18.09
331.073	87.72
331.286	34.47
331.499	143.02
331.712	24.23
331.925	13.99
332.138	48.81
332.35	95.91
332.563	-2.39
332.776	52.91
332.989	28.33
333.202	57
333.414	61.1
333.627	91.82
333.84	-31.06
334.053	26.28
334.265	73.39
334.478	97.96
334.691	124.58
334.903	11.95
335.116	-18.77
335.329	54.95
335.541	24.23
335.754	79.53
335.966	44.71
336.179	114.34
336.392	95.91
336.604	57
336.817	48.81
337.029	159.4
337.242	61.1
337.454	40.62
337.667	-6.49
337.88	46.76
338.092	36.52
338.305	140.97
338.517	52.91
338.729	120.49
338.942	28.33
339.154	61.1
339.367	54.95
339.579	77.48
339.792	59.05
340.004	65.19
340.217	-2.39
340.429	5.8
340.641	79.53
340.854	18.09
341.066	89.77
341.278	40.62
341.491	30.38
341.703	97.96
341.915	28.33
342.128	67.24
342.34	79.53
342.552	63.15
342.764	26.28
342.977	-18.77
343.189	52.91
343.401	52.91
343.613	16.04
343.826	63.15
344.038	38.57
344.25	81.58
344.462	30.38
344.674	46.76
344.886	87.72
345.099	104.11
345.311	73.39
345.523	5.8
345.735	50.86
345.947	85.67
346.159	69.29
346.371	48.81
346.583	-37.2
346.795	122.54
347.007	65.19
347.219	71.34
347.431	34.47
347.643	46.76
347.855	59.05
348.067	73.39
348.279	30.38
348.491	95.91
348.703	89.77
348.915	122.54
349.127	65.19
349.339	145.06
349.551	32.43
349.763	69.29
349.975	81.58
350.187	-0.34
350.399	20.14
350.61	24.23
350.822	38.57
351.034	50.86
351.246	48.81
351.458	97.96
351.669	75.43
351.881	91.82
352.093	134.82
352.305	120.49
352.517	-43.35
352.728	95.91
352.94	69.29
353.152	57
353.363	28.33
353.575	54.95
353.787	34.47
353.999	-0.34
354.21	48.81
354.422	136.87
354.633	38.57
354.845	75.43
355.057	28.33
355.268	65.19
355.48	73.39
355.692	-4.44
355.903	65.19
356.115	52.91
356.326	36.52
356.538	71.34
356.749	81.58
356.961	59.05
357.172	89.77
357.384	81.58
357.595	65.19
357.807	83.63
358.018	30.38
358.23	71.34
358.441	122.54
358.653	59.05
358.864	-0.34
359.075	108.2
359.287	26.28
359.498	100.01
359.709	130.73
359.921	52.91
360.132	155.3
360.344	22.19
360.555	30.38
360.766	44.71
360.977	7.85
361.189	69.29
361.4	75.43
361.611	69.29
361.823	50.86
362.034	40.62
362.245	26.28
362.456	114.34
362.667	155.3
362.879	-14.68
363.09	106.15
363.301	11.95
363.512	26.28
363.723	36.52
363.935	65.19
364.146	128.68
364.357	108.2
364.568	95.91
364.779	28.33
364.99	38.57
365.201	50.86
365.412	50.86
365.623	61.1
365.834	65.19
366.045	-0.34
366.256	79.53
366.467	7.85
366.678	93.87
366.889	59.05
367.1	40.62
367.311	50.86
367.522	20.14
367.733	85.67
367.944	54.95
368.155	5.8
368.366	93.87
368.577	18.09
368.788	67.24
368.999	26.28
369.209	38.57
369.42	112.3
369.631	100.01
369.842	3.75
370.053	77.48
370.264	104.11
370.474	61.1
370.685	91.82
370.896	140.97
371.107	89.77
371.317	40.62
371.528	132.78
371.739	83.63
371.95	102.06
372.16	104.11
372.371	-4.44
372.582	118.44
372.792	93.87
373.003	48.81
373.214	81.58
373.424	130.73
373.635	93.87
373.846	77.48
374.056	52.91
374.267	-8.53
374.477	110.25
374.688	95.91
374.898	100.01
375.109	-41.3
375.319	79.53
375.53	85.67
375.74	89.77
375.951	73.39
376.161	59.05
376.372	13.99
376.582	104.11
376.793	77.48
377.003	97.96
377.214	1.71
377.424	54.95
377.635	38.57
377.845	65.19
378.055	122.54
378.266	28.33
378.476	85.67
378.686	85.67
378.897	-6.49
379.107	130.73
379.317	145.06
379.528	108.2
379.738	65.19
379.948	112.3
380.158	54.95
380.369	73.39
380.579	75.43
380.789	112.3
380.999	120.49
381.21	81.58
381.42	77.48
381.63	67.24
381.84	95.91
382.05	63.15
382.261	79.53
382.471	91.82
382.681	85.67
382.891	67.24
383.101	65.19
383.311	9.9
383.521	83.63
383.731	24.23
383.941	114.34
384.151	30.38
384.361	102.06
384.571	65.19
384.781	138.92
384.991	44.71
385.201	89.77
385.411	136.87
385.621	71.34
385.831	13.99
386.041	40.62
386.251	54.95
386.461	-4.44
386.671	59.05
386.881	79.53
387.091	28.33
387.301	28.33
387.511	52.91
387.72	42.67
387.93	69.29
388.14	71.34
388.35	57
388.56	52.91
388.769	145.06
388.979	61.1
389.189	71.34
389.399	36.52
389.609	147.11
389.818	161.45
390.028	77.48
390.238	20.14
390.447	112.3
390.657	104.11
390.867	40.62
391.076	75.43
391.286	69.29
391.496	65.19
391.705	149.16
391.915	91.82
392.125	83.63
392.334	16.04
392.544	16.04
392.753	75.43
392.963	36.52
393.172	61.1
393.382	50.86
393.591	114.34
393.801	22.19
394.01	97.96
394.22	57
394.429	18.09
394.639	30.38
394.848	112.3
395.058	11.95
395.267	77.48
395.477	79.53
395.686	100.01
395.895	73.39
396.105	75.43
396.314	97.96
396.524	54.95
396.733	112.3
396.942	183.98
397.152	124.58
397.361	89.77
397.57	77.48
397.78	112.3
397.989	106.15
398.198	202.41
398.407	87.72
398.617	140.97
398.826	161.45
399.035	147.11
399.244	87.72
399.453	163.5
399.663	126.63
399.872	167.59
400.081	167.59
400.29	206.5
400.499	132.78
400.708	153.26
400.917	157.35
401.127	24.23
401.336	85.67
401.545	208.55
401.754	87.72
401.963	149.16
402.172	190.12
402.381	65.19
402.59	179.88
402.799	169.64
403.008	196.26
403.217	138.92
403.426	159.4
403.635	134.82
403.844	188.07
404.053	208.55
404.262	149.16
404.471	245.41
404.68	231.08
404.888	153.26
405.097	261.8
405.306	231.08
405.515	196.26
405.724	194.22
405.933	181.93
406.142	167.59
406.35	267.94
406.559	177.83
406.768	151.21
406.977	245.41
407.185	186.02
407.394	267.94
407.603	202.41
407.812	222.89
408.02	276.13
408.229	302.76
408.438	224.94
408.646	325.29
408.855	306.85
409.064	396.96
409.272	267.94
409.481	335.53
409.69	323.24
409.898	407.2
410.107	370.34
410.315	466.6
410.524	417.44
410.733	419.49
410.941	362.15
411.15	482.98
411.358	452.26
411.567	460.45
411.775	501.41
411.984	538.27
412.192	489.12
412.401	435.88
412.609	538.27
412.818	472.74
413.026	607.91
413.234	605.86
413.443	636.58
413.651	722.59
413.86	642.72
414.068	724.64
414.276	738.98
414.485	798.37
414.693	827.04
414.901	786.08
415.11	806.56
415.318	865.95
415.526	878.24
415.734	892.57
415.943	956.06
416.151	962.2
416.359	884.38
416.567	1046.17
416.776	1040.03
416.984	1142.43
417.192	1199.77
417.4	1259.16
417.608	1146.52
417.817	1279.64
418.025	1341.08
418.233	1339.03
418.441	1336.98
418.649	1377.94
418.857	1554.07
419.065	1527.44
419.273	1607.31
419.481	1644.18
419.689	1734.29
419.897	1672.85
420.105	1826.45
420.313	1779.34
420.521	1891.98
420.729	1953.42
420.937	1941.13
421.145	2111.11
421.353	2150.03
421.561	2279.05
421.769	2369.16
421.977	2446.98
422.185	2360.97
422.393	2508.42
422.601	2786.94
422.809	2657.92
423.017	2821.76
423.224	2840.19
423.432	2934.4
423.64	2979.45
423.848	3245.69
424.056	2975.36
424.263	3362.42
424.471	3327.61
424.679	3440.25
424.887	3634.8
425.094	3847.79
425.302	3831.41
425.51	3888.75
425.718	4021.87
425.925	4105.84
426.133	4304.49
426.341	4456.04
426.548	4712.03
426.756	4755.04
426.964	4662.88
427.171	4986.46
427.379	5129.82
427.586	5101.15
427.794	5303.9
428.001	5607
428.209	5779.03
428.417	5774.93
428.624	6178.38
428.832	6303.31
429.039	6202.96
429.247	6182.48
429.454	6755.91
429.662	7165.5
429.869	6749.76
430.076	7284.28
430.284	6815.3
430.491	7253.56
430.699	7806.52
430.906	7550.52
431.114	7802.42
431.321	8144.43
431.528	8326.7
431.736	8750.63
431.943	9055.78
432.15	8926.75
432.358	8959.52
432.565	9502.23
432.772	9293.34
432.979	9815.57
433.187	10057.23
433.394	10192.4
433.601	10690.06
433.808	10978.82
434.016	10636.81
434.223	11388.41
434.43	11798.01
434.637	11785.72
434.844	12588.52
435.052	12803.56
435.259	12398.06
435.466	12682.73
435.673	12469.74
435.88	13737.43
436.087	14144.98
436.294	14061.01
436.501	13675.99
436.708	13970.9
436.915	14478.8
437.122	15320.51
437.329	15230.4
437.537	15678.91
437.743	15912.38
437.95	15723.96
438.157	16471.47
438.364	17159.59
438.571	16985.51
438.778	17235.36
438.985	18750.86
439.192	17829.27
439.399	18777.48
439.606	18163.09
439.813	19334.53
440.02	20190.58
440.227	19819.9
440.433	19758.46
440.64	20426.1
440.847	20413.81
441.054	20893.04
441.261	22218.07
441.467	21996.89
441.674	22242.65
441.881	23299.4
442.088	22900.05
442.294	22736.21
442.501	23602.5
442.708	23721.28
442.914	25267.5
443.121	26041.63
443.328	25351.46
443.534	26981.65
443.741	26215.71
443.948	26113.31
444.154	27864.32
444.361	27542.79
444.568	28314.87
444.774	28069.12
444.981	28042.49
445.187	29156.59
445.394	29820.13
445.6	29734.12
445.807	32603.32
446.013	30805.2
446.22	31753.41
446.426	32922.8
446.633	33348.78
446.839	34380.96
447.046	32939.19
447.252	34657.43
447.459	34749.59
447.665	34536.6
447.871	36326.53
448.078	37852.27
448.284	35974.28
448.491	36775.03
448.697	38108.26
448.903	38696.03
449.11	38745.18
449.316	38181.99
449.522	38974.55
449.728	40031.3
449.935	40313.92
450.141	39795.79
450.347	40746.04
450.553	39466.06
450.76	40430.66
450.966	41397.3
451.172	40688.7
451.378	41892.91
451.584	41266.23
451.791	41829.42
451.997	41380.92
452.203	42359.84
452.409	42490.91
452.615	41870.38
452.821	40619.07
453.027	40260.68
453.233	42308.65
453.44	40098.89
453.646	41282.61
453.852	41372.72
454.058	41925.67
454.264	40285.25
454.47	41276.47
454.676	40272.96
454.882	41677.87
455.088	37678.19
455.294	38403.17
455.5	38673.5
455.705	39328.85
455.911	37823.59
456.117	36686.97
456.323	36295.81
456.529	34602.14
456.735	36064.39
456.941	35200.15
457.147	34532.51
457.352	33367.21
457.558	32963.76
457.764	33002.68
457.97	32324.8
458.176	31689.93
458.381	31685.83
458.587	29809.89
458.793	30069.98
458.999	28566.77
459.204	30383.32
459.41	29889.76
459.616	27634.95
459.821	27704.58
460.027	27475.21
460.233	27118.86
460.438	25488.68
460.644	26215.71
460.85	25040.17
461.055	24718.64
461.261	24202.55
461.466	22156.63
461.672	21675.36
461.878	23471.43
462.083	21966.17
462.289	21640.54
462.494	21298.53
462.7	20319.6
462.905	19563.9
463.111	20688.24
463.316	20841.84
463.522	20256.12
463.727	20430.19
463.932	20186.49
464.138	19844.48
464.343	19981.69
464.549	19600.77
464.754	20118.9
464.959	20086.14
465.165	19758.46
465.37	18890.12
465.575	18816.4
465.781	19252.61
465.986	19477.89
466.191	18881.93
466.397	18273.68
466.602	17413.54
466.807	18290.07
467.012	18159
467.218	17939.86
467.423	17681.82
467.628	17894.81
467.833	18754.96
468.038	18169.24
468.244	17487.26
468.449	18380.18
468.654	17647.01
468.859	17593.76
469.064	17446.3
469.269	16727.47
469.474	16776.62
469.679	16905.64
469.885	16850.35
470.09	16938.41
470.295	16657.84
470.5	16242.1
470.705	16516.53
470.91	16111.03
471.115	15875.51
471.32	16061.88
471.525	16129.46
471.73	15627.71
471.935	15558.08
472.139	14771.66
472.344	15351.23
472.549	14861.77
472.754	15166.92
472.959	14587.34
473.164	14253.52
473.369	14435.79
473.574	14683.59
473.778	14661.07
473.983	14335.44
474.188	14259.67
474.393	13856.22
474.598	13665.75
474.802	13587.93
475.007	13553.12
475.212	13383.13
475.417	13075.94
475.621	13006.31
475.826	13190.63
476.031	12778.98
476.235	12451.31
476.44	12660.2
476.645	12490.22
476.849	12535.28
477.054	12195.31
477.259	12070.39
477.463	12187.12
477.668	11871.73
477.872	11961.84
478.077	11724.28
478.282	11279.87
478.486	11623.93
478.691	11380.22
478.895	11408.89
479.1	11222.53
479.304	11460.09
479.509	11087.36
479.713	11107.84
479.918	11021.83
480.122	10958.34
480.326	11185.66
480.531	10857.99
480.735	10835.46
480.94	10675.72
481.144	11068.93
481.348	10272.27
481.553	10782.21
481.757	10462.73
481.961	10577.42
482.166	10456.59
482.37	10591.75
482.574	10452.49
482.778	10450.44
482.983	10642.95
483.187	10454.54
483.391	10561.03
483.595	10501.64
483.8	10264.08
484.004	10479.11
484.208	10757.64
484.412	10544.65
484.616	10579.47
484.821	10606.09
485.025	10405.39
485.229	10548.75
485.433	10323.47
485.637	10526.22
485.841	10292.75
486.045	10384.91
486.249	10288.65
486.453	10429.96
486.657	10444.3
486.861	10378.76
487.065	10337.8
487.269	10239.5
487.473	10147.34
487.677	10337.8
487.881	10530.31
488.085	10405.39
488.289	10577.42
488.493	10538.51
488.697	10507.79
488.901	10636.81
489.105	10481.16
489.309	10540.55
489.512	10595.85
489.716	10524.17
489.92	10673.67
490.124	10456.59
490.328	10806.79
490.531	10667.53
490.735	10755.59
490.939	10747.4
491.143	10700.3
491.346	10622.47
491.55	10927.62
491.754	10831.37
491.958	10898.95
492.161	11068.93
492.365	10739.21
492.569	11099.65
492.772	11023.87
492.976	11019.78
493.18	11148.8
493.383	11263.49
493.587	11357.69
493.79	11509.24
493.994	11257.34
494.197	11429.37
494.401	11382.27
494.605	11699.7
494.808	11806.2
495.012	11619.83
495.215	11828.73
495.419	11777.53
495.622	12025.33
495.825	11970.04
496.029	11933.17
496.232	12488.17
496.436	12332.53
496.639	12758.5
496.843	12477.93
497.046	12918.25
497.249	13135.33
497.453	12867.05
497.656	13118.95
497.859	13034.98
498.063	13209.06
498.266	13635.03
498.469	13581.79
498.673	13702.62
498.876	13829.59
499.079	13968.85
499.282	13958.61
499.485	14554.57
499.689	14337.49
499.892	14841.29
500.095	14710.22
500.298	15007.17
500.501	14984.65
500.705	15191.49
500.908	15416.77
501.111	15599.04
501.314	15723.96
501.517	15883.7
501.72	16072.12
501.923	16053.69
502.126	16215.48
502.329	16917.93
502.532	16668.08
502.735	16797.1
502.938	17380.77
503.141	17397.15
503.344	17507.74
503.547	17515.94
503.75	17692.06
503.953	18240.92
504.156	18144.66
504.359	18097.56
504.562	18550.16
504.765	18980.23
504.968	19088.78
505.17	18916.75
505.373	19402.11
505.576	19504.51
505.779	19588.48
505.982	19848.57
506.185	20196.73
506.387	20192.63
506.59	20395.38
506.793	21140.84
506.996	20678
507.198	21409.12
507.401	21452.13
507.604	21448.04
507.807	21814.62
508.009	22256.98
508.212	22007.13
508.415	22740.3
508.617	23092.55
508.82	22881.61
509.022	22764.88
509.225	23354.69
509.428	23604.55
509.63	23792.96
509.833	23756.1
510.035	24673.59
510.238	24104.25
510.44	24675.63
510.643	24735.03
510.845	24773.94
511.048	25056.56
511.25	25814.3
511.453	25646.37
511.655	26494.23
511.858	26074.4
512.06	26457.37
512.262	26651.92
512.465	26840.34
512.667	27077.9
512.87	27231.5
513.072	27372.81
513.274	28167.42
513.477	28134.65
513.679	28525.82
513.881	28775.67
514.084	28849.39
514.286	28828.91
514.488	29072.62
514.69	29916.39
514.893	30285.02
515.095	30190.81
515.297	30424.28
515.499	30315.74
515.701	30872.79
515.904	31304.91
516.106	31286.48
516.308	31845.57
516.51	32158.91
516.712	31724.74
516.914	32435.39
517.116	32928.95
517.318	32912.56
517.52	32791.73
517.722	33240.24
517.925	33572.01
518.127	34284.7
518.329	34497.69
518.531	34170.02
518.733	34401.44
518.935	35177.62
519.136	35142.8
519.338	35910.79
519.54	35638.41
519.742	36084.87
519.944	35708.04
520.146	36838.52
520.348	36893.82
520.55	36852.86
520.752	37020.79
520.954	37874.79
521.155	37559.41
521.357	38085.73
521.559	38243.43
521.761	38786.14
521.963	38749.28
522.164	39181.4
522.366	39038.04
522.568	39717.96
522.77	39767.12
522.971	40496.19
523.173	39791.69
523.375	40408.13
523.576	40502.34
523.778	40518.72
523.98	40899.64
524.181	40610.88
524.383	41374.77
524.584	41745.45
524.786	41747.5
524.988	41735.21
525.189	42177.58
525.391	42368.04
525.592	42454.05
525.794	42578.98
525.995	42466.34
526.197	42480.67
526.398	42523.68
526.6	42761.25
526.801	43246.61
527.003	43678.74
527.204	43181.08
527.406	44022.79
527.607	43774.99
527.808	44268.55
528.01	43727.89
528.211	43990.03
528.412	45052.92
528.614	44235.78
528.815	44690.43
529.016	44841.98
529.218	44723.2
529.419	44760.06
529.62	44735.49
529.822	44366.85
530.023	45034.49
530.224	44833.79
530.425	45171.71
530.626	44600.32
530.828	44915.71
531.029	46232.55
531.23	45251.58
531.431	45009.92
531.632	45186.04
531.833	45255.67
532.035	45356.02
532.236	45321.21
532.437	45921.26
532.638	45564.92
532.839	45964.27
533.04	45872.11
533.241	45218.81
533.442	46078.96
533.643	45743.09
533.844	45982.7
534.045	46128.11
534.246	45464.56
534.447	46179.31
534.648	46056.43
534.849	46070.76
535.05	45816.82
535.251	46291.94
535.451	45712.37
535.652	46484.45
535.853	45890.54
536.054	45954.03
536.255	46443.49
536.456	45401.08
536.657	46707.68
536.857	45630.45
537.058	45552.63
537.259	46183.4
537.46	45626.35
537.66	45325.3
537.861	46361.58
538.062	45425.65
538.263	45693.94
538.463	45661.17
538.664	45407.22
538.865	45536.24
539.065	46076.91
539.266	45538.29
539.466	46248.94
539.667	45607.92
539.868	46081
540.068	46001.13
540.269	45540.34
540.469	46124.01
540.67	45489.14
540.87	45435.89
541.071	45401.08
541.271	45493.24
541.472	45710.32
541.672	45605.87
541.873	45628.4
542.073	45161.47
542.274	45734.9
542.474	45478.9
542.675	45255.67
542.875	45681.65
543.075	45628.4
543.276	44973.05
543.476	45528.05
543.676	45130.75
543.877	45571.06
544.077	45765.62
544.277	45005.82
544.478	45138.94
544.678	45812.72
544.878	45485.04
545.078	45468.66
545.279	44854.27
545.479	45042.68
545.679	45235.19
545.879	45480.95
546.079	45366.26
546.28	44987.39
546.48	44491.78
546.68	45378.55
546.88	45329.4
547.08	45466.61
547.28	44686.34
547.48	44780.54
547.68	45140.99
547.88	44981.24
548.081	45388.79
548.281	45104.12
548.481	45120.51
548.681	45433.85
548.881	45050.88
549.081	45034.49
549.28	44991.48
549.48	45370.36
549.68	44895.23
549.88	45435.89
550.08	44637.19
550.28	45206.52
550.48	44866.56
550.68	45222.9
550.88	44635.14
551.08	44944.38
551.279	45190.14
551.479	44475.4
551.679	44745.73
551.879	44813.31
552.079	44772.35
552.278	44383.24
552.478	44841.98
552.678	44727.3
552.878	45100.03
553.077	44583.94
553.277	44368.9
553.477	45186.04
553.676	44760.06
553.876	44416
554.076	44495.88
554.275	44241.93
554.475	44073.99
554.674	44510.21
554.874	44514.31
555.074	44608.51
555.273	44561.41
555.473	44911.61
555.672	43994.12
555.872	43936.78
556.071	44520.45
556.271	44147.72
556.47	43435.03
556.67	43867.15
556.869	43795.47
557.068	44014.6
557.268	43901.96
557.467	44067.85
557.667	43729.94
557.866	44463.11
558.065	43621.39
558.265	43482.13
558.464	43359.25
558.663	43805.71
558.863	42789.92
559.062	43602.96
559.261	43158.55
559.461	43715.6
559.66	42912.8
559.859	43586.58
560.058	42548.26
560.258	43103.26
560.457	42900.51
560.656	43666.45
560.855	42796.06
561.054	42970.14
561.253	42619.94
561.453	42845.21
561.652	42828.83
561.851	43256.85
562.05	42441.76
562.249	42409
562.448	42501.15
562.647	42613.79
562.846	42427.43
563.045	42171.43
563.244	42142.76
563.443	42531.87
563.642	41987.11
563.841	41880.62
564.04	41933.87
564.239	41974.83
564.438	41430.07
564.637	42087.46
564.836	41837.61
565.035	41468.98
565.234	41661.49
565.432	41100.34
565.631	41255.99
565.83	41286.71
566.029	41122.87
566.228	41231.41
566.427	40866.88
566.625	41370.68
566.824	40612.93
567.023	41221.17
567.222	40078.41
567.42	40918.07
567.619	40209.48
567.818	40979.51
568.016	40387.65
568.215	40885.31
568.414	39982.15
568.612	40303.68
568.811	40318.02
569.01	40318.02
569.208	39875.66
569.407	40236.1
569.605	39603.28
569.804	40078.41
570.002	39580.75
570.201	39627.85
570.4	39484.5
570.598	39306.32
570.797	39468.11
570.995	39562.32
571.193	38589.53
571.392	39466.06
571.59	38911.06
571.789	39175.25
571.987	38927.45
572.186	38954.07
572.384	38548.57
572.582	38728.8
572.781	38616.16
572.979	37782.63
573.177	38141.03
573.376	38186.08
573.574	38134.88
573.772	38421.6
573.971	37815.4
574.169	37997.67
574.367	37710.96
574.565	37807.21
574.763	37792.87
574.962	37782.63
575.16	36990.07
575.358	37403.76
575.556	37010.55
575.754	37366.9
575.952	36789.37
576.151	37352.56
576.349	36625.53
576.547	36985.97
576.745	37026.93
576.943	37112.95
577.141	36811.9
577.339	36306.05
577.537	36701.31
577.735	36631.68
577.933	36287.62
578.131	36232.32
578.329	36144.26
578.527	36127.88
578.725	36131.97
578.923	36265.09
579.121	35570.83
579.319	35376.27
579.516	35847.3
579.714	35576.97
579.912	35730.57
580.11	35458.19
580.308	35056.79
580.506	35062.93
580.704	34817.18
580.901	35251.34
581.099	35060.88
581.297	34514.08
581.495	34831.51
581.692	34499.74
581.89	34708.63
582.088	34862.23
582.285	34333.85
582.483	34550.94
582.681	34557.08
582.878	34407.58
583.076	33983.65
583.274	34176.16
583.471	33524.91
583.669	33901.73
583.866	33502.38
584.064	34159.78
584.262	32873.65
584.459	33971.36
584.657	33381.55
584.854	33752.23
585.052	33344.69
585.249	33387.69
585.447	33422.51
585.644	32828.6
585.841	33051.83
586.039	33139.89
586.236	32664.76
586.434	32750.77
586.631	32496.83
586.828	32519.35
587.026	32486.59
587.223	32341.18
587.42	32494.78
587.618	32486.59
587.815	31775.94
588.012	31970.5
588.21	31927.49
588.407	32050.37
588.604	31620.3
588.801	31667.4
588.999	31683.78
589.196	31231.18
589.393	31489.23
589.59	31313.1
589.787	30690.52
589.984	30987.47
590.182	30794.96
590.379	31204.56
590.576	31169.74
590.773	30997.71
590.97	30618.84
591.167	30866.64
591.364	30452.95
591.561	30694.61
591.758	30084.32
591.955	30268.64
592.152	30483.67
592.349	30004.45
592.546	29887.71
592.743	30180.57
592.94	29539.56
593.137	29965.54
593.334	30084.32
593.531	29269.23
593.727	29553.9
593.924	29744.36
594.121	29224.17
594.318	29248.75
594.515	28988.66
594.712	29166.83
594.908	29117.68
595.105	29201.65
595.302	28894.45
595.499	29275.37
595.696	28628.21
595.892	28157.18
596.089	28712.18
596.286	28562.68
596.482	28433.66
596.679	28542.2
596.876	28280.06
597.072	28239.1
597.269	28192
597.466	27981.06
597.662	28130.56
597.859	27968.77
598.055	28161.28
598.252	27761.92
598.448	27536.65
598.645	27630.85
598.841	26985.74
599.038	27544.84
599.234	27311.37
599.431	26799.38
599.627	27159.82
599.824	27542.79
600.02	27022.61
600.217	27122.96
600.413	26594.58
600.609	26508.57
600.806	26463.51
601.002	26871.06
601.198	26416.41
601.395	26400.02
601.591	26225.95
601.787	26600.72
601.984	26144.03
602.18	26453.27
602.376	25918.75
602.572	25992.48
602.769	26164.51
602.965	25431.33
603.161	25885.98
603.357	25429.29
603.553	25447.72
603.75	25689.38
603.946	25320.74
604.142	25699.62
604.338	24999.21
604.534	25582.88
604.73	24851.76
604.926	25027.88
605.122	24796.46
605.318	24886.57
605.514	24638.77
605.71	24796.46
605.906	24823.09
606.102	24929.58
606.298	24653.11
606.494	24546.61
606.69	24454.45
606.886	24573.24
607.082	24415.54
607.278	24763.7
607.474	23983.42
607.67	24180.03
607.866	23725.38
608.062	24001.85
608.257	24014.14
608.453	24026.43
608.649	23895.36
608.845	23782.72
609.041	23856.45
609.236	24081.72
609.432	23573.83
609.628	23727.42
609.824	23670.08
610.019	23450.95
610.215	23610.69
610.411	23493.96
610.606	23360.84
610.802	23362.89
610.998	23307.59
611.193	23149.9
611.389	23182.66
611.584	23381.32
611.78	23059.79
611.976	23104.84
612.171	23020.88
612.367	22865.23
612.562	22764.88
612.758	22746.45
612.953	22736.21
613.149	23031.12
613.344	22426.96
613.539	23119.18
613.735	22762.83
613.93	22619.47
614.126	22443.35
614.321	22719.82
614.517	22390.1
614.712	22461.78
614.907	22371.67
615.103	22566.23
615.298	22451.54
615.493	22435.16
615.688	21941.6
615.884	22588.75
616.079	21755.23
616.274	22179.16
616.47	22400.34
616.665	22216.02
616.86	21697.89
617.055	22166.87
617.25	21687.65
617.445	22130.01
617.641	21366.12
617.836	21855.58
618.031	21511.52
618.226	21685.6
618.421	21341.54
618.616	21636.45
618.811	21122.41
619.006	21525.86
619.201	21085.54
619.396	21257.57
619.591	20985.19
619.786	21216.61
619.981	20841.84
620.176	21159.27
620.371	20604.27
620.566	20925.8
620.761	20575.6
620.956	20835.69
621.151	20561.26
621.346	20282.74
621.541	20274.55
621.735	20276.6
621.93	19981.69
622.125	20137.34
622.32	19762.56
622.515	19666.3
622.709	19520.9
622.904	19449.22
623.099	19514.75
623.294	19314.05
623.488	19336.58
623.683	19299.72
623.878	18929.03
624.072	19090.82
624.267	18857.35
624.462	18580.88
624.656	18638.22
624.851	18507.15
625.046	18544.02
625.24	18482.58
625.435	18382.23
625.629	18255.25
625.824	17919.39
626.018	18183.57
626.213	17661.34
626.407	18093.46
626.602	17550.75
626.796	17708.44
626.991	17679.77
627.185	17448.35
627.38	17304.99
627.574	17286.56
627.768	17073.57
627.963	17065.38
628.157	16672.17
628.352	17051.05
628.546	16633.26
628.74	16731.56
628.935	16659.88
629.129	16604.59
629.323	16205.24
629.517	16518.57
629.712	16276.91
629.906	16252.34
630.1	16051.64
630.294	16131.51
630.489	15857.08
630.683	16041.4
630.877	15934.9
631.071	15445.44
631.265	15275.46
631.459	15580.6
631.653	15424.96
631.848	15093.19
632.042	15273.41
632.236	15508.93
632.43	15181.25
632.624	15132.1
632.818	15064.52
633.012	14935.49
633.206	14767.56
633.4	14974.41
633.594	14480.85
633.788	14667.21
633.982	14626.25
634.176	14411.21
634.369	14360.02
634.563	14319.06
634.757	14022.1
634.951	14312.91
635.145	14228.95
635.339	14226.9
635.533	14052.82
635.726	13747.67
635.92	13600.22
636.114	13757.91
636.308	13741.53
636.501	13596.12
636.695	13645.27
636.889	13420
637.083	13323.74
637.276	13325.79
637.47	13385.18
637.664	13215.2
637.857	13108.71
638.051	12914.15
638.244	12967.4
638.438	12985.83
638.632	12977.64
638.825	12758.5
639.019	12658.15
639.212	12572.14
639.406	12590.57
639.599	12654.06
639.793	12518.89
639.986	12426.73
640.18	12322.29
640.373	12111.35
640.567	12252.66
640.76	12353.01
640.954	12011
641.147	11963.89
641.34	11939.32
641.534	12197.36
641.727	11869.69
641.92	11720.18
642.114	11701.75
642.307	11679.22
642.5	11425.28
642.694	11474.43
642.887	11392.51
643.08	11302.4
643.273	11587.07
643.467	11496.96
643.66	11243.01
643.853	11064.83
644.046	11132.42
644.239	11173.38
644.432	10991.11
644.626	10878.47
644.819	10903.04
645.012	10896.9
645.205	11105.79
645.398	10696.2
645.591	10747.4
645.784	10638.86
645.977	10446.35
646.17	10593.8
646.363	10378.76
646.556	10161.68
646.749	10409.48
646.942	10479.11
647.135	10251.79
647.328	10290.7
647.521	10184.21
647.714	9727.51
647.907	9844.24
648.099	9893.4
648.292	9729.56
648.485	10040.85
648.678	9627.16
648.871	9795.09
649.064	9491.99
649.256	9725.46
649.449	9459.23
649.642	9446.94
649.835	9420.31
650.027	9608.73
650.22	9410.08
650.413	9397.79
650.605	9322.01
650.798	9186.85
650.991	9049.63
651.183	9154.08
651.376	9137.7
651.568	9066.02
651.761	8936.99
651.954	8955.43
652.146	8971.81
652.339	8787.49
652.531	8838.69
652.724	8844.84
652.916	8640.04
653.109	8801.83
653.301	8642.09
653.494	8775.2
653.686	8394.28
653.879	8713.77
654.071	8418.86
654.263	8408.62
654.456	8433.19
654.648	8183.34
654.84	8177.2
655.033	8330.8
655.225	8183.34
655.417	8234.54
655.61	8093.23
655.802	8169.01
655.994	7886.39
656.186	7968.31
656.379	7861.81
656.571	7788.08
656.763	7892.53
656.955	7863.86
657.148	8021.55
657.34	7810.61
657.532	7695.93
657.724	7530.04
657.916	7595.57
658.108	7575.1
658.3	7421.5
658.492	7560.76
658.684	7448.12
658.876	7505.46
659.068	7378.49
659.26	7284.28
659.452	7282.24
659.644	7577.14
659.836	7269.95
660.028	7364.15
660.22	7255.61
660.412	7231.04
660.604	6895.17
660.796	7011.9
660.988	6919.75
661.18	6848.07
661.372	6981.18
661.563	6852.16
661.755	6895.17
661.947	6927.94
662.139	6895.17
662.331	6964.8
662.522	6630.98
662.714	6522.44
662.906	6544.97
663.097	6585.93
663.289	6659.65
663.481	6424.14
663.673	6669.89
663.864	6518.34
664.056	6372.94
664.247	6377.03
664.439	6215.24
664.631	6565.45
664.822	6395.47
665.014	6491.72
665.205	6100.56
665.397	6282.83
665.588	6063.69
665.78	6172.24
665.971	5963.34
666.163	6131.28
666.354	6065.74
666.546	6020.69
666.737	6026.83
666.929	5916.24
667.12	5897.81
667.311	6092.37
667.503	5922.38
667.694	5955.15
667.885	5858.9
668.077	5838.42
668.268	5858.9
668.459	5641.81
668.651	5676.63
668.842	5650
669.033	5633.62
669.224	5819.99
669.416	5768.79
669.607	5658.2
669.798	5590.61
669.989	5682.77
670.18	5633.62
670.371	5531.22
670.563	5475.93
670.754	5463.64
670.945	5291.61
671.136	5406.3
671.327	5238.36
671.518	5549.65
671.709	5342.81
671.9	5285.47
672.091	5328.47
672.282	5285.47
672.473	5281.37
672.664	5054.05
672.855	5217.88
673.046	5181.02
673.237	5133.92
673.428	5303.9
673.619	5203.55
673.809	5013.09
674	5025.37
674.191	5070.43
674.382	5103.2
674.573	5060.19
674.764	5129.82
674.954	4922.98
675.145	4849.25
675.336	4888.16
675.527	4922.98
675.717	4961.89
675.908	4765.28
676.099	4765.28
676.289	4820.58
676.48	4843.1
676.671	4734.56
676.861	4800.1
677.052	4744.8
677.243	4648.55
677.433	4626.02
677.624	4687.46
677.814	4623.97
678.005	4718.18
678.195	4691.56
678.386	4709.99
678.576	4515.43
678.767	4681.32
678.957	4587.11
679.148	4585.06
679.338	4537.96
679.529	4550.25
679.719	4580.96
679.909	4580.96
680.1	4476.52
680.29	4497
680.481	4474.47
680.671	4587.11
680.861	4494.95
681.052	4349.54
681.242	4337.26
681.432	4548.2
681.622	4292.2
681.813	4470.37
682.003	4488.81
682.193	4234.86
682.383	4333.16
682.573	4331.11
682.764	4327.02
682.954	4408.94
683.144	4312.68
683.334	4333.16
683.524	4195.95
683.714	4265.58
683.904	4361.83
684.094	4157.04
684.284	4093.55
684.474	4355.69
684.664	4218.47
684.854	4171.37
685.044	4077.16
685.234	4171.37
685.424	4200.04
685.614	4097.64
685.804	4134.51
685.994	4048.49
686.184	4091.5
686.374	3958.38
686.564	3993.2
686.753	4009.58
686.943	3925.61
687.133	3929.71
687.323	3927.66
687.513	4122.22
687.702	3974.77
687.892	3819.12
688.082	3886.7
688.272	3913.33
688.461	3972.72
688.651	4034.16
688.841	3876.46
689.03	3894.9
689.22	3661.43
689.41	3735.15
689.599	3737.2
689.789	3751.54
689.979	3722.87
690.168	3673.71
690.358	3526.26
690.547	3681.91
690.737	3737.2
690.926	3712.63
691.116	3616.37
691.305	3610.23
691.495	3468.92
691.684	3552.88
691.874	3548.79
692.063	3481.21
692.252	3473.01
692.442	3411.57
692.631	3597.94
692.82	3391.09
693.01	3364.47
693.199	3384.95
693.388	3370.62
693.578	3284.6
693.767	3440.25
693.956	3300.98
694.146	3225.21
694.335	3462.77
694.524	3251.83
694.713	3311.22
694.902	3241.59
695.092	3305.08
695.281	3241.59
695.47	3307.13
695.659	3214.97
695.848	3321.46
696.037	3241.59
696.226	3206.78
696.415	3286.65
696.604	3135.1
696.793	3229.31
696.982	3317.37
697.171	3223.16
697.36	3151.48
697.549	3073.66
697.738	3036.8
697.927	3124.86
698.116	3161.72
698.305	3049.08
698.494	3090.04
698.683	3188.35
698.872	2999.93
699.061	2993.79
699.25	3018.36
699.438	3092.09
699.627	3139.19
699.816	3071.61
700.005	3094.14
700.193	2987.65
700.382	3096.19
700.571	3081.85
700.76	3047.04
700.948	3053.18
701.137	2850.43
701.326	2948.73
701.514	2911.87
701.703	2956.93
701.892	2948.73
702.08	2995.84
702.269	2967.17
702.457	3001.98
702.646	2942.59
702.834	2950.78
703.023	2901.63
703.212	2782.85
703.4	2907.77
703.589	3024.51
703.777	2827.9
703.965	2895.49
704.154	2936.45
704.342	2905.73
704.531	2944.64
704.719	2936.45
704.907	2913.92
705.096	2979.45
705.284	2965.12
705.472	2922.11
705.661	2879.1
705.849	2829.95
706.037	2768.51
706.226	2872.96
706.414	2795.14
706.602	2805.38
706.79	2909.82
706.979	2786.94
707.167	2784.9
707.355	2848.38
707.543	2862.72
707.731	2895.49
707.919	2909.82
708.107	2735.74
708.296	2764.42
708.484	2811.52
708.672	2700.93
708.86	2899.58
709.048	2797.18
709.236	2782.85
709.424	2795.14
709.612	2799.23
709.8	2688.64
709.988	2735.74
710.176	2774.66
710.364	2768.51
710.551	2846.34
710.739	2864.77
710.927	2813.57
711.115	2741.89
711.303	2815.62
711.491	2756.22
711.679	2819.71
711.866	2621.06
712.054	2784.9
712.242	2727.55
712.43	2786.94
712.617	2733.7
712.805	2659.97
712.993	2756.22
713.181	2508.42
713.368	2694.79
713.556	2801.28
713.744	2739.84
713.931	2780.8
714.119	2705.03
714.306	2743.94
714.494	2741.89
714.682	2725.51
714.869	2668.16
715.057	2657.92
715.244	2702.98
715.432	2764.42
715.619	2690.69
715.807	2780.8
715.994	2760.32
716.182	2827.9
716.369	2584.2
716.556	2688.64
716.744	2752.13
716.931	2600.58
717.119	2647.68
717.306	2590.34
717.493	2684.55
717.681	2623.11
717.868	2651.78
718.055	2811.52
718.242	2559.62
718.43	2645.63
718.617	2545.28
718.804	2590.34
718.991	2705.03
719.179	2698.88
719.366	2700.93
719.553	2582.15
719.74	2586.24
719.927	2582.15
720.114	2647.68
720.301	2612.87
720.488	2702.98
720.676	2526.85
720.863	2651.78
721.05	2608.77
721.237	2690.69
721.424	2711.17
721.611	2557.57
721.798	2610.82
721.985	2649.73
722.172	2535.04
722.358	2633.35
722.545	2696.83
722.732	2533
722.919	2588.29
723.106	2707.07
723.293	2655.87
723.48	2707.07
723.667	2604.67
723.853	2477.7
724.04	2594.44
724.227	2612.87
724.414	2576
724.6	2623.11
724.787	2578.05
724.974	2563.72
725.161	2557.57
725.347	2567.81
725.534	2711.17
725.72	2627.2
725.907	2596.48
726.094	2555.52
726.28	2621.06
726.467	2586.24
726.653	2555.52
726.84	2584.2
727.027	2629.25
727.213	2508.42
727.4	2625.15
727.586	2403.97
727.773	2584.2
727.959	2676.35
728.145	2582.15
728.332	2614.91
728.518	2489.99
728.705	2676.35
728.891	2608.77
729.077	2586.24
729.264	2584.2
729.45	2600.58
729.636	2590.34
729.823	2514.56
730.009	2608.77
730.195	2596.48
730.382	2664.07
730.568	2616.96
730.754	2715.27
730.94	2602.63
731.126	2651.78
731.313	2610.82
731.499	2592.39
731.685	2631.3
731.871	2571.91
732.057	2561.67
732.243	2668.16
732.429	2549.38
732.615	2573.96
732.801	2606.72
732.987	2557.57
733.173	2557.57
733.359	2602.63
733.545	2600.58
733.731	2514.56
733.917	2659.97
734.103	2621.06
734.289	2522.76
734.475	2489.99
734.661	2537.09
734.847	2557.57
735.033	2539.14
735.219	2487.94
735.404	2545.28
735.59	2500.23
735.776	2543.24
735.962	2530.95
736.148	2537.09
736.333	2467.46
736.519	2573.96
736.705	2686.59
736.89	2500.23
737.076	2614.91
737.262	2604.67
737.447	2506.37
737.633	2489.99
737.819	2557.57
738.004	2553.48
738.19	2619.01
738.375	2479.75
738.561	2498.18
738.747	2457.22
738.932	2518.66
739.118	2520.71
739.303	2410.12
739.489	2442.89
739.674	2383.49
739.859	2379.4
740.045	2326.15
740.23	2526.85
740.416	2401.93
740.601	2401.93
740.786	2453.13
740.972	2436.74
741.157	2303.62
741.342	2395.78
741.528	2303.62
741.713	2326.15
741.898	2473.6
742.084	2340.49
742.269	2418.31
742.454	2350.73
742.639	2358.92
742.824	2373.25
743.01	2446.98
743.195	2342.53
743.38	2262.66
743.565	2262.66
743.75	2309.77
743.935	2246.28
744.12	2360.97
744.305	2244.23
744.49	2279.05
744.675	2184.84
744.86	2254.47
745.045	2270.86
745.23	2223.75
745.415	2262.66
745.6	2174.6
745.785	2172.55
745.97	2291.34
746.155	2178.7
746.34	2184.84
746.525	2137.74
746.71	2242.18
746.895	2143.88
747.079	2113.16
747.264	2109.07
747.449	2184.84
747.634	2143.88
747.819	2076.3
748.003	2031.24
748.188	2066.06
748.373	2074.25
748.557	2109.07
748.742	1961.61
748.927	2066.06
749.111	1994.38
749.296	2055.82
749.481	1986.19
749.665	1971.85
749.85	1957.52
750.034	1967.76
750.219	1896.08
750.404	1973.9
750.588	1844.88
750.773	1918.61
750.957	1848.97
751.141	1855.12
751.326	1805.97
751.51	1840.78
751.695	1912.46
751.879	1930.89
752.064	1791.63
752.248	1742.48
752.432	1883.79
752.617	1752.72
752.801	1744.53
752.985	1799.82
753.17	1648.27
753.354	1857.17
753.538	1664.66
753.722	1662.61
753.907	1638.03
754.091	1695.38
754.275	1687.18
754.459	1701.52
754.643	1576.59
754.828	1705.62
755.012	1599.12
755.196	1623.7
755.38	1586.83
755.564	1650.32
755.748	1543.83
755.932	1619.6
756.116	1504.92
756.3	1556.11
756.484	1500.82
756.668	1543.83
756.852	1492.63
757.036	1455.76
757.22	1468.05
757.404	1509.01
757.588	1490.58
757.772	1457.81
757.956	1537.68
758.14	1353.37
758.323	1379.99
758.507	1535.64
758.691	1517.2
758.875	1386.13
759.059	1418.9
759.242	1388.18
759.426	1339.03
759.61	1316.5
759.794	1316.5
759.977	1412.76
760.161	1416.85
760.345	1382.04
760.528	1300.12
760.712	1347.22
760.895	1273.5
761.079	1359.51
761.263	1273.5
761.446	1244.82
761.63	1293.97
761.813	1250.97
761.997	1240.73
762.18	1238.68
762.364	1279.64
762.547	1265.3
762.731	1226.39
762.914	1218.2
763.098	1210.01
763.281	1214.1
763.464	1261.21
763.648	1136.28
763.831	1218.2
764.015	1175.19
764.198	1275.54
764.381	1203.86
764.564	1226.39
764.748	1197.72
764.931	1310.36
765.114	1189.53
765.297	1121.95
765.481	1167
765.664	1244.82
765.847	1169.05
766.03	1197.72
766.213	1177.24
766.397	1085.08
766.58	1167
766.763	1160.86
766.946	1087.13
767.129	1136.28
767.312	1171.1
767.495	1109.66
767.678	1037.98
767.861	1136.28
768.044	1123.99
768.227	1160.86
768.41	1187.48
768.593	999.07
768.776	980.64
768.959	1078.94
769.142	1062.55
769.324	1126.04
769.507	1091.23
769.69	1042.07
769.873	1029.79
770.056	1107.61
770.239	1062.55
770.421	1089.18
770.604	1040.03
770.787	984.73
770.97	1048.22
771.152	1021.6
771.335	951.96
771.518	1011.36
771.7	1015.45
771.883	982.68
772.066	1050.27
772.248	945.82
772.431	1050.27
772.613	958.11
772.796	960.16
772.978	945.82
773.161	1011.36
773.343	933.53
773.526	1009.31
773.708	835.23
773.891	929.44
774.073	990.88
774.256	863.9
774.438	997.02
774.621	847.52
774.803	933.53
774.985	919.2
775.168	876.19
775.35	868
775.532	923.29
775.715	927.39
775.897	818.85
776.079	843.42
776.261	804.51
776.444	911
776.626	810.65
776.808	861.85
776.99	765.6
777.173	837.28
777.355	798.37
777.537	878.24
777.719	777.89
777.901	743.07
778.083	728.74
778.265	792.22
778.447	745.12
778.629	761.5
778.811	681.63
778.993	706.21
779.175	788.13
779.357	718.5
779.539	753.31
779.721	732.83
779.903	786.08
780.085	767.65
780.267	790.17
780.449	724.64
780.631	749.22
780.812	765.6
780.994	612
781.176	767.65
781.358	620.19
781.54	657.06
781.721	693.92
781.903	681.63
782.085	612
782.267	683.68
782.448	728.74
782.63	536.23
782.812	607.91
782.993	579.23
783.175	669.34
783.357	671.39
783.538	554.66
783.72	575.14
783.901	628.39
784.083	720.54
784.264	681.63
784.446	587.43
784.627	603.81
784.809	601.76
784.99	536.23
785.172	491.17
785.353	558.75
785.535	542.37
785.716	550.56
785.897	536.23
786.079	579.23
786.26	542.37
786.441	657.06
786.623	540.32
786.804	487.08
786.985	474.79
787.167	568.99
787.348	564.9
787.529	497.32
787.71	523.94
787.891	560.8
788.073	476.84
788.254	493.22
788.435	509.6
788.616	485.03
788.797	478.88
788.978	450.21
789.159	452.26
789.34	562.85
789.522	419.49
789.703	396.96
789.884	523.94
790.065	493.22
790.246	458.4
790.427	386.72
790.607	409.25
790.788	435.88
790.969	425.64
791.15	497.32
791.331	427.68
791.512	517.79
791.693	403.11
791.874	396.96
792.054	429.73
792.235	446.12
792.416	370.34
792.597	302.76
792.778	431.78
792.958	411.3
793.139	417.44
793.32	333.48
793.5	419.49
793.681	444.07
793.862	415.4
794.042	358.05
794.223	378.53
794.404	399.01
794.584	376.48
794.765	392.87
794.945	374.44
795.126	392.87
795.306	349.86
795.487	333.48
795.667	353.96
795.848	419.49
796.028	276.13
796.209	327.33
796.389	419.49
796.57	392.87
796.75	360.1
796.93	358.05
797.111	374.44
797.291	306.85
797.471	444.07
797.652	343.72
797.832	272.04
798.012	339.62
798.192	313
798.373	308.9
798.553	337.57
798.733	302.76
798.913	315.05
799.093	315.05
799.274	325.29
799.454	413.35
799.634	310.95
799.814	337.57
799.994	337.57
800.174	294.57
800.354	386.72
800.534	310.95
800.714	325.29
800.894	356.01
801.074	310.95
801.254	300.71
801.434	284.33
801.614	222.89
801.794	263.85
801.974	644.77
802.154	251.56
802.334	337.57
802.514	304.81
802.693	288.42
802.873	251.56
803.053	337.57
803.233	356.01
803.413	288.42
803.592	259.75
803.772	235.18
803.952	278.18
804.131	298.66
804.311	226.98
804.491	345.77
804.67	317.09
804.85	308.9
805.03	290.47
805.209	294.57
805.389	278.18
805.568	274.09
805.748	218.79
805.928	263.85
806.107	249.51
806.287	249.51
806.466	261.8
806.646	321.19
806.825	222.89
807.004	231.08
807.184	261.8
807.363	159.4
807.543	280.23
807.722	202.41
807.901	247.46
808.081	198.31
808.26	190.12
808.439	278.18
808.619	290.47
808.798	247.46
808.977	276.13
809.156	235.18
809.336	163.5
809.515	145.06
809.694	214.7
809.873	220.84
810.052	265.89
810.231	278.18
810.411	175.78
810.59	253.61
810.769	210.6
810.948	255.65
811.127	169.64
811.306	163.5
811.485	259.75
811.664	294.57
811.843	251.56
812.022	214.7
812.201	179.88
812.38	292.52
812.559	282.28
812.737	212.65
812.916	269.99
813.095	177.83
813.274	183.98
813.453	212.65
813.632	243.37
813.811	192.17
813.989	181.93
814.168	267.94
814.347	136.87
814.526	128.68
814.704	210.6
814.883	218.79
815.062	233.13
815.24	214.7
815.419	249.51
815.598	237.22
815.776	186.02
815.955	194.22
816.133	136.87
816.312	167.59
816.49	155.3
816.669	214.7
816.847	136.87
817.026	173.74
817.204	192.17
817.383	155.3
817.561	173.74
817.74	175.78
817.918	169.64
818.097	155.3
818.275	112.3
818.453	196.26
818.632	69.29
818.81	97.96
818.988	173.74
819.167	216.74
819.345	147.11
819.523	200.36
819.701	169.64
819.879	192.17
820.058	145.06
820.236	114.34
820.414	132.78
820.592	161.45
820.77	206.5
820.948	143.02
821.127	206.5
821.305	151.21
821.483	147.11
821.661	100.01
821.839	126.63
822.017	186.02
822.195	161.45
822.373	155.3
822.551	132.78
822.729	151.21
822.907	169.64
823.085	204.46
823.262	188.07
823.44	110.25
823.618	40.62
823.796	134.82
823.974	91.82
824.152	155.3
824.329	177.83
824.507	130.73
824.685	124.58
824.863	132.78
825.04	157.35
825.218	163.5
825.396	46.76
825.574	124.58
825.751	52.91
825.929	140.97
826.107	87.72
826.284	134.82
826.462	122.54
826.639	163.5
826.817	169.64
826.994	145.06
827.172	134.82
827.349	108.2
827.527	136.87
827.704	100.01
827.882	87.72
828.059	186.02
828.237	104.11
828.414	106.15
828.591	128.68
828.769	100.01
828.946	149.16
829.124	50.86
829.301	149.16
829.478	77.48
829.655	140.97
829.833	138.92
830.01	83.63
830.187	120.49
830.364	145.06
830.542	93.87
830.719	157.35
830.896	61.1
831.073	87.72
831.25	71.34
831.427	118.44
831.604	32.43
831.782	124.58
831.959	163.5
832.136	124.58
832.313	155.3
832.49	104.11
832.667	73.39
832.844	77.48
833.021	132.78
833.198	97.96
833.374	108.2
833.551	124.58
833.728	132.78
833.905	116.39
834.082	54.95
834.259	204.46
834.436	138.92
834.612	85.67
834.789	145.06
834.966	134.82
835.143	104.11
835.319	114.34
835.496	167.59
835.673	104.11
835.85	155.3
836.026	110.25
836.203	126.63
836.38	132.78
836.556	40.62
836.733	50.86
836.909	5.8
837.086	67.24
837.262	61.1
837.439	124.58
837.616	48.81
837.792	79.53
837.968	81.58
838.145	69.29
838.321	42.67
838.498	71.34
838.674	63.15
838.851	95.91
839.027	28.33
839.203	91.82
839.38	79.53
839.556	95.91
839.732	100.01
839.909	75.43
840.085	97.96
840.261	34.47
840.437	130.73
840.614	153.26
840.79	34.47
840.966	83.63
841.142	83.63
841.318	3.75
841.494	102.06
841.671	44.71
841.847	83.63
842.023	46.76
842.199	145.06
842.375	116.39
842.551	-2.39
842.727	24.23
842.903	93.87
843.079	36.52
843.255	69.29
843.431	46.76
843.607	79.53
843.783	24.23
843.959	65.19
844.134	59.05
844.31	149.16
844.486	34.47
844.662	73.39
844.838	95.91
845.013	120.49
845.189	108.2
845.365	32.43
845.541	114.34
845.716	91.82
845.892	63.15
846.068	132.78
846.244	9.9
846.419	42.67
846.595	5.8
846.77	-10.58
846.946	-8.53
847.122	85.67
847.297	3.75
847.473	157.35
847.648	71.34
847.824	79.53
847.999	32.43
848.175	67.24
848.35	22.19
848.526	50.86
848.701	61.1
848.876	71.34
849.052	138.92
849.227	79.53
849.403	44.71
849.578	69.29
849.753	143.02
849.929	69.29
850.104	26.28
850.279	34.47
850.454	85.67
850.63	128.68
850.805	22.19
850.98	28.33
851.155	81.58
851.33	91.82
851.505	-31.06
851.681	93.87
851.856	91.82
852.031	110.25
852.206	-16.73
852.381	16.04
852.556	46.76
852.731	40.62
852.906	61.1
853.081	36.52
853.256	22.19
853.431	83.63
853.606	81.58
853.781	120.49
853.956	7.85
854.131	87.72
854.305	30.38
854.48	63.15
854.655	24.23
854.83	79.53
855.005	13.99
855.18	-2.39
855.354	42.67
855.529	93.87
855.704	54.95
855.879	-14.68
856.053	67.24
856.228	83.63
856.403	44.71
856.577	50.86
856.752	106.15
856.926	46.76
857.101	83.63
857.276	97.96
857.45	-16.73
857.625	1.71
857.799	52.91
857.974	13.99
858.148	40.62
858.323	61.1
858.497	13.99
858.672	93.87
858.846	30.38
859.02	50.86
859.195	28.33
859.369	59.05
859.543	32.43
859.718	97.96
859.892	59.05
860.066	5.8
860.241	3.75
860.415	1.71
860.589	65.19
860.763	83.63
860.938	32.43
861.112	104.11
861.286	42.67
861.46	112.3
861.634	9.9
861.808	42.67
861.982	77.48
862.157	24.23
862.331	93.87
862.505	36.52
862.679	67.24
862.853	24.23
863.027	22.19
863.201	79.53
863.375	50.86
863.549	91.82
863.722	-0.34
863.896	26.28
864.07	81.58
864.244	118.44
864.418	9.9
864.592	42.67
864.766	34.47
864.939	42.67
865.113	73.39
865.287	50.86
865.461	48.81
865.634	63.15
865.808	-20.82
865.982	-29.01
866.156	-10.58
866.329	46.76
866.503	50.86
866.676	95.91
866.85	-14.68
867.024	-29.01
867.197	52.91
867.371	114.34
867.544	89.77
867.718	22.19
867.891	44.71
868.065	-47.44
868.238	26.28
868.412	22.19
868.585	30.38
868.759	40.62
868.932	22.19
869.105	-14.68
869.279	-33.11
869.452	1.71
869.625	13.99
869.799	59.05
869.972	16.04
870.145	-20.82
870.319	83.63
870.492	-4.44
870.665	-4.44
870.838	73.39
871.011	13.99
871.185	5.8
871.358	13.99
871.531	50.86
871.704	54.95
871.877	9.9
872.05	-10.58
872.223	34.47
872.396	-22.87
872.569	40.62
872.742	-20.82
872.915	81.58
873.088	-26.96
873.261	18.09
873.434	75.43
873.607	28.33
873.78	1.71
873.953	32.43
874.126	5.8
874.299	38.57
874.471	38.57
874.644	-26.96
874.817	79.53
874.99	93.87
875.163	54.95
875.335	9.9
875.508	26.28
875.681	57
875.853	40.62
876.026	18.09
876.199	61.1
876.371	28.33
876.544	44.71
876.717	13.99
876.889	52.91
877.062	-12.63
877.234	-26.96
877.407	-4.44
877.579	11.95
877.752	61.1
877.924	65.19
878.097	97.96
878.269	30.38
878.442	20.14
878.614	75.43
878.786	13.99
878.959	32.43
879.131	54.95
879.303	-31.06
879.476	7.85
879.648	-4.44
879.82	46.76
879.993	48.81
880.165	120.49
880.337	26.28
880.509	-12.63
880.681	-26.96
880.854	54.95
881.026	59.05
881.198	77.48
881.37	-108.88
881.542	22.19
881.714	24.23
881.886	-6.49
882.058	71.34
882.23	34.47
882.402	-0.34
882.574	34.47
882.746	52.91
882.918	48.81
883.09	-29.01
883.262	-16.73
883.434	-39.25
883.606	20.14
883.778	32.43
883.95	116.39
884.122	5.8
884.293	114.34
884.465	20.14
884.637	83.63
884.809	-16.73
884.98	22.19
885.152	-4.44
885.324	-37.2
885.496	40.62
885.667	73.39
885.839	9.9
886.011	75.43
886.182	5.8
886.354	87.72
886.525	36.52
886.697	-20.82
886.869	30.38
887.04	61.1
887.212	65.19
887.383	36.52
887.555	81.58
887.726	-20.82
887.897	5.8
888.069	-20.82
888.24	9.9
888.412	71.34
888.583	42.67
888.754	48.81
888.926	30.38
889.097	83.63
889.268	9.9
889.44	9.9
889.611	-45.4
889.782	46.76
889.953	11.95
890.125	18.09
890.296	24.23
890.467	22.19
890.638	3.75
890.809	-35.16
890.98	-129.36
891.151	24.23
891.323	71.34
891.494	-4.44
891.665	-12.63
891.836	112.3
892.007	36.52
892.178	-12.63
892.349	-18.77
892.52	-6.49
892.691	-18.77
892.862	42.67
893.032	5.8
893.203	-47.44
893.374	77.48
893.545	18.09
893.716	-12.63
893.887	1.71
894.057	-2.39
894.228	28.33
894.399	7.85
894.57	1.71
894.74	26.28
894.911	-4.44
895.082	46.76
895.253	28.33
895.423	24.23
895.594	22.19
895.764	28.33
895.935	-59.73
896.106	42.67
896.276	28.33
896.447	16.04
896.617	1.71
896.788	-22.87
896.958	-39.25
897.129	1.71
897.299	-39.25
897.47	1.71
897.64	24.23
897.81	16.04
897.981	30.38
898.151	3.75
898.322	61.1
898.492	40.62
898.662	48.81
898.832	44.71
899.003	75.43
899.173	34.47
899.343	1.71
899.513	52.91
