Data from USB4F104151__83__11-06-35-183.txt Node

Date: Wed Mar 12 11:06:35 EDT 2025
User: louis
Spectrometer: USB4F10415
Trigger mode: 4
Integration Time (sec): 2.000000E-2
Scans to average: 1
Electric dark correction enabled: true
Nonlinearity correction enabled: false
Boxcar width: 0
XAxis mode: Wavelengths
Number of Pixels in Spectrum: 3648
>>>>>Begin Spectral Data<<<<<
178.204	-144.89
178.424	-144.89
178.644	-144.89
178.864	-101.89
179.084	-130.56
179.304	-15.87
179.524	-73.21
179.744	59.9
179.964	-32.26
180.184	12.8
180.404	10.75
180.624	12.8
180.844	-22.02
181.064	-7.68
181.283	70.14
181.503	-15.87
181.723	0.51
181.943	10.75
182.163	0.51
182.383	82.43
182.602	74.24
182.822	-36.35
183.042	39.42
183.262	-34.3
183.482	-44.54
183.701	35.33
183.921	29.18
184.141	12.8
184.361	25.09
184.58	-32.26
184.8	4.61
185.02	-1.54
185.239	49.66
185.459	35.33
185.679	37.38
185.898	-19.97
186.118	-26.11
186.338	6.66
186.557	20.99
186.777	27.14
186.997	-52.74
187.216	-32.26
187.436	25.09
187.655	31.23
187.875	47.62
188.095	-44.54
188.314	45.57
188.534	39.42
188.753	4.61
188.973	20.99
189.192	39.42
189.412	0.51
189.631	27.14
189.851	-32.26
190.07	-54.78
190.29	8.7
190.509	-87.55
190.729	-5.63
190.948	76.29
191.168	96.77
191.387	37.38
191.607	-87.55
191.826	25.09
192.045	-42.5
192.265	25.09
192.484	16.9
192.704	-40.45
192.923	-1.54
193.142	-1.54
193.362	20.99
193.581	41.47
193.8	23.04
194.02	82.43
194.239	-44.54
194.458	39.42
194.678	2.56
194.897	6.66
195.116	31.23
195.335	-1.54
195.555	12.8
195.774	29.18
195.993	-19.97
196.212	-3.58
196.432	53.76
196.651	-5.63
196.87	8.7
197.089	31.23
197.308	4.61
197.528	0.51
197.747	-60.93
197.966	-7.68
198.185	4.61
198.404	-15.87
198.623	-9.73
198.842	-9.73
199.062	61.95
199.281	6.66
199.5	-32.26
199.719	-38.4
199.938	2.56
200.157	29.18
200.376	31.23
200.595	74.24
200.814	-19.97
201.033	41.47
201.252	121.34
201.471	-15.87
201.69	18.94
201.909	6.66
202.128	-5.63
202.347	10.75
202.566	-26.11
202.785	72.19
203.004	-28.16
203.223	27.14
203.442	-69.12
203.661	-58.88
203.879	29.18
204.098	33.28
204.317	-50.69
204.536	43.52
204.755	51.71
204.974	12.8
205.193	23.04
205.411	-7.68
205.63	45.57
205.849	27.14
206.068	27.14
206.287	-36.35
206.505	33.28
206.724	-24.06
206.943	-11.78
207.162	20.99
207.381	8.7
207.599	0.51
207.818	-36.35
208.037	8.7
208.255	14.85
208.474	-3.58
208.693	82.43
208.911	-44.54
209.13	2.56
209.349	82.43
209.567	-17.92
209.786	-11.78
210.005	41.47
210.223	51.71
210.442	-40.45
210.661	41.47
210.879	-15.87
211.098	-38.4
211.316	43.52
211.535	-42.5
211.753	41.47
211.972	25.09
212.191	16.9
212.409	57.86
212.628	2.56
212.846	4.61
213.065	33.28
213.283	35.33
213.502	57.86
213.72	-3.58
213.938	100.86
214.157	-3.58
214.375	10.75
214.594	-69.12
214.812	29.18
215.031	8.7
215.249	0.51
215.467	-3.58
215.686	-42.5
215.904	61.95
216.122	-42.5
216.341	-1.54
216.559	53.76
216.778	29.18
216.996	0.51
217.214	100.86
217.432	8.7
217.651	96.77
217.869	-13.82
218.087	84.48
218.306	8.7
218.524	43.52
218.742	12.8
218.96	10.75
219.179	8.7
219.397	-13.82
219.615	59.9
219.833	57.86
220.051	-24.06
220.27	6.66
220.488	10.75
220.706	16.9
220.924	-17.92
221.142	43.52
221.36	-1.54
221.578	25.09
221.796	-3.58
222.015	12.8
222.233	25.09
222.451	59.9
222.669	-36.35
222.887	41.47
223.105	39.42
223.323	-22.02
223.541	-19.97
223.759	-19.97
223.977	-26.11
224.195	10.75
224.413	96.77
224.631	-11.78
224.849	33.28
225.067	29.18
225.285	25.09
225.503	31.23
225.721	27.14
225.939	72.19
226.157	59.9
226.375	6.66
226.592	-36.35
226.81	47.62
227.028	37.38
227.246	10.75
227.464	-1.54
227.682	-7.68
227.9	-11.78
228.117	41.47
228.335	29.18
228.553	-26.11
228.771	4.61
228.989	-1.54
229.206	-62.98
229.424	14.85
229.642	74.24
229.86	-1.54
230.077	-11.78
230.295	4.61
230.513	45.57
230.731	41.47
230.948	-24.06
231.166	74.24
231.384	12.8
231.601	-93.69
231.819	37.38
232.037	74.24
232.254	-3.58
232.472	27.14
232.689	41.47
232.907	47.62
233.125	-13.82
233.342	39.42
233.56	18.94
233.777	2.56
233.995	2.56
234.213	109.05
234.43	115.2
234.648	4.61
234.865	16.9
235.083	-17.92
235.3	-85.5
235.518	4.61
235.735	111.1
235.953	64
236.17	-3.58
236.388	-50.69
236.605	43.52
236.822	70.14
237.04	51.71
237.257	-7.68
237.475	29.18
237.692	8.7
237.909	45.57
238.127	-36.35
238.344	35.33
238.562	37.38
238.779	8.7
238.996	53.76
239.214	10.75
239.431	51.71
239.648	43.52
239.865	-34.3
240.083	-5.63
240.3	4.61
240.517	20.99
240.735	-26.11
240.952	-7.68
241.169	16.9
241.386	-50.69
241.603	-3.58
241.821	-54.78
242.038	29.18
242.255	-22.02
242.472	-9.73
242.689	49.66
242.907	33.28
243.124	-15.87
243.341	-28.16
243.558	-9.73
243.775	-34.3
243.992	-73.21
244.209	33.28
244.426	43.52
244.643	-5.63
244.86	43.52
245.078	12.8
245.295	-11.78
245.512	16.9
245.729	-30.21
245.946	33.28
246.163	8.7
246.38	53.76
246.597	-56.83
246.814	16.9
247.031	-28.16
247.248	-3.58
247.464	-36.35
247.681	35.33
247.898	-7.68
248.115	39.42
248.332	4.61
248.549	18.94
248.766	41.47
248.983	18.94
249.2	10.75
249.417	66.05
249.633	-44.54
249.85	-19.97
250.067	14.85
250.284	-32.26
250.501	-11.78
250.717	10.75
250.934	27.14
251.151	57.86
251.368	70.14
251.585	39.42
251.801	12.8
252.018	-5.63
252.235	33.28
252.451	29.18
252.668	35.33
252.885	53.76
253.102	49.66
253.318	70.14
253.535	6.66
253.752	-56.83
253.968	-19.97
254.185	-13.82
254.401	-15.87
254.618	4.61
254.835	-17.92
255.051	4.61
255.268	-7.68
255.484	-32.26
255.701	-46.59
255.917	10.75
256.134	25.09
256.351	64
256.567	55.81
256.784	-3.58
257	-56.83
257.217	-9.73
257.433	6.66
257.65	37.38
257.866	76.29
258.082	49.66
258.299	47.62
258.515	-9.73
258.732	-65.02
258.948	12.8
259.165	2.56
259.381	8.7
259.597	68.09
259.814	10.75
260.03	61.95
260.246	64
260.463	-24.06
260.679	2.56
260.895	20.99
261.112	12.8
261.328	20.99
261.544	6.66
261.761	45.57
261.977	-17.92
262.193	-13.82
262.409	64
262.626	27.14
262.842	33.28
263.058	31.23
263.274	66.05
263.49	-13.82
263.707	-40.45
263.923	20.99
264.139	29.18
264.355	-46.59
264.571	-15.87
264.787	57.86
265.004	-11.78
265.22	-44.54
265.436	-32.26
265.652	4.61
265.868	39.42
266.084	27.14
266.3	-22.02
266.516	-5.63
266.732	-95.74
266.948	18.94
267.164	51.71
267.38	-17.92
267.596	-9.73
267.812	8.7
268.028	-19.97
268.244	-9.73
268.46	-1.54
268.676	-11.78
268.892	33.28
269.108	25.09
269.324	33.28
269.54	-24.06
269.756	66.05
269.972	-38.4
270.188	-58.88
270.403	-44.54
270.619	35.33
270.835	49.66
271.051	-48.64
271.267	-19.97
271.483	-5.63
271.698	-3.58
271.914	25.09
272.13	-15.87
272.346	-52.74
272.562	33.28
272.777	78.33
272.993	4.61
273.209	-97.79
273.425	33.28
273.64	8.7
273.856	53.76
274.072	-48.64
274.287	-24.06
274.503	-7.68
274.719	-13.82
274.934	6.66
275.15	29.18
275.366	-42.5
275.581	37.38
275.797	-3.58
276.012	12.8
276.228	82.43
276.444	16.9
276.659	55.81
276.875	-3.58
277.09	-26.11
277.306	92.67
277.521	-13.82
277.737	14.85
277.952	25.09
278.168	-15.87
278.383	-9.73
278.599	29.18
278.814	16.9
279.03	70.14
279.245	4.61
279.461	-65.02
279.676	-42.5
279.892	-19.97
280.107	14.85
280.322	25.09
280.538	35.33
280.753	45.57
280.969	8.7
281.184	41.47
281.399	35.33
281.615	-19.97
281.83	37.38
282.045	8.7
282.26	-50.69
282.476	14.85
282.691	-7.68
282.906	-28.16
283.122	-5.63
283.337	-40.45
283.552	78.33
283.767	-19.97
283.983	49.66
284.198	27.14
284.413	72.19
284.628	-19.97
284.843	43.52
285.058	37.38
285.274	4.61
285.489	-34.3
285.704	-44.54
285.919	-26.11
286.134	-34.3
286.349	-40.45
286.564	96.77
286.779	16.9
286.995	8.7
287.21	-52.74
287.425	20.99
287.64	-17.92
287.855	-28.16
288.07	-60.93
288.285	33.28
288.5	33.28
288.715	37.38
288.93	-19.97
289.145	-17.92
289.36	47.62
289.575	4.61
289.79	-9.73
290.004	39.42
290.219	57.86
290.434	16.9
290.649	-24.06
290.864	-75.26
291.079	-13.82
291.294	86.53
291.509	25.09
291.724	-26.11
291.938	-7.68
292.153	33.28
292.368	59.9
292.583	-15.87
292.798	6.66
293.012	-108.03
293.227	31.23
293.442	37.38
293.657	53.76
293.871	-40.45
294.086	29.18
294.301	-9.73
294.516	92.67
294.73	8.7
294.945	37.38
295.16	23.04
295.374	-7.68
295.589	-15.87
295.804	10.75
296.018	-13.82
296.233	-1.54
296.447	53.76
296.662	-1.54
296.877	-1.54
297.091	6.66
297.306	2.56
297.52	-34.3
297.735	-19.97
297.949	20.99
298.164	-5.63
298.378	12.8
298.593	-9.73
298.807	0.51
299.022	10.75
299.236	64
299.451	-17.92
299.665	20.99
299.88	8.7
300.094	23.04
300.309	-11.78
300.523	-11.78
300.737	8.7
300.952	6.66
301.166	41.47
301.381	4.61
301.595	-17.92
301.809	18.94
302.024	35.33
302.238	16.9
302.452	72.19
302.667	0.51
302.881	92.67
303.095	64
303.309	18.94
303.524	4.61
303.738	25.09
303.952	-34.3
304.166	78.33
304.381	-40.45
304.595	68.09
304.809	0.51
305.023	12.8
305.237	8.7
305.452	2.56
305.666	20.99
305.88	31.23
306.094	-7.68
306.308	37.38
306.522	64
306.736	27.14
306.95	-24.06
307.164	-7.68
307.379	10.75
307.593	57.86
307.807	20.99
308.021	20.99
308.235	45.57
308.449	-11.78
308.663	-1.54
308.877	-17.92
309.091	20.99
309.305	53.76
309.519	-71.17
309.733	-28.16
309.947	29.18
310.161	27.14
310.374	61.95
310.588	29.18
310.802	4.61
311.016	-56.83
311.23	12.8
311.444	-5.63
311.658	25.09
311.872	10.75
312.085	37.38
312.299	88.57
312.513	33.28
312.727	45.57
312.941	-17.92
313.154	49.66
313.368	-5.63
313.582	55.81
313.796	2.56
314.009	47.62
314.223	12.8
314.437	-15.87
314.651	43.52
314.864	92.67
315.078	-73.21
315.292	45.57
315.505	-65.02
315.719	37.38
315.933	-7.68
316.146	74.24
316.36	-52.74
316.573	115.2
316.787	-3.58
317.001	76.29
317.214	-1.54
317.428	-11.78
317.641	-22.02
317.855	-50.69
318.068	0.51
318.282	-44.54
318.495	-7.68
318.709	2.56
318.922	-17.92
319.136	31.23
319.349	66.05
319.563	6.66
319.776	-28.16
319.99	43.52
320.203	92.67
320.417	20.99
320.63	-11.78
320.843	66.05
321.057	-7.68
321.27	-3.58
321.483	6.66
321.697	-11.78
321.91	27.14
322.124	72.19
322.337	64
322.55	14.85
322.763	35.33
322.977	72.19
323.19	-11.78
323.403	59.9
323.617	2.56
323.83	53.76
324.043	-19.97
324.256	-52.74
324.469	-67.07
324.683	55.81
324.896	33.28
325.109	8.7
325.322	-50.69
325.535	-19.97
325.748	27.14
325.962	-26.11
326.175	23.04
326.388	-15.87
326.601	45.57
326.814	88.57
327.027	2.56
327.24	-15.87
327.453	2.56
327.666	37.38
327.879	61.95
328.092	-5.63
328.305	-22.02
328.518	57.86
328.731	-26.11
328.944	33.28
329.157	90.62
329.37	51.71
329.583	43.52
329.796	31.23
330.009	12.8
330.222	53.76
330.435	66.05
330.648	47.62
330.861	33.28
331.073	-9.73
331.286	37.38
331.499	16.9
331.712	-11.78
331.925	14.85
332.138	-11.78
332.35	51.71
332.563	-34.3
332.776	31.23
332.989	35.33
333.202	16.9
333.414	14.85
333.627	39.42
333.84	10.75
334.053	109.05
334.265	-3.58
334.478	39.42
334.691	-1.54
334.903	49.66
335.116	-9.73
335.329	37.38
335.541	59.9
335.754	16.9
335.966	-44.54
336.179	12.8
336.392	18.94
336.604	57.86
336.817	-38.4
337.029	31.23
337.242	20.99
337.454	23.04
337.667	-32.26
337.88	51.71
338.092	4.61
338.305	-32.26
338.517	27.14
338.729	-67.07
338.942	12.8
339.154	57.86
339.367	-28.16
339.579	-15.87
339.792	12.8
340.004	31.23
340.217	25.09
340.429	23.04
340.641	68.09
340.854	20.99
341.066	6.66
341.278	49.66
341.491	51.71
341.703	25.09
341.915	-65.02
342.128	64
342.34	37.38
342.552	6.66
342.764	20.99
342.977	-15.87
343.189	8.7
343.401	33.28
343.613	-15.87
343.826	98.81
344.038	-15.87
344.25	-38.4
344.462	-77.31
344.674	27.14
344.886	23.04
345.099	-56.83
345.311	29.18
345.523	14.85
345.735	37.38
345.947	37.38
346.159	0.51
346.371	-17.92
346.583	6.66
346.795	25.09
347.007	-1.54
347.219	23.04
347.431	37.38
347.643	57.86
347.855	4.61
348.067	49.66
348.279	-50.69
348.491	12.8
348.703	43.52
348.915	47.62
349.127	25.09
349.339	-40.45
349.551	0.51
349.763	96.77
349.975	27.14
350.187	39.42
350.399	117.25
350.61	14.85
350.822	-15.87
351.034	70.14
351.246	-15.87
351.458	45.57
351.669	74.24
351.881	53.76
352.093	20.99
352.305	23.04
352.517	4.61
352.728	61.95
352.94	20.99
353.152	10.75
353.363	-11.78
353.575	-28.16
353.787	86.53
353.999	61.95
354.21	98.81
354.422	-36.35
354.633	-38.4
354.845	16.9
355.057	14.85
355.268	29.18
355.48	25.09
355.692	-7.68
355.903	27.14
356.115	-48.64
356.326	-30.21
356.538	43.52
356.749	25.09
356.961	16.9
357.172	16.9
357.384	43.52
357.595	25.09
357.807	43.52
358.018	-15.87
358.23	74.24
358.441	25.09
358.653	43.52
358.864	-17.92
359.075	18.94
359.287	27.14
359.498	25.09
359.709	64
359.921	72.19
360.132	61.95
360.344	14.85
360.555	-3.58
360.766	92.67
360.977	-3.58
361.189	70.14
361.4	18.94
361.611	64
361.823	-1.54
362.034	43.52
362.245	45.57
362.456	86.53
362.667	53.76
362.879	-7.68
363.09	-17.92
363.301	78.33
363.512	-71.17
363.723	45.57
363.935	29.18
364.146	-3.58
364.357	14.85
364.568	82.43
364.779	-34.3
364.99	10.75
365.201	-40.45
365.412	33.28
365.623	20.99
365.834	27.14
366.045	47.62
366.256	31.23
366.467	35.33
366.678	-40.45
366.889	109.05
367.1	-9.73
367.311	12.8
367.522	43.52
367.733	53.76
367.944	35.33
368.155	33.28
368.366	31.23
368.577	-11.78
368.788	39.42
368.999	-40.45
369.209	12.8
369.42	152.06
369.631	45.57
369.842	115.2
370.053	53.76
370.264	12.8
370.474	51.71
370.685	0.51
370.896	70.14
371.107	51.71
371.317	51.71
371.528	33.28
371.739	51.71
371.95	33.28
372.16	57.86
372.371	18.94
372.582	16.9
372.792	88.57
373.003	45.57
373.214	70.14
373.424	53.76
373.635	18.94
373.846	31.23
374.056	-32.26
374.267	43.52
374.477	-24.06
374.688	4.61
374.898	47.62
375.109	4.61
375.319	10.75
375.53	27.14
375.74	107.01
375.951	10.75
376.161	-40.45
376.372	51.71
376.582	47.62
376.793	82.43
377.003	-22.02
377.214	-22.02
377.424	20.99
377.635	2.56
377.845	25.09
378.055	37.38
378.266	59.9
378.476	12.8
378.686	66.05
378.897	10.75
379.107	-32.26
379.317	-3.58
379.528	-7.68
379.738	27.14
379.948	31.23
380.158	27.14
380.369	-89.6
380.579	-34.3
380.789	-1.54
380.999	31.23
381.21	-34.3
381.42	-13.82
381.63	27.14
381.84	-19.97
382.05	31.23
382.261	4.61
382.471	25.09
382.681	-15.87
382.891	8.7
383.101	92.67
383.311	-46.59
383.521	-1.54
383.731	51.71
383.941	25.09
384.151	0.51
384.361	88.57
384.571	-11.78
384.781	111.1
384.991	47.62
385.201	25.09
385.411	-26.11
385.621	129.53
385.831	39.42
386.041	-28.16
386.251	20.99
386.461	16.9
386.671	59.9
386.881	-1.54
387.091	37.38
387.301	51.71
387.511	37.38
387.72	-65.02
387.93	37.38
388.14	37.38
388.35	70.14
388.56	-24.06
388.769	-13.82
388.979	88.57
389.189	8.7
389.399	18.94
389.609	25.09
389.818	82.43
390.028	68.09
390.238	141.82
390.447	29.18
390.657	47.62
390.867	51.71
391.076	107.01
391.286	102.91
391.496	-40.45
391.705	23.04
391.915	64
392.125	66.05
392.334	2.56
392.544	127.49
392.753	49.66
392.963	84.48
393.172	27.14
393.382	-15.87
393.591	86.53
393.801	16.9
394.01	27.14
394.22	119.29
394.429	37.38
394.639	43.52
394.848	35.33
395.058	12.8
395.267	102.91
395.477	68.09
395.686	51.71
395.895	137.73
396.105	109.05
396.314	-22.02
396.524	53.76
396.733	98.81
396.942	82.43
397.152	55.81
397.361	33.28
397.57	55.81
397.78	70.14
397.989	68.09
398.198	90.62
398.407	88.57
398.617	78.33
398.826	88.57
399.035	115.2
399.244	80.38
399.453	23.04
399.663	117.25
399.872	-11.78
400.081	35.33
400.29	29.18
400.499	86.53
400.708	102.91
400.917	117.25
401.127	61.95
401.336	8.7
401.545	117.25
401.754	82.43
401.963	78.33
402.172	29.18
402.381	109.05
402.59	102.91
402.799	86.53
403.008	86.53
403.217	72.19
403.426	104.96
403.635	90.62
403.844	127.49
404.053	107.01
404.262	41.47
404.471	100.86
404.68	86.53
404.888	158.21
405.097	94.72
405.306	121.34
405.515	82.43
405.724	41.47
405.933	109.05
406.142	156.16
406.35	143.87
406.559	109.05
406.768	37.38
406.977	137.73
407.185	193.02
407.394	141.82
407.603	172.54
407.812	129.53
408.02	96.77
408.229	182.78
408.438	246.27
408.646	205.31
408.855	217.6
409.064	178.69
409.272	162.3
409.481	242.17
409.69	180.73
409.898	172.54
410.107	252.41
410.315	262.65
410.524	158.21
410.733	225.79
410.941	225.79
411.15	254.46
411.358	276.99
411.567	283.13
411.775	303.61
411.984	307.71
412.192	324.09
412.401	274.94
412.609	403.96
412.818	354.81
413.026	348.67
413.234	375.29
413.443	354.81
413.651	365.05
413.86	426.49
414.068	428.54
414.276	459.26
414.485	416.25
414.693	481.78
414.901	541.18
415.11	561.66
415.318	610.81
415.526	553.46
415.734	541.18
415.943	625.14
416.151	694.77
416.359	616.95
416.567	698.87
416.776	698.87
416.984	760.31
417.192	770.55
417.4	784.88
417.608	690.68
417.817	750.07
418.025	866.8
418.233	854.51
418.441	809.46
418.649	846.32
418.857	915.95
419.065	1008.11
419.273	928.24
419.481	1069.55
419.689	1067.5
419.897	1112.56
420.105	1157.61
420.313	1167.85
420.521	1282.54
420.729	1239.53
420.937	1237.49
421.145	1323.5
421.353	1456.62
421.561	1468.91
421.769	1501.67
421.977	1608.17
422.185	1583.59
422.393	1626.6
422.601	1741.29
422.809	1683.94
423.017	1729
423.224	1835.49
423.432	1962.47
423.64	1849.83
423.848	2081.25
424.056	2107.87
424.263	2142.69
424.471	2216.41
424.679	2224.61
424.887	2398.68
425.094	2357.72
425.302	2460.12
425.51	2472.41
425.718	2607.58
425.925	2552.28
426.133	2646.49
426.341	2900.44
426.548	2970.07
426.756	2939.35
426.964	3092.94
427.171	3232.21
427.379	3336.65
427.586	3365.32
427.794	3402.19
428.001	3654.09
428.209	3736.01
428.417	3660.23
428.624	3881.41
428.832	4041.15
429.039	3901.89
429.247	4026.82
429.454	4256.19
429.662	4747.7
429.869	4213.18
430.076	4565.43
430.284	4438.46
430.491	4604.35
430.699	5083.57
430.906	4940.21
431.114	5173.68
431.321	5188.02
431.528	5431.73
431.736	5601.71
431.943	5861.8
432.15	5681.58
432.358	5872.04
432.565	6209.95
432.772	6261.15
432.979	6300.06
433.187	6453.66
433.394	6705.56
433.601	7131.54
433.808	7037.33
434.016	6988.18
434.223	7440.78
434.43	7629.2
434.637	7651.72
434.844	7889.29
435.052	8421.76
435.259	8145.28
435.466	8296.83
435.673	8210.82
435.88	8655.23
436.087	9038.2
436.294	9302.39
436.501	8993.14
436.708	9023.86
436.915	9425.26
437.122	9894.25
437.329	9787.75
437.537	10148.2
437.743	10189.16
437.95	10285.41
438.157	10717.53
438.364	11073.88
438.571	11030.87
438.778	11297.11
438.985	12253.51
439.192	11893.07
439.399	12167.49
439.606	11841.87
439.813	12704.06
440.02	13142.33
440.227	13048.12
440.433	12904.76
440.64	13494.58
440.847	13363.51
441.054	13740.33
441.261	14299.43
441.467	14489.89
441.674	14620.96
441.881	15235.35
442.088	15005.98
442.294	15139.1
442.501	15313.17
442.708	15769.87
442.914	16314.63
443.121	17066.24
443.328	16431.37
443.534	17744.11
443.741	17172.73
443.948	17359.1
444.154	18184.43
444.361	18008.3
444.568	18104.56
444.774	18051.31
444.981	18481.38
445.187	18819.3
445.394	19837.14
445.6	19134.68
445.807	21424.31
446.013	20439.24
446.22	21004.48
446.426	21594.29
446.633	22012.08
446.839	22497.45
447.046	21772.47
447.252	23093.41
447.459	22958.24
447.665	22782.12
447.871	24004.75
448.078	24469.64
448.284	23314.59
448.491	24199.31
448.697	25004.16
448.903	25577.59
449.11	25491.58
449.316	25370.75
449.522	25700.47
449.728	26179.7
449.935	26458.22
450.141	26654.83
450.347	27373.66
450.553	26413.16
450.76	26253.42
450.966	27361.37
451.172	27072.61
451.378	27871.32
451.584	27088.99
451.791	28029.01
451.997	27707.48
452.203	28424.27
452.409	28053.59
452.615	27895.89
452.821	27025.51
453.027	26550.38
453.233	27912.28
453.44	27066.47
453.646	27527.26
453.852	27263.07
454.058	27652.19
454.264	26812.52
454.47	27514.97
454.676	26767.46
454.882	27617.37
455.088	25079.94
455.294	25413.76
455.5	25954.42
455.705	26054.77
455.911	24928.39
456.117	24615.05
456.323	23965.84
456.529	23259.29
456.735	24066.19
456.941	23394.46
457.147	23308.44
457.352	22599.85
457.558	22106.29
457.764	21944.5
457.97	21541.05
458.176	21414.07
458.381	20994.24
458.587	20091.09
458.793	19822.8
458.999	19298.52
459.204	20181.2
459.41	19681.49
459.616	18649.32
459.821	18837.73
460.027	18376.94
460.233	18258.15
460.438	17361.14
460.644	17307.9
460.85	16662.79
461.055	16392.45
461.261	16425.22
461.466	15096.09
461.672	14885.15
461.878	15669.52
462.083	14776.61
462.289	14233.89
462.494	14336.29
462.7	13656.37
462.905	13291.83
463.111	13848.88
463.316	13730.09
463.522	13562.16
463.727	13498.67
463.932	13545.78
464.138	13220.15
464.343	13461.81
464.549	12833.08
464.754	13363.51
464.959	13429.04
465.165	13291.83
465.37	12622.14
465.575	12128.58
465.781	12753.21
465.986	13003.07
466.191	12470.59
466.397	12360
466.602	11770.19
466.807	12118.34
467.012	11993.42
467.218	12222.79
467.423	11854.16
467.628	12073.29
467.833	12464.45
468.038	12065.1
468.244	11567.44
468.449	12216.65
468.654	11778.38
468.859	11716.94
469.064	11592.02
469.269	10977.62
469.474	11364.69
469.679	11358.55
469.885	11096.41
470.09	11166.04
470.295	11211.09
470.5	10903.9
470.705	10936.67
470.91	10584.41
471.115	10688.86
471.32	10713.44
471.525	10699.1
471.73	10416.48
471.935	10531.17
472.139	10066.28
472.344	10197.35
472.549	10441.06
472.754	10002.79
472.959	9877.87
473.164	9597.29
473.369	9498.99
473.574	9744.75
473.778	9625.97
473.983	9564.53
474.188	9537.9
474.393	9236.85
474.598	9369.97
474.802	9113.97
475.007	9177.46
475.212	9095.54
475.417	8755.58
475.621	8798.59
475.826	8845.69
476.031	8724.86
476.235	8548.73
476.44	8569.21
476.645	8593.79
476.849	8534.4
477.054	8419.71
477.259	8124.8
477.463	8198.53
477.668	8032.65
477.872	8040.84
478.077	7987.59
478.282	7866.76
478.486	7655.82
478.691	7700.87
478.895	7401.87
479.1	7725.45
479.304	7870.86
479.509	7442.83
479.713	7559.56
479.918	7428.49
480.122	7315.86
480.326	7522.7
480.531	7309.71
480.735	7195.03
480.94	7358.86
481.144	7434.64
481.348	7133.59
481.553	7235.99
481.757	7051.67
481.961	7092.63
482.166	7268.75
482.37	7063.96
482.574	6982.04
482.778	7100.82
482.983	7387.54
483.187	7166.35
483.391	7223.7
483.595	7160.21
483.8	6984.09
484.004	7330.19
484.208	7301.52
484.412	7088.53
484.616	7180.69
484.821	7031.19
485.025	7115.16
485.229	7207.31
485.433	7068.05
485.637	7059.86
485.841	7205.27
486.045	7080.34
486.249	7195.03
486.453	7023
486.657	6932.89
486.861	7190.93
487.065	7049.62
487.269	7258.51
487.473	7006.61
487.677	7176.59
487.881	7184.79
488.085	7319.95
488.289	7133.59
488.493	7211.41
488.697	7440.78
488.901	7098.77
489.105	7051.67
489.309	7244.18
489.512	7332.24
489.716	7123.35
489.92	7293.33
490.124	7240.08
490.328	7514.51
490.531	7264.66
490.735	7467.41
490.939	7442.83
491.143	7367.06
491.346	7444.88
491.55	7379.34
491.754	7362.96
491.958	7479.69
492.161	7532.94
492.365	7627.15
492.569	7721.35
492.772	7743.88
492.976	7629.2
493.18	7856.52
493.383	7561.61
493.587	7807.37
493.79	7985.54
493.994	7879.05
494.197	7887.24
494.401	7889.29
494.605	7893.38
494.808	8302.98
495.012	8096.13
495.215	8368.51
495.419	8194.43
495.622	8124.8
495.825	8417.66
496.029	8384.9
496.232	8573.31
496.436	8520.06
496.639	8761.72
496.843	8704.38
497.046	8741.24
497.249	8870.26
497.453	9077.11
497.656	9283.95
497.859	9191.8
498.063	9197.94
498.266	9230.71
498.469	9369.97
498.673	9537.9
498.876	9576.81
499.079	9605.49
499.282	9744.75
499.485	10117.48
499.689	9853.29
499.892	10150.25
500.095	10197.35
500.298	10520.93
500.501	10320.23
500.705	10770.78
500.908	10789.21
501.111	10891.61
501.314	11166.04
501.517	11090.26
501.72	11100.5
501.923	11237.72
502.126	11557.2
502.329	11641.17
502.532	11833.68
502.735	11833.68
502.938	11823.44
503.141	12009.8
503.344	12427.59
503.547	12196.17
503.75	12464.45
503.953	12568.9
504.156	13035.83
504.359	12927.29
504.562	13019.45
504.765	13261.11
504.968	13519.15
505.17	13371.7
505.373	13662.51
505.576	13900.08
505.779	13822.25
505.982	13988.14
506.185	14145.83
506.387	14475.56
506.59	14313.77
506.793	14571.81
506.996	14729.5
507.198	15139.1
507.401	15051.03
507.604	15448.34
507.807	15618.32
508.009	15685.9
508.212	15835.41
508.415	15898.89
508.617	16093.45
508.82	16206.09
509.022	16130.31
509.225	16564.48
509.428	16640.26
509.63	17023.23
509.833	16916.73
510.035	17400.05
510.238	17395.96
510.44	17447.16
510.643	17844.46
510.845	17914.09
511.048	17879.28
511.25	18137.32
511.453	18393.32
511.655	19220.7
511.858	18985.18
512.06	19106.01
512.262	19181.79
512.465	19298.52
512.667	19722.45
512.87	19955.92
513.072	20029.65
513.274	20539.59
513.477	20461.77
513.679	20750.53
513.881	20715.72
514.084	20908.22
514.286	21352.63
514.488	21442.74
514.69	21881.01
514.893	21772.47
515.095	22306.99
515.297	22454.44
515.499	22511.78
515.701	22468.78
515.904	23099.55
516.106	22915.23
516.308	23324.83
516.51	23259.29
516.712	23722.13
516.914	23908.5
517.116	24725.64
517.318	24428.68
517.52	24471.69
517.722	24477.83
517.925	25104.51
518.127	25499.77
518.329	25485.44
518.531	25546.87
518.733	26110.07
518.935	26284.14
519.136	26198.13
519.338	26693.74
519.54	26552.43
519.742	26783.85
519.944	27299.94
520.146	27355.23
520.348	28029.01
520.55	27992.15
520.752	27959.38
520.954	28772.42
521.155	28461.13
521.357	28579.92
521.559	28788.81
521.761	29372.48
521.963	29538.37
522.164	29755.45
522.366	29798.46
522.568	30183.48
522.77	30222.39
522.971	30373.94
523.173	30607.4
523.375	30777.39
523.576	30908.46
523.778	30930.98
523.98	31479.84
524.181	31455.26
524.383	31928.34
524.584	31889.43
524.786	32454.67
524.988	31952.92
525.189	32444.43
525.391	33048.58
525.592	33169.41
525.794	32886.79
525.995	33105.93
526.197	33419.27
526.398	33603.58
526.6	33605.63
526.801	33689.6
527.003	34234.36
527.204	33843.2
527.406	34793.45
527.607	34222.07
527.808	34430.96
528.01	34260.98
528.211	34611.18
528.412	35129.32
528.614	34887.66
528.815	34895.85
529.016	35438.56
529.218	35164.14
529.419	35502.05
529.62	35370.98
529.822	35543.01
530.023	35555.3
530.224	35506.15
530.425	35424.23
530.626	35436.52
530.828	35616.74
531.029	36421.59
531.23	35919.84
531.431	35981.27
531.632	36079.58
531.833	36429.78
532.035	36294.61
532.236	36564.95
532.437	36444.12
532.638	36206.55
532.839	36272.09
533.04	36726.74
533.241	36083.67
533.442	36960.2
533.643	36589.52
533.844	36739.02
534.045	36827.09
534.246	36501.46
534.447	36992.97
534.648	36708.3
534.849	36972.49
535.05	36591.57
535.251	36818.89
535.451	36599.76
535.652	37003.21
535.853	36730.83
536.054	36931.53
536.255	37214.15
536.456	36669.39
536.657	37105.61
536.857	37072.84
537.058	36956.11
537.259	37488.58
537.46	37156.81
537.66	37152.71
537.861	37197.77
538.062	36870.09
538.263	37468.1
538.463	37013.45
538.664	37169.1
538.865	36921.29
539.065	37431.24
539.266	37109.71
539.466	37017.55
539.667	36845.52
539.868	37427.14
540.068	37212.1
540.269	36911.05
540.469	37404.61
540.67	36911.05
540.87	37128.14
541.071	36835.28
541.271	37267.4
541.472	36874.19
541.672	37052.36
541.873	36868.05
542.073	36562.9
542.274	37611.46
542.474	37183.43
542.675	36665.3
542.875	37363.65
543.075	36995.02
543.276	36552.66
543.476	37048.27
543.676	37005.26
543.877	37230.54
544.077	37013.45
544.277	36937.68
544.478	36831.18
544.678	37369.8
544.878	37076.94
545.078	37226.44
545.279	36937.68
545.479	37117.9
545.679	37165
545.879	37253.06
546.079	36949.96
546.28	36949.96
546.48	36698.06
546.68	37410.76
546.88	37058.51
547.08	36966.35
547.28	36976.59
547.48	36585.43
547.68	37150.67
547.88	36980.68
548.081	37214.15
548.281	36726.74
548.481	36763.6
548.681	37009.36
548.881	36927.44
549.081	36874.19
549.28	36790.22
549.48	37277.64
549.68	36913.1
549.88	37558.21
550.08	36427.73
550.28	36904.91
550.48	36657.1
550.68	37404.61
550.88	36779.98
551.08	37171.14
551.279	37138.38
551.479	36861.9
551.679	37384.13
551.879	36634.58
552.079	37185.48
552.278	36892.62
552.478	36759.5
552.678	37152.71
552.878	37031.88
553.077	36714.45
553.277	36286.42
553.477	36911.05
553.676	36640.72
553.876	37001.16
554.076	36579.28
554.275	36630.48
554.475	36052.95
554.674	36485.08
554.874	36902.86
555.074	36280.28
555.273	36808.65
555.473	36818.89
555.672	36288.47
555.872	36442.07
556.071	36284.37
556.271	36284.37
556.47	36356.05
556.67	35751.9
556.869	36313.05
557.068	36181.98
557.268	35868.64
557.467	35882.97
557.667	36077.53
557.866	35782.62
558.065	35653.6
558.265	35792.86
558.464	35741.66
558.663	36237.27
558.863	35450.85
559.062	36263.89
559.261	35381.22
559.461	35827.68
559.66	35379.17
559.859	35827.68
560.058	35166.18
560.258	35456.99
560.457	35016.68
560.656	35260.39
560.855	35112.94
561.054	35424.23
561.253	34723.82
561.453	35067.88
561.652	35178.47
561.851	35035.11
562.05	35010.54
562.249	34662.38
562.448	34916.33
562.647	34600.94
562.846	34719.73
563.045	34676.72
563.244	34336.76
563.443	34762.73
563.642	34199.54
563.841	34344.95
564.04	34430.96
564.239	34404.34
564.438	34215.93
564.637	34455.54
564.836	34215.93
565.035	34076.66
565.234	33970.17
565.432	33775.61
565.631	33712.13
565.83	33658.88
566.029	33763.32
566.228	33544.19
566.427	33193.99
566.625	33265.67
566.824	32686.09
567.023	33333.25
567.222	32929.8
567.42	33433.6
567.619	33413.12
567.818	33241.09
568.016	32409.62
568.215	32870.41
568.414	32813.07
568.612	32772.11
568.811	32618.51
569.01	32546.83
569.208	31864.86
569.407	32831.5
569.605	32315.41
569.804	32165.91
570.002	31852.57
570.201	32223.25
570.4	31848.47
570.598	31649.82
570.797	31713.31
570.995	31932.44
571.193	31379.49
571.392	31584.29
571.59	31213.6
571.789	31746.08
571.987	31277.09
572.186	31170.6
572.384	31088.68
572.582	31229.99
572.781	31209.51
572.979	30771.24
573.177	30957.61
573.376	31031.33
573.574	30480.43
573.772	31131.68
573.971	30730.28
574.169	30476.33
574.367	30019.64
574.565	30539.82
574.763	30036.02
574.962	29929.53
575.16	30087.22
575.358	30271.54
575.556	29452.35
575.754	30134.32
575.952	29581.37
576.151	29943.86
576.349	29116.48
576.547	29640.76
576.745	29677.63
576.943	29427.77
577.141	29241.41
577.339	29153.35
577.537	29077.57
577.735	29124.68
577.933	28778.57
578.131	28840.01
578.329	28977.22
578.527	28753.99
578.725	28616.78
578.923	28713.03
579.121	28665.93
579.319	28164.18
579.516	28592.2
579.714	28446.8
579.912	28297.3
580.11	28100.69
580.308	28311.63
580.506	28080.21
580.704	27693.15
580.901	27914.33
581.099	27922.52
581.297	27658.33
581.495	27555.93
581.692	27877.46
581.89	27353.18
582.088	27664.47
582.285	27228.26
582.483	27445.34
582.681	27535.45
582.878	27215.97
583.076	26648.68
583.274	27334.75
583.471	26736.74
583.669	26964.07
583.866	26867.81
584.064	26806.37
584.262	26513.52
584.459	26759.27
584.657	26450.03
584.854	26626.15
585.052	26134.64
585.249	26290.29
585.447	26419.31
585.644	25972.85
585.841	26183.79
586.039	26228.85
586.236	25673.85
586.434	26003.57
586.631	25770.1
586.828	25913.46
587.026	25938.04
587.223	25790.58
587.42	25477.24
587.618	25688.18
587.815	25331.84
588.012	25192.58
588.21	25417.85
588.407	25634.94
588.604	25233.53
588.801	25215.1
588.999	25135.23
589.196	25159.81
589.393	24807.56
589.59	24688.78
589.787	24891.52
589.984	24674.44
590.182	24283.28
590.379	24526.99
590.576	24764.55
590.773	24627.34
590.97	24084.62
591.167	24344.72
591.364	24107.15
591.561	24535.18
591.758	23961.75
591.955	23976.08
592.152	24281.23
592.349	23926.93
592.546	23804.05
592.743	23926.93
592.94	23468.19
593.137	23681.17
593.334	23748.76
593.531	23115.94
593.727	23564.44
593.924	23214.24
594.121	23003.3
594.318	23347.36
594.515	22966.43
594.712	23273.63
594.908	22835.36
595.105	23187.61
595.302	22710.44
595.499	23017.63
595.696	22677.67
595.892	22517.93
596.089	22665.38
596.286	22866.08
596.482	22241.45
596.679	22649
596.876	22542.5
597.072	22343.85
597.269	22417.58
597.466	22114.48
597.662	22186.16
597.859	22163.63
598.055	21881.01
598.252	21993.65
598.448	21946.55
598.645	21715.12
598.841	21455.03
599.038	21645.49
599.234	21815.48
599.431	21788.85
599.627	21350.59
599.824	21448.89
600.02	21313.72
600.217	21450.94
600.413	21074.11
600.609	20910.27
600.806	20971.71
601.002	21174.46
601.198	20912.32
601.395	20969.66
601.591	21006.53
601.787	21186.75
601.984	20850.88
602.18	20834.5
602.376	20621.51
602.572	20736.2
602.769	20555.97
602.965	20400.33
603.161	20549.83
603.357	20328.65
603.553	19982.54
603.75	20238.54
603.946	20136.14
604.142	20312.27
604.338	19986.64
604.534	20297.93
604.73	19871.95
604.926	19900.62
605.122	19964.11
605.318	19802.32
605.514	19779.79
605.71	19687.64
605.906	19507.41
606.102	19736.79
606.298	19638.48
606.494	19517.65
606.69	19462.36
606.886	19468.5
607.082	19183.84
607.278	19476.69
607.474	19247.32
607.67	19294.43
607.866	19036.38
608.062	19319
608.257	19286.23
608.453	19003.61
608.649	19042.53
608.845	18665.7
609.041	18811.1
609.236	18974.94
609.432	18933.98
609.628	18852.06
609.824	18962.65
610.019	18835.68
610.215	18866.4
610.411	18512.1
610.606	18565.35
610.802	18624.74
610.998	18579.68
611.193	18723.04
611.389	18479.33
611.584	18211.05
611.78	18483.43
611.976	18495.72
612.171	18143.47
612.367	18020.59
612.562	18387.18
612.758	17918.19
612.953	18192.62
613.149	18192.62
613.344	18192.62
613.539	18335.98
613.735	18118.89
613.93	17975.53
614.126	17780.98
614.321	18024.68
614.517	17934.57
614.712	17955.05
614.907	17748.21
615.103	18215.15
615.298	17733.87
615.493	17948.91
615.688	17651.95
615.884	18084.08
616.079	17520.88
616.274	17869.04
616.47	17512.69
616.665	17826.03
616.86	17365.24
617.055	17531.12
617.25	17199.35
617.445	17389.81
617.641	17162.49
617.836	17264.89
618.031	16947.45
618.226	17260.79
618.421	17154.3
618.616	17449.21
618.811	16789.76
619.006	17326.33
619.201	16853.25
619.396	16961.79
619.591	16806.14
619.786	16900.35
619.981	16640.26
620.176	16851.2
620.371	16283.91
620.566	16634.11
620.761	16722.18
620.956	16636.16
621.151	16412.93
621.346	16470.28
621.541	16056.59
621.735	16322.82
621.93	16011.53
622.125	16052.49
622.32	15982.86
622.515	15952.14
622.709	15683.86
622.904	15728.91
623.099	15579.41
623.294	15610.13
623.488	15550.74
623.683	15462.68
623.878	15345.94
624.072	15411.48
624.267	15345.94
624.462	14815.52
624.656	15223.06
624.851	15114.52
625.046	14680.35
625.24	14858.53
625.435	14559.52
625.629	14692.64
625.824	14674.21
626.018	14491.94
626.213	14395.68
626.407	14473.51
626.602	14156.07
626.796	14299.43
626.991	14223.65
627.185	14281
627.38	13809.97
627.574	13838.64
627.768	13775.15
627.963	13795.63
628.157	13541.68
628.352	13607.22
628.546	13660.46
628.74	13852.97
628.935	13449.52
629.129	13207.86
629.323	13105.46
629.517	13308.21
629.712	13050.17
629.906	13171
630.1	12845.37
630.294	13207.86
630.489	13119.8
630.683	13066.55
630.877	12577.09
631.071	12796.22
631.265	12613.95
631.459	12646.72
631.653	12542.27
631.848	12489.03
632.042	12489.03
632.236	12513.6
632.43	12405.06
632.624	12310.85
632.818	12329.28
633.012	12114.25
633.206	11931.98
633.4	12048.71
633.594	11962.7
633.788	11993.42
633.982	11938.12
634.176	11819.34
634.369	11538.77
634.563	11776.33
634.757	11557.2
634.951	11471.18
635.145	11528.53
635.339	11370.83
635.533	11227.48
635.726	11204.95
635.92	11123.03
636.114	11010.39
636.308	10957.14
636.501	10991.96
636.695	11084.12
636.889	10938.71
637.083	10996.06
637.276	10871.13
637.47	10834.27
637.664	10854.75
637.857	10723.68
638.051	10613.09
638.244	10656.09
638.438	10398.05
638.632	10572.13
638.825	10465.63
639.019	10418.53
639.212	10402.15
639.406	10238.31
639.599	10199.4
639.793	10213.73
639.986	10185.06
640.18	10213.73
640.373	10027.37
640.567	10125.67
640.76	9933.16
640.954	10002.79
641.147	9699.69
641.34	9564.53
641.534	9664.88
641.727	9564.53
641.92	9539.95
642.114	9611.63
642.307	9490.8
642.5	9591.15
642.694	9220.47
642.887	9333.11
643.08	9292.15
643.273	9214.32
643.467	9171.32
643.66	9003.38
643.853	9312.63
644.046	9148.79
644.239	8982.9
644.432	8913.27
644.626	8853.88
644.819	8825.21
645.012	8966.52
645.205	8810.87
645.398	8628.6
645.591	8718.71
645.784	8606.08
645.977	8688
646.17	8610.17
646.363	8642.94
646.556	8456.57
646.749	8530.3
646.942	8378.75
647.135	8294.79
647.328	8393.09
647.521	8317.31
647.714	8124.8
647.907	8337.79
648.099	8098.18
648.292	8339.84
648.485	7930.25
648.678	7920.01
648.871	7915.91
649.064	7862.66
649.256	8100.23
649.449	8008.07
649.642	7897.48
649.835	7698.83
650.027	7860.62
650.22	7819.66
650.413	7694.73
650.605	7600.52
650.798	7440.78
650.991	7528.85
651.183	7588.24
651.376	7344.53
651.568	7463.31
651.761	7293.33
651.954	7315.86
652.146	7377.3
652.339	7324.05
652.531	7446.93
652.724	7188.88
652.916	7137.68
653.109	7217.55
653.301	7250.32
653.494	7203.22
653.686	7057.81
653.879	6949.27
654.071	7031.19
654.263	7047.57
654.456	6982.04
654.648	6898.07
654.84	6797.72
655.033	6742.43
655.225	6775.19
655.417	6611.36
655.61	6846.87
655.802	6893.97
655.994	6631.83
656.186	6769.05
656.379	6525.34
656.571	6603.16
656.763	6478.24
656.955	6566.3
657.148	6396.32
657.34	6513.05
657.532	6379.93
657.724	6283.68
657.916	6250.91
658.108	6353.31
658.3	6312.35
658.492	6279.58
658.684	6189.47
658.876	6222.24
659.068	6097.31
659.26	6164.9
659.452	6130.08
659.644	6123.94
659.836	5978.53
660.028	5970.34
660.22	5779.88
660.412	6015.4
660.604	5796.26
660.796	5751.21
660.988	5829.03
661.18	5824.94
661.372	5642.67
661.563	5730.73
661.755	5675.43
661.947	5896.61
662.139	5771.69
662.331	5622.19
662.522	5462.44
662.714	5546.41
662.906	5616.04
663.097	5665.19
663.289	5450.16
663.481	5411.25
663.673	5534.12
663.864	5394.86
664.056	5282.22
664.247	5487.02
664.439	5220.78
664.631	5384.62
664.822	5431.73
665.014	5269.94
665.205	5288.37
665.397	5331.37
665.588	5188.02
665.78	5220.78
665.971	4960.69
666.163	5030.32
666.354	5030.32
666.546	5138.87
666.737	4927.92
666.929	4936.12
667.12	4917.68
667.311	4841.91
667.503	5020.08
667.694	4997.56
667.885	5079.47
668.077	4850.1
668.268	4839.86
668.459	4790.71
668.651	4805.05
668.842	4917.68
669.033	4696.5
669.224	4766.14
669.416	4635.07
669.607	4835.77
669.798	4659.64
669.989	4747.7
670.18	4641.21
670.371	4757.94
670.563	4639.16
670.754	4600.25
670.945	4612.54
671.136	4577.72
671.327	4487.61
671.518	4581.82
671.709	4454.84
671.9	4497.85
672.091	4413.88
672.282	4555.19
672.473	4438.46
672.664	4364.73
672.855	4473.28
673.046	4485.56
673.237	4493.76
673.428	4319.68
673.619	4409.79
673.809	4366.78
674	4282.81
674.191	4411.84
674.382	4383.17
674.573	4307.39
674.764	4106.69
674.954	4170.18
675.145	4291.01
675.336	4284.86
675.527	4147.65
675.717	4202.94
675.908	4190.66
676.099	4078.02
676.289	4278.72
676.48	4108.74
676.671	4149.7
676.861	4186.56
677.052	4194.75
677.243	4000.19
677.433	4057.54
677.624	4118.98
677.814	4057.54
678.005	4086.21
678.195	4065.73
678.386	4061.63
678.576	4047.3
678.767	4059.59
678.957	4004.29
679.148	4094.4
679.338	3944.9
679.529	3860.93
679.719	3883.46
679.909	3969.48
680.1	3971.52
680.29	4049.35
680.481	3797.45
680.671	3854.79
680.861	3903.94
681.052	3873.22
681.242	3930.56
681.432	3905.99
681.622	3850.69
681.813	3934.66
682.003	3926.47
682.193	3715.53
682.383	3713.48
682.573	3803.59
682.764	3703.24
682.954	3912.13
683.144	3811.78
683.334	3807.69
683.524	3805.64
683.714	3842.5
683.904	3695.05
684.094	3711.43
684.284	3619.27
684.474	3817.93
684.664	3793.35
684.854	3817.93
685.044	3707.34
685.234	3647.94
685.424	3729.86
685.614	3711.43
685.804	3639.75
685.994	3693
686.184	3555.79
686.374	3535.31
686.564	3551.69
686.753	3533.26
686.943	3590.6
687.133	3457.48
687.323	3662.28
687.513	3477.96
687.702	3633.61
687.892	3482.06
688.082	3609.03
688.272	3615.18
688.461	3453.39
688.651	3543.5
688.841	3447.24
689.03	3529.16
689.22	3422.67
689.41	3391.95
689.599	3404.24
689.789	3451.34
689.979	3322.32
690.168	3322.32
690.358	3385.8
690.547	3486.15
690.737	3316.17
690.926	3424.72
691.116	3267.02
691.305	3305.93
691.495	3189.2
691.684	3230.16
691.874	3189.2
692.063	3221.97
692.252	3242.45
692.442	3086.8
692.631	3195.34
692.82	3117.52
693.01	3060.18
693.199	3203.54
693.388	3156.43
693.578	2965.97
693.767	3129.81
693.956	3094.99
694.146	3150.29
694.335	3084.75
694.524	3015.12
694.713	3064.27
694.902	3092.94
695.092	2965.97
695.281	3119.57
695.47	3015.12
695.659	2931.16
695.848	3011.03
696.037	3041.75
696.226	3029.46
696.415	3138
696.604	3064.27
696.793	2871.76
696.982	2929.11
697.171	2925.01
697.36	3043.79
697.549	2963.92
697.738	3017.17
697.927	2927.06
698.116	2998.74
698.305	2937.3
698.494	3129.81
698.683	2877.91
698.872	3150.29
699.061	3004.88
699.25	2925.01
699.438	2994.64
699.627	2990.55
699.816	3111.38
700.005	3019.22
700.193	2869.72
700.382	2871.76
700.571	2845.14
700.76	2957.78
700.948	2922.96
701.137	2890.2
701.326	2841.04
701.514	2933.2
701.703	2939.35
701.892	2890.2
702.08	2908.63
702.269	2904.53
702.457	2965.97
702.646	2896.34
702.834	2802.13
703.023	2839
703.212	2812.37
703.4	2904.53
703.589	2855.38
703.777	2976.21
703.965	2867.67
704.154	2978.26
704.342	2935.25
704.531	2998.74
704.719	2882
704.907	2916.82
705.096	2849.24
705.284	2789.85
705.472	2896.34
705.661	2882
705.849	2904.53
706.037	2902.48
706.226	2867.67
706.414	2871.76
706.602	2734.55
706.79	2841.04
706.979	2890.2
707.167	2908.63
707.355	2787.8
707.543	2847.19
707.731	2834.9
707.919	2912.72
708.107	2765.27
708.296	2808.28
708.484	2804.18
708.672	2877.91
708.86	2752.98
709.048	2916.82
709.236	2789.85
709.424	2943.44
709.612	2755.03
709.8	2828.76
709.988	2857.43
710.176	2828.76
710.364	2877.91
710.551	2759.13
710.739	2802.13
710.927	2752.98
711.115	2755.03
711.303	2732.5
711.491	2802.13
711.679	2822.61
711.866	2826.71
712.054	2748.89
712.242	2613.72
712.43	2740.69
712.617	2675.16
712.805	2793.94
712.993	2812.37
713.181	2697.69
713.368	2884.05
713.556	2771.41
713.744	2744.79
713.931	2869.72
714.119	2781.65
714.306	2884.05
714.494	2824.66
714.682	2820.56
714.869	2777.56
715.057	2699.73
715.244	2806.23
715.432	2757.08
715.619	2779.61
715.807	2628.06
715.994	2677.21
716.182	2650.58
716.369	2771.41
716.556	2759.13
716.744	2771.41
716.931	2605.53
717.119	2818.52
717.306	2775.51
717.493	2644.44
717.681	2736.6
717.868	2730.45
718.055	2658.78
718.242	2664.92
718.43	2707.93
718.617	2714.07
718.804	2765.27
718.991	2640.34
719.179	2714.07
719.366	2535.9
719.553	2769.37
719.74	2658.78
719.927	2560.47
720.114	2609.62
720.301	2714.07
720.488	2572.76
720.676	2605.53
720.863	2650.58
721.05	2654.68
721.237	2513.37
721.424	2742.74
721.611	2689.49
721.798	2679.26
721.985	2638.3
722.172	2527.71
722.358	2607.58
722.545	2677.21
722.732	2496.99
722.919	2587.1
723.106	2562.52
723.293	2681.3
723.48	2599.38
723.667	2476.51
723.853	2611.67
724.04	2615.77
724.227	2562.52
724.414	2527.71
724.6	2589.14
724.787	2568.66
724.974	2662.87
725.161	2529.75
725.347	2511.32
725.534	2640.34
725.72	2542.04
725.907	2564.57
726.094	2531.8
726.28	2609.62
726.467	2562.52
726.653	2556.38
726.84	2572.76
727.027	2701.78
727.213	2542.04
727.4	2634.2
727.586	2621.91
727.773	2539.99
727.959	2462.17
728.145	2597.34
728.332	2421.21
728.518	2470.36
728.705	2552.28
728.891	2542.04
729.077	2468.31
729.264	2533.85
729.45	2517.47
729.636	2628.06
729.823	2556.38
730.009	2515.42
730.195	2564.57
730.382	2443.74
730.568	2513.37
730.754	2560.47
730.94	2570.71
731.126	2478.55
731.313	2568.66
731.499	2449.88
731.685	2480.6
731.871	2472.41
732.057	2474.46
732.243	2460.12
732.429	2509.27
732.615	2441.69
732.801	2486.75
732.987	2456.03
733.173	2474.46
733.359	2433.5
733.545	2402.78
733.731	2413.02
733.917	2435.55
734.103	2583
734.289	2511.32
734.475	2451.93
734.661	2494.94
734.847	2355.68
735.033	2404.83
735.219	2552.28
735.404	2507.23
735.59	2525.66
735.776	2423.26
735.962	2443.74
736.148	2562.52
736.333	2492.89
736.519	2406.88
736.705	2421.21
736.89	2363.87
737.076	2470.36
737.262	2415.07
737.447	2529.75
737.633	2298.33
737.819	2351.58
738.004	2408.92
738.19	2439.64
738.375	2390.49
738.561	2507.23
738.747	2456.03
738.932	2265.57
739.118	2429.4
739.303	2284
739.489	2343.39
739.674	2214.37
739.859	2335.2
740.045	2417.12
740.23	2269.66
740.416	2189.79
740.601	2353.63
740.786	2281.95
740.972	2327
741.157	2406.88
741.342	2183.65
741.528	2335.2
741.713	2339.29
741.898	2419.16
742.084	2308.57
742.269	2175.45
742.454	2163.17
742.639	2210.27
742.824	2269.66
743.01	2286.05
743.195	2269.66
743.38	2159.07
743.565	2202.08
743.75	2195.93
743.935	2150.88
744.12	2101.73
744.305	2019.81
744.49	2193.89
744.675	2095.58
744.86	2154.98
745.045	2142.69
745.23	2060.77
745.415	2058.72
745.6	2056.67
745.785	2075.1
745.97	2077.15
746.155	2019.81
746.34	2073.06
746.525	1972.71
746.71	2021.86
746.895	1962.47
747.079	2050.53
747.264	1917.41
747.449	1970.66
747.634	1888.74
747.819	1987.04
748.003	1941.99
748.188	1980.9
748.373	2003.43
748.557	1941.99
748.742	1853.92
748.927	1966.56
749.111	1845.73
749.296	1884.64
749.481	1933.79
749.665	1860.07
749.85	1837.54
750.034	1868.26
750.219	1810.92
750.404	1864.16
750.588	1780.2
750.773	1731.05
750.957	1720.81
751.141	1759.72
751.326	1683.94
751.51	1683.94
751.695	1718.76
751.879	1663.46
752.064	1782.24
752.248	1669.61
752.432	1706.47
752.617	1665.51
752.801	1636.84
752.985	1751.53
753.17	1573.35
753.354	1468.91
753.538	1626.6
753.722	1544.68
753.907	1571.3
754.091	1622.5
754.275	1444.33
754.459	1491.43
754.643	1489.39
754.828	1479.15
755.012	1585.64
755.196	1497.58
755.38	1481.19
755.564	1499.63
755.748	1393.13
755.932	1425.9
756.116	1479.15
756.3	1429.99
756.484	1405.42
756.668	1432.04
756.852	1321.45
757.036	1356.27
757.22	1399.27
757.404	1264.11
757.588	1399.27
757.772	1356.27
757.956	1350.12
758.14	1274.35
758.323	1352.17
758.507	1249.77
758.691	1276.4
758.875	1360.36
759.059	1354.22
759.242	1229.29
759.426	1249.77
759.61	1315.31
759.794	1298.92
759.977	1315.31
760.161	1341.93
760.345	1339.88
760.528	1257.96
760.712	1225.2
760.895	1243.63
761.079	1186.29
761.263	1227.25
761.446	1153.52
761.63	1247.72
761.813	1190.38
761.997	1157.61
762.18	1192.43
762.364	1128.94
762.547	1151.47
762.731	1157.61
762.914	1169.9
763.098	1122.8
763.281	1157.61
763.464	1116.65
763.648	1073.65
763.831	1055.22
764.015	1126.89
764.198	1069.55
764.381	1034.74
764.564	1100.27
764.748	1014.26
764.931	1106.42
765.114	1001.97
765.297	1100.27
765.481	1065.46
765.664	1055.22
765.847	983.54
766.03	1083.89
766.213	1092.08
766.397	1030.64
766.58	1059.31
766.763	1065.46
766.946	997.87
767.129	1034.74
767.312	961.01
767.495	1104.37
767.678	973.3
767.861	1073.65
768.044	991.73
768.227	1012.21
768.41	942.58
768.593	971.25
768.776	963.06
768.959	938.48
769.142	963.06
769.324	1004.02
769.507	918
769.69	905.71
769.873	934.39
770.056	981.49
770.239	1008.11
770.421	989.68
770.604	1038.83
770.787	1051.12
770.97	940.53
771.152	950.77
771.335	795.12
771.518	866.8
771.7	936.43
771.883	870.9
772.066	879.09
772.248	922.1
772.431	924.15
772.613	899.57
772.796	852.47
772.978	782.84
773.161	807.41
773.343	891.38
773.526	856.56
773.708	764.4
773.891	745.97
774.073	870.9
774.256	825.84
774.438	854.51
774.621	815.6
774.803	844.28
774.985	809.46
775.168	750.07
775.35	723.44
775.532	795.12
775.715	739.83
775.897	762.36
776.079	741.88
776.261	766.45
776.444	733.68
776.626	649.72
776.808	690.68
776.99	664.05
777.173	776.69
777.355	735.73
777.537	633.33
777.719	690.68
777.901	674.29
778.083	676.34
778.265	756.21
778.447	668.15
778.629	657.91
778.811	662.01
778.993	555.51
779.175	709.11
779.357	682.49
779.539	713.21
779.721	573.94
779.903	586.23
780.085	625.14
780.267	623.09
780.449	633.33
780.631	666.1
780.812	623.09
780.994	600.57
781.176	596.47
781.358	516.6
781.54	565.75
781.721	526.84
781.903	578.04
782.085	510.46
782.267	578.04
782.448	590.33
782.63	520.7
782.812	524.79
782.993	619
783.175	518.65
783.357	516.6
783.538	543.22
783.72	590.33
783.901	547.32
784.083	485.88
784.264	498.17
784.446	506.36
784.627	494.07
784.809	498.17
784.99	432.63
785.172	528.89
785.353	532.98
785.535	420.35
785.716	489.98
785.897	428.54
786.079	416.25
786.26	512.5
786.441	547.32
786.623	412.15
786.804	446.97
786.985	449.02
787.167	469.5
787.348	420.35
787.529	424.44
787.71	543.22
787.891	475.64
788.073	459.26
788.254	414.2
788.435	385.53
788.616	410.11
788.797	416.25
788.978	373.24
789.159	463.35
789.34	360.95
789.522	391.67
789.703	344.57
789.884	377.34
790.065	393.72
790.246	332.28
790.427	479.74
790.607	387.58
790.788	391.67
790.969	338.43
791.15	377.34
791.331	311.8
791.512	442.87
791.693	401.91
791.874	418.3
792.054	393.72
792.235	356.86
792.416	356.86
792.597	369.15
792.778	299.52
792.958	381.43
793.139	313.85
793.32	358.91
793.5	367.1
793.681	346.62
793.862	354.81
794.042	330.23
794.223	268.8
794.404	305.66
794.584	291.32
794.765	303.61
794.945	307.71
795.126	385.53
795.306	387.58
795.487	315.9
795.667	344.57
795.848	363
796.028	354.81
796.209	260.6
796.389	326.14
796.57	303.61
796.75	291.32
796.93	330.23
797.111	258.56
797.291	295.42
797.471	305.66
797.652	252.41
797.832	199.16
798.012	299.52
798.192	254.46
798.373	305.66
798.553	211.45
798.733	215.55
798.913	274.94
799.093	211.45
799.274	264.7
799.454	348.67
799.634	252.41
799.814	209.4
799.994	266.75
800.174	326.14
800.354	221.69
800.534	242.17
800.714	238.08
800.894	217.6
801.074	221.69
801.254	240.12
801.434	250.36
801.614	213.5
801.794	190.97
801.974	616.95
802.154	209.4
802.334	197.12
802.514	240.12
802.693	193.02
802.873	164.35
803.053	293.37
803.233	182.78
803.413	188.93
803.592	174.59
803.772	82.43
803.952	205.31
804.131	274.94
804.311	217.6
804.491	229.88
804.67	213.5
804.85	256.51
805.03	213.5
805.209	188.93
805.389	158.21
805.568	201.21
805.748	215.55
805.928	178.69
806.107	254.46
806.287	209.4
806.466	195.07
806.646	227.84
806.825	203.26
807.004	227.84
807.184	211.45
807.363	254.46
807.543	162.3
807.722	176.64
807.901	203.26
808.081	225.79
808.26	182.78
808.439	244.22
808.619	215.55
808.798	221.69
808.977	233.98
809.156	283.13
809.336	217.6
809.515	252.41
809.694	133.63
809.873	221.69
810.052	190.97
810.231	156.16
810.411	205.31
810.59	233.98
810.769	127.49
810.948	182.78
811.127	143.87
811.306	207.36
811.485	100.86
811.664	184.83
811.843	207.36
812.022	176.64
812.201	168.45
812.38	240.12
812.559	154.11
812.737	170.49
812.916	121.34
813.095	193.02
813.274	119.29
813.453	123.39
813.632	195.07
813.811	147.97
813.989	129.53
814.168	119.29
814.347	201.21
814.526	127.49
814.704	188.93
814.883	129.53
815.062	131.58
815.24	145.92
815.419	199.16
815.598	113.15
815.776	41.47
815.955	121.34
816.133	152.06
816.312	135.68
816.49	172.54
816.669	186.88
816.847	61.95
817.026	166.4
817.204	92.67
817.383	86.53
817.561	80.38
817.74	111.1
817.918	152.06
818.097	107.01
818.275	127.49
818.453	133.63
818.632	104.96
818.81	96.77
818.988	76.29
819.167	139.77
819.345	170.49
819.523	121.34
819.701	129.53
819.879	174.59
820.058	147.97
820.236	152.06
820.414	64
820.592	53.76
820.77	84.48
820.948	117.25
821.127	92.67
821.305	102.91
821.483	74.24
821.661	160.25
821.839	137.73
822.017	94.72
822.195	78.33
822.373	207.36
822.551	96.77
822.729	96.77
822.907	135.68
823.085	139.77
823.262	133.63
823.44	111.1
823.618	127.49
823.796	98.81
823.974	117.25
824.152	78.33
824.329	131.58
824.507	55.81
824.685	115.2
824.863	160.25
825.04	86.53
825.218	57.86
825.396	123.39
825.574	119.29
825.751	107.01
825.929	100.86
826.107	92.67
826.284	76.29
826.462	158.21
826.639	61.95
826.817	119.29
826.994	31.23
827.172	107.01
827.349	143.87
827.527	74.24
827.704	53.76
827.882	37.38
828.059	78.33
828.237	100.86
828.414	158.21
828.591	57.86
828.769	64
828.946	78.33
829.124	84.48
829.301	53.76
829.478	82.43
829.655	82.43
829.833	109.05
830.01	35.33
830.187	66.05
830.364	45.57
830.542	94.72
830.719	53.76
830.896	35.33
831.073	94.72
831.25	43.52
831.427	84.48
831.604	70.14
831.782	84.48
831.959	0.51
832.136	41.47
832.313	41.47
832.49	51.71
832.667	45.57
832.844	59.9
833.021	113.15
833.198	111.1
833.374	82.43
833.551	78.33
833.728	55.81
833.905	84.48
834.082	43.52
834.259	-15.87
834.436	61.95
834.612	10.75
834.789	78.33
834.966	37.38
835.143	47.62
835.319	45.57
835.496	107.01
835.673	92.67
835.85	139.77
836.026	109.05
836.203	80.38
836.38	53.76
836.556	57.86
836.733	-13.82
836.909	25.09
837.086	61.95
837.262	100.86
837.439	104.96
837.616	53.76
837.792	41.47
837.968	20.99
838.145	109.05
838.321	23.04
838.498	61.95
838.674	121.34
838.851	20.99
839.027	86.53
839.203	6.66
839.38	100.86
839.556	4.61
839.732	51.71
839.909	20.99
840.085	74.24
840.261	33.28
840.437	59.9
840.614	0.51
840.79	70.14
840.966	25.09
841.142	135.68
841.318	-46.59
841.494	51.71
841.671	37.38
841.847	55.81
842.023	10.75
842.199	61.95
842.375	78.33
842.551	33.28
842.727	20.99
842.903	66.05
843.079	78.33
843.255	92.67
843.431	-1.54
843.607	72.19
843.783	12.8
843.959	98.81
844.134	-3.58
844.31	90.62
844.486	78.33
844.662	14.85
844.838	45.57
845.013	37.38
845.189	113.15
845.365	10.75
845.541	-7.68
845.716	18.94
845.892	57.86
846.068	53.76
846.244	29.18
846.419	74.24
846.595	16.9
846.77	45.57
846.946	33.28
847.122	37.38
847.297	12.8
847.473	86.53
847.648	-36.35
847.824	37.38
847.999	-44.54
848.175	39.42
848.35	20.99
848.526	133.63
848.701	47.62
848.876	41.47
849.052	111.1
849.227	-11.78
849.403	29.18
849.578	-30.21
849.753	-3.58
849.929	-9.73
850.104	-13.82
850.279	29.18
850.454	0.51
850.63	31.23
850.805	35.33
850.98	43.52
851.155	61.95
851.33	-13.82
851.505	-15.87
851.681	25.09
851.856	6.66
852.031	18.94
852.206	12.8
852.381	35.33
852.556	-58.88
852.731	74.24
852.906	29.18
853.081	-44.54
853.256	66.05
853.431	37.38
853.606	-7.68
853.781	-22.02
853.956	0.51
854.131	-9.73
854.305	4.61
854.48	-15.87
854.655	16.9
854.83	12.8
855.005	59.9
855.18	53.76
855.354	14.85
855.529	29.18
855.704	4.61
855.879	4.61
856.053	49.66
856.228	45.57
856.403	-17.92
856.577	-24.06
856.752	-9.73
856.926	4.61
857.101	-40.45
857.276	-32.26
857.45	47.62
857.625	0.51
857.799	41.47
857.974	51.71
858.148	-48.64
858.323	43.52
858.497	4.61
858.672	33.28
858.846	-30.21
859.02	107.01
859.195	-32.26
859.369	-1.54
859.543	-26.11
859.718	37.38
859.892	68.09
860.066	55.81
860.241	51.71
860.415	82.43
860.589	4.61
860.763	-13.82
860.938	70.14
861.112	-32.26
861.286	-3.58
861.46	35.33
861.634	25.09
861.808	-7.68
861.982	39.42
862.157	16.9
862.331	-28.16
862.505	10.75
862.679	29.18
862.853	104.96
863.027	55.81
863.201	0.51
863.375	-62.98
863.549	8.7
863.722	8.7
863.896	29.18
864.07	-28.16
864.244	61.95
864.418	6.66
864.592	20.99
864.766	-30.21
864.939	47.62
865.113	70.14
865.287	70.14
865.461	45.57
865.634	-30.21
865.808	27.14
865.982	-40.45
866.156	-1.54
866.329	25.09
866.503	35.33
866.676	39.42
866.85	-60.93
867.024	-17.92
867.197	-13.82
867.371	6.66
867.544	4.61
867.718	0.51
867.891	-44.54
868.065	25.09
868.238	-44.54
868.412	4.61
868.585	-54.78
868.759	18.94
868.932	0.51
869.105	25.09
869.279	-13.82
869.452	-22.02
869.625	43.52
869.799	-5.63
869.972	-19.97
870.145	39.42
870.319	18.94
870.492	45.57
870.665	47.62
870.838	-56.83
871.011	25.09
871.185	-26.11
871.358	-3.58
871.531	57.86
871.704	12.8
871.877	-3.58
872.05	-7.68
872.223	-26.11
872.396	-3.58
872.569	6.66
872.742	-7.68
872.915	70.14
873.088	0.51
873.261	12.8
873.434	25.09
873.607	-17.92
873.78	-3.58
873.953	-7.68
874.126	-58.88
874.299	8.7
874.471	-60.93
874.644	25.09
874.817	37.38
874.99	-13.82
875.163	4.61
875.335	-11.78
875.508	-65.02
875.681	25.09
875.853	25.09
876.026	-36.35
876.199	-65.02
876.371	2.56
876.544	-17.92
876.717	-28.16
876.889	0.51
877.062	16.9
877.234	-11.78
877.407	10.75
877.579	-5.63
877.752	2.56
877.924	37.38
878.097	29.18
878.269	10.75
878.442	45.57
878.614	-34.3
878.786	-11.78
878.959	45.57
879.131	29.18
879.303	-13.82
879.476	20.99
879.648	-3.58
879.82	-26.11
879.993	-116.22
880.165	-3.58
880.337	-36.35
880.509	-46.59
880.681	-26.11
880.854	12.8
881.026	-48.64
881.198	80.38
881.37	-26.11
881.542	18.94
881.714	-48.64
881.886	-19.97
882.058	-22.02
882.23	14.85
882.402	47.62
882.574	-9.73
882.746	29.18
882.918	37.38
883.09	29.18
883.262	-9.73
883.434	2.56
883.606	-58.88
883.778	-28.16
883.95	-11.78
884.122	-42.5
884.293	16.9
884.465	10.75
884.637	-13.82
884.809	20.99
884.98	8.7
885.152	-105.98
885.324	4.61
885.496	61.95
885.667	-11.78
885.839	20.99
886.011	47.62
886.182	-71.17
886.354	47.62
886.525	27.14
886.697	4.61
886.869	31.23
887.04	-15.87
887.212	-1.54
887.383	51.71
887.555	-54.78
887.726	16.9
887.897	4.61
888.069	-81.41
888.24	49.66
888.412	37.38
888.583	14.85
888.754	-38.4
888.926	4.61
889.097	-54.78
889.268	-9.73
889.44	18.94
889.611	16.9
889.782	55.81
889.953	8.7
890.125	10.75
890.296	12.8
890.467	-44.54
890.638	-26.11
890.809	-11.78
890.98	-13.82
891.151	-3.58
891.323	10.75
891.494	25.09
891.665	25.09
891.836	-46.59
892.007	-7.68
892.178	27.14
892.349	-85.5
892.52	-58.88
892.691	-42.5
892.862	51.71
893.032	2.56
893.203	37.38
893.374	2.56
893.545	2.56
893.716	31.23
893.887	16.9
894.057	-19.97
894.228	-15.87
894.399	-65.02
894.57	37.38
894.74	-1.54
894.911	10.75
895.082	-26.11
895.253	-87.55
895.423	-48.64
895.594	33.28
895.764	-7.68
895.935	-26.11
896.106	-7.68
896.276	-67.07
896.447	16.9
896.617	-19.97
896.788	10.75
896.958	76.29
897.129	16.9
897.299	-36.35
897.47	47.62
897.64	-7.68
897.81	-17.92
897.981	31.23
898.151	-48.64
898.322	-19.97
898.492	12.8
898.662	27.14
898.832	12.8
899.003	14.85
899.173	-44.54
899.343	-11.78
899.513	-101.89
