Data from USB4F104151__216__11-10-37-568.txt Node

Date: Wed Mar 12 11:10:37 EDT 2025
User: louis
Spectrometer: USB4F10415
Trigger mode: 4
Integration Time (sec): 2.000000E-2
Scans to average: 1
Electric dark correction enabled: true
Nonlinearity correction enabled: false
Boxcar width: 0
XAxis mode: Wavelengths
Number of Pixels in Spectrum: 3648
>>>>>Begin Spectral Data<<<<<
178.204	-136.7
178.424	-136.7
178.644	-136.7
178.864	-159.23
179.084	-65.02
179.304	-11.78
179.524	-22.02
179.744	10.75
179.964	-3.58
180.184	4.61
180.404	-17.92
180.624	-13.82
180.844	-42.5
181.064	-13.82
181.283	35.33
181.503	51.71
181.723	23.04
181.943	-93.69
182.163	35.33
182.383	-26.11
182.602	12.8
182.822	45.57
183.042	53.76
183.262	53.76
183.482	-32.26
183.701	33.28
183.921	-19.97
184.141	-13.82
184.361	0.51
184.58	35.33
184.8	-3.58
185.02	-26.11
185.239	53.76
185.459	84.48
185.679	55.81
185.898	-3.58
186.118	41.47
186.338	16.9
186.557	16.9
186.777	33.28
186.997	35.33
187.216	35.33
187.436	25.09
187.655	16.9
187.875	57.86
188.095	39.42
188.314	98.81
188.534	82.43
188.753	12.8
188.973	25.09
189.192	82.43
189.412	16.9
189.631	43.52
189.851	4.61
190.07	74.24
190.29	-60.93
190.509	27.14
190.729	-17.92
190.948	68.09
191.168	92.67
191.387	25.09
191.607	-48.64
191.826	2.56
192.045	70.14
192.265	-11.78
192.484	96.77
192.704	-32.26
192.923	27.14
193.142	10.75
193.362	119.29
193.581	131.58
193.8	-46.59
194.02	33.28
194.239	14.85
194.458	-32.26
194.678	12.8
194.897	4.61
195.116	-52.74
195.335	8.7
195.555	45.57
195.774	-9.73
195.993	-30.21
196.212	-13.82
196.432	-11.78
196.651	-62.98
196.87	20.99
197.089	84.48
197.308	10.75
197.528	70.14
197.747	-101.89
197.966	-9.73
198.185	107.01
198.404	-19.97
198.623	29.18
198.842	14.85
199.062	57.86
199.281	45.57
199.5	-1.54
199.719	53.76
199.938	-11.78
200.157	18.94
200.376	53.76
200.595	-9.73
200.814	49.66
201.033	-9.73
201.252	59.9
201.471	2.56
201.69	2.56
201.909	0.51
202.128	55.81
202.347	-38.4
202.566	57.86
202.785	20.99
203.004	-44.54
203.223	143.87
203.442	4.61
203.661	-42.5
203.879	12.8
204.098	80.38
204.317	43.52
204.536	74.24
204.755	-22.02
204.974	49.66
205.193	53.76
205.411	68.09
205.63	8.7
205.849	57.86
206.068	-46.59
206.287	31.23
206.505	-22.02
206.724	-32.26
206.943	-5.63
207.162	4.61
207.381	53.76
207.599	6.66
207.818	33.28
208.037	12.8
208.255	16.9
208.474	-3.58
208.693	-15.87
208.911	-11.78
209.13	27.14
209.349	47.62
209.567	29.18
209.786	-22.02
210.005	16.9
210.223	25.09
210.442	-38.4
210.661	53.76
210.879	16.9
211.098	70.14
211.316	20.99
211.535	33.28
211.753	2.56
211.972	-11.78
212.191	107.01
212.409	-7.68
212.628	-1.54
212.846	-1.54
213.065	74.24
213.283	-15.87
213.502	-28.16
213.72	-15.87
213.938	27.14
214.157	16.9
214.375	-3.58
214.594	4.61
214.812	-32.26
215.031	55.81
215.249	-19.97
215.467	70.14
215.686	12.8
215.904	-11.78
216.122	0.51
216.341	10.75
216.559	4.61
216.778	23.04
216.996	70.14
217.214	-71.17
217.432	-44.54
217.651	-32.26
217.869	41.47
218.087	86.53
218.306	-69.12
218.524	14.85
218.742	-114.17
218.96	4.61
219.179	25.09
219.397	-19.97
219.615	35.33
219.833	59.9
220.051	-28.16
220.27	117.25
220.488	49.66
220.706	66.05
220.924	0.51
221.142	-7.68
221.36	123.39
221.578	27.14
221.796	-32.26
222.015	45.57
222.233	55.81
222.451	109.05
222.669	-7.68
222.887	-13.82
223.105	-40.45
223.323	-30.21
223.541	51.71
223.759	20.99
223.977	-1.54
224.195	57.86
224.413	57.86
224.631	43.52
224.849	14.85
225.067	70.14
225.285	57.86
225.503	-3.58
225.721	-65.02
225.939	-19.97
226.157	76.29
226.375	55.81
226.592	29.18
226.81	35.33
227.028	45.57
227.246	41.47
227.464	-3.58
227.682	61.95
227.9	51.71
228.117	66.05
228.335	29.18
228.553	14.85
228.771	-1.54
228.989	31.23
229.206	6.66
229.424	-42.5
229.642	35.33
229.86	-56.83
230.077	-5.63
230.295	-26.11
230.513	72.19
230.731	88.57
230.948	68.09
231.166	31.23
231.384	-60.93
231.601	37.38
231.819	2.56
232.037	-42.5
232.254	6.66
232.472	18.94
232.689	10.75
232.907	6.66
233.125	27.14
233.342	8.7
233.56	-46.59
233.777	80.38
233.995	68.09
234.213	55.81
234.43	-26.11
234.648	-7.68
234.865	45.57
235.083	-26.11
235.3	-9.73
235.518	115.2
235.735	111.1
235.953	23.04
236.17	16.9
236.388	14.85
236.605	49.66
236.822	107.01
237.04	33.28
237.257	-28.16
237.475	33.28
237.692	2.56
237.909	76.29
238.127	-15.87
238.344	92.67
238.562	57.86
238.779	-46.59
238.996	-99.84
239.214	-1.54
239.431	-73.21
239.648	57.86
239.865	20.99
240.083	59.9
240.3	51.71
240.517	25.09
240.735	-7.68
240.952	23.04
241.169	72.19
241.386	8.7
241.603	-11.78
241.821	25.09
242.038	57.86
242.255	25.09
242.472	35.33
242.689	14.85
242.907	57.86
243.124	-22.02
243.341	-42.5
243.558	-3.58
243.775	29.18
243.992	-24.06
244.209	-1.54
244.426	47.62
244.643	72.19
244.86	-5.63
245.078	43.52
245.295	12.8
245.512	-26.11
245.729	-5.63
245.946	55.81
246.163	41.47
246.38	53.76
246.597	59.9
246.814	-34.3
247.031	-75.26
247.248	88.57
247.464	57.86
247.681	61.95
247.898	20.99
248.115	39.42
248.332	45.57
248.549	0.51
248.766	45.57
248.983	55.81
249.2	-24.06
249.417	51.71
249.633	39.42
249.85	47.62
250.067	18.94
250.284	33.28
250.501	-7.68
250.717	-11.78
250.934	-24.06
251.151	68.09
251.368	-9.73
251.585	88.57
251.801	29.18
252.018	59.9
252.235	-13.82
252.451	6.66
252.668	12.8
252.885	55.81
253.102	66.05
253.318	-58.88
253.535	0.51
253.752	-15.87
253.968	6.66
254.185	12.8
254.401	64
254.618	70.14
254.835	-48.64
255.051	78.33
255.268	16.9
255.484	23.04
255.701	12.8
255.917	41.47
256.134	-60.93
256.351	47.62
256.567	8.7
256.784	39.42
257	39.42
257.217	20.99
257.433	68.09
257.65	-19.97
257.866	94.72
258.082	18.94
258.299	14.85
258.515	29.18
258.732	6.66
258.948	27.14
259.165	10.75
259.381	2.56
259.597	-32.26
259.814	102.91
260.03	16.9
260.246	49.66
260.463	-24.06
260.679	49.66
260.895	-24.06
261.112	-3.58
261.328	6.66
261.544	10.75
261.761	45.57
261.977	-7.68
262.193	37.38
262.409	16.9
262.626	68.09
262.842	66.05
263.058	-15.87
263.274	2.56
263.49	27.14
263.707	82.43
263.923	29.18
264.139	-11.78
264.355	2.56
264.571	53.76
264.787	59.9
265.004	90.62
265.22	27.14
265.436	29.18
265.652	2.56
265.868	20.99
266.084	31.23
266.3	29.18
266.516	-15.87
266.732	12.8
266.948	-9.73
267.164	-5.63
267.38	47.62
267.596	41.47
267.812	49.66
268.028	41.47
268.244	12.8
268.46	45.57
268.676	23.04
268.892	74.24
269.108	-62.98
269.324	49.66
269.54	-26.11
269.756	49.66
269.972	29.18
270.188	49.66
270.403	-9.73
270.619	-62.98
270.835	-15.87
271.051	20.99
271.267	-5.63
271.483	78.33
271.698	-3.58
271.914	29.18
272.13	16.9
272.346	66.05
272.562	29.18
272.777	57.86
272.993	25.09
273.209	31.23
273.425	-11.78
273.64	-9.73
273.856	84.48
274.072	-3.58
274.287	20.99
274.503	31.23
274.719	51.71
274.934	43.52
275.15	-15.87
275.366	43.52
275.581	70.14
275.797	-13.82
276.012	-3.58
276.228	12.8
276.444	-48.64
276.659	84.48
276.875	-54.78
277.09	12.8
277.306	31.23
277.521	-42.5
277.737	27.14
277.952	47.62
278.168	78.33
278.383	37.38
278.599	-36.35
278.814	66.05
279.03	-40.45
279.245	29.18
279.461	20.99
279.676	16.9
279.892	31.23
280.107	-9.73
280.322	-19.97
280.538	33.28
280.753	-60.93
280.969	109.05
281.184	109.05
281.399	-26.11
281.615	-24.06
281.83	-22.02
282.045	-67.07
282.26	2.56
282.476	53.76
282.691	0.51
282.906	61.95
283.122	-5.63
283.337	37.38
283.552	74.24
283.767	55.81
283.983	45.57
284.198	-19.97
284.413	35.33
284.628	18.94
284.843	37.38
285.058	20.99
285.274	20.99
285.489	94.72
285.704	43.52
285.919	-89.6
286.134	51.71
286.349	2.56
286.564	-15.87
286.779	41.47
286.995	29.18
287.21	-24.06
287.425	68.09
287.64	12.8
287.855	2.56
288.07	49.66
288.285	29.18
288.5	-30.21
288.715	8.7
288.93	-7.68
289.145	-22.02
289.36	70.14
289.575	-60.93
289.79	-28.16
290.004	20.99
290.219	53.76
290.434	-69.12
290.649	35.33
290.864	2.56
291.079	47.62
291.294	-13.82
291.509	25.09
291.724	90.62
291.938	49.66
292.153	100.86
292.368	-22.02
292.583	47.62
292.798	8.7
293.012	84.48
293.227	-9.73
293.442	31.23
293.657	29.18
293.871	61.95
294.086	45.57
294.301	82.43
294.516	12.8
294.73	-15.87
294.945	53.76
295.16	2.56
295.374	39.42
295.589	66.05
295.804	-40.45
296.018	23.04
296.233	-13.82
296.447	-30.21
296.662	2.56
296.877	-13.82
297.091	41.47
297.306	61.95
297.52	6.66
297.735	2.56
297.949	18.94
298.164	115.2
298.378	-56.83
298.593	16.9
298.807	-26.11
299.022	23.04
299.236	-3.58
299.451	45.57
299.665	-30.21
299.88	33.28
300.094	-13.82
300.309	61.95
300.523	61.95
300.737	-40.45
300.952	35.33
301.166	107.01
301.381	25.09
301.595	-3.58
301.809	68.09
302.024	27.14
302.238	-36.35
302.452	-30.21
302.667	-60.93
302.881	49.66
303.095	43.52
303.309	70.14
303.524	33.28
303.738	16.9
303.952	33.28
304.166	51.71
304.381	0.51
304.595	29.18
304.809	6.66
305.023	78.33
305.237	37.38
305.452	14.85
305.666	12.8
305.88	78.33
306.094	27.14
306.308	-46.59
306.522	8.7
306.736	41.47
306.95	82.43
307.164	16.9
307.379	51.71
307.593	86.53
307.807	45.57
308.021	16.9
308.235	-3.58
308.449	33.28
308.663	-11.78
308.877	92.67
309.091	-7.68
309.305	-71.17
309.519	55.81
309.733	6.66
309.947	90.62
310.161	-15.87
310.374	41.47
310.588	117.25
310.802	-9.73
311.016	80.38
311.23	18.94
311.444	61.95
311.658	-13.82
311.872	43.52
312.085	33.28
312.299	90.62
312.513	49.66
312.727	45.57
312.941	-87.55
313.154	82.43
313.368	-44.54
313.582	8.7
313.796	84.48
314.009	0.51
314.223	49.66
314.437	86.53
314.651	39.42
314.864	0.51
315.078	29.18
315.292	-24.06
315.505	29.18
315.719	-5.63
315.933	90.62
316.146	47.62
316.36	-28.16
316.573	94.72
316.787	20.99
317.001	6.66
317.214	-3.58
317.428	2.56
317.641	-46.59
317.855	51.71
318.068	20.99
318.282	23.04
318.495	10.75
318.709	72.19
318.922	10.75
319.136	55.81
319.349	76.29
319.563	-28.16
319.776	70.14
319.99	31.23
320.203	84.48
320.417	33.28
320.63	47.62
320.843	98.81
321.057	61.95
321.27	12.8
321.483	57.86
321.697	33.28
321.91	2.56
322.124	57.86
322.337	14.85
322.55	25.09
322.763	35.33
322.977	72.19
323.19	-11.78
323.403	-7.68
323.617	0.51
323.83	41.47
324.043	18.94
324.256	16.9
324.469	12.8
324.683	57.86
324.896	41.47
325.109	18.94
325.322	74.24
325.535	39.42
325.748	37.38
325.962	29.18
326.175	4.61
326.388	57.86
326.601	2.56
326.814	29.18
327.027	12.8
327.24	47.62
327.453	-26.11
327.666	8.7
327.879	-40.45
328.092	41.47
328.305	49.66
328.518	18.94
328.731	6.66
328.944	39.42
329.157	59.9
329.37	49.66
329.583	86.53
329.796	51.71
330.009	-15.87
330.222	51.71
330.435	104.96
330.648	94.72
330.861	-87.55
331.073	66.05
331.286	16.9
331.499	14.85
331.712	66.05
331.925	-42.5
332.138	82.43
332.35	74.24
332.563	-3.58
332.776	12.8
332.989	-24.06
333.202	31.23
333.414	8.7
333.627	0.51
333.84	49.66
334.053	61.95
334.265	14.85
334.478	33.28
334.691	55.81
334.903	4.61
335.116	43.52
335.329	61.95
335.541	45.57
335.754	88.57
335.966	23.04
336.179	49.66
336.392	23.04
336.604	23.04
336.817	88.57
337.029	35.33
337.242	37.38
337.454	35.33
337.667	20.99
337.88	76.29
338.092	35.33
338.305	59.9
338.517	-75.26
338.729	10.75
338.942	96.77
339.154	41.47
339.367	25.09
339.579	12.8
339.792	47.62
340.004	45.57
340.217	82.43
340.429	-32.26
340.641	35.33
340.854	94.72
341.066	68.09
341.278	47.62
341.491	53.76
341.703	57.86
341.915	29.18
342.128	100.86
342.34	100.86
342.552	14.85
342.764	10.75
342.977	41.47
343.189	-13.82
343.401	70.14
343.613	-1.54
343.826	-13.82
344.038	-28.16
344.25	-19.97
344.462	37.38
344.674	4.61
344.886	61.95
345.099	29.18
345.311	100.86
345.523	31.23
345.735	10.75
345.947	33.28
346.159	41.47
346.371	107.01
346.583	47.62
346.795	39.42
347.007	27.14
347.219	25.09
347.431	84.48
347.643	53.76
347.855	33.28
348.067	35.33
348.279	39.42
348.491	25.09
348.703	12.8
348.915	-3.58
349.127	20.99
349.339	76.29
349.551	53.76
349.763	49.66
349.975	10.75
350.187	-5.63
350.399	102.91
350.61	25.09
350.822	-7.68
351.034	20.99
351.246	37.38
351.458	82.43
351.669	12.8
351.881	72.19
352.093	-7.68
352.305	57.86
352.517	18.94
352.728	45.57
352.94	51.71
353.152	-5.63
353.363	12.8
353.575	98.81
353.787	0.51
353.999	31.23
354.21	57.86
354.422	37.38
354.633	113.15
354.845	8.7
355.057	25.09
355.268	33.28
355.48	45.57
355.692	10.75
355.903	82.43
356.115	0.51
356.326	-28.16
356.538	59.9
356.749	12.8
356.961	70.14
357.172	14.85
357.384	20.99
357.595	51.71
357.807	66.05
358.018	12.8
358.23	37.38
358.441	115.2
358.653	20.99
358.864	76.29
359.075	25.09
359.287	-46.59
359.498	27.14
359.709	2.56
359.921	94.72
360.132	-42.5
360.344	88.57
360.555	25.09
360.766	20.99
360.977	29.18
361.189	61.95
361.4	80.38
361.611	66.05
361.823	43.52
362.034	-1.54
362.245	18.94
362.456	-19.97
362.667	35.33
362.879	49.66
363.09	96.77
363.301	-15.87
363.512	61.95
363.723	-46.59
363.935	31.23
364.146	47.62
364.357	25.09
364.568	82.43
364.779	-1.54
364.99	70.14
365.201	51.71
365.412	92.67
365.623	-17.92
365.834	49.66
366.045	51.71
366.256	43.52
366.467	86.53
366.678	35.33
366.889	25.09
367.1	68.09
367.311	45.57
367.522	59.9
367.733	64
367.944	57.86
368.155	84.48
368.366	96.77
368.577	78.33
368.788	88.57
368.999	66.05
369.209	-9.73
369.42	61.95
369.631	53.76
369.842	59.9
370.053	12.8
370.264	43.52
370.474	-3.58
370.685	74.24
370.896	18.94
371.107	4.61
371.317	35.33
371.528	29.18
371.739	33.28
371.95	6.66
372.16	14.85
372.371	29.18
372.582	61.95
372.792	-17.92
373.003	39.42
373.214	4.61
373.424	66.05
373.635	41.47
373.846	64
374.056	-5.63
374.267	6.66
374.477	37.38
374.688	12.8
374.898	51.71
375.109	53.76
375.319	20.99
375.53	164.35
375.74	53.76
375.951	12.8
376.161	20.99
376.372	80.38
376.582	2.56
376.793	96.77
377.003	61.95
377.214	37.38
377.424	117.25
377.635	57.86
377.845	43.52
378.055	66.05
378.266	45.57
378.476	29.18
378.686	-9.73
378.897	18.94
379.107	37.38
379.317	-44.54
379.528	20.99
379.738	43.52
379.948	41.47
380.158	41.47
380.369	25.09
380.579	31.23
380.789	41.47
380.999	92.67
381.21	72.19
381.42	-40.45
381.63	4.61
381.84	64
382.05	27.14
382.261	70.14
382.471	25.09
382.681	4.61
382.891	-22.02
383.101	78.33
383.311	33.28
383.521	78.33
383.731	70.14
383.941	74.24
384.151	16.9
384.361	53.76
384.571	55.81
384.781	68.09
384.991	57.86
385.201	86.53
385.411	47.62
385.621	68.09
385.831	84.48
386.041	-1.54
386.251	51.71
386.461	43.52
386.671	84.48
386.881	121.34
387.091	96.77
387.301	90.62
387.511	-19.97
387.72	61.95
387.93	18.94
388.14	43.52
388.35	53.76
388.56	47.62
388.769	37.38
388.979	-19.97
389.189	18.94
389.399	94.72
389.609	45.57
389.818	31.23
390.028	152.06
390.238	66.05
390.447	66.05
390.657	64
390.867	47.62
391.076	39.42
391.286	90.62
391.496	51.71
391.705	29.18
391.915	57.86
392.125	123.39
392.334	33.28
392.544	125.44
392.753	51.71
392.963	53.76
393.172	29.18
393.382	59.9
393.591	51.71
393.801	45.57
394.01	135.68
394.22	121.34
394.429	18.94
394.639	29.18
394.848	12.8
395.058	55.81
395.267	49.66
395.477	29.18
395.686	117.25
395.895	80.38
396.105	117.25
396.314	59.9
396.524	41.47
396.733	49.66
396.942	104.96
397.152	61.95
397.361	74.24
397.57	147.97
397.78	94.72
397.989	78.33
398.198	102.91
398.407	145.92
398.617	90.62
398.826	123.39
399.035	90.62
399.244	82.43
399.453	59.9
399.663	131.58
399.872	168.45
400.081	70.14
400.29	64
400.499	74.24
400.708	86.53
400.917	84.48
401.127	59.9
401.336	37.38
401.545	109.05
401.754	35.33
401.963	16.9
402.172	96.77
402.381	-1.54
402.59	123.39
402.799	51.71
403.008	109.05
403.217	70.14
403.426	162.3
403.635	129.53
403.844	51.71
404.053	98.81
404.262	88.57
404.471	145.92
404.68	135.68
404.888	139.77
405.097	92.67
405.306	135.68
405.515	104.96
405.724	156.16
405.933	195.07
406.142	162.3
406.35	121.34
406.559	133.63
406.768	107.01
406.977	150.01
407.185	152.06
407.394	129.53
407.603	160.25
407.812	182.78
408.02	248.32
408.229	201.21
408.438	213.5
408.646	299.52
408.855	242.17
409.064	172.54
409.272	233.98
409.481	268.8
409.69	231.93
409.898	229.88
410.107	297.47
410.315	244.22
410.524	160.25
410.733	356.86
410.941	229.88
411.15	336.38
411.358	315.9
411.567	287.23
411.775	317.95
411.984	344.57
412.192	342.52
412.401	324.09
412.609	428.54
412.818	475.64
413.026	461.3
413.234	520.7
413.443	449.02
413.651	379.39
413.86	469.5
414.068	575.99
414.276	506.36
414.485	504.31
414.693	504.31
414.901	627.19
415.11	561.66
415.318	582.14
415.526	645.62
415.734	672.25
415.943	621.05
416.151	711.16
416.359	752.12
416.567	829.94
416.776	707.06
416.984	831.99
417.192	899.57
417.4	840.18
417.608	860.66
417.817	911.86
418.025	954.87
418.233	926.19
418.441	1030.64
418.649	1051.12
418.857	1077.74
419.065	1092.08
419.273	1126.89
419.481	1296.88
419.689	1196.53
419.897	1251.82
420.105	1356.27
420.313	1360.36
420.521	1427.95
420.729	1405.42
420.937	1505.77
421.145	1477.1
421.353	1493.48
421.561	1642.98
421.769	1667.56
421.977	1860.07
422.185	1810.92
422.393	1903.07
422.601	2046.43
422.809	1974.75
423.017	1960.42
423.224	2011.62
423.432	2238.94
423.64	2243.04
423.848	2359.77
424.056	2255.33
424.263	2476.51
424.471	2435.55
424.679	2646.49
424.887	2763.22
425.094	2824.66
425.302	2787.8
425.51	2808.28
425.718	2927.06
425.925	2875.86
426.133	3043.79
426.341	3183.06
426.548	3514.83
426.756	3437
426.964	3443.15
427.171	3766.73
427.379	3717.58
427.586	3733.96
427.794	3772.87
428.001	3992
428.209	4305.34
428.417	4096.45
428.624	4563.39
428.832	4522.43
429.039	4413.88
429.247	4506.04
429.454	4872.63
429.662	5231.02
429.869	4852.15
430.076	5214.64
430.284	5056.95
430.491	5274.03
430.699	5706.15
430.906	5616.04
431.114	5689.77
431.321	6003.11
431.528	6209.95
431.736	6336.93
431.943	6728.09
432.15	6605.21
432.358	6613.4
432.565	6988.18
432.772	7016.85
432.979	7184.79
433.187	7588.24
433.394	7420.3
433.601	7780.75
433.808	7758.22
434.016	7870.86
434.223	8253.83
434.43	8679.8
434.637	8567.17
434.844	9136.5
435.052	9308.53
435.259	9208.18
435.466	9539.95
435.673	9054.58
435.88	9802.09
436.087	10316.13
436.294	10379.62
436.501	9937.26
436.708	10277.22
436.915	10590.56
437.122	11051.35
437.329	11188.57
437.537	11475.28
437.743	11684.17
437.95	11735.37
438.157	12147.01
438.364	12335.43
438.571	12450.11
438.778	12538.18
438.985	13803.82
439.192	13306.16
439.399	13672.75
439.606	13308.21
439.813	14111.02
440.02	14811.42
440.227	14563.62
440.433	14655.78
440.64	14854.43
440.847	14618.91
441.054	15603.99
441.261	16371.97
441.467	16013.58
441.674	16605.44
441.881	17170.68
442.088	17180.92
442.294	17041.66
442.501	17342.71
442.708	17611
442.914	18454.76
443.121	19216.6
443.328	18680.03
443.534	20105.42
443.741	19155.16
443.948	19253.47
444.154	20486.34
444.361	20424.9
444.568	20441.29
444.774	20371.66
444.981	21004.48
445.187	21178.56
445.394	22210.73
445.6	21838
445.807	23980.18
446.013	22948
446.22	23355.55
446.426	24361.1
446.633	24625.29
446.839	25120.9
447.046	24076.43
447.252	25362.56
447.459	25600.12
447.665	25460.86
447.871	26853.48
448.078	27742.3
448.284	26216.56
448.491	27228.26
448.697	28104.79
448.903	28606.54
449.11	28547.15
449.316	28174.42
449.522	28928.07
449.728	29509.69
449.935	29595.71
450.141	29730.87
450.347	30511.15
450.553	29675.58
450.76	29796.41
450.966	30898.22
451.172	30488.62
451.378	31225.89
451.584	30574.64
451.791	31211.56
451.997	31316
452.203	31750.17
452.409	31557.66
452.615	31639.58
452.821	30144.56
453.027	29950.01
453.233	31756.32
453.44	30152.76
453.646	30550.06
453.852	30808.11
454.058	30906.41
454.264	30326.83
454.47	30640.17
454.676	29759.55
454.882	31117.35
455.088	28278.86
455.294	28964.93
455.5	29153.35
455.705	29392.96
455.911	28440.65
456.117	27508.83
456.323	27488.35
456.529	25831.54
456.735	26982.5
456.941	26230.9
457.147	25663.61
457.352	25276.54
457.558	24854.66
457.764	24717.45
457.97	24543.37
458.176	24109.2
458.381	23654.55
458.587	22708.39
458.793	22513.83
458.999	21573.81
459.204	22980.77
459.41	22335.66
459.616	21049.53
459.821	20834.5
460.027	20945.09
460.233	20441.29
460.438	19374.3
460.644	19781.84
460.85	18448.61
461.055	18346.22
461.261	18534.63
461.466	17213.69
461.672	16810.24
461.878	17744.11
462.083	16517.38
462.289	16197.9
462.494	16191.75
462.7	15358.23
462.905	14801.18
463.111	15350.04
463.316	15663.38
463.522	15087.9
463.727	15415.57
463.932	15282.45
464.138	14956.83
464.343	14960.92
464.549	14510.37
464.754	15333.65
464.959	15044.89
465.165	14838.05
465.37	14295.33
465.575	14182.7
465.781	14811.42
465.986	14618.91
466.191	13947.18
466.397	13674.8
466.602	13201.72
466.807	13734.19
467.012	13666.61
467.218	13580.59
467.423	13439.28
467.628	13396.28
467.833	14168.36
468.038	13529.39
468.244	13291.83
468.449	13850.92
468.654	13547.83
468.859	13195.57
469.064	12958.01
469.269	12513.6
469.474	12779.84
469.679	13017.4
469.885	12443.97
470.09	12706.11
470.295	12659.01
470.5	12489.03
470.705	12540.22
470.91	11886.92
471.115	12065.1
471.32	12300.61
471.525	11940.17
471.73	11628.88
471.935	11934.03
472.139	11417.94
472.344	11338.07
472.549	11387.22
472.754	11313.49
472.959	11061.59
473.164	10963.29
473.369	10576.22
473.574	10881.37
473.778	10668.38
473.983	10867.03
474.188	10738.01
474.393	10342.75
474.598	10281.32
474.802	10111.33
475.007	10135.91
475.212	10053.99
475.417	9714.03
475.621	9797.99
475.826	9830.76
476.031	9726.32
476.235	9503.09
476.44	9566.57
476.645	9451.89
476.849	9439.6
477.054	9441.65
477.259	9296.24
477.463	9208.18
477.668	8917.37
477.872	9093.49
478.077	8851.83
478.282	8550.78
478.486	8622.46
478.691	8483.2
478.895	8669.56
479.1	8534.4
479.304	8432
479.509	8323.46
479.713	8479.1
479.918	8311.17
480.122	8094.08
480.326	8255.87
480.531	8411.52
480.735	8014.21
480.94	8214.91
481.144	8259.97
481.348	7829.9
481.553	8098.18
481.757	7766.41
481.961	8069.51
482.166	8112.52
482.37	7965.06
482.574	8032.65
482.778	7934.34
482.983	8038.79
483.187	7922.06
483.391	8016.26
483.595	8112.52
483.8	7852.42
484.004	8110.47
484.208	8089.99
484.412	7932.29
484.616	7997.83
484.821	7932.29
485.025	7868.81
485.229	8085.89
485.433	7764.36
485.637	7856.52
485.841	7797.13
486.045	7877
486.249	7922.06
486.453	7725.45
486.657	7846.28
486.861	7827.85
487.065	7623.05
487.269	7989.64
487.473	7711.11
487.677	8030.6
487.881	8032.65
488.085	7905.67
488.289	8038.79
488.493	7750.03
488.697	8055.17
488.901	7995.78
489.105	7936.39
489.309	7938.44
489.512	8079.75
489.716	8106.37
489.92	8122.76
490.124	7850.38
490.328	8141.19
490.531	7999.88
490.735	7940.49
490.939	8006.02
491.143	8133
491.346	8120.71
491.55	8456.57
491.754	8288.64
491.958	8255.87
492.161	8178.05
492.365	8382.85
492.569	8296.83
492.772	8350.08
492.976	8370.56
493.18	8397.18
493.383	8558.97
493.587	8653.18
493.79	8522.11
493.994	8573.31
494.197	8667.52
494.401	8638.84
494.605	8835.45
494.808	8993.14
495.012	8888.7
495.215	8786.3
495.419	9073.01
495.622	9038.2
495.825	8956.28
496.029	9269.62
496.232	9333.11
496.436	9212.28
496.639	9720.17
496.843	9435.5
497.046	9542
497.249	9943.4
497.453	9754.99
497.656	9808.23
497.859	9890.15
498.063	10125.67
498.266	10078.57
498.469	10244.45
498.673	10527.07
498.876	10340.71
499.079	10592.61
499.282	10647.9
499.485	10688.86
499.689	10994.01
499.892	10836.31
500.095	10967.38
500.298	11407.7
500.501	11209.04
500.705	11438.42
500.908	11696.46
501.111	11546.96
501.314	11886.92
501.517	12073.29
501.72	12192.07
501.923	12333.38
502.126	12339.52
502.329	12724.54
502.532	12779.84
502.735	12751.17
502.938	13005.11
503.141	13197.62
503.344	13347.12
503.547	13236.53
503.75	13492.53
503.953	13678.9
504.156	13781.29
504.359	13754.67
504.562	13957.42
504.765	14291.24
504.968	14242.09
505.17	14713.12
505.373	14676.26
505.576	14725.41
505.779	14934.3
505.982	15051.03
506.185	15669.52
506.387	15468.82
506.59	15470.87
506.793	15917.33
506.996	15894.8
507.198	16453.89
507.401	16236.81
507.604	16150.79
507.807	16644.35
508.009	16789.76
508.212	17015.04
508.415	17094.91
508.617	17488.12
508.82	17547.51
509.022	17137.91
509.225	17860.85
509.428	17846.51
509.63	18030.83
509.833	18209
510.035	18516.2
510.238	18475.24
510.44	18708.71
510.643	19196.12
510.845	19597.52
511.048	18989.28
511.25	19550.42
511.453	19665.11
511.655	20418.76
511.858	20127.95
512.06	20375.75
512.262	20504.78
512.465	20652.23
512.667	20852.93
512.87	21055.68
513.072	21178.56
513.274	21577.91
513.477	21876.91
513.679	21913.78
513.881	22153.39
514.084	22298.8
514.286	22290.6
514.488	22421.67
514.69	23077.02
514.893	23109.79
515.095	23197.85
515.297	23552.15
515.499	23814.29
515.701	23820.44
515.904	24246.41
516.106	24125.58
516.308	24537.23
516.51	24588.42
516.712	24967.3
516.914	25389.18
517.116	25725.05
517.318	25776.25
517.52	25723
517.722	25696.38
517.925	26269.81
518.127	26652.78
518.329	26740.84
518.531	26646.63
518.733	27195.49
518.935	27224.16
519.136	27730.01
519.338	27791.45
519.54	27971.67
519.742	28031.06
519.944	28491.85
520.146	29073.48
520.348	29122.63
520.55	29009.99
520.752	29122.63
520.954	29589.56
521.155	29542.46
521.357	30197.81
521.559	30230.58
521.761	30894.12
521.963	30621.74
522.164	30718
522.366	30916.65
522.568	31201.32
522.77	31660.06
522.971	31569.95
523.173	31983.64
523.375	31911.96
523.576	31682.59
523.778	32092.18
523.98	32227.35
524.181	32610.32
524.383	32686.09
524.584	33193.99
524.786	33179.65
524.988	33185.8
525.189	33660.93
525.391	33617.92
525.592	33699.84
525.794	34045.94
525.995	33746.94
526.197	34279.41
526.398	34011.13
526.6	34557.94
526.801	34750.45
527.003	34873.32
527.204	34791.41
527.406	35321.83
527.607	35194.85
527.808	35557.35
528.01	34772.97
528.211	35309.54
528.412	35842.01
528.614	35715.04
528.815	35698.66
529.016	36454.36
529.218	36022.23
529.419	35954.65
529.62	35862.49
529.822	36001.75
530.023	36065.24
530.224	36274.13
530.425	36245.46
530.626	36517.84
530.828	36063.19
531.029	37138.38
531.23	36360.15
531.431	36673.49
531.632	36548.56
531.833	36958.16
532.035	36935.63
532.236	36693.97
532.437	37183.43
532.638	36499.41
532.839	37222.34
533.04	37509.06
533.241	36890.57
533.442	37568.45
533.643	37062.6
533.844	37337.03
534.045	37150.67
534.246	37165
534.447	37552.07
534.648	37433.28
534.849	37375.94
535.05	37126.09
535.251	36941.77
535.451	37035.98
535.652	37294.02
535.853	37337.03
536.054	37177.29
536.255	37654.47
536.456	37257.16
536.657	37408.71
536.857	37228.49
537.058	37269.45
537.259	37365.7
537.46	37515.2
537.66	37132.23
537.861	37607.36
538.062	37521.35
538.263	37365.7
538.463	37193.67
538.664	37124.04
538.865	37382.09
539.065	37351.37
539.266	36927.44
539.466	37302.21
539.667	37074.89
539.868	37707.71
540.068	37375.94
540.269	37455.81
540.469	37355.46
540.67	37427.14
540.87	37257.16
541.071	37308.36
541.271	37642.18
541.472	37398.47
541.672	37060.55
541.873	37132.23
542.073	36558.8
542.274	37433.28
542.474	37177.29
542.675	37081.03
542.875	37302.21
543.075	37265.35
543.276	37171.14
543.476	37455.81
543.676	37222.34
543.877	37390.28
544.077	37361.61
544.277	37377.99
544.478	37214.15
544.678	37355.46
544.878	37357.51
545.078	37160.9
545.279	37033.93
545.479	37418.95
545.679	37189.58
545.879	37609.41
546.079	37326.79
546.28	37152.71
546.48	37015.5
546.68	37388.23
546.88	37384.13
547.08	37259.21
547.28	36984.78
547.48	37146.57
547.68	37445.57
547.88	37189.58
548.081	37158.86
548.281	36896.72
548.481	37021.64
548.681	37267.4
548.881	37029.83
549.081	36978.64
549.28	37015.5
549.48	37201.86
549.68	36847.57
549.88	37619.65
550.08	36771.79
550.28	37246.92
550.48	37099.47
550.68	37068.75
550.88	37232.58
551.08	36603.86
551.279	37087.18
551.479	36872.14
551.679	37195.72
551.879	36947.92
552.079	37449.67
552.278	36530.13
552.478	36888.53
552.678	36978.64
552.878	37058.51
553.077	36566.99
553.277	36775.89
553.477	37027.79
553.676	36853.71
553.876	36663.25
554.076	36624.34
554.275	36210.65
554.475	36208.6
554.674	36470.74
554.874	36595.67
555.074	36550.61
555.273	36311
555.473	36835.28
555.672	36233.18
555.872	36354.01
556.071	36347.86
556.271	36196.31
556.47	35854.3
556.67	35643.36
556.869	36220.89
557.068	36413.4
557.268	36177.88
557.467	36159.45
557.667	35995.61
557.866	35930.08
558.065	35925.98
558.265	35766.24
558.464	35436.52
558.663	36011.99
558.863	35340.26
559.062	35975.13
559.261	35196.9
559.461	35567.59
559.66	35674.08
559.859	35829.73
560.058	35409.89
560.258	35135.46
560.457	35180.52
560.656	35262.44
560.855	35231.72
561.054	35092.46
561.253	35076.07
561.453	35076.07
561.652	34805.74
561.851	34912.24
562.05	34830.32
562.249	34521.07
562.448	34850.8
562.647	34883.56
562.846	34664.43
563.045	34564.08
563.244	34074.62
563.443	34662.38
563.642	33972.22
563.841	34363.38
564.04	34187.25
564.239	34297.84
564.438	34277.36
564.637	34351.09
564.836	34068.47
565.035	33636.35
565.234	33884.15
565.432	33732.61
565.631	33937.4
565.83	33693.69
566.029	33255.43
566.228	33380.35
566.427	33384.45
566.625	33085.45
566.824	33064.97
567.023	33409.03
567.222	32659.47
567.42	33359.87
567.619	33112.07
567.818	32954.38
568.016	32774.16
568.215	33032.2
568.414	32462.86
568.612	32569.36
568.811	32741.39
569.01	32452.62
569.208	32591.89
569.407	32718.86
569.605	32184.34
569.804	32559.12
570.002	31803.42
570.201	32194.58
570.4	32272.4
570.598	31635.49
570.797	31795.23
570.995	31707.16
571.193	31653.92
571.392	31621.15
571.59	31123.49
571.789	31547.42
571.987	31596.57
572.186	31442.98
572.384	31215.65
572.582	31442.98
572.781	31324.19
572.979	30558.25
573.177	30904.36
573.376	30777.39
573.574	30455.86
573.772	30867.5
573.971	30531.63
574.169	30761
574.367	30263.35
574.565	30443.57
574.763	30287.92
574.962	30345.26
575.16	29651
575.358	29923.38
575.556	29790.27
575.754	30081.08
575.952	29634.62
576.151	29706.3
576.349	29268.03
576.547	29585.47
576.745	29528.13
576.943	29622.33
577.141	29358.14
577.339	29444.16
577.537	29149.25
577.735	29220.93
577.933	29306.94
578.131	29030.47
578.329	28465.23
578.527	28930.12
578.725	28624.97
578.923	28772.42
579.121	28405.84
579.319	28385.36
579.516	28665.93
579.714	28348.5
579.912	28160.08
580.11	27986
580.308	28170.32
580.506	27910.23
580.704	27582.56
580.901	28108.88
581.099	28227.67
581.297	27754.58
581.495	27588.7
581.692	27867.22
581.89	27725.91
582.088	27508.83
582.285	27388
582.483	27398.24
582.681	27416.67
582.878	27121.76
583.076	26974.31
583.274	27261.02
583.471	26615.91
583.669	27226.21
583.866	26517.61
584.064	26968.16
584.262	26534
584.459	26570.86
584.657	26579.05
584.854	26505.32
585.052	26396.78
585.249	26282.09
585.447	26724.46
585.644	26237.04
585.841	26386.54
586.039	26318.96
586.236	25987.19
586.434	25829.49
586.631	25768.05
586.828	25940.08
587.026	25542.78
587.223	25655.42
587.42	25653.37
587.618	25555.07
587.815	25186.43
588.012	25424
588.21	25153.66
588.407	25376.89
588.604	25118.85
588.801	25227.39
588.999	25282.69
589.196	24957.06
589.393	24529.03
589.59	24785.03
589.787	24514.7
589.984	24772.74
590.182	24414.35
590.379	24432.78
590.576	24281.23
590.773	24273.04
590.97	24096.91
591.167	24219.79
591.364	23840.92
591.561	24180.88
591.758	23722.13
591.955	23754.9
592.152	23926.93
592.349	23810.2
592.546	23976.08
592.743	23769.24
592.94	23554.2
593.137	23627.93
593.334	23570.58
593.531	23408.79
593.727	23353.5
593.924	23402.65
594.121	23173.28
594.318	23316.64
594.515	23058.59
594.712	22952.1
594.908	22925.47
595.105	23021.73
595.302	22597.8
595.499	22812.84
595.696	22589.61
595.892	22786.21
596.089	22501.54
596.286	22544.55
596.482	22370.47
596.679	22280.36
596.876	22495.4
597.072	22059.18
597.269	21876.91
597.466	21870.77
597.662	21962.93
597.859	21866.67
598.055	22223.02
598.252	21819.57
598.448	21678.26
598.645	21682.36
598.841	21754.04
599.038	21590.2
599.234	21881.01
599.431	21469.37
599.627	21293.24
599.824	21739.7
600.02	21192.89
600.217	21246.14
600.413	20979.9
600.609	21240
600.806	20969.66
601.002	20828.35
601.198	20965.57
601.395	20639.94
601.591	20775.11
601.787	21043.39
601.984	20533.45
602.18	20816.07
602.376	20547.78
602.572	20486.34
602.769	20293.83
602.965	20168.91
603.161	20633.8
603.357	20304.07
603.553	20273.35
603.75	20175.05
603.946	20064.46
604.142	20287.69
604.338	19898.58
604.534	19790.03
604.73	19755.22
604.926	19669.2
605.122	19896.53
605.318	19521.75
605.514	19632.34
605.71	19464.41
605.906	19347.67
606.102	19468.5
606.298	19517.65
606.494	19163.36
606.69	19345.62
606.886	19194.08
607.082	18878.69
607.278	19359.96
607.474	19067.1
607.67	19048.67
607.866	18852.06
608.062	19099.87
608.257	19020
608.453	18962.65
608.649	18825.44
608.845	18575.59
609.041	18520.29
609.236	18657.51
609.432	18663.65
609.628	18571.49
609.824	18542.82
610.019	18401.51
610.215	18403.56
610.411	18366.7
610.606	18385.13
610.802	18108.65
610.998	18325.74
611.193	18176.23
611.389	18041.07
611.584	18233.58
611.78	18110.7
611.976	18012.4
612.171	17959.15
612.367	18135.28
612.562	18295.02
612.758	17733.87
612.953	17879.28
613.149	17926.38
613.344	17758.45
613.539	17985.77
613.735	17760.5
613.93	17561.84
614.126	17658.1
614.321	17701.11
614.517	17643.76
614.712	17660.15
614.907	17223.93
615.103	17451.25
615.298	17363.19
615.493	17545.46
615.688	17123.58
615.884	17631.47
616.079	17311.99
616.274	17400.05
616.47	17238.26
616.665	17019.13
616.86	16931.07
617.055	17166.59
617.25	16998.65
617.445	16804.1
617.641	16738.56
617.836	17123.58
618.031	16681.22
618.226	16789.76
618.421	16677.12
618.616	16808.19
618.811	16521.48
619.006	16789.76
619.201	16431.37
619.396	16570.63
619.591	16374.02
619.786	16396.55
619.981	16232.71
620.176	16191.75
620.371	16095.5
620.566	16150.79
620.761	16111.88
620.956	16046.35
621.151	15864.08
621.346	15900.94
621.541	15698.19
621.735	15872.27
621.93	15599.89
622.125	15421.72
622.32	15212.82
622.515	15499.54
622.709	15565.07
622.904	15413.52
623.099	15081.75
623.294	15106.33
623.488	15137.05
623.683	14973.21
623.878	14696.74
624.072	14981.4
624.267	14666.02
624.462	14649.63
624.656	14424.36
624.851	14577.95
625.046	14555.43
625.24	14317.86
625.435	14201.13
625.629	14338.34
625.824	14453.03
626.018	14078.25
626.213	13898.03
626.407	14098.73
626.602	13676.85
626.796	13877.55
626.991	13590.83
627.185	13943.08
627.38	13320.5
627.574	13478.19
627.768	13463.86
627.963	13263.16
628.157	13216.05
628.352	13171
628.546	12960.06
628.74	13175.09
628.935	13007.16
629.129	12886.33
629.323	12779.84
629.517	12722.49
629.712	12925.24
629.906	12419.39
630.1	12562.75
630.294	12454.21
630.489	12237.13
630.683	12409.15
630.877	12181.83
631.071	12224.84
631.265	12286.28
631.459	12173.64
631.653	11909.45
631.848	12187.97
632.042	11993.42
632.236	11788.62
632.43	11987.27
632.624	12052.81
632.818	11688.27
633.012	11510.1
633.206	11565.39
633.4	11415.89
633.594	11170.13
633.788	11626.83
633.982	11389.27
634.176	11368.79
634.369	11284.82
634.563	11241.81
634.757	11229.52
634.951	11215.19
635.145	11112.79
635.339	10991.96
635.533	10690.91
635.726	10858.84
635.92	10920.28
636.114	10674.53
636.308	10815.83
636.501	10840.41
636.695	10699.1
636.889	10387.81
637.083	10359.14
637.276	10344.8
637.47	10266.98
637.664	10328.42
637.857	10185.06
638.051	10254.69
638.244	10058.09
638.438	10127.72
638.632	9957.74
638.825	10076.52
639.019	9834.86
639.212	9974.12
639.406	9806.19
639.599	9787.75
639.793	9769.32
639.986	9597.29
640.18	9675.12
640.373	9480.56
640.567	9206.13
640.76	9496.94
640.954	9357.68
641.147	9490.8
641.34	9558.38
641.534	9230.71
641.727	9316.72
641.92	9089.4
642.114	8991.09
642.307	9185.65
642.5	8939.9
642.694	8761.72
642.887	8995.19
643.08	8878.46
643.273	8632.7
643.467	8782.2
643.66	8640.89
643.853	8540.54
644.046	8702.33
644.239	8526.21
644.432	8753.53
644.626	8388.99
644.819	8358.27
645.012	8454.53
645.205	8298.88
645.398	8333.7
645.591	8388.99
645.784	8192.39
645.977	7979.4
646.17	8130.95
646.363	7965.06
646.556	8036.74
646.749	8051.08
646.942	8008.07
647.135	8028.55
647.328	7899.53
647.521	7864.71
647.714	7610.76
647.907	7803.27
648.099	7731.59
648.292	7637.39
648.485	7762.31
648.678	7612.81
648.871	7645.58
649.064	7479.69
649.256	7508.37
649.449	7481.74
649.642	7393.68
649.835	7227.79
650.027	7350.67
650.22	7203.22
650.413	7192.98
650.605	7190.93
650.798	7174.55
650.991	7170.45
651.183	7156.11
651.376	7190.93
651.568	7172.5
651.761	6812.06
651.954	6979.99
652.146	6988.18
652.339	6996.37
652.531	6918.55
652.724	6713.75
652.916	6883.73
653.109	6863.26
653.301	6650.27
653.494	6680.99
653.686	6560.16
653.879	6459.81
654.071	6670.75
654.263	6566.3
654.456	6662.55
654.648	6529.44
654.84	6349.22
655.033	6435.23
655.225	6365.6
655.417	6175.14
655.61	6365.6
655.802	6324.64
655.994	6074.79
656.186	6177.19
656.379	6044.07
656.571	6220.19
656.763	5994.92
656.955	6093.22
657.148	6019.49
657.34	5986.72
657.532	6023.59
657.724	5970.34
657.916	5994.92
658.108	5767.59
658.3	5806.5
658.492	5833.13
658.684	5869.99
658.876	5824.94
659.068	5775.78
659.26	5685.67
659.452	5577.13
659.644	5613.99
659.836	5673.39
660.028	5577.13
660.22	5452.2
660.412	5288.37
660.604	5339.57
660.796	5398.96
660.988	5403.05
661.18	5452.2
661.372	5413.29
661.563	5288.37
661.755	5278.13
661.947	5323.18
662.139	5255.6
662.331	5362.09
662.522	5276.08
662.714	5241.26
662.906	5091.76
663.097	5153.2
663.289	5118.39
663.481	5169.59
663.673	5095.86
663.864	5032.37
664.056	4913.59
664.247	4991.41
664.439	4829.62
664.631	4942.26
664.822	4962.74
665.014	4702.65
665.205	4841.91
665.397	4843.96
665.588	4819.38
665.78	4762.04
665.971	4698.55
666.163	4778.42
666.354	4673.98
666.546	4596.15
666.737	4721.08
666.929	4614.59
667.12	4776.38
667.311	4499.9
667.503	4620.73
667.694	4669.88
667.885	4526.52
668.077	4628.92
668.268	4504
668.459	4469.18
668.651	4534.71
668.842	4422.08
669.033	4393.4
669.224	4340.16
669.416	4495.8
669.607	4377.02
669.798	4379.07
669.989	4448.7
670.18	4321.73
670.371	4356.54
670.563	4241.86
670.754	4270.53
670.945	4184.51
671.136	4090.31
671.327	4098.5
671.518	4104.64
671.709	4157.89
671.9	4252.1
672.091	4082.11
672.282	4020.67
672.473	4041.15
672.664	3998.15
672.855	3996.1
673.046	4039.11
673.237	4168.13
673.428	4082.11
673.619	3946.95
673.809	4053.44
674	3953.09
674.191	3961.28
674.382	3752.39
674.573	3975.62
674.764	3877.32
674.954	3891.65
675.145	3934.66
675.336	3717.58
675.527	3787.21
675.717	3783.11
675.908	3805.64
676.099	3787.21
676.289	3797.45
676.48	3707.34
676.671	3596.75
676.861	3826.12
677.052	3715.53
677.243	3666.38
677.433	3617.22
677.624	3645.9
677.814	3703.24
678.005	3600.84
678.195	3760.58
678.386	3678.66
678.576	3615.18
678.767	3514.83
678.957	3645.9
679.148	3455.44
679.338	3609.03
679.529	3533.26
679.719	3498.44
679.909	3772.87
680.1	3480.01
680.29	3461.58
680.481	3533.26
680.671	3443.15
680.861	3420.62
681.052	3574.22
681.242	3432.91
681.432	3394
681.622	3320.27
681.813	3461.58
682.003	3310.03
682.193	3420.62
682.383	3377.61
682.573	3295.69
682.764	3342.8
682.954	3303.89
683.144	3264.97
683.334	3369.42
683.524	3457.48
683.714	3299.79
683.904	3285.45
684.094	3424.72
684.284	3353.04
684.474	3215.82
684.664	3379.66
684.854	3207.63
685.044	3191.25
685.234	3174.86
685.424	3183.06
685.614	3217.87
685.804	3191.25
685.994	3238.35
686.184	3195.34
686.374	3086.8
686.564	3217.87
686.753	3043.79
686.943	3133.9
687.133	3197.39
687.323	3099.09
687.513	3271.12
687.702	3054.03
687.892	2984.4
688.082	3160.53
688.272	3086.8
688.461	3105.23
688.651	2955.73
688.841	3119.57
689.03	2922.96
689.22	2996.69
689.41	2855.38
689.599	2947.54
689.789	2990.55
689.979	2937.3
690.168	2839
690.358	2845.14
690.547	2978.26
690.737	2812.37
690.926	2767.32
691.116	2884.05
691.305	2845.14
691.495	2691.54
691.684	2929.11
691.874	2857.43
692.063	2898.39
692.252	2699.73
692.442	2689.49
692.631	2748.89
692.82	2879.96
693.01	2789.85
693.199	2707.93
693.388	2660.82
693.578	2669.02
693.767	2626.01
693.956	2699.73
694.146	2703.83
694.335	2605.53
694.524	2703.83
694.713	2617.82
694.902	2769.37
695.092	2699.73
695.281	2634.2
695.47	2705.88
695.659	2556.38
695.848	2580.95
696.037	2593.24
696.226	2560.47
696.415	2460.12
696.604	2652.63
696.793	2621.91
696.982	2599.38
697.171	2595.29
697.36	2546.14
697.549	2519.51
697.738	2605.53
697.927	2519.51
698.116	2478.55
698.305	2466.27
698.494	2570.71
698.683	2587.1
698.872	2533.85
699.061	2439.64
699.25	2337.24
699.438	2593.24
699.627	2591.19
699.816	2486.75
700.005	2363.87
700.193	2441.69
700.382	2433.5
700.571	2576.86
700.76	2535.9
700.948	2501.08
701.137	2413.02
701.326	2458.07
701.514	2445.79
701.703	2468.31
701.892	2439.64
702.08	2615.77
702.269	2552.28
702.457	2441.69
702.646	2410.97
702.834	2451.93
703.023	2466.27
703.212	2556.38
703.4	2456.03
703.589	2402.78
703.777	2478.55
703.965	2343.39
704.154	2388.44
704.342	2281.95
704.531	2361.82
704.719	2423.26
704.907	2525.66
705.096	2355.68
705.284	2537.95
705.472	2372.06
705.661	2292.19
705.849	2451.93
706.037	2548.19
706.226	2415.07
706.414	2273.76
706.602	2378.2
706.79	2390.49
706.979	2429.4
707.167	2425.31
707.355	2380.25
707.543	2466.27
707.731	2400.73
707.919	2386.4
708.107	2359.77
708.296	2388.44
708.484	2316.76
708.672	2367.96
708.86	2466.27
709.048	2341.34
709.236	2290.14
709.424	2306.52
709.612	2400.73
709.8	2376.16
709.988	2372.06
710.176	2314.72
710.364	2378.2
710.551	2349.53
710.739	2413.02
710.927	2279.9
711.115	2357.72
711.303	2437.59
711.491	2316.76
711.679	2327
711.866	2255.33
712.054	2320.86
712.242	2265.57
712.43	2359.77
712.617	2240.99
712.805	2294.24
712.993	2269.66
713.181	2378.2
713.368	2324.96
713.556	2290.14
713.744	2261.47
713.931	2367.96
714.119	2355.68
714.306	2425.31
714.494	2238.94
714.682	2339.29
714.869	2200.03
715.057	2433.5
715.244	2197.98
715.432	2267.61
715.619	2290.14
715.807	2261.47
715.994	2306.52
716.182	2189.79
716.369	2265.57
716.556	2378.2
716.744	2224.61
716.931	2310.62
717.119	2333.15
717.306	2284
717.493	2386.4
717.681	2226.65
717.868	2179.55
718.055	2279.9
718.242	2236.89
718.43	2314.72
718.617	2263.52
718.804	2253.28
718.991	2240.99
719.179	2288.09
719.366	2300.38
719.553	2265.57
719.74	2179.55
719.927	2197.98
720.114	2349.53
720.301	2183.65
720.488	2228.7
720.676	2154.98
720.863	2255.33
721.05	2134.5
721.237	2202.08
721.424	2193.89
721.611	2277.85
721.798	2255.33
721.985	2136.54
722.172	2257.37
722.358	2249.18
722.545	2144.74
722.732	2204.13
722.919	2216.41
723.106	2165.21
723.293	2257.37
723.48	2214.37
723.667	2251.23
723.853	2175.45
724.04	2171.36
724.227	2154.98
724.414	2200.03
724.6	2286.05
724.787	2142.69
724.974	2204.13
725.161	2150.88
725.347	1948.13
725.534	2177.5
725.72	2277.85
725.907	2197.98
726.094	2146.78
726.28	2132.45
726.467	2167.26
726.653	2122.21
726.84	2243.04
727.027	2279.9
727.213	2099.68
727.4	2136.54
727.586	2097.63
727.773	2148.83
727.959	2154.98
728.145	2185.69
728.332	2142.69
728.518	2062.82
728.705	2169.31
728.891	2247.13
729.077	2134.5
729.264	2161.12
729.45	2060.77
729.636	2134.5
729.823	2138.59
730.009	2060.77
730.195	2109.92
730.382	2136.54
730.568	2146.78
730.754	2212.32
730.94	2064.86
731.126	2185.69
731.313	2179.55
731.499	2050.53
731.685	2093.54
731.871	2138.59
732.057	2114.02
732.243	2099.68
732.429	2073.06
732.615	2208.22
732.801	2095.58
732.987	1987.04
733.173	2077.15
733.359	2138.59
733.545	2081.25
733.731	1980.9
733.917	2089.44
734.103	2103.78
734.289	2120.16
734.475	1974.75
734.661	2132.45
734.847	2048.48
735.033	2132.45
735.219	2167.26
735.404	2003.43
735.59	2101.73
735.776	2042.34
735.962	2118.11
736.148	2050.53
736.333	2042.34
736.519	2044.38
736.705	2062.82
736.89	1972.71
737.076	2087.39
737.262	1997.28
737.447	1978.85
737.633	2011.62
737.819	2071.01
738.004	2146.78
738.19	2050.53
738.375	2015.71
738.561	1978.85
738.747	2013.67
738.932	1886.69
739.118	1993.19
739.303	2023.91
739.489	2042.34
739.674	1962.47
739.859	1952.23
740.045	1966.56
740.23	1952.23
740.416	1872.36
740.601	1917.41
740.786	1960.42
740.972	1874.4
741.157	1917.41
741.342	1901.03
741.528	1819.11
741.713	1929.7
741.898	1917.41
742.084	1913.31
742.269	1915.36
742.454	1933.79
742.639	1851.88
742.824	1800.68
743.01	1913.31
743.195	1878.5
743.38	1825.25
743.565	1812.96
743.75	1772
743.935	1864.16
744.12	1712.61
744.305	1778.15
744.49	1714.66
744.675	1776.1
744.86	1747.43
745.045	1806.82
745.23	1812.96
745.415	1860.07
745.6	1784.29
745.785	1757.67
745.97	1804.77
746.155	1843.68
746.34	1855.97
746.525	1649.13
746.71	1718.76
746.895	1722.85
747.079	1776.1
747.264	1671.65
747.449	1642.98
747.634	1671.65
747.819	1636.84
748.003	1663.46
748.188	1640.93
748.373	1745.38
748.557	1679.85
748.742	1563.11
748.927	1612.26
749.111	1632.74
749.296	1546.73
749.481	1624.55
749.665	1522.15
749.85	1604.07
750.034	1448.43
750.219	1597.93
750.404	1516.01
750.588	1456.62
750.773	1442.28
750.957	1645.03
751.141	1481.19
751.326	1518.06
751.51	1479.15
751.695	1473
751.879	1397.23
752.064	1505.77
752.248	1487.34
752.432	1495.53
752.617	1335.79
752.801	1360.36
752.985	1450.47
753.17	1483.24
753.354	1454.57
753.538	1323.5
753.722	1417.71
753.907	1399.27
754.091	1227.25
754.275	1303.02
754.459	1303.02
754.643	1309.16
754.828	1243.63
755.012	1233.39
755.196	1315.31
755.38	1233.39
755.564	1303.02
755.748	1257.96
755.932	1315.31
756.116	1227.25
756.3	1247.72
756.484	1249.77
756.668	1233.39
756.852	1102.32
757.036	1233.39
757.22	1145.33
757.404	1171.95
757.588	1106.42
757.772	1149.42
757.956	1194.48
758.14	1255.92
758.323	1110.51
758.507	1153.52
758.691	1126.89
758.875	1159.66
759.059	1067.5
759.242	1004.02
759.426	1110.51
759.61	1133.04
759.794	1010.16
759.977	1106.42
760.161	1174
760.345	1157.61
760.528	1055.22
760.712	1057.26
760.895	1055.22
761.079	1059.31
761.263	1049.07
761.446	1106.42
761.63	1022.45
761.813	946.67
761.997	1008.11
762.18	1008.11
762.364	1006.06
762.547	1049.07
762.731	981.49
762.914	995.82
763.098	958.96
763.281	1001.97
763.464	1057.26
763.648	1106.42
763.831	909.81
764.015	913.91
764.198	901.62
764.381	852.47
764.564	991.73
764.748	895.47
764.931	901.62
765.114	936.43
765.297	864.75
765.481	899.57
765.664	905.71
765.847	838.13
766.03	872.95
766.213	965.11
766.397	920.05
766.58	893.43
766.763	979.44
766.946	909.81
767.129	954.87
767.312	844.28
767.495	946.67
767.678	877.04
767.861	903.67
768.044	852.47
768.227	877.04
768.41	915.95
768.593	946.67
768.776	922.1
768.959	907.76
769.142	913.91
769.324	836.08
769.507	881.14
769.69	786.93
769.873	782.84
770.056	860.66
770.239	879.09
770.421	897.52
770.604	897.52
770.787	776.69
770.97	840.18
771.152	786.93
771.335	852.47
771.518	780.79
771.7	799.22
771.883	745.97
772.066	766.45
772.248	739.83
772.431	805.36
772.613	705.01
772.796	741.88
772.978	817.65
773.161	795.12
773.343	684.53
773.526	707.06
773.708	678.39
773.891	733.68
774.073	762.36
774.256	821.75
774.438	713.21
774.621	674.29
774.803	680.44
774.985	627.19
775.168	750.07
775.35	619
775.532	743.92
775.715	631.29
775.897	799.22
776.079	684.53
776.261	733.68
776.444	619
776.626	645.62
776.808	623.09
776.99	621.05
777.173	555.51
777.355	610.81
777.537	739.83
777.719	635.38
777.901	612.85
778.083	588.28
778.265	619
778.447	659.96
778.629	625.14
778.811	553.46
778.993	606.71
779.175	653.81
779.357	524.79
779.539	606.71
779.721	602.61
779.903	610.81
780.085	502.26
780.267	571.9
780.449	596.47
780.631	592.37
780.812	588.28
780.994	518.65
781.176	543.22
781.358	578.04
781.54	504.31
781.721	496.12
781.903	567.8
782.085	416.25
782.267	483.83
782.448	449.02
782.63	578.04
782.812	479.74
782.993	528.89
783.175	549.37
783.357	422.39
783.538	532.98
783.72	528.89
783.901	455.16
784.083	461.3
784.264	485.88
784.446	367.1
784.627	440.83
784.809	434.68
784.99	487.93
785.172	301.56
785.353	575.99
785.535	438.78
785.716	416.25
785.897	393.72
786.079	424.44
786.26	326.14
786.441	446.97
786.623	422.39
786.804	326.14
786.985	496.12
787.167	475.64
787.348	463.35
787.529	432.63
787.71	459.26
787.891	395.77
788.073	373.24
788.254	385.53
788.435	420.35
788.616	348.67
788.797	426.49
788.978	422.39
789.159	356.86
789.34	324.09
789.522	340.47
789.703	430.59
789.884	363
790.065	373.24
790.246	406.01
790.427	328.19
790.607	389.63
790.788	350.71
790.969	311.8
791.15	356.86
791.331	393.72
791.512	399.87
791.693	342.52
791.874	315.9
792.054	395.77
792.235	334.33
792.416	336.38
792.597	326.14
792.778	356.86
792.958	340.47
793.139	332.28
793.32	309.76
793.5	305.66
793.681	342.52
793.862	283.13
794.042	360.95
794.223	233.98
794.404	301.56
794.584	238.08
794.765	268.8
794.945	295.42
795.126	317.95
795.306	276.99
795.487	324.09
795.667	303.61
795.848	274.94
796.028	223.74
796.209	186.88
796.389	313.85
796.57	342.52
796.75	258.56
796.93	231.93
797.111	250.36
797.291	285.18
797.471	322.04
797.652	260.6
797.832	299.52
798.012	293.37
798.192	223.74
798.373	248.32
798.553	250.36
798.733	336.38
798.913	256.51
799.093	301.56
799.274	279.04
799.454	283.13
799.634	248.32
799.814	260.6
799.994	250.36
800.174	221.69
800.354	219.64
800.534	205.31
800.714	229.88
800.894	209.4
801.074	133.63
801.254	227.84
801.434	262.65
801.614	182.78
801.794	225.79
801.974	629.24
802.154	227.84
802.334	143.87
802.514	229.88
802.693	170.49
802.873	184.83
803.053	217.6
803.233	215.55
803.413	205.31
803.592	207.36
803.772	188.93
803.952	190.97
804.131	141.82
804.311	166.4
804.491	164.35
804.67	188.93
804.85	156.16
805.03	182.78
805.209	328.19
805.389	119.29
805.568	250.36
805.748	193.02
805.928	217.6
806.107	231.93
806.287	195.07
806.466	172.54
806.646	197.12
806.825	156.16
807.004	158.21
807.184	238.08
807.363	190.97
807.543	158.21
807.722	227.84
807.901	195.07
808.081	152.06
808.26	129.53
808.439	145.92
808.619	221.69
808.798	246.27
808.977	141.82
809.156	223.74
809.336	147.97
809.515	147.97
809.694	123.39
809.873	152.06
810.052	154.11
810.231	197.12
810.411	147.97
810.59	107.01
810.769	162.3
810.948	160.25
811.127	113.15
811.306	154.11
811.485	195.07
811.664	160.25
811.843	182.78
812.022	156.16
812.201	152.06
812.38	121.34
812.559	90.62
812.737	182.78
812.916	107.01
813.095	121.34
813.274	98.81
813.453	145.92
813.632	51.71
813.811	248.32
813.989	127.49
814.168	100.86
814.347	92.67
814.526	145.92
814.704	160.25
814.883	182.78
815.062	80.38
815.24	152.06
815.419	166.4
815.598	133.63
815.776	117.25
815.955	180.73
816.133	70.14
816.312	156.16
816.49	102.91
816.669	174.59
816.847	117.25
817.026	107.01
817.204	135.68
817.383	107.01
817.561	104.96
817.74	119.29
817.918	160.25
818.097	203.26
818.275	166.4
818.453	145.92
818.632	182.78
818.81	84.48
818.988	137.73
819.167	104.96
819.345	70.14
819.523	143.87
819.701	127.49
819.879	160.25
820.058	104.96
820.236	82.43
820.414	45.57
820.592	141.82
820.77	137.73
820.948	145.92
821.127	57.86
821.305	119.29
821.483	117.25
821.661	90.62
821.839	121.34
822.017	111.1
822.195	131.58
822.373	135.68
822.551	145.92
822.729	139.77
822.907	143.87
823.085	86.53
823.262	137.73
823.44	117.25
823.618	45.57
823.796	113.15
823.974	25.09
824.152	49.66
824.329	96.77
824.507	72.19
824.685	152.06
824.863	98.81
825.04	82.43
825.218	96.77
825.396	80.38
825.574	137.73
825.751	57.86
825.929	96.77
826.107	29.18
826.284	119.29
826.462	123.39
826.639	33.28
826.817	70.14
826.994	88.57
827.172	64
827.349	119.29
827.527	123.39
827.704	57.86
827.882	98.81
828.059	107.01
828.237	61.95
828.414	115.2
828.591	33.28
828.769	94.72
828.946	82.43
829.124	64
829.301	135.68
829.478	137.73
829.655	123.39
829.833	59.9
830.01	86.53
830.187	88.57
830.364	39.42
830.542	49.66
830.719	76.29
830.896	76.29
831.073	20.99
831.25	123.39
831.427	78.33
831.604	10.75
831.782	92.67
831.959	115.2
832.136	59.9
832.313	145.92
832.49	61.95
832.667	111.1
832.844	47.62
833.021	125.44
833.198	68.09
833.374	57.86
833.551	135.68
833.728	117.25
833.905	53.76
834.082	96.77
834.259	18.94
834.436	84.48
834.612	-40.45
834.789	156.16
834.966	82.43
835.143	57.86
835.319	80.38
835.496	90.62
835.673	72.19
835.85	80.38
836.026	104.96
836.203	16.9
836.38	66.05
836.556	72.19
836.733	111.1
836.909	59.9
837.086	31.23
837.262	29.18
837.439	-15.87
837.616	59.9
837.792	55.81
837.968	68.09
838.145	55.81
838.321	53.76
838.498	92.67
838.674	14.85
838.851	53.76
839.027	115.2
839.203	107.01
839.38	72.19
839.556	23.04
839.732	76.29
839.909	45.57
840.085	16.9
840.261	27.14
840.437	8.7
840.614	35.33
840.79	82.43
840.966	29.18
841.142	117.25
841.318	2.56
841.494	33.28
841.671	147.97
841.847	-26.11
842.023	41.47
842.199	98.81
842.375	160.25
842.551	-9.73
842.727	-15.87
842.903	57.86
843.079	-11.78
843.255	18.94
843.431	20.99
843.607	39.42
843.783	-32.26
843.959	16.9
844.134	27.14
844.31	78.33
844.486	29.18
844.662	33.28
844.838	4.61
845.013	25.09
845.189	86.53
845.365	10.75
845.541	31.23
845.716	45.57
845.892	80.38
846.068	57.86
846.244	68.09
846.419	72.19
846.595	68.09
846.77	51.71
846.946	35.33
847.122	-77.31
847.297	18.94
847.473	35.33
847.648	37.38
847.824	53.76
847.999	6.66
848.175	61.95
848.35	86.53
848.526	59.9
848.701	102.91
848.876	45.57
849.052	74.24
849.227	31.23
849.403	61.95
849.578	-11.78
849.753	61.95
849.929	31.23
850.104	-36.35
850.279	14.85
850.454	43.52
850.63	-9.73
850.805	8.7
850.98	61.95
851.155	61.95
851.33	-5.63
851.505	-28.16
851.681	66.05
851.856	25.09
852.031	82.43
852.206	94.72
852.381	4.61
852.556	25.09
852.731	31.23
852.906	4.61
853.081	23.04
853.256	72.19
853.431	16.9
853.606	14.85
853.781	-42.5
853.956	45.57
854.131	25.09
854.305	6.66
854.48	35.33
854.655	6.66
854.83	39.42
855.005	10.75
855.18	-13.82
855.354	-7.68
855.529	33.28
855.704	-9.73
855.879	43.52
856.053	33.28
856.228	76.29
856.403	47.62
856.577	6.66
856.752	23.04
856.926	0.51
857.101	6.66
857.276	47.62
857.45	72.19
857.625	64
857.799	39.42
857.974	76.29
858.148	0.51
858.323	72.19
858.497	25.09
858.672	29.18
858.846	-65.02
859.02	10.75
859.195	-15.87
859.369	39.42
859.543	18.94
859.718	61.95
859.892	-34.3
860.066	23.04
860.241	-36.35
860.415	-32.26
860.589	64
860.763	74.24
860.938	70.14
861.112	61.95
861.286	-3.58
861.46	0.51
861.634	31.23
861.808	23.04
861.982	8.7
862.157	4.61
862.331	66.05
862.505	4.61
862.679	72.19
862.853	49.66
863.027	27.14
863.201	27.14
863.375	8.7
863.549	8.7
863.722	43.52
863.896	121.34
864.07	23.04
864.244	49.66
864.418	64
864.592	23.04
864.766	23.04
864.939	47.62
865.113	29.18
865.287	74.24
865.461	35.33
865.634	23.04
865.808	33.28
865.982	47.62
866.156	-38.4
866.329	-40.45
866.503	12.8
866.676	66.05
866.85	4.61
867.024	55.81
867.197	-24.06
867.371	64
867.544	0.51
867.718	-1.54
867.891	45.57
868.065	-34.3
868.238	86.53
868.412	57.86
868.585	14.85
868.759	35.33
868.932	86.53
869.105	-46.59
869.279	25.09
869.452	49.66
869.625	-24.06
869.799	57.86
869.972	2.56
870.145	-65.02
870.319	4.61
870.492	57.86
870.665	-36.35
870.838	53.76
871.011	-7.68
871.185	20.99
871.358	-3.58
871.531	-34.3
871.704	-38.4
871.877	-3.58
872.05	-38.4
872.223	35.33
872.396	-30.21
872.569	-1.54
872.742	-9.73
872.915	39.42
873.088	2.56
873.261	29.18
873.434	61.95
873.607	18.94
873.78	18.94
873.953	-3.58
874.126	29.18
874.299	74.24
874.471	-52.74
874.644	18.94
874.817	2.56
874.99	43.52
875.163	-40.45
875.335	-24.06
875.508	-11.78
875.681	45.57
875.853	-15.87
876.026	20.99
876.199	55.81
876.371	12.8
876.544	12.8
876.717	-11.78
876.889	12.8
877.062	66.05
877.234	-7.68
877.407	27.14
877.579	-17.92
877.752	-7.68
877.924	35.33
878.097	41.47
878.269	12.8
878.442	-11.78
878.614	-38.4
878.786	31.23
878.959	45.57
879.131	43.52
879.303	4.61
879.476	-36.35
879.648	29.18
879.82	-7.68
879.993	2.56
880.165	-13.82
880.337	6.66
880.509	-46.59
880.681	14.85
880.854	47.62
881.026	-19.97
881.198	18.94
881.37	0.51
881.542	29.18
881.714	29.18
881.886	16.9
882.058	-1.54
882.23	-13.82
882.402	2.56
882.574	-5.63
882.746	-15.87
882.918	-1.54
883.09	-50.69
883.262	37.38
883.434	45.57
883.606	4.61
883.778	20.99
883.95	29.18
884.122	66.05
884.293	23.04
884.465	14.85
884.637	51.71
884.809	-24.06
884.98	-24.06
885.152	-17.92
885.324	8.7
885.496	-5.63
885.667	-34.3
885.839	27.14
886.011	-1.54
886.182	29.18
886.354	0.51
886.525	41.47
886.697	10.75
886.869	35.33
887.04	53.76
887.212	59.9
887.383	43.52
887.555	-1.54
887.726	29.18
887.897	33.28
888.069	20.99
888.24	66.05
888.412	-13.82
888.583	2.56
888.754	18.94
888.926	-73.21
889.097	61.95
889.268	-11.78
889.44	8.7
889.611	-60.93
889.782	-46.59
889.953	-11.78
890.125	31.23
890.296	-5.63
890.467	-1.54
890.638	2.56
890.809	37.38
890.98	27.14
891.151	6.66
891.323	39.42
891.494	-19.97
891.665	-15.87
891.836	-19.97
892.007	25.09
892.178	29.18
892.349	-69.12
892.52	-36.35
892.691	29.18
892.862	25.09
893.032	-7.68
893.203	2.56
893.374	-9.73
893.545	29.18
893.716	12.8
893.887	-44.54
894.057	-1.54
894.228	25.09
894.399	39.42
894.57	45.57
894.74	0.51
894.911	-52.74
895.082	-5.63
895.253	-30.21
895.423	-3.58
895.594	-26.11
895.764	-28.16
895.935	53.76
896.106	8.7
896.276	61.95
896.447	-71.17
896.617	-73.21
896.788	-67.07
896.958	25.09
897.129	-77.31
897.299	-15.87
897.47	-32.26
897.64	-15.87
897.81	-13.82
897.981	6.66
898.151	-19.97
898.322	8.7
898.492	39.42
898.662	0.51
898.832	-44.54
899.003	-15.87
899.173	-24.06
899.343	6.66
899.513	16.9
