Data from USB4F104151__34__11-05-15-971.txt Node

Date: Wed Mar 12 11:05:15 EDT 2025
User: louis
Spectrometer: USB4F10415
Trigger mode: 4
Integration Time (sec): 2.000000E-2
Scans to average: 1
Electric dark correction enabled: true
Nonlinearity correction enabled: false
Boxcar width: 0
XAxis mode: Wavelengths
Number of Pixels in Spectrum: 3648
>>>>>Begin Spectral Data<<<<<
178.204	-40.45
178.424	-40.45
178.644	-40.45
178.864	-118.27
179.084	-91.65
179.304	-34.3
179.524	6.66
179.744	-34.3
179.964	12.8
180.184	14.85
180.404	25.09
180.624	20.99
180.844	-48.64
181.064	0.51
181.283	57.86
181.503	-11.78
181.723	-9.73
181.943	-9.73
182.163	6.66
182.383	-3.58
182.602	25.09
182.822	0.51
183.042	45.57
183.262	-69.12
183.482	-13.82
183.701	14.85
183.921	-5.63
184.141	25.09
184.361	96.77
184.58	-1.54
184.8	-5.63
185.02	4.61
185.239	12.8
185.459	8.7
185.679	68.09
185.898	-48.64
186.118	25.09
186.338	18.94
186.557	-5.63
186.777	-9.73
186.997	14.85
187.216	35.33
187.436	-40.45
187.655	47.62
187.875	-9.73
188.095	37.38
188.314	33.28
188.534	53.76
188.753	14.85
188.973	51.71
189.192	18.94
189.412	-13.82
189.631	-30.21
189.851	61.95
190.07	20.99
190.29	18.94
190.509	-13.82
190.729	10.75
190.948	41.47
191.168	49.66
191.387	-13.82
191.607	-52.74
191.826	29.18
192.045	-65.02
192.265	47.62
192.484	-15.87
192.704	37.38
192.923	-24.06
193.142	23.04
193.362	41.47
193.581	82.43
193.8	12.8
194.02	31.23
194.239	6.66
194.458	90.62
194.678	-62.98
194.897	41.47
195.116	12.8
195.335	-30.21
195.555	-1.54
195.774	-65.02
195.993	10.75
196.212	20.99
196.432	49.66
196.651	-5.63
196.87	-32.26
197.089	100.86
197.308	4.61
197.528	-7.68
197.747	47.62
197.966	-114.17
198.185	8.7
198.404	25.09
198.623	6.66
198.842	-38.4
199.062	-1.54
199.281	-32.26
199.5	20.99
199.719	27.14
199.938	55.81
200.157	86.53
200.376	8.7
200.595	14.85
200.814	-5.63
201.033	12.8
201.252	66.05
201.471	43.52
201.69	0.51
201.909	74.24
202.128	2.56
202.347	-13.82
202.566	4.61
202.785	-15.87
203.004	-42.5
203.223	117.25
203.442	-42.5
203.661	-7.68
203.879	68.09
204.098	12.8
204.317	-5.63
204.536	-9.73
204.755	-46.59
204.974	59.9
205.193	39.42
205.411	59.9
205.63	-52.74
205.849	-32.26
206.068	23.04
206.287	72.19
206.505	-44.54
206.724	-26.11
206.943	-34.3
207.162	-17.92
207.381	-65.02
207.599	-9.73
207.818	-50.69
208.037	-5.63
208.255	72.19
208.474	20.99
208.693	64
208.911	14.85
209.13	25.09
209.349	33.28
209.567	-48.64
209.786	-9.73
210.005	-1.54
210.223	6.66
210.442	14.85
210.661	90.62
210.879	0.51
211.098	-5.63
211.316	96.77
211.535	92.67
211.753	-13.82
211.972	-15.87
212.191	-19.97
212.409	92.67
212.628	-26.11
212.846	-19.97
213.065	41.47
213.283	57.86
213.502	33.28
213.72	2.56
213.938	-54.78
214.157	-13.82
214.375	14.85
214.594	53.76
214.812	88.57
215.031	4.61
215.249	37.38
215.467	33.28
215.686	6.66
215.904	-1.54
216.122	39.42
216.341	94.72
216.559	27.14
216.778	33.28
216.996	51.71
217.214	-1.54
217.432	49.66
217.651	43.52
217.869	-30.21
218.087	4.61
218.306	-24.06
218.524	-1.54
218.742	6.66
218.96	-9.73
219.179	39.42
219.397	-3.58
219.615	43.52
219.833	-9.73
220.051	29.18
220.27	55.81
220.488	18.94
220.706	-52.74
220.924	-22.02
221.142	2.56
221.36	-15.87
221.578	35.33
221.796	-11.78
222.015	49.66
222.233	-30.21
222.451	53.76
222.669	47.62
222.887	31.23
223.105	127.49
223.323	-3.58
223.541	-5.63
223.759	-26.11
223.977	-24.06
224.195	20.99
224.413	-26.11
224.631	-9.73
224.849	23.04
225.067	64
225.285	-17.92
225.503	96.77
225.721	27.14
225.939	43.52
226.157	84.48
226.375	129.53
226.592	23.04
226.81	-34.3
227.028	14.85
227.246	59.9
227.464	64
227.682	29.18
227.9	33.28
228.117	33.28
228.335	76.29
228.553	-9.73
228.771	-46.59
228.989	27.14
229.206	39.42
229.424	10.75
229.642	16.9
229.86	-42.5
230.077	20.99
230.295	20.99
230.513	45.57
230.731	-9.73
230.948	14.85
231.166	4.61
231.384	-17.92
231.601	37.38
231.819	33.28
232.037	0.51
232.254	16.9
232.472	12.8
232.689	27.14
232.907	86.53
233.125	59.9
233.342	39.42
233.56	18.94
233.777	-19.97
233.995	16.9
234.213	10.75
234.43	33.28
234.648	47.62
234.865	43.52
235.083	12.8
235.3	2.56
235.518	49.66
235.735	109.05
235.953	115.2
236.17	-36.35
236.388	14.85
236.605	-17.92
236.822	82.43
237.04	39.42
237.257	92.67
237.475	23.04
237.692	-1.54
237.909	47.62
238.127	47.62
238.344	25.09
238.562	-17.92
238.779	-40.45
238.996	-46.59
239.214	-17.92
239.431	-9.73
239.648	-13.82
239.865	64
240.083	-3.58
240.3	14.85
240.517	8.7
240.735	59.9
240.952	74.24
241.169	-11.78
241.386	31.23
241.603	68.09
241.821	90.62
242.038	16.9
242.255	10.75
242.472	-13.82
242.689	6.66
242.907	0.51
243.124	2.56
243.341	29.18
243.558	-24.06
243.775	55.81
243.992	-58.88
244.209	14.85
244.426	10.75
244.643	-11.78
244.86	78.33
245.078	-32.26
245.295	78.33
245.512	51.71
245.729	49.66
245.946	37.38
246.163	59.9
246.38	18.94
246.597	-46.59
246.814	0.51
247.031	14.85
247.248	-17.92
247.464	-9.73
247.681	43.52
247.898	10.75
248.115	0.51
248.332	18.94
248.549	16.9
248.766	39.42
248.983	23.04
249.2	16.9
249.417	55.81
249.633	55.81
249.85	14.85
250.067	25.09
250.284	6.66
250.501	-13.82
250.717	29.18
250.934	-54.78
251.151	33.28
251.368	4.61
251.585	47.62
251.801	-7.68
252.018	27.14
252.235	45.57
252.451	-34.3
252.668	6.66
252.885	29.18
253.102	84.48
253.318	72.19
253.535	6.66
253.752	10.75
253.968	-81.41
254.185	-9.73
254.401	-11.78
254.618	53.76
254.835	-3.58
255.051	49.66
255.268	-11.78
255.484	0.51
255.701	-17.92
255.917	41.47
256.134	23.04
256.351	-13.82
256.567	-56.83
256.784	14.85
257	-22.02
257.217	68.09
257.433	-60.93
257.65	-13.82
257.866	35.33
258.082	-42.5
258.299	45.57
258.515	31.23
258.732	-3.58
258.948	-28.16
259.165	0.51
259.381	10.75
259.597	18.94
259.814	70.14
260.03	-50.69
260.246	-22.02
260.463	27.14
260.679	33.28
260.895	14.85
261.112	66.05
261.328	-38.4
261.544	-11.78
261.761	27.14
261.977	-7.68
262.193	23.04
262.409	2.56
262.626	74.24
262.842	41.47
263.058	47.62
263.274	47.62
263.49	14.85
263.707	37.38
263.923	12.8
264.139	20.99
264.355	-34.3
264.571	117.25
264.787	18.94
265.004	37.38
265.22	49.66
265.436	-38.4
265.652	6.66
265.868	92.67
266.084	-11.78
266.3	86.53
266.516	-24.06
266.732	45.57
266.948	27.14
267.164	23.04
267.38	-54.78
267.596	27.14
267.812	18.94
268.028	68.09
268.244	31.23
268.46	-30.21
268.676	8.7
268.892	39.42
269.108	-5.63
269.324	-48.64
269.54	-1.54
269.756	64
269.972	-13.82
270.188	-1.54
270.403	43.52
270.619	43.52
270.835	45.57
271.051	6.66
271.267	-32.26
271.483	98.81
271.698	72.19
271.914	72.19
272.13	18.94
272.346	55.81
272.562	-5.63
272.777	-32.26
272.993	39.42
273.209	35.33
273.425	27.14
273.64	37.38
273.856	-24.06
274.072	-32.26
274.287	-34.3
274.503	2.56
274.719	12.8
274.934	-3.58
275.15	-40.45
275.366	20.99
275.581	-34.3
275.797	4.61
276.012	-3.58
276.228	4.61
276.444	45.57
276.659	53.76
276.875	41.47
277.09	-22.02
277.306	-22.02
277.521	35.33
277.737	31.23
277.952	6.66
278.168	0.51
278.383	12.8
278.599	-17.92
278.814	57.86
279.03	16.9
279.245	41.47
279.461	31.23
279.676	102.91
279.892	-60.93
280.107	-1.54
280.322	18.94
280.538	59.9
280.753	4.61
280.969	8.7
281.184	33.28
281.399	39.42
281.615	-7.68
281.83	45.57
282.045	14.85
282.26	-24.06
282.476	20.99
282.691	74.24
282.906	76.29
283.122	88.57
283.337	-17.92
283.552	-9.73
283.767	-22.02
283.983	35.33
284.198	-13.82
284.413	43.52
284.628	64
284.843	8.7
285.058	12.8
285.274	-26.11
285.489	2.56
285.704	27.14
285.919	-24.06
286.134	-15.87
286.349	-13.82
286.564	25.09
286.779	43.52
286.995	43.52
287.21	6.66
287.425	-30.21
287.64	-17.92
287.855	80.38
288.07	-40.45
288.285	55.81
288.5	61.95
288.715	33.28
288.93	88.57
289.145	68.09
289.36	68.09
289.575	-30.21
289.79	14.85
290.004	76.29
290.219	72.19
290.434	-19.97
290.649	2.56
290.864	39.42
291.079	27.14
291.294	4.61
291.509	0.51
291.724	-34.3
291.938	72.19
292.153	55.81
292.368	43.52
292.583	-1.54
292.798	41.47
293.012	29.18
293.227	-9.73
293.442	35.33
293.657	20.99
293.871	45.57
294.086	-32.26
294.301	39.42
294.516	-34.3
294.73	57.86
294.945	-73.21
295.16	16.9
295.374	76.29
295.589	23.04
295.804	0.51
296.018	39.42
296.233	18.94
296.447	0.51
296.662	-24.06
296.877	64
297.091	76.29
297.306	4.61
297.52	29.18
297.735	98.81
297.949	16.9
298.164	25.09
298.378	20.99
298.593	35.33
298.807	2.56
299.022	14.85
299.236	18.94
299.451	55.81
299.665	-9.73
299.88	-15.87
300.094	6.66
300.309	84.48
300.523	64
300.737	16.9
300.952	-13.82
301.166	2.56
301.381	-15.87
301.595	-24.06
301.809	4.61
302.024	8.7
302.238	55.81
302.452	113.15
302.667	14.85
302.881	31.23
303.095	47.62
303.309	43.52
303.524	31.23
303.738	-9.73
303.952	-1.54
304.166	82.43
304.381	-32.26
304.595	8.7
304.809	25.09
305.023	12.8
305.237	-9.73
305.452	6.66
305.666	37.38
305.88	-36.35
306.094	27.14
306.308	-32.26
306.522	-9.73
306.736	-46.59
306.95	23.04
307.164	-32.26
307.379	-24.06
307.593	4.61
307.807	-28.16
308.021	102.91
308.235	76.29
308.449	12.8
308.663	18.94
308.877	68.09
309.091	-3.58
309.305	18.94
309.519	-44.54
309.733	-11.78
309.947	35.33
310.161	123.39
310.374	43.52
310.588	49.66
310.802	57.86
311.016	82.43
311.23	78.33
311.444	10.75
311.658	-7.68
311.872	-22.02
312.085	53.76
312.299	8.7
312.513	20.99
312.727	47.62
312.941	2.56
313.154	14.85
313.368	72.19
313.582	29.18
313.796	0.51
314.009	12.8
314.223	27.14
314.437	53.76
314.651	-42.5
314.864	-38.4
315.078	-28.16
315.292	68.09
315.505	29.18
315.719	53.76
315.933	20.99
316.146	-13.82
316.36	-17.92
316.573	10.75
316.787	43.52
317.001	98.81
317.214	-24.06
317.428	20.99
317.641	-1.54
317.855	39.42
318.068	4.61
318.282	37.38
318.495	98.81
318.709	82.43
318.922	20.99
319.136	86.53
319.349	84.48
319.563	39.42
319.776	-9.73
319.99	55.81
320.203	100.86
320.417	27.14
320.63	-54.78
320.843	41.47
321.057	-9.73
321.27	18.94
321.483	-3.58
321.697	88.57
321.91	-11.78
322.124	109.05
322.337	-5.63
322.55	-1.54
322.763	33.28
322.977	33.28
323.19	-42.5
323.403	6.66
323.617	47.62
323.83	12.8
324.043	16.9
324.256	25.09
324.469	-13.82
324.683	-38.4
324.896	6.66
325.109	4.61
325.322	-34.3
325.535	53.76
325.748	39.42
325.962	-26.11
326.175	55.81
326.388	-19.97
326.601	-15.87
326.814	23.04
327.027	41.47
327.24	117.25
327.453	10.75
327.666	-11.78
327.879	12.8
328.092	100.86
328.305	-9.73
328.518	59.9
328.731	86.53
328.944	47.62
329.157	41.47
329.37	49.66
329.583	-9.73
329.796	16.9
330.009	14.85
330.222	66.05
330.435	64
330.648	41.47
330.861	-24.06
331.073	64
331.286	25.09
331.499	8.7
331.712	27.14
331.925	64
332.138	43.52
332.35	2.56
332.563	55.81
332.776	12.8
332.989	47.62
333.202	51.71
333.414	45.57
333.627	33.28
333.84	-9.73
334.053	16.9
334.265	-15.87
334.478	20.99
334.691	-3.58
334.903	64
335.116	-9.73
335.329	18.94
335.541	8.7
335.754	92.67
335.966	-19.97
336.179	27.14
336.392	-3.58
336.604	84.48
336.817	35.33
337.029	-7.68
337.242	18.94
337.454	33.28
337.667	-26.11
337.88	92.67
338.092	51.71
338.305	-32.26
338.517	47.62
338.729	-1.54
338.942	-3.58
339.154	61.95
339.367	8.7
339.579	61.95
339.792	-34.3
340.004	-69.12
340.217	29.18
340.429	4.61
340.641	37.38
340.854	59.9
341.066	-30.21
341.278	94.72
341.491	23.04
341.703	-26.11
341.915	68.09
342.128	33.28
342.34	35.33
342.552	39.42
342.764	29.18
342.977	0.51
343.189	23.04
343.401	57.86
343.613	-3.58
343.826	57.86
344.038	29.18
344.25	41.47
344.462	14.85
344.674	66.05
344.886	64
345.099	41.47
345.311	68.09
345.523	29.18
345.735	-22.02
345.947	12.8
346.159	51.71
346.371	-5.63
346.583	18.94
346.795	43.52
347.007	-17.92
347.219	27.14
347.431	4.61
347.643	68.09
347.855	39.42
348.067	-3.58
348.279	18.94
348.491	-9.73
348.703	72.19
348.915	35.33
349.127	14.85
349.339	12.8
349.551	14.85
349.763	61.95
349.975	12.8
350.187	23.04
350.399	27.14
350.61	23.04
350.822	-13.82
351.034	70.14
351.246	4.61
351.458	29.18
351.669	84.48
351.881	23.04
352.093	51.71
352.305	10.75
352.517	61.95
352.728	61.95
352.94	-36.35
353.152	72.19
353.363	-46.59
353.575	0.51
353.787	55.81
353.999	27.14
354.21	55.81
354.422	80.38
354.633	-15.87
354.845	84.48
355.057	55.81
355.268	72.19
355.48	10.75
355.692	-11.78
355.903	100.86
356.115	72.19
356.326	25.09
356.538	0.51
356.749	47.62
356.961	47.62
357.172	68.09
357.384	14.85
357.595	16.9
357.807	55.81
358.018	-67.07
358.23	70.14
358.441	117.25
358.653	-24.06
358.864	-1.54
359.075	35.33
359.287	-3.58
359.498	98.81
359.709	35.33
359.921	88.57
360.132	47.62
360.344	104.96
360.555	4.61
360.766	8.7
360.977	-56.83
361.189	53.76
361.4	27.14
361.611	8.7
361.823	51.71
362.034	23.04
362.245	12.8
362.456	10.75
362.667	37.38
362.879	74.24
363.09	74.24
363.301	39.42
363.512	39.42
363.723	25.09
363.935	35.33
364.146	100.86
364.357	66.05
364.568	33.28
364.779	23.04
364.99	39.42
365.201	8.7
365.412	51.71
365.623	27.14
365.834	43.52
366.045	-34.3
366.256	49.66
366.467	33.28
366.678	23.04
366.889	74.24
367.1	-1.54
367.311	23.04
367.522	33.28
367.733	-5.63
367.944	72.19
368.155	47.62
368.366	70.14
368.577	84.48
368.788	119.29
368.999	-17.92
369.209	-54.78
369.42	37.38
369.631	68.09
369.842	49.66
370.053	49.66
370.264	45.57
370.474	29.18
370.685	6.66
370.896	35.33
371.107	94.72
371.317	115.2
371.528	2.56
371.739	-52.74
371.95	45.57
372.16	-15.87
372.371	14.85
372.582	-62.98
372.792	8.7
373.003	78.33
373.214	-3.58
373.424	113.15
373.635	-5.63
373.846	86.53
374.056	10.75
374.267	39.42
374.477	6.66
374.688	-7.68
374.898	12.8
375.109	31.23
375.319	55.81
375.53	47.62
375.74	86.53
375.951	-19.97
376.161	88.57
376.372	145.92
376.582	35.33
376.793	41.47
377.003	-15.87
377.214	59.9
377.424	111.1
377.635	10.75
377.845	35.33
378.055	45.57
378.266	76.29
378.476	39.42
378.686	88.57
378.897	43.52
379.107	98.81
379.317	53.76
379.528	-5.63
379.738	47.62
379.948	47.62
380.158	94.72
380.369	14.85
380.579	55.81
380.789	-30.21
380.999	47.62
381.21	59.9
381.42	16.9
381.63	31.23
381.84	72.19
382.05	82.43
382.261	41.47
382.471	16.9
382.681	27.14
382.891	49.66
383.101	-22.02
383.311	-24.06
383.521	20.99
383.731	72.19
383.941	-26.11
384.151	43.52
384.361	23.04
384.571	47.62
384.781	49.66
384.991	131.58
385.201	43.52
385.411	127.49
385.621	14.85
385.831	-5.63
386.041	16.9
386.251	61.95
386.461	39.42
386.671	-26.11
386.881	31.23
387.091	-46.59
387.301	64
387.511	39.42
387.72	43.52
387.93	31.23
388.14	-5.63
388.35	70.14
388.56	6.66
388.769	76.29
388.979	43.52
389.189	33.28
389.399	-5.63
389.609	64
389.818	43.52
390.028	39.42
390.238	37.38
390.447	45.57
390.657	88.57
390.867	37.38
391.076	37.38
391.286	16.9
391.496	39.42
391.705	23.04
391.915	2.56
392.125	-15.87
392.334	2.56
392.544	61.95
392.753	88.57
392.963	6.66
393.172	64
393.382	86.53
393.591	-28.16
393.801	168.45
394.01	72.19
394.22	78.33
394.429	123.39
394.639	6.66
394.848	178.69
395.058	80.38
395.267	61.95
395.477	102.91
395.686	131.58
395.895	84.48
396.105	72.19
396.314	49.66
396.524	45.57
396.733	25.09
396.942	117.25
397.152	49.66
397.361	100.86
397.57	102.91
397.78	66.05
397.989	74.24
398.198	170.49
398.407	27.14
398.617	39.42
398.826	94.72
399.035	18.94
399.244	72.19
399.453	80.38
399.663	-5.63
399.872	43.52
400.081	6.66
400.29	55.81
400.499	100.86
400.708	88.57
400.917	23.04
401.127	47.62
401.336	76.29
401.545	135.68
401.754	90.62
401.963	113.15
402.172	80.38
402.381	107.01
402.59	133.63
402.799	45.57
403.008	39.42
403.217	102.91
403.426	84.48
403.635	162.3
403.844	86.53
404.053	51.71
404.262	78.33
404.471	233.98
404.68	70.14
404.888	143.87
405.097	94.72
405.306	154.11
405.515	172.54
405.724	150.01
405.933	156.16
406.142	137.73
406.35	172.54
406.559	205.31
406.768	117.25
406.977	158.21
407.185	164.35
407.394	102.91
407.603	102.91
407.812	145.92
408.02	205.31
408.229	215.55
408.438	182.78
408.646	174.59
408.855	166.4
409.064	182.78
409.272	150.01
409.481	215.55
409.69	203.26
409.898	213.5
410.107	207.36
410.315	227.84
410.524	209.4
410.733	274.94
410.941	223.74
411.15	301.56
411.358	289.28
411.567	344.57
411.775	236.03
411.984	266.75
412.192	307.71
412.401	391.67
412.609	375.29
412.818	328.19
413.026	377.34
413.234	350.71
413.443	344.57
413.651	416.25
413.86	406.01
414.068	494.07
414.276	473.59
414.485	432.63
414.693	416.25
414.901	557.56
415.11	498.17
415.318	559.61
415.526	510.46
415.734	631.29
415.943	590.33
416.151	680.44
416.359	651.77
416.567	637.43
416.776	729.59
416.984	752.12
417.192	748.02
417.4	803.32
417.608	786.93
417.817	827.89
418.025	852.47
418.233	852.47
418.441	954.87
418.649	786.93
418.857	1018.35
419.065	1018.35
419.273	967.15
419.481	1004.02
419.689	1114.61
419.897	1227.25
420.105	1180.14
420.313	1251.82
420.521	1147.37
420.729	1204.72
420.937	1358.32
421.145	1251.82
421.353	1386.99
421.561	1583.59
421.769	1612.26
421.977	1638.89
422.185	1522.15
422.393	1706.47
422.601	1776.1
422.809	1677.8
423.017	1827.3
423.224	1933.79
423.432	1993.19
423.64	1968.61
423.848	2116.06
424.056	2066.91
424.263	2157.02
424.471	2191.84
424.679	2216.41
424.887	2419.16
425.094	2466.27
425.302	2423.26
425.51	2539.99
425.718	2648.54
425.925	2732.5
426.133	2685.4
426.341	2851.28
426.548	2994.64
426.756	3109.33
426.964	3045.84
427.171	3158.48
427.379	3394
427.586	3426.76
427.794	3400.14
428.001	3514.83
428.209	3699.14
428.417	3672.52
428.624	3971.52
428.832	4061.63
429.039	3979.72
429.247	4157.89
429.454	4452.8
429.662	4721.08
429.869	4313.53
430.076	4721.08
430.284	4630.97
430.491	4747.7
430.699	5030.32
430.906	5073.33
431.114	5118.39
431.321	5329.33
431.528	5312.94
431.736	5687.72
431.943	6164.9
432.15	5865.89
432.358	5861.8
432.565	6144.42
432.772	6347.17
432.979	6263.2
433.187	6611.36
433.394	6597.02
433.601	7152.02
433.808	7254.42
434.016	7045.52
434.223	7467.41
434.43	7987.59
434.637	7659.92
434.844	8126.85
435.052	8411.52
435.259	8341.89
435.466	8130.95
435.673	8266.11
435.88	8747.39
436.087	9169.27
436.294	9202.04
436.501	8991.09
436.708	9210.23
436.915	9576.81
437.122	10076.52
437.329	10230.12
437.537	10297.7
437.743	10352.99
437.95	10221.92
438.157	11149.65
438.364	11288.92
438.571	11086.17
438.778	11317.59
438.985	12403.01
439.192	11639.12
439.399	12067.14
439.606	12104.01
439.813	12507.46
440.02	13107.51
440.227	12923.19
440.433	13037.88
440.64	13336.88
440.847	13574.45
441.054	13701.42
441.261	14747.93
441.467	14561.57
441.674	14805.28
441.881	15059.23
442.088	15038.75
442.294	15075.61
442.501	15780.11
442.708	16091.4
442.914	16529.67
443.121	17168.63
443.328	16724.22
443.534	18096.36
443.741	17469.69
443.948	17230.07
444.154	18442.47
444.361	18254.06
444.568	18522.34
444.774	18555.11
444.981	18735.33
445.187	19333.34
445.394	20111.57
445.6	19675.35
445.807	21723.32
446.013	20771.01
446.22	21145.79
446.426	21854.39
446.633	22132.91
446.839	22825.12
447.046	21807.28
447.252	22991.01
447.459	23283.87
447.665	22712.49
447.871	24027.28
448.078	24770.69
448.284	23732.37
448.491	24676.49
448.697	25108.61
448.903	26179.7
449.11	26124.4
449.316	25372.8
449.522	26091.63
449.728	26413.16
449.935	26753.13
450.141	26658.92
450.347	27291.74
450.553	26259.57
450.76	26695.78
450.966	27625.56
451.172	27189.35
451.378	27621.47
451.584	26933.35
451.791	27875.41
451.997	27893.85
452.203	28360.78
452.409	28248.14
452.615	28020.82
452.821	27011.17
453.027	26538.09
453.233	27943
453.44	26853.48
453.646	27600.99
453.852	27119.71
454.058	27990.1
454.264	26554.47
454.47	27603.03
454.676	26830.95
454.882	27363.42
455.088	25110.66
455.294	25497.72
455.5	25585.79
455.705	26015.86
455.911	25315.45
456.117	24492.17
456.323	24232.08
456.529	22847.65
456.735	23928.98
456.941	23099.55
457.147	22845.6
457.352	21987.5
457.558	21676.21
457.764	21856.43
457.97	21143.74
458.176	20973.76
458.381	21053.63
458.587	19939.54
458.793	19814.61
458.999	18761.95
459.204	20025.55
459.41	19505.37
459.616	18258.15
459.821	18276.59
460.027	17975.53
460.233	17979.63
460.438	16967.93
460.644	17012.99
460.85	16388.36
461.055	16269.58
461.261	16019.72
461.466	14821.66
461.672	14524.71
461.878	15520.02
462.083	14508.32
462.289	14149.93
462.494	13908.27
462.7	13285.69
462.905	13050.17
463.111	13637.94
463.316	13617.46
463.522	13365.56
463.727	13263.16
463.932	13144.38
464.138	13201.72
464.343	13021.5
464.549	12636.48
464.754	13283.64
464.959	13015.35
465.165	12998.97
465.37	12472.64
465.575	12446.02
465.781	12673.34
465.986	12669.25
466.191	12394.82
466.397	11886.92
466.602	11309.4
466.807	12036.42
467.012	11954.51
467.218	11833.68
467.423	11673.93
467.628	11759.95
467.833	12280.13
468.038	11725.13
468.244	11489.62
468.449	11819.34
468.654	11567.44
468.859	11336.02
469.064	11237.72
469.269	11020.63
469.474	10889.56
469.679	11313.49
469.885	10807.64
470.09	11080.02
470.295	11002.2
470.5	10778.97
470.705	10758.49
470.91	10594.65
471.115	10463.58
471.32	10598.75
471.525	10570.08
471.73	10191.2
471.935	10146.15
472.139	9896.3
472.344	9894.25
472.549	9988.46
472.754	9838.95
472.959	9550.19
473.164	9451.89
473.369	9212.28
473.574	9585.01
473.778	9525.61
473.983	9369.97
474.188	9343.35
474.393	9109.88
474.598	9005.43
474.802	8845.69
475.007	8845.69
475.212	8857.98
475.417	8610.17
475.621	8509.82
475.826	8452.48
476.031	8321.41
476.235	8245.63
476.44	8358.27
476.645	8178.05
476.849	8231.3
477.054	8133
477.259	8014.21
477.463	7938.44
477.668	7809.42
477.872	7911.82
478.077	7758.22
478.282	7592.33
478.486	7498.13
478.691	7567.76
478.895	7424.4
479.1	7319.95
479.304	7385.49
479.509	7082.39
479.713	7242.13
479.918	7195.03
480.122	7068.05
480.326	7068.05
480.531	7217.55
480.735	7084.44
480.94	7006.61
481.144	7246.23
481.348	6797.72
481.553	7074.2
481.757	6893.97
481.961	7010.71
482.166	7137.68
482.37	6957.46
482.574	6836.63
482.778	6805.91
482.983	7076.24
483.187	6879.64
483.391	6996.37
483.595	6914.45
483.8	6984.09
484.004	6900.12
484.208	6916.5
484.412	7004.57
484.616	7053.72
484.821	6893.97
485.025	6674.84
485.229	7070.1
485.433	6867.35
485.637	6941.08
485.841	6832.54
486.045	6850.97
486.249	6871.45
486.453	6810.01
486.657	6832.54
486.861	6941.08
487.065	6781.34
487.269	6908.31
487.473	6783.38
487.677	6787.48
487.881	7080.34
488.085	7049.62
488.289	6930.84
488.493	6908.31
488.697	7033.24
488.901	6941.08
489.105	7057.81
489.309	7045.52
489.512	7080.34
489.716	6928.79
489.92	7045.52
490.124	7088.53
490.328	7041.43
490.531	7141.78
490.735	6879.64
490.939	7072.15
491.143	7045.52
491.346	6906.26
491.55	7074.2
491.754	7330.19
491.958	7342.48
492.161	7291.28
492.365	7354.77
492.569	7291.28
492.772	7190.93
492.976	7266.71
493.18	7434.64
493.383	7651.72
493.587	7582.09
493.79	7702.92
493.994	7504.27
494.197	7539.08
494.401	7641.48
494.605	7887.24
494.808	7539.08
495.012	7704.97
495.215	7928.2
495.419	8044.93
495.622	7899.53
495.825	8016.26
496.029	8051.08
496.232	8153.48
496.436	8102.28
496.639	8384.9
496.843	8214.91
497.046	8479.1
497.249	8565.12
497.453	8784.25
497.656	8606.08
497.859	8755.58
498.063	8933.75
498.266	9113.97
498.469	9148.79
498.673	9075.06
498.876	9199.99
499.079	9519.47
499.282	9406.83
499.485	9769.32
499.689	9587.05
499.892	9599.34
500.095	9931.11
500.298	10213.73
500.501	10062.18
500.705	10232.16
500.908	10150.25
501.111	10535.26
501.314	10727.77
501.517	10692.96
501.72	10785.12
501.923	10713.44
502.126	11077.97
502.329	11417.94
502.532	11338.07
502.735	11329.88
502.938	11518.29
503.141	11483.47
503.344	11966.79
503.547	11800.91
503.75	12081.48
503.953	12421.44
504.156	12155.21
504.359	12183.88
504.562	12611.9
504.765	12818.75
504.968	12937.53
505.17	13064.5
505.373	12818.75
505.576	13619.5
505.779	13494.58
505.982	13496.63
506.185	13685.04
506.387	13613.36
506.59	13990.19
506.793	13990.19
506.996	14119.21
507.198	14715.17
507.401	14369.06
507.604	14702.88
507.807	15001.88
508.009	15182.1
508.212	15286.55
508.415	15257.88
508.617	15661.33
508.82	15489.3
509.022	15624.47
509.225	16066.83
509.428	16130.31
509.63	16464.13
509.833	16494.85
510.035	16826.62
510.238	16722.18
510.44	16920.83
510.643	17357.05
510.845	17285.37
511.048	17449.21
511.25	17473.78
511.453	17580.28
511.655	18522.34
511.858	17828.08
512.06	18143.47
512.262	18743.52
512.465	18669.8
512.667	19194.08
512.87	19110.11
513.072	19114.2
513.274	19503.32
513.477	19871.95
513.679	20015.31
513.881	20267.21
514.084	20205.77
514.286	20357.32
514.488	20377.8
514.69	21184.7
514.893	21113.02
515.095	21420.22
515.297	21747.89
515.499	21502.14
515.701	21565.62
515.904	22120.62
516.106	22331.56
516.308	22483.11
516.51	22714.53
516.712	22659.24
516.914	23206.05
517.116	23425.18
517.318	23654.55
517.52	23793.81
517.722	23611.54
517.925	24119.44
518.127	24492.17
518.329	24770.69
518.531	24565.9
518.733	24985.73
518.935	25534.59
519.136	25325.69
519.338	25710.71
519.54	25778.29
519.742	26105.97
519.944	26327.15
520.146	26742.89
520.348	27109.47
520.55	26951.78
520.752	26953.83
520.954	27988.05
521.155	27441.25
521.357	27981.91
521.559	28354.64
521.761	28641.35
521.963	28686.41
522.164	28635.21
522.366	28602.44
522.568	29360.19
522.77	29433.92
522.971	29962.29
523.173	29593.66
523.375	29939.77
523.576	30072.89
523.778	30154.8
523.98	30650.41
524.181	30756.91
524.383	30601.26
524.584	31250.47
524.786	31551.52
524.988	31424.54
525.189	31707.16
525.391	31592.48
525.592	31756.32
525.794	32192.53
525.995	32114.71
526.197	32405.52
526.398	32229.4
526.6	32727.05
526.801	32671.76
527.003	33085.45
527.204	32954.38
527.406	33398.79
527.607	33275.91
527.808	33767.42
528.01	33140.74
528.211	33738.75
528.412	34183.16
528.614	34062.33
528.815	34390
529.016	34392.05
529.218	33918.97
529.419	34461.68
529.62	34570.22
529.822	34523.12
530.023	34551.79
530.224	34838.51
530.425	34834.41
530.626	34488.31
530.828	34406.39
531.029	35399.65
531.23	35086.31
531.431	35125.22
531.632	35301.35
531.833	35352.55
532.035	35307.49
532.236	35604.45
532.437	35762.14
532.638	35215.33
532.839	35639.26
533.04	35809.25
533.241	35209.19
533.442	35655.65
533.643	35956.7
533.844	35866.59
534.045	36159.45
534.246	35694.56
534.447	36116.44
534.648	35846.11
534.849	36229.08
535.05	35528.67
535.251	36251.61
535.451	35821.53
535.652	36153.3
535.853	35893.21
536.054	36155.35
536.255	36261.85
536.456	35655.65
536.657	36687.82
536.857	36055
537.058	35848.16
537.259	36151.26
537.46	36141.02
537.66	36278.23
537.861	36157.4
538.062	36341.72
538.263	36272.09
538.463	35968.99
538.664	35866.59
538.865	36407.25
539.065	36294.61
539.266	35893.21
539.466	36184.02
539.667	35803.1
539.868	36343.77
540.068	36120.54
540.269	35807.2
540.469	36470.74
540.67	36042.71
540.87	35837.92
541.071	35760.09
541.271	36192.22
541.472	36169.69
541.672	36155.35
541.873	35987.42
542.073	35524.58
542.274	36339.67
542.474	36003.8
542.675	35944.41
542.875	36622.29
543.075	36155.35
543.276	35659.74
543.476	36118.49
543.676	35659.74
543.877	36112.34
544.077	36212.7
544.277	35631.07
544.478	36184.02
544.678	36276.18
544.878	35733.47
545.078	36184.02
545.279	35917.79
545.479	36284.37
545.679	35893.21
545.879	36048.86
546.079	36075.48
546.28	36149.21
546.48	35698.66
546.68	35925.98
546.88	36198.36
547.08	36022.23
547.28	35946.46
547.48	35856.35
547.68	36040.67
547.88	35710.94
548.081	36401.11
548.281	36065.24
548.481	35831.77
548.681	36016.09
548.881	36042.71
549.081	35561.44
549.28	35631.07
549.48	36048.86
549.68	36112.34
549.88	36196.31
550.08	35639.26
550.28	35973.08
550.48	35467.23
550.68	35987.42
550.88	35717.09
551.08	35528.67
551.279	35870.68
551.479	35643.36
551.679	35561.44
551.879	35880.92
552.079	35506.15
552.278	35405.8
552.478	35614.69
552.678	35960.8
552.878	36063.19
553.077	35594.21
553.277	35301.35
553.477	36034.52
553.676	35444.71
553.876	35756
554.076	35131.37
554.275	35205.09
554.475	35180.52
554.674	35250.15
554.874	35180.52
555.074	35352.55
555.273	35203.05
555.473	35575.78
555.672	34967.53
555.872	35540.96
556.071	35211.24
556.271	35170.28
556.47	34996.2
556.67	34545.65
556.869	34881.52
557.068	35205.09
557.268	34807.79
557.467	34818.03
557.667	34742.25
557.866	35022.83
558.065	34498.55
558.265	34625.52
558.464	34293.75
558.663	34559.98
558.863	34275.32
559.062	34840.56
559.261	34422.77
559.461	34742.25
559.66	34187.25
559.859	34545.65
560.058	33966.07
560.258	34379.76
560.457	34013.18
560.656	34545.65
560.855	33894.39
561.054	34039.8
561.253	33714.17
561.453	33890.3
561.652	34205.69
561.851	34070.52
562.05	33656.83
562.249	33132.55
562.448	33460.23
562.647	33449.99
562.846	33155.08
563.045	33628.16
563.244	33042.44
563.443	33357.83
563.642	33091.59
563.841	32931.85
564.04	32610.32
564.239	32923.66
564.438	32870.41
564.637	32802.83
564.836	32911.37
565.035	32585.74
565.234	32671.76
565.432	32614.41
565.631	32342.03
565.83	32415.76
566.029	32278.55
566.228	31983.64
566.427	32606.22
566.625	31957.02
566.824	31635.49
567.023	32260.12
567.222	31301.67
567.42	31721.5
567.619	31748.12
567.818	31309.86
568.016	31553.57
568.215	31502.37
568.414	31297.57
568.612	31391.78
568.811	30924.84
569.01	31277.09
569.208	30748.71
569.407	30797.87
569.605	30443.57
569.804	30629.93
570.002	30453.81
570.201	30875.69
570.4	30027.83
570.598	30206
570.797	30083.12
570.995	30007.35
571.193	29794.36
571.392	30507.05
571.59	29923.38
571.789	29775.93
571.987	29708.35
572.186	29442.11
572.384	29415.49
572.582	29630.52
572.781	29698.11
572.979	29048.9
573.177	29616.19
573.376	28997.7
573.574	28868.68
573.772	28909.64
573.971	28504.14
574.169	28899.4
574.367	28215.38
574.565	28966.98
574.763	28639.31
574.962	28485.71
575.16	28194.9
575.358	28162.13
575.556	28420.17
575.754	28317.78
575.952	27783.26
576.151	28319.82
576.349	27787.35
576.547	28014.68
576.745	28031.06
576.943	27609.18
577.141	27474.01
577.339	27715.67
577.537	27183.2
577.735	27330.65
577.933	26955.88
578.131	27033.7
578.329	27177.06
578.527	26734.7
578.725	27029.6
578.923	27064.42
579.121	26775.66
579.319	26769.51
579.516	26939.49
579.714	26574.95
579.912	26638.44
580.11	26372.21
580.308	26148.98
580.506	26447.98
580.704	25845.88
580.901	26529.9
581.099	26323.05
581.297	26177.65
581.495	25897.08
581.692	25821.3
581.89	25679.99
582.088	25993.33
582.285	25520.25
582.483	25757.81
582.681	25628.79
582.878	25741.43
583.076	24940.68
583.274	25436.28
583.471	25139.33
583.669	25100.42
583.866	24670.34
584.064	25464.96
584.262	24719.49
584.459	25020.55
584.657	24760.45
584.854	25012.35
585.052	24512.65
585.249	24604.81
585.447	24432.78
585.644	24416.4
585.841	24731.78
586.039	24545.42
586.236	23810.2
586.434	24076.43
586.631	23928.98
586.828	24068.24
587.026	23842.96
587.223	23947.41
587.42	23793.81
587.618	23945.36
587.815	23244.96
588.012	23662.74
588.21	23687.32
588.407	23832.72
588.604	23201.95
588.801	23107.74
588.999	23099.55
589.196	23101.6
589.393	23101.6
589.59	22982.82
589.787	22757.54
589.984	22808.74
590.182	22757.54
590.379	22868.13
590.576	22462.63
590.773	22581.42
590.97	22423.72
591.167	22702.25
591.364	22454.44
591.561	22325.42
591.758	22216.88
591.955	22157.49
592.152	22382.76
592.349	22063.28
592.546	22315.18
592.743	21964.98
592.94	21717.17
593.137	21829.81
593.334	21844.15
593.531	21332.15
593.727	21715.12
593.924	21328.06
594.121	21414.07
594.318	21770.42
594.515	21344.44
594.712	21498.04
594.908	21268.67
595.105	21233.85
595.302	21008.58
595.499	20992.19
595.696	21039.29
595.892	20953.28
596.089	21010.62
596.286	20857.03
596.482	20629.7
596.679	20795.59
596.876	20576.45
597.072	20781.25
597.269	20562.12
597.466	20383.94
597.662	20338.89
597.859	20400.33
598.055	20244.68
598.252	20074.7
598.448	19968.21
598.645	20082.89
598.841	19679.44
599.038	20072.65
599.234	20162.76
599.431	19871.95
599.627	19759.31
599.824	19843.28
600.02	19839.19
600.217	19853.52
600.413	19618
600.609	19501.27
600.806	19550.42
601.002	19777.75
601.198	19460.31
601.395	19167.45
601.591	19284.19
601.787	19050.72
601.984	19179.74
602.18	19210.46
602.376	19009.76
602.572	18704.61
602.769	19202.27
602.965	18622.69
603.161	18989.28
603.357	18581.73
603.553	18573.54
603.75	18387.18
603.946	18557.16
604.142	18591.97
604.338	18213.1
604.534	18397.42
604.73	18153.71
604.926	18174.19
605.122	18575.59
605.318	18231.53
605.514	18165.99
605.71	17879.28
605.906	18075.88
606.102	17987.82
606.298	17869.04
606.494	17813.74
606.69	17658.1
606.886	17852.66
607.082	17584.37
607.278	17674.48
607.474	17320.18
607.67	17402.1
607.866	17428.73
608.062	17426.68
608.257	17572.08
608.453	17127.67
608.649	17144.06
608.845	17385.72
609.041	17334.52
609.236	17117.43
609.432	17035.52
609.628	17230.07
609.824	17281.27
610.019	17066.24
610.215	16929.02
610.411	17209.59
610.606	17078.52
610.802	16763.14
610.998	16851.2
611.193	16740.61
611.389	16646.4
611.584	16566.53
611.78	16773.38
611.976	16779.52
612.171	16732.42
612.367	16744.7
612.562	16603.39
612.758	16302.34
612.953	16525.57
613.149	16513.28
613.344	16380.17
613.539	16449.8
613.735	16511.24
613.93	16279.82
614.126	16251.14
614.321	16591.11
614.517	16136.46
614.712	16255.24
614.907	16054.54
615.103	16195.85
615.298	16195.85
615.493	16341.25
615.688	15984.91
615.884	16195.85
616.079	15968.52
616.274	16224.52
616.47	15800.59
616.665	15890.7
616.86	15749.39
617.055	15814.93
617.25	15816.97
617.445	15659.28
617.641	15628.56
617.836	15646.99
618.031	15304.98
618.226	15454.48
618.421	15538.45
618.616	15474.96
618.811	15276.31
619.006	15229.21
619.201	14881.05
619.396	15085.85
619.591	14825.76
619.786	15124.76
619.981	15032.6
620.176	14932.25
620.371	14868.77
620.566	14881.05
620.761	14754.08
620.956	14889.24
621.151	14559.52
621.346	14747.93
621.541	14379.3
621.735	14330.15
621.93	13881.64
622.125	14364.96
622.32	13994.28
622.515	14317.86
622.709	14012.71
622.904	13932.84
623.099	13885.74
623.294	13906.22
623.488	13867.31
623.683	13723.95
623.878	13521.2
624.072	13771.05
624.267	13703.47
624.462	13457.71
624.656	13445.43
624.851	13484.34
625.046	13195.57
625.24	13117.75
625.435	13101.37
625.629	12972.35
625.824	12761.41
626.018	12921.15
626.213	12640.58
626.407	12837.18
626.602	12595.52
626.796	12511.55
626.991	12792.12
627.185	12560.7
627.38	12288.32
627.574	12337.48
627.768	12333.38
627.963	12056.9
628.157	12099.91
628.352	12249.41
628.546	12028.23
628.74	12194.12
628.935	11923.79
629.129	11944.27
629.323	11673.93
629.517	11686.22
629.712	11612.49
629.906	11598.16
630.1	11225.43
630.294	11346.26
630.489	11290.96
630.683	11540.82
630.877	11342.16
631.071	11084.12
631.265	11086.17
631.459	11106.65
631.653	11080.02
631.848	10979.67
632.042	10801.5
632.236	11016.54
632.43	10940.76
632.624	10903.9
632.818	10621.28
633.012	10809.69
633.206	10615.13
633.4	10756.44
633.594	10590.56
633.788	10514.78
633.982	10396
634.176	10230.12
634.369	10375.52
634.563	10314.08
634.757	10238.31
634.951	10223.97
635.145	9902.44
635.339	9957.74
635.533	10027.37
635.726	10013.03
635.92	9929.06
636.114	9933.16
636.308	9763.18
636.501	9795.95
636.695	9640.3
636.889	9587.05
637.083	9609.58
637.276	9380.21
637.47	9435.5
637.664	9347.44
637.857	9570.67
638.051	9599.34
638.244	9257.33
638.438	9345.39
638.632	9136.5
638.825	9113.97
639.019	9273.71
639.212	9001.33
639.406	8851.83
639.599	9023.86
639.793	8841.59
639.986	8739.19
640.18	8812.92
640.373	9030.01
640.567	8630.65
640.76	8644.99
640.954	8583.55
641.147	8599.93
641.34	8311.17
641.534	8552.83
641.727	8245.63
641.92	8419.71
642.114	8274.31
642.307	8198.53
642.5	8343.94
642.694	8202.63
642.887	8255.87
643.08	8003.97
643.273	8071.56
643.467	7854.47
643.66	7772.55
643.853	7833.99
644.046	7729.55
644.239	7831.94
644.432	7811.46
644.626	7911.82
644.819	7772.55
645.012	7707.02
645.205	7582.09
645.398	7491.98
645.591	7534.99
645.784	7487.89
645.977	7405.97
646.17	7424.4
646.363	7545.23
646.556	7264.66
646.749	7256.47
646.942	7274.9
647.135	7235.99
647.328	7168.4
647.521	7258.51
647.714	6908.31
647.907	6949.27
648.099	7070.1
648.292	7018.9
648.485	7098.77
648.678	6891.93
648.871	6842.78
649.064	6920.6
649.256	6711.71
649.449	6709.66
649.642	6746.52
649.835	6697.37
650.027	6637.98
650.22	6705.56
650.413	6633.88
650.605	6699.42
650.798	6449.57
650.991	6412.7
651.183	6414.75
651.376	6402.46
651.568	6531.48
651.761	6230.43
651.954	6338.98
652.146	6205.86
652.339	6212
652.531	6259.1
652.724	6203.81
652.916	5964.2
653.109	6093.22
653.301	5999.01
653.494	6261.15
653.686	6035.88
653.879	5994.92
654.071	5908.9
654.263	5849.51
654.456	5923.24
654.648	5876.13
654.84	5892.52
655.033	5740.97
655.225	5792.17
655.417	5853.61
655.61	5833.13
655.802	5669.29
655.994	5644.71
656.186	5605.8
656.379	5458.35
656.571	5577.13
656.763	5607.85
656.955	5472.68
657.148	5464.49
657.34	5425.58
657.532	5444.01
657.724	5259.7
657.916	5448.11
658.108	5298.61
658.3	5376.43
658.492	5456.3
658.684	5300.66
658.876	5327.28
659.068	5237.17
659.26	5175.73
659.452	5231.02
659.644	5157.3
659.836	5290.42
660.028	5044.66
660.22	5112.24
660.412	5018.04
660.604	4927.92
660.796	5003.7
660.988	4940.21
661.18	4807.09
661.372	4932.02
661.563	4942.26
661.755	4905.4
661.947	4878.77
662.139	4866.49
662.331	4798.9
662.522	4811.19
662.714	4743.61
662.906	4712.89
663.097	4710.84
663.289	4729.27
663.481	4661.69
663.673	4663.74
663.864	4518.33
664.056	4481.47
664.247	4504
664.439	4524.47
664.631	4518.33
664.822	4428.22
665.014	4428.22
665.205	4422.08
665.397	4460.99
665.588	4485.56
665.78	4229.57
665.971	4342.21
666.163	4413.88
666.354	4229.57
666.546	4297.15
666.737	4258.24
666.929	4204.99
667.12	4307.39
667.311	4219.33
667.503	4336.06
667.694	4241.86
667.885	4166.08
668.077	4149.7
668.268	4084.16
668.459	4098.5
668.651	3920.32
668.842	4106.69
669.033	3959.24
669.224	4053.44
669.416	3891.65
669.607	3940.8
669.798	3838.41
669.989	3912.13
670.18	3815.88
670.371	3793.35
670.563	3920.32
670.754	3944.9
670.945	3926.47
671.136	3822.02
671.327	3850.69
671.518	3785.16
671.709	3856.84
671.9	3742.15
672.091	3811.78
672.282	3756.49
672.473	3649.99
672.664	3860.93
672.855	3719.62
673.046	3711.43
673.237	3729.86
673.428	3901.89
673.619	3736.01
673.809	3643.85
674	3674.57
674.191	3619.27
674.382	3690.95
674.573	3645.9
674.764	3555.79
674.954	3707.34
675.145	3600.84
675.336	3338.7
675.527	3549.64
675.717	3488.2
675.908	3570.12
676.099	3527.11
676.289	3613.13
676.48	3512.78
676.671	3475.91
676.861	3649.99
677.052	3463.63
677.243	3453.39
677.433	3525.07
677.624	3619.27
677.814	3406.28
678.005	3529.16
678.195	3381.71
678.386	3387.85
678.576	3353.04
678.767	3398.09
678.957	3408.33
679.148	3418.57
679.338	3258.83
679.529	3350.99
679.719	3338.7
679.909	3262.93
680.1	3353.04
680.29	3506.63
680.481	3371.47
680.671	3348.94
680.861	3361.23
681.052	3353.04
681.242	3342.8
681.432	3312.08
681.622	3267.02
681.813	3115.47
682.003	3328.46
682.193	3219.92
682.383	3244.49
682.573	3269.07
682.764	3152.34
682.954	3355.08
683.144	3189.2
683.334	3232.21
683.524	3138
683.714	3144.14
683.904	3207.63
684.094	3201.49
684.284	3127.76
684.474	3215.82
684.664	3142.1
684.854	3158.48
685.044	3094.99
685.234	3123.66
685.424	3115.47
685.614	3054.03
685.804	3119.57
685.994	3013.07
686.184	3082.7
686.374	3090.9
686.564	2994.64
686.753	3109.33
686.943	3045.84
687.133	3097.04
687.323	2955.73
687.513	3109.33
687.702	2990.55
687.892	3084.75
688.082	3058.13
688.272	2957.78
688.461	2861.52
688.651	2927.06
688.841	2912.72
689.03	2976.21
689.22	2939.35
689.41	3013.07
689.599	2877.91
689.789	2861.52
689.979	2945.49
690.168	2941.4
690.358	2752.98
690.547	2871.76
690.737	2810.33
690.926	2775.51
691.116	2771.41
691.305	2898.39
691.495	2726.36
691.684	2775.51
691.874	2810.33
692.063	2746.84
692.252	2652.63
692.442	2922.96
692.631	2738.65
692.82	2693.59
693.01	2746.84
693.199	2818.52
693.388	2730.45
693.578	2697.69
693.767	2656.73
693.956	2652.63
694.146	2677.21
694.335	2693.59
694.524	2640.34
694.713	2644.44
694.902	2673.11
695.092	2660.82
695.281	2529.75
695.47	2605.53
695.659	2726.36
695.848	2576.86
696.037	2738.65
696.226	2681.3
696.415	2544.09
696.604	2687.45
696.793	2697.69
696.982	2679.26
697.171	2613.72
697.36	2462.17
697.549	2636.25
697.738	2576.86
697.927	2605.53
698.116	2623.96
698.305	2593.24
698.494	2605.53
698.683	2451.93
698.872	2529.75
699.061	2587.1
699.25	2554.33
699.438	2531.8
699.627	2568.66
699.816	2597.34
700.005	2578.9
700.193	2550.23
700.382	2572.76
700.571	2552.28
700.76	2560.47
700.948	2609.62
701.137	2542.04
701.326	2521.56
701.514	2652.63
701.703	2611.67
701.892	2630.1
702.08	2550.23
702.269	2603.48
702.457	2560.47
702.646	2638.3
702.834	2595.29
703.023	2507.23
703.212	2646.49
703.4	2570.71
703.589	2580.95
703.777	2595.29
703.965	2535.9
704.154	2566.62
704.342	2605.53
704.531	2544.09
704.719	2466.27
704.907	2605.53
705.096	2429.4
705.284	2480.6
705.472	2660.82
705.661	2396.64
705.849	2611.67
706.037	2707.93
706.226	2611.67
706.414	2652.63
706.602	2507.23
706.79	2464.22
706.979	2550.23
707.167	2554.33
707.355	2554.33
707.543	2630.1
707.731	2619.86
707.919	2525.66
708.107	2546.14
708.296	2603.48
708.484	2656.73
708.672	2546.14
708.86	2595.29
709.048	2589.14
709.236	2509.27
709.424	2488.79
709.612	2626.01
709.8	2542.04
709.988	2437.59
710.176	2605.53
710.364	2570.71
710.551	2628.06
710.739	2492.89
710.927	2505.18
711.115	2666.97
711.303	2695.64
711.491	2640.34
711.679	2597.34
711.866	2376.16
712.054	2587.1
712.242	2546.14
712.43	2527.71
712.617	2634.2
712.805	2597.34
712.993	2499.03
713.181	2453.98
713.368	2513.37
713.556	2488.79
713.744	2617.82
713.931	2648.54
714.119	2638.3
714.306	2660.82
714.494	2550.23
714.682	2507.23
714.869	2589.14
715.057	2544.09
715.244	2517.47
715.432	2517.47
715.619	2552.28
715.807	2621.91
715.994	2599.38
716.182	2576.86
716.369	2552.28
716.556	2519.51
716.744	2480.6
716.931	2570.71
717.119	2544.09
717.306	2578.9
717.493	2480.6
717.681	2464.22
717.868	2537.95
718.055	2621.91
718.242	2560.47
718.43	2646.49
718.617	2453.98
718.804	2335.2
718.991	2482.65
719.179	2570.71
719.366	2507.23
719.553	2494.94
719.74	2548.19
719.927	2587.1
720.114	2488.79
720.301	2345.44
720.488	2349.53
720.676	2435.55
720.863	2583
721.05	2462.17
721.237	2470.36
721.424	2429.4
721.611	2564.57
721.798	2490.84
721.985	2380.25
722.172	2378.2
722.358	2447.83
722.545	2525.66
722.732	2560.47
722.919	2427.35
723.106	2378.2
723.293	2437.59
723.48	2488.79
723.667	2390.49
723.853	2617.82
724.04	2546.14
724.227	2484.7
724.414	2515.42
724.6	2537.95
724.787	2496.99
724.974	2484.7
725.161	2537.95
725.347	2441.69
725.534	2556.38
725.72	2435.55
725.907	2462.17
726.094	2462.17
726.28	2378.2
726.467	2492.89
726.653	2441.69
726.84	2480.6
727.027	2519.51
727.213	2329.05
727.4	2480.6
727.586	2523.61
727.773	2509.27
727.959	2390.49
728.145	2511.32
728.332	2396.64
728.518	2472.41
728.705	2576.86
728.891	2374.11
729.077	2421.21
729.264	2359.77
729.45	2480.6
729.636	2499.03
729.823	2408.92
730.009	2439.64
730.195	2488.79
730.382	2533.85
730.568	2429.4
730.754	2494.94
730.94	2384.35
731.126	2503.13
731.313	2478.55
731.499	2439.64
731.685	2490.84
731.871	2447.83
732.057	2447.83
732.243	2456.03
732.429	2390.49
732.615	2310.62
732.801	2431.45
732.987	2376.16
733.173	2554.33
733.359	2353.63
733.545	2355.68
733.731	2441.69
733.917	2486.75
734.103	2406.88
734.289	2439.64
734.475	2386.4
734.661	2453.98
734.847	2406.88
735.033	2390.49
735.219	2380.25
735.404	2451.93
735.59	2441.69
735.776	2372.06
735.962	2415.07
736.148	2365.92
736.333	2376.16
736.519	2310.62
736.705	2492.89
736.89	2372.06
737.076	2263.52
737.262	2367.96
737.447	2398.68
737.633	2402.78
737.819	2324.96
738.004	2406.88
738.19	2257.37
738.375	2290.14
738.561	2374.11
738.747	2353.63
738.932	2302.43
739.118	2329.05
739.303	2279.9
739.489	2308.57
739.674	2290.14
739.859	2324.96
740.045	2279.9
740.23	2222.56
740.416	2228.7
740.601	2202.08
740.786	2257.37
740.972	2240.99
741.157	2294.24
741.342	2189.79
741.528	2177.5
741.713	2214.37
741.898	2126.3
742.084	2148.83
742.269	2136.54
742.454	2267.61
742.639	2267.61
742.824	2103.78
743.01	2179.55
743.195	2210.27
743.38	2103.78
743.565	2062.82
743.75	2165.21
743.935	2062.82
744.12	2341.34
744.305	2032.1
744.49	2124.26
744.675	2042.34
744.86	2163.17
745.045	2040.29
745.23	2089.44
745.415	1948.13
745.6	2036.19
745.785	2103.78
745.97	2048.48
746.155	1999.33
746.34	1964.51
746.525	2062.82
746.71	2019.81
746.895	1962.47
747.079	1931.75
747.264	1941.99
747.449	1999.33
747.634	1894.88
747.819	1966.56
748.003	1952.23
748.188	1833.44
748.373	1827.3
748.557	1855.97
748.742	1722.85
748.927	1915.36
749.111	1823.2
749.296	1786.34
749.481	1792.48
749.665	1767.91
749.85	1759.72
750.034	1812.96
750.219	1720.81
750.404	1817.06
750.588	1704.42
750.773	1743.33
750.957	1710.57
751.141	1712.61
751.326	1694.18
751.51	1741.29
751.695	1642.98
751.879	1632.74
752.064	1716.71
752.248	1712.61
752.432	1675.75
752.617	1556.97
752.801	1651.17
752.985	1565.16
753.17	1589.74
753.354	1665.51
753.538	1628.65
753.722	1573.35
753.907	1526.25
754.091	1554.92
754.275	1432.04
754.459	1452.52
754.643	1460.71
754.828	1597.93
755.012	1526.25
755.196	1505.77
755.38	1460.71
755.564	1397.23
755.748	1403.37
755.932	1405.42
756.116	1380.84
756.3	1317.36
756.484	1311.21
756.668	1415.66
756.852	1325.55
757.036	1391.08
757.22	1401.32
757.404	1341.93
757.588	1409.51
757.772	1341.93
757.956	1270.25
758.14	1284.59
758.323	1296.88
758.507	1260.01
758.691	1202.67
758.875	1300.97
759.059	1348.08
759.242	1317.36
759.426	1282.54
759.61	1268.2
759.794	1223.15
759.977	1327.6
760.161	1282.54
760.345	1323.5
760.528	1178.09
760.712	1264.11
760.895	1266.16
761.079	1120.75
761.263	1223.15
761.446	1108.46
761.63	1192.43
761.813	1210.86
761.997	1233.39
762.18	1249.77
762.364	1214.96
762.547	1120.75
762.731	1141.23
762.914	1085.94
763.098	1128.94
763.281	1028.59
763.464	1120.75
763.648	1098.22
763.831	1149.42
764.015	1061.36
764.198	1239.53
764.381	1067.5
764.564	1090.03
764.748	965.11
764.931	1135.09
765.114	1079.79
765.297	1036.78
765.481	1038.83
765.664	999.92
765.847	1100.27
766.03	999.92
766.213	1071.6
766.397	1042.93
766.58	1051.12
766.763	1038.83
766.946	930.29
767.129	956.91
767.312	965.11
767.495	944.63
767.678	1059.31
767.861	1067.5
768.044	958.96
768.227	1030.64
768.41	1028.59
768.593	991.73
768.776	1069.55
768.959	963.06
769.142	999.92
769.324	961.01
769.507	1028.59
769.69	877.04
769.873	1036.78
770.056	926.19
770.239	868.85
770.421	971.25
770.604	926.19
770.787	971.25
770.97	987.63
771.152	909.81
771.335	846.32
771.518	940.53
771.7	973.3
771.883	913.91
772.066	827.89
772.248	940.53
772.431	930.29
772.613	893.43
772.796	842.23
772.978	817.65
773.161	834.04
773.343	780.79
773.526	868.85
773.708	836.08
773.891	903.67
774.073	825.84
774.256	805.36
774.438	788.98
774.621	881.14
774.803	874.99
774.985	745.97
775.168	764.4
775.35	752.12
775.532	778.74
775.715	803.32
775.897	731.64
776.079	815.6
776.261	778.74
776.444	817.65
776.626	821.75
776.808	809.46
776.99	711.16
777.173	694.77
777.355	827.89
777.537	735.73
777.719	760.31
777.901	670.2
778.083	715.25
778.265	668.15
778.447	702.97
778.629	737.78
778.811	659.96
778.993	619
779.175	657.91
779.357	633.33
779.539	639.48
779.721	705.01
779.903	608.76
780.085	686.58
780.267	686.58
780.449	694.77
780.631	610.81
780.812	686.58
780.994	731.64
781.176	633.33
781.358	649.72
781.54	530.94
781.721	600.57
781.903	604.66
782.085	676.34
782.267	651.77
782.448	526.84
782.63	553.46
782.812	539.13
782.993	563.7
783.175	522.74
783.357	549.37
783.538	518.65
783.72	475.64
783.901	582.14
784.083	500.22
784.264	594.42
784.446	555.51
784.627	438.78
784.809	504.31
784.99	475.64
785.172	514.55
785.353	565.75
785.535	514.55
785.716	502.26
785.897	444.92
786.079	477.69
786.26	481.78
786.441	502.26
786.623	489.98
786.804	494.07
786.985	416.25
787.167	403.96
787.348	420.35
787.529	432.63
787.71	473.59
787.891	442.87
788.073	408.06
788.254	457.21
788.435	449.02
788.616	494.07
788.797	420.35
788.978	526.84
789.159	375.29
789.34	442.87
789.522	367.1
789.703	373.24
789.884	397.82
790.065	395.77
790.246	449.02
790.427	467.45
790.607	367.1
790.788	436.73
790.969	332.28
791.15	449.02
791.331	375.29
791.512	367.1
791.693	330.23
791.874	320
792.054	436.73
792.235	395.77
792.416	293.37
792.597	360.95
792.778	344.57
792.958	356.86
793.139	385.53
793.32	354.81
793.5	297.47
793.681	297.47
793.862	272.89
794.042	420.35
794.223	363
794.404	334.33
794.584	287.23
794.765	297.47
794.945	317.95
795.126	303.61
795.306	285.18
795.487	315.9
795.667	326.14
795.848	303.61
796.028	320
796.209	297.47
796.389	348.67
796.57	346.62
796.75	276.99
796.93	240.12
797.111	293.37
797.291	336.38
797.471	295.42
797.652	279.04
797.832	223.74
798.012	276.99
798.192	283.13
798.373	262.65
798.553	279.04
798.733	309.76
798.913	262.65
799.093	260.6
799.274	268.8
799.454	338.43
799.634	256.51
799.814	379.39
799.994	291.32
800.174	313.85
800.354	211.45
800.534	283.13
800.714	338.43
800.894	303.61
801.074	168.45
801.254	246.27
801.434	276.99
801.614	307.71
801.794	176.64
801.974	588.28
802.154	225.79
802.334	285.18
802.514	203.26
802.693	289.28
802.873	313.85
803.053	252.41
803.233	205.31
803.413	236.03
803.592	266.75
803.772	219.64
803.952	205.31
804.131	152.06
804.311	244.22
804.491	195.07
804.67	215.55
804.85	219.64
805.03	260.6
805.209	305.66
805.389	236.03
805.568	178.69
805.748	219.64
805.928	283.13
806.107	190.97
806.287	246.27
806.466	287.23
806.646	268.8
806.825	174.59
807.004	270.84
807.184	186.88
807.363	250.36
807.543	219.64
807.722	219.64
807.901	201.21
808.081	240.12
808.26	133.63
808.439	217.6
808.619	193.02
808.798	186.88
808.977	199.16
809.156	201.21
809.336	186.88
809.515	203.26
809.694	225.79
809.873	184.83
810.052	197.12
810.231	219.64
810.411	162.3
810.59	217.6
810.769	215.55
810.948	242.17
811.127	137.73
811.306	123.39
811.485	109.05
811.664	240.12
811.843	145.92
812.022	109.05
812.201	133.63
812.38	145.92
812.559	238.08
812.737	154.11
812.916	266.75
813.095	217.6
813.274	133.63
813.453	180.73
813.632	256.51
813.811	172.54
813.989	168.45
814.168	150.01
814.347	186.88
814.526	170.49
814.704	107.01
814.883	160.25
815.062	127.49
815.24	197.12
815.419	139.77
815.598	113.15
815.776	162.3
815.955	141.82
816.133	109.05
816.312	156.16
816.49	135.68
816.669	111.1
816.847	133.63
817.026	113.15
817.204	66.05
817.383	76.29
817.561	37.38
817.74	170.49
817.918	127.49
818.097	94.72
818.275	176.64
818.453	193.02
818.632	143.87
818.81	104.96
818.988	102.91
819.167	107.01
819.345	141.82
819.523	203.26
819.701	170.49
819.879	176.64
820.058	49.66
820.236	90.62
820.414	143.87
820.592	102.91
820.77	154.11
820.948	-38.4
821.127	162.3
821.305	205.31
821.483	109.05
821.661	111.1
821.839	117.25
822.017	133.63
822.195	98.81
822.373	186.88
822.551	154.11
822.729	162.3
822.907	127.49
823.085	117.25
823.262	129.53
823.44	152.06
823.618	131.58
823.796	55.81
823.974	139.77
824.152	68.09
824.329	100.86
824.507	135.68
824.685	92.67
824.863	162.3
825.04	117.25
825.218	20.99
825.396	100.86
825.574	94.72
825.751	111.1
825.929	166.4
826.107	96.77
826.284	64
826.462	139.77
826.639	76.29
826.817	74.24
826.994	61.95
827.172	37.38
827.349	168.45
827.527	64
827.704	117.25
827.882	152.06
828.059	100.86
828.237	168.45
828.414	113.15
828.591	78.33
828.769	27.14
828.946	66.05
829.124	72.19
829.301	86.53
829.478	115.2
829.655	100.86
829.833	125.44
830.01	53.76
830.187	59.9
830.364	111.1
830.542	111.1
830.719	78.33
830.896	55.81
831.073	53.76
831.25	41.47
831.427	53.76
831.604	137.73
831.782	131.58
831.959	78.33
832.136	45.57
832.313	64
832.49	86.53
832.667	57.86
832.844	121.34
833.021	51.71
833.198	88.57
833.374	68.09
833.551	72.19
833.728	78.33
833.905	70.14
834.082	47.62
834.259	43.52
834.436	107.01
834.612	72.19
834.789	76.29
834.966	82.43
835.143	55.81
835.319	57.86
835.496	154.11
835.673	76.29
835.85	84.48
836.026	16.9
836.203	82.43
836.38	27.14
836.556	39.42
836.733	111.1
836.909	82.43
837.086	18.94
837.262	70.14
837.439	70.14
837.616	-9.73
837.792	27.14
837.968	154.11
838.145	-9.73
838.321	59.9
838.498	158.21
838.674	107.01
838.851	70.14
839.027	47.62
839.203	45.57
839.38	70.14
839.556	-13.82
839.732	86.53
839.909	61.95
840.085	29.18
840.261	-15.87
840.437	92.67
840.614	35.33
840.79	55.81
840.966	37.38
841.142	72.19
841.318	10.75
841.494	64
841.671	70.14
841.847	84.48
842.023	80.38
842.199	107.01
842.375	88.57
842.551	25.09
842.727	31.23
842.903	135.68
843.079	-38.4
843.255	45.57
843.431	88.57
843.607	35.33
843.783	55.81
843.959	66.05
844.134	31.23
844.31	37.38
844.486	2.56
844.662	57.86
844.838	80.38
845.013	43.52
845.189	27.14
845.365	49.66
845.541	55.81
845.716	-24.06
845.892	31.23
846.068	0.51
846.244	-40.45
846.419	84.48
846.595	-15.87
846.77	4.61
846.946	70.14
847.122	45.57
847.297	-11.78
847.473	61.95
847.648	70.14
847.824	61.95
847.999	6.66
848.175	25.09
848.35	51.71
848.526	74.24
848.701	14.85
848.876	27.14
849.052	111.1
849.227	14.85
849.403	-15.87
849.578	-9.73
849.753	64
849.929	113.15
850.104	-52.74
850.279	49.66
850.454	90.62
850.63	76.29
850.805	82.43
850.98	14.85
851.155	27.14
851.33	59.9
851.505	23.04
851.681	90.62
851.856	29.18
852.031	70.14
852.206	41.47
852.381	39.42
852.556	51.71
852.731	29.18
852.906	80.38
853.081	-40.45
853.256	113.15
853.431	20.99
853.606	-11.78
853.781	-34.3
853.956	-34.3
854.131	53.76
854.305	-28.16
854.48	57.86
854.655	23.04
854.83	37.38
855.005	31.23
855.18	66.05
855.354	-46.59
855.529	14.85
855.704	23.04
855.879	70.14
856.053	-3.58
856.228	47.62
856.403	-73.21
856.577	35.33
856.752	16.9
856.926	59.9
857.101	-11.78
857.276	20.99
857.45	-5.63
857.625	16.9
857.799	-30.21
857.974	-26.11
858.148	43.52
858.323	45.57
858.497	31.23
858.672	-7.68
858.846	-7.68
859.02	12.8
859.195	-7.68
859.369	-13.82
859.543	51.71
859.718	-28.16
859.892	68.09
860.066	41.47
860.241	20.99
860.415	4.61
860.589	78.33
860.763	25.09
860.938	4.61
861.112	57.86
861.286	8.7
861.46	29.18
861.634	10.75
861.808	10.75
861.982	43.52
862.157	-56.83
862.331	88.57
862.505	53.76
862.679	-58.88
862.853	2.56
863.027	102.91
863.201	25.09
863.375	12.8
863.549	27.14
863.722	47.62
863.896	61.95
864.07	43.52
864.244	-28.16
864.418	2.56
864.592	39.42
864.766	20.99
864.939	-9.73
865.113	-7.68
865.287	53.76
865.461	-9.73
865.634	8.7
865.808	31.23
865.982	-56.83
866.156	10.75
866.329	-54.78
866.503	10.75
866.676	33.28
866.85	6.66
867.024	12.8
867.197	70.14
867.371	-11.78
867.544	-17.92
867.718	-36.35
867.891	10.75
868.065	31.23
868.238	23.04
868.412	-26.11
868.585	2.56
868.759	6.66
868.932	12.8
869.105	33.28
869.279	-52.74
869.452	14.85
869.625	-5.63
869.799	-60.93
869.972	8.7
870.145	-22.02
870.319	2.56
870.492	20.99
870.665	-54.78
870.838	2.56
871.011	-11.78
871.185	27.14
871.358	31.23
871.531	61.95
871.704	-24.06
871.877	-50.69
872.05	-19.97
872.223	-9.73
872.396	41.47
872.569	23.04
872.742	-46.59
872.915	78.33
873.088	-30.21
873.261	4.61
873.434	23.04
873.607	-30.21
873.78	39.42
873.953	2.56
874.126	0.51
874.299	-5.63
874.471	-50.69
874.644	45.57
874.817	23.04
874.99	86.53
875.163	10.75
875.335	35.33
875.508	-42.5
875.681	-24.06
875.853	80.38
876.026	6.66
876.199	-28.16
876.371	0.51
876.544	-54.78
876.717	6.66
876.889	-34.3
877.062	0.51
877.234	-3.58
877.407	-9.73
877.579	-13.82
877.752	59.9
877.924	4.61
878.097	-54.78
878.269	49.66
878.442	2.56
878.614	70.14
878.786	-26.11
878.959	0.51
879.131	92.67
879.303	-56.83
879.476	-17.92
879.648	29.18
879.82	37.38
879.993	-36.35
880.165	43.52
880.337	-26.11
880.509	43.52
880.681	-17.92
880.854	-46.59
881.026	43.52
881.198	117.25
881.37	-38.4
881.542	45.57
881.714	39.42
881.886	4.61
882.058	43.52
882.23	31.23
882.402	-46.59
882.574	18.94
882.746	-62.98
882.918	-30.21
883.09	25.09
883.262	-97.79
883.434	4.61
883.606	-79.36
883.778	16.9
883.95	43.52
884.122	-34.3
884.293	12.8
884.465	12.8
884.637	39.42
884.809	-48.64
884.98	4.61
885.152	-26.11
885.324	2.56
885.496	31.23
885.667	66.05
885.839	-26.11
886.011	16.9
886.182	-11.78
886.354	-26.11
886.525	-24.06
886.697	0.51
886.869	-52.74
887.04	35.33
887.212	27.14
887.383	41.47
887.555	-40.45
887.726	-17.92
887.897	-9.73
888.069	51.71
888.24	20.99
888.412	27.14
888.583	6.66
888.754	-44.54
888.926	-3.58
889.097	-22.02
889.268	4.61
889.44	10.75
889.611	-65.02
889.782	35.33
889.953	45.57
890.125	100.86
890.296	39.42
890.467	6.66
890.638	-62.98
890.809	-3.58
890.98	-1.54
891.151	-1.54
891.323	-17.92
891.494	57.86
891.665	35.33
891.836	51.71
892.007	-85.5
892.178	-30.21
892.349	-32.26
892.52	20.99
892.691	-13.82
892.862	31.23
893.032	43.52
893.203	37.38
893.374	-5.63
893.545	37.38
893.716	-9.73
893.887	-19.97
894.057	-15.87
894.228	16.9
894.399	-7.68
894.57	-9.73
894.74	41.47
894.911	-62.98
895.082	-11.78
895.253	-34.3
895.423	-52.74
895.594	-13.82
895.764	20.99
895.935	-11.78
896.106	-56.83
896.276	-1.54
896.447	-17.92
896.617	0.51
896.788	39.42
896.958	-7.68
897.129	10.75
897.299	-44.54
897.47	14.85
897.64	-9.73
897.81	-1.54
897.981	25.09
898.151	-34.3
898.322	-34.3
898.492	-15.87
898.662	-30.21
898.832	39.42
899.003	-22.02
899.173	-42.5
899.343	18.94
899.513	39.42
