Data from USB4F104151__11__11-04-40-615.txt Node

Date: Wed Mar 12 11:04:40 EDT 2025
User: louis
Spectrometer: USB4F10415
Trigger mode: 4
Integration Time (sec): 2.000000E-2
Scans to average: 1
Electric dark correction enabled: true
Nonlinearity correction enabled: false
Boxcar width: 0
XAxis mode: Wavelengths
Number of Pixels in Spectrum: 3648
>>>>>Begin Spectral Data<<<<<
178.204	-112.3
178.424	-112.3
178.644	-112.3
178.864	-50.86
179.084	-24.23
179.304	-42.67
179.524	24.92
179.744	-11.95
179.964	-1.71
180.184	22.87
180.404	35.16
180.624	45.4
180.844	-5.8
181.064	-57
181.283	-7.85
181.503	4.44
181.723	-5.8
181.943	43.35
182.163	29.01
182.383	57.68
182.602	31.06
182.822	4.44
183.042	112.98
183.262	45.4
183.482	47.44
183.701	-11.95
183.921	61.78
184.141	6.49
184.361	76.12
184.58	-26.28
184.8	-26.28
185.02	61.78
185.239	123.22
185.459	18.77
185.679	12.63
185.898	47.44
186.118	57.68
186.338	65.88
186.557	82.26
186.777	8.53
186.997	76.12
187.216	29.01
187.436	43.35
187.655	-26.28
187.875	-38.57
188.095	67.92
188.314	10.58
188.534	51.54
188.753	24.92
188.973	86.36
189.192	127.32
189.412	31.06
189.631	22.87
189.851	-36.52
190.07	63.83
190.29	-24.23
190.509	-34.47
190.729	29.01
190.948	47.44
191.168	37.2
191.387	76.12
191.607	51.54
191.826	-34.47
192.045	2.39
192.265	102.74
192.484	102.74
192.704	78.16
192.923	8.53
193.142	20.82
193.362	43.35
193.581	65.88
193.8	2.39
194.02	55.64
194.239	-7.85
194.458	31.06
194.678	16.73
194.897	59.73
195.116	-16.04
195.335	-1.71
195.555	100.69
195.774	37.2
195.993	69.97
196.212	57.68
196.432	0.34
196.651	20.82
196.87	-65.19
197.089	59.73
197.308	55.64
197.528	57.68
197.747	78.16
197.966	90.45
198.185	43.35
198.404	-1.71
198.623	-20.14
198.842	59.73
199.062	16.73
199.281	51.54
199.5	-28.33
199.719	-9.9
199.938	59.73
200.157	108.88
200.376	4.44
200.595	86.36
200.814	22.87
201.033	29.01
201.252	37.2
201.471	35.16
201.69	22.87
201.909	57.68
202.128	-30.38
202.347	-13.99
202.566	80.21
202.785	0.34
203.004	-13.99
203.223	92.5
203.442	31.06
203.661	35.16
203.879	-16.04
204.098	-24.23
204.317	-46.76
204.536	123.22
204.755	49.49
204.974	65.88
205.193	55.64
205.411	67.92
205.63	8.53
205.849	59.73
206.068	45.4
206.287	57.68
206.505	61.78
206.724	49.49
206.943	45.4
207.162	55.64
207.381	55.64
207.599	14.68
207.818	6.49
208.037	59.73
208.255	26.96
208.474	53.59
208.693	-7.85
208.911	2.39
209.13	63.83
209.349	41.3
209.567	57.68
209.786	41.3
210.005	-13.99
210.223	18.77
210.442	18.77
210.661	49.49
210.879	31.06
211.098	59.73
211.316	98.64
211.535	-5.8
211.753	45.4
211.972	33.11
212.191	39.25
212.409	74.07
212.628	20.82
212.846	39.25
213.065	20.82
213.283	80.21
213.502	51.54
213.72	6.49
213.938	88.4
214.157	82.26
214.375	10.58
214.594	49.49
214.812	63.83
215.031	80.21
215.249	57.68
215.467	51.54
215.686	10.58
215.904	76.12
216.122	82.26
216.341	67.92
216.559	49.49
216.778	61.78
216.996	39.25
217.214	88.4
217.432	-57
217.651	33.11
217.869	104.79
218.087	37.2
218.306	12.63
218.524	33.11
218.742	96.6
218.96	2.39
219.179	59.73
219.397	55.64
219.615	82.26
219.833	84.31
220.051	0.34
220.27	88.4
220.488	0.34
220.706	43.35
220.924	-18.09
221.142	41.3
221.36	61.78
221.578	59.73
221.796	55.64
222.015	84.31
222.233	2.39
222.451	100.69
222.669	-18.09
222.887	18.77
223.105	-9.9
223.323	-1.71
223.541	47.44
223.759	74.07
223.977	61.78
224.195	127.32
224.413	86.36
224.631	12.63
224.849	133.46
225.067	80.21
225.285	55.64
225.503	51.54
225.721	43.35
225.939	69.97
226.157	51.54
226.375	88.4
226.592	-28.33
226.81	100.69
227.028	41.3
227.246	80.21
227.464	41.3
227.682	-1.71
227.9	69.97
228.117	37.2
228.335	61.78
228.553	86.36
228.771	16.73
228.989	49.49
229.206	86.36
229.424	80.21
229.642	12.63
229.86	86.36
230.077	31.06
230.295	78.16
230.513	16.73
230.731	98.64
230.948	6.49
231.166	78.16
231.384	65.88
231.601	-36.52
231.819	24.92
232.037	110.93
232.254	53.59
232.472	-13.99
232.689	0.34
232.907	-5.8
233.125	57.68
233.342	29.01
233.56	57.68
233.777	29.01
233.995	49.49
234.213	55.64
234.43	67.92
234.648	90.45
234.865	67.92
235.083	74.07
235.3	41.3
235.518	110.93
235.735	51.54
235.953	76.12
236.17	53.59
236.388	14.68
236.605	90.45
236.822	61.78
237.04	8.53
237.257	22.87
237.475	22.87
237.692	69.97
237.909	22.87
238.127	0.34
238.344	-24.23
238.562	90.45
238.779	88.4
238.996	6.49
239.214	100.69
239.431	61.78
239.648	67.92
239.865	74.07
240.083	2.39
240.3	29.01
240.517	74.07
240.735	164.18
240.952	74.07
241.169	24.92
241.386	0.34
241.603	35.16
241.821	69.97
242.038	72.02
242.255	41.3
242.472	65.88
242.689	92.5
242.907	51.54
243.124	41.3
243.341	-16.04
243.558	31.06
243.775	20.82
243.992	-18.09
244.209	84.31
244.426	88.4
244.643	57.68
244.86	-9.9
245.078	0.34
245.295	24.92
245.512	45.4
245.729	63.83
245.946	-11.95
246.163	49.49
246.38	86.36
246.597	45.4
246.814	39.25
247.031	45.4
247.248	78.16
247.464	-13.99
247.681	33.11
247.898	84.31
248.115	43.35
248.332	47.44
248.549	57.68
248.766	76.12
248.983	22.87
249.2	35.16
249.417	18.77
249.633	-28.33
249.85	53.59
250.067	-28.33
250.284	92.5
250.501	26.96
250.717	57.68
250.934	-18.09
251.151	45.4
251.368	-40.62
251.585	24.92
251.801	18.77
252.018	18.77
252.235	47.44
252.451	-28.33
252.668	74.07
252.885	102.74
253.102	72.02
253.318	80.21
253.535	82.26
253.752	33.11
253.968	16.73
254.185	65.88
254.401	57.68
254.618	69.97
254.835	4.44
255.051	84.31
255.268	26.96
255.484	39.25
255.701	57.68
255.917	84.31
256.134	61.78
256.351	59.73
256.567	37.2
256.784	53.59
257	-1.71
257.217	55.64
257.433	57.68
257.65	74.07
257.866	-7.85
258.082	63.83
258.299	4.44
258.515	57.68
258.732	106.84
258.948	20.82
259.165	59.73
259.381	69.97
259.597	76.12
259.814	41.3
260.03	57.68
260.246	49.49
260.463	24.92
260.679	-11.95
260.895	10.58
261.112	69.97
261.328	92.5
261.544	18.77
261.761	67.92
261.977	43.35
262.193	84.31
262.409	20.82
262.626	57.68
262.842	104.79
263.058	29.01
263.274	-28.33
263.49	22.87
263.707	31.06
263.923	10.58
264.139	57.68
264.355	20.82
264.571	80.21
264.787	76.12
265.004	24.92
265.22	39.25
265.436	16.73
265.652	-5.8
265.868	112.98
266.084	35.16
266.3	-3.75
266.516	33.11
266.732	43.35
266.948	45.4
267.164	110.93
267.38	90.45
267.596	45.4
267.812	63.83
268.028	45.4
268.244	20.82
268.46	18.77
268.676	39.25
268.892	82.26
269.108	8.53
269.324	53.59
269.54	57.68
269.756	0.34
269.972	26.96
270.188	33.11
270.403	33.11
270.619	35.16
270.835	55.64
271.051	-48.81
271.267	20.82
271.483	76.12
271.698	22.87
271.914	76.12
272.13	117.08
272.346	26.96
272.562	39.25
272.777	78.16
272.993	-46.76
273.209	57.68
273.425	96.6
273.64	84.31
273.856	94.55
274.072	29.01
274.287	51.54
274.503	8.53
274.719	65.88
274.934	149.84
275.15	108.88
275.366	22.87
275.581	2.39
275.797	-13.99
276.012	57.68
276.228	78.16
276.444	53.59
276.659	67.92
276.875	63.83
277.09	110.93
277.306	45.4
277.521	63.83
277.737	22.87
277.952	61.78
278.168	-13.99
278.383	37.2
278.599	22.87
278.814	86.36
279.03	41.3
279.245	80.21
279.461	18.77
279.676	14.68
279.892	94.55
280.107	78.16
280.322	37.2
280.538	29.01
280.753	39.25
280.969	35.16
281.184	20.82
281.399	22.87
281.615	61.78
281.83	98.64
282.045	41.3
282.26	39.25
282.476	139.6
282.691	51.54
282.906	43.35
283.122	18.77
283.337	76.12
283.552	31.06
283.767	-44.71
283.983	45.4
284.198	24.92
284.413	100.69
284.628	47.44
284.843	43.35
285.058	65.88
285.274	35.16
285.489	47.44
285.704	90.45
285.919	80.21
286.134	29.01
286.349	53.59
286.564	37.2
286.779	-9.9
286.995	49.49
287.21	-22.19
287.425	8.53
287.64	57.68
287.855	59.73
288.07	33.11
288.285	65.88
288.5	53.59
288.715	80.21
288.93	65.88
289.145	-9.9
289.36	16.73
289.575	94.55
289.79	24.92
290.004	88.4
290.219	55.64
290.434	51.54
290.649	0.34
290.864	74.07
291.079	39.25
291.294	51.54
291.509	98.64
291.724	29.01
291.938	37.2
292.153	55.64
292.368	96.6
292.583	100.69
292.798	39.25
293.012	86.36
293.227	-26.28
293.442	-1.71
293.657	-13.99
293.871	88.4
294.086	45.4
294.301	80.21
294.516	117.08
294.73	61.78
294.945	12.63
295.16	0.34
295.374	72.02
295.589	-11.95
295.804	35.16
296.018	59.73
296.233	137.56
296.447	-9.9
296.662	-7.85
296.877	43.35
297.091	61.78
297.306	37.2
297.52	82.26
297.735	53.59
297.949	51.54
298.164	43.35
298.378	57.68
298.593	14.68
298.807	37.2
299.022	26.96
299.236	35.16
299.451	84.31
299.665	90.45
299.88	115.03
300.094	26.96
300.309	31.06
300.523	61.78
300.737	37.2
300.952	22.87
301.166	4.44
301.381	22.87
301.595	18.77
301.809	-57
302.024	53.59
302.238	20.82
302.452	63.83
302.667	10.58
302.881	65.88
303.095	53.59
303.309	88.4
303.524	20.82
303.738	61.78
303.952	65.88
304.166	0.34
304.381	39.25
304.595	39.25
304.809	100.69
305.023	135.51
305.237	82.26
305.452	106.84
305.666	49.49
305.88	10.58
306.094	26.96
306.308	-5.8
306.522	98.64
306.736	94.55
306.95	80.21
307.164	-16.04
307.379	74.07
307.593	-1.71
307.807	80.21
308.021	51.54
308.235	67.92
308.449	8.53
308.663	41.3
308.877	119.12
309.091	29.01
309.305	72.02
309.519	117.08
309.733	102.74
309.947	-69.29
310.161	131.41
310.374	16.73
310.588	67.92
310.802	0.34
311.016	29.01
311.23	-24.23
311.444	8.53
311.658	-3.75
311.872	72.02
312.085	78.16
312.299	78.16
312.513	127.32
312.727	18.77
312.941	37.2
313.154	63.83
313.368	-24.23
313.582	72.02
313.796	29.01
314.009	53.59
314.223	67.92
314.437	33.11
314.651	172.37
314.864	61.78
315.078	-1.71
315.292	67.92
315.505	129.36
315.719	67.92
315.933	53.59
316.146	69.97
316.36	63.83
316.573	80.21
316.787	0.34
317.001	45.4
317.214	151.89
317.428	143.7
317.641	14.68
317.855	61.78
318.068	29.01
318.282	49.49
318.495	151.89
318.709	92.5
318.922	39.25
319.136	110.93
319.349	86.36
319.563	104.79
319.776	59.73
319.99	14.68
320.203	96.6
320.417	123.22
320.63	-16.04
320.843	84.31
321.057	69.97
321.27	119.12
321.483	51.54
321.697	59.73
321.91	98.64
322.124	82.26
322.337	24.92
322.55	67.92
322.763	51.54
322.977	53.59
323.19	121.17
323.403	22.87
323.617	59.73
323.83	37.2
324.043	135.51
324.256	55.64
324.469	61.78
324.683	90.45
324.896	35.16
325.109	57.68
325.322	49.49
325.535	-7.85
325.748	41.3
325.962	14.68
326.175	88.4
326.388	76.12
326.601	108.88
326.814	133.46
327.027	67.92
327.24	82.26
327.453	8.53
327.666	108.88
327.879	63.83
328.092	20.82
328.305	49.49
328.518	59.73
328.731	76.12
328.944	123.22
329.157	24.92
329.37	12.63
329.583	12.63
329.796	59.73
330.009	76.12
330.222	84.31
330.435	22.87
330.648	16.73
330.861	51.54
331.073	92.5
331.286	49.49
331.499	33.11
331.712	-34.47
331.925	100.69
332.138	164.18
332.35	123.22
332.563	53.59
332.776	123.22
332.989	69.97
333.202	10.58
333.414	20.82
333.627	119.12
333.84	-7.85
334.053	59.73
334.265	33.11
334.478	12.63
334.691	-26.28
334.903	53.59
335.116	16.73
335.329	106.84
335.541	67.92
335.754	82.26
335.966	43.35
336.179	51.54
336.392	61.78
336.604	6.49
336.817	94.55
337.029	31.06
337.242	67.92
337.454	104.79
337.667	29.01
337.88	104.79
338.092	98.64
338.305	47.44
338.517	94.55
338.729	76.12
338.942	123.22
339.154	72.02
339.367	-1.71
339.579	-11.95
339.792	41.3
340.004	123.22
340.217	4.44
340.429	65.88
340.641	61.78
340.854	67.92
341.066	67.92
341.278	88.4
341.491	102.74
341.703	78.16
341.915	86.36
342.128	96.6
342.34	33.11
342.552	-3.75
342.764	63.83
342.977	41.3
343.189	8.53
343.401	29.01
343.613	67.92
343.826	55.64
344.038	14.68
344.25	98.64
344.462	14.68
344.674	102.74
344.886	49.49
345.099	57.68
345.311	194.9
345.523	53.59
345.735	49.49
345.947	67.92
346.159	12.63
346.371	94.55
346.583	57.68
346.795	84.31
347.007	123.22
347.219	112.98
347.431	80.21
347.643	106.84
347.855	24.92
348.067	78.16
348.279	-9.9
348.491	110.93
348.703	80.21
348.915	106.84
349.127	29.01
349.339	86.36
349.551	100.69
349.763	92.5
349.975	-36.52
350.187	43.35
350.399	22.87
350.61	106.84
350.822	-18.09
351.034	-32.43
351.246	115.03
351.458	45.4
351.669	106.84
351.881	100.69
352.093	6.49
352.305	33.11
352.517	33.11
352.728	47.44
352.94	57.68
353.152	139.6
353.363	55.64
353.575	94.55
353.787	43.35
353.999	133.46
354.21	108.88
354.422	102.74
354.633	51.54
354.845	35.16
355.057	74.07
355.268	78.16
355.48	26.96
355.692	47.44
355.903	57.68
356.115	49.49
356.326	37.2
356.538	135.51
356.749	-7.85
356.961	90.45
357.172	55.64
357.384	61.78
357.595	102.74
357.807	-5.8
358.018	86.36
358.23	57.68
358.441	96.6
358.653	106.84
358.864	110.93
359.075	94.55
359.287	149.84
359.498	127.32
359.709	18.77
359.921	39.25
360.132	96.6
360.344	104.79
360.555	90.45
360.766	22.87
360.977	67.92
361.189	127.32
361.4	4.44
361.611	137.56
361.823	74.07
362.034	104.79
362.245	65.88
362.456	139.6
362.667	74.07
362.879	121.17
363.09	102.74
363.301	43.35
363.512	127.32
363.723	86.36
363.935	57.68
364.146	104.79
364.357	84.31
364.568	55.64
364.779	49.49
364.99	61.78
365.201	84.31
365.412	149.84
365.623	57.68
365.834	47.44
366.045	76.12
366.256	104.79
366.467	98.64
366.678	61.78
366.889	98.64
367.1	53.59
367.311	90.45
367.522	170.32
367.733	88.4
367.944	94.55
368.155	117.08
368.366	80.21
368.577	94.55
368.788	20.82
368.999	45.4
369.209	112.98
369.42	24.92
369.631	108.88
369.842	51.54
370.053	65.88
370.264	119.12
370.474	33.11
370.685	88.4
370.896	18.77
371.107	121.17
371.317	90.45
371.528	90.45
371.739	121.17
371.95	121.17
372.16	57.68
372.371	94.55
372.582	-9.9
372.792	96.6
373.003	86.36
373.214	115.03
373.424	69.97
373.635	33.11
373.846	127.32
374.056	55.64
374.267	129.36
374.477	47.44
374.688	72.02
374.898	145.75
375.109	41.3
375.319	139.6
375.53	184.66
375.74	160.08
375.951	92.5
376.161	90.45
376.372	176.47
376.582	45.4
376.793	63.83
377.003	53.59
377.214	86.36
377.424	14.68
377.635	84.31
377.845	119.12
378.055	47.44
378.266	55.64
378.476	112.98
378.686	98.64
378.897	76.12
379.107	57.68
379.317	72.02
379.528	24.92
379.738	0.34
379.948	24.92
380.158	65.88
380.369	80.21
380.579	115.03
380.789	26.96
380.999	115.03
381.21	115.03
381.42	115.03
381.63	24.92
381.84	141.65
382.05	133.46
382.261	98.64
382.471	76.12
382.681	31.06
382.891	147.8
383.101	147.8
383.311	67.92
383.521	133.46
383.731	80.21
383.941	57.68
384.151	51.54
384.361	127.32
384.571	94.55
384.781	74.07
384.991	98.64
385.201	176.47
385.411	26.96
385.621	123.22
385.831	57.68
386.041	149.84
386.251	115.03
386.461	67.92
386.671	41.3
386.881	53.59
387.091	76.12
387.301	74.07
387.511	135.51
387.72	41.3
387.93	80.21
388.14	94.55
388.35	78.16
388.56	98.64
388.769	90.45
388.979	4.44
389.189	123.22
389.399	112.98
389.609	115.03
389.818	129.36
390.028	125.27
390.238	31.06
390.447	49.49
390.657	119.12
390.867	102.74
391.076	-18.09
391.286	72.02
391.496	104.79
391.705	129.36
391.915	108.88
392.125	104.79
392.334	102.74
392.544	100.69
392.753	78.16
392.963	90.45
393.172	35.16
393.382	72.02
393.591	115.03
393.801	55.64
394.01	112.98
394.22	129.36
394.429	162.13
394.639	102.74
394.848	131.41
395.058	90.45
395.267	137.56
395.477	123.22
395.686	151.89
395.895	145.75
396.105	123.22
396.314	115.03
396.524	153.94
396.733	123.22
396.942	170.32
397.152	143.7
397.361	153.94
397.57	151.89
397.78	141.65
397.989	172.37
398.198	194.9
398.407	209.23
398.617	131.41
398.826	110.93
399.035	205.14
399.244	180.56
399.453	211.28
399.663	153.94
399.872	160.08
400.081	172.37
400.29	137.56
400.499	108.88
400.708	235.86
400.917	168.27
401.127	151.89
401.336	141.65
401.545	246.1
401.754	127.32
401.963	227.67
402.172	207.19
402.381	205.14
402.59	110.93
402.799	209.23
403.008	207.19
403.217	168.27
403.426	121.17
403.635	176.47
403.844	67.92
404.053	235.86
404.262	160.08
404.471	244.05
404.68	221.52
404.888	250.19
405.097	221.52
405.306	256.34
405.515	252.24
405.724	258.39
405.933	260.43
406.142	237.91
406.35	282.96
406.559	313.68
406.768	258.39
406.977	330.06
407.185	276.82
407.394	274.77
407.603	258.39
407.812	344.4
408.02	373.07
408.229	334.16
408.438	354.64
408.646	344.4
408.855	403.79
409.064	315.73
409.272	305.49
409.481	473.42
409.69	424.27
409.898	422.22
410.107	364.88
410.315	491.85
410.524	471.37
410.733	432.46
410.941	469.33
411.15	495.95
411.358	532.81
411.567	520.53
411.775	551.24
411.984	590.16
412.192	586.06
412.401	534.86
412.609	678.22
412.818	700.75
413.026	735.56
413.234	719.18
413.443	721.23
413.651	717.13
413.86	835.91
414.068	864.58
414.276	831.82
414.485	901.45
414.693	948.55
414.901	969.03
415.11	1003.85
415.318	934.22
415.526	1083.72
415.734	1179.97
415.943	1108.29
416.151	1265.99
416.359	1098.05
416.567	1155.4
416.776	1282.37
416.984	1304.9
417.192	1315.14
417.4	1347.9
417.608	1360.19
417.817	1554.75
418.025	1571.13
418.233	1708.35
418.441	1659.2
418.649	1679.68
418.857	1806.65
419.065	1931.58
419.273	1857.85
419.481	2015.54
419.689	2097.46
419.897	2187.57
420.105	2300.21
420.313	2273.59
420.521	2289.97
420.729	2298.16
420.937	2357.55
421.145	2476.34
421.353	2582.83
421.561	2769.2
421.769	2863.4
421.977	2865.45
422.185	2834.73
422.393	3082.53
422.601	3297.57
422.809	3277.09
423.017	3283.24
423.224	3445.02
423.432	3547.42
423.64	3473.7
423.848	3901.72
424.056	3823.9
424.263	4133.14
424.471	4167.96
424.679	4206.87
424.887	4331.8
425.094	4497.68
425.302	4645.13
425.51	4770.06
425.718	4837.64
425.925	4897.03
426.133	5208.33
426.341	5382.4
426.548	5697.79
426.756	5832.96
426.964	5847.29
427.171	5986.55
427.379	6285.56
427.586	6263.03
427.794	6510.83
428.001	6789.36
428.209	7137.51
428.417	7004.39
428.624	7588.07
428.832	7563.49
429.039	7674.08
429.247	7649.5
429.454	8294.61
429.662	8939.72
429.869	8091.87
430.076	8700.11
430.284	8478.93
430.491	9009.36
430.699	9406.66
430.906	9408.71
431.114	9547.97
431.321	9894.08
431.528	10078.4
431.736	10666.16
431.943	11362.47
432.15	10832.05
432.358	10975.41
432.565	11378.86
432.772	11475.11
432.979	12034.21
433.187	12386.46
433.394	12365.98
433.601	13289.61
433.808	13498.5
434.016	13176.97
434.223	13842.56
434.43	14706.8
434.637	14102.65
434.844	15175.79
435.052	15749.22
435.259	15388.78
435.466	15603.82
435.673	15603.82
435.88	16623.7
436.087	17563.72
436.294	17334.35
436.501	16949.33
436.708	17520.71
436.915	17795.14
437.122	18774.07
437.329	18595.9
437.537	19421.23
437.743	19753
437.95	19458.09
438.157	20602.91
438.364	20858.9
438.571	21217.3
438.778	21309.46
438.985	23392.24
439.192	22415.36
439.399	23076.85
439.606	22317.06
439.813	23721.96
440.02	25198.55
440.227	24766.43
440.433	24676.32
440.64	25786.32
440.847	25241.56
441.054	26013.64
441.261	27688.88
441.467	27314.1
441.674	27807.66
441.881	28485.54
442.088	28676
442.294	28321.7
442.501	29482.9
442.708	29777.81
442.914	31092.6
443.121	32245.61
443.328	30994.3
443.534	33947.47
443.741	32575.33
443.948	32546.66
444.154	34856.77
444.361	34412.36
444.568	34785.09
444.774	34707.27
444.981	35116.86
445.187	36138.8
445.394	37517.08
445.6	37553.94
445.807	40726.25
446.013	38575.88
446.22	39575.29
446.426	41152.23
446.633	41500.38
446.839	42780.36
447.046	40849.13
447.252	43345.6
447.459	43529.92
447.665	43069.12
447.871	45022.89
448.078	46632.59
448.284	44687.02
448.491	45530.78
448.697	47439.49
448.903	47851.13
449.11	48383.6
449.316	47421.06
449.522	48203.38
449.728	49555.04
449.935	49657.44
450.141	49661.54
450.347	50988.62
450.553	49534.56
450.76	49729.12
450.966	51170.89
451.172	50701.9
451.378	51336.77
451.584	50992.72
451.791	51709.5
451.997	51580.48
452.203	52227.64
452.409	52143.67
452.615	51951.16
452.821	49815.13
453.027	49557.09
453.233	51824.19
453.44	49684.06
453.646	50525.78
453.852	50613.84
454.058	51461.7
454.264	49610.34
454.47	50777.68
454.676	49383.01
454.882	50800.21
455.088	46593.68
455.294	46966.41
455.5	47722.11
455.705	48086.65
455.911	46366.35
456.117	45254.31
456.323	45014.69
456.529	42036.95
456.735	43939.51
456.941	42890.95
457.147	42264.27
457.352	40767.21
457.558	40404.72
457.764	40482.54
457.97	39591.67
458.176	38862.6
458.381	39028.48
458.587	36724.52
458.793	36497.19
458.999	35012.42
459.204	37170.97
459.41	36407.08
459.616	33918.8
459.821	33955.66
460.027	33752.91
460.233	33040.22
460.438	31350.65
460.644	31661.94
460.85	29908.88
461.055	30056.33
461.261	29945.74
461.466	27342.77
461.672	26814.4
461.878	29073.31
462.083	26798.01
462.289	26415.04
462.494	25993.16
462.7	25155.54
462.905	24518.62
463.111	25192.4
463.316	25153.49
463.522	24502.24
463.727	24811.48
463.932	25063.38
464.138	24690.65
464.343	24446.94
464.549	23549.93
464.754	25051.1
464.959	24672.22
465.165	24461.28
465.37	23359.47
465.575	22665.21
465.781	23511.02
465.986	23584.75
466.191	23048.18
466.397	22474.75
466.602	21497.87
466.807	22061.06
467.012	22364.16
467.218	21854.22
467.423	21698.57
467.628	21917.7
467.833	22710.27
468.038	22040.58
468.244	21368.85
468.449	22308.86
468.654	21692.43
468.859	21366.8
469.064	21350.42
469.269	20510.75
469.474	20336.67
469.679	20867.09
469.885	20146.21
470.09	20633.63
470.295	20389.92
470.5	19998.76
470.705	20414.49
470.91	19519.53
471.115	19394.61
471.32	19802.15
471.525	19367.98
471.73	19193.9
471.935	19062.83
472.139	18563.13
472.344	18643
472.549	18223.17
472.754	17946.69
472.959	18018.37
473.164	17268.81
473.369	17426.51
473.574	17594.44
473.778	17670.22
473.983	17281.1
474.188	17320.01
474.393	16881.75
474.598	16679
474.802	16431.19
475.007	16459.87
475.212	16377.95
475.417	15700.07
475.621	15620.2
475.826	15962.21
476.031	15599.72
476.235	15444.07
476.44	15657.06
476.645	15276.14
476.849	15159.41
477.054	14803.06
477.259	14796.92
477.463	14944.37
477.668	14366.84
477.872	14405.75
478.077	14166.14
478.282	14291.07
478.486	13951.1
478.691	13820.03
478.895	13815.94
479.1	13875.33
479.304	14047.36
479.509	13439.11
479.713	13621.38
479.918	13093.01
480.122	13250.7
480.326	13250.7
480.531	13189.26
480.735	13146.25
480.94	12847.25
481.144	13361.29
481.348	12802.19
481.553	12798.1
481.757	12853.39
481.961	13029.52
482.166	13000.85
482.37	12869.78
482.574	12773.52
482.778	12730.52
482.983	12869.78
483.187	12894.35
483.391	12800.15
483.595	12877.97
483.8	12523.67
484.004	12624.02
484.208	12888.21
484.412	12765.33
484.616	12650.64
484.821	12855.44
485.025	12535.96
485.229	12812.43
485.433	12753.04
485.637	12773.52
485.841	12675.22
486.045	12730.52
486.249	12599.45
486.453	12732.56
486.657	12916.88
486.861	12880.02
487.065	12599.45
487.269	12591.25
487.473	12560.53
487.677	12794
487.881	12863.63
488.085	12667.03
488.289	12927.12
488.493	12578.97
488.697	12994.7
488.901	12918.93
489.105	12789.91
489.309	12775.57
489.512	13058.19
489.716	13064.33
489.92	12755.09
490.124	12931.22
490.328	13099.15
490.531	12908.69
490.735	12998.8
490.939	13414.54
491.143	12894.35
491.346	13088.91
491.55	13273.23
491.754	13344.91
491.958	13484.17
492.161	13418.63
492.365	13783.17
492.569	13447.3
492.772	13449.35
492.976	13660.29
493.18	13572.23
493.383	13744.26
493.587	14030.98
493.79	13820.03
493.994	13854.85
494.197	14289.02
494.401	14264.44
494.605	14299.26
494.808	14407.8
495.012	14618.74
495.215	14293.12
495.419	14430.33
495.622	14784.63
495.825	14805.11
496.029	14870.64
496.232	15081.58
496.436	15288.43
496.639	15517.8
496.843	15655.01
497.046	15880.29
497.249	15857.76
497.453	15947.87
497.656	16259.17
497.859	16226.4
498.063	16386.14
498.266	16627.8
498.469	16760.92
498.673	17080.4
498.876	17121.36
499.079	17266.77
499.282	17154.13
499.485	17520.71
499.689	17889.35
499.892	17973.32
500.095	18131.01
500.298	18726.97
500.501	18462.78
500.705	18737.21
500.908	19054.64
501.111	19267.63
501.314	19261.49
501.517	19730.47
501.72	19916.84
501.923	19626.03
502.126	20129.83
502.329	20584.48
502.532	20793.37
502.735	20985.88
502.938	21071.89
503.141	21274.64
503.344	21737.48
503.547	21594.12
503.75	22065.16
503.953	22272
504.156	22351.87
504.359	22487.04
504.562	22833.14
504.765	23302.13
504.968	23418.86
505.17	23807.98
505.373	23889.9
505.576	24287.2
505.779	24537.05
505.982	24596.45
506.185	25221.08
506.387	25309.14
506.59	25282.52
506.793	25970.63
506.996	25735.12
507.198	26654.65
507.401	26392.51
507.604	26537.92
507.807	27217.85
508.009	27494.32
508.212	27510.71
508.415	27795.37
508.617	28065.71
508.82	28284.84
509.022	28116.9
509.225	29257.62
509.428	29302.68
509.63	29564.82
509.833	29310.87
510.035	30207.88
510.238	30001.04
510.44	30769.02
510.643	30850.94
510.845	31397.75
511.048	31221.62
511.25	31412.09
511.453	31598.45
511.655	32917.34
511.858	32499.56
512.06	32681.83
512.262	33144.67
512.465	33249.11
512.667	33519.45
512.87	34195.28
513.072	34297.67
513.274	34686.79
513.477	34981.7
513.679	35102.53
513.881	36153.13
514.084	36060.98
514.286	36206.38
514.488	36392.75
514.69	37330.72
514.893	37330.72
515.095	37357.34
515.297	38094.61
515.499	37850.9
515.701	38508.3
515.904	38807.3
516.106	39134.98
516.308	39132.93
516.51	39933.68
516.712	40406.76
516.914	40535.79
517.116	41191.14
517.318	41023.2
517.52	41010.92
517.722	41551.58
517.925	42227.41
518.127	42618.57
518.329	43290.3
518.531	42591.95
518.733	43458.24
518.935	43845.3
519.136	43370.18
519.338	44734.12
519.54	44488.37
519.742	44717.74
519.944	44881.58
520.146	45852.31
520.348	46257.81
520.55	46399.12
520.752	46327.44
520.954	47007.37
521.155	47099.53
521.357	47847.04
521.559	48096.89
521.761	48565.87
521.963	48742
522.164	48424.56
522.366	48838.25
522.568	49735.26
522.77	49596
522.971	50505.3
523.173	50112.09
523.375	50538.07
523.576	50660.94
523.778	50837.07
523.98	51400.26
524.181	51578.43
524.383	51547.71
524.584	52170.3
524.786	52198.97
524.988	52008.51
525.189	52799.02
525.391	53089.84
525.592	52979.24
525.794	53833.25
525.995	53530.15
526.197	53585.44
526.398	53653.03
526.6	54203.93
526.801	54277.66
527.003	54535.7
527.204	54384.15
527.406	54767.12
527.607	55096.84
527.808	55533.06
528.01	54425.11
528.211	55158.28
528.412	56233.47
528.614	55895.55
528.815	55358.98
529.016	56602.1
529.218	55625.22
529.419	56454.65
529.62	56167.93
529.822	56403.45
530.023	56272.38
530.224	56380.92
530.425	56227.32
530.626	55842.31
530.828	55870.98
531.029	57658.85
531.23	56505.85
531.431	56331.77
531.632	56944.11
531.833	57591.27
532.035	56937.97
532.236	57144.81
532.437	57140.72
532.638	56925.68
532.839	57533.93
533.04	57550.31
533.241	56927.73
533.442	58189.28
533.643	57497.06
533.844	57673.19
534.045	57658.85
534.246	56858.1
534.447	57388.52
534.648	57277.93
534.849	57523.69
535.05	57034.22
535.251	57736.68
535.451	57239.02
535.652	58111.45
535.853	57382.38
536.054	57984.48
536.255	58074.59
536.456	57570.79
536.657	58349.02
536.857	57519.59
537.058	57454.06
537.259	57775.59
537.46	58123.74
537.66	57914.85
537.861	57996.77
538.062	57320.94
538.263	57845.22
538.463	57009.65
538.664	57423.34
538.865	57370.09
539.065	58002.91
539.266	57247.21
539.466	57638.37
539.667	56894.96
539.868	57740.77
540.068	57138.67
540.269	57368.04
540.469	57820.64
540.67	57153.01
540.87	57353.71
541.071	57290.22
541.271	57470.44
541.472	57386.47
541.672	57058.8
541.873	57019.89
542.073	56958.45
542.274	57904.61
542.474	57146.86
542.675	56933.87
542.875	57599.46
543.075	57382.38
543.276	56526.33
543.476	57226.73
543.676	56976.88
543.877	57681.38
544.077	57279.98
544.277	57206.25
544.478	56653.3
544.678	57247.21
544.878	57640.42
545.078	57288.17
545.279	57093.61
545.479	56833.52
545.679	57224.68
545.879	57087.47
546.079	56657.4
546.28	56669.68
546.48	56440.31
546.68	56952.3
546.88	57042.41
547.08	56559.09
547.28	56464.89
547.48	56473.08
547.68	57083.37
547.88	56653.3
548.081	56790.51
548.281	56952.3
548.481	56763.89
548.681	57107.95
548.881	56778.23
549.081	56626.68
549.28	56704.5
549.48	56972.78
549.68	56479.22
549.88	57140.72
550.08	56157.69
550.28	56667.64
550.48	56436.22
550.68	57066.99
550.88	56323.58
551.08	56305.15
551.279	56460.79
551.479	56034.81
551.679	56595.96
551.879	56110.59
552.079	56432.12
552.278	56391.16
552.478	56522.23
552.678	56221.18
552.878	56751.6
553.077	56049.15
553.277	55768.58
553.477	56757.75
553.676	56274.43
553.876	56456.7
554.076	56174.08
554.275	55965.18
554.475	55610.88
554.674	56247.8
554.874	56047.1
555.074	56247.8
555.273	55897.6
555.473	56227.32
555.672	55461.38
555.872	55723.52
556.071	55909.89
556.271	55873.02
556.47	55246.35
556.67	55019.02
556.869	55029.26
557.068	55092.75
557.268	55016.97
557.467	55518.73
557.667	55356.94
557.866	55488.01
558.065	55576.07
558.265	54597.14
558.464	54511.13
558.663	55488.01
558.863	54539.8
559.062	55588.36
559.261	54457.88
559.461	55307.79
559.66	53954.08
559.859	54937.1
560.058	54208.03
560.258	54459.93
560.457	53751.33
560.656	54568.47
560.855	54257.18
561.054	54226.46
561.253	53990.94
561.453	54044.19
561.652	53616.16
561.851	54044.19
562.05	53704.23
562.249	53618.21
562.448	54126.11
562.647	53878.3
562.846	53421.61
563.045	53601.83
563.244	52770.35
563.443	53786.14
563.642	52676.15
563.841	52852.27
564.04	53057.07
564.239	53487.14
564.438	52565.56
564.637	52934.19
564.836	53110.31
565.035	52393.53
565.234	52397.62
565.432	52637.23
565.631	52487.73
565.83	52254.26
566.029	52041.28
566.228	52162.11
566.427	51781.18
566.625	51514.95
566.824	50812.49
567.023	51738.18
567.222	50710.1
567.42	51539.52
567.619	51033.67
567.818	51209.8
568.016	50884.17
568.215	51406.4
568.414	50634.32
568.612	51205.7
568.811	50763.34
569.01	50636.37
569.208	49829.47
569.407	50921.04
569.605	49862.24
569.804	50619.98
570.002	49823.33
570.201	50660.94
570.4	49628.77
570.598	49882.72
570.797	49536.61
570.995	49737.31
571.193	48860.78
571.392	49727.07
571.59	49026.67
571.789	48948.84
571.987	48875.12
572.186	49256.04
572.384	48494.19
572.582	49071.72
572.781	48664.17
572.979	48660.08
573.177	48326.26
573.376	48483.95
573.574	48088.7
573.772	48342.64
573.971	47801.98
574.169	47980.15
574.367	47236.74
574.565	47871.61
574.763	47457.92
574.962	47613.57
575.16	46786.19
575.358	47797.88
575.556	46882.44
575.754	47033.99
575.952	46845.58
576.151	47148.68
576.349	45944.47
576.547	46823.05
576.745	46298.77
576.943	46216.85
577.141	46155.41
577.339	46313.11
577.537	45764.25
577.735	45711
577.933	45311.65
578.131	45512.35
578.329	45500.06
578.527	45266.59
578.725	45145.76
578.923	45450.91
579.121	44674.73
579.319	45125.28
579.516	45178.53
579.714	45119.14
579.912	44764.84
580.11	44623.53
580.308	44553.9
580.506	44138.16
580.704	43833.02
580.901	43949.75
581.099	44283.57
581.297	44011.19
581.495	43814.58
581.692	43857.59
581.89	43681.47
582.088	43787.96
582.285	43570.88
582.483	43511.49
582.681	43210.43
582.878	43097.8
583.076	42467.02
583.274	43226.82
583.471	42778.31
583.669	42690.25
583.866	42430.16
584.064	42610.38
584.262	42372.81
584.459	42667.72
584.657	42002.13
584.854	42331.86
585.052	41809.62
585.249	42112.72
585.447	41658.07
585.644	41715.42
585.841	41709.27
586.039	41830.1
586.236	41166.56
586.434	41324.25
586.631	41092.83
586.828	40955.62
587.026	41256.67
587.223	40769.26
587.42	40781.54
587.618	40976.1
587.815	40113.91
588.012	40275.69
588.21	40097.52
588.407	40431.34
588.604	39814.9
588.801	39968.5
588.999	39943.92
589.196	39689.98
589.393	39458.56
589.59	39380.73
589.787	39323.39
589.984	38768.39
590.182	38745.86
590.379	39069.44
590.576	38508.3
590.773	39053.06
590.97	38651.66
591.167	38614.79
591.364	38303.5
591.561	38665.99
591.758	38164.24
591.955	38094.61
592.152	37961.49
592.349	37981.97
592.546	37959.44
592.743	37881.62
592.94	37424.92
593.137	37762.84
593.334	37340.96
593.531	37009.18
593.727	37314.33
593.924	37021.47
594.121	36966.18
594.318	37203.74
594.515	36527.91
594.712	36923.17
594.908	36366.12
595.105	36794.15
595.302	36325.16
595.499	36646.69
595.696	35954.48
595.892	35833.65
596.089	36615.97
596.286	35962.67
596.482	35659.57
596.679	35798.84
596.876	35591.99
597.072	35446.58
597.269	35448.63
597.466	35147.58
597.662	35299.13
597.859	35487.54
598.055	35149.63
598.252	34713.41
598.448	34910.02
598.645	34770.75
598.841	34412.36
599.038	34701.12
599.234	34072.4
599.431	34137.93
599.627	34019.15
599.824	33965.9
600.02	33830.74
600.217	33875.79
600.413	33990.48
600.609	33298.27
600.806	33191.77
601.002	33802.07
601.198	33249.11
601.395	33281.88
601.591	33111.9
601.787	33132.38
601.984	33130.33
602.18	33474.39
602.376	32716.64
602.572	32520.04
602.769	32552.8
602.965	32233.32
603.161	32188.27
603.357	32305
603.553	32014.19
603.75	32378.73
603.946	31782.77
604.142	31932.27
604.338	31483.76
604.534	31848.3
604.73	31154.04
604.926	31494
605.122	31317.88
605.318	31309.69
605.514	31125.37
605.71	31000.44
605.906	31065.98
606.102	30955.39
606.298	30916.48
606.494	30769.02
606.69	30541.7
606.886	30852.99
607.082	30474.12
607.278	30715.78
607.474	30279.56
607.67	30734.21
607.866	29994.89
608.062	30261.13
608.257	29775.76
608.453	30355.33
608.649	30041.99
608.845	29646.74
609.041	30033.8
609.236	29861.77
609.432	29792.14
609.628	29530
609.824	29550.48
610.019	29263.77
610.215	29300.63
610.411	29728.66
610.606	29325.21
610.802	29314.97
610.998	29435.8
611.193	29417.36
611.389	29251.48
611.584	29202.33
611.78	29091.74
611.976	28884.89
612.171	28921.76
612.367	28809.12
612.562	28843.93
612.758	28448.68
612.953	28096.42
613.149	28944.28
613.344	28538.79
613.539	28712.86
613.735	28161.96
613.93	28700.58
614.126	28180.39
614.321	28348.32
614.517	28198.82
614.712	28258.21
614.907	28342.18
615.103	28458.92
615.298	27905.96
615.493	28514.21
615.688	28016.55
615.884	28061.61
616.079	27768.75
616.274	27936.68
616.47	27934.64
616.665	27961.26
616.86	27457.46
617.055	27559.86
617.25	27504.56
617.445	27713.45
617.641	27086.78
617.836	27750.32
618.031	26924.99
618.226	27230.13
618.421	26847.16
618.616	27340.72
618.811	26247.11
619.006	27008.95
619.201	26388.42
619.396	26783.68
619.591	26128.33
619.786	26494.91
619.981	25786.32
620.176	26380.23
620.371	25645.01
620.566	26337.22
620.761	25700.3
620.956	26019.78
621.151	25425.87
621.346	25532.37
621.541	25147.35
621.735	25577.42
621.93	24735.71
622.125	25085.91
622.32	24629.21
622.515	24983.51
622.709	24686.56
622.904	24635.36
623.099	24070.12
623.294	24451.04
623.488	23943.14
623.683	24037.35
623.878	23674.86
624.072	23887.85
624.267	23877.61
624.462	23660.52
624.656	23470.06
624.851	23594.99
625.046	23283.7
625.24	23111.67
625.435	23015.41
625.629	22960.12
625.824	22429.7
626.018	22714.36
626.213	21995.53
626.407	22204.42
626.602	22075.4
626.796	22192.13
626.991	22163.46
627.185	21835.78
627.38	21682.19
627.574	21520.4
627.768	21547.02
627.963	21520.4
628.157	21430.29
628.352	21364.75
628.546	21082.13
628.74	21075.99
628.935	20582.43
629.129	20885.53
629.323	20508.7
629.517	20586.52
629.712	20254.75
629.906	20541.47
630.1	19959.84
630.294	20138.02
630.489	19927.08
630.683	19800.1
630.877	19798.06
631.071	19564.59
631.265	19611.69
631.459	19562.54
631.653	19458.09
631.848	19093.55
632.042	19177.52
632.236	19388.46
632.43	18708.54
632.624	18942
632.818	18677.82
633.012	18483.26
633.206	18720.82
633.4	18870.33
633.594	18384.96
633.788	18223.17
633.982	18438.2
634.176	18274.37
634.369	18153.54
634.563	17952.84
634.757	17639.5
634.951	17918.02
635.145	17731.65
635.339	17819.72
635.533	17639.5
635.726	17516.62
635.92	17168.46
636.114	17375.31
636.308	17076.3
636.501	17117.26
636.695	17068.11
636.889	16826.45
637.083	16734.29
637.276	16836.69
637.47	16787.54
637.664	16545.88
637.857	16595.03
638.051	16547.93
638.244	16287.84
638.438	16093.28
638.632	16001.12
638.825	16044.13
639.019	16126.05
639.212	15706.21
639.406	16048.22
639.599	15650.92
639.793	15624.29
639.986	15491.18
640.18	15728.74
640.373	15390.83
640.567	15218.8
640.76	15130.73
640.954	15005.81
641.147	14823.54
641.34	15034.48
641.534	15050.86
641.727	15132.78
641.92	14743.67
642.114	14545.02
642.307	14573.69
642.5	14735.48
642.694	14248.06
642.887	14112.89
643.08	14420.09
643.273	14325.88
643.467	14205.05
643.66	14041.22
643.853	13930.62
644.046	13795.46
644.239	13922.43
644.432	13971.58
644.626	13715.59
644.819	13744.26
645.012	13725.83
645.205	13457.54
645.398	13590.66
645.591	13273.23
645.784	13471.88
645.977	13181.07
646.17	13195.4
646.363	13129.87
646.556	12853.39
646.749	12755.09
646.942	12961.94
647.135	12794
647.328	12927.12
647.521	12673.17
647.714	12763.28
647.907	12431.51
648.099	12441.75
648.292	12480.66
648.485	12331.16
648.678	12239
648.871	12161.18
649.064	12091.55
649.256	12150.94
649.449	11995.29
649.642	11980.96
649.835	11751.59
650.027	11692.19
650.22	11935.9
650.413	11618.47
650.605	11731.11
650.798	11694.24
650.991	11356.33
651.183	11477.16
651.376	11090.09
651.568	11352.23
651.761	11059.37
651.954	11167.91
652.146	11055.28
652.339	11026.61
652.531	11022.51
652.724	11122.86
652.916	10727.6
653.109	10875.06
653.301	10774.7
653.494	10703.03
653.686	10471.61
653.879	10694.83
654.071	10569.91
654.263	10500.28
654.456	10600.63
654.648	10533.04
654.84	10295.48
655.033	10164.41
655.225	10418.36
655.417	10277.05
655.61	10139.83
655.802	10229.95
655.994	9904.32
656.186	10121.4
656.379	9836.74
656.571	9867.45
656.763	9720
656.955	9523.4
657.148	9949.37
657.34	9615.55
657.532	9695.43
657.724	9449.67
657.916	9615.55
658.108	9431.24
658.3	9402.57
658.492	9459.91
658.684	9412.81
658.876	9330.89
659.068	9189.58
659.26	9060.56
659.452	9208.01
659.644	8962.25
659.836	9109.71
660.028	8947.92
660.22	8808.65
660.412	8673.49
660.604	8583.38
660.796	8841.42
660.988	8841.42
661.18	8673.49
661.372	8507.6
661.563	8741.07
661.755	8659.15
661.947	8429.78
662.139	8290.52
662.331	8311
662.522	8409.3
662.714	8210.65
662.906	8237.27
663.097	8200.41
663.289	8263.9
663.481	8153.3
663.673	8124.63
663.864	7917.79
664.056	8065.24
664.247	8057.05
664.439	7774.43
664.631	7913.69
664.822	7827.68
665.014	7977.18
665.205	7745.76
665.397	7854.3
665.588	7829.73
665.78	7684.32
665.971	7559.39
666.163	7778.53
666.354	7631.07
666.546	7557.35
666.737	7467.24
666.929	7512.29
667.12	7516.39
667.311	7510.24
667.503	7262.44
667.694	7340.26
667.885	7401.7
668.077	7344.36
668.268	7201
668.459	7147.75
668.651	7168.23
668.842	7061.74
669.033	7053.55
669.224	7008.49
669.416	7069.93
669.607	6922.48
669.798	6961.39
669.989	6951.15
670.18	6889.71
670.371	7006.44
670.563	6643.95
670.754	6934.76
670.945	6697.2
671.136	6834.41
671.327	6428.92
671.518	6818.03
671.709	6633.71
671.9	6629.62
672.091	6514.93
672.282	6594.8
672.473	6387.96
672.664	6627.57
672.855	6502.64
673.046	6619.38
673.237	6566.13
673.428	6271.22
673.619	6467.83
673.809	6322.42
674	6334.71
674.191	6306.04
674.382	6316.28
674.573	6406.39
674.764	6232.31
674.954	6197.49
675.145	6291.7
675.336	6217.97
675.527	6066.42
675.717	6183.16
675.908	6095.1
676.099	6084.86
676.289	5925.11
676.48	5878.01
676.671	5890.3
676.861	5830.91
677.052	5970.17
677.243	5978.36
677.433	5857.53
677.624	5816.57
677.814	5865.72
678.005	5968.12
678.195	5808.38
678.386	5703.93
678.576	5609.73
678.767	5683.45
678.957	5804.28
679.148	5824.76
679.338	5705.98
679.529	5527.81
679.719	5589.25
679.909	5501.19
680.1	5622.02
680.29	5644.54
680.481	5638.4
680.671	5615.87
680.861	5531.9
681.052	5390.6
681.242	5556.48
681.432	5644.54
681.622	5480.71
681.813	5423.36
682.003	5501.19
682.193	5480.71
682.383	5441.79
682.573	5343.49
682.764	5406.98
682.954	5214.47
683.144	5320.96
683.334	5308.68
683.524	5261.57
683.714	5234.95
683.904	5421.31
684.094	5222.66
684.284	5228.81
684.474	5306.63
684.664	5202.18
684.854	5282.05
685.044	5222.66
685.234	5163.27
685.424	5097.74
685.614	5032.2
685.804	5042.44
685.994	4972.81
686.184	4960.52
686.374	4956.43
686.564	4862.22
686.753	4919.56
686.943	4954.38
687.133	5007.62
687.323	4987.15
687.513	4880.65
687.702	4882.7
687.892	4825.36
688.082	4802.83
688.272	4765.96
688.461	4788.49
688.651	4710.67
688.841	4729.1
689.03	4833.55
689.22	4602.13
689.41	4817.16
689.599	4776.2
689.789	4593.94
689.979	4512.02
690.168	4821.26
690.358	4552.98
690.547	4393.23
690.737	4575.5
690.926	4608.27
691.116	4352.27
691.305	4598.03
691.495	4499.73
691.684	4401.43
691.874	4299.03
692.063	4415.76
692.252	4423.95
692.442	4387.09
692.631	4342.04
692.82	4288.79
693.01	4258.07
693.199	4442.39
693.388	4305.17
693.578	4419.86
693.767	4303.12
693.956	4241.68
694.146	4143.38
694.335	4192.53
694.524	4184.34
694.713	4145.43
694.902	4210.97
695.092	4043.03
695.281	4194.58
695.47	3981.59
695.659	4006.17
695.848	3993.88
696.037	4090.13
696.226	3979.54
696.415	4102.42
696.604	3950.87
696.793	4045.08
696.982	3936.54
697.171	3930.39
697.36	4006.17
697.549	3901.72
697.738	4059.42
697.927	3995.93
698.116	3832.09
698.305	3987.74
698.494	3873.05
698.683	3852.57
698.872	3830.04
699.061	4014.36
699.25	3854.62
699.438	3875.1
699.627	3862.81
699.816	3905.82
700.005	3825.95
700.193	3809.56
700.382	3928.35
700.571	3864.86
700.76	3932.44
700.948	3864.86
701.137	3875.1
701.326	3823.9
701.514	3914.01
701.703	3776.8
701.892	3713.31
702.08	3889.43
702.269	3701.02
702.457	3674.4
702.646	3739.93
702.834	3615.01
703.023	3627.29
703.212	3895.58
703.4	3766.56
703.589	3647.77
703.777	3707.16
703.965	3713.31
704.154	3836.19
704.342	3678.49
704.531	3641.63
704.719	3766.56
704.907	3678.49
705.096	3766.56
705.284	3621.15
705.472	3651.87
705.661	3531.04
705.849	3674.4
706.037	3744.03
706.226	3572
706.414	3789.08
706.602	3723.55
706.79	3645.73
706.979	3633.44
707.167	3537.18
707.355	3684.64
707.543	3535.14
707.731	3643.68
707.919	3696.92
708.107	3492.13
708.296	3506.46
708.484	3512.61
708.672	3627.29
708.86	3621.15
709.048	3514.66
709.236	3584.29
709.424	3496.22
709.612	3453.22
709.8	3498.27
709.988	3610.91
710.176	3551.52
710.364	3451.17
710.551	3442.98
710.739	3537.18
710.927	3455.26
711.115	3498.27
711.303	3524.9
711.491	3533.09
711.679	3526.94
711.866	3404.07
712.054	3608.86
712.242	3438.88
712.43	3584.29
712.617	3418.4
712.805	3436.83
712.993	3557.66
713.181	3471.65
713.368	3449.12
713.556	3383.59
713.744	3410.21
713.931	3449.12
714.119	3291.43
714.306	3436.83
714.494	3432.74
714.682	3277.09
714.869	3410.21
715.057	3313.95
715.244	3367.2
715.432	3309.86
715.619	3375.39
715.807	3316
715.994	3299.62
716.182	3295.52
716.369	3402.02
716.556	3381.54
716.744	3356.96
716.931	3281.19
717.119	3262.76
717.306	3311.91
717.493	3313.95
717.681	3375.39
717.868	3262.76
718.055	3424.55
718.242	3260.71
718.43	3393.83
718.617	3436.83
718.804	3221.8
718.991	3203.36
719.179	3367.2
719.366	3156.26
719.553	3246.37
719.74	3203.36
719.927	3266.85
720.114	3152.17
720.301	3178.79
720.488	3246.37
720.676	3240.23
720.863	3158.31
721.05	3318.05
721.237	3170.6
721.424	3066.15
721.611	3195.17
721.798	3127.59
721.985	3160.36
722.172	3088.68
722.358	3146.02
722.545	3273
722.732	3162.41
722.919	3141.93
723.106	3150.12
723.293	3232.04
723.48	3103.01
723.667	3113.25
723.853	3154.21
724.04	3141.93
724.227	3135.78
724.414	2924.84
724.6	3047.72
724.787	3113.25
724.974	3094.82
725.161	3062.05
725.347	2980.14
725.534	3086.63
725.72	3021.1
725.907	3223.84
726.094	3068.2
726.28	3031.34
726.467	3096.87
726.653	2908.46
726.84	3117.35
727.027	3053.86
727.213	3047.72
727.4	3070.25
727.586	3150.12
727.773	3037.48
727.959	2973.99
728.145	3051.81
728.332	3043.62
728.518	2965.8
728.705	2994.47
728.891	3096.87
729.077	2904.36
729.264	3037.48
729.45	3080.49
729.636	3072.29
729.823	2965.8
730.009	3152.17
730.195	3117.35
730.382	2933.03
730.568	2994.47
730.754	3047.72
730.94	2918.7
731.126	3039.53
731.313	3014.95
731.499	2920.74
731.685	3029.29
731.871	3092.77
732.057	2965.8
732.243	2935.08
732.429	3000.62
732.615	2906.41
732.801	2904.36
732.987	2924.84
733.173	2865.45
733.359	2990.38
733.545	2857.26
733.731	2937.13
733.917	3019.05
734.103	2859.31
734.289	3014.95
734.475	2904.36
734.661	2904.36
734.847	2750.76
735.033	2875.69
735.219	2877.74
735.404	2828.59
735.59	2920.74
735.776	2783.53
735.962	2887.98
736.148	2883.88
736.333	2885.93
736.519	2937.13
736.705	2883.88
736.89	2734.38
737.076	2742.57
737.262	2830.63
737.447	2814.25
737.633	2877.74
737.819	2771.24
738.004	2855.21
738.19	2826.54
738.375	2875.69
738.561	2801.96
738.747	2804.01
738.932	2707.76
739.118	2756.91
739.303	2761
739.489	2736.43
739.674	2810.15
739.859	2752.81
740.045	2718
740.23	2674.99
740.416	2617.65
740.601	2701.61
740.786	2646.32
740.972	2689.32
741.157	2644.27
741.342	2586.93
741.528	2707.76
741.713	2558.25
741.898	2695.47
742.084	2728.24
742.269	2674.99
742.454	2613.55
742.639	2750.76
742.824	2695.47
743.01	2646.32
743.195	2488.62
743.38	2599.21
743.565	2531.63
743.75	2554.16
743.935	2337.07
744.12	2656.56
744.305	2515.25
744.49	2541.87
744.675	2451.76
744.86	2474.29
745.045	2519.34
745.23	2416.94
745.415	2396.46
745.6	2453.81
745.785	2402.61
745.97	2421.04
746.155	2367.79
746.34	2478.38
746.525	2337.07
746.71	2330.93
746.895	2453.81
747.079	2283.83
747.264	2214.2
747.449	2312.5
747.634	2246.96
747.819	2335.03
748.003	2263.35
748.188	2292.02
748.373	2242.87
748.557	2330.93
748.742	2199.86
748.927	2244.92
749.111	2179.38
749.296	2152.76
749.481	2095.41
749.665	2005.3
749.85	2103.61
750.034	2105.65
750.219	2081.08
750.404	2148.66
750.588	2085.17
750.773	2091.32
750.957	2068.79
751.141	1950.01
751.326	1911.1
751.51	1945.91
751.695	2015.54
751.879	1937.72
752.064	1911.1
752.248	1861.94
752.432	1904.95
752.617	1945.91
752.801	1915.19
752.985	1857.85
753.17	1982.78
753.354	1931.58
753.538	1839.42
753.722	1861.94
753.907	1921.34
754.091	1761.59
754.275	1847.61
754.459	1726.78
754.643	1861.94
754.828	1812.79
755.012	1796.41
755.196	1732.92
755.38	1694.01
755.564	1671.48
755.748	1667.39
755.932	1683.77
756.116	1624.38
756.3	1689.92
756.484	1659.2
756.668	1599.8
756.852	1591.61
757.036	1618.24
757.22	1685.82
757.404	1589.57
757.588	1628.48
757.772	1579.33
757.956	1673.53
758.14	1585.47
758.323	1552.7
758.507	1515.84
758.691	1493.31
758.875	1567.04
759.059	1587.52
759.242	1519.93
759.426	1501.5
759.61	1507.65
759.794	1526.08
759.977	1442.11
760.161	1511.74
760.345	1466.69
760.528	1450.3
760.712	1448.26
760.895	1513.79
761.079	1399.1
761.263	1360.19
761.446	1456.45
761.63	1417.54
761.813	1282.37
761.997	1321.28
762.18	1448.26
762.364	1411.39
762.547	1431.87
762.731	1417.54
762.914	1370.43
763.098	1347.9
763.281	1296.71
763.464	1440.06
763.648	1331.52
763.831	1333.57
764.015	1362.24
764.198	1372.48
764.381	1210.69
764.564	1311.04
764.748	1239.36
764.931	1317.19
765.114	1245.51
765.297	1308.99
765.481	1204.55
765.664	1206.59
765.847	1200.45
766.03	1237.31
766.213	1241.41
766.397	1272.13
766.58	1239.36
766.763	1204.55
766.946	1200.45
767.129	1161.54
767.312	1136.96
767.495	1147.2
767.678	1188.16
767.861	1155.4
768.044	1192.26
768.227	1155.4
768.41	1161.54
768.593	1165.64
768.776	1149.25
768.959	1157.44
769.142	1134.92
769.324	1200.45
769.507	1139.01
769.69	1200.45
769.873	1132.87
770.056	1145.16
770.239	1141.06
770.421	1155.4
770.604	1171.78
770.787	1091.91
770.97	1085.76
771.152	1112.39
771.335	1083.72
771.518	1081.67
771.7	1089.86
771.883	1089.86
772.066	971.08
772.248	1079.62
772.431	1108.29
772.613	1048.9
772.796	1046.85
772.978	1036.61
773.161	960.84
773.343	1024.33
773.526	960.84
773.708	979.27
773.891	995.65
774.073	1024.33
774.256	1032.52
774.438	1005.89
774.621	977.22
774.803	1032.52
774.985	905.54
775.168	944.45
775.35	1067.33
775.532	1040.71
775.715	911.69
775.897	938.31
776.079	942.41
776.261	878.92
776.444	928.07
776.626	799.05
776.808	813.38
776.99	864.58
777.173	831.82
777.355	909.64
777.537	932.17
777.719	895.3
777.901	780.62
778.083	921.93
778.265	848.2
778.447	846.15
778.629	878.92
778.811	835.91
778.993	835.91
779.175	766.28
779.357	753.99
779.539	803.15
779.721	803.15
779.903	719.18
780.085	729.42
780.267	786.76
780.449	723.27
780.631	784.71
780.812	735.56
780.994	721.23
781.176	651.6
781.358	698.7
781.54	805.19
781.721	676.17
781.903	639.31
782.085	723.27
782.267	715.08
782.448	622.92
782.63	739.66
782.812	729.42
782.993	721.23
783.175	692.55
783.357	649.55
783.538	674.12
783.72	704.84
783.901	686.41
784.083	631.12
784.264	620.88
784.446	641.36
784.627	596.3
784.809	538.96
784.99	596.3
785.172	622.92
785.353	577.87
785.535	624.97
785.716	581.96
785.897	581.96
786.079	676.17
786.26	547.15
786.441	614.73
786.623	551.24
786.804	567.63
786.985	569.68
787.167	600.4
787.348	577.87
787.529	565.58
787.71	592.2
787.891	584.01
788.073	538.96
788.254	608.59
788.435	524.62
788.616	549.2
788.797	557.39
788.978	469.33
789.159	547.15
789.34	450.89
789.522	473.42
789.703	563.53
789.884	405.84
790.065	538.96
790.246	479.57
790.427	448.85
790.607	469.33
790.788	493.9
790.969	475.47
791.15	467.28
791.331	454.99
791.512	393.55
791.693	424.27
791.874	512.33
792.054	495.95
792.235	463.18
792.416	399.7
792.597	500.05
792.778	426.32
792.958	469.33
793.139	469.33
793.32	495.95
793.5	389.46
793.681	508.24
793.862	434.51
794.042	461.13
794.223	448.85
794.404	387.41
794.584	366.93
794.765	446.8
794.945	416.08
795.126	332.11
795.306	442.7
795.487	379.22
795.667	442.7
795.848	440.65
796.028	414.03
796.209	395.6
796.389	405.84
796.57	448.85
796.75	387.41
796.93	430.41
797.111	391.5
797.291	391.5
797.471	418.13
797.652	330.06
797.832	354.64
798.012	381.26
798.192	360.78
798.373	358.74
798.553	373.07
798.733	375.12
798.913	332.11
799.093	368.98
799.274	385.36
799.454	414.03
799.634	332.11
799.814	352.59
799.994	332.11
800.174	328.02
800.354	254.29
800.534	414.03
800.714	344.4
800.894	287.06
801.074	311.63
801.254	319.82
801.434	424.27
801.614	385.36
801.794	303.44
801.974	655.69
802.154	258.39
802.334	311.63
802.514	282.96
802.693	385.36
802.873	354.64
803.053	303.44
803.233	358.74
803.413	289.1
803.592	303.44
803.772	346.45
803.952	291.15
804.131	287.06
804.311	262.48
804.491	291.15
804.67	250.19
804.85	295.25
805.03	274.77
805.209	313.68
805.389	250.19
805.568	231.76
805.748	242
805.928	282.96
806.107	256.34
806.287	309.58
806.466	209.23
806.646	301.39
806.825	225.62
807.004	285.01
807.184	276.82
807.363	342.35
807.543	180.56
807.722	186.71
807.901	303.44
808.081	229.71
808.26	242
808.439	346.45
808.619	219.47
808.798	295.25
808.977	227.67
809.156	264.53
809.336	211.28
809.515	311.63
809.694	242
809.873	252.24
810.052	291.15
810.231	260.43
810.411	287.06
810.59	311.63
810.769	217.43
810.948	219.47
811.127	198.99
811.306	235.86
811.485	209.23
811.664	229.71
811.843	266.58
812.022	209.23
812.201	155.99
812.38	229.71
812.559	188.75
812.737	246.1
812.916	180.56
813.095	209.23
813.274	213.33
813.453	235.86
813.632	229.71
813.811	262.48
813.989	143.7
814.168	192.85
814.347	176.47
814.526	268.63
814.704	186.71
814.883	258.39
815.062	170.32
815.24	188.75
815.419	164.18
815.598	268.63
815.776	176.47
815.955	201.04
816.133	178.51
816.312	196.95
816.49	256.34
816.669	164.18
816.847	176.47
817.026	164.18
817.204	188.75
817.383	217.43
817.561	170.32
817.74	158.03
817.918	229.71
818.097	194.9
818.275	151.89
818.453	117.08
818.632	270.67
818.81	217.43
818.988	172.37
819.167	213.33
819.345	180.56
819.523	155.99
819.701	166.23
819.879	153.94
820.058	188.75
820.236	178.51
820.414	162.13
820.592	258.39
820.77	184.66
820.948	223.57
821.127	131.41
821.305	192.85
821.483	76.12
821.661	194.9
821.839	176.47
822.017	139.6
822.195	172.37
822.373	145.75
822.551	143.7
822.729	184.66
822.907	188.75
823.085	143.7
823.262	74.07
823.44	131.41
823.618	190.8
823.796	205.14
823.974	151.89
824.152	119.12
824.329	166.23
824.507	231.76
824.685	117.08
824.863	172.37
825.04	170.32
825.218	78.16
825.396	127.32
825.574	147.8
825.751	115.03
825.929	155.99
826.107	123.22
826.284	192.85
826.462	131.41
826.639	106.84
826.817	139.6
826.994	74.07
827.172	121.17
827.349	166.23
827.527	131.41
827.704	141.65
827.882	151.89
828.059	203.09
828.237	100.69
828.414	108.88
828.591	78.16
828.769	82.26
828.946	123.22
829.124	104.79
829.301	92.5
829.478	108.88
829.655	131.41
829.833	57.68
830.01	88.4
830.187	125.27
830.364	125.27
830.542	151.89
830.719	153.94
830.896	147.8
831.073	123.22
831.25	127.32
831.427	178.51
831.604	117.08
831.782	110.93
831.959	182.61
832.136	106.84
832.313	104.79
832.49	110.93
832.667	135.51
832.844	98.64
833.021	82.26
833.198	160.08
833.374	129.36
833.551	153.94
833.728	137.56
833.905	90.45
834.082	90.45
834.259	143.7
834.436	198.99
834.612	65.88
834.789	131.41
834.966	98.64
835.143	147.8
835.319	94.55
835.496	155.99
835.673	96.6
835.85	135.51
836.026	102.74
836.203	139.6
836.38	155.99
836.556	123.22
836.733	57.68
836.909	145.75
837.086	65.88
837.262	55.64
837.439	139.6
837.616	151.89
837.792	106.84
837.968	78.16
838.145	72.02
838.321	141.65
838.498	72.02
838.674	98.64
838.851	61.78
839.027	65.88
839.203	115.03
839.38	74.07
839.556	78.16
839.732	104.79
839.909	86.36
840.085	84.31
840.261	47.44
840.437	110.93
840.614	65.88
840.79	102.74
840.966	115.03
841.142	57.68
841.318	94.55
841.494	55.64
841.671	139.6
841.847	84.31
842.023	96.6
842.199	84.31
842.375	158.03
842.551	104.79
842.727	35.16
842.903	127.32
843.079	12.63
843.255	90.45
843.431	61.78
843.607	137.56
843.783	86.36
843.959	100.69
844.134	80.21
844.31	18.77
844.486	104.79
844.662	49.49
844.838	57.68
845.013	125.27
845.189	57.68
845.365	55.64
845.541	110.93
845.716	137.56
845.892	100.69
846.068	18.77
846.244	51.54
846.419	33.11
846.595	72.02
846.77	67.92
846.946	76.12
847.122	108.88
847.297	51.54
847.473	151.89
847.648	8.53
847.824	155.99
847.999	41.3
848.175	41.3
848.35	63.83
848.526	137.56
848.701	88.4
848.876	47.44
849.052	49.49
849.227	96.6
849.403	61.78
849.578	-24.23
849.753	49.49
849.929	94.55
850.104	12.63
850.279	127.32
850.454	160.08
850.63	22.87
850.805	29.01
850.98	100.69
851.155	33.11
851.33	45.4
851.505	51.54
851.681	100.69
851.856	63.83
852.031	-11.95
852.206	86.36
852.381	82.26
852.556	139.6
852.731	96.6
852.906	90.45
853.081	117.08
853.256	90.45
853.431	82.26
853.606	31.06
853.781	-13.99
853.956	102.74
854.131	86.36
854.305	24.92
854.48	61.78
854.655	63.83
854.83	8.53
855.005	76.12
855.18	-7.85
855.354	41.3
855.529	63.83
855.704	33.11
855.879	100.69
856.053	55.64
856.228	16.73
856.403	53.59
856.577	72.02
856.752	39.25
856.926	121.17
857.101	92.5
857.276	55.64
857.45	53.59
857.625	84.31
857.799	2.39
857.974	47.44
858.148	65.88
858.323	137.56
858.497	22.87
858.672	129.36
858.846	49.49
859.02	59.73
859.195	61.78
859.369	26.96
859.543	82.26
859.718	29.01
859.892	84.31
860.066	78.16
860.241	-18.09
860.415	61.78
860.589	35.16
860.763	155.99
860.938	45.4
861.112	119.12
861.286	90.45
861.46	57.68
861.634	24.92
861.808	139.6
861.982	-3.75
862.157	90.45
862.331	74.07
862.505	39.25
862.679	-36.52
862.853	65.88
863.027	0.34
863.201	12.63
863.375	-11.95
863.549	88.4
863.722	43.35
863.896	37.2
864.07	74.07
864.244	121.17
864.418	20.82
864.592	59.73
864.766	67.92
864.939	86.36
865.113	18.77
865.287	84.31
865.461	53.59
865.634	29.01
865.808	4.44
865.982	74.07
866.156	119.12
866.329	29.01
866.503	45.4
866.676	29.01
866.85	-48.81
867.024	98.64
867.197	78.16
867.371	24.92
867.544	88.4
867.718	61.78
867.891	-3.75
868.065	-11.95
868.238	33.11
868.412	22.87
868.585	49.49
868.759	51.54
868.932	26.96
869.105	131.41
869.279	100.69
869.452	45.4
869.625	41.3
869.799	86.36
869.972	8.53
870.145	0.34
870.319	8.53
870.492	-11.95
870.665	33.11
870.838	76.12
871.011	-9.9
871.185	57.68
871.358	35.16
871.531	-1.71
871.704	22.87
871.877	69.97
872.05	37.2
872.223	43.35
872.396	59.73
872.569	47.44
872.742	-71.34
872.915	108.88
873.088	-42.67
873.261	33.11
873.434	39.25
873.607	82.26
873.78	74.07
873.953	24.92
874.126	41.3
874.299	-38.57
874.471	33.11
874.644	-9.9
874.817	45.4
874.99	37.2
875.163	12.63
875.335	94.55
875.508	16.73
875.681	72.02
875.853	37.2
876.026	22.87
876.199	90.45
876.371	47.44
876.544	129.36
876.717	16.73
876.889	55.64
877.062	39.25
877.234	76.12
877.407	65.88
877.579	-22.19
877.752	88.4
877.924	84.31
878.097	59.73
878.269	24.92
878.442	12.63
878.614	-26.28
878.786	47.44
878.959	16.73
879.131	37.2
879.303	78.16
879.476	74.07
879.648	6.49
879.82	18.77
879.993	61.78
880.165	18.77
880.337	45.4
880.509	51.54
880.681	-5.8
880.854	18.77
881.026	-7.85
881.198	143.7
881.37	31.06
881.542	65.88
881.714	51.54
881.886	4.44
882.058	29.01
882.23	72.02
882.402	33.11
882.574	-32.43
882.746	4.44
882.918	22.87
883.09	31.06
883.262	20.82
883.434	-7.85
883.606	-46.76
883.778	26.96
883.95	4.44
884.122	14.68
884.293	82.26
884.465	12.63
884.637	117.08
884.809	43.35
884.98	67.92
885.152	90.45
885.324	92.5
885.496	24.92
885.667	-24.23
885.839	31.06
886.011	72.02
886.182	-1.71
886.354	29.01
886.525	0.34
886.697	82.26
886.869	-61.1
887.04	8.53
887.212	-7.85
887.383	104.79
887.555	-16.04
887.726	-3.75
887.897	8.53
888.069	22.87
888.24	33.11
888.412	-38.57
888.583	39.25
888.754	39.25
888.926	26.96
889.097	37.2
889.268	29.01
889.44	57.68
889.611	-9.9
889.782	-36.52
889.953	51.54
890.125	12.63
890.296	-20.14
890.467	-9.9
890.638	-46.76
890.809	86.36
890.98	-83.63
891.151	2.39
891.323	74.07
891.494	90.45
891.665	8.53
891.836	115.03
892.007	0.34
892.178	10.58
892.349	74.07
892.52	20.82
892.691	-11.95
892.862	-7.85
893.032	-36.52
893.203	84.31
893.374	37.2
893.545	65.88
893.716	43.35
893.887	96.6
894.057	35.16
894.228	2.39
894.399	-11.95
894.57	123.22
894.74	6.49
894.911	72.02
895.082	2.39
895.253	-52.91
895.423	57.68
895.594	-9.9
895.764	43.35
895.935	10.58
896.106	2.39
896.276	41.3
896.447	90.45
896.617	-93.87
896.788	4.44
896.958	-38.57
897.129	108.88
897.299	-3.75
897.47	49.49
897.64	-1.71
897.81	47.44
897.981	55.64
898.151	-46.76
898.322	-3.75
898.492	10.58
898.662	-18.09
898.832	43.35
899.003	0.34
899.173	20.82
899.343	-18.09
899.513	35.16
