Data from USB4F104151__238__11-11-22-451.txt Node

Date: Wed Mar 12 11:11:22 EDT 2025
User: louis
Spectrometer: USB4F10415
Trigger mode: 4
Integration Time (sec): 2.000000E-2
Scans to average: 1
Electric dark correction enabled: true
Nonlinearity correction enabled: false
Boxcar width: 0
XAxis mode: Wavelengths
Number of Pixels in Spectrum: 3648
>>>>>Begin Spectral Data<<<<<
178.204	-20.48
178.424	-20.48
178.644	-20.48
178.864	-77.82
179.084	-77.82
179.304	6.14
179.524	57.34
179.744	-12.29
179.964	34.82
180.184	30.72
180.404	-63.49
180.624	-40.96
180.844	28.67
181.064	-0
181.283	-36.86
181.503	-28.67
181.723	24.58
181.943	26.62
182.163	122.88
182.383	-20.48
182.602	92.16
182.822	-14.34
183.042	24.58
183.262	71.68
183.482	73.73
183.701	8.19
183.921	34.82
184.141	-38.91
184.361	16.38
184.58	18.43
184.8	100.35
185.02	51.2
185.239	79.87
185.459	45.06
185.679	75.77
185.898	-47.1
186.118	-20.48
186.338	88.06
186.557	51.2
186.777	4.1
186.997	43.01
187.216	79.87
187.436	51.2
187.655	-4.1
187.875	12.29
188.095	16.38
188.314	18.43
188.534	36.86
188.753	26.62
188.973	118.78
189.192	104.45
189.412	-16.38
189.631	-18.43
189.851	24.58
190.07	4.1
190.29	-12.29
190.509	55.3
190.729	-26.62
190.948	34.82
191.168	71.68
191.387	86.01
191.607	12.29
191.826	-14.34
192.045	47.1
192.265	53.25
192.484	34.82
192.704	94.21
192.923	16.38
193.142	112.64
193.362	65.53
193.581	90.11
193.8	81.92
194.02	24.58
194.239	53.25
194.458	30.72
194.678	6.14
194.897	92.16
195.116	2.05
195.335	12.29
195.555	51.2
195.774	-16.38
195.993	-8.19
196.212	28.67
196.432	43.01
196.651	-43.01
196.87	-16.38
197.089	34.82
197.308	43.01
197.528	51.2
197.747	-61.44
197.966	57.34
198.185	94.21
198.404	26.62
198.623	49.15
198.842	86.01
199.062	45.06
199.281	2.05
199.5	16.38
199.719	110.59
199.938	34.82
200.157	57.34
200.376	161.79
200.595	26.62
200.814	-4.1
201.033	26.62
201.252	-0
201.471	32.77
201.69	32.77
201.909	67.58
202.128	-12.29
202.347	67.58
202.566	4.1
202.785	53.25
203.004	-28.67
203.223	43.01
203.442	63.49
203.661	-0
203.879	20.48
204.098	-8.19
204.317	40.96
204.536	-2.05
204.755	49.15
204.974	51.2
205.193	38.91
205.411	30.72
205.63	16.38
205.849	4.1
206.068	30.72
206.287	18.43
206.505	65.53
206.724	94.21
206.943	24.58
207.162	14.34
207.381	28.67
207.599	28.67
207.818	24.58
208.037	106.49
208.255	43.01
208.474	69.63
208.693	16.38
208.911	55.3
209.13	-28.67
209.349	-2.05
209.567	26.62
209.786	40.96
210.005	67.58
210.223	-16.38
210.442	-38.91
210.661	-12.29
210.879	-26.62
211.098	-38.91
211.316	114.69
211.535	81.92
211.753	-0
211.972	-43.01
212.191	67.58
212.409	-18.43
212.628	-12.29
212.846	-2.05
213.065	-53.25
213.283	43.01
213.502	-4.1
213.72	43.01
213.938	36.86
214.157	47.1
214.375	122.88
214.594	-8.19
214.812	-4.1
215.031	6.14
215.249	-6.14
215.467	2.05
215.686	63.49
215.904	67.58
216.122	61.44
216.341	36.86
216.559	40.96
216.778	73.73
216.996	12.29
217.214	32.77
217.432	12.29
217.651	16.38
217.869	-18.43
218.087	-4.1
218.306	61.44
218.524	61.44
218.742	40.96
218.96	73.73
219.179	43.01
219.397	14.34
219.615	65.53
219.833	57.34
220.051	53.25
220.27	53.25
220.488	83.97
220.706	43.01
220.924	6.14
221.142	-24.58
221.36	36.86
221.578	8.19
221.796	20.48
222.015	36.86
222.233	-14.34
222.451	157.69
222.669	-57.34
222.887	51.2
223.105	-16.38
223.323	-38.91
223.541	67.58
223.759	63.49
223.977	-0
224.195	26.62
224.413	49.15
224.631	38.91
224.849	92.16
225.067	83.97
225.285	-20.48
225.503	-6.14
225.721	75.77
225.939	16.38
226.157	-36.86
226.375	63.49
226.592	4.1
226.81	38.91
227.028	40.96
227.246	55.3
227.464	90.11
227.682	-8.19
227.9	65.53
228.117	77.82
228.335	18.43
228.553	75.77
228.771	38.91
228.989	81.92
229.206	92.16
229.424	55.3
229.642	10.24
229.86	45.06
230.077	59.39
230.295	40.96
230.513	20.48
230.731	45.06
230.948	24.58
231.166	110.59
231.384	65.53
231.601	32.77
231.819	32.77
232.037	51.2
232.254	-28.67
232.472	34.82
232.689	-2.05
232.907	79.87
233.125	26.62
233.342	4.1
233.56	-8.19
233.777	45.06
233.995	45.06
234.213	30.72
234.43	14.34
234.648	59.39
234.865	-30.72
235.083	28.67
235.3	-4.1
235.518	59.39
235.735	81.92
235.953	47.1
236.17	8.19
236.388	24.58
236.605	2.05
236.822	-14.34
237.04	20.48
237.257	92.16
237.475	32.77
237.692	47.1
237.909	53.25
238.127	30.72
238.344	14.34
238.562	-26.62
238.779	32.77
238.996	40.96
239.214	81.92
239.431	51.2
239.648	53.25
239.865	38.91
240.083	88.06
240.3	53.25
240.517	-36.86
240.735	40.96
240.952	71.68
241.169	57.34
241.386	32.77
241.603	18.43
241.821	92.16
242.038	51.2
242.255	51.2
242.472	38.91
242.689	-10.24
242.907	16.38
243.124	10.24
243.341	24.58
243.558	86.01
243.775	51.2
243.992	22.53
244.209	75.77
244.426	61.44
244.643	61.44
244.86	36.86
245.078	32.77
245.295	106.49
245.512	-4.1
245.729	53.25
245.946	71.68
246.163	-18.43
246.38	16.38
246.597	-12.29
246.814	4.1
247.031	81.92
247.248	38.91
247.464	-36.86
247.681	55.3
247.898	51.2
248.115	77.82
248.332	65.53
248.549	90.11
248.766	77.82
248.983	34.82
249.2	6.14
249.417	-20.48
249.633	86.01
249.85	88.06
250.067	88.06
250.284	32.77
250.501	36.86
250.717	75.77
250.934	30.72
251.151	36.86
251.368	14.34
251.585	69.63
251.801	14.34
252.018	83.97
252.235	-20.48
252.451	51.2
252.668	-6.14
252.885	51.2
253.102	83.97
253.318	20.48
253.535	61.44
253.752	-12.29
253.968	-14.34
254.185	26.62
254.401	10.24
254.618	-51.2
254.835	36.86
255.051	-12.29
255.268	28.67
255.484	79.87
255.701	-18.43
255.917	26.62
256.134	-2.05
256.351	94.21
256.567	-18.43
256.784	16.38
257	4.1
257.217	18.43
257.433	10.24
257.65	65.53
257.866	57.34
258.082	16.38
258.299	20.48
258.515	90.11
258.732	-26.62
258.948	16.38
259.165	12.29
259.381	61.44
259.597	45.06
259.814	4.1
260.03	49.15
260.246	-32.77
260.463	34.82
260.679	12.29
260.895	71.68
261.112	24.58
261.328	2.05
261.544	18.43
261.761	61.44
261.977	28.67
262.193	10.24
262.409	-12.29
262.626	10.24
262.842	12.29
263.058	36.86
263.274	20.48
263.49	-6.14
263.707	79.87
263.923	57.34
264.139	-36.86
264.355	22.53
264.571	-14.34
264.787	49.15
265.004	67.58
265.22	30.72
265.436	45.06
265.652	32.77
265.868	38.91
266.084	45.06
266.3	61.44
266.516	-28.67
266.732	47.1
266.948	-12.29
267.164	18.43
267.38	122.88
267.596	38.91
267.812	28.67
268.028	36.86
268.244	-8.19
268.46	38.91
268.676	-8.19
268.892	57.34
269.108	38.91
269.324	2.05
269.54	32.77
269.756	57.34
269.972	-43.01
270.188	59.39
270.403	14.34
270.619	-18.43
270.835	-6.14
271.051	61.44
271.267	22.53
271.483	55.3
271.698	-2.05
271.914	26.62
272.13	57.34
272.346	53.25
272.562	12.29
272.777	61.44
272.993	40.96
273.209	57.34
273.425	24.58
273.64	49.15
273.856	-2.05
274.072	34.82
274.287	-26.62
274.503	8.19
274.719	61.44
274.934	10.24
275.15	32.77
275.366	-20.48
275.581	-45.06
275.797	94.21
276.012	32.77
276.228	88.06
276.444	8.19
276.659	40.96
276.875	-61.44
277.09	-16.38
277.306	36.86
277.521	79.87
277.737	-22.53
277.952	67.58
278.168	38.91
278.383	32.77
278.599	92.16
278.814	30.72
279.03	28.67
279.245	92.16
279.461	65.53
279.676	88.06
279.892	20.48
280.107	-10.24
280.322	-10.24
280.538	51.2
280.753	57.34
280.969	67.58
281.184	-36.86
281.399	4.1
281.615	49.15
281.83	22.53
282.045	-8.19
282.26	63.49
282.476	24.58
282.691	65.53
282.906	55.3
283.122	-4.1
283.337	104.45
283.552	69.63
283.767	14.34
283.983	22.53
284.198	38.91
284.413	59.39
284.628	-22.53
284.843	139.26
285.058	53.25
285.274	45.06
285.489	49.15
285.704	94.21
285.919	-16.38
286.134	45.06
286.349	26.62
286.564	59.39
286.779	43.01
286.995	22.53
287.21	-10.24
287.425	-20.48
287.64	-6.14
287.855	-16.38
288.07	47.1
288.285	108.54
288.5	106.49
288.715	32.77
288.93	122.88
289.145	20.48
289.36	61.44
289.575	-49.15
289.79	10.24
290.004	59.39
290.219	53.25
290.434	-20.48
290.649	49.15
290.864	81.92
291.079	94.21
291.294	-4.1
291.509	-24.58
291.724	-24.58
291.938	26.62
292.153	49.15
292.368	16.38
292.583	73.73
292.798	-32.77
293.012	75.77
293.227	43.01
293.442	57.34
293.657	45.06
293.871	96.25
294.086	20.48
294.301	114.69
294.516	16.38
294.73	-22.53
294.945	-12.29
295.16	16.38
295.374	12.29
295.589	73.73
295.804	92.16
296.018	69.63
296.233	108.54
296.447	49.15
296.662	59.39
296.877	-0
297.091	20.48
297.306	32.77
297.52	43.01
297.735	96.25
297.949	12.29
298.164	-4.1
298.378	49.15
298.593	51.2
298.807	55.3
299.022	65.53
299.236	59.39
299.451	81.92
299.665	110.59
299.88	28.67
300.094	26.62
300.309	77.82
300.523	90.11
300.737	-8.19
300.952	26.62
301.166	14.34
301.381	12.29
301.595	43.01
301.809	45.06
302.024	-12.29
302.238	43.01
302.452	12.29
302.667	67.58
302.881	139.26
303.095	-16.38
303.309	4.1
303.524	24.58
303.738	94.21
303.952	-28.67
304.166	28.67
304.381	-24.58
304.595	69.63
304.809	14.34
305.023	32.77
305.237	49.15
305.452	57.34
305.666	69.63
305.88	90.11
306.094	75.77
306.308	98.3
306.522	137.21
306.736	90.11
306.95	55.3
307.164	45.06
307.379	4.1
307.593	102.4
307.807	32.77
308.021	53.25
308.235	77.82
308.449	32.77
308.663	53.25
308.877	65.53
309.091	32.77
309.305	20.48
309.519	67.58
309.733	104.45
309.947	18.43
310.161	36.86
310.374	53.25
310.588	65.53
310.802	-57.34
311.016	59.39
311.23	36.86
311.444	-22.53
311.658	45.06
311.872	-10.24
312.085	73.73
312.299	102.4
312.513	53.25
312.727	-16.38
312.941	-12.29
313.154	67.58
313.368	61.44
313.582	36.86
313.796	-4.1
314.009	53.25
314.223	2.05
314.437	43.01
314.651	67.58
314.864	67.58
315.078	55.3
315.292	49.15
315.505	65.53
315.719	40.96
315.933	90.11
316.146	-28.67
316.36	49.15
316.573	38.91
316.787	75.77
317.001	92.16
317.214	8.19
317.428	28.67
317.641	-0
317.855	26.62
318.068	61.44
318.282	69.63
318.495	28.67
318.709	53.25
318.922	20.48
319.136	110.59
319.349	40.96
319.563	26.62
319.776	110.59
319.99	30.72
320.203	12.29
320.417	-0
320.63	20.48
320.843	118.78
321.057	47.1
321.27	-0
321.483	122.88
321.697	34.82
321.91	102.4
322.124	63.49
322.337	55.3
322.55	-10.24
322.763	16.38
322.977	-8.19
323.19	10.24
323.403	16.38
323.617	38.91
323.83	77.82
324.043	-22.53
324.256	24.58
324.469	40.96
324.683	-30.72
324.896	26.62
325.109	63.49
325.322	-12.29
325.535	155.65
325.748	69.63
325.962	114.69
326.175	49.15
326.388	6.14
326.601	45.06
326.814	88.06
327.027	86.01
327.24	71.68
327.453	-22.53
327.666	137.21
327.879	114.69
328.092	20.48
328.305	4.1
328.518	63.49
328.731	65.53
328.944	77.82
329.157	81.92
329.37	65.53
329.583	45.06
329.796	108.54
330.009	-14.34
330.222	51.2
330.435	43.01
330.648	-12.29
330.861	-38.91
331.073	47.1
331.286	40.96
331.499	47.1
331.712	61.44
331.925	88.06
332.138	-0
332.35	24.58
332.563	57.34
332.776	114.69
332.989	20.48
333.202	-28.67
333.414	10.24
333.627	65.53
333.84	118.78
334.053	71.68
334.265	45.06
334.478	32.77
334.691	2.05
334.903	14.34
335.116	106.49
335.329	49.15
335.541	71.68
335.754	90.11
335.966	-28.67
336.179	51.2
336.392	-8.19
336.604	6.14
336.817	18.43
337.029	65.53
337.242	92.16
337.454	118.78
337.667	38.91
337.88	26.62
338.092	77.82
338.305	81.92
338.517	51.2
338.729	24.58
338.942	-10.24
339.154	2.05
339.367	-4.1
339.579	96.25
339.792	36.86
340.004	102.4
340.217	16.38
340.429	96.25
340.641	40.96
340.854	-49.15
341.066	-14.34
341.278	88.06
341.491	63.49
341.703	53.25
341.915	81.92
342.128	34.82
342.34	53.25
342.552	36.86
342.764	43.01
342.977	32.77
343.189	2.05
343.401	114.69
343.613	94.21
343.826	55.3
344.038	34.82
344.25	57.34
344.462	51.2
344.674	67.58
344.886	36.86
345.099	90.11
345.311	14.34
345.523	106.49
345.735	-20.48
345.947	139.26
346.159	53.25
346.371	49.15
346.583	57.34
346.795	88.06
347.007	-18.43
347.219	110.59
347.431	32.77
347.643	77.82
347.855	-2.05
348.067	57.34
348.279	100.35
348.491	131.07
348.703	-10.24
348.915	65.53
349.127	61.44
349.339	106.49
349.551	30.72
349.763	-2.05
349.975	77.82
350.187	75.77
350.399	88.06
350.61	63.49
350.822	14.34
351.034	126.97
351.246	143.36
351.458	75.77
351.669	65.53
351.881	55.3
352.093	-6.14
352.305	53.25
352.517	14.34
352.728	22.53
352.94	90.11
353.152	100.35
353.363	81.92
353.575	98.3
353.787	79.87
353.999	92.16
354.21	51.2
354.422	28.67
354.633	83.97
354.845	6.14
355.057	94.21
355.268	122.88
355.48	75.77
355.692	92.16
355.903	-10.24
356.115	-16.38
356.326	55.3
356.538	65.53
356.749	28.67
356.961	108.54
357.172	94.21
357.384	-59.39
357.595	8.19
357.807	20.48
358.018	20.48
358.23	104.45
358.441	102.4
358.653	75.77
358.864	53.25
359.075	94.21
359.287	30.72
359.498	77.82
359.709	-24.58
359.921	12.29
360.132	67.58
360.344	86.01
360.555	116.73
360.766	88.06
360.977	16.38
361.189	104.45
361.4	73.73
361.611	-18.43
361.823	75.77
362.034	67.58
362.245	-24.58
362.456	-0
362.667	67.58
362.879	61.44
363.09	47.1
363.301	63.49
363.512	14.34
363.723	94.21
363.935	98.3
364.146	86.01
364.357	-18.43
364.568	65.53
364.779	26.62
364.99	32.77
365.201	47.1
365.412	69.63
365.623	67.58
365.834	106.49
366.045	79.87
366.256	86.01
366.467	81.92
366.678	51.2
366.889	73.73
367.1	28.67
367.311	30.72
367.522	118.78
367.733	139.26
367.944	81.92
368.155	38.91
368.366	98.3
368.577	75.77
368.788	69.63
368.999	34.82
369.209	75.77
369.42	61.44
369.631	79.87
369.842	110.59
370.053	45.06
370.264	75.77
370.474	30.72
370.685	96.25
370.896	94.21
371.107	53.25
371.317	94.21
371.528	92.16
371.739	53.25
371.95	77.82
372.16	57.34
372.371	88.06
372.582	22.53
372.792	86.01
373.003	110.59
373.214	34.82
373.424	153.6
373.635	26.62
373.846	47.1
374.056	20.48
374.267	59.39
374.477	59.39
374.688	63.49
374.898	65.53
375.109	104.45
375.319	116.73
375.53	88.06
375.74	104.45
375.951	71.68
376.161	-0
376.372	75.77
376.582	61.44
376.793	102.4
377.003	96.25
377.214	69.63
377.424	98.3
377.635	98.3
377.845	90.11
378.055	65.53
378.266	83.97
378.476	77.82
378.686	94.21
378.897	77.82
379.107	92.16
379.317	26.62
379.528	40.96
379.738	75.77
379.948	92.16
380.158	110.59
380.369	86.01
380.579	65.53
380.789	145.41
380.999	73.73
381.21	57.34
381.42	120.83
381.63	86.01
381.84	36.86
382.05	34.82
382.261	69.63
382.471	24.58
382.681	71.68
382.891	75.77
383.101	59.39
383.311	98.3
383.521	122.88
383.731	63.49
383.941	20.48
384.151	77.82
384.361	30.72
384.571	-0
384.781	126.97
384.991	184.32
385.201	172.03
385.411	77.82
385.621	65.53
385.831	40.96
386.041	77.82
386.251	77.82
386.461	22.53
386.671	90.11
386.881	-0
387.091	86.01
387.301	122.88
387.511	55.3
387.72	71.68
387.93	51.2
388.14	26.62
388.35	90.11
388.56	98.3
388.769	30.72
388.979	75.77
389.189	90.11
389.399	131.07
389.609	12.29
389.818	104.45
390.028	-8.19
390.238	129.02
390.447	108.54
390.657	61.44
390.867	120.83
391.076	32.77
391.286	43.01
391.496	67.58
391.705	69.63
391.915	120.83
392.125	77.82
392.334	110.59
392.544	161.79
392.753	47.1
392.963	63.49
393.172	118.78
393.382	14.34
393.591	182.27
393.801	98.3
394.01	38.91
394.22	81.92
394.429	79.87
394.639	86.01
394.848	165.89
395.058	100.35
395.267	116.73
395.477	114.69
395.686	143.36
395.895	163.84
396.105	129.02
396.314	131.07
396.524	59.39
396.733	106.49
396.942	122.88
397.152	141.31
397.361	135.17
397.57	108.54
397.78	20.48
397.989	81.92
398.198	163.84
398.407	79.87
398.617	88.06
398.826	114.69
399.035	24.58
399.244	182.27
399.453	147.45
399.663	167.93
399.872	63.49
400.081	155.65
400.29	149.5
400.499	159.74
400.708	147.45
400.917	112.64
401.127	65.53
401.336	122.88
401.545	118.78
401.754	61.44
401.963	151.55
402.172	118.78
402.381	184.32
402.59	159.74
402.799	88.06
403.008	159.74
403.217	157.69
403.426	176.13
403.635	124.93
403.844	120.83
404.053	149.5
404.262	192.51
404.471	235.52
404.68	147.45
404.888	180.22
405.097	155.65
405.306	172.03
405.515	153.6
405.724	165.89
405.933	292.86
406.142	198.65
406.35	188.41
406.559	217.08
406.768	237.56
406.977	192.51
407.185	282.62
407.394	231.42
407.603	196.6
407.812	176.13
408.02	319.48
408.229	288.76
408.438	229.37
408.646	258.04
408.855	231.42
409.064	307.2
409.272	321.53
409.481	301.05
409.69	264.19
409.898	370.68
410.107	391.16
410.315	335.87
410.524	387.07
410.733	419.83
410.941	356.35
411.15	483.32
411.358	364.54
411.567	550.9
411.775	442.36
411.984	405.5
412.192	567.29
412.401	528.38
412.609	507.9
412.818	567.29
413.026	647.16
413.234	632.82
413.443	612.34
413.651	661.49
413.86	612.34
414.068	749.56
414.276	626.68
414.485	727.03
414.693	804.85
414.901	800.76
415.11	802.8
415.318	802.8
415.526	841.72
415.734	874.48
415.943	845.81
416.151	927.73
416.359	985.07
416.567	1075.18
416.776	1066.99
416.984	1069.04
417.192	1112.05
417.4	1159.15
417.608	1107.95
417.817	1249.26
418.025	1200.11
418.233	1259.5
418.441	1241.07
418.649	1331.18
418.857	1482.73
419.065	1492.97
419.273	1538.02
419.481	1593.32
419.689	1806.31
419.897	1630.18
420.105	1724.39
420.313	1820.64
420.521	1943.52
420.729	1832.93
420.937	2009.06
421.145	1986.53
421.353	2131.94
421.561	2230.24
421.769	2320.35
421.977	2240.48
422.185	2394.08
422.393	2482.14
422.601	2633.69
422.809	2625.5
423.017	2631.64
423.224	2768.85
423.432	2852.82
423.64	2908.12
423.848	3076.05
424.056	3231.69
424.263	3289.04
424.471	3393.48
424.679	3362.76
424.887	3585.99
425.094	3813.32
425.302	3788.74
425.51	3925.96
425.718	3835.85
425.925	3979.2
426.133	4014.02
426.341	4308.93
426.548	4313.02
426.756	4478.91
426.964	4618.17
427.171	4804.53
427.379	5058.48
427.586	5066.67
427.794	5250.99
428.001	5291.95
428.209	5765.03
428.417	5627.82
428.624	6068.13
428.832	5971.88
429.039	5953.45
429.247	5939.11
429.454	6473.63
429.662	6946.71
429.869	6434.72
430.076	6950.81
430.284	6829.98
430.491	6989.72
430.699	7696.27
430.906	7405.45
431.114	7464.85
431.321	7856.01
431.528	8030.09
431.736	8429.44
431.943	8923
432.15	8617.85
432.358	8568.7
432.565	9062.26
432.772	9076.6
432.979	9424.75
433.187	9715.56
433.394	9906.02
433.601	10489.7
433.808	10755.93
434.016	10405.73
434.223	10817.37
434.43	11796.3
434.637	11419.47
434.844	12193.61
435.052	12263.24
435.259	12109.64
435.466	12386.11
435.673	11999.05
435.88	12994.36
436.087	13903.66
436.294	13582.13
436.501	13299.51
436.708	13563.7
436.915	14047.02
437.122	14812.96
437.329	14522.15
437.537	15148.82
437.743	15617.81
437.95	15417.11
438.157	16152.33
438.364	16680.71
438.571	16369.41
438.778	16473.86
438.985	18188.01
439.192	17321.72
439.399	17954.54
439.606	17385.21
439.813	18609.89
440.02	19660.5
440.227	19539.67
440.433	19330.78
440.64	19816.15
440.847	19736.27
441.054	20137.68
441.261	21698.23
441.467	21554.87
441.674	21731
441.881	22449.83
442.088	22191.79
442.294	22245.04
442.501	22742.69
442.708	23408.28
442.914	23979.67
443.121	25212.54
443.328	24409.74
443.534	26494.57
443.741	25222.78
443.948	24946.31
444.154	27156.07
444.361	26816.1
444.568	26893.93
444.774	26984.04
444.981	27328.09
445.187	28030.55
445.394	29118.02
445.6	28784.2
445.807	31673.88
446.013	30182.96
446.22	30590.51
446.426	31743.52
446.633	32304.66
446.839	33443.33
447.046	31751.71
447.252	33746.43
447.459	33529.34
447.665	33586.69
447.871	34940.39
448.078	36390.36
448.284	34393.59
448.491	35427.81
448.697	37111.24
448.903	37895.61
449.11	37377.48
449.316	36775.37
449.522	37694.91
449.728	38467
449.935	38706.61
450.141	38958.51
450.347	39839.14
450.553	38532.53
450.76	38806.96
450.966	39994.78
451.172	39724.45
451.378	40334.74
451.584	39740.83
451.791	40732.05
451.997	40656.28
452.203	41112.97
452.409	41420.17
452.615	40695.19
452.821	39624.1
453.027	38950.32
453.233	41270.67
453.44	39361.96
453.646	40224.15
453.852	39982.49
454.058	40826.26
454.264	39673.25
454.47	40222.11
454.676	39400.87
454.882	40269.21
455.088	36812.24
455.294	37606.85
455.5	38229.43
455.705	38438.33
455.911	36910.54
456.117	36208.09
456.323	35804.64
456.529	33785.34
456.735	35309.03
456.941	34381.3
457.147	33732.09
457.352	32683.53
457.558	32298.52
457.764	32564.75
457.97	32017.94
458.176	31305.25
458.381	31282.72
458.587	29488.7
458.793	29347.39
458.999	28061.27
459.204	30322.23
459.41	29046.34
459.616	27190.88
459.821	27373.15
460.027	27516.51
460.233	26508.91
460.438	25378.43
460.644	25947.76
460.85	24630.92
461.055	24223.37
461.261	23893.65
461.466	22286
461.672	21624.5
461.878	23269.02
462.083	21706.42
462.289	21382.84
462.494	20872.9
462.7	20248.27
462.905	19420.89
463.111	20332.23
463.316	20573.89
463.522	20182.73
463.727	19941.07
463.932	19766.99
464.138	19752.66
464.343	19912.4
464.549	19197.66
464.754	19717.84
464.959	19705.56
465.165	19674.84
465.37	18724.58
465.575	18241.26
465.781	18837.22
465.986	19111.64
466.191	18489.06
466.397	18282.22
466.602	17276.66
466.807	17694.45
467.012	17802.99
467.218	17497.85
467.423	17639.15
467.628	17737.46
467.833	18542.31
468.038	17839.86
468.244	17231.61
468.449	18001.65
468.654	17295.1
468.859	17250.04
469.064	17235.7
469.269	16422.66
469.474	16781.06
469.679	16858.88
469.885	16748.29
470.09	16856.83
470.295	16611.07
470.5	15994.64
470.705	16574.21
470.91	15904.53
471.115	15601.43
471.32	16000.78
471.525	16054.03
471.73	15431.44
471.935	15658.77
472.139	14866.21
472.344	15253.27
472.549	14946.08
472.754	14831.39
472.959	14626.59
473.164	14436.13
473.369	14073.64
473.574	14599.97
473.778	14511.91
473.983	14251.81
474.188	14225.19
474.393	13633.33
474.598	13643.57
474.802	13674.29
475.007	13436.72
475.212	13645.62
475.417	12812.09
475.621	13053.75
475.826	12975.93
476.031	12756.8
476.235	12582.72
476.44	12736.32
476.645	12357.44
476.849	12654.4
477.054	12228.42
477.259	12222.28
477.463	12199.75
477.668	11845.45
477.872	11902.79
478.077	11892.55
478.282	11525.97
478.486	11575.12
478.691	11624.27
478.895	11493.2
479.1	11394.9
479.304	11335.51
479.509	10811.23
479.713	11202.39
479.918	10921.82
480.122	10921.82
480.326	10858.33
480.531	11153.24
480.735	11093.85
480.94	10700.64
481.144	10936.15
481.348	10850.14
481.553	10653.53
481.757	10557.28
481.961	10696.54
482.166	10862.43
482.37	10553.18
482.574	10354.53
482.778	10616.67
482.983	10708.83
483.187	10338.15
483.391	10481.5
483.595	10780.51
483.8	10372.96
484.004	10481.5
484.208	10596.19
484.412	10280.8
484.616	10549.09
484.821	10649.44
485.025	10557.28
485.229	10764.12
485.433	10485.6
485.637	10776.41
485.841	10534.75
486.045	10581.85
486.249	10532.7
486.453	10538.85
486.657	10588
486.861	10555.23
487.065	10372.96
487.269	10637.15
487.473	10352.48
487.677	10649.44
487.881	10788.7
488.085	10563.42
488.289	10794.84
488.493	10751.84
488.697	10721.12
488.901	10727.26
489.105	10692.44
489.309	10739.55
489.512	10655.58
489.716	10825.56
489.92	10930.01
490.124	10782.56
490.328	10889.05
490.531	10788.7
490.735	10831.71
490.939	11044.7
491.143	10913.63
491.346	10895.19
491.55	11104.09
491.754	11245.4
491.958	11255.64
492.161	11206.49
492.365	11200.34
492.569	11099.99
492.772	11143
492.976	11507.54
493.18	11368.27
493.383	11611.98
493.587	11677.52
493.79	11642.7
493.994	11566.93
494.197	11751.24
494.401	11808.59
494.605	12115.78
494.808	12439.36
495.012	12384.07
495.215	12433.22
495.419	12310.34
495.622	12339.01
495.825	12431.17
496.029	12306.24
496.232	12734.27
496.436	12726.08
496.639	13141.82
496.843	12961.59
497.046	13160.25
497.249	13274.93
497.453	13322.04
497.656	13578.03
497.859	13754.16
498.063	13668.14
498.266	14008.11
498.469	14038.83
498.673	14051.11
498.876	14292.77
499.079	14335.78
499.282	14501.67
499.485	14690.08
499.689	14966.56
499.892	15077.15
500.095	15077.15
500.298	15535.89
500.501	15329.05
500.705	15927.05
500.908	15783.7
501.111	16113.42
501.314	16232.2
501.517	16408.33
501.72	16602.88
501.923	16518.92
502.126	16994.04
502.329	17192.7
502.532	17362.68
502.735	17426.17
502.938	17641.2
503.141	17782.51
503.344	18136.81
503.547	17944.3
503.75	18509.54
503.953	18605.8
504.156	18613.99
504.359	18851.55
504.562	19070.69
504.765	19633.88
504.968	19504.85
505.17	19758.8
505.373	19779.28
505.576	20246.22
505.779	20436.68
505.982	20936.38
506.185	21020.35
506.387	21046.97
506.59	21198.52
506.793	21796.53
506.996	21673.65
507.198	21978.8
507.401	21780.15
507.604	22144.69
507.807	23090.85
508.009	22761.12
508.212	22970.02
508.415	23512.73
508.617	23658.13
508.82	23709.33
509.022	23744.15
509.225	24262.29
509.428	24319.63
509.63	24630.92
509.833	24673.93
510.035	25480.83
510.238	25413.24
510.44	25970.29
510.643	25984.63
510.845	26175.09
511.048	25753.21
511.25	26609.26
511.453	26814.05
511.655	27555.42
511.858	27289.18
512.06	27600.47
512.262	27745.88
512.465	27661.91
512.667	28251.73
512.87	28665.42
513.072	28509.77
513.274	29025.86
513.477	29187.65
513.679	29554.24
513.881	29879.86
514.084	30053.94
514.286	30307.89
514.488	30551.6
514.69	31352.35
514.893	31643.17
515.095	31323.68
515.297	31776.28
515.499	31923.74
515.701	32247.32
515.904	32587.28
516.106	32583.18
516.308	33136.13
516.51	33666.56
516.712	33201.67
516.914	33973.75
517.116	34260.47
517.318	34629.1
517.52	34870.76
517.722	34764.27
517.925	35376.61
518.127	35804.64
518.329	35931.61
518.531	35792.35
518.733	36435.41
518.935	36611.54
519.136	37033.42
519.338	37225.93
519.54	37344.71
519.742	38024.64
519.944	38034.88
520.146	38718.9
520.348	39065
520.55	38931.89
520.752	39015.85
520.954	39490.98
521.155	39443.88
521.357	39689.63
521.559	39966.11
521.761	41176.46
521.963	40846.74
522.164	40785.3
522.366	41026.96
522.568	41196.94
522.77	41942.4
522.971	42124.67
523.173	41715.08
523.375	42132.86
523.576	42317.18
523.778	42698.1
523.98	43140.46
524.181	43314.54
524.383	43058.54
524.584	43650.41
524.786	43826.53
524.988	43689.32
525.189	44148.06
525.391	44453.21
525.592	44694.87
525.794	44916.05
525.995	44733.78
526.197	44944.72
526.398	45243.73
526.6	45440.33
526.801	45337.93
527.003	45319.5
527.204	45653.32
527.406	46366.01
527.607	45978.95
527.808	46017.86
528.01	45505.87
528.211	46193.98
528.412	47002.93
528.614	46808.37
528.815	46794.04
529.016	46953.78
529.218	46679.35
529.419	47056.18
529.62	47285.55
529.822	47088.95
530.023	47422.76
530.224	47510.83
530.425	47166.77
530.626	47134
530.828	47154.48
531.029	48428.32
531.23	47273.26
531.431	47805.73
531.632	47732.01
531.833	48194.85
532.035	47912.23
532.236	47674.66
532.437	48110.88
532.638	47244.59
532.839	47715.62
533.04	48055.59
533.241	47473.96
533.442	49308.94
533.643	48510.24
533.844	48157.99
534.045	48149.79
534.246	47928.61
534.447	48399.65
534.648	48215.33
534.849	48860.44
535.05	48045.35
535.251	48543
535.451	48418.08
535.652	48485.66
535.853	48297.25
536.054	48315.68
536.255	48493.85
536.456	48207.14
536.657	48723.22
536.857	47512.88
537.058	48178.46
537.259	48661.79
537.46	48694.55
537.66	48456.99
537.861	48348.45
538.062	47983.91
538.263	48723.22
538.463	48452.89
538.664	48438.56
538.865	48522.52
539.065	48653.59
539.266	48264.48
539.466	48536.86
539.667	48026.92
539.868	48760.09
540.068	48342.3
540.269	48385.31
540.469	48586.01
540.67	48137.51
540.87	48600.35
541.071	48203.04
541.271	48340.25
541.472	48878.87
541.672	47942.95
541.873	48092.45
542.073	47846.69
542.274	48305.44
542.474	47885.61
542.675	47910.18
542.875	48735.51
543.075	47926.56
543.276	47469.87
543.476	48444.7
543.676	48278.82
543.877	48477.47
544.077	48076.07
544.277	48311.58
544.478	48260.38
544.678	48469.28
544.878	47922.47
545.078	48117.03
545.279	47949.09
545.479	48018.72
545.679	47887.65
545.879	48092.45
546.079	48190.75
546.28	48110.88
546.48	47928.61
546.68	48182.56
546.88	48184.61
547.08	47996.2
547.28	47842.6
547.48	47990.05
547.68	48536.86
547.88	47938.85
548.081	47899.94
548.281	47633.71
548.481	47805.73
548.681	48477.47
548.881	48190.75
549.081	48117.03
549.28	47764.78
549.48	48000.29
549.68	48010.53
549.88	48444.7
550.08	48069.92
550.28	48071.97
550.48	47875.37
550.68	48256.29
550.88	47488.3
551.08	47832.36
551.279	47734.06
551.479	47576.36
551.679	47945
551.879	48071.97
552.079	47850.79
552.278	47600.94
552.478	47717.67
552.678	47562.03
552.878	47813.93
553.077	47965.48
553.277	47310.13
553.477	48149.79
553.676	47392.04
553.876	47562.03
554.076	47822.12
554.275	47416.62
554.475	46912.82
554.674	47557.93
554.874	47928.61
555.074	47416.62
555.273	47758.63
555.473	47674.66
555.672	47138.1
555.872	47283.5
556.071	47234.35
556.271	47490.35
556.47	46882.1
556.67	46601.53
556.869	47088.95
557.068	47412.52
557.268	46929.2
557.467	47111.47
557.667	47043.89
557.866	46982.45
558.065	46558.52
558.265	46781.75
558.464	46970.16
558.663	47101.23
558.863	46345.53
559.062	47129.9
559.261	46417.21
559.461	47254.83
559.66	45739.33
559.859	46429.5
560.058	46167.36
560.258	46257.47
560.457	46327.1
560.656	46652.73
560.855	46054.72
561.054	46089.54
561.253	46089.54
561.453	46101.82
561.652	46204.22
561.851	46339.39
562.05	45960.51
562.249	45704.52
562.448	46081.34
562.647	46206.27
562.846	45872.45
563.045	46095.68
563.244	45253.97
563.443	46083.39
563.642	45200.72
563.841	45808.96
564.04	45446.47
564.239	45579.59
564.438	45071.7
564.637	45155.66
564.836	45675.85
565.035	45004.11
565.234	45307.21
565.432	44524.89
565.631	44995.92
565.83	45364.56
566.029	44502.36
566.228	44404.06
566.427	44641.62
566.625	44326.24
566.824	44051.81
567.023	44496.22
567.222	43482.47
567.42	44715.35
567.619	44418.39
567.818	44221.79
568.016	43808.1
568.215	44238.17
568.414	43425.13
568.612	43984.22
568.811	43517.29
569.01	43865.44
569.208	43365.74
569.407	43418.99
569.605	43259.24
569.804	43523.43
570.002	43177.33
570.201	43515.24
570.4	42978.67
570.598	43070.83
570.797	42579.32
570.995	43001.2
571.193	42640.76
571.392	43181.42
571.59	42284.41
571.789	42401.14
571.987	42317.18
572.186	42288.51
572.384	42102.14
572.582	42466.68
572.781	42485.11
572.979	41813.38
573.177	41936.26
573.376	42171.77
573.574	41584.01
573.772	42093.95
573.971	40910.22
574.169	41782.66
574.367	41416.07
574.565	41725.32
574.763	41170.32
574.962	41041.29
575.16	40742.29
575.358	40932.75
575.556	40793.49
575.754	41424.26
575.952	40629.65
576.151	41121.16
576.349	39976.35
576.547	40023.45
576.745	40596.88
576.943	40562.07
577.141	40175
577.339	40363.42
577.537	40138.14
577.735	40060.32
577.933	39339.43
578.131	39937.44
578.329	39810.46
578.527	39777.7
578.725	39962.01
578.923	40011.17
579.121	39196.07
579.319	39200.17
579.516	39337.38
579.714	39112.11
579.912	39157.16
580.11	38776.24
580.308	39081.39
580.506	38833.58
580.704	38378.93
580.901	38892.97
581.099	38806.96
581.297	38770.1
581.495	38600.11
581.692	38731.18
581.89	37840.32
582.088	38182.33
582.285	37860.8
582.483	38417.85
582.681	37973.44
582.878	37836.22
583.076	37520.84
583.274	37969.34
583.471	37252.55
583.669	37608.9
583.866	37221.83
584.064	37664.19
584.262	36820.43
584.459	37281.22
584.657	36920.78
584.854	37709.25
585.052	36388.31
585.249	37215.69
585.447	36693.46
585.644	36120.02
585.841	36564.43
586.039	36824.53
586.236	36160.98
586.434	36130.26
586.631	36185.56
586.828	36191.7
587.026	35894.75
587.223	35659.23
587.42	35849.69
587.618	35472.87
587.815	35411.43
588.012	35581.41
588.21	35393
588.407	35648.99
588.604	35253.73
588.801	35071.46
588.999	35270.12
589.196	34848.24
589.393	34838
589.59	34774.51
589.787	34596.34
589.984	34620.91
590.182	34156.02
590.379	34516.47
590.576	34039.29
590.773	34512.37
590.97	33990.14
591.167	34096.63
591.364	33619.46
591.561	33846.78
591.758	33859.07
591.955	33711.61
592.152	33811.96
592.349	33283.59
592.546	33353.22
592.743	33367.55
592.94	33342.98
593.137	33191.43
593.334	33054.22
593.531	32798.22
593.727	33164.81
593.924	32683.53
594.121	32636.43
594.318	32663.05
594.515	32282.13
594.712	32689.68
594.908	32200.21
595.105	32376.34
595.302	31850.01
595.499	32337.43
595.696	31958.55
595.892	31807
596.089	31694.36
596.286	31696.41
596.482	31565.34
596.679	32042.52
596.876	31512.1
597.072	31467.04
597.269	31397.41
597.466	31376.93
597.662	31061.54
597.859	31141.41
598.055	31243.81
598.252	30717.48
598.448	30727.72
598.645	30434.86
598.841	30209.59
599.038	30545.45
599.234	30481.97
599.431	29922.87
599.627	30324.27
599.824	30301.75
600.02	29924.92
600.217	30037.56
600.413	29687.35
600.609	29613.63
600.806	29546.05
601.002	29851.19
601.198	29644.35
601.395	29142.6
601.591	29025.86
601.787	29707.83
601.984	28964.42
602.18	29318.72
602.376	28835.4
602.572	28778.06
602.769	28847.69
602.965	28429.9
603.161	28706.38
603.357	28558.92
603.553	28413.52
603.75	28470.86
603.946	28057.17
604.142	28624.46
604.338	27784.79
604.534	27850.33
604.73	27809.37
604.926	27829.85
605.122	27989.59
605.318	27721.31
605.514	27784.79
605.71	27506.27
605.906	27311.71
606.102	27508.32
606.298	27455.07
606.494	27321.95
606.69	27362.91
606.886	27444.83
607.082	26932.84
607.278	27055.72
607.474	26648.17
607.67	26883.69
607.866	26719.85
608.062	27125.35
608.257	26834.53
608.453	26953.32
608.649	26570.35
608.845	26396.27
609.041	26615.4
609.236	26603.11
609.432	26422.89
609.628	26627.69
609.824	26291.82
610.019	26197.62
610.215	26093.17
610.411	26666.6
610.606	25747.06
610.802	26158.7
610.998	26199.66
611.193	25925.24
611.389	25605.75
611.584	25724.54
611.78	25671.29
611.976	25933.43
612.171	25661.05
612.367	25624.18
612.562	25552.51
612.758	25056.9
612.953	25220.74
613.149	25724.54
613.344	24962.69
613.539	25570.94
613.735	25392.76
613.93	25484.92
614.126	25128.58
614.321	25611.9
614.517	25046.66
614.712	25122.43
614.907	24909.44
615.103	25263.74
615.298	24747.65
615.493	25388.67
615.688	24739.46
615.884	24970.88
616.079	24438.41
616.274	25013.89
616.47	24819.33
616.665	24571.53
616.86	24383.12
617.055	24569.48
617.25	24317.58
617.445	24667.78
617.641	23973.52
617.836	24620.68
618.031	24186.51
618.226	24430.22
618.421	24348.3
618.616	24409.74
618.811	23772.82
619.006	23928.47
619.201	23522.97
619.396	23795.35
619.591	23367.32
619.786	23424.67
619.981	22957.73
620.176	23549.59
620.371	22818.47
620.566	23434.91
620.761	23072.42
620.956	23158.43
621.151	22953.63
621.346	23037.6
621.541	22828.71
621.735	22748.84
621.93	22193.84
622.125	22681.25
622.32	22263.47
622.515	22349.48
622.709	22073.01
622.904	21745.33
623.099	21868.21
623.294	22011.57
623.488	21690.04
623.683	21702.32
623.878	21366.46
624.072	21452.47
624.267	21526.2
624.462	21208.76
624.656	21092.03
624.851	20876.99
625.046	20600.52
625.24	20436.68
625.435	20307.66
625.629	20645.57
625.824	20299.47
626.018	20115.15
626.213	19674.84
626.407	20395.72
626.602	19662.55
626.796	19744.47
626.991	19793.62
627.185	19631.83
627.38	19703.51
627.574	19400.41
627.768	19341.02
627.963	19072.73
628.157	18788.07
628.352	19005.15
628.546	18722.53
628.74	18960.09
628.935	18708.19
629.129	18513.64
629.323	18611.94
629.517	18226.92
629.712	18306.79
629.906	18120.43
630.1	17874.67
630.294	18183.91
630.489	17864.43
630.683	17854.19
630.877	17544.95
631.071	17506.04
631.265	17739.51
631.459	17383.16
631.653	17346.3
631.848	17321.72
632.042	17272.57
632.236	17258.23
632.43	16840.45
632.624	16781.06
632.818	16760.58
633.012	16480
633.206	16537.35
633.4	16684.8
633.594	16119.56
633.788	16260.87
633.982	16619.27
634.176	16510.72
634.369	16140.04
634.563	16021.26
634.757	15855.37
634.951	15974.16
635.145	16129.8
635.339	16058.12
635.533	15490.84
635.726	15460.12
635.92	15660.82
636.114	15453.97
636.308	15253.27
636.501	15462.16
636.695	15193.88
636.889	15032.09
637.083	14896.92
637.276	14890.78
637.47	14884.64
637.664	14731.04
637.857	14800.67
638.051	14608.16
638.244	14511.91
638.438	14376.74
638.632	14456.61
638.825	14370.6
639.019	14477.09
639.212	14073.64
639.406	14139.18
639.599	14149.42
639.793	13838.12
639.986	13623.09
640.18	13768.49
640.373	14194.47
640.567	13473.59
640.76	13633.33
640.954	13363
641.147	13283.13
641.34	13201.21
641.534	13313.84
641.727	13094.71
641.92	13371.19
642.114	12934.97
642.307	13197.11
642.5	13025.08
642.694	12891.96
642.887	12715.84
643.08	12875.58
643.273	12848.96
643.467	12685.12
643.66	12523.33
643.853	12588.86
644.046	12304.2
644.239	12349.25
644.432	12484.42
644.626	12062.54
644.819	12107.59
645.012	12269.38
645.205	12078.92
645.398	12152.65
645.591	11915.08
645.784	11915.08
645.977	11892.55
646.17	11820.88
646.363	11736.91
646.556	11503.44
646.749	11603.79
646.942	11716.43
647.135	11269.97
647.328	11269.97
647.521	11353.94
647.714	11380.56
647.907	11048.79
648.099	11030.36
648.292	10831.71
648.485	11089.75
648.678	10946.39
648.871	10970.97
649.064	10850.14
649.256	11034.46
649.449	10581.85
649.642	10663.77
649.835	10702.68
650.027	10542.94
650.22	10661.73
650.413	10491.74
650.605	10385.25
650.798	10381.15
650.991	10129.25
651.183	10119.01
651.376	10155.88
651.568	10256.23
651.761	10186.6
651.954	10256.23
652.146	10065.77
652.339	10108.77
652.531	9951.08
652.724	9793.39
652.916	9449.33
653.109	9701.23
653.301	9838.44
653.494	9658.22
653.686	9416.56
653.879	9623.41
654.071	9486.19
654.263	9439.09
654.456	9287.54
654.648	9418.61
654.84	9045.88
655.033	9295.73
655.225	9117.56
655.417	9027.45
655.61	9146.23
655.802	9129.84
655.994	8937.34
656.186	9095.03
656.379	8857.46
656.571	8703.87
656.763	8843.13
656.955	9068.41
657.148	8918.9
657.34	8906.62
657.532	8583.04
657.724	8449.92
657.916	8640.38
658.108	8718.2
658.3	8402.82
658.492	8378.24
658.684	8292.23
658.876	8124.29
659.068	8165.25
659.26	8187.78
659.452	8234.88
659.644	8140.68
659.836	8048.52
660.028	8220.55
660.22	7991.17
660.412	7946.12
660.604	7847.82
660.796	7907.21
660.988	7774.09
661.18	7874.44
661.372	7759.75
661.563	7749.51
661.755	7679.88
661.947	7491.47
662.139	7542.67
662.331	7520.14
662.522	7417.74
662.714	7550.86
662.906	7286.67
663.097	7475.09
663.289	7192.47
663.481	7303.06
663.673	7233.43
663.864	7210.9
664.056	7155.6
664.247	7247.76
664.439	7108.5
664.631	7075.73
664.822	6981.53
665.014	6840.22
665.205	6899.61
665.397	6944.66
665.588	6971.29
665.78	6854.55
665.971	6789.02
666.163	6854.55
666.354	6737.82
666.546	6623.13
666.737	6680.47
666.929	6721.43
667.12	6625.18
667.311	6729.63
667.503	6557.6
667.694	6559.64
667.885	6516.64
668.077	6365.09
668.268	6500.25
668.459	6268.83
668.651	6293.41
668.842	6451.1
669.033	6225.82
669.224	6320.03
669.416	6336.42
669.607	6238.11
669.798	6193.06
669.989	6168.48
670.18	6068.13
670.371	6111.14
670.563	5961.64
670.754	5957.54
670.945	5873.57
671.136	6057.89
671.327	5871.53
671.518	5760.94
671.709	5980.07
671.9	5758.89
672.091	5758.89
672.282	5918.63
672.473	5697.45
672.664	5693.35
672.855	5689.26
673.046	5691.31
673.237	5629.87
673.428	5615.53
673.619	5662.63
673.809	5674.92
674	5695.4
674.191	5593
674.382	5566.38
674.573	5482.41
674.764	5377.97
674.954	5492.65
675.145	5361.58
675.336	5353.39
675.527	5490.6
675.717	5517.23
675.908	5281.71
676.099	5312.43
676.289	5140.4
676.48	5236.66
676.671	5103.54
676.861	5101.49
677.052	5158.83
677.243	5257.14
677.433	5169.07
677.624	5248.94
677.814	5115.83
678.005	5140.4
678.195	5119.92
678.386	5042.1
678.576	5011.38
678.767	5097.39
678.957	4986.8
679.148	4951.99
679.338	4919.22
679.529	4902.84
679.719	4728.76
679.909	4798.39
680.1	4882.36
680.29	4691.9
680.481	4880.31
680.671	4835.25
680.861	4755.38
681.052	4820.92
681.242	4798.39
681.432	4706.23
681.622	4700.09
681.813	4753.34
682.003	4745.14
682.193	4601.79
682.383	4566.97
682.573	4507.58
682.764	4589.5
682.954	4392.89
683.144	4546.49
683.334	4509.63
683.524	4536.25
683.714	4440
683.904	4333.5
684.094	4401.08
684.284	4341.69
684.474	4433.85
684.664	4448.19
684.854	4454.33
685.044	4419.52
685.234	4298.69
685.424	4188.1
685.614	4263.87
685.804	4366.27
685.994	4407.23
686.184	4317.12
686.374	4274.11
686.564	4181.95
686.753	4270.01
686.943	4188.1
687.133	4097.99
687.323	4161.47
687.513	4179.9
687.702	4222.91
687.892	4044.74
688.082	3997.63
688.272	4161.47
688.461	3999.68
688.651	3954.63
688.841	4038.59
689.03	3928
689.22	4009.92
689.41	3901.38
689.599	3977.16
689.789	3895.24
689.979	3905.48
690.168	3928
690.358	3825.61
690.547	3796.93
690.737	3901.38
690.926	3811.27
691.116	3712.97
691.305	3825.61
691.495	3723.21
691.684	3692.49
691.874	3657.67
692.063	3725.26
692.252	3815.37
692.442	3678.15
692.631	3596.23
692.82	3639.24
693.01	3629
693.199	3698.63
693.388	3569.61
693.578	3469.26
693.767	3645.38
693.956	3530.7
694.146	3571.66
694.335	3459.02
694.524	3577.8
694.713	3448.78
694.902	3422.16
695.092	3489.74
695.281	3555.27
695.47	3418.06
695.659	3344.33
695.848	3309.52
696.037	3424.2
696.226	3342.28
696.415	3317.71
696.604	3409.87
696.793	3327.95
696.982	3379.15
697.171	3252.17
697.36	3280.85
697.549	3315.66
697.738	3198.93
697.927	3301.33
698.116	3309.52
698.305	3348.43
698.494	3278.8
698.683	3203.02
698.872	3360.72
699.061	3223.5
699.25	3231.69
699.438	3188.69
699.627	3225.55
699.816	3112.91
700.005	3110.86
700.193	3258.32
700.382	3178.45
700.571	3108.82
700.76	3082.19
700.948	3069.91
701.137	3149.78
701.326	3203.02
701.514	3203.02
701.703	3205.07
701.892	2994.13
702.08	3084.24
702.269	3139.54
702.457	3049.43
702.646	3225.55
702.834	3076.05
703.023	3094.48
703.212	3151.82
703.4	3049.43
703.589	2959.31
703.777	3127.25
703.965	3022.8
704.154	3018.71
704.342	2981.84
704.531	3037.14
704.719	3024.85
704.907	3057.62
705.096	3069.91
705.284	2830.29
705.472	3074
705.661	2967.51
705.849	3010.51
706.037	2904.02
706.226	2961.36
706.414	2957.27
706.602	2826.2
706.79	3000.27
706.979	2916.31
707.167	2942.93
707.355	2875.35
707.543	2887.64
707.731	2963.41
707.919	2865.11
708.107	2766.81
708.296	2805.72
708.484	2934.74
708.672	2861.01
708.86	2869.2
709.048	2801.62
709.236	2805.72
709.424	2875.35
709.612	2797.53
709.8	2820.05
709.988	2805.72
710.176	2768.85
710.364	2711.51
710.551	2731.99
710.739	2705.37
710.927	2781.14
711.115	2740.18
711.303	2629.59
711.491	2734.04
711.679	2658.26
711.866	2779.09
712.054	2719.7
712.242	2703.32
712.43	2795.48
712.617	2783.19
712.805	2688.98
712.993	2756.57
713.181	2621.4
713.368	2676.7
713.556	2605.02
713.744	2617.3
713.931	2705.37
714.119	2664.41
714.306	2670.55
714.494	2648.02
714.682	2619.35
714.869	2555.86
715.057	2660.31
715.244	2615.26
715.432	2697.17
715.619	2617.3
715.807	2674.65
715.994	2568.15
716.182	2445.27
716.369	2600.92
716.556	2596.82
716.744	2404.32
716.931	2449.37
717.119	2539.48
717.306	2578.39
717.493	2590.68
717.681	2480.09
717.868	2537.43
718.055	2510.81
718.242	2437.08
718.43	2658.26
718.617	2451.42
718.804	2379.74
718.991	2465.75
719.179	2465.75
719.366	2478.04
719.553	2451.42
719.74	2535.39
719.927	2418.65
720.114	2453.47
720.301	2449.37
720.488	2373.6
720.676	2375.64
720.863	2371.55
721.05	2381.79
721.237	2422.75
721.424	2381.79
721.611	2369.5
721.798	2344.92
721.985	2322.4
722.172	2314.2
722.358	2400.22
722.545	2443.23
722.732	2242.53
722.919	2303.96
723.106	2355.16
723.293	2324.44
723.48	2342.88
723.667	2435.03
723.853	2334.68
724.04	2287.58
724.227	2379.74
724.414	2287.58
724.6	2256.86
724.787	2394.08
724.974	2211.81
725.161	2326.49
725.347	2301.92
725.534	2414.56
725.72	2310.11
725.907	2310.11
726.094	2365.4
726.28	2344.92
726.467	2260.96
726.653	2129.89
726.84	2375.64
727.027	2379.74
727.213	2203.61
727.4	2342.88
727.586	2291.68
727.773	2275.29
727.959	2258.91
728.145	2207.71
728.332	2269.15
728.518	2295.77
728.705	2195.42
728.891	2211.81
729.077	2279.39
729.264	2205.66
729.45	2242.53
729.636	2234.33
729.823	2199.52
730.009	2179.04
730.195	2234.33
730.382	2170.85
730.568	2289.63
730.754	2158.56
730.94	2226.14
731.126	2127.84
731.313	2174.94
731.499	2211.81
731.685	2258.91
731.871	2156.51
732.057	2281.44
732.243	2189.28
732.429	2240.48
732.615	2220
732.801	2166.75
732.987	2082.78
733.173	2090.98
733.359	2195.42
733.545	2150.37
733.731	2179.04
733.917	2174.94
734.103	2070.5
734.289	2105.31
734.475	2058.21
734.661	2199.52
734.847	2127.84
735.033	2115.55
735.219	2154.46
735.404	2080.74
735.59	2148.32
735.776	2074.59
735.962	2127.84
736.148	2160.61
736.333	2140.13
736.519	1966.05
736.705	2084.83
736.89	1947.62
737.076	2064.35
737.262	2004.96
737.447	2082.78
737.633	1957.86
737.819	2050.02
738.004	1964
738.19	2047.97
738.375	1920.99
738.561	2023.39
738.747	1996.77
738.932	2037.73
739.118	1992.67
739.303	1877.99
739.489	1886.18
739.674	1964
739.859	1984.48
740.045	1964
740.23	1970.15
740.416	1865.7
740.601	1875.94
740.786	1955.81
740.972	1918.95
741.157	1884.13
741.342	1896.42
741.528	1945.57
741.713	1933.28
741.898	1861.6
742.084	1941.47
742.269	1888.23
742.454	1884.13
742.639	1859.56
742.824	1804.26
743.01	1914.85
743.195	1937.38
743.38	1871.84
743.565	1816.55
743.75	1830.88
743.935	1701.86
744.12	1935.33
744.305	1785.83
744.49	1746.92
744.675	1753.06
744.86	1814.5
745.045	1701.86
745.23	1734.63
745.415	1773.54
745.6	1841.12
745.785	1703.91
745.97	1708.01
746.155	1632.23
746.34	1714.15
746.525	1572.84
746.71	1632.23
746.895	1650.66
747.079	1601.51
747.264	1679.33
747.449	1640.42
747.634	1626.09
747.819	1554.41
748.003	1615.85
748.188	1613.8
748.373	1638.37
748.557	1554.41
748.742	1611.75
748.927	1566.7
749.111	1529.83
749.296	1515.5
749.481	1486.83
749.665	1535.98
749.85	1503.21
750.034	1531.88
750.219	1492.97
750.404	1533.93
750.588	1499.11
750.773	1398.76
750.957	1484.78
751.141	1488.87
751.326	1441.77
751.51	1464.3
751.695	1392.62
751.879	1449.96
752.064	1425.39
752.248	1449.96
752.432	1312.75
752.617	1464.3
752.801	1380.33
752.985	1386.47
753.17	1425.39
753.354	1253.36
753.538	1357.8
753.722	1306.6
753.907	1359.85
754.091	1226.73
754.275	1384.43
754.459	1357.8
754.643	1265.64
754.828	1322.99
755.012	1355.76
755.196	1277.93
755.38	1302.51
755.564	1298.41
755.748	1220.59
755.932	1312.75
756.116	1232.88
756.3	1185.77
756.484	1193.97
756.668	1179.63
756.852	1220.59
757.036	1212.4
757.22	1136.62
757.404	1189.87
757.588	1191.92
757.772	1148.91
757.956	1038.32
758.14	1228.78
758.323	1216.49
758.507	1089.52
758.691	1126.38
758.875	1044.46
759.059	1200.11
759.242	1175.53
759.426	1177.58
759.61	1044.46
759.794	1032.18
759.977	1030.13
760.161	1089.52
760.345	1077.23
760.528	1019.89
760.712	1013.74
760.895	1062.9
761.079	1026.03
761.263	1007.6
761.446	1044.46
761.63	1013.74
761.813	1013.74
761.997	1003.5
762.18	976.88
762.364	1066.99
762.547	1036.27
762.731	1009.65
762.914	1036.27
763.098	1001.46
763.281	999.41
763.464	1007.6
763.648	978.93
763.831	1015.79
764.015	880.63
764.198	866.29
764.381	1015.79
764.564	954.35
764.748	929.78
764.931	995.31
765.114	966.64
765.297	872.43
765.481	796.66
765.664	944.11
765.847	933.87
766.03	946.16
766.213	843.76
766.397	944.11
766.58	905.2
766.763	972.79
766.946	864.24
767.129	847.86
767.312	905.2
767.495	927.73
767.678	884.72
767.861	925.68
768.044	833.52
768.227	890.87
768.41	872.43
768.593	798.71
768.776	872.43
768.959	804.85
769.142	864.24
769.324	772.08
769.507	874.48
769.69	839.67
769.873	925.68
770.056	884.72
770.239	874.48
770.421	872.43
770.604	878.58
770.787	860.15
770.97	892.91
771.152	776.18
771.335	837.62
771.518	804.85
771.7	786.42
771.883	884.72
772.066	749.56
772.248	739.32
772.431	817.14
772.613	806.9
772.796	811
772.978	825.33
773.161	819.19
773.343	765.94
773.526	724.98
773.708	790.52
773.891	704.5
774.073	706.55
774.256	710.65
774.438	835.57
774.621	659.45
774.803	770.04
774.985	722.93
775.168	763.89
775.35	700.41
775.532	811
775.715	792.56
775.897	649.21
776.079	739.32
776.261	692.21
776.444	647.16
776.626	702.45
776.808	653.3
776.99	634.87
777.173	649.21
777.355	694.26
777.537	573.43
777.719	681.97
777.901	673.78
778.083	632.82
778.265	647.16
778.447	681.97
778.629	630.77
778.811	614.39
778.993	587.77
779.175	722.93
779.357	585.72
779.539	561.14
779.721	589.81
779.903	614.39
780.085	534.52
780.267	591.86
780.449	552.95
780.631	593.91
780.812	628.73
780.994	524.28
781.176	536.57
781.358	473.08
781.54	579.58
781.721	546.81
781.903	528.38
782.085	481.27
782.267	503.8
782.448	595.96
782.63	511.99
782.812	532.47
782.993	569.34
783.175	454.65
783.357	530.42
783.538	466.94
783.72	419.83
783.901	483.32
784.083	600.05
784.264	497.66
784.446	507.9
784.627	450.55
784.809	495.61
784.99	477.18
785.172	483.32
785.353	518.14
785.535	411.64
785.716	514.04
785.897	430.07
786.079	438.27
786.26	389.11
786.441	385.02
786.623	397.31
786.804	415.74
786.985	444.41
787.167	432.12
787.348	391.16
787.529	473.08
787.71	397.31
787.891	346.11
788.073	421.88
788.254	315.39
788.435	376.83
788.616	385.02
788.797	344.06
788.978	360.44
789.159	372.73
789.34	352.25
789.522	421.88
789.703	333.82
789.884	362.49
790.065	387.07
790.246	387.07
790.427	331.77
790.607	380.92
790.788	393.21
790.969	266.24
791.15	389.11
791.331	368.63
791.512	344.06
791.693	348.15
791.874	354.3
792.054	329.72
792.235	278.52
792.416	399.35
792.597	290.81
792.778	380.92
792.958	370.68
793.139	305.15
793.32	344.06
793.5	301.05
793.681	315.39
793.862	233.47
794.042	348.15
794.223	296.96
794.404	325.63
794.584	278.52
794.765	370.68
794.945	290.81
795.126	307.2
795.306	305.15
795.487	233.47
795.667	323.58
795.848	262.14
796.028	339.96
796.209	282.62
796.389	286.72
796.57	284.67
796.75	284.67
796.93	292.86
797.111	227.32
797.291	325.63
797.471	327.67
797.652	274.43
797.832	307.2
798.012	350.2
798.192	239.61
798.373	266.24
798.553	194.56
798.733	268.28
798.913	299
799.093	235.52
799.274	237.56
799.454	237.56
799.634	245.76
799.814	282.62
799.994	346.11
800.174	274.43
800.354	212.99
800.534	182.27
800.714	299
800.894	219.13
801.074	223.23
801.254	192.51
801.434	233.47
801.614	301.05
801.794	311.29
801.974	643.06
802.154	231.42
802.334	256
802.514	194.56
802.693	221.18
802.873	161.79
803.053	237.56
803.233	192.51
803.413	229.37
803.592	139.26
803.772	264.19
803.952	274.43
804.131	266.24
804.311	276.48
804.491	217.08
804.67	223.23
804.85	182.27
805.03	155.65
805.209	221.18
805.389	262.14
805.568	225.28
805.748	188.41
805.928	198.65
806.107	215.04
806.287	225.28
806.466	223.23
806.646	180.22
806.825	141.31
807.004	239.61
807.184	337.91
807.363	188.41
807.543	157.69
807.722	272.38
807.901	178.17
808.081	245.76
808.26	198.65
808.439	194.56
808.619	223.23
808.798	155.65
808.977	247.8
809.156	225.28
809.336	200.7
809.515	223.23
809.694	133.12
809.873	184.32
810.052	192.51
810.231	262.14
810.411	174.08
810.59	188.41
810.769	176.13
810.948	241.66
811.127	161.79
811.306	184.32
811.485	120.83
811.664	176.13
811.843	112.64
812.022	147.45
812.201	163.84
812.38	159.74
812.559	231.42
812.737	112.64
812.916	180.22
813.095	145.41
813.274	139.26
813.453	190.46
813.632	167.93
813.811	206.84
813.989	159.74
814.168	176.13
814.347	114.69
814.526	143.36
814.704	186.37
814.883	149.5
815.062	157.69
815.24	131.07
815.419	104.45
815.598	139.26
815.776	110.59
815.955	186.37
816.133	51.2
816.312	172.03
816.49	129.02
816.669	155.65
816.847	149.5
817.026	143.36
817.204	122.88
817.383	96.25
817.561	71.68
817.74	137.21
817.918	151.55
818.097	217.08
818.275	178.17
818.453	204.8
818.632	167.93
818.81	-10.24
818.988	135.17
819.167	106.49
819.345	157.69
819.523	112.64
819.701	122.88
819.879	135.17
820.058	131.07
820.236	83.97
820.414	83.97
820.592	45.06
820.77	36.86
820.948	88.06
821.127	114.69
821.305	172.03
821.483	106.49
821.661	143.36
821.839	135.17
822.017	94.21
822.195	49.15
822.373	141.31
822.551	159.74
822.729	81.92
822.907	129.02
823.085	137.21
823.262	122.88
823.44	124.93
823.618	79.87
823.796	118.78
823.974	61.44
824.152	59.39
824.329	79.87
824.507	104.45
824.685	137.21
824.863	69.63
825.04	88.06
825.218	141.31
825.396	114.69
825.574	141.31
825.751	135.17
825.929	126.97
826.107	67.58
826.284	81.92
826.462	59.39
826.639	71.68
826.817	98.3
826.994	139.26
827.172	118.78
827.349	178.17
827.527	81.92
827.704	-36.86
827.882	94.21
828.059	122.88
828.237	26.62
828.414	94.21
828.591	86.01
828.769	49.15
828.946	53.25
829.124	178.17
829.301	131.07
829.478	43.01
829.655	77.82
829.833	143.36
830.01	4.1
830.187	147.45
830.364	116.73
830.542	71.68
830.719	94.21
830.896	67.58
831.073	61.44
831.25	165.89
831.427	98.3
831.604	67.58
831.782	114.69
831.959	118.78
832.136	71.68
832.313	98.3
832.49	53.25
832.667	165.89
832.844	77.82
833.021	65.53
833.198	92.16
833.374	2.05
833.551	143.36
833.728	96.25
833.905	104.45
834.082	55.3
834.259	79.87
834.436	149.5
834.612	55.3
834.789	145.41
834.966	110.59
835.143	86.01
835.319	14.34
835.496	65.53
835.673	61.44
835.85	73.73
836.026	126.97
836.203	61.44
836.38	100.35
836.556	126.97
836.733	69.63
836.909	110.59
837.086	30.72
837.262	75.77
837.439	69.63
837.616	73.73
837.792	51.2
837.968	69.63
838.145	55.3
838.321	75.77
838.498	71.68
838.674	-6.14
838.851	88.06
839.027	34.82
839.203	20.48
839.38	40.96
839.556	28.67
839.732	83.97
839.909	57.34
840.085	86.01
840.261	75.77
840.437	137.21
840.614	67.58
840.79	71.68
840.966	71.68
841.142	16.38
841.318	92.16
841.494	73.73
841.671	-14.34
841.847	75.77
842.023	30.72
842.199	61.44
842.375	61.44
842.551	28.67
842.727	47.1
842.903	49.15
843.079	24.58
843.255	90.11
843.431	108.54
843.607	114.69
843.783	43.01
843.959	20.48
844.134	57.34
844.31	75.77
844.486	112.64
844.662	129.02
844.838	2.05
845.013	40.96
845.189	69.63
845.365	96.25
845.541	49.15
845.716	53.25
845.892	94.21
846.068	10.24
846.244	51.2
846.419	71.68
846.595	61.44
846.77	36.86
846.946	77.82
847.122	116.73
847.297	108.54
847.473	49.15
847.648	18.43
847.824	96.25
847.999	34.82
848.175	63.49
848.35	49.15
848.526	-28.67
848.701	49.15
848.876	28.67
849.052	38.91
849.227	81.92
849.403	-24.58
849.578	57.34
849.753	8.19
849.929	133.12
850.104	69.63
850.279	73.73
850.454	81.92
850.63	49.15
850.805	57.34
850.98	38.91
851.155	6.14
851.33	20.48
851.505	12.29
851.681	75.77
851.856	34.82
852.031	32.77
852.206	16.38
852.381	16.38
852.556	106.49
852.731	10.24
852.906	24.58
853.081	79.87
853.256	79.87
853.431	26.62
853.606	77.82
853.781	-18.43
853.956	-4.1
854.131	79.87
854.305	18.43
854.48	-0
854.655	38.91
854.83	6.14
855.005	88.06
855.18	34.82
855.354	40.96
855.529	-20.48
855.704	-36.86
855.879	94.21
856.053	38.91
856.228	98.3
856.403	51.2
856.577	59.39
856.752	-49.15
856.926	90.11
857.101	-12.29
857.276	8.19
857.45	47.1
857.625	67.58
857.799	-8.19
857.974	34.82
858.148	-10.24
858.323	45.06
858.497	38.91
858.672	-24.58
858.846	12.29
859.02	-32.77
859.195	61.44
859.369	53.25
859.543	69.63
859.718	83.97
859.892	-10.24
860.066	73.73
860.241	32.77
860.415	100.35
860.589	36.86
860.763	45.06
860.938	14.34
861.112	-22.53
861.286	-57.34
861.46	90.11
861.634	124.93
861.808	28.67
861.982	10.24
862.157	18.43
862.331	77.82
862.505	10.24
862.679	49.15
862.853	12.29
863.027	-12.29
863.201	57.34
863.375	45.06
863.549	49.15
863.722	22.53
863.896	-22.53
864.07	45.06
864.244	24.58
864.418	98.3
864.592	-43.01
864.766	-88.06
864.939	-6.14
865.113	-61.44
865.287	36.86
865.461	-40.96
865.634	59.39
865.808	106.49
865.982	32.77
866.156	-10.24
866.329	16.38
866.503	24.58
866.676	-2.05
866.85	34.82
867.024	-14.34
867.197	73.73
867.371	24.58
867.544	34.82
867.718	-0
867.891	51.2
868.065	20.48
868.238	38.91
868.412	63.49
868.585	75.77
868.759	32.77
868.932	-14.34
869.105	-0
869.279	24.58
869.452	-22.53
869.625	2.05
869.799	14.34
869.972	6.14
870.145	-4.1
870.319	2.05
870.492	-88.06
870.665	34.82
870.838	-10.24
871.011	-2.05
871.185	43.01
871.358	-43.01
871.531	88.06
871.704	-43.01
871.877	4.1
872.05	24.58
872.223	-14.34
872.396	-16.38
872.569	16.38
872.742	2.05
872.915	30.72
873.088	51.2
873.261	22.53
873.434	81.92
873.607	43.01
873.78	-8.19
873.953	-47.1
874.126	61.44
874.299	14.34
874.471	92.16
874.644	36.86
874.817	43.01
874.99	-12.29
875.163	73.73
875.335	57.34
875.508	53.25
875.681	36.86
875.853	10.24
876.026	18.43
876.199	53.25
876.371	38.91
876.544	32.77
876.717	-22.53
876.889	8.19
877.062	18.43
877.234	-4.1
877.407	12.29
877.579	40.96
877.752	-0
877.924	-18.43
878.097	45.06
878.269	18.43
878.442	49.15
878.614	-47.1
878.786	24.58
878.959	-16.38
879.131	4.1
879.303	12.29
879.476	-24.58
879.648	-12.29
879.82	38.91
879.993	81.92
880.165	32.77
880.337	47.1
880.509	2.05
880.681	28.67
880.854	12.29
881.026	47.1
881.198	34.82
881.37	-36.86
881.542	73.73
881.714	10.24
881.886	90.11
882.058	47.1
882.23	104.45
882.402	-53.25
882.574	63.49
882.746	-30.72
882.918	51.2
883.09	40.96
883.262	18.43
883.434	20.48
883.606	26.62
883.778	-2.05
883.95	77.82
884.122	-14.34
884.293	75.77
884.465	98.3
884.637	20.48
884.809	-45.06
884.98	-0
885.152	36.86
885.324	94.21
885.496	-10.24
885.667	36.86
885.839	-18.43
886.011	18.43
886.182	102.4
886.354	-8.19
886.525	-26.62
886.697	94.21
886.869	-10.24
887.04	6.14
887.212	67.58
887.383	47.1
887.555	-57.34
887.726	83.97
887.897	-24.58
888.069	-10.24
888.24	88.06
888.412	45.06
888.583	12.29
888.754	34.82
888.926	-4.1
889.097	65.53
889.268	38.91
889.44	-0
889.611	20.48
889.782	-36.86
889.953	8.19
890.125	53.25
890.296	-10.24
890.467	16.38
890.638	20.48
890.809	-0
890.98	38.91
891.151	24.58
891.323	88.06
891.494	-14.34
891.665	8.19
891.836	-24.58
892.007	16.38
892.178	-49.15
892.349	73.73
892.52	20.48
892.691	10.24
892.862	-24.58
893.032	32.77
893.203	-36.86
893.374	79.87
893.545	77.82
893.716	32.77
893.887	-4.1
894.057	26.62
894.228	-4.1
894.399	-59.39
894.57	24.58
894.74	34.82
894.911	102.4
895.082	16.38
895.253	38.91
895.423	-45.06
895.594	2.05
895.764	40.96
895.935	-36.86
896.106	83.97
896.276	-22.53
896.447	67.58
896.617	40.96
896.788	-12.29
896.958	-0
897.129	-6.14
897.299	40.96
897.47	-14.34
897.64	34.82
897.81	30.72
897.981	10.24
898.151	36.86
898.322	2.05
898.492	-8.19
898.662	22.53
898.832	67.58
899.003	-0
899.173	10.24
899.343	20.48
899.513	4.1
