Data from USB4F104151__178__11-09-30-243.txt Node

Date: Wed Mar 12 11:09:30 EDT 2025
User: louis
Spectrometer: USB4F10415
Trigger mode: 4
Integration Time (sec): 2.000000E-2
Scans to average: 1
Electric dark correction enabled: true
Nonlinearity correction enabled: false
Boxcar width: 0
XAxis mode: Wavelengths
Number of Pixels in Spectrum: 3648
>>>>>Begin Spectral Data<<<<<
178.204	-117.93
178.424	-117.93
178.644	-117.93
178.864	-103.59
179.084	-122.02
179.304	15.19
179.524	-60.59
179.744	-58.54
179.964	84.82
180.184	-1.19
180.404	-5.29
180.624	47.96
180.844	-33.96
181.064	-64.68
181.283	33.62
181.503	-1.19
181.723	43.86
181.943	33.62
182.163	-5.29
182.383	19.29
182.602	-40.11
182.822	39.76
183.042	29.52
183.262	-42.15
183.482	-1.19
183.701	-27.82
183.921	11.09
184.141	-7.34
184.361	29.52
184.58	-48.3
184.8	43.86
185.02	29.52
185.239	-7.34
185.459	23.38
185.679	-1.19
185.898	4.95
186.118	-11.43
186.338	-76.97
186.557	9.05
186.777	60.24
186.997	50
187.216	-40.11
187.436	25.43
187.655	-23.72
187.875	68.44
188.095	-21.67
188.314	60.24
188.534	60.24
188.753	-19.63
188.973	47.96
189.192	45.91
189.412	-3.24
189.631	45.91
189.851	19.29
190.07	88.92
190.29	-36.01
190.509	25.43
190.729	19.29
190.948	-7.34
191.168	37.72
191.387	84.82
191.607	-42.15
191.826	9.05
192.045	39.76
192.265	11.09
192.484	-19.63
192.704	35.67
192.923	-21.67
193.142	27.48
193.362	-13.48
193.581	7
193.8	13.14
194.02	56.15
194.239	-15.53
194.458	37.72
194.678	62.29
194.897	11.09
195.116	45.91
195.335	-27.82
195.555	19.29
195.774	66.39
195.993	39.76
196.212	-1.19
196.432	31.57
196.651	-91.31
196.87	-7.34
197.089	111.44
197.308	4.95
197.528	-11.43
197.747	-44.2
197.966	4.95
198.185	23.38
198.404	-38.06
198.623	-7.34
198.842	-9.39
199.062	-9.39
199.281	-62.63
199.5	19.29
199.719	37.72
199.938	31.57
200.157	23.38
200.376	-1.19
200.595	60.24
200.814	-48.3
201.033	15.19
201.252	-21.67
201.471	76.63
201.69	-38.06
201.909	15.19
202.128	2.9
202.347	62.29
202.566	-15.53
202.785	-7.34
203.004	-54.44
203.223	72.53
203.442	-33.96
203.661	37.72
203.879	56.15
204.098	-7.34
204.317	-50.35
204.536	4.95
204.755	-42.15
204.974	109.4
205.193	-21.67
205.411	43.86
205.63	-19.63
205.849	88.92
206.068	-15.53
206.287	58.2
206.505	-33.96
206.724	17.24
206.943	52.05
207.162	-9.39
207.381	-38.06
207.599	15.19
207.818	-19.63
208.037	0.85
208.255	11.09
208.474	37.72
208.693	43.86
208.911	31.57
209.13	-13.48
209.349	-31.91
209.567	-58.54
209.786	-3.24
210.005	-38.06
210.223	103.25
210.442	-25.77
210.661	-5.29
210.879	-91.31
211.098	2.9
211.316	37.72
211.535	47.96
211.753	-31.91
211.972	-42.15
212.191	-31.91
212.409	-64.68
212.628	41.81
212.846	54.1
213.065	37.72
213.283	-44.2
213.502	39.76
213.72	29.52
213.938	35.67
214.157	21.33
214.375	-46.25
214.594	19.29
214.812	43.86
215.031	-60.59
215.249	-66.73
215.467	-42.15
215.686	43.86
215.904	76.63
216.122	-31.91
216.341	-29.87
216.559	-52.39
216.778	62.29
216.996	-3.24
217.214	33.62
217.432	-72.87
217.651	-31.91
217.869	-13.48
218.087	-7.34
218.306	-101.55
218.524	15.19
218.742	33.62
218.96	68.44
219.179	13.14
219.397	-27.82
219.615	37.72
219.833	43.86
220.051	29.52
220.27	4.95
220.488	23.38
220.706	21.33
220.924	54.1
221.142	13.14
221.36	25.43
221.578	56.15
221.796	-62.63
222.015	-46.25
222.233	-15.53
222.451	74.58
222.669	-66.73
222.887	47.96
223.105	-27.82
223.323	27.48
223.541	-13.48
223.759	-17.58
223.977	-9.39
224.195	-3.24
224.413	21.33
224.631	58.2
224.849	23.38
225.067	27.48
225.285	23.38
225.503	-25.77
225.721	-13.48
225.939	-38.06
226.157	-36.01
226.375	11.09
226.592	-46.25
226.81	84.82
227.028	78.68
227.246	101.2
227.464	21.33
227.682	-11.43
227.9	7
228.117	11.09
228.335	-19.63
228.553	29.52
228.771	19.29
228.989	15.19
229.206	9.05
229.424	25.43
229.642	-29.87
229.86	-25.77
230.077	56.15
230.295	-119.98
230.513	4.95
230.731	-15.53
230.948	27.48
231.166	7
231.384	7
231.601	-101.55
231.819	35.67
232.037	35.67
232.254	-3.24
232.472	39.76
232.689	-5.29
232.907	13.14
233.125	43.86
233.342	-19.63
233.56	-33.96
233.777	50
233.995	-76.97
234.213	43.86
234.43	27.48
234.648	-52.39
234.865	-9.39
235.083	97.11
235.3	-1.19
235.518	-50.35
235.735	25.43
235.953	31.57
236.17	39.76
236.388	25.43
236.605	7
236.822	-17.58
237.04	-21.67
237.257	23.38
237.475	-56.49
237.692	-1.19
237.909	7
238.127	33.62
238.344	-1.19
238.562	-50.35
238.779	-21.67
238.996	37.72
239.214	23.38
239.431	43.86
239.648	43.86
239.865	31.57
240.083	52.05
240.3	50
240.517	13.14
240.735	21.33
240.952	9.05
241.169	47.96
241.386	-21.67
241.603	2.9
241.821	-21.67
242.038	7
242.255	47.96
242.472	-9.39
242.689	23.38
242.907	56.15
243.124	15.19
243.341	58.2
243.558	-1.19
243.775	35.67
243.992	-50.35
244.209	-3.24
244.426	43.86
244.643	-1.19
244.86	-60.59
245.078	50
245.295	-25.77
245.512	4.95
245.729	-5.29
245.946	-19.63
246.163	-5.29
246.38	11.09
246.597	-79.02
246.814	-1.19
247.031	-27.82
247.248	37.72
247.464	78.68
247.681	13.14
247.898	70.48
248.115	41.81
248.332	-17.58
248.549	84.82
248.766	-62.63
248.983	-23.72
249.2	13.14
249.417	11.09
249.633	-54.44
249.85	27.48
250.067	11.09
250.284	-5.29
250.501	68.44
250.717	13.14
250.934	-56.49
251.151	29.52
251.368	4.95
251.585	37.72
251.801	-9.39
252.018	-36.01
252.235	15.19
252.451	25.43
252.668	11.09
252.885	-21.67
253.102	58.2
253.318	-13.48
253.535	-17.58
253.752	2.9
253.968	74.58
254.185	-15.53
254.401	74.58
254.618	-17.58
254.835	-29.87
255.051	13.14
255.268	43.86
255.484	2.9
255.701	2.9
255.917	9.05
256.134	-11.43
256.351	2.9
256.567	-36.01
256.784	105.3
257	15.19
257.217	45.91
257.433	-25.77
257.65	43.86
257.866	115.54
258.082	21.33
258.299	11.09
258.515	31.57
258.732	-1.19
258.948	-7.34
259.165	0.85
259.381	-21.67
259.597	39.76
259.814	0.85
260.03	15.19
260.246	7
260.463	76.63
260.679	103.25
260.895	-48.3
261.112	23.38
261.328	-21.67
261.544	54.1
261.761	-62.63
261.977	62.29
262.193	9.05
262.409	70.48
262.626	-5.29
262.842	33.62
263.058	-11.43
263.274	29.52
263.49	13.14
263.707	-1.19
263.923	-1.19
264.139	-19.63
264.355	23.38
264.571	-13.48
264.787	35.67
265.004	-21.67
265.22	-7.34
265.436	-50.35
265.652	-23.72
265.868	-9.39
266.084	19.29
266.3	11.09
266.516	-1.19
266.732	33.62
266.948	-9.39
267.164	-11.43
267.38	-27.82
267.596	-36.01
267.812	-31.91
268.028	-27.82
268.244	-29.87
268.46	-13.48
268.676	-40.11
268.892	19.29
269.108	7
269.324	-15.53
269.54	-13.48
269.756	37.72
269.972	-19.63
270.188	2.9
270.403	-74.92
270.619	-15.53
270.835	11.09
271.051	50
271.267	-48.3
271.483	11.09
271.698	50
271.914	2.9
272.13	-15.53
272.346	-83.11
272.562	47.96
272.777	-33.96
272.993	-70.83
273.209	19.29
273.425	37.72
273.64	19.29
273.856	-33.96
274.072	7
274.287	-79.02
274.503	52.05
274.719	-3.24
274.934	4.95
275.15	-52.39
275.366	29.52
275.581	-58.54
275.797	7
276.012	15.19
276.228	47.96
276.444	-105.64
276.659	60.24
276.875	-7.34
277.09	-66.73
277.306	62.29
277.521	-27.82
277.737	25.43
277.952	17.24
278.168	7
278.383	-54.44
278.599	-33.96
278.814	2.9
279.03	-68.78
279.245	133.97
279.461	54.1
279.676	41.81
279.892	11.09
280.107	-13.48
280.322	-56.49
280.538	-29.87
280.753	-29.87
280.969	23.38
281.184	19.29
281.399	25.43
281.615	-21.67
281.83	43.86
282.045	-1.19
282.26	-21.67
282.476	2.9
282.691	-27.82
282.906	-29.87
283.122	-17.58
283.337	-1.19
283.552	105.3
283.767	-44.2
283.983	-46.25
284.198	-19.63
284.413	-87.21
284.628	-46.25
284.843	60.24
285.058	101.2
285.274	11.09
285.489	-31.91
285.704	45.91
285.919	-7.34
286.134	52.05
286.349	-29.87
286.564	-5.29
286.779	56.15
286.995	66.39
287.21	7
287.425	86.87
287.64	-15.53
287.855	56.15
288.07	35.67
288.285	-136.36
288.5	19.29
288.715	90.96
288.93	29.52
289.145	-29.87
289.36	25.43
289.575	15.19
289.79	-1.19
290.004	4.95
290.219	35.67
290.434	2.9
290.649	-7.34
290.864	0.85
291.079	-42.15
291.294	-21.67
291.509	-3.24
291.724	-11.43
291.938	-7.34
292.153	29.52
292.368	52.05
292.583	-7.34
292.798	50
293.012	101.2
293.227	-21.67
293.442	-23.72
293.657	0.85
293.871	29.52
294.086	-1.19
294.301	15.19
294.516	15.19
294.73	9.05
294.945	-46.25
295.16	-42.15
295.374	-33.96
295.589	97.11
295.804	35.67
296.018	-48.3
296.233	-9.39
296.447	35.67
296.662	-58.54
296.877	11.09
297.091	7
297.306	-15.53
297.52	-23.72
297.735	50
297.949	-25.77
298.164	2.9
298.378	15.19
298.593	-21.67
298.807	-29.87
299.022	-33.96
299.236	-42.15
299.451	-46.25
299.665	9.05
299.88	11.09
300.094	-17.58
300.309	17.24
300.523	35.67
300.737	54.1
300.952	2.9
301.166	-15.53
301.381	23.38
301.595	39.76
301.809	-31.91
302.024	-38.06
302.238	62.29
302.452	-15.53
302.667	-15.53
302.881	45.91
303.095	-29.87
303.309	45.91
303.524	27.48
303.738	-23.72
303.952	15.19
304.166	4.95
304.381	-38.06
304.595	58.2
304.809	-19.63
305.023	17.24
305.237	-46.25
305.452	15.19
305.666	21.33
305.88	-27.82
306.094	76.63
306.308	-19.63
306.522	-27.82
306.736	2.9
306.95	27.48
307.164	-42.15
307.379	-31.91
307.593	27.48
307.807	27.48
308.021	23.38
308.235	-17.58
308.449	-56.49
308.663	-23.72
308.877	19.29
309.091	39.76
309.305	45.91
309.519	9.05
309.733	33.62
309.947	-48.3
310.161	7
310.374	-52.39
310.588	35.67
310.802	-7.34
311.016	13.14
311.23	-25.77
311.444	52.05
311.658	-21.67
311.872	13.14
312.085	17.24
312.299	54.1
312.513	56.15
312.727	-81.07
312.941	-25.77
313.154	43.86
313.368	-29.87
313.582	-5.29
313.796	7
314.009	-5.29
314.223	17.24
314.437	-11.43
314.651	4.95
314.864	-7.34
315.078	25.43
315.292	-11.43
315.505	17.24
315.719	-7.34
315.933	-25.77
316.146	-38.06
316.36	-44.2
316.573	11.09
316.787	7
317.001	29.52
317.214	43.86
317.428	-19.63
317.641	-27.82
317.855	-33.96
318.068	60.24
318.282	11.09
318.495	58.2
318.709	64.34
318.922	13.14
319.136	47.96
319.349	27.48
319.563	111.44
319.776	43.86
319.99	29.52
320.203	31.57
320.417	56.15
320.63	-17.58
320.843	50
321.057	15.19
321.27	-33.96
321.483	-17.58
321.697	54.1
321.91	27.48
322.124	35.67
322.337	29.52
322.55	11.09
322.763	-15.53
322.977	-48.3
323.19	21.33
323.403	52.05
323.617	-15.53
323.83	35.67
324.043	25.43
324.256	-33.96
324.469	29.52
324.683	-25.77
324.896	31.57
325.109	15.19
325.322	29.52
325.535	25.43
325.748	35.67
325.962	0.85
326.175	-13.48
326.388	21.33
326.601	58.2
326.814	-31.91
327.027	-11.43
327.24	-33.96
327.453	9.05
327.666	21.33
327.879	37.72
328.092	-33.96
328.305	72.53
328.518	11.09
328.731	45.91
328.944	29.52
329.157	-54.44
329.37	25.43
329.583	-9.39
329.796	25.43
330.009	-29.87
330.222	-3.24
330.435	-21.67
330.648	84.82
330.861	-17.58
331.073	-5.29
331.286	-74.92
331.499	25.43
331.712	-23.72
331.925	-36.01
332.138	-13.48
332.35	-36.01
332.563	31.57
332.776	-40.11
332.989	19.29
333.202	-74.92
333.414	58.2
333.627	19.29
333.84	-15.53
334.053	-3.24
334.265	2.9
334.478	27.48
334.691	-5.29
334.903	-1.19
335.116	21.33
335.329	-33.96
335.541	58.2
335.754	54.1
335.966	29.52
336.179	21.33
336.392	-5.29
336.604	33.62
336.817	-33.96
337.029	43.86
337.242	58.2
337.454	-13.48
337.667	-44.2
337.88	31.57
338.092	-3.24
338.305	111.44
338.517	-5.29
338.729	90.96
338.942	23.38
339.154	41.81
339.367	-33.96
339.579	-33.96
339.792	-19.63
340.004	37.72
340.217	-76.97
340.429	-5.29
340.641	-40.11
340.854	93.01
341.066	0.85
341.278	33.62
341.491	39.76
341.703	43.86
341.915	-17.58
342.128	-5.29
342.34	66.39
342.552	4.95
342.764	-31.91
342.977	66.39
343.189	-29.87
343.401	-46.25
343.613	15.19
343.826	90.96
344.038	50
344.25	-1.19
344.462	33.62
344.674	-38.06
344.886	-29.87
345.099	-74.92
345.311	15.19
345.523	43.86
345.735	0.85
345.947	-21.67
346.159	39.76
346.371	47.96
346.583	-79.02
346.795	41.81
347.007	15.19
347.219	31.57
347.431	9.05
347.643	60.24
347.855	-17.58
348.067	72.53
348.279	19.29
348.491	45.91
348.703	11.09
348.915	31.57
349.127	-5.29
349.339	-21.67
349.551	-19.63
349.763	-9.39
349.975	111.44
350.187	-1.19
350.399	19.29
350.61	13.14
350.822	-46.25
351.034	-15.53
351.246	-42.15
351.458	9.05
351.669	31.57
351.881	25.43
352.093	33.62
352.305	62.29
352.517	27.48
352.728	35.67
352.94	25.43
353.152	25.43
353.363	-9.39
353.575	-25.77
353.787	78.68
353.999	17.24
354.21	15.19
354.422	4.95
354.633	50
354.845	9.05
355.057	27.48
355.268	-60.59
355.48	-64.68
355.692	15.19
355.903	52.05
356.115	7
356.326	50
356.538	13.14
356.749	54.1
356.961	39.76
357.172	17.24
357.384	-23.72
357.595	27.48
357.807	15.19
358.018	0.85
358.23	-68.78
358.441	58.2
358.653	29.52
358.864	-66.73
359.075	-15.53
359.287	-1.19
359.498	-3.24
359.709	-33.96
359.921	17.24
360.132	90.96
360.344	90.96
360.555	19.29
360.766	-13.48
360.977	-7.34
361.189	19.29
361.4	-50.35
361.611	-19.63
361.823	-13.48
362.034	70.48
362.245	-62.63
362.456	7
362.667	13.14
362.879	19.29
363.09	-33.96
363.301	39.76
363.512	-38.06
363.723	-13.48
363.935	4.95
364.146	43.86
364.357	33.62
364.568	19.29
364.779	-15.53
364.99	33.62
365.201	-85.16
365.412	50
365.623	70.48
365.834	60.24
366.045	15.19
366.256	-13.48
366.467	43.86
366.678	43.86
366.889	37.72
367.1	25.43
367.311	68.44
367.522	-3.24
367.733	-13.48
367.944	33.62
368.155	41.81
368.366	62.29
368.577	56.15
368.788	45.91
368.999	-33.96
369.209	50
369.42	58.2
369.631	62.29
369.842	70.48
370.053	45.91
370.264	31.57
370.474	11.09
370.685	7
370.896	58.2
371.107	29.52
371.317	-7.34
371.528	-23.72
371.739	15.19
371.95	68.44
372.16	60.24
372.371	-42.15
372.582	31.57
372.792	4.95
373.003	41.81
373.214	-23.72
373.424	13.14
373.635	15.19
373.846	23.38
374.056	-38.06
374.267	33.62
374.477	35.67
374.688	31.57
374.898	52.05
375.109	33.62
375.319	-42.15
375.53	19.29
375.74	15.19
375.951	19.29
376.161	21.33
376.372	7
376.582	7
376.793	35.67
377.003	-66.73
377.214	2.9
377.424	52.05
377.635	4.95
377.845	-11.43
378.055	-9.39
378.266	17.24
378.476	-1.19
378.686	-13.48
378.897	47.96
379.107	47.96
379.317	47.96
379.528	82.77
379.738	86.87
379.948	-38.06
380.158	15.19
380.369	45.91
380.579	-7.34
380.789	33.62
380.999	-9.39
381.21	0.85
381.42	80.72
381.63	-13.48
381.84	0.85
382.05	66.39
382.261	25.43
382.471	-9.39
382.681	-38.06
382.891	64.34
383.101	0.85
383.311	-42.15
383.521	-68.78
383.731	97.11
383.941	66.39
384.151	-5.29
384.361	39.76
384.571	-5.29
384.781	-19.63
384.991	62.29
385.201	74.58
385.411	-36.01
385.621	58.2
385.831	-13.48
386.041	-5.29
386.251	4.95
386.461	27.48
386.671	-9.39
386.881	25.43
387.091	-5.29
387.301	-23.72
387.511	93.01
387.72	41.81
387.93	41.81
388.14	0.85
388.35	37.72
388.56	0.85
388.769	47.96
388.979	-27.82
389.189	52.05
389.399	15.19
389.609	19.29
389.818	66.39
390.028	70.48
390.238	97.11
390.447	19.29
390.657	11.09
390.867	-40.11
391.076	17.24
391.286	-21.67
391.496	-5.29
391.705	76.63
391.915	-1.19
392.125	33.62
392.334	11.09
392.544	41.81
392.753	54.1
392.963	7
393.172	27.48
393.382	19.29
393.591	90.96
393.801	74.58
394.01	35.67
394.22	-9.39
394.429	-44.2
394.639	29.52
394.848	105.3
395.058	27.48
395.267	11.09
395.477	-11.43
395.686	43.86
395.895	76.63
396.105	27.48
396.314	97.11
396.524	50
396.733	84.82
396.942	68.44
397.152	13.14
397.361	58.2
397.57	78.68
397.78	88.92
397.989	66.39
398.198	58.2
398.407	-33.96
398.617	45.91
398.826	21.33
399.035	64.34
399.244	78.68
399.453	35.67
399.663	41.81
399.872	15.19
400.081	2.9
400.29	31.57
400.499	68.44
400.708	82.77
400.917	31.57
401.127	50
401.336	62.29
401.545	60.24
401.754	15.19
401.963	70.48
402.172	9.05
402.381	80.72
402.59	80.72
402.799	-9.39
403.008	72.53
403.217	164.69
403.426	99.16
403.635	86.87
403.844	27.48
404.053	52.05
404.262	7
404.471	136.02
404.68	86.87
404.888	29.52
405.097	43.86
405.306	23.38
405.515	84.82
405.724	136.02
405.933	127.83
406.142	125.78
406.35	146.26
406.559	52.05
406.768	50
406.977	144.21
407.185	164.69
407.394	146.26
407.603	47.96
407.812	138.07
408.02	66.39
408.229	117.59
408.438	107.35
408.646	133.97
408.855	119.64
409.064	113.49
409.272	82.77
409.481	68.44
409.69	170.83
409.898	148.31
410.107	240.47
410.315	148.31
410.524	142.16
410.733	193.36
410.941	99.16
411.15	162.64
411.358	219.99
411.567	144.21
411.775	312.14
411.984	230.23
412.192	283.47
412.401	213.84
412.609	254.8
412.818	215.89
413.026	301.9
413.234	246.61
413.443	297.81
413.651	277.33
413.86	318.29
414.068	387.92
414.276	387.92
414.485	316.24
414.693	385.87
414.901	435.02
415.11	379.73
415.318	373.58
415.526	459.6
415.734	400.21
415.943	467.79
416.151	498.51
416.359	406.35
416.567	453.45
416.776	508.75
416.984	539.47
417.192	590.67
417.4	615.24
417.608	658.25
417.817	617.29
418.025	701.26
418.233	693.07
418.441	680.78
418.649	664.4
418.857	709.45
419.065	785.23
419.273	768.84
419.481	803.66
419.689	893.77
419.897	832.33
420.105	920.39
420.313	830.28
420.521	852.81
420.729	885.58
420.937	985.93
421.145	985.93
421.353	994.12
421.561	1098.56
421.769	1125.19
421.977	1250.11
422.185	1219.39
422.393	1213.25
422.601	1313.6
422.809	1368.9
423.017	1401.66
423.224	1420.1
423.432	1436.48
423.64	1377.09
423.848	1614.65
424.056	1553.21
424.263	1678.14
424.471	1622.84
424.679	1622.84
424.887	1739.58
425.094	1876.79
425.302	1903.42
425.51	1993.53
425.718	1983.29
425.925	1995.57
426.133	2046.77
426.341	2134.84
426.548	2362.16
426.756	2372.4
426.964	2298.67
427.171	2444.08
427.379	2437.94
427.586	2485.04
427.794	2728.75
428.001	2724.65
428.209	2751.28
428.417	2757.42
428.624	2994.98
428.832	2915.11
429.039	2925.35
429.247	3083.05
429.454	3341.09
429.662	3625.76
429.869	3242.79
430.076	3535.65
430.284	3496.74
430.491	3545.89
430.699	3754.78
430.906	3765.02
431.114	3836.7
431.321	4051.74
431.528	4047.64
431.736	4332.31
431.943	4422.42
432.15	4350.74
432.358	4602.64
432.565	4553.49
432.772	4698.89
432.979	4989.71
433.187	4909.83
433.394	4856.59
433.601	5333.76
433.808	5278.47
434.016	5346.05
434.223	5495.55
434.43	5876.48
434.637	5755.65
434.844	6013.69
435.052	6171.38
435.259	5985.02
435.466	6394.61
435.673	6046.46
435.88	6640.37
436.087	6904.56
436.294	6974.19
436.501	6685.42
436.708	6724.33
436.915	7123.69
437.122	7598.82
437.329	7371.49
437.537	7709.41
437.743	7729.89
437.95	7703.26
438.157	8170.2
438.364	8444.63
438.571	8205.02
438.778	8534.74
438.985	9233.1
439.192	8665.81
439.399	9122.51
439.606	8655.57
439.813	9317.06
440.02	10060.48
440.227	9964.22
440.433	9632.45
440.64	10035.9
440.847	9874.11
441.054	10128.06
441.261	10912.43
441.467	10883.76
441.674	10967.73
441.881	11426.47
442.088	11356.84
442.294	11264.68
442.501	11569.83
442.708	11719.33
442.914	12288.67
443.121	12632.72
443.328	12397.21
443.534	13286.03
443.741	12997.26
443.948	12694.16
444.154	13449.86
444.361	13621.89
444.568	13675.14
444.774	13763.2
444.981	13818.5
445.187	14205.56
445.394	15020.66
445.6	14760.56
445.807	15966.82
446.013	15194.73
446.22	15442.54
446.426	16290.4
446.633	16388.7
446.839	16947.79
447.046	16124.51
447.252	17273.42
447.459	16970.32
447.665	17015.38
447.871	17977.92
448.078	18496.06
448.284	17566.28
448.491	18246.21
448.697	18709.05
448.903	19139.12
449.11	19141.17
449.316	18637.37
449.522	19130.93
449.728	19276.34
449.935	19857.96
450.141	19755.56
450.347	20353.57
450.553	19655.21
450.76	20103.71
450.966	20398.62
451.172	20005.41
451.378	20550.17
451.584	20273.7
451.791	20972.05
451.997	20705.82
452.203	21101.08
452.409	21029.4
452.615	20881.94
452.821	20091.43
453.027	19935.78
453.233	20742.68
453.44	20156.96
453.646	20439.58
453.852	20443.68
454.058	20691.48
454.264	20159.01
454.47	20673.05
454.676	19890.73
454.882	20605.47
455.088	18919.99
455.294	19161.65
455.5	19411.5
455.705	19454.51
455.911	18661.94
456.117	18502.2
456.323	18197.06
456.529	17269.33
456.735	17891.91
456.941	17451.6
457.147	17216.08
457.352	16894.55
457.558	16540.25
457.764	16665.18
457.97	16441.95
458.176	15895.14
458.381	16095.84
458.587	15133.29
458.793	15067.76
458.999	14283.39
459.204	15440.49
459.41	14809.72
459.616	14011.01
459.821	13886.08
460.027	13755.01
460.233	13742.72
460.438	12919.44
460.644	13189.77
460.85	12380.82
461.055	12522.13
461.261	12194.46
461.466	11358.89
461.672	10994.35
461.878	11840.16
462.083	11117.23
462.289	10941.1
462.494	10707.63
462.7	10369.72
462.905	9992.89
463.111	10203.83
463.316	10392.25
463.522	10154.68
463.727	10330.81
463.932	9958.08
464.138	9822.91
464.343	10062.52
464.549	9839.3
464.754	9970.37
464.959	10037.95
465.165	9992.89
465.37	9552.58
465.575	9347.78
465.781	9616.07
465.986	9847.49
466.191	9194.19
466.397	9196.23
466.602	8676.05
466.807	9030.35
467.012	9032.4
467.218	8854.22
467.423	8981.2
467.628	8803.02
467.833	9020.11
468.038	8864.46
468.244	8686.29
468.449	9099.98
468.654	8575.7
468.859	8674
469.064	8604.37
469.269	8256.22
469.474	8420.05
469.679	8647.38
469.885	8348.37
470.09	8391.38
470.295	8450.77
470.5	8059.61
470.705	8174.3
470.91	7930.59
471.115	7996.12
471.32	8047.32
471.525	8129.24
471.73	8020.7
471.935	7719.65
472.139	7514.85
472.344	7693.02
472.549	7578.34
472.754	7230.18
472.959	7242.47
473.164	6951.66
473.369	7052.01
473.574	7252.71
473.778	7211.75
473.983	7117.54
474.188	7121.64
474.393	6765.29
474.598	6900.46
474.802	6849.26
475.007	6666.99
475.212	6750.96
475.417	6339.32
475.621	6550.26
475.826	6605.55
476.031	6294.26
476.235	6253.3
476.44	6320.88
476.645	6275.83
476.849	6329.08
477.054	6187.77
477.259	5929.72
477.463	6179.58
477.668	5978.87
477.872	6030.07
478.077	5894.91
478.282	5741.31
478.486	5819.13
478.691	5692.16
478.895	5679.87
479.1	5759.74
479.304	5786.37
479.509	5368.58
479.713	5608.19
479.918	5401.35
480.122	5405.44
480.326	5569.28
480.531	5513.99
480.735	5479.17
480.94	5356.29
481.144	5493.51
481.348	5247.75
481.553	5434.11
481.757	5190.41
481.961	5237.51
482.166	5421.83
482.37	5423.87
482.574	5198.6
482.778	5315.33
482.983	5356.29
483.187	5331.72
483.391	5225.22
483.595	5057.29
483.8	5225.22
484.004	5231.37
484.208	5344
484.412	5223.17
484.616	5096.2
484.821	5282.56
485.025	5049.1
485.229	5323.52
485.433	5214.98
485.637	5253.89
485.841	5032.71
486.045	5165.83
486.249	5190.41
486.453	5155.59
486.657	5372.68
486.861	5262.09
487.065	5139.21
487.269	5143.3
487.473	5161.73
487.677	5159.69
487.881	5352.2
488.085	5317.38
488.289	5411.59
488.493	4995.85
488.697	5387.01
488.901	5434.11
489.105	5139.21
489.309	5294.85
489.512	5409.54
489.716	5286.66
489.92	5241.61
490.124	5344
490.328	5430.02
490.531	5319.43
490.735	5309.19
490.939	5333.76
491.143	5362.44
491.346	5364.48
491.55	5366.53
491.754	5389.06
491.958	5436.16
492.161	5448.45
492.365	5374.72
492.569	5552.9
492.772	5411.59
492.976	5538.56
493.18	5620.48
493.383	5559.04
493.587	5618.43
493.79	5735.17
493.994	5593.86
494.197	5694.21
494.401	5823.23
494.605	5970.68
494.808	5788.41
495.012	5876.48
495.215	6066.94
495.419	6001.4
495.622	5849.85
495.825	6107.9
496.029	6173.43
496.232	6241.01
496.436	6060.79
496.639	6484.72
496.843	6216.44
497.046	6288.12
497.249	6306.55
497.453	6558.45
497.656	6593.26
497.859	6636.27
498.063	6632.18
498.266	6824.69
498.469	6748.91
498.673	6818.54
498.876	6998.76
499.079	7023.34
499.282	7068.39
499.485	7133.93
499.689	7152.36
499.892	7267.05
500.095	7578.34
500.298	7508.71
500.501	7555.81
500.705	7496.42
500.908	7674.59
501.111	7834.33
501.314	7836.38
501.517	7979.74
501.72	8065.75
501.923	7961.31
502.126	8245.98
502.329	8297.17
502.532	8301.27
502.735	8372.95
502.938	8633.04
503.141	8485.59
503.344	8757.97
503.547	8807.12
503.75	8975.05
503.953	9089.74
504.156	9163.47
504.359	9298.63
504.562	9235.14
504.765	9517.76
504.968	9779.9
505.17	9566.92
505.373	9552.58
505.576	9978.56
505.779	9888.45
505.982	10076.86
506.185	10238.65
506.387	10160.83
506.59	10470.07
506.793	10539.7
506.996	10711.73
507.198	10789.55
507.401	10773.17
507.604	10853.04
507.807	11119.28
508.009	11236.01
508.212	11467.43
508.415	11461.29
508.617	11209.39
508.82	11586.21
509.022	11528.87
509.225	11997.85
509.428	12141.21
509.63	12161.69
509.833	11977.37
510.035	12456.6
510.238	12475.03
510.44	12526.23
510.643	12798.61
510.845	12898.96
511.048	12706.45
511.25	12997.26
511.453	13193.87
511.655	13609.61
511.858	13265.55
512.06	13605.51
512.262	14023.3
512.465	13828.74
512.667	14047.87
512.87	14109.31
513.072	14140.03
513.274	14422.65
513.477	14588.53
513.679	14928.5
513.881	14903.92
514.084	15051.38
514.286	14918.26
514.488	15268.46
514.69	15561.32
514.893	15764.07
515.095	15641.19
515.297	15673.96
515.499	15858.28
515.701	16204.38
515.904	16343.64
516.106	16669.27
516.308	16824.92
516.51	16921.17
516.712	16908.88
516.914	17101.39
517.116	17338.96
517.318	17584.71
517.52	17619.53
517.722	17812.04
517.925	17939.01
518.127	18408
518.329	18221.63
518.531	18242.11
518.733	18770.49
518.935	18797.11
519.136	18969.14
519.338	19044.91
519.54	19274.29
519.742	19671.59
519.944	19847.72
520.146	19788.33
520.348	20107.81
520.55	20068.9
520.752	20251.17
520.954	20494.88
521.155	20501.02
521.357	20666.91
521.559	20668.95
521.761	21092.88
521.963	21355.02
522.164	21135.89
522.366	21584.4
522.568	21744.14
522.77	21537.29
522.971	21934.6
523.173	22037
523.375	22166.02
523.576	22344.19
523.778	22270.47
523.98	22581.76
524.181	22796.79
524.383	22624.76
524.584	23206.39
524.786	23165.43
524.988	23355.89
525.189	23699.95
525.391	23667.18
525.592	23450.1
525.794	24115.69
525.995	24113.64
526.197	24293.86
526.398	24144.36
526.6	24445.41
526.801	24332.77
527.003	24523.23
527.204	24496.61
527.406	24920.54
527.607	24994.26
527.808	25233.88
528.01	24527.33
528.211	25014.74
528.412	25317.84
528.614	25248.21
528.815	25215.44
529.016	25795.02
529.218	25471.44
529.419	25627.09
529.62	25835.98
529.822	25731.53
530.023	25633.23
530.224	25752.01
530.425	25682.38
530.626	25698.77
530.828	25666
531.029	26335.68
531.23	26364.36
531.431	26137.03
531.632	25831.88
531.833	26341.83
532.035	26182.09
532.236	26370.5
532.437	26266.05
532.638	26200.52
532.839	26501.57
533.04	26823.1
533.241	26438.08
533.442	26837.44
533.643	26591.68
533.844	26522.05
534.045	26653.12
534.246	26847.68
534.447	26681.79
534.648	26659.26
534.849	26655.17
535.05	26831.29
535.251	26962.36
535.451	26567.1
535.652	27029.94
535.853	27003.32
536.054	27087.29
536.255	26773.95
536.456	26808.76
536.657	27371.96
536.857	26685.89
537.058	26919.35
537.259	26952.12
537.46	26890.68
537.66	26853.82
537.861	27064.76
538.062	26436.03
538.263	27011.51
538.463	26603.97
538.664	27232.69
538.865	26886.59
539.065	26974.65
539.266	26829.24
539.466	27146.68
539.667	26573.25
539.868	26898.87
540.068	27075
540.269	27111.86
540.469	27115.96
540.67	26945.98
540.87	27085.24
541.071	26919.35
541.271	26991.03
541.472	26972.6
541.672	26702.27
541.873	26806.72
542.073	26511.81
542.274	27007.42
542.474	26980.79
542.675	26575.3
542.875	27105.72
543.075	26962.36
543.276	26601.92
543.476	27146.68
543.676	26683.84
543.877	26915.26
544.077	26825.15
544.277	26991.03
544.478	26835.39
544.678	27017.66
544.878	26816.96
545.078	26782.14
545.279	26462.66
545.479	26675.65
545.679	26909.11
545.879	26511.81
546.079	26663.36
546.28	26659.26
546.48	26792.38
546.68	26960.31
546.88	26857.92
547.08	26859.96
547.28	26638.78
547.48	26395.07
547.68	26612.16
547.88	26806.72
548.081	26401.22
548.281	26689.98
548.481	26597.82
548.681	27070.9
548.881	26849.72
549.081	26663.36
549.28	26632.64
549.48	26769.85
549.68	26689.98
549.88	27265.46
550.08	26284.48
550.28	26550.72
550.48	26333.64
550.68	27222.45
550.88	26601.92
551.08	26452.42
551.279	26800.57
551.479	26458.56
551.679	26360.26
551.879	26618.3
552.079	26657.21
552.278	26270.15
552.478	26563.01
552.678	26587.58
552.878	26845.63
553.077	26411.46
553.277	26319.3
553.477	26589.63
553.676	26300.87
553.876	26540.48
554.076	26446.27
554.275	26241.48
554.475	26001.86
554.674	26335.68
554.874	26294.72
555.074	26491.33
555.273	26327.49
555.473	26735.04
555.672	26118.6
555.872	26020.3
556.071	26231.24
556.271	26601.92
556.47	25864.65
556.67	25649.61
556.869	26218.95
557.068	26200.52
557.268	25936.33
557.467	25663.95
557.667	25702.86
557.866	25776.59
558.065	25706.96
558.265	25813.45
558.464	25731.53
558.663	25932.23
558.863	25688.53
559.062	25948.62
559.261	25555.41
559.461	25942.47
559.66	25360.85
559.859	25676.24
560.058	25285.08
560.258	25332.18
560.457	25016.79
560.656	25522.64
560.855	25164.25
561.054	25233.88
561.253	25205.2
561.453	25115.09
561.652	25217.49
561.851	24922.59
562.05	24742.36
562.249	24877.53
562.448	24752.6
562.647	24758.75
562.846	24742.36
563.045	24932.82
563.244	24390.11
563.443	24961.5
563.642	24285.67
563.841	24527.33
564.04	24316.39
564.239	24715.74
564.438	24197.6
564.637	24091.11
564.836	24455.65
565.035	23863.79
565.234	23953.9
565.432	23910.89
565.631	23896.55
565.83	23767.53
566.029	23781.87
566.228	23720.43
566.427	23671.28
566.625	23482.86
566.824	23527.92
567.023	23702
567.222	23265.78
567.42	23398.9
567.619	23200.24
567.818	23046.65
568.016	22944.25
568.215	23230.96
568.414	23052.79
568.612	23255.54
568.811	22798.84
569.01	23075.32
569.208	22536.7
569.407	22764.03
569.605	22682.11
569.804	22573.56
570.002	22374.91
570.201	22876.66
570.4	22426.11
570.598	22108.68
570.797	22356.48
570.995	22090.24
571.193	22141.44
571.392	22329.86
571.59	22063.62
571.789	21895.69
571.987	21973.51
572.186	21881.35
572.384	21639.69
572.582	22008.33
572.781	21899.78
572.979	21291.54
573.177	21817.86
573.376	21293.58
573.574	21459.47
573.772	21637.64
573.971	21291.54
574.169	21248.53
574.367	21185.04
574.565	21047.83
574.763	21090.84
574.962	20797.98
575.16	20744.73
575.358	20949.53
575.556	20677.15
575.754	20705.82
575.952	20630.04
576.151	20689.43
576.349	20419.1
576.547	20460.06
576.745	20447.77
576.943	20560.41
577.141	20351.52
577.339	20255.26
577.537	20134.43
577.735	20171.3
577.933	20029.99
578.131	20290.08
578.329	20015.65
578.527	19687.98
578.725	19780.14
578.923	19900.97
579.121	19434.03
579.319	19640.87
579.516	19812.9
579.714	19407.41
579.912	19577.39
580.11	19249.71
580.308	19425.84
580.506	19169.84
580.704	18948.66
580.901	19114.55
581.099	19225.14
581.297	19169.84
581.495	19214.9
581.692	19087.92
581.89	19135.03
582.088	18874.93
582.285	18907.7
582.483	18827.83
582.681	18915.89
582.878	18649.66
583.076	18723.38
583.274	18606.65
583.471	18289.21
583.669	18584.12
583.866	18608.7
584.064	18809.4
584.262	18360.89
584.459	18420.28
584.657	18295.36
584.854	18321.98
585.052	18137.66
585.249	18078.27
585.447	18250.3
585.644	17969.73
585.841	17752.65
586.039	17832.52
586.236	17775.17
586.434	17568.33
586.631	17615.43
586.828	17603.14
587.026	17629.77
587.223	17625.67
587.42	17363.53
587.618	17291.85
587.815	17214.03
588.012	17330.76
588.21	17011.28
588.407	17207.89
588.604	17060.43
588.801	17005.14
588.999	16962.13
589.196	16974.42
589.393	17101.39
589.59	17050.19
589.787	16810.58
589.984	16786.01
590.182	16499.29
590.379	16740.95
590.576	16515.67
590.773	16478.81
590.97	16540.25
591.167	16597.59
591.364	16388.7
591.561	16349.79
591.758	16321.12
591.955	16542.3
592.152	16446.04
592.349	16065.12
592.546	16167.52
592.743	16355.93
592.94	15751.78
593.137	15817.32
593.334	16231.01
593.531	15948.39
593.727	16042.59
593.924	15782.5
594.121	15673.96
594.318	15798.88
594.515	15475.31
594.712	15618.66
594.908	15641.19
595.105	15377
595.302	15471.21
595.499	15735.4
595.696	15602.28
595.892	15450.73
596.089	15413.87
596.286	15577.7
596.482	15274.6
596.679	15147.63
596.876	15223.41
597.072	15067.76
597.269	14951.03
597.466	14996.08
597.662	14811.76
597.859	14807.67
598.055	14938.74
598.252	14649.97
598.448	14844.53
598.645	14619.25
598.841	14727.8
599.038	14686.84
599.234	14688.89
599.431	14645.88
599.627	14508.66
599.824	14535.29
600.02	14502.52
600.217	14502.52
600.413	14338.68
600.609	14297.72
600.806	13881.99
601.002	14301.82
601.198	14199.42
601.395	14056.06
601.591	14023.3
601.787	13847.17
601.984	13847.17
602.18	13920.9
602.376	13841.03
602.572	13830.79
602.769	13699.72
602.965	13652.61
603.161	13855.36
603.357	13521.54
603.553	13652.61
603.75	13453.96
603.946	13349.51
604.142	13628.04
604.338	13382.28
604.534	13345.42
604.73	13226.64
604.926	13171.34
605.122	13157
605.318	13132.43
605.514	13257.36
605.71	13109.9
605.906	13124.24
606.102	13048.46
606.298	13275.79
606.494	13048.46
606.69	12978.83
606.886	12905.1
607.082	12767.89
607.278	12728.98
607.474	12647.06
607.67	12751.51
607.866	12536.47
608.062	12855.95
608.257	12683.92
608.453	12618.39
608.649	12659.35
608.845	12608.15
609.041	12698.26
609.236	12669.59
609.432	12608.15
609.628	12411.54
609.824	12335.77
610.019	12520.09
610.215	12403.35
610.411	12515.99
610.606	12362.39
610.802	12202.65
610.998	12290.71
611.193	12155.55
611.389	12257.95
611.584	11932.32
611.78	12249.75
611.976	12178.08
612.171	11946.66
612.367	12145.31
612.562	12020.38
612.758	12034.72
612.953	11811.49
613.149	12057.25
613.344	11817.63
613.539	12038.81
613.735	11981.47
613.93	11971.23
614.126	11799.2
614.321	11958.94
614.517	11715.23
614.712	11748
614.907	11727.52
615.103	11647.65
615.298	11666.08
615.493	11774.63
615.688	11588.26
615.884	11596.45
616.079	11408.04
616.274	11690.66
616.47	11500.2
616.665	11467.43
616.86	11432.61
617.055	11737.76
617.25	11207.34
617.445	11403.94
617.641	11121.32
617.836	11477.67
618.031	11303.59
618.226	11375.27
618.421	11227.82
618.616	11295.4
618.811	11111.08
619.006	11262.63
619.201	11164.33
619.396	11008.69
619.591	10713.78
619.786	11098.8
619.981	10822.32
620.176	10916.53
620.371	10580.66
620.566	10789.55
620.761	10625.72
620.956	10574.52
621.151	10402.49
621.346	10709.68
621.541	10355.38
621.735	10488.5
621.93	10453.69
622.125	10508.98
622.32	10336.95
622.515	10410.68
622.709	10111.68
622.904	10218.17
623.099	10154.68
623.294	10291.9
623.488	9919.17
623.683	9964.22
623.878	9841.34
624.072	9798.34
624.267	9605.83
624.462	10076.86
624.656	9704.13
624.851	9734.85
625.046	9480.9
625.24	9671.36
625.435	9554.63
625.629	9407.17
625.824	9452.23
626.018	9462.47
626.213	9206.47
626.407	9347.78
626.602	9130.7
626.796	9202.38
626.991	8987.34
627.185	9341.64
627.38	9126.6
627.574	8995.53
627.768	9054.92
627.963	8784.59
628.157	8950.48
628.352	8794.83
628.546	8772.3
628.74	8815.31
628.935	8657.62
629.129	8461.01
629.323	8489.68
629.517	8530.64
629.712	8551.12
629.906	8325.85
630.1	8383.19
630.294	8487.64
630.489	8268.5
630.683	8497.88
630.877	8342.23
631.071	8211.16
631.265	8112.86
631.459	8088.28
631.653	8051.42
631.848	8098.52
632.042	7944.92
632.236	7965.4
632.43	7813.85
632.624	7779.04
632.818	7787.23
633.012	7711.46
633.206	7639.78
633.4	7754.46
633.594	7596.77
633.788	7504.61
633.982	7617.25
634.176	7467.75
634.369	7236.33
634.563	7510.75
634.757	7387.88
634.951	7346.92
635.145	7346.92
635.339	7256.81
635.533	7228.14
635.726	7068.39
635.92	7162.6
636.114	7146.22
636.308	7004.91
636.501	7023.34
636.695	7152.36
636.889	6970.09
637.083	6877.93
637.276	6990.57
637.47	6806.25
637.664	6839.02
637.857	6779.63
638.051	6597.36
638.244	6732.53
638.438	6738.67
638.632	6714.09
638.825	6646.51
639.019	6519.54
639.212	6454
639.406	6519.54
639.599	6460.15
639.793	6527.73
639.986	6331.12
640.18	6261.49
640.373	6308.6
640.567	6212.34
640.76	6222.58
640.954	6247.16
641.147	6003.45
641.34	5997.31
641.534	6003.45
641.727	6134.52
641.92	5989.11
642.114	6015.74
642.307	5985.02
642.5	5978.87
642.694	5853.95
642.887	5849.85
643.08	5788.41
643.273	5745.41
643.467	5755.65
643.66	5665.53
643.853	5673.73
644.046	5663.49
644.239	5688.06
644.432	5567.23
644.626	5540.61
644.819	5565.18
645.012	5571.33
645.205	5483.27
645.398	5442.31
645.591	5311.24
645.784	5501.7
645.977	5444.35
646.17	5319.43
646.363	5382.92
646.556	5178.12
646.749	5194.5
646.942	5237.51
647.135	5264.13
647.328	5212.93
647.521	5182.21
647.714	5042.95
647.907	5102.34
648.099	5120.78
648.292	5145.35
648.485	4981.51
648.678	4903.69
648.871	4870.92
649.064	4852.49
649.256	4944.65
649.449	4832.01
649.642	4907.79
649.835	4782.86
650.027	4778.76
650.22	4784.91
650.413	4801.29
650.605	4827.92
650.798	4694.8
650.991	4449.04
651.183	4737.81
651.376	4651.79
651.568	4684.56
651.761	4487.95
651.954	4457.23
652.146	4637.45
652.339	4408.08
652.531	4557.58
652.724	4500.24
652.916	4264.72
653.109	4555.54
653.301	4520.72
653.494	4320.02
653.686	4426.51
653.879	4424.47
654.071	4348.69
654.263	4240.15
654.456	4199.19
654.648	4248.34
654.84	4203.29
655.033	4193.05
655.225	4174.61
655.417	4115.22
655.61	4102.93
655.802	4070.17
655.994	4223.76
656.186	4285.2
656.379	4025.11
656.571	4141.85
656.763	4010.78
656.955	4002.58
657.148	4064.02
657.34	4010.78
657.532	3879.71
657.724	4021.02
657.916	3924.76
658.108	3863.32
658.3	3812.12
658.492	3771.16
658.684	3742.49
658.876	3670.81
659.068	3707.68
659.26	3687.2
659.452	3750.68
659.644	3640.09
659.836	3687.2
660.028	3683.1
660.22	3656.48
660.412	3736.35
660.604	3509.02
660.796	3578.65
660.988	3486.5
661.18	3623.71
661.372	3537.7
661.563	3357.47
661.755	3357.47
661.947	3506.98
662.139	3441.44
662.331	3461.92
662.522	3336.99
662.714	3439.39
662.906	3472.16
663.097	3250.98
663.289	3353.38
663.481	3238.69
663.673	3373.86
663.864	3289.89
664.056	3201.83
664.247	3250.98
664.439	3261.22
664.631	3308.32
664.822	3177.25
665.014	3250.98
665.205	3140.39
665.397	3048.23
665.588	3175.2
665.78	3017.51
665.971	3097.38
666.163	3058.47
666.354	3033.9
666.546	3111.72
666.737	3011.37
666.929	3054.37
667.12	3130.15
667.311	3033.9
667.503	2908.97
667.694	3109.67
667.885	2939.69
668.077	2978.6
668.268	3001.13
668.459	2855.72
668.651	2908.97
668.842	2900.78
669.033	2906.92
669.224	2747.18
669.416	2947.88
669.607	2908.97
669.798	2900.78
669.989	2978.6
670.18	2784.04
670.371	2874.15
670.563	2779.95
670.754	2939.69
670.945	2777.9
671.136	2777.9
671.327	2861.87
671.518	2865.96
671.709	2642.73
671.9	2726.7
672.091	2628.4
672.282	2825
672.473	2708.27
672.664	2796.33
672.855	2693.93
673.046	2685.74
673.237	2816.81
673.428	2704.17
673.619	2757.42
673.809	2595.63
674	2698.03
674.191	2693.93
674.382	2714.41
674.573	2669.36
674.764	2562.86
674.954	2704.17
675.145	2681.64
675.336	2587.44
675.527	2689.84
675.717	2538.29
675.908	2571.05
676.099	2560.81
676.289	2569.01
676.48	2501.42
676.671	2601.77
676.861	2560.81
677.052	2532.14
677.243	2452.27
677.433	2550.57
677.624	2439.98
677.814	2569.01
678.005	2442.03
678.195	2544.43
678.386	2569.01
678.576	2538.29
678.767	2401.07
678.957	2548.53
679.148	2501.42
679.338	2519.85
679.529	2528.05
679.719	2470.7
679.909	2464.56
680.1	2345.78
680.29	2485.04
680.481	2448.18
680.671	2415.41
680.861	2321.2
681.052	2446.13
681.242	2435.89
681.432	2466.61
681.622	2417.46
681.813	2370.35
682.003	2351.92
682.193	2321.2
682.383	2401.07
682.573	2474.8
682.764	2362.16
682.954	2417.46
683.144	2407.22
683.334	2341.68
683.524	2421.55
683.714	2452.27
683.904	2421.55
684.094	2630.45
684.284	2251.57
684.474	2433.84
684.664	2372.4
684.854	2411.31
685.044	2276.15
685.234	2261.81
685.424	2339.63
685.614	2235.19
685.804	2276.15
685.994	2337.59
686.184	2335.54
686.374	2302.77
686.564	2276.15
686.753	2214.71
686.943	2286.39
687.133	2233.14
687.323	2171.7
687.513	2280.24
687.702	2194.23
687.892	2169.65
688.082	2149.17
688.272	2255.67
688.461	2181.94
688.651	2284.34
688.841	2231.09
689.03	2134.84
689.22	2186.04
689.41	2224.95
689.599	2200.37
689.789	2212.66
689.979	2140.98
690.168	2145.08
690.358	2028.34
690.547	2040.63
690.737	2106.17
690.926	2065.21
691.116	2065.21
691.305	2200.37
691.495	2009.91
691.684	2128.69
691.874	2071.35
692.063	2069.3
692.252	1983.29
692.442	2022.2
692.631	2061.11
692.82	1985.34
693.01	1999.67
693.199	1979.19
693.388	1989.43
693.578	1981.24
693.767	2024.25
693.956	1927.99
694.146	1983.29
694.335	1938.23
694.524	2026.29
694.713	1930.04
694.902	2024.25
695.092	1977.14
695.281	2020.15
695.47	1948.47
695.659	1944.38
695.848	1962.81
696.037	2020.15
696.226	1866.55
696.415	1936.18
696.604	2016.05
696.793	1921.85
696.982	1878.84
697.171	1936.18
697.36	1952.57
697.549	1930.04
697.738	1817.4
697.927	2003.77
698.116	1878.84
698.305	1903.42
698.494	1907.51
698.683	1815.35
698.872	1944.38
699.061	1831.74
699.25	1811.26
699.438	1841.98
699.627	1856.31
699.816	1891.13
700.005	1835.83
700.193	1930.04
700.382	1878.84
700.571	1942.33
700.76	1895.22
700.948	1915.7
701.137	1950.52
701.326	1903.42
701.514	2024.25
701.703	1876.79
701.892	1813.31
702.08	1964.86
702.269	1821.5
702.457	1809.21
702.646	1948.47
702.834	1803.07
703.023	1835.83
703.212	1915.7
703.4	1952.57
703.589	1911.61
703.777	1989.43
703.965	1936.18
704.154	1905.46
704.342	1874.74
704.531	1823.55
704.719	1868.6
704.907	1821.5
705.096	1895.22
705.284	1819.45
705.472	1907.51
705.661	1895.22
705.849	1884.98
706.037	1946.42
706.226	1913.66
706.414	1819.45
706.602	1841.98
706.79	1887.03
706.979	1852.22
707.167	1794.87
707.355	1870.65
707.543	1882.94
707.731	1856.31
707.919	1930.04
708.107	1839.93
708.296	1934.14
708.484	1870.65
708.672	1950.52
708.86	1862.46
709.048	1915.7
709.236	1725.24
709.424	1987.38
709.612	1813.31
709.8	1831.74
709.988	1917.75
710.176	1948.47
710.364	1956.66
710.551	1874.74
710.739	1862.46
710.927	1880.89
711.115	1846.07
711.303	1899.32
711.491	1866.55
711.679	1936.18
711.866	1862.46
712.054	1936.18
712.242	1895.22
712.43	2048.82
712.617	1897.27
712.805	1862.46
712.993	1962.81
713.181	1821.5
713.368	1968.95
713.556	1923.9
713.744	1829.69
713.931	1905.46
714.119	1899.32
714.306	1831.74
714.494	1866.55
714.682	1784.63
714.869	1798.97
715.057	1993.53
715.244	1874.74
715.432	1850.17
715.619	1825.59
715.807	1772.35
715.994	1889.08
716.182	1850.17
716.369	1932.09
716.556	1839.93
716.744	1868.6
716.931	1903.42
717.119	1921.85
717.306	1833.79
717.493	1821.5
717.681	1882.94
717.868	1829.69
718.055	1983.29
718.242	1839.93
718.43	1893.18
718.617	1917.75
718.804	1913.66
718.991	1880.89
719.179	1868.6
719.366	1911.61
719.553	1919.8
719.74	1895.22
719.927	2011.96
720.114	1850.17
720.301	1880.89
720.488	1749.82
720.676	1942.33
720.863	1942.33
721.05	1889.08
721.237	1932.09
721.424	1921.85
721.611	1993.53
721.798	1954.62
721.985	1801.02
722.172	1774.39
722.358	1776.44
722.545	1839.93
722.732	1862.46
722.919	1878.84
723.106	1899.32
723.293	1956.66
723.48	1903.42
723.667	1856.31
723.853	1876.79
724.04	1968.95
724.227	1839.93
724.414	1813.31
724.6	1856.31
724.787	1932.09
724.974	1798.97
725.161	1909.56
725.347	1882.94
725.534	1882.94
725.72	1887.03
725.907	1940.28
726.094	1917.75
726.28	1889.08
726.467	1821.5
726.653	1794.87
726.84	2026.29
727.027	1815.35
727.213	1776.44
727.4	1823.55
727.586	1891.13
727.773	1831.74
727.959	1856.31
728.145	1927.99
728.332	1901.37
728.518	1876.79
728.705	1940.28
728.891	1950.52
729.077	1940.28
729.264	1813.31
729.45	1876.79
729.636	1971
729.823	1821.5
730.009	1911.61
730.195	1909.56
730.382	1930.04
730.568	1831.74
730.754	1923.9
730.94	1940.28
731.126	1841.98
731.313	1938.23
731.499	1948.47
731.685	1841.98
731.871	1860.41
732.057	1889.08
732.243	1803.07
732.429	1901.37
732.615	1921.85
732.801	1880.89
732.987	1848.12
733.173	1909.56
733.359	1907.51
733.545	1952.57
733.731	1876.79
733.917	1882.94
734.103	1856.31
734.289	1829.69
734.475	1844.03
734.661	1940.28
734.847	1899.32
735.033	1790.78
735.219	1854.27
735.404	1876.79
735.59	1813.31
735.776	1903.42
735.962	1952.57
736.148	1913.66
736.333	1817.4
736.519	1864.5
736.705	1753.91
736.89	1821.5
737.076	1749.82
737.262	1891.13
737.447	1751.87
737.633	1864.5
737.819	1762.11
738.004	1895.22
738.19	1901.37
738.375	1772.35
738.561	1909.56
738.747	1796.92
738.932	1860.41
739.118	1776.44
739.303	1899.32
739.489	1807.16
739.674	1887.03
739.859	1719.1
740.045	1745.72
740.23	1753.91
740.416	1739.58
740.601	1717.05
740.786	1751.87
740.972	1721.15
741.157	1606.46
741.342	1745.72
741.528	1729.34
741.713	1725.24
741.898	1712.96
742.084	1602.36
742.269	1690.43
742.454	1854.27
742.639	1665.85
742.824	1657.66
743.01	1702.72
743.195	1647.42
743.38	1686.33
743.565	1764.15
743.75	1639.23
743.935	1678.14
744.12	1676.09
744.305	1682.24
744.49	1672
744.675	1608.51
744.86	1608.51
745.045	1647.42
745.23	1557.31
745.415	1581.89
745.6	1563.45
745.785	1592.13
745.97	1571.65
746.155	1585.98
746.34	1631.04
746.525	1491.77
746.71	1594.17
746.895	1473.34
747.079	1542.97
747.264	1579.84
747.449	1532.73
747.634	1555.26
747.819	1489.73
748.003	1522.49
748.188	1555.26
748.373	1446.72
748.557	1440.58
748.742	1469.25
748.927	1469.25
749.111	1477.44
749.296	1375.04
749.481	1549.12
749.665	1551.17
749.85	1413.95
750.034	1375.04
750.219	1336.13
750.404	1368.9
750.588	1352.51
750.773	1293.12
750.957	1284.93
751.141	1366.85
751.326	1270.59
751.51	1286.98
751.695	1344.32
751.879	1321.79
752.064	1327.94
752.248	1346.37
752.432	1340.22
752.617	1254.21
752.801	1205.06
752.985	1264.45
753.17	1311.55
753.354	1190.72
753.538	1213.25
753.722	1278.79
753.907	1241.92
754.091	1186.63
754.275	1141.57
754.459	1164.1
754.643	1180.48
754.828	1233.73
755.012	1141.57
755.196	1092.42
755.38	1166.15
755.564	1149.76
755.748	1090.37
755.932	1182.53
756.116	1112.9
756.3	1133.38
756.484	1098.56
756.668	1186.63
756.852	1088.32
757.036	1149.76
757.22	1012.55
757.404	1045.32
757.588	1018.69
757.772	1094.47
757.956	1076.04
758.14	1026.89
758.323	928.58
758.507	1073.99
758.691	879.43
758.875	1106.76
759.059	1061.7
759.242	1006.41
759.426	1012.55
759.61	953.16
759.794	928.58
759.977	996.17
760.161	1039.17
760.345	971.59
760.528	973.64
760.712	938.82
760.895	912.2
761.079	871.24
761.263	1006.41
761.446	891.72
761.63	887.62
761.813	881.48
761.997	992.07
762.18	959.3
762.364	801.61
762.547	930.63
762.731	916.3
762.914	846.66
763.098	822.09
763.281	830.28
763.464	922.44
763.648	838.47
763.831	899.91
764.015	777.03
764.198	887.62
764.381	748.36
764.564	820.04
764.748	869.19
764.931	774.99
765.114	797.51
765.297	844.62
765.481	809.8
765.664	789.32
765.847	762.7
766.03	912.2
766.213	764.75
766.397	803.66
766.58	770.89
766.763	869.19
766.946	750.41
767.129	883.53
767.312	811.85
767.495	772.94
767.678	807.75
767.861	830.28
768.044	783.18
768.227	772.94
768.41	832.33
768.593	791.37
768.776	828.23
768.959	744.27
769.142	803.66
769.324	725.83
769.507	789.32
769.69	670.54
769.873	707.4
770.056	682.83
770.239	627.53
770.421	805.71
770.604	762.7
770.787	723.79
770.97	758.6
771.152	674.64
771.335	674.64
771.518	725.83
771.7	731.98
771.883	660.3
772.066	625.48
772.248	768.84
772.431	682.83
772.613	713.55
772.796	633.68
772.978	746.31
773.161	734.03
773.343	596.81
773.526	600.91
773.708	580.43
773.891	637.77
774.073	605
774.256	598.86
774.438	568.14
774.621	545.61
774.803	592.72
774.985	609.1
775.168	619.34
775.35	654.16
775.532	580.43
775.715	551.76
775.897	666.44
776.079	635.72
776.261	633.68
776.444	641.87
776.626	547.66
776.808	566.09
776.99	562
777.173	523.09
777.355	594.76
777.537	523.09
777.719	641.87
777.901	621.39
778.083	555.85
778.265	543.57
778.447	535.37
778.629	537.42
778.811	523.09
778.993	504.65
779.175	512.85
779.357	549.71
779.539	600.91
779.721	535.37
779.903	455.5
780.085	486.22
780.267	504.65
780.449	531.28
780.631	389.97
780.812	449.36
780.994	465.74
781.176	482.13
781.358	490.32
781.54	504.65
781.721	521.04
781.903	471.89
782.085	404.3
782.267	367.44
782.448	385.87
782.63	494.41
782.812	445.26
782.993	457.55
783.175	471.89
783.357	510.8
783.538	504.65
783.72	398.16
783.901	400.21
784.083	488.27
784.264	369.49
784.446	318.29
784.627	326.48
784.809	353.1
784.99	338.77
785.172	322.38
785.353	404.3
785.535	334.67
785.716	308.05
785.897	414.54
786.079	340.82
786.26	318.29
786.441	379.73
786.623	394.06
786.804	334.67
786.985	269.14
787.167	346.96
787.348	418.64
787.529	346.96
787.71	324.43
787.891	289.62
788.073	402.26
788.254	303.95
788.435	287.57
788.616	318.29
788.797	326.48
788.978	326.48
789.159	265.04
789.34	342.86
789.522	250.71
789.703	301.9
789.884	314.19
790.065	371.54
790.246	332.62
790.427	283.47
790.607	410.45
790.788	299.86
790.969	375.63
791.15	224.08
791.331	262.99
791.512	277.33
791.693	254.8
791.874	254.8
792.054	258.9
792.235	265.04
792.416	293.71
792.597	275.28
792.778	308.05
792.958	299.86
793.139	248.66
793.32	283.47
793.5	230.23
793.681	176.98
793.862	316.24
794.042	222.03
794.223	224.08
794.404	262.99
794.584	164.69
794.765	269.14
794.945	195.41
795.126	203.6
795.306	246.61
795.487	291.66
795.667	265.04
795.848	252.75
796.028	254.8
796.209	189.27
796.389	168.79
796.57	191.31
796.75	248.66
796.93	260.95
797.111	187.22
797.291	217.94
797.471	179.03
797.652	224.08
797.832	205.65
798.012	224.08
798.192	213.84
798.373	260.95
798.553	230.23
798.733	191.31
798.913	211.79
799.093	242.51
799.274	168.79
799.454	189.27
799.634	187.22
799.814	183.12
799.994	189.27
800.174	219.99
800.354	172.88
800.534	148.31
800.714	201.55
800.894	199.51
801.074	183.12
801.254	174.93
801.434	138.07
801.614	136.02
801.794	68.44
801.974	566.09
802.154	187.22
802.334	244.56
802.514	174.93
802.693	189.27
802.873	164.69
803.053	189.27
803.233	201.55
803.413	185.17
803.592	215.89
803.772	144.21
803.952	156.5
804.131	140.12
804.311	172.88
804.491	248.66
804.67	123.73
804.85	222.03
805.03	125.78
805.209	179.03
805.389	152.4
805.568	172.88
805.748	219.99
805.928	162.64
806.107	146.26
806.287	164.69
806.466	133.97
806.646	103.25
806.825	84.82
807.004	156.5
807.184	97.11
807.363	174.93
807.543	215.89
807.722	203.6
807.901	152.4
808.081	183.12
808.26	105.3
808.439	107.35
808.619	129.88
808.798	150.36
808.977	183.12
809.156	142.16
809.336	219.99
809.515	189.27
809.694	74.58
809.873	127.83
810.052	129.88
810.231	131.92
810.411	166.74
810.59	138.07
810.769	195.41
810.948	138.07
811.127	140.12
811.306	195.41
811.485	113.49
811.664	168.79
811.843	119.64
812.022	228.18
812.201	152.4
812.38	97.11
812.559	60.24
812.737	162.64
812.916	84.82
813.095	82.77
813.274	103.25
813.453	109.4
813.632	31.57
813.811	95.06
813.989	97.11
814.168	195.41
814.347	172.88
814.526	158.55
814.704	117.59
814.883	174.93
815.062	101.2
815.24	162.64
815.419	52.05
815.598	113.49
815.776	82.77
815.955	152.4
816.133	80.72
816.312	140.12
816.49	123.73
816.669	156.5
816.847	133.97
817.026	103.25
817.204	60.24
817.383	154.45
817.561	88.92
817.74	131.92
817.918	60.24
818.097	78.68
818.275	99.16
818.453	56.15
818.632	56.15
818.81	123.73
818.988	86.87
819.167	47.96
819.345	88.92
819.523	105.3
819.701	80.72
819.879	125.78
820.058	74.58
820.236	115.54
820.414	58.2
820.592	131.92
820.77	72.53
820.948	54.1
821.127	90.96
821.305	138.07
821.483	109.4
821.661	95.06
821.839	121.68
822.017	156.5
822.195	43.86
822.373	111.44
822.551	78.68
822.729	168.79
822.907	39.76
823.085	136.02
823.262	127.83
823.44	82.77
823.618	64.34
823.796	174.93
823.974	54.1
824.152	45.91
824.329	29.52
824.507	86.87
824.685	37.72
824.863	56.15
825.04	50
825.218	58.2
825.396	37.72
825.574	103.25
825.751	58.2
825.929	41.81
826.107	25.43
826.284	68.44
826.462	90.96
826.639	95.06
826.817	21.33
826.994	103.25
827.172	39.76
827.349	121.68
827.527	54.1
827.704	95.06
827.882	125.78
828.059	35.67
828.237	15.19
828.414	72.53
828.591	68.44
828.769	93.01
828.946	129.88
829.124	74.58
829.301	47.96
829.478	23.38
829.655	136.02
829.833	-3.24
830.01	33.62
830.187	66.39
830.364	45.91
830.542	72.53
830.719	54.1
830.896	58.2
831.073	99.16
831.25	21.33
831.427	-29.87
831.604	13.14
831.782	7
831.959	117.59
832.136	-31.91
832.313	35.67
832.49	19.29
832.667	58.2
832.844	21.33
833.021	37.72
833.198	13.14
833.374	52.05
833.551	29.52
833.728	15.19
833.905	47.96
834.082	-23.72
834.259	17.24
834.436	64.34
834.612	9.05
834.789	39.76
834.966	52.05
835.143	113.49
835.319	21.33
835.496	17.24
835.673	82.77
835.85	80.72
836.026	-7.34
836.203	80.72
836.38	37.72
836.556	17.24
836.733	0.85
836.909	99.16
837.086	101.2
837.262	19.29
837.439	103.25
837.616	-5.29
837.792	7
837.968	80.72
838.145	64.34
838.321	127.83
838.498	-7.34
838.674	97.11
838.851	70.48
839.027	58.2
839.203	95.06
839.38	-7.34
839.556	47.96
839.732	93.01
839.909	70.48
840.085	0.85
840.261	-60.59
840.437	76.63
840.614	-64.68
840.79	31.57
840.966	-40.11
841.142	80.72
841.318	78.68
841.494	66.39
841.671	35.67
841.847	31.57
842.023	76.63
842.199	31.57
842.375	27.48
842.551	47.96
842.727	4.95
842.903	99.16
843.079	56.15
843.255	19.29
843.431	33.62
843.607	56.15
843.783	-60.59
843.959	-7.34
844.134	27.48
844.31	56.15
844.486	27.48
844.662	29.52
844.838	-3.24
845.013	-3.24
845.189	41.81
845.365	-15.53
845.541	2.9
845.716	66.39
845.892	2.9
846.068	25.43
846.244	-74.92
846.419	-17.58
846.595	35.67
846.77	13.14
846.946	25.43
847.122	33.62
847.297	23.38
847.473	37.72
847.648	-17.58
847.824	45.91
847.999	37.72
848.175	21.33
848.35	-27.82
848.526	43.86
848.701	17.24
848.876	84.82
849.052	-21.67
849.227	58.2
849.403	35.67
849.578	19.29
849.753	0.85
849.929	35.67
850.104	-60.59
850.279	66.39
850.454	19.29
850.63	7
850.805	64.34
850.98	27.48
851.155	50
851.33	-74.92
851.505	-64.68
851.681	78.68
851.856	-19.63
852.031	60.24
852.206	0.85
852.381	27.48
852.556	47.96
852.731	-25.77
852.906	-7.34
853.081	23.38
853.256	33.62
853.431	25.43
853.606	-42.15
853.781	-21.67
853.956	-9.39
854.131	21.33
854.305	0.85
854.48	-7.34
854.655	-3.24
854.83	-11.43
855.005	25.43
855.18	39.76
855.354	2.9
855.529	-17.58
855.704	-31.91
855.879	19.29
856.053	27.48
856.228	27.48
856.403	4.95
856.577	64.34
856.752	-27.82
856.926	11.09
857.101	-85.16
857.276	15.19
857.45	-19.63
857.625	43.86
857.799	-50.35
857.974	29.52
858.148	-3.24
858.323	13.14
858.497	27.48
858.672	-29.87
858.846	-11.43
859.02	21.33
859.195	-36.01
859.369	-19.63
859.543	17.24
859.718	-5.29
859.892	-40.11
860.066	45.91
860.241	-27.82
860.415	-13.48
860.589	-25.77
860.763	-1.19
860.938	19.29
861.112	-15.53
861.286	45.91
861.46	-15.53
861.634	-27.82
861.808	74.58
861.982	45.91
862.157	88.92
862.331	-13.48
862.505	56.15
862.679	99.16
862.853	21.33
863.027	-3.24
863.201	-54.44
863.375	-66.73
863.549	-48.3
863.722	11.09
863.896	45.91
864.07	11.09
864.244	-17.58
864.418	82.77
864.592	15.19
864.766	2.9
864.939	47.96
865.113	-19.63
865.287	29.52
865.461	-87.21
865.634	11.09
865.808	7
865.982	-13.48
866.156	-48.3
866.329	4.95
866.503	-38.06
866.676	2.9
866.85	-70.83
867.024	-11.43
867.197	7
867.371	-40.11
867.544	-3.24
867.718	-17.58
867.891	74.58
868.065	-23.72
868.238	74.58
868.412	39.76
868.585	-5.29
868.759	13.14
868.932	-21.67
869.105	2.9
869.279	-13.48
869.452	35.67
869.625	-25.77
869.799	-42.15
869.972	-42.15
870.145	-52.39
870.319	33.62
870.492	-9.39
870.665	-3.24
870.838	45.91
871.011	-42.15
871.185	-9.39
871.358	-13.48
871.531	43.86
871.704	-5.29
871.877	-15.53
872.05	9.05
872.223	-54.44
872.396	-46.25
872.569	27.48
872.742	-48.3
872.915	52.05
873.088	15.19
873.261	-11.43
873.434	-5.29
873.607	41.81
873.78	-5.29
873.953	25.43
874.126	-9.39
874.299	39.76
874.471	56.15
874.644	74.58
874.817	-5.29
874.99	25.43
875.163	-109.74
875.335	-1.19
875.508	-21.67
875.681	-7.34
875.853	47.96
876.026	43.86
876.199	-13.48
876.371	41.81
876.544	-5.29
876.717	23.38
876.889	43.86
877.062	-52.39
877.234	-25.77
877.407	33.62
877.579	-42.15
877.752	2.9
877.924	37.72
878.097	-15.53
878.269	-50.35
878.442	56.15
878.614	-62.63
878.786	56.15
878.959	-17.58
879.131	4.95
879.303	-40.11
879.476	41.81
879.648	-13.48
879.82	-50.35
879.993	-119.98
880.165	50
880.337	-81.07
880.509	-44.2
880.681	-64.68
880.854	27.48
881.026	11.09
881.198	15.19
881.37	-29.87
881.542	109.4
881.714	-40.11
881.886	7
882.058	31.57
882.23	17.24
882.402	27.48
882.574	47.96
882.746	-9.39
882.918	41.81
883.09	-17.58
883.262	-17.58
883.434	-23.72
883.606	-83.11
883.778	-40.11
883.95	-42.15
884.122	4.95
884.293	-17.58
884.465	47.96
884.637	-58.54
884.809	17.24
884.98	-46.25
885.152	35.67
885.324	-13.48
885.496	-3.24
885.667	-70.83
885.839	-38.06
886.011	-58.54
886.182	52.05
886.354	19.29
886.525	-109.74
886.697	-40.11
886.869	-38.06
887.04	11.09
887.212	-33.96
887.383	25.43
887.555	-1.19
887.726	-54.44
887.897	-68.78
888.069	-17.58
888.24	11.09
888.412	-21.67
888.583	-31.91
888.754	-15.53
888.926	-50.35
889.097	33.62
889.268	33.62
889.44	47.96
889.611	-5.29
889.782	27.48
889.953	-27.82
890.125	27.48
890.296	-40.11
890.467	21.33
890.638	-58.54
890.809	-21.67
890.98	-19.63
891.151	0.85
891.323	-44.2
891.494	-70.83
891.665	-76.97
891.836	-58.54
892.007	-23.72
892.178	-31.91
892.349	52.05
892.52	21.33
892.691	4.95
892.862	-13.48
893.032	-17.58
893.203	-9.39
893.374	-17.58
893.545	15.19
893.716	4.95
893.887	-1.19
894.057	-25.77
894.228	52.05
894.399	-5.29
894.57	-25.77
894.74	21.33
894.911	47.96
895.082	31.57
895.253	-5.29
895.423	-1.19
895.594	45.91
895.764	47.96
895.935	66.39
896.106	29.52
896.276	7
896.447	-46.25
896.617	-3.24
896.788	-21.67
896.958	9.05
897.129	-25.77
897.299	43.86
897.47	68.44
897.64	25.43
897.81	-42.15
897.981	-17.58
898.151	-5.29
898.322	-66.73
898.492	50
898.662	-36.01
898.832	-5.29
899.003	-58.54
899.173	19.29
899.343	-36.01
899.513	37.72
