Data from USB4F104151__39__11-05-23-330.txt Node

Date: Wed Mar 12 11:05:23 EDT 2025
User: louis
Spectrometer: USB4F10415
Trigger mode: 4
Integration Time (sec): 2.000000E-2
Scans to average: 1
Electric dark correction enabled: true
Nonlinearity correction enabled: false
Boxcar width: 0
XAxis mode: Wavelengths
Number of Pixels in Spectrum: 3648
>>>>>Begin Spectral Data<<<<<
178.204	-83.45
178.424	-83.45
178.644	-83.45
178.864	-26.11
179.084	-48.64
179.304	-24.06
179.524	-75.26
179.744	23.04
179.964	66.05
180.184	-11.78
180.404	-5.63
180.624	35.33
180.844	20.99
181.064	-50.69
181.283	18.94
181.503	-38.4
181.723	41.47
181.943	-58.88
182.163	86.53
182.383	6.66
182.602	-17.92
182.822	55.81
183.042	57.86
183.262	-60.93
183.482	84.48
183.701	35.33
183.921	41.47
184.141	51.71
184.361	115.2
184.58	31.23
184.8	-32.26
185.02	64
185.239	51.71
185.459	-1.54
185.679	31.23
185.898	-22.02
186.118	104.96
186.338	-17.92
186.557	86.53
186.777	14.85
186.997	37.38
187.216	-17.92
187.436	59.9
187.655	20.99
187.875	37.38
188.095	43.52
188.314	109.05
188.534	31.23
188.753	55.81
188.973	37.38
189.192	43.52
189.412	86.53
189.631	61.95
189.851	-67.07
190.07	78.33
190.29	6.66
190.509	25.09
190.729	27.14
190.948	80.38
191.168	78.33
191.387	78.33
191.607	74.24
191.826	70.14
192.045	51.71
192.265	66.05
192.484	-26.11
192.704	51.71
192.923	-13.82
193.142	25.09
193.362	23.04
193.581	55.81
193.8	59.9
194.02	41.47
194.239	16.9
194.458	121.34
194.678	33.28
194.897	66.05
195.116	18.94
195.335	23.04
195.555	31.23
195.774	39.42
195.993	0.51
196.212	82.43
196.432	-1.54
196.651	78.33
196.87	10.75
197.089	51.71
197.308	-26.11
197.528	70.14
197.747	27.14
197.966	117.25
198.185	45.57
198.404	31.23
198.623	-42.5
198.842	-7.68
199.062	31.23
199.281	43.52
199.5	29.18
199.719	-13.82
199.938	61.95
200.157	109.05
200.376	72.19
200.595	31.23
200.814	51.71
201.033	29.18
201.252	47.62
201.471	86.53
201.69	-3.58
201.909	-15.87
202.128	70.14
202.347	92.67
202.566	-5.63
202.785	51.71
203.004	-3.58
203.223	43.52
203.442	23.04
203.661	76.29
203.879	0.51
204.098	39.42
204.317	35.33
204.536	102.91
204.755	-26.11
204.974	109.05
205.193	51.71
205.411	104.96
205.63	45.57
205.849	37.38
206.068	-42.5
206.287	8.7
206.505	31.23
206.724	66.05
206.943	80.38
207.162	37.38
207.381	2.56
207.599	45.57
207.818	-40.45
208.037	82.43
208.255	31.23
208.474	-13.82
208.693	113.15
208.911	20.99
209.13	43.52
209.349	-48.64
209.567	55.81
209.786	64
210.005	74.24
210.223	27.14
210.442	14.85
210.661	-19.97
210.879	47.62
211.098	49.66
211.316	14.85
211.535	76.29
211.753	76.29
211.972	-15.87
212.191	61.95
212.409	49.66
212.628	88.57
212.846	-54.78
213.065	-1.54
213.283	102.91
213.502	37.38
213.72	16.9
213.938	39.42
214.157	31.23
214.375	90.62
214.594	-42.5
214.812	43.52
215.031	47.62
215.249	-44.54
215.467	66.05
215.686	-54.78
215.904	47.62
216.122	0.51
216.341	139.77
216.559	29.18
216.778	37.38
216.996	-11.78
217.214	10.75
217.432	29.18
217.651	18.94
217.869	72.19
218.087	-40.45
218.306	51.71
218.524	88.57
218.742	20.99
218.96	16.9
219.179	111.1
219.397	-5.63
219.615	37.38
219.833	74.24
220.051	6.66
220.27	80.38
220.488	70.14
220.706	64
220.924	10.75
221.142	-7.68
221.36	-7.68
221.578	29.18
221.796	-7.68
222.015	49.66
222.233	41.47
222.451	18.94
222.669	-11.78
222.887	74.24
223.105	-9.73
223.323	-34.3
223.541	18.94
223.759	33.28
223.977	68.09
224.195	64
224.413	33.28
224.631	72.19
224.849	31.23
225.067	104.96
225.285	55.81
225.503	23.04
225.721	-38.4
225.939	18.94
226.157	31.23
226.375	57.86
226.592	35.33
226.81	39.42
227.028	88.57
227.246	31.23
227.464	18.94
227.682	33.28
227.9	31.23
228.117	39.42
228.335	109.05
228.553	20.99
228.771	6.66
228.989	59.9
229.206	4.61
229.424	51.71
229.642	10.75
229.86	74.24
230.077	-7.68
230.295	45.57
230.513	59.9
230.731	27.14
230.948	20.99
231.166	66.05
231.384	-42.5
231.601	59.9
231.819	80.38
232.037	29.18
232.254	-34.3
232.472	20.99
232.689	64
232.907	57.86
233.125	82.43
233.342	59.9
233.56	31.23
233.777	66.05
233.995	-22.02
234.213	92.67
234.43	-15.87
234.648	18.94
234.865	66.05
235.083	74.24
235.3	25.09
235.518	68.09
235.735	29.18
235.953	33.28
236.17	45.57
236.388	37.38
236.605	-17.92
236.822	53.76
237.04	-34.3
237.257	80.38
237.475	29.18
237.692	47.62
237.909	47.62
238.127	92.67
238.344	88.57
238.562	18.94
238.779	31.23
238.996	57.86
239.214	0.51
239.431	64
239.648	35.33
239.865	37.38
240.083	39.42
240.3	86.53
240.517	64
240.735	-11.78
240.952	20.99
241.169	43.52
241.386	47.62
241.603	82.43
241.821	14.85
242.038	86.53
242.255	-54.78
242.472	-9.73
242.689	66.05
242.907	84.48
243.124	78.33
243.341	12.8
243.558	4.61
243.775	102.91
243.992	45.57
244.209	31.23
244.426	43.52
244.643	55.81
244.86	-28.16
245.078	18.94
245.295	84.48
245.512	51.71
245.729	72.19
245.946	-28.16
246.163	55.81
246.38	39.42
246.597	43.52
246.814	57.86
247.031	55.81
247.248	2.56
247.464	74.24
247.681	-5.63
247.898	35.33
248.115	64
248.332	51.71
248.549	16.9
248.766	59.9
248.983	53.76
249.2	51.71
249.417	27.14
249.633	-3.58
249.85	4.61
250.067	12.8
250.284	37.38
250.501	12.8
250.717	47.62
250.934	-32.26
251.151	64
251.368	31.23
251.585	55.81
251.801	35.33
252.018	37.38
252.235	-7.68
252.451	0.51
252.668	39.42
252.885	25.09
253.102	-50.69
253.318	6.66
253.535	-13.82
253.752	37.38
253.968	70.14
254.185	20.99
254.401	135.68
254.618	55.81
254.835	27.14
255.051	-30.21
255.268	47.62
255.484	55.81
255.701	-1.54
255.917	111.1
256.134	94.72
256.351	57.86
256.567	8.7
256.784	37.38
257	47.62
257.217	35.33
257.433	-5.63
257.65	37.38
257.866	66.05
258.082	0.51
258.299	-38.4
258.515	53.76
258.732	43.52
258.948	2.56
259.165	-13.82
259.381	53.76
259.597	35.33
259.814	31.23
260.03	31.23
260.246	39.42
260.463	-5.63
260.679	-3.58
260.895	51.71
261.112	49.66
261.328	47.62
261.544	-28.16
261.761	41.47
261.977	23.04
262.193	37.38
262.409	61.95
262.626	0.51
262.842	43.52
263.058	-75.26
263.274	76.29
263.49	57.86
263.707	23.04
263.923	45.57
264.139	25.09
264.355	88.57
264.571	94.72
264.787	55.81
265.004	53.76
265.22	27.14
265.436	-54.78
265.652	47.62
265.868	96.77
266.084	55.81
266.3	74.24
266.516	31.23
266.732	57.86
266.948	-11.78
267.164	64
267.38	43.52
267.596	14.85
267.812	176.64
268.028	-5.63
268.244	61.95
268.46	-11.78
268.676	33.28
268.892	14.85
269.108	47.62
269.324	0.51
269.54	0.51
269.756	113.15
269.972	27.14
270.188	10.75
270.403	59.9
270.619	55.81
270.835	4.61
271.051	104.96
271.267	4.61
271.483	-26.11
271.698	29.18
271.914	-50.69
272.13	6.66
272.346	41.47
272.562	98.81
272.777	131.58
272.993	-44.54
273.209	72.19
273.425	61.95
273.64	41.47
273.856	-17.92
274.072	27.14
274.287	59.9
274.503	80.38
274.719	88.57
274.934	72.19
275.15	41.47
275.366	37.38
275.581	45.57
275.797	14.85
276.012	37.38
276.228	31.23
276.444	23.04
276.659	78.33
276.875	-32.26
277.09	-5.63
277.306	-46.59
277.521	57.86
277.737	31.23
277.952	47.62
278.168	33.28
278.383	14.85
278.599	31.23
278.814	53.76
279.03	6.66
279.245	-22.02
279.461	41.47
279.676	51.71
279.892	57.86
280.107	8.7
280.322	51.71
280.538	6.66
280.753	-11.78
280.969	64
281.184	-3.58
281.399	25.09
281.615	-11.78
281.83	78.33
282.045	80.38
282.26	10.75
282.476	20.99
282.691	37.38
282.906	37.38
283.122	29.18
283.337	31.23
283.552	47.62
283.767	8.7
283.983	18.94
284.198	29.18
284.413	82.43
284.628	2.56
284.843	-3.58
285.058	64
285.274	68.09
285.489	-11.78
285.704	33.28
285.919	31.23
286.134	-24.06
286.349	27.14
286.564	-13.82
286.779	53.76
286.995	10.75
287.21	90.62
287.425	113.15
287.64	-17.92
287.855	29.18
288.07	8.7
288.285	53.76
288.5	96.77
288.715	76.29
288.93	29.18
289.145	18.94
289.36	70.14
289.575	4.61
289.79	45.57
290.004	27.14
290.219	64
290.434	2.56
290.649	33.28
290.864	-30.21
291.079	-22.02
291.294	64
291.509	49.66
291.724	-5.63
291.938	31.23
292.153	25.09
292.368	-5.63
292.583	66.05
292.798	18.94
293.012	-24.06
293.227	68.09
293.442	-9.73
293.657	0.51
293.871	76.29
294.086	82.43
294.301	20.99
294.516	72.19
294.73	49.66
294.945	31.23
295.16	33.28
295.374	6.66
295.589	10.75
295.804	-34.3
296.018	-22.02
296.233	72.19
296.447	86.53
296.662	66.05
296.877	33.28
297.091	37.38
297.306	86.53
297.52	31.23
297.735	39.42
297.949	107.01
298.164	23.04
298.378	25.09
298.593	47.62
298.807	-11.78
299.022	66.05
299.236	59.9
299.451	18.94
299.665	72.19
299.88	-1.54
300.094	6.66
300.309	66.05
300.523	33.28
300.737	64
300.952	25.09
301.166	68.09
301.381	53.76
301.595	82.43
301.809	64
302.024	55.81
302.238	6.66
302.452	88.57
302.667	-9.73
302.881	107.01
303.095	70.14
303.309	84.48
303.524	80.38
303.738	92.67
303.952	-17.92
304.166	39.42
304.381	-32.26
304.595	51.71
304.809	-9.73
305.023	64
305.237	23.04
305.452	78.33
305.666	49.66
305.88	49.66
306.094	98.81
306.308	0.51
306.522	51.71
306.736	55.81
306.95	80.38
307.164	10.75
307.379	14.85
307.593	-22.02
307.807	107.01
308.021	59.9
308.235	102.91
308.449	18.94
308.663	76.29
308.877	35.33
309.091	84.48
309.305	-3.58
309.519	4.61
309.733	82.43
309.947	53.76
310.161	68.09
310.374	6.66
310.588	51.71
310.802	49.66
311.016	76.29
311.23	96.77
311.444	74.24
311.658	49.66
311.872	59.9
312.085	10.75
312.299	0.51
312.513	20.99
312.727	145.92
312.941	4.61
313.154	33.28
313.368	-11.78
313.582	27.14
313.796	41.47
314.009	80.38
314.223	23.04
314.437	90.62
314.651	51.71
314.864	-22.02
315.078	8.7
315.292	39.42
315.505	6.66
315.719	14.85
315.933	39.42
316.146	33.28
316.36	64
316.573	-11.78
316.787	123.39
317.001	119.29
317.214	39.42
317.428	61.95
317.641	39.42
317.855	123.39
318.068	-1.54
318.282	53.76
318.495	31.23
318.709	-13.82
318.922	31.23
319.136	53.76
319.349	96.77
319.563	76.29
319.776	29.18
319.99	-13.82
320.203	78.33
320.417	12.8
320.63	154.11
320.843	-1.54
321.057	25.09
321.27	31.23
321.483	6.66
321.697	92.67
321.91	90.62
322.124	82.43
322.337	88.57
322.55	39.42
322.763	94.72
322.977	98.81
323.19	6.66
323.403	35.33
323.617	92.67
323.83	90.62
324.043	94.72
324.256	41.47
324.469	8.7
324.683	80.38
324.896	82.43
325.109	74.24
325.322	57.86
325.535	25.09
325.748	33.28
325.962	18.94
326.175	12.8
326.388	10.75
326.601	-3.58
326.814	-1.54
327.027	127.49
327.24	33.28
327.453	20.99
327.666	94.72
327.879	74.24
328.092	49.66
328.305	80.38
328.518	125.44
328.731	-15.87
328.944	47.62
329.157	-3.58
329.37	23.04
329.583	39.42
329.796	53.76
330.009	-5.63
330.222	25.09
330.435	-24.06
330.648	49.66
330.861	39.42
331.073	98.81
331.286	53.76
331.499	125.44
331.712	35.33
331.925	14.85
332.138	78.33
332.35	78.33
332.563	20.99
332.776	23.04
332.989	-24.06
333.202	-3.58
333.414	66.05
333.627	-13.82
333.84	-13.82
334.053	51.71
334.265	78.33
334.478	80.38
334.691	43.52
334.903	20.99
335.116	31.23
335.329	10.75
335.541	43.52
335.754	90.62
335.966	68.09
336.179	29.18
336.392	86.53
336.604	82.43
336.817	31.23
337.029	109.05
337.242	72.19
337.454	68.09
337.667	29.18
337.88	137.73
338.092	35.33
338.305	10.75
338.517	-5.63
338.729	59.9
338.942	100.86
339.154	-1.54
339.367	59.9
339.579	16.9
339.792	12.8
340.004	61.95
340.217	10.75
340.429	66.05
340.641	18.94
340.854	43.52
341.066	-11.78
341.278	72.19
341.491	51.71
341.703	37.38
341.915	-9.73
342.128	29.18
342.34	86.53
342.552	16.9
342.764	29.18
342.977	70.14
343.189	18.94
343.401	119.29
343.613	31.23
343.826	76.29
344.038	59.9
344.25	37.38
344.462	35.33
344.674	72.19
344.886	10.75
345.099	33.28
345.311	35.33
345.523	88.57
345.735	-28.16
345.947	27.14
346.159	55.81
346.371	23.04
346.583	12.8
346.795	82.43
347.007	-3.58
347.219	74.24
347.431	-26.11
347.643	41.47
347.855	61.95
348.067	-5.63
348.279	88.57
348.491	29.18
348.703	59.9
348.915	37.38
349.127	94.72
349.339	51.71
349.551	98.81
349.763	14.85
349.975	-1.54
350.187	74.24
350.399	35.33
350.61	27.14
350.822	53.76
351.034	70.14
351.246	80.38
351.458	76.29
351.669	98.81
351.881	84.48
352.093	55.81
352.305	45.57
352.517	59.9
352.728	18.94
352.94	80.38
353.152	16.9
353.363	4.61
353.575	68.09
353.787	96.77
353.999	43.52
354.21	72.19
354.422	31.23
354.633	45.57
354.845	6.66
355.057	12.8
355.268	80.38
355.48	100.86
355.692	-9.73
355.903	14.85
356.115	72.19
356.326	78.33
356.538	113.15
356.749	39.42
356.961	45.57
357.172	55.81
357.384	16.9
357.595	37.38
357.807	18.94
358.018	59.9
358.23	27.14
358.441	96.77
358.653	29.18
358.864	61.95
359.075	64
359.287	33.28
359.498	98.81
359.709	14.85
359.921	68.09
360.132	-24.06
360.344	25.09
360.555	43.52
360.766	23.04
360.977	55.81
361.189	2.56
361.4	78.33
361.611	104.96
361.823	119.29
362.034	20.99
362.245	12.8
362.456	86.53
362.667	80.38
362.879	88.57
363.09	45.57
363.301	74.24
363.512	64
363.723	43.52
363.935	41.47
364.146	41.47
364.357	27.14
364.568	66.05
364.779	-9.73
364.99	127.49
365.201	55.81
365.412	-9.73
365.623	39.42
365.834	10.75
366.045	70.14
366.256	76.29
366.467	66.05
366.678	35.33
366.889	55.81
367.1	59.9
367.311	55.81
367.522	23.04
367.733	37.38
367.944	55.81
368.155	-22.02
368.366	18.94
368.577	23.04
368.788	94.72
368.999	37.38
369.209	92.67
369.42	25.09
369.631	96.77
369.842	35.33
370.053	10.75
370.264	72.19
370.474	125.44
370.685	53.76
370.896	16.9
371.107	45.57
371.317	-15.87
371.528	-1.54
371.739	133.63
371.95	-9.73
372.16	14.85
372.371	-1.54
372.582	14.85
372.792	35.33
373.003	49.66
373.214	55.81
373.424	51.71
373.635	66.05
373.846	20.99
374.056	70.14
374.267	57.86
374.477	47.62
374.688	39.42
374.898	55.81
375.109	80.38
375.319	37.38
375.53	33.28
375.74	35.33
375.951	70.14
376.161	27.14
376.372	100.86
376.582	33.28
376.793	92.67
377.003	53.76
377.214	74.24
377.424	43.52
377.635	39.42
377.845	-36.35
378.055	29.18
378.266	57.86
378.476	76.29
378.686	113.15
378.897	94.72
379.107	92.67
379.317	115.2
379.528	35.33
379.738	-44.54
379.948	8.7
380.158	115.2
380.369	49.66
380.579	102.91
380.789	74.24
380.999	86.53
381.21	115.2
381.42	86.53
381.63	41.47
381.84	47.62
382.05	35.33
382.261	76.29
382.471	76.29
382.681	57.86
382.891	86.53
383.101	39.42
383.311	35.33
383.521	10.75
383.731	86.53
383.941	86.53
384.151	-7.68
384.361	55.81
384.571	84.48
384.781	147.97
384.991	51.71
385.201	55.81
385.411	57.86
385.621	12.8
385.831	8.7
386.041	61.95
386.251	66.05
386.461	6.66
386.671	27.14
386.881	98.81
387.091	84.48
387.301	160.25
387.511	55.81
387.72	35.33
387.93	8.7
388.14	55.81
388.35	90.62
388.56	104.96
388.769	78.33
388.979	10.75
389.189	107.01
389.399	49.66
389.609	-32.26
389.818	41.47
390.028	39.42
390.238	150.01
390.447	-11.78
390.657	119.29
390.867	70.14
391.076	92.67
391.286	190.97
391.496	55.81
391.705	145.92
391.915	47.62
392.125	59.9
392.334	20.99
392.544	119.29
392.753	133.63
392.963	20.99
393.172	82.43
393.382	2.56
393.591	115.2
393.801	53.76
394.01	102.91
394.22	61.95
394.429	55.81
394.639	59.9
394.848	139.77
395.058	53.76
395.267	43.52
395.477	66.05
395.686	-9.73
395.895	190.97
396.105	211.45
396.314	78.33
396.524	76.29
396.733	78.33
396.942	94.72
397.152	49.66
397.361	72.19
397.57	55.81
397.78	59.9
397.989	117.25
398.198	123.39
398.407	57.86
398.617	57.86
398.826	133.63
399.035	115.2
399.244	66.05
399.453	115.2
399.663	102.91
399.872	55.81
400.081	104.96
400.29	145.92
400.499	78.33
400.708	92.67
400.917	74.24
401.127	109.05
401.336	76.29
401.545	117.25
401.754	174.59
401.963	141.82
402.172	154.11
402.381	88.57
402.59	135.68
402.799	113.15
403.008	41.47
403.217	166.4
403.426	111.1
403.635	90.62
403.844	145.92
404.053	125.44
404.262	104.96
404.471	104.96
404.68	186.88
404.888	102.91
405.097	123.39
405.306	158.21
405.515	170.49
405.724	141.82
405.933	211.45
406.142	172.54
406.35	221.69
406.559	141.82
406.768	162.3
406.977	217.6
407.185	178.69
407.394	227.84
407.603	217.6
407.812	133.63
408.02	170.49
408.229	170.49
408.438	170.49
408.646	227.84
408.855	147.97
409.064	207.36
409.272	272.89
409.481	238.08
409.69	188.93
409.898	244.22
410.107	281.08
410.315	233.98
410.524	266.75
410.733	338.43
410.941	311.8
411.15	283.13
411.358	276.99
411.567	416.25
411.775	389.63
411.984	344.57
412.192	424.44
412.401	309.76
412.609	395.77
412.818	420.35
413.026	424.44
413.234	414.2
413.443	481.78
413.651	465.4
413.86	487.93
414.068	496.12
414.276	543.22
414.485	578.04
414.693	567.8
414.901	596.47
415.11	645.62
415.318	575.99
415.526	590.33
415.734	657.91
415.943	717.3
416.151	723.44
416.359	739.83
416.567	655.86
416.776	883.19
416.984	858.61
417.192	895.47
417.4	834.04
417.608	827.89
417.817	827.89
418.025	893.43
418.233	1057.26
418.441	956.91
418.649	1034.74
418.857	1053.17
419.065	1155.57
419.273	1225.2
419.481	1141.23
419.689	1288.68
419.897	1317.36
420.105	1386.99
420.313	1397.23
420.521	1391.08
420.729	1378.79
420.937	1516.01
421.145	1518.06
421.353	1636.84
421.561	1651.17
421.769	1608.17
421.977	1845.73
422.185	1726.95
422.393	1898.98
422.601	1956.32
422.809	1984.99
423.017	1982.95
423.224	2052.58
423.432	2214.37
423.64	2206.17
423.848	2308.57
424.056	2286.05
424.263	2468.31
424.471	2449.88
424.679	2484.7
424.887	2785.75
425.094	2712.02
425.302	2695.64
425.51	2841.04
425.718	2947.54
425.925	2951.63
426.133	3082.7
426.341	3295.69
426.548	3250.64
426.756	3482.06
426.964	3455.44
427.171	3643.85
427.379	3824.07
427.586	3736.01
427.794	4037.06
428.001	4172.22
428.209	4391.36
428.417	4252.1
428.624	4610.49
428.832	4430.27
429.039	4549.05
429.247	4510.14
429.454	4981.17
429.662	5163.44
429.869	4727.22
430.076	5284.27
430.284	5015.99
430.491	5444.01
430.699	5704.1
430.906	5552.56
431.114	5685.67
431.321	5833.13
431.528	6046.12
431.736	6482.33
431.943	6785.43
432.15	6584.73
432.358	6486.43
432.565	7039.38
432.772	6902.17
432.979	7199.12
433.187	7405.97
433.394	7432.59
433.601	7846.28
433.808	8051.08
434.016	7891.34
434.223	8251.78
434.43	8788.35
434.637	8585.6
434.844	9183.6
435.052	9402.74
435.259	9277.81
435.466	9488.75
435.673	9392.5
435.88	9869.67
436.087	10385.76
436.294	10424.67
436.501	10201.44
436.708	10396
436.915	10772.83
437.122	11157.85
437.329	11186.52
437.537	11569.49
437.743	11921.74
437.95	11569.49
438.157	12163.4
438.364	12642.62
438.571	12611.9
438.778	12736.83
438.985	13938.99
439.192	13513.01
439.399	13885.74
439.606	13371.7
439.813	14170.41
440.02	15008.03
440.227	14831.9
440.433	14600.48
440.64	15130.91
440.847	14981.4
441.054	15278.36
441.261	16521.48
441.467	16142.6
441.674	16627.97
441.881	17219.83
442.088	17324.28
442.294	17193.21
442.501	17516.79
442.708	18098.41
442.914	18518.25
443.121	19210.46
443.328	18882.78
443.534	20154.57
443.741	19572.95
443.948	19378.39
444.154	20607.17
444.361	20416.71
444.568	20707.52
444.774	20834.5
444.981	20805.83
445.187	21358.78
445.394	22583.46
445.6	22122.67
445.807	24369.29
446.013	23308.44
446.22	23636.12
446.426	24713.35
446.633	24600.71
446.839	25399.42
447.046	24287.37
447.252	25989.24
447.459	25956.47
447.665	25950.32
447.871	27101.28
448.078	27961.43
448.284	26849.38
448.491	27566.17
448.697	28655.69
448.903	28885.06
449.11	28717.13
449.316	28592.2
449.522	28915.78
449.728	29765.69
449.935	29982.77
450.141	29950.01
450.347	30457.9
450.553	29737.02
450.76	30296.11
450.966	30871.59
451.172	30470.19
451.378	31074.34
451.584	30746.67
451.791	31027.24
451.997	31039.53
452.203	31817.75
452.409	31426.59
452.615	31557.66
452.821	30165.04
453.027	29866.04
453.233	31316
453.44	30257.2
453.646	30283.83
453.852	30486.57
454.058	30945.32
454.264	30177.33
454.47	30599.21
454.676	30052.41
454.882	31236.13
455.088	28221.52
455.294	28393.55
455.5	28741.71
455.705	28964.93
455.911	28024.92
456.117	27465.82
456.323	27021.41
456.529	25393.28
456.735	26591.34
456.941	25835.64
457.147	25239.68
457.352	24604.81
457.558	24133.78
457.764	24490.12
457.97	23666.84
458.176	23472.28
458.381	23556.25
458.587	22263.98
458.793	22001.84
458.999	21233.85
459.204	22593.7
459.41	22165.68
459.616	20611.27
459.821	20377.8
460.027	20289.74
460.233	19859.66
460.438	18804.96
460.644	18940.13
460.85	18415.85
461.055	17971.44
461.261	17776.88
461.466	16724.22
461.672	16089.35
461.878	17232.12
462.083	16032.01
462.289	16036.11
462.494	15556.88
462.7	15055.13
462.905	14489.89
463.111	15122.71
463.316	15186.2
463.522	15104.28
463.727	15126.81
463.932	14899.48
464.138	14747.93
464.343	14668.06
464.549	14420.26
464.754	14770.46
464.959	14672.16
465.165	14758.17
465.37	13994.28
465.575	13648.18
465.781	14240.04
465.986	14199.08
466.191	13846.83
466.397	13605.17
466.602	13003.07
466.807	13377.84
467.012	13117.75
467.218	13592.88
467.423	13076.79
467.628	13277.49
467.833	13967.66
468.038	13263.16
468.244	12812.6
468.449	13564.21
468.654	13082.94
468.859	12661.05
469.064	12929.34
469.269	12251.46
469.474	12357.96
469.679	12360
469.885	12378.44
470.09	12427.59
470.295	12276.04
470.5	12005.7
470.705	12083.53
470.91	11794.76
471.115	11616.59
471.32	11741.52
471.525	11923.79
471.73	11409.75
471.935	11434.32
472.139	11141.46
472.344	11028.82
472.549	11387.22
472.754	11112.79
472.959	10764.64
473.164	10447.2
473.369	10512.74
473.574	10795.36
473.778	10721.63
473.983	10324.32
474.188	10475.87
474.393	9972.07
474.598	10221.92
474.802	9795.95
475.007	10049.89
475.212	9900.39
475.417	9447.79
475.621	9574.77
475.826	9572.72
476.031	9466.22
476.235	9306.48
476.44	9402.74
476.645	9179.51
476.849	9290.1
477.054	9079.16
477.259	9025.91
477.463	8980.85
477.668	8683.9
477.872	8804.73
478.077	8634.75
478.282	8405.38
478.486	8348.03
478.691	8401.28
478.895	8558.97
479.1	8341.89
479.304	8372.61
479.509	8214.91
479.713	8145.28
479.918	8081.8
480.122	7977.35
480.326	7799.18
480.531	8061.32
480.735	8046.98
480.94	7809.42
481.144	8024.45
481.348	7846.28
481.553	8032.65
481.757	7784.84
481.961	7756.17
482.166	7868.81
482.37	7836.04
482.574	7639.44
482.778	7672.2
482.983	7864.71
483.187	7913.86
483.391	7772.55
483.595	7874.95
483.8	7606.67
484.004	7725.45
484.208	7936.39
484.412	7684.49
484.616	7719.31
484.821	7694.73
485.025	7694.73
485.229	7825.8
485.433	7723.4
485.637	7844.23
485.841	7709.07
486.045	7723.4
486.249	7770.51
486.453	7725.45
486.657	7700.87
486.861	7858.57
487.065	7573.9
487.269	7674.25
487.473	7551.37
487.677	7641.48
487.881	7821.7
488.085	7719.31
488.289	7999.88
488.493	7668.11
488.697	7915.91
488.901	7754.12
489.105	7774.6
489.309	7848.33
489.512	7647.63
489.716	7885.19
489.92	7729.55
490.124	7633.29
490.328	7936.39
490.531	7803.27
490.735	8079.75
490.939	7956.87
491.143	8038.79
491.346	7967.11
491.55	8055.17
491.754	8122.76
491.958	8069.51
492.161	8085.89
492.365	8194.43
492.569	8270.21
492.772	8317.31
492.976	8112.52
493.18	8321.41
493.383	8313.22
493.587	8446.34
493.79	8702.33
493.994	8466.81
494.197	8585.6
494.401	8583.55
494.605	8681.85
494.808	8753.53
495.012	8751.48
495.215	8575.36
495.419	8993.14
495.622	8987
495.825	9083.25
496.029	9075.06
496.232	9046.39
496.436	9304.43
496.639	9539.95
496.843	9314.67
497.046	9478.51
497.249	9466.22
497.453	9738.6
497.656	9757.04
497.859	9613.68
498.063	9933.16
498.266	10072.42
498.469	10303.84
498.673	10117.48
498.876	10424.67
499.079	10482.02
499.282	10430.82
499.485	10873.18
499.689	10662.24
499.892	11186.52
500.095	11110.74
500.298	11172.18
500.501	11018.58
500.705	11465.04
500.908	11499.86
501.111	11731.28
501.314	11770.19
501.517	11891.02
501.72	11925.83
501.923	12159.3
502.126	12040.52
502.329	12407.11
502.532	12509.51
502.735	12740.93
502.938	12945.72
503.141	12966.2
503.344	13173.05
503.547	13054.26
503.75	13435.19
503.953	13494.58
504.156	13932.84
504.359	13953.32
504.562	14031.15
504.765	14244.13
504.968	14407.97
505.17	14266.66
505.373	14485.79
505.576	15046.94
505.779	15083.8
505.982	15235.35
506.185	15200.54
506.387	15395.09
506.59	15616.27
506.793	15741.2
506.996	15745.3
507.198	16421.13
507.401	16091.4
507.604	16412.93
507.807	16572.68
508.009	16947.45
508.212	16965.89
508.415	17311.99
508.617	17168.63
508.82	17326.33
509.022	17389.81
509.225	17758.45
509.428	18002.16
509.63	18202.86
509.833	17934.57
510.035	18680.03
510.238	18370.79
510.44	18831.58
510.643	19110.11
510.845	19001.57
511.048	19278.04
511.25	19763.41
511.453	19544.28
511.655	20439.24
511.858	20097.23
512.06	20304.07
512.262	20426.95
512.465	20701.38
512.667	20867.27
512.87	21022.91
513.072	20785.35
513.274	21577.91
513.477	21682.36
513.679	21932.21
513.881	22149.29
514.084	22378.67
514.286	22458.54
514.488	22493.35
514.69	23459.99
514.893	23021.73
515.095	23423.13
515.297	23713.94
515.499	23562.39
515.701	24195.21
515.904	24557.71
516.106	24314
516.308	24572.04
516.51	24930.44
516.712	25034.88
516.914	25563.26
517.116	25663.61
517.318	25817.21
517.52	26237.04
517.722	26081.39
517.925	26069.11
518.127	26808.42
518.329	26738.79
518.531	27033.7
518.733	27564.12
518.935	27744.34
519.136	27275.36
519.338	28311.63
519.54	28141.65
519.742	28815.43
519.944	28590.16
520.146	29028.42
520.348	29118.53
520.55	29081.67
520.752	29595.71
520.954	29765.69
521.155	30007.35
521.357	30240.82
521.559	30781.48
521.761	30992.42
521.963	30847.02
522.164	31135.78
522.366	31148.07
522.568	31801.37
522.77	31637.53
522.971	32233.49
523.173	32219.16
523.375	32716.81
523.576	32813.07
523.778	32655.37
523.98	33226.76
524.181	33617.92
524.383	33378.31
524.584	33824.76
524.786	33771.52
524.988	33884.15
525.189	34201.59
525.391	34725.87
525.592	34539.5
525.794	34488.31
525.995	34678.77
526.197	34768.88
526.398	34918.38
526.6	34852.84
526.801	35172.33
527.003	35604.45
527.204	35545.06
527.406	35876.83
527.607	35729.37
527.808	36433.88
528.01	35694.56
528.211	36478.93
528.412	36933.58
528.614	36536.27
528.815	36759.5
529.016	36704.21
529.218	36659.15
529.419	36949.96
529.62	37068.75
529.822	36779.98
530.023	37152.71
530.224	37226.44
530.425	37304.26
530.626	36902.86
530.828	36618.19
531.029	37914.56
531.23	37177.29
531.431	37562.31
531.632	37676.99
531.833	37912.51
532.035	37803.97
532.236	37572.55
532.437	37738.43
532.638	37642.18
532.839	38158.27
533.04	38037.44
533.241	37490.63
533.442	38260.66
533.643	38240.18
533.844	38422.45
534.045	38248.38
534.246	38074.3
534.447	38680.5
534.648	38033.34
534.849	38172.6
535.05	38447.03
535.251	37996.48
535.451	38068.16
535.652	38774.7
535.853	37910.46
536.054	38322.1
536.255	38408.12
536.456	37990.33
536.657	39045.04
536.857	38236.09
537.058	38408.12
537.259	38811.57
537.46	38481.84
537.66	38592.44
537.861	38375.35
538.062	38393.78
538.263	38487.99
538.463	38483.89
538.664	38721.46
538.865	38610.87
539.065	38498.23
539.266	38524.85
539.466	39016.36
539.667	38438.84
539.868	38825.9
540.068	38305.72
540.269	38449.08
540.469	38645.68
540.67	38258.62
540.87	38731.7
541.071	38424.5
541.271	38774.7
541.472	38385.59
541.672	38412.21
541.873	38238.14
542.073	37978.04
542.274	38543.28
542.474	38455.22
542.675	38041.53
542.875	38035.39
543.075	38502.32
543.276	38064.06
543.476	38676.4
543.676	38186.94
543.877	38766.51
544.077	38287.29
544.277	38453.17
544.478	38418.36
544.678	38371.25
544.878	38178.75
545.078	38223.8
545.279	37920.7
545.479	38406.07
545.679	38289.34
545.879	37953.47
546.079	38191.03
546.28	38145.98
546.48	37941.18
546.68	38356.92
546.88	38361.01
547.08	38387.64
547.28	38133.69
547.48	37441.48
547.68	38688.69
547.88	37685.18
548.081	38242.23
548.281	37879.74
548.481	38168.51
548.681	38576.05
548.881	37920.7
549.081	38262.71
549.28	37945.28
549.48	38393.78
549.68	37863.36
549.88	38498.23
550.08	37830.59
550.28	38428.6
550.48	38019
550.68	38555.57
550.88	37750.72
551.08	37873.6
551.279	38496.18
551.479	37752.77
551.679	38105.02
551.879	37849.02
552.079	37777.34
552.278	37924.8
552.478	37906.37
552.678	37797.82
552.878	37941.18
553.077	37320.65
553.277	37222.34
553.477	38195.13
553.676	37846.97
553.876	37449.67
554.076	37767.1
554.275	37478.34
554.475	37312.45
554.674	37672.9
554.874	37269.45
555.074	37801.92
555.273	37490.63
555.473	37838.78
555.672	37027.79
555.872	36937.68
556.071	37521.35
556.271	37748.67
556.47	37517.25
556.67	37017.55
556.869	36749.26
557.068	37535.68
557.268	37052.36
557.467	36980.68
557.667	36952.01
557.866	36872.14
558.065	36843.47
558.265	36792.27
558.464	36427.73
558.663	37066.7
558.863	36388.82
559.062	37167.05
559.261	36235.22
559.461	36659.15
559.66	35880.92
559.859	36339.67
560.058	36399.06
560.258	36235.22
560.457	35987.42
560.656	36745.17
560.855	36005.85
561.054	36376.53
561.253	35901.4
561.453	35905.5
561.652	35989.47
561.851	36138.97
562.05	36048.86
562.249	35430.37
562.448	35588.06
562.647	35688.42
562.846	35538.91
563.045	35626.98
563.244	35092.46
563.443	35708.9
563.642	35074.02
563.841	35028.97
564.04	35149.8
564.239	35291.11
564.438	34867.18
564.637	35246.05
564.836	34664.43
565.035	34881.52
565.234	34930.67
565.432	34480.11
565.631	34463.73
565.83	34619.38
566.029	34471.92
566.228	33693.69
566.427	34361.33
566.625	34162.68
566.824	33482.75
567.023	33951.74
567.222	33421.31
567.42	33837.05
567.619	33875.96
567.818	33333.25
568.016	33316.87
568.215	33628.16
568.414	33415.17
568.612	33476.61
568.811	33265.67
569.01	33208.33
569.208	32966.66
569.407	33492.99
569.605	32684.05
569.804	33167.37
570.002	32534.54
570.201	32774.16
570.4	32575.5
570.598	32188.44
570.797	32780.3
570.995	32518.16
571.193	31914.01
571.392	32481.3
571.59	31842.33
571.789	31629.34
571.987	31850.52
572.186	31914.01
572.384	31682.59
572.582	31694.88
572.781	31606.81
572.979	31143.97
573.177	31189.03
573.376	31645.73
573.574	31232.04
573.772	31404.06
573.971	31121.45
574.169	31045.67
574.367	31096.87
574.565	31014.95
574.763	30758.95
574.962	30666.8
575.16	30505.01
575.358	30535.73
575.556	30330.93
575.754	30636.08
575.952	29968.44
576.151	30328.88
576.349	30130.23
576.547	29974.58
576.745	29970.49
576.943	29827.13
577.141	29808.7
577.339	29591.61
577.537	29886.52
577.735	29364.29
577.933	29444.16
578.131	29339.71
578.329	29272.13
578.527	29128.77
578.725	28997.7
578.923	29163.59
579.121	29182.02
579.319	29171.78
579.516	28739.66
579.714	28917.83
579.912	28637.26
580.11	28426.32
580.308	28844.1
580.506	28344.4
580.704	27850.84
580.901	28401.74
581.099	28385.36
581.297	28338.26
581.495	28076.12
581.692	28141.65
581.89	27918.42
582.088	27959.38
582.285	27770.97
582.483	27826.26
582.681	27762.78
582.878	27603.03
583.076	27088.99
583.274	27709.53
583.471	27078.75
583.669	27267.17
583.866	26902.63
584.064	27285.6
584.262	26794.09
584.459	27340.89
584.657	27009.12
584.854	27091.04
585.052	26548.33
585.249	26744.94
585.447	26398.83
585.644	26527.85
585.841	26644.59
586.039	26601.58
586.236	26349.68
586.434	26282.09
586.631	26171.5
586.828	26042.48
587.026	26280.05
587.223	25968.76
587.42	25829.49
587.618	25747.58
587.815	25729.14
588.012	25555.07
588.21	25460.86
588.407	25870.45
588.604	25254.01
588.801	25225.34
588.999	25254.01
589.196	25270.4
589.393	25337.98
589.59	24944.77
589.787	24789.13
589.984	24834.18
590.182	24819.85
590.379	24901.76
590.576	24905.86
590.773	24907.91
590.97	24498.31
591.167	24629.38
591.364	24184.97
591.561	24514.7
591.758	23951.51
591.955	23949.46
592.152	24340.62
592.349	23937.17
592.546	24182.93
592.743	23990.42
592.94	23736.47
593.137	23748.76
593.334	23855.25
593.531	23756.95
593.727	23701.65
593.924	23699.61
594.121	23290.01
594.318	23892.12
594.515	23175.33
594.712	23120.03
594.908	23079.07
595.105	23482.52
595.302	22835.36
595.499	22997.15
595.696	22808.74
595.892	22880.42
596.089	22919.33
596.286	23060.64
596.482	22802.6
596.679	22616.23
596.876	22409.39
597.072	22393
597.269	22407.34
597.466	22354.09
597.662	22343.85
597.859	22466.73
598.055	22108.33
598.252	22198.45
598.448	22075.57
598.645	21858.48
598.841	21637.3
599.038	21774.52
599.234	21672.12
599.431	21563.57
599.627	21500.09
599.824	21645.49
600.02	21283
600.217	21319.87
600.413	21356.73
600.609	21508.28
600.806	21362.87
601.002	21358.78
601.198	21199.04
601.395	20906.18
601.591	20648.13
601.787	21258.43
601.984	20799.68
602.18	20713.67
602.376	20852.93
602.572	20670.66
602.769	20633.8
602.965	20388.04
603.161	20361.42
603.357	20252.87
603.553	20226.25
603.75	20406.47
603.946	19974.35
604.142	20086.99
604.338	19871.95
604.534	20211.92
604.73	20070.61
604.926	19927.25
605.122	19855.57
605.318	19736.79
605.514	19888.34
605.71	19792.08
605.906	19443.93
606.102	19333.34
606.298	19468.5
606.494	19415.26
606.69	19497.17
606.886	19464.41
607.082	19265.75
607.278	19253.47
607.474	18710.75
607.67	19329.24
607.866	19044.57
608.062	19134.68
608.257	19050.72
608.453	19116.25
608.649	19118.3
608.845	18895.07
609.041	18735.33
609.236	19124.44
609.432	18661.6
609.628	18645.22
609.824	18653.41
610.019	18618.6
610.215	18542.82
610.411	18626.79
610.606	18501.86
610.802	18520.29
610.998	18295.02
611.193	18301.16
611.389	18143.47
611.584	18223.34
611.78	18180.33
611.976	18342.12
612.171	18397.42
612.367	17809.65
612.562	17723.63
612.758	17647.86
612.953	17907.95
613.149	18137.32
613.344	17801.46
613.539	18075.88
613.735	17877.23
613.93	17838.32
614.126	17537.27
614.321	17709.3
614.517	17508.6
614.712	17580.28
614.907	17527.03
615.103	17553.65
615.298	17518.84
615.493	17766.64
615.688	17205.5
615.884	17649.91
616.079	17221.88
616.274	17529.08
616.47	17197.31
616.665	17131.77
616.86	17197.31
617.055	16949.5
617.25	17066.24
617.445	17160.44
617.641	16996.6
617.836	16963.84
618.031	16693.51
618.226	16974.08
618.421	16820.48
618.616	16982.27
618.811	16566.53
619.006	16900.35
619.201	16679.17
619.396	16673.03
619.591	16306.44
619.786	16558.34
619.981	16298.25
620.176	16494.85
620.371	16079.11
620.566	16312.58
620.761	16032.01
620.956	16406.79
621.151	16023.82
621.346	15921.42
621.541	15659.28
621.735	16134.41
621.93	15591.7
622.125	15790.35
622.32	15218.97
622.515	15558.93
622.709	15188.25
622.904	15329.56
623.099	14915.87
623.294	15139.1
623.488	15036.7
623.683	15010.07
623.878	14831.9
624.072	15200.54
624.267	14807.33
624.462	14723.36
624.656	14377.25
624.851	14430.5
625.046	14491.94
625.24	14524.71
625.435	14270.76
625.629	14383.4
625.824	14149.93
626.018	14281
626.213	13756.72
626.407	13869.36
626.602	13728.05
626.796	13783.34
626.991	13889.84
627.185	13701.42
627.38	13570.35
627.574	13543.73
627.768	13455.67
627.963	13316.4
628.157	13187.38
628.352	13281.59
628.546	13101.37
628.74	13252.92
628.935	13052.22
629.129	13076.79
629.323	12790.08
629.517	12890.43
629.712	12872
629.906	12747.07
630.1	12544.32
630.294	12433.73
630.489	12376.39
630.683	12478.79
630.877	12388.67
631.071	12214.6
631.265	12239.17
631.459	12200.26
631.653	12161.35
631.848	12208.45
632.042	12003.66
632.236	11854.16
632.43	11665.74
632.624	11821.39
632.818	11798.86
633.012	11467.09
633.206	11596.11
633.4	11577.68
633.594	11366.74
633.788	11520.34
633.982	11436.37
634.176	11612.49
634.369	11155.8
634.563	11336.02
634.757	11235.67
634.951	11043.16
635.145	11182.42
635.339	11243.86
635.533	10770.78
635.726	11065.69
635.92	10830.17
636.114	10778.97
636.308	10623.33
636.501	10631.52
636.695	10539.36
636.889	10381.67
637.083	10326.37
637.276	10248.55
637.47	10385.76
637.664	10336.61
637.857	10365.28
638.051	10293.6
638.244	9980.26
638.438	10140.01
638.632	10049.89
638.825	9879.91
639.019	10074.47
639.212	9990.5
639.406	9933.16
639.599	9724.27
639.793	9818.47
639.986	9611.63
640.18	9771.37
640.373	9470.32
640.567	9429.36
640.76	9417.07
640.954	9361.78
641.147	9369.97
641.34	9144.69
641.534	9324.91
641.727	9118.07
641.92	9154.93
642.114	9126.26
642.307	9064.82
642.5	8952.18
642.694	9093.49
642.887	8788.35
643.08	9070.97
643.273	8733.05
643.467	8681.85
643.66	8673.66
643.853	8581.5
644.046	8737.15
644.239	8550.78
644.432	8581.5
644.626	8563.07
644.819	8339.84
645.012	8438.14
645.205	8382.85
645.398	8409.47
645.591	8098.18
645.784	8323.46
645.977	7958.92
646.17	8194.43
646.363	7938.44
646.556	7942.53
646.749	8143.24
646.942	7940.49
647.135	7952.77
647.328	7817.61
647.521	7815.56
647.714	7813.51
647.907	7924.1
648.099	7641.48
648.292	7578
648.485	7598.48
648.678	7694.73
648.871	7526.8
649.064	7518.61
649.256	7586.19
649.449	7442.83
649.642	7422.35
649.835	7405.97
650.027	7139.73
650.22	7238.03
650.413	7319.95
650.605	7244.18
650.798	7229.84
650.991	7109.01
651.183	7025.04
651.376	7049.62
651.568	7098.77
651.761	6916.5
651.954	6957.46
652.146	6953.37
652.339	7035.28
652.531	6687.13
652.724	6717.85
652.916	6441.37
653.109	6973.85
653.301	6715.8
653.494	6621.59
653.686	6615.45
653.879	6615.45
654.071	6445.47
654.263	6629.79
654.456	6590.88
654.648	6556.06
654.84	6187.43
655.033	6334.88
655.225	6367.65
655.417	6357.41
655.61	6410.65
655.802	6109.6
655.994	6224.29
656.186	6132.13
656.379	6212
656.571	6224.29
656.763	5994.92
656.955	6019.49
657.148	6111.65
657.34	6130.08
657.532	5984.68
657.724	5931.43
657.916	6025.64
658.108	5974.44
658.3	5943.72
658.492	5847.46
658.684	5716.39
658.876	5859.75
659.068	5675.43
659.26	5794.22
659.452	5812.65
659.644	5675.43
659.836	5564.84
660.028	5613.99
660.22	5476.78
660.412	5613.99
660.604	5427.63
660.796	5536.17
660.988	5540.27
661.18	5376.43
661.372	5464.49
661.563	5288.37
661.755	5470.64
661.947	5339.57
662.139	5218.74
662.331	5233.07
662.522	5069.23
662.714	5194.16
662.906	5130.67
663.097	5241.26
663.289	4985.27
663.481	5108.15
663.673	4958.64
663.864	4919.73
664.056	5054.9
664.247	4870.58
664.439	4846.01
664.631	4880.82
664.822	4870.58
665.014	4942.26
665.205	4876.73
665.397	4915.64
665.588	4848.05
665.78	4868.53
665.971	4807.09
666.163	4680.12
666.354	4780.47
666.546	4716.98
666.737	4680.12
666.929	4702.65
667.12	4577.72
667.311	4641.21
667.503	4544.95
667.694	4643.26
667.885	4532.67
668.077	4520.38
668.268	4506.04
668.459	4569.53
668.651	4407.74
668.842	4473.28
669.033	4288.96
669.224	4387.26
669.416	4389.31
669.607	4518.33
669.798	4422.08
669.989	4422.08
670.18	4540.86
670.371	4319.68
670.563	4084.16
670.754	4235.71
670.945	4352.45
671.136	4248
671.327	4248
671.518	4108.74
671.709	4202.94
671.9	4276.67
672.091	4223.42
672.282	4161.98
672.473	4141.5
672.664	4241.86
672.855	4069.83
673.046	4118.98
673.237	4084.16
673.428	4094.4
673.619	3963.33
673.809	4061.63
674	4010.43
674.191	4004.29
674.382	3924.42
674.573	4006.34
674.764	3895.75
674.954	3893.7
675.145	3842.5
675.336	3881.41
675.527	3809.73
675.717	3871.17
675.908	3803.59
676.099	3918.28
676.289	3717.58
676.48	3742.15
676.671	3707.34
676.861	3797.45
677.052	3762.63
677.243	3643.85
677.433	3678.66
677.624	3785.16
677.814	3580.36
678.005	3789.25
678.195	3787.21
678.386	3744.2
678.576	3588.55
678.767	3678.66
678.957	3727.82
679.148	3770.82
679.338	3635.66
679.529	3633.61
679.719	3580.36
679.909	3555.79
680.1	3606.98
680.29	3633.61
680.481	3527.11
680.671	3637.7
680.861	3688.9
681.052	3555.79
681.242	3578.31
681.432	3670.47
681.622	3633.61
681.813	3420.62
682.003	3496.39
682.193	3469.77
682.383	3486.15
682.573	3369.42
682.764	3514.83
682.954	3451.34
683.144	3459.53
683.334	3549.64
683.524	3381.71
683.714	3375.56
683.904	3287.5
684.094	3396.04
684.284	3424.72
684.474	3457.48
684.664	3428.81
684.854	3336.65
685.044	3385.8
685.234	3189.2
685.424	3412.43
685.614	3361.23
685.804	3305.93
685.994	3355.08
686.184	3346.89
686.374	3205.58
686.564	3244.49
686.753	3422.67
686.943	3127.76
687.133	3174.86
687.323	3164.62
687.513	3314.13
687.702	3238.35
687.892	3224.01
688.082	3211.73
688.272	3152.34
688.461	3185.1
688.651	3209.68
688.841	3119.57
689.03	3264.97
689.22	2968.02
689.41	3226.06
689.599	2980.31
689.789	3109.33
689.979	2931.16
690.168	3154.38
690.358	2816.47
690.547	3072.47
690.737	3125.71
690.926	3105.23
691.116	2920.92
691.305	3084.75
691.495	2908.63
691.684	3015.12
691.874	2767.32
692.063	2845.14
692.252	2894.29
692.442	2912.72
692.631	2906.58
692.82	2783.7
693.01	2869.72
693.199	2925.01
693.388	2800.09
693.578	2802.13
693.767	2972.11
693.956	2937.3
694.146	2742.74
694.335	2726.36
694.524	2714.07
694.713	2677.21
694.902	2791.89
695.092	2709.97
695.281	2787.8
695.47	2791.89
695.659	2712.02
695.848	2777.56
696.037	2709.97
696.226	2695.64
696.415	2812.37
696.604	2724.31
696.793	2605.53
696.982	2783.7
697.171	2703.83
697.36	2795.99
697.549	2703.83
697.738	2738.65
697.927	2691.54
698.116	2675.16
698.305	2738.65
698.494	2683.35
698.683	2703.83
698.872	2613.72
699.061	2722.26
699.25	2732.5
699.438	2632.15
699.627	2644.44
699.816	2726.36
700.005	2648.54
700.193	2720.21
700.382	2722.26
700.571	2623.96
700.76	2681.3
700.948	2642.39
701.137	2632.15
701.326	2750.93
701.514	2634.2
701.703	2720.21
701.892	2568.66
702.08	2742.74
702.269	2816.47
702.457	2724.31
702.646	2613.72
702.834	2640.34
703.023	2628.06
703.212	2671.06
703.4	2714.07
703.589	2578.9
703.777	2570.71
703.965	2527.71
704.154	2599.38
704.342	2607.58
704.531	2576.86
704.719	2490.84
704.907	2714.07
705.096	2689.49
705.284	2562.52
705.472	2617.82
705.661	2580.95
705.849	2687.45
706.037	2691.54
706.226	2673.11
706.414	2589.14
706.602	2695.64
706.79	2658.78
706.979	2603.48
707.167	2550.23
707.355	2517.47
707.543	2583
707.731	2722.26
707.919	2617.82
708.107	2537.95
708.296	2709.97
708.484	2433.5
708.672	2529.75
708.86	2537.95
709.048	2591.19
709.236	2607.58
709.424	2570.71
709.612	2707.93
709.8	2687.45
709.988	2642.39
710.176	2757.08
710.364	2591.19
710.551	2638.3
710.739	2501.08
710.927	2617.82
711.115	2664.92
711.303	2544.09
711.491	2656.73
711.679	2542.04
711.866	2589.14
712.054	2660.82
712.242	2484.7
712.43	2603.48
712.617	2505.18
712.805	2490.84
712.993	2750.93
713.181	2521.56
713.368	2621.91
713.556	2566.62
713.744	2441.69
713.931	2591.19
714.119	2574.81
714.306	2623.96
714.494	2574.81
714.682	2570.71
714.869	2709.97
715.057	2527.71
715.244	2568.66
715.432	2519.51
715.619	2552.28
715.807	2564.57
715.994	2650.58
716.182	2585.05
716.369	2447.83
716.556	2521.56
716.744	2511.32
716.931	2531.8
717.119	2613.72
717.306	2466.27
717.493	2652.63
717.681	2460.12
717.868	2585.05
718.055	2576.86
718.242	2607.58
718.43	2578.9
718.617	2630.1
718.804	2615.77
718.991	2470.36
719.179	2484.7
719.366	2406.88
719.553	2683.35
719.74	2363.87
719.927	2601.43
720.114	2599.38
720.301	2578.9
720.488	2544.09
720.676	2546.14
720.863	2509.27
721.05	2574.81
721.237	2548.19
721.424	2544.09
721.611	2511.32
721.798	2324.96
721.985	2478.55
722.172	2484.7
722.358	2546.14
722.545	2550.23
722.732	2507.23
722.919	2421.21
723.106	2566.62
723.293	2578.9
723.48	2552.28
723.667	2494.94
723.853	2615.77
724.04	2564.57
724.227	2578.9
724.414	2447.83
724.6	2589.14
724.787	2523.61
724.974	2542.04
725.161	2339.29
725.347	2445.79
725.534	2496.99
725.72	2496.99
725.907	2546.14
726.094	2521.56
726.28	2453.98
726.467	2490.84
726.653	2404.83
726.84	2511.32
727.027	2531.8
727.213	2449.88
727.4	2490.84
727.586	2474.46
727.773	2464.22
727.959	2550.23
728.145	2396.64
728.332	2496.99
728.518	2384.35
728.705	2515.42
728.891	2535.9
729.077	2433.5
729.264	2542.04
729.45	2531.8
729.636	2525.66
729.823	2394.59
730.009	2441.69
730.195	2511.32
730.382	2443.74
730.568	2427.35
730.754	2527.71
730.94	2503.13
731.126	2402.78
731.313	2449.88
731.499	2529.75
731.685	2554.33
731.871	2439.64
732.057	2415.07
732.243	2447.83
732.429	2464.22
732.615	2480.6
732.801	2331.1
732.987	2392.54
733.173	2486.75
733.359	2374.11
733.545	2298.33
733.731	2392.54
733.917	2505.18
734.103	2496.99
734.289	2456.03
734.475	2376.16
734.661	2451.93
734.847	2435.55
735.033	2464.22
735.219	2402.78
735.404	2429.4
735.59	2484.7
735.776	2402.78
735.962	2398.68
736.148	2378.2
736.333	2548.19
736.519	2533.85
736.705	2456.03
736.89	2349.53
737.076	2374.11
737.262	2374.11
737.447	2380.25
737.633	2349.53
737.819	2374.11
738.004	2300.38
738.19	2374.11
738.375	2470.36
738.561	2365.92
738.747	2423.26
738.932	2214.37
739.118	2355.68
739.303	2333.15
739.489	2347.48
739.674	2255.33
739.859	2367.96
740.045	2243.04
740.23	2435.55
740.416	2327
740.601	2339.29
740.786	2427.35
740.972	2218.46
741.157	2376.16
741.342	2210.27
741.528	2222.56
741.713	2277.85
741.898	2214.37
742.084	2236.89
742.269	2240.99
742.454	2191.84
742.639	2341.34
742.824	2232.8
743.01	2222.56
743.195	2195.93
743.38	2324.96
743.565	2273.76
743.75	2093.54
743.935	2177.5
744.12	2185.69
744.305	2175.45
744.49	2136.54
744.675	2087.39
744.86	2175.45
745.045	2073.06
745.23	2073.06
745.415	1984.99
745.6	2077.15
745.785	2021.86
745.97	1976.8
746.155	2013.67
746.34	1958.37
746.525	1987.04
746.71	1976.8
746.895	1931.75
747.079	1948.13
747.264	2007.52
747.449	1941.99
747.634	1901.03
747.819	2038.24
748.003	1903.07
748.188	2073.06
748.373	1892.84
748.557	1833.44
748.742	1980.9
748.927	1933.79
749.111	1898.98
749.296	1843.68
749.481	1872.36
749.665	1858.02
749.85	1845.73
750.034	1892.84
750.219	1710.57
750.404	1796.58
750.588	1853.92
750.773	1786.34
750.957	1724.9
751.141	1737.19
751.326	1753.57
751.51	1759.72
751.695	1769.96
751.879	1688.04
752.064	1700.33
752.248	1628.65
752.432	1694.18
752.617	1585.64
752.801	1735.14
752.985	1651.17
753.17	1706.47
753.354	1610.22
753.538	1573.35
753.722	1608.17
753.907	1552.87
754.091	1462.76
754.275	1599.98
754.459	1520.1
754.643	1530.34
754.828	1565.16
755.012	1581.54
755.196	1462.76
755.38	1442.28
755.564	1485.29
755.748	1513.96
755.932	1522.15
756.116	1429.99
756.3	1559.02
756.484	1487.34
756.668	1438.19
756.852	1425.9
757.036	1421.8
757.22	1417.71
757.404	1466.86
757.588	1331.69
757.772	1389.03
757.956	1292.78
758.14	1313.26
758.323	1405.42
758.507	1356.27
758.691	1354.22
758.875	1419.75
759.059	1341.93
759.242	1327.6
759.426	1278.44
759.61	1214.96
759.794	1321.45
759.977	1270.25
760.161	1272.3
760.345	1288.68
760.528	1237.49
760.712	1376.75
760.895	1171.95
761.079	1294.83
761.263	1266.16
761.446	1212.91
761.63	1163.76
761.813	1266.16
761.997	1206.77
762.18	1161.71
762.364	1274.35
762.547	1208.81
762.731	1239.53
762.914	1112.56
763.098	1219.05
763.281	1169.9
763.464	1141.23
763.648	1081.84
763.831	1169.9
764.015	1059.31
764.198	1122.8
764.381	1114.61
764.564	1126.89
764.748	1092.08
764.931	1116.65
765.114	1032.69
765.297	1118.7
765.481	1151.47
765.664	1085.94
765.847	1094.13
766.03	1126.89
766.213	1153.52
766.397	1106.42
766.58	1026.54
766.763	1104.37
766.946	1010.16
767.129	1120.75
767.312	977.39
767.495	1026.54
767.678	975.35
767.861	995.82
768.044	1122.8
768.227	1020.4
768.41	1036.78
768.593	1057.26
768.776	1042.93
768.959	1065.46
769.142	1036.78
769.324	1016.3
769.507	983.54
769.69	879.09
769.873	1001.97
770.056	1044.98
770.239	965.11
770.421	934.39
770.604	928.24
770.787	1018.35
770.97	1004.02
771.152	983.54
771.335	905.71
771.518	973.3
771.7	887.28
771.883	942.58
772.066	956.91
772.248	946.67
772.431	879.09
772.613	940.53
772.796	940.53
772.978	901.62
773.161	930.29
773.343	944.63
773.526	825.84
773.708	936.43
773.891	807.41
774.073	807.41
774.256	782.84
774.438	887.28
774.621	813.56
774.803	840.18
774.985	784.88
775.168	805.36
775.35	848.37
775.532	791.03
775.715	770.55
775.897	815.6
776.079	801.27
776.261	762.36
776.444	791.03
776.626	807.41
776.808	772.6
776.99	745.97
777.173	786.93
777.355	795.12
777.537	715.25
777.719	803.32
777.901	758.26
778.083	686.58
778.265	774.64
778.447	688.63
778.629	678.39
778.811	735.73
778.993	659.96
779.175	688.63
779.357	715.25
779.539	606.71
779.721	735.73
779.903	557.56
780.085	674.29
780.267	698.87
780.449	629.24
780.631	604.66
780.812	625.14
780.994	664.05
781.176	686.58
781.358	582.14
781.54	651.77
781.721	664.05
781.903	629.24
782.085	645.62
782.267	590.33
782.448	629.24
782.63	604.66
782.812	522.74
782.993	555.51
783.175	586.23
783.357	555.51
783.538	537.08
783.72	485.88
783.901	530.94
784.083	518.65
784.264	604.66
784.446	489.98
784.627	530.94
784.809	438.78
784.99	532.98
785.172	535.03
785.353	508.41
785.535	530.94
785.716	459.26
785.897	449.02
786.079	567.8
786.26	399.87
786.441	557.56
786.623	518.65
786.804	526.84
786.985	475.64
787.167	504.31
787.348	496.12
787.529	485.88
787.71	455.16
787.891	543.22
788.073	467.45
788.254	444.92
788.435	485.88
788.616	399.87
788.797	430.59
788.978	399.87
789.159	418.3
789.34	487.93
789.522	438.78
789.703	416.25
789.884	346.62
790.065	428.54
790.246	471.54
790.427	442.87
790.607	459.26
790.788	459.26
790.969	416.25
791.15	440.83
791.331	387.58
791.512	336.38
791.693	428.54
791.874	369.15
792.054	453.11
792.235	426.49
792.416	317.95
792.597	305.66
792.778	430.59
792.958	397.82
793.139	377.34
793.32	481.78
793.5	350.71
793.681	416.25
793.862	279.04
794.042	416.25
794.223	373.24
794.404	295.42
794.584	326.14
794.765	354.81
794.945	375.29
795.126	379.39
795.306	344.57
795.487	391.67
795.667	297.47
795.848	358.91
796.028	283.13
796.209	262.65
796.389	381.43
796.57	330.23
796.75	283.13
796.93	387.58
797.111	330.23
797.291	301.56
797.471	344.57
797.652	260.6
797.832	291.32
798.012	334.33
798.192	320
798.373	274.94
798.553	268.8
798.733	250.36
798.913	285.18
799.093	260.6
799.274	309.76
799.454	328.19
799.634	334.33
799.814	320
799.994	317.95
800.174	291.32
800.354	295.42
800.534	223.74
800.714	295.42
800.894	217.6
801.074	272.89
801.254	274.94
801.434	281.08
801.614	260.6
801.794	209.4
801.974	582.14
802.154	326.14
802.334	254.46
802.514	207.36
802.693	252.41
802.873	174.59
803.053	246.27
803.233	285.18
803.413	227.84
803.592	123.39
803.772	272.89
803.952	201.21
804.131	258.56
804.311	287.23
804.491	317.95
804.67	225.79
804.85	225.79
805.03	223.74
805.209	268.8
805.389	195.07
805.568	195.07
805.748	274.94
805.928	240.12
806.107	250.36
806.287	238.08
806.466	250.36
806.646	258.56
806.825	242.17
807.004	215.55
807.184	203.26
807.363	223.74
807.543	219.64
807.722	242.17
807.901	268.8
808.081	201.21
808.26	178.69
808.439	264.7
808.619	180.73
808.798	217.6
808.977	203.26
809.156	209.4
809.336	219.64
809.515	221.69
809.694	121.34
809.873	233.98
810.052	225.79
810.231	201.21
810.411	147.97
810.59	233.98
810.769	197.12
810.948	248.32
811.127	186.88
811.306	199.16
811.485	152.06
811.664	199.16
811.843	96.77
812.022	209.4
812.201	164.35
812.38	223.74
812.559	156.16
812.737	131.58
812.916	125.44
813.095	221.69
813.274	209.4
813.453	227.84
813.632	209.4
813.811	172.54
813.989	133.63
814.168	256.51
814.347	162.3
814.526	203.26
814.704	205.31
814.883	225.79
815.062	158.21
815.24	178.69
815.419	94.72
815.598	207.36
815.776	164.35
815.955	193.02
816.133	129.53
816.312	143.87
816.49	152.06
816.669	154.11
816.847	195.07
817.026	131.58
817.204	133.63
817.383	223.74
817.561	160.25
817.74	139.77
817.918	270.84
818.097	205.31
818.275	74.24
818.453	141.82
818.632	123.39
818.81	129.53
818.988	174.59
819.167	152.06
819.345	154.11
819.523	88.57
819.701	186.88
819.879	107.01
820.058	125.44
820.236	178.69
820.414	154.11
820.592	168.45
820.77	119.29
820.948	147.97
821.127	154.11
821.305	170.49
821.483	113.15
821.661	172.54
821.839	160.25
822.017	147.97
822.195	80.38
822.373	90.62
822.551	107.01
822.729	207.36
822.907	145.92
823.085	213.5
823.262	84.48
823.44	111.1
823.618	168.45
823.796	107.01
823.974	150.01
824.152	141.82
824.329	141.82
824.507	199.16
824.685	131.58
824.863	113.15
825.04	68.09
825.218	145.92
825.396	139.77
825.574	180.73
825.751	109.05
825.929	199.16
826.107	68.09
826.284	168.45
826.462	178.69
826.639	125.44
826.817	117.25
826.994	109.05
827.172	74.24
827.349	137.73
827.527	96.77
827.704	82.43
827.882	147.97
828.059	193.02
828.237	147.97
828.414	94.72
828.591	35.33
828.769	145.92
828.946	102.91
829.124	104.96
829.301	137.73
829.478	135.68
829.655	154.11
829.833	53.76
830.01	68.09
830.187	100.86
830.364	147.97
830.542	84.48
830.719	92.67
830.896	143.87
831.073	53.76
831.25	96.77
831.427	117.25
831.604	111.1
831.782	70.14
831.959	168.45
832.136	102.91
832.313	90.62
832.49	111.1
832.667	127.49
832.844	86.53
833.021	123.39
833.198	109.05
833.374	156.16
833.551	53.76
833.728	131.58
833.905	125.44
834.082	37.38
834.259	35.33
834.436	98.81
834.612	104.96
834.789	88.57
834.966	27.14
835.143	66.05
835.319	84.48
835.496	84.48
835.673	82.43
835.85	158.21
836.026	51.71
836.203	117.25
836.38	160.25
836.556	94.72
836.733	37.38
836.909	145.92
837.086	41.47
837.262	41.47
837.439	41.47
837.616	115.2
837.792	135.68
837.968	119.29
838.145	90.62
838.321	96.77
838.498	90.62
838.674	74.24
838.851	92.67
839.027	43.52
839.203	104.96
839.38	107.01
839.556	55.81
839.732	92.67
839.909	74.24
840.085	55.81
840.261	64
840.437	57.86
840.614	57.86
840.79	94.72
840.966	20.99
841.142	74.24
841.318	37.38
841.494	-5.63
841.671	72.19
841.847	27.14
842.023	147.97
842.199	119.29
842.375	66.05
842.551	55.81
842.727	47.62
842.903	113.15
843.079	41.47
843.255	96.77
843.431	55.81
843.607	43.52
843.783	-38.4
843.959	39.42
844.134	94.72
844.31	100.86
844.486	31.23
844.662	84.48
844.838	96.77
845.013	111.1
845.189	53.76
845.365	29.18
845.541	68.09
845.716	45.57
845.892	72.19
846.068	90.62
846.244	53.76
846.419	0.51
846.595	-1.54
846.77	12.8
846.946	72.19
847.122	55.81
847.297	100.86
847.473	84.48
847.648	27.14
847.824	111.1
847.999	37.38
848.175	53.76
848.35	135.68
848.526	90.62
848.701	96.77
848.876	96.77
849.052	6.66
849.227	66.05
849.403	27.14
849.578	90.62
849.753	98.81
849.929	64
850.104	-5.63
850.279	74.24
850.454	68.09
850.63	55.81
850.805	131.58
850.98	135.68
851.155	125.44
851.33	115.2
851.505	33.28
851.681	66.05
851.856	-32.26
852.031	45.57
852.206	94.72
852.381	127.49
852.556	102.91
852.731	-13.82
852.906	35.33
853.081	49.66
853.256	74.24
853.431	80.38
853.606	59.9
853.781	55.81
853.956	41.47
854.131	109.05
854.305	-11.78
854.48	33.28
854.655	12.8
854.83	47.62
855.005	-7.68
855.18	33.28
855.354	39.42
855.529	80.38
855.704	47.62
855.879	29.18
856.053	72.19
856.228	98.81
856.403	2.56
856.577	55.81
856.752	20.99
856.926	64
857.101	23.04
857.276	96.77
857.45	4.61
857.625	59.9
857.799	57.86
857.974	27.14
858.148	-5.63
858.323	102.91
858.497	57.86
858.672	43.52
858.846	18.94
859.02	51.71
859.195	10.75
859.369	33.28
859.543	-15.87
859.718	14.85
859.892	12.8
860.066	98.81
860.241	51.71
860.415	45.57
860.589	39.42
860.763	18.94
860.938	61.95
861.112	20.99
861.286	-5.63
861.46	98.81
861.634	16.9
861.808	78.33
861.982	82.43
862.157	14.85
862.331	-15.87
862.505	68.09
862.679	-15.87
862.853	70.14
863.027	23.04
863.201	115.2
863.375	80.38
863.549	70.14
863.722	12.8
863.896	20.99
864.07	14.85
864.244	102.91
864.418	98.81
864.592	33.28
864.766	-50.69
864.939	-52.74
865.113	-1.54
865.287	43.52
865.461	31.23
865.634	43.52
865.808	25.09
865.982	51.71
866.156	-3.58
866.329	86.53
866.503	-17.92
866.676	109.05
866.85	61.95
867.024	49.66
867.197	-13.82
867.371	43.52
867.544	45.57
867.718	82.43
867.891	23.04
868.065	78.33
868.238	47.62
868.412	-44.54
868.585	-15.87
868.759	27.14
868.932	82.43
869.105	64
869.279	16.9
869.452	18.94
869.625	49.66
869.799	12.8
869.972	-32.26
870.145	14.85
870.319	68.09
870.492	-32.26
870.665	-28.16
870.838	141.82
871.011	-46.59
871.185	-9.73
871.358	10.75
871.531	45.57
871.704	64
871.877	-30.21
872.05	74.24
872.223	53.76
872.396	23.04
872.569	18.94
872.742	47.62
872.915	23.04
873.088	37.38
873.261	0.51
873.434	72.19
873.607	29.18
873.78	-36.35
873.953	12.8
874.126	-11.78
874.299	23.04
874.471	-22.02
874.644	-34.3
874.817	-44.54
874.99	39.42
875.163	35.33
875.335	-54.78
875.508	-1.54
875.681	68.09
875.853	16.9
876.026	55.81
876.199	18.94
876.371	117.25
876.544	27.14
876.717	-5.63
876.889	12.8
877.062	25.09
877.234	94.72
877.407	43.52
877.579	0.51
877.752	39.42
877.924	156.16
878.097	25.09
878.269	14.85
878.442	-83.45
878.614	-58.88
878.786	139.77
878.959	-5.63
879.131	8.7
879.303	-54.78
879.476	31.23
879.648	25.09
879.82	10.75
879.993	55.81
880.165	-5.63
880.337	80.38
880.509	27.14
880.681	55.81
880.854	35.33
881.026	49.66
881.198	107.01
881.37	-17.92
881.542	10.75
881.714	14.85
881.886	100.86
882.058	-42.5
882.23	-22.02
882.402	18.94
882.574	47.62
882.746	4.61
882.918	80.38
883.09	-17.92
883.262	-60.93
883.434	29.18
883.606	4.61
883.778	-22.02
883.95	78.33
884.122	-24.06
884.293	-91.65
884.465	-5.63
884.637	25.09
884.809	-9.73
884.98	0.51
885.152	-9.73
885.324	90.62
885.496	14.85
885.667	10.75
885.839	25.09
886.011	76.29
886.182	57.86
886.354	76.29
886.525	4.61
886.697	16.9
886.869	35.33
887.04	27.14
887.212	43.52
887.383	53.76
887.555	53.76
887.726	57.86
887.897	0.51
888.069	23.04
888.24	23.04
888.412	29.18
888.583	31.23
888.754	4.61
888.926	-28.16
889.097	10.75
889.268	43.52
889.44	14.85
889.611	-24.06
889.782	-32.26
889.953	31.23
890.125	20.99
890.296	27.14
890.467	92.67
890.638	-44.54
890.809	86.53
890.98	-71.17
891.151	31.23
891.323	31.23
891.494	96.77
891.665	4.61
891.836	-5.63
892.007	29.18
892.178	23.04
892.349	14.85
892.52	29.18
892.691	25.09
892.862	23.04
893.032	-62.98
893.203	37.38
893.374	10.75
893.545	10.75
893.716	29.18
893.887	27.14
894.057	45.57
894.228	41.47
894.399	-19.97
894.57	102.91
894.74	25.09
894.911	-9.73
895.082	-11.78
895.253	-22.02
895.423	-17.92
895.594	102.91
895.764	35.33
895.935	0.51
896.106	14.85
896.276	16.9
896.447	41.47
896.617	-5.63
896.788	-11.78
896.958	-17.92
897.129	72.19
897.299	-3.58
897.47	29.18
897.64	59.9
897.81	4.61
897.981	51.71
898.151	-38.4
898.322	76.29
898.492	72.19
898.662	-34.3
898.832	-48.64
899.003	-3.58
899.173	111.1
899.343	-54.78
899.513	-30.21
