Data from USB4F104151__18__11-04-51-274.txt Node

Date: Wed Mar 12 11:04:51 EDT 2025
User: louis
Spectrometer: USB4F10415
Trigger mode: 4
Integration Time (sec): 2.000000E-2
Scans to average: 1
Electric dark correction enabled: true
Nonlinearity correction enabled: false
Boxcar width: 0
XAxis mode: Wavelengths
Number of Pixels in Spectrum: 3648
>>>>>Begin Spectral Data<<<<<
178.204	-32.26
178.424	-32.26
178.644	-32.26
178.864	-103.93
179.084	-48.64
179.304	-11.78
179.524	10.75
179.744	-19.97
179.964	37.38
180.184	-28.16
180.404	20.99
180.624	25.09
180.844	-30.21
181.064	43.52
181.283	-34.3
181.503	6.66
181.723	-19.97
181.943	-30.21
182.163	14.85
182.383	-11.78
182.602	43.52
182.822	-42.5
183.042	20.99
183.262	-30.21
183.482	-48.64
183.701	12.8
183.921	-71.17
184.141	-9.73
184.361	16.9
184.58	-1.54
184.8	-7.68
185.02	-42.5
185.239	20.99
185.459	8.7
185.679	23.04
185.898	-11.78
186.118	18.94
186.338	-24.06
186.557	25.09
186.777	16.9
186.997	20.99
187.216	6.66
187.436	49.66
187.655	-17.92
187.875	-19.97
188.095	12.8
188.314	16.9
188.534	90.62
188.753	-36.35
188.973	6.66
189.192	-7.68
189.412	23.04
189.631	-22.02
189.851	-3.58
190.07	78.33
190.29	-71.17
190.509	-17.92
190.729	-58.88
190.948	35.33
191.168	80.38
191.387	-36.35
191.607	-5.63
191.826	-15.87
192.045	-24.06
192.265	43.52
192.484	66.05
192.704	-38.4
192.923	-11.78
193.142	102.91
193.362	61.95
193.581	4.61
193.8	47.62
194.02	16.9
194.239	2.56
194.458	2.56
194.678	-17.92
194.897	33.28
195.116	6.66
195.335	47.62
195.555	-5.63
195.774	14.85
195.993	-60.93
196.212	-24.06
196.432	-44.54
196.651	27.14
196.87	-58.88
197.089	55.81
197.308	57.86
197.528	33.28
197.747	-44.54
197.966	-1.54
198.185	20.99
198.404	-85.5
198.623	-22.02
198.842	78.33
199.062	31.23
199.281	109.05
199.5	-17.92
199.719	29.18
199.938	-7.68
200.157	33.28
200.376	-1.54
200.595	23.04
200.814	29.18
201.033	-28.16
201.252	10.75
201.471	31.23
201.69	-1.54
201.909	31.23
202.128	57.86
202.347	59.9
202.566	10.75
202.785	61.95
203.004	-26.11
203.223	47.62
203.442	-1.54
203.661	27.14
203.879	-69.12
204.098	29.18
204.317	-24.06
204.536	6.66
204.755	39.42
204.974	31.23
205.193	8.7
205.411	16.9
205.63	6.66
205.849	41.47
206.068	-24.06
206.287	-50.69
206.505	47.62
206.724	-77.31
206.943	2.56
207.162	16.9
207.381	-44.54
207.599	-11.78
207.818	-17.92
208.037	31.23
208.255	-36.35
208.474	29.18
208.693	23.04
208.911	33.28
209.13	-1.54
209.349	12.8
209.567	14.85
209.786	107.01
210.005	23.04
210.223	-38.4
210.442	-7.68
210.661	-15.87
210.879	-13.82
211.098	4.61
211.316	47.62
211.535	14.85
211.753	-52.74
211.972	45.57
212.191	37.38
212.409	20.99
212.628	16.9
212.846	-56.83
213.065	-40.45
213.283	74.24
213.502	12.8
213.72	39.42
213.938	66.05
214.157	-9.73
214.375	33.28
214.594	-9.73
214.812	-7.68
215.031	6.66
215.249	8.7
215.467	-22.02
215.686	-11.78
215.904	92.67
216.122	53.76
216.341	-13.82
216.559	-7.68
216.778	31.23
216.996	39.42
217.214	-15.87
217.432	31.23
217.651	-42.5
217.869	-34.3
218.087	80.38
218.306	37.38
218.524	59.9
218.742	-42.5
218.96	2.56
219.179	86.53
219.397	10.75
219.615	51.71
219.833	92.67
220.051	-54.78
220.27	55.81
220.488	14.85
220.706	68.09
220.924	18.94
221.142	-60.93
221.36	-17.92
221.578	-52.74
221.796	55.81
222.015	-34.3
222.233	-15.87
222.451	76.29
222.669	-3.58
222.887	68.09
223.105	55.81
223.323	92.67
223.541	-13.82
223.759	72.19
223.977	29.18
224.195	64
224.413	29.18
224.631	25.09
224.849	27.14
225.067	27.14
225.285	37.38
225.503	-38.4
225.721	-7.68
225.939	-50.69
226.157	27.14
226.375	111.1
226.592	-11.78
226.81	6.66
227.028	-24.06
227.246	86.53
227.464	57.86
227.682	41.47
227.9	6.66
228.117	-36.35
228.335	-15.87
228.553	61.95
228.771	-1.54
228.989	76.29
229.206	-7.68
229.424	-40.45
229.642	2.56
229.86	-24.06
230.077	86.53
230.295	2.56
230.513	55.81
230.731	68.09
230.948	59.9
231.166	100.86
231.384	27.14
231.601	43.52
231.819	66.05
232.037	47.62
232.254	14.85
232.472	-5.63
232.689	10.75
232.907	80.38
233.125	8.7
233.342	2.56
233.56	-17.92
233.777	68.09
233.995	55.81
234.213	68.09
234.43	-1.54
234.648	-26.11
234.865	-13.82
235.083	96.77
235.3	55.81
235.518	27.14
235.735	2.56
235.953	29.18
236.17	18.94
236.388	88.57
236.605	-34.3
236.822	55.81
237.04	-1.54
237.257	-11.78
237.475	25.09
237.692	64
237.909	6.66
238.127	74.24
238.344	23.04
238.562	-11.78
238.779	23.04
238.996	-7.68
239.214	-22.02
239.431	29.18
239.648	31.23
239.865	43.52
240.083	-3.58
240.3	57.86
240.517	4.61
240.735	12.8
240.952	49.66
241.169	59.9
241.386	35.33
241.603	39.42
241.821	-9.73
242.038	8.7
242.255	27.14
242.472	2.56
242.689	-3.58
242.907	49.66
243.124	-26.11
243.341	102.91
243.558	-17.92
243.775	74.24
243.992	-9.73
244.209	41.47
244.426	55.81
244.643	55.81
244.86	-13.82
245.078	45.57
245.295	18.94
245.512	29.18
245.729	-15.87
245.946	2.56
246.163	53.76
246.38	-54.78
246.597	-50.69
246.814	31.23
247.031	-19.97
247.248	76.29
247.464	55.81
247.681	53.76
247.898	20.99
248.115	31.23
248.332	-17.92
248.549	80.38
248.766	-11.78
248.983	78.33
249.2	-7.68
249.417	55.81
249.633	-91.65
249.85	31.23
250.067	12.8
250.284	20.99
250.501	-22.02
250.717	55.81
250.934	-44.54
251.151	33.28
251.368	55.81
251.585	-34.3
251.801	-26.11
252.018	29.18
252.235	49.66
252.451	16.9
252.668	35.33
252.885	53.76
253.102	8.7
253.318	16.9
253.535	64
253.752	-19.97
253.968	29.18
254.185	43.52
254.401	8.7
254.618	27.14
254.835	-7.68
255.051	31.23
255.268	-7.68
255.484	-5.63
255.701	-85.5
255.917	12.8
256.134	4.61
256.351	14.85
256.567	25.09
256.784	27.14
257	-22.02
257.217	8.7
257.433	-15.87
257.65	23.04
257.866	39.42
258.082	-30.21
258.299	29.18
258.515	-73.21
258.732	39.42
258.948	10.75
259.165	-7.68
259.381	10.75
259.597	72.19
259.814	74.24
260.03	-11.78
260.246	20.99
260.463	31.23
260.679	82.43
260.895	12.8
261.112	43.52
261.328	27.14
261.544	23.04
261.761	53.76
261.977	43.52
262.193	-46.59
262.409	70.14
262.626	-34.3
262.842	33.28
263.058	-5.63
263.274	64
263.49	39.42
263.707	43.52
263.923	8.7
264.139	45.57
264.355	10.75
264.571	76.29
264.787	-13.82
265.004	-5.63
265.22	-32.26
265.436	2.56
265.652	27.14
265.868	-30.21
266.084	8.7
266.3	33.28
266.516	27.14
266.732	10.75
266.948	-30.21
267.164	66.05
267.38	-52.74
267.596	-26.11
267.812	-26.11
268.028	25.09
268.244	-44.54
268.46	0.51
268.676	-26.11
268.892	2.56
269.108	4.61
269.324	14.85
269.54	4.61
269.756	-15.87
269.972	-13.82
270.188	31.23
270.403	27.14
270.619	39.42
270.835	-58.88
271.051	-5.63
271.267	-22.02
271.483	35.33
271.698	27.14
271.914	-17.92
272.13	-32.26
272.346	-19.97
272.562	33.28
272.777	43.52
272.993	61.95
273.209	-5.63
273.425	-7.68
273.64	-36.35
273.856	8.7
274.072	25.09
274.287	-7.68
274.503	45.57
274.719	2.56
274.934	-7.68
275.15	74.24
275.366	29.18
275.581	-32.26
275.797	-36.35
276.012	84.48
276.228	-62.98
276.444	39.42
276.659	-19.97
276.875	61.95
277.09	-22.02
277.306	-1.54
277.521	35.33
277.737	8.7
277.952	-19.97
278.168	16.9
278.383	49.66
278.599	12.8
278.814	51.71
279.03	-69.12
279.245	98.81
279.461	8.7
279.676	31.23
279.892	-30.21
280.107	10.75
280.322	-71.17
280.538	0.51
280.753	2.56
280.969	4.61
281.184	-1.54
281.399	27.14
281.615	-58.88
281.83	37.38
282.045	43.52
282.26	18.94
282.476	-1.54
282.691	74.24
282.906	86.53
283.122	-22.02
283.337	14.85
283.552	35.33
283.767	-13.82
283.983	20.99
284.198	-85.5
284.413	-22.02
284.628	-75.26
284.843	-22.02
285.058	51.71
285.274	18.94
285.489	-54.78
285.704	72.19
285.919	-1.54
286.134	10.75
286.349	16.9
286.564	20.99
286.779	43.52
286.995	59.9
287.21	20.99
287.425	27.14
287.64	0.51
287.855	12.8
288.07	-69.12
288.285	70.14
288.5	82.43
288.715	70.14
288.93	10.75
289.145	23.04
289.36	-15.87
289.575	23.04
289.79	39.42
290.004	-34.3
290.219	-60.93
290.434	-48.64
290.649	47.62
290.864	61.95
291.079	-11.78
291.294	35.33
291.509	25.09
291.724	-38.4
291.938	25.09
292.153	74.24
292.368	18.94
292.583	16.9
292.798	8.7
293.012	-17.92
293.227	-30.21
293.442	43.52
293.657	64
293.871	55.81
294.086	-17.92
294.301	14.85
294.516	145.92
294.73	-5.63
294.945	18.94
295.16	45.57
295.374	-19.97
295.589	61.95
295.804	-58.88
296.018	-17.92
296.233	18.94
296.447	10.75
296.662	-30.21
296.877	59.9
297.091	43.52
297.306	35.33
297.52	6.66
297.735	-11.78
297.949	59.9
298.164	20.99
298.378	14.85
298.593	-5.63
298.807	23.04
299.022	4.61
299.236	53.76
299.451	-22.02
299.665	-79.36
299.88	76.29
300.094	-79.36
300.309	41.47
300.523	-52.74
300.737	23.04
300.952	-3.58
301.166	31.23
301.381	72.19
301.595	78.33
301.809	0.51
302.024	45.57
302.238	-9.73
302.452	18.94
302.667	37.38
302.881	14.85
303.095	59.9
303.309	55.81
303.524	-32.26
303.738	76.29
303.952	-50.69
304.166	104.96
304.381	-73.21
304.595	-17.92
304.809	20.99
305.023	-22.02
305.237	-3.58
305.452	0.51
305.666	-22.02
305.88	14.85
306.094	-11.78
306.308	78.33
306.522	68.09
306.736	53.76
306.95	8.7
307.164	8.7
307.379	64
307.593	104.96
307.807	-34.3
308.021	55.81
308.235	18.94
308.449	-97.79
308.663	23.04
308.877	10.75
309.091	29.18
309.305	72.19
309.519	16.9
309.733	53.76
309.947	51.71
310.161	8.7
310.374	-13.82
310.588	59.9
310.802	23.04
311.016	84.48
311.23	-46.59
311.444	43.52
311.658	-67.07
311.872	0.51
312.085	4.61
312.299	41.47
312.513	74.24
312.727	31.23
312.941	43.52
313.154	27.14
313.368	70.14
313.582	12.8
313.796	12.8
314.009	-11.78
314.223	94.72
314.437	10.75
314.651	-46.59
314.864	70.14
315.078	70.14
315.292	18.94
315.505	-11.78
315.719	14.85
315.933	27.14
316.146	14.85
316.36	31.23
316.573	51.71
316.787	-5.63
317.001	-36.35
317.214	29.18
317.428	12.8
317.641	-15.87
317.855	31.23
318.068	59.9
318.282	39.42
318.495	12.8
318.709	68.09
318.922	39.42
319.136	94.72
319.349	-9.73
319.563	55.81
319.776	-32.26
319.99	-71.17
320.203	-1.54
320.417	68.09
320.63	41.47
320.843	86.53
321.057	35.33
321.27	-15.87
321.483	-17.92
321.697	88.57
321.91	-17.92
322.124	115.2
322.337	-28.16
322.55	59.9
322.763	-7.68
322.977	59.9
323.19	37.38
323.403	14.85
323.617	14.85
323.83	43.52
324.043	31.23
324.256	4.61
324.469	4.61
324.683	78.33
324.896	8.7
325.109	102.91
325.322	-19.97
325.535	14.85
325.748	53.76
325.962	76.29
326.175	25.09
326.388	43.52
326.601	61.95
326.814	6.66
327.027	-9.73
327.24	90.62
327.453	49.66
327.666	39.42
327.879	-17.92
328.092	70.14
328.305	66.05
328.518	59.9
328.731	16.9
328.944	-17.92
329.157	29.18
329.37	-34.3
329.583	64
329.796	78.33
330.009	-17.92
330.222	39.42
330.435	23.04
330.648	10.75
330.861	-11.78
331.073	4.61
331.286	8.7
331.499	-9.73
331.712	78.33
331.925	-13.82
332.138	-15.87
332.35	33.28
332.563	-48.64
332.776	70.14
332.989	117.25
333.202	51.71
333.414	-50.69
333.627	51.71
333.84	6.66
334.053	6.66
334.265	6.66
334.478	-36.35
334.691	74.24
334.903	84.48
335.116	-3.58
335.329	37.38
335.541	10.75
335.754	68.09
335.966	-48.64
336.179	10.75
336.392	61.95
336.604	6.66
336.817	-75.26
337.029	43.52
337.242	109.05
337.454	82.43
337.667	82.43
337.88	61.95
338.092	104.96
338.305	-9.73
338.517	29.18
338.729	55.81
338.942	-52.74
339.154	61.95
339.367	-42.5
339.579	16.9
339.792	-15.87
340.004	78.33
340.217	20.99
340.429	-34.3
340.641	55.81
340.854	51.71
341.066	-7.68
341.278	6.66
341.491	92.67
341.703	66.05
341.915	-28.16
342.128	76.29
342.34	49.66
342.552	37.38
342.764	49.66
342.977	-30.21
343.189	-1.54
343.401	53.76
343.613	39.42
343.826	41.47
344.038	31.23
344.25	-5.63
344.462	37.38
344.674	8.7
344.886	2.56
345.099	43.52
345.311	43.52
345.523	-17.92
345.735	10.75
345.947	-17.92
346.159	10.75
346.371	80.38
346.583	6.66
346.795	4.61
347.007	-15.87
347.219	27.14
347.431	8.7
347.643	37.38
347.855	2.56
348.067	74.24
348.279	41.47
348.491	6.66
348.703	25.09
348.915	59.9
349.127	64
349.339	66.05
349.551	49.66
349.763	86.53
349.975	16.9
350.187	31.23
350.399	10.75
350.61	-58.88
350.822	61.95
351.034	82.43
351.246	-36.35
351.458	64
351.669	37.38
351.881	-58.88
352.093	-11.78
352.305	66.05
352.517	72.19
352.728	27.14
352.94	10.75
353.152	10.75
353.363	-3.58
353.575	4.61
353.787	8.7
353.999	55.81
354.21	78.33
354.422	2.56
354.633	18.94
354.845	-46.59
355.057	-9.73
355.268	47.62
355.48	31.23
355.692	23.04
355.903	-3.58
356.115	20.99
356.326	-13.82
356.538	86.53
356.749	-69.12
356.961	51.71
357.172	53.76
357.384	20.99
357.595	98.81
357.807	4.61
358.018	-13.82
358.23	0.51
358.441	-30.21
358.653	51.71
358.864	59.9
359.075	-1.54
359.287	10.75
359.498	35.33
359.709	-32.26
359.921	-19.97
360.132	23.04
360.344	4.61
360.555	31.23
360.766	25.09
360.977	45.57
361.189	-77.31
361.4	70.14
361.611	100.86
361.823	29.18
362.034	70.14
362.245	-79.36
362.456	49.66
362.667	-1.54
362.879	12.8
363.09	70.14
363.301	6.66
363.512	-3.58
363.723	72.19
363.935	39.42
364.146	59.9
364.357	25.09
364.568	18.94
364.779	-24.06
364.99	92.67
365.201	-24.06
365.412	-3.58
365.623	-26.11
365.834	-5.63
366.045	2.56
366.256	66.05
366.467	35.33
366.678	92.67
366.889	4.61
367.1	49.66
367.311	51.71
367.522	0.51
367.733	25.09
367.944	33.28
368.155	64
368.366	51.71
368.577	41.47
368.788	68.09
368.999	2.56
369.209	57.86
369.42	70.14
369.631	66.05
369.842	6.66
370.053	-46.59
370.264	-22.02
370.474	-9.73
370.685	-36.35
370.896	14.85
371.107	-1.54
371.317	84.48
371.528	-22.02
371.739	143.87
371.95	14.85
372.16	43.52
372.371	2.56
372.582	-28.16
372.792	53.76
373.003	12.8
373.214	27.14
373.424	80.38
373.635	33.28
373.846	-19.97
374.056	-26.11
374.267	41.47
374.477	133.63
374.688	2.56
374.898	64
375.109	47.62
375.319	39.42
375.53	-13.82
375.74	80.38
375.951	12.8
376.161	43.52
376.372	-7.68
376.582	29.18
376.793	-60.93
377.003	47.62
377.214	64
377.424	-15.87
377.635	27.14
377.845	49.66
378.055	117.25
378.266	-9.73
378.476	-9.73
378.686	53.76
378.897	-22.02
379.107	37.38
379.317	49.66
379.528	-13.82
379.738	41.47
379.948	39.42
380.158	23.04
380.369	-1.54
380.579	51.71
380.789	12.8
380.999	57.86
381.21	94.72
381.42	84.48
381.63	-44.54
381.84	-5.63
382.05	-5.63
382.261	29.18
382.471	27.14
382.681	59.9
382.891	-30.21
383.101	14.85
383.311	-7.68
383.521	2.56
383.731	27.14
383.941	90.62
384.151	8.7
384.361	-56.83
384.571	25.09
384.781	61.95
384.991	27.14
385.201	-15.87
385.411	-9.73
385.621	16.9
385.831	27.14
386.041	14.85
386.251	10.75
386.461	143.87
386.671	31.23
386.881	20.99
387.091	51.71
387.301	37.38
387.511	27.14
387.72	72.19
387.93	61.95
388.14	51.71
388.35	74.24
388.56	-11.78
388.769	33.28
388.979	47.62
389.189	0.51
389.399	90.62
389.609	70.14
389.818	-11.78
390.028	59.9
390.238	45.57
390.447	70.14
390.657	27.14
390.867	18.94
391.076	12.8
391.286	27.14
391.496	6.66
391.705	4.61
391.915	27.14
392.125	80.38
392.334	20.99
392.544	8.7
392.753	25.09
392.963	23.04
393.172	33.28
393.382	-22.02
393.591	160.25
393.801	-1.54
394.01	45.57
394.22	59.9
394.429	61.95
394.639	55.81
394.848	49.66
395.058	12.8
395.267	16.9
395.477	18.94
395.686	78.33
395.895	96.77
396.105	70.14
396.314	31.23
396.524	4.61
396.733	35.33
396.942	45.57
397.152	4.61
397.361	39.42
397.57	18.94
397.78	14.85
397.989	145.92
398.198	137.73
398.407	68.09
398.617	-11.78
398.826	12.8
399.035	88.57
399.244	70.14
399.453	121.34
399.663	145.92
399.872	53.76
400.081	41.47
400.29	20.99
400.499	55.81
400.708	14.85
400.917	55.81
401.127	25.09
401.336	43.52
401.545	139.77
401.754	139.77
401.963	107.01
402.172	102.91
402.381	27.14
402.59	74.24
402.799	39.42
403.008	49.66
403.217	51.71
403.426	80.38
403.635	57.86
403.844	113.15
404.053	37.38
404.262	64
404.471	84.48
404.68	80.38
404.888	70.14
405.097	125.44
405.306	147.97
405.515	174.59
405.724	115.2
405.933	23.04
406.142	98.81
406.35	145.92
406.559	135.68
406.768	117.25
406.977	170.49
407.185	139.77
407.394	162.3
407.603	104.96
407.812	176.64
408.02	170.49
408.229	137.73
408.438	84.48
408.646	143.87
408.855	129.53
409.064	174.59
409.272	240.12
409.481	215.55
409.69	182.78
409.898	236.03
410.107	166.4
410.315	207.36
410.524	215.55
410.733	104.96
410.941	150.01
411.15	240.12
411.358	254.46
411.567	283.13
411.775	248.32
411.984	254.46
412.192	309.76
412.401	227.84
412.609	391.67
412.818	297.47
413.026	330.23
413.234	324.09
413.443	268.8
413.651	326.14
413.86	387.58
414.068	379.39
414.276	467.45
414.485	387.58
414.693	449.02
414.901	489.98
415.11	436.73
415.318	449.02
415.526	561.66
415.734	514.55
415.943	512.5
416.151	645.62
416.359	463.35
416.567	537.08
416.776	596.47
416.984	575.99
417.192	553.46
417.4	664.05
417.608	563.7
417.817	713.21
418.025	723.44
418.233	813.56
418.441	709.11
418.649	803.32
418.857	817.65
419.065	868.85
419.273	754.16
419.481	813.56
419.689	934.39
419.897	1038.83
420.105	1030.64
420.313	1038.83
420.521	1077.74
420.729	1124.85
420.937	1190.38
421.145	1219.05
421.353	1239.53
421.561	1288.68
421.769	1329.64
421.977	1368.56
422.185	1251.82
422.393	1399.27
422.601	1528.3
422.809	1565.16
423.017	1536.49
423.224	1591.78
423.432	1618.41
423.64	1642.98
423.848	1862.12
424.056	1718.76
424.263	1849.83
424.471	1905.12
424.679	1919.46
424.887	2036.19
425.094	2087.39
425.302	2120.16
425.51	2159.07
425.718	2230.75
425.925	2286.05
426.133	2304.48
426.341	2443.74
426.548	2505.18
426.756	2599.38
426.964	2652.63
427.171	2742.74
427.379	2802.13
427.586	2929.11
427.794	3013.07
428.001	3140.05
428.209	3355.08
428.417	3277.26
428.624	3463.63
428.832	3545.55
429.039	3412.43
429.247	3418.57
429.454	3686.86
429.662	3969.48
429.869	3697.1
430.076	4063.68
430.284	4057.54
430.491	4045.25
430.699	4354.49
430.906	4288.96
431.114	4557.24
431.321	4649.4
431.528	4626.87
431.736	4889.01
431.943	5099.95
432.15	5011.89
432.358	4997.56
432.565	5308.85
432.772	5228.98
432.979	5611.95
433.187	5638.57
433.394	5792.17
433.601	5949.86
433.808	6105.51
434.016	6175.14
434.223	6191.52
434.43	6664.6
434.637	6664.6
434.844	7123.35
435.052	7154.07
435.259	7090.58
435.466	7223.7
435.673	7068.05
435.88	7367.06
436.087	7954.82
436.294	7967.11
436.501	7737.74
436.708	7641.48
436.915	8436.1
437.122	8526.21
437.329	8530.3
437.537	8900.98
437.743	8845.69
437.95	8761.72
438.157	9275.76
438.364	9728.36
438.571	9613.68
438.778	9707.88
438.985	10424.67
439.192	10230.12
439.399	10504.54
439.606	10125.67
439.813	10914.14
440.02	11618.64
440.227	11305.3
440.433	11288.92
440.64	11788.62
440.847	11403.6
441.054	11733.32
441.261	12595.52
441.467	12511.55
441.674	12894.52
441.881	13252.92
442.088	13107.51
442.294	13031.74
442.501	13207.86
442.708	13738.29
442.914	14303.53
443.121	14893.34
443.328	14373.16
443.534	15321.37
443.741	14864.67
443.948	14782.75
444.154	15974.67
444.361	15792.4
444.568	15829.26
444.774	15776.02
444.981	16171.27
445.187	16838.91
445.394	17252.6
445.6	16929.02
445.807	18632.93
446.013	17871.09
446.22	18098.41
446.426	18815.2
446.633	18860.26
446.839	19775.7
447.046	19020
447.252	19960.02
447.459	19912.91
447.665	19839.19
447.871	20486.34
448.078	21321.91
448.284	20558.02
448.491	21057.73
448.697	21889.2
448.903	22349.99
449.11	22479.02
449.316	21895.35
449.522	22280.36
449.728	22810.79
449.935	22958.24
450.141	23111.84
450.347	23314.59
450.553	22810.79
450.76	22876.32
450.966	23713.94
451.172	23720.09
451.378	23953.55
451.584	23629.98
451.791	24203.41
451.997	24170.64
452.203	24563.85
452.409	24154.26
452.615	24457.35
452.821	23271.58
453.027	22925.47
453.233	24010.9
453.44	23306.4
453.646	23505.05
453.852	23675.03
454.058	23969.94
454.264	22880.42
454.47	23531.67
454.676	23128.22
454.882	23943.31
455.088	21498.04
455.294	22110.38
455.5	22096.05
455.705	22098.09
455.911	21577.91
456.117	21248.19
456.323	20660.42
456.529	19736.79
456.735	20394.18
456.941	19874
457.147	19732.69
457.352	18768.1
457.558	18858.21
457.764	18735.33
457.97	18389.22
458.176	18106.6
458.381	17877.23
458.587	17053.95
458.793	16980.22
458.999	15982.86
459.204	17246.46
459.41	16681.22
459.616	15638.8
459.821	15702.29
460.027	15563.03
460.233	15333.65
460.438	14422.31
460.644	14496.03
460.85	13926.7
461.055	13873.45
461.261	13527.35
461.466	12669.25
461.672	12409.15
461.878	13191.48
462.083	12337.48
462.289	12050.76
462.494	11927.88
462.7	11684.17
462.905	11376.98
463.111	11645.26
463.316	11565.39
463.522	11389.27
463.727	11487.57
463.932	11286.87
464.138	11125.08
464.343	11331.92
464.549	11006.3
464.754	11508.05
464.959	11379.03
465.165	11043.16
465.37	10889.56
465.575	10400.1
465.781	11018.58
465.986	11090.26
466.191	10457.44
466.397	10594.65
466.602	9847.15
466.807	10283.36
467.012	10213.73
467.218	10273.12
467.423	10074.47
467.628	10162.53
467.833	10641.76
468.038	10289.51
468.244	9886.06
468.449	10162.53
468.654	9699.69
468.859	10123.62
469.064	9746.8
469.269	9687.4
469.474	9279.86
469.679	9636.2
469.885	9351.54
470.09	9378.16
470.295	9359.73
470.5	9175.41
470.705	9120.12
470.91	9159.03
471.115	9025.91
471.32	9161.08
471.525	9118.07
471.73	8812.92
471.935	8913.27
472.139	8575.36
472.344	8458.62
472.549	8456.57
472.754	8241.54
472.959	8249.73
473.164	8067.46
473.369	8108.42
473.574	8124.8
473.778	8204.67
473.983	7975.3
474.188	7944.58
474.393	7651.72
474.598	7782.79
474.802	7631.24
475.007	7655.82
475.212	7707.02
475.417	7401.87
475.621	7268.75
475.826	7422.35
476.031	7162.26
476.235	7270.8
476.44	7149.97
476.645	6986.13
476.849	6896.02
477.054	6988.18
477.259	6957.46
477.463	6936.98
477.668	6707.61
477.872	6767
478.077	6646.17
478.282	6398.37
478.486	6629.79
478.691	6447.52
478.895	6410.65
479.1	6504.86
479.304	6394.27
479.509	6070.69
479.713	6359.45
479.918	6117.79
480.122	6173.09
480.326	6009.25
480.531	6197.67
480.735	5898.66
480.94	6052.26
481.144	6214.05
481.348	6011.3
481.553	6134.18
481.757	6076.84
481.961	5853.61
482.166	6144.42
482.37	6089.12
482.574	5945.77
482.778	6003.11
482.983	6115.75
483.187	6103.46
483.391	5982.63
483.595	5964.2
483.8	5824.94
484.004	5781.93
484.208	5958.05
484.412	5839.27
484.616	6056.36
484.821	5972.39
485.025	5769.64
485.229	5921.19
485.433	5880.23
485.637	6250.91
485.841	5857.7
486.045	5843.37
486.249	5962.15
486.453	6123.94
486.657	6015.4
486.861	6052.26
487.065	5702.06
487.269	5847.46
487.473	5910.95
487.677	5960.1
487.881	6082.98
488.085	6031.78
488.289	5927.33
488.493	6023.59
488.697	5958.05
488.901	6011.3
489.105	5972.39
489.309	6056.36
489.512	6048.16
489.716	5988.77
489.92	6021.54
490.124	5880.23
490.328	6125.99
490.531	6101.41
490.735	6134.18
490.939	6349.22
491.143	6044.07
491.346	6158.75
491.55	6267.3
491.754	6205.86
491.958	6367.65
492.161	6074.79
492.365	6181.28
492.569	6431.13
492.772	6420.89
492.976	6381.98
493.18	6459.81
493.383	6449.57
493.587	6513.05
493.79	6680.99
493.994	6324.64
494.197	6529.44
494.401	6678.94
494.605	6719.9
494.808	6691.23
495.012	6863.26
495.215	6861.21
495.419	6959.51
495.622	6885.78
495.825	6842.78
496.029	7016.85
496.232	7008.66
496.436	7047.57
496.639	7129.49
496.843	7317.9
497.046	7399.82
497.249	7571.85
497.453	7496.08
497.656	7506.32
497.859	7639.44
498.063	7618.96
498.266	7897.48
498.469	7899.53
498.673	7899.53
498.876	7801.22
499.079	8167.81
499.282	8300.93
499.485	8399.23
499.689	8409.47
499.892	8528.25
500.095	8438.14
500.298	8653.18
500.501	8706.43
500.705	8735.1
500.908	9044.34
501.111	9017.72
501.314	9148.79
501.517	9177.46
501.72	9382.26
501.923	9269.62
502.126	9834.86
502.329	9730.41
502.532	9673.07
502.735	9742.7
502.938	9855.34
503.141	10035.56
503.344	10516.83
503.547	10217.83
503.75	10484.06
503.953	10649.95
504.156	10619.23
504.359	10828.12
504.562	10608.99
504.765	11071.83
504.968	11129.17
505.17	11200.85
505.373	11194.71
505.576	11561.3
505.779	11581.78
505.982	11686.22
506.185	11856.2
506.387	11952.46
506.59	12069.19
506.793	12302.66
506.996	12218.69
507.198	12513.6
507.401	12384.58
507.604	12738.88
507.807	12941.63
508.009	13066.55
508.212	12876.09
508.415	13297.97
508.617	13523.25
508.82	13642.03
509.022	13396.28
509.225	13834.54
509.428	13879.6
509.63	13943.08
509.833	14319.91
510.035	14467.36
510.238	14487.84
510.44	14623.01
510.643	14817.57
510.845	14967.07
511.048	14952.73
511.25	15444.24
511.453	15298.84
511.655	15821.07
511.858	15755.54
512.06	15790.35
512.262	15763.73
512.465	16048.4
512.667	16261.38
512.87	16673.03
513.072	16597.25
513.274	16892.16
513.477	16888.06
513.679	17207.55
513.881	17424.63
514.084	17473.78
514.286	17371.38
514.488	17598.71
514.69	18239.72
514.893	18215.15
515.095	18235.63
515.297	18637.03
515.499	18579.68
515.701	19030.24
515.904	18952.41
516.106	19306.71
516.308	19423.45
516.51	19583.19
516.712	19732.69
516.914	19871.95
517.116	20379.85
517.318	20369.61
517.52	20744.39
517.722	20525.25
517.925	20809.92
518.127	21340.35
518.329	21285.05
518.531	21174.46
518.733	21614.77
518.935	22022.32
519.136	22206.64
519.338	22292.65
519.54	22560.94
519.742	22583.46
519.944	22436.01
520.146	23210.14
520.348	23001.25
520.55	23441.56
520.752	23650.46
520.954	24072.34
521.155	23842.96
521.357	24256.65
521.559	24414.35
521.761	24508.55
521.963	24696.97
522.164	25041.03
522.366	24889.48
522.568	25372.8
522.77	25161.86
522.971	25974.9
523.173	25796.73
523.375	26132.59
523.576	26105.97
523.778	26022
523.98	26787.94
524.181	26605.67
524.383	26751.08
524.584	27209.82
524.786	27263.07
524.988	27127.91
525.189	27553.88
525.391	27469.92
525.592	27684.95
525.794	27930.71
525.995	27914.33
526.197	27940.95
526.398	27953.24
526.6	28547.15
526.801	28538.96
527.003	28778.57
527.204	28762.19
527.406	29065.28
527.607	28784.71
527.808	29327.42
528.01	28948.55
528.211	29397.06
528.412	29958.2
528.614	29579.32
528.815	29841.46
529.016	30079.03
529.218	29646.91
529.419	29839.42
529.62	30054.45
529.822	30003.25
530.023	30046.26
530.224	30066.74
530.425	30355.5
530.626	29872.18
530.828	29704.25
531.029	30384.18
531.23	30185.52
531.431	30056.5
531.632	30664.75
531.833	30613.55
532.035	30609.45
532.236	30625.84
532.437	30933.03
532.638	30527.53
532.839	30734.38
533.04	30955.56
533.241	30615.6
533.442	31348.77
533.643	30863.4
533.844	30935.08
534.045	30928.94
534.246	30834.73
534.447	31334.43
534.648	31084.58
534.849	31240.23
535.05	31141.92
535.251	31600.67
535.451	31014.95
535.652	31402.02
535.853	31043.62
536.054	31381.54
536.255	31559.71
536.456	30961.7
536.657	31907.87
536.857	31131.68
537.058	30738.47
537.259	31318.05
537.46	31412.26
537.66	31193.12
537.861	31711.26
538.062	31127.59
538.263	31442.98
538.463	31248.42
538.664	31121.45
538.865	31350.82
539.065	31574.05
539.266	30969.9
539.466	31508.51
539.667	30887.98
539.868	31848.47
540.068	31418.4
540.269	31019.05
540.469	31565.85
540.67	31031.33
540.87	31057.96
541.071	31576.09
541.271	31336.48
541.472	31324.19
541.672	31789.08
541.873	31096.87
542.073	30965.8
542.274	31506.46
542.474	31318.05
542.675	31115.3
542.875	31449.12
543.075	31272.99
543.276	30847.02
543.476	31436.83
543.676	31027.24
543.877	31080.49
544.077	31041.57
544.277	31119.4
544.478	31148.07
544.678	31537.18
544.878	31502.37
545.078	31195.17
545.279	31029.29
545.479	30769.19
545.679	31143.97
545.879	31612.96
546.079	31324.19
546.28	31432.74
546.48	30801.96
546.68	31295.52
546.88	31467.55
547.08	31168.55
547.28	30924.84
547.48	31051.81
547.68	31070.25
547.88	30976.04
548.081	31023.14
548.281	31109.16
548.481	31184.93
548.681	31313.95
548.881	31088.68
549.081	31129.64
549.28	30715.95
549.48	31305.76
549.68	31019.05
549.88	31252.52
550.08	30793.77
550.28	30971.94
550.48	30939.18
550.68	31533.09
550.88	30552.11
551.08	30963.75
551.279	31162.4
551.479	30597.17
551.679	30943.27
551.879	30734.38
552.079	30998.57
552.278	31150.12
552.478	30976.04
552.678	30828.59
552.878	31227.94
553.077	30797.87
553.277	30347.31
553.477	31189.03
553.676	30926.89
553.876	30742.57
554.076	30844.97
554.275	30722.09
554.475	30324.79
554.674	30795.82
554.874	30851.11
555.074	30097.46
555.273	30922.79
555.473	31062.05
555.672	30253.11
555.872	30601.26
556.071	30519.34
556.271	30373.94
556.47	30343.22
556.67	29863.99
556.869	30132.28
557.068	30670.89
557.268	30134.32
557.467	30005.3
557.667	30138.42
557.866	29964.34
558.065	29878.33
558.265	30122.04
558.464	29667.39
558.663	30341.17
558.863	29567.04
559.062	30175.28
559.261	29749.31
559.461	29925.43
559.66	29272.13
559.859	29728.83
560.058	29657.15
560.258	29411.39
560.457	29059.14
560.656	29630.52
560.855	29511.74
561.054	29280.32
561.253	28682.31
561.453	29034.56
561.652	29491.26
561.851	29517.89
562.05	29278.27
562.249	28932.17
562.448	29329.47
562.647	28739.66
562.846	28866.63
563.045	28803.14
563.244	28536.91
563.443	28909.64
563.642	28313.68
563.841	28784.71
564.04	28334.16
564.239	28725.32
564.438	28305.49
564.637	28428.37
564.836	28504.14
565.035	28033.11
565.234	28031.06
565.432	28123.22
565.631	27519.07
565.83	28248.14
566.029	27781.21
566.228	27543.64
566.427	27834.46
566.625	27654.23
566.824	27269.22
567.023	27420.77
567.222	26921.06
567.42	27566.17
567.619	27613.27
567.818	27367.52
568.016	27086.95
568.215	27150.43
568.414	27084.9
568.612	27301.98
568.811	26460.27
569.01	26611.82
569.208	26710.12
569.407	26798.18
569.605	26105.97
569.804	26269.81
570.002	25997.43
570.201	26378.35
570.4	26458.22
570.598	26144.88
570.797	26120.31
570.995	25903.22
571.193	25495.67
571.392	26017.91
571.59	25940.08
571.789	25723
571.987	25761.91
572.186	25518.2
572.384	25389.18
572.582	25536.63
572.781	25567.35
572.979	25198.72
573.177	24887.43
573.376	25245.82
573.574	25071.75
573.772	25153.66
573.971	25112.7
574.169	24957.06
574.367	24518.79
574.565	24578.18
574.763	24318.09
574.962	24516.75
575.16	24461.45
575.358	24430.73
575.556	24277.13
575.754	24334.48
575.952	24092.82
576.151	24305.81
576.349	24045.71
576.547	23976.08
576.745	24088.72
576.943	23935.12
577.141	23845.01
577.339	23869.59
577.537	23650.46
577.735	23462.04
577.933	23257.25
578.131	23390.36
578.329	23427.23
578.527	23169.18
578.725	22999.2
578.923	23244.96
579.121	22810.79
579.319	22892.71
579.516	22991.01
579.714	23019.68
579.912	22710.44
580.11	22720.68
580.308	22610.09
580.506	22724.77
580.704	22208.69
580.901	22550.7
581.099	22696.1
581.297	22368.43
581.495	22474.92
581.692	22368.43
581.89	22216.88
582.088	22087.85
582.285	22132.91
582.483	22177.97
582.681	21971.12
582.878	21711.03
583.076	21579.96
583.274	21747.89
583.471	21584.05
583.669	21600.44
583.866	21418.17
584.064	21399.74
584.262	21274.81
584.459	21565.62
584.657	21123.26
584.854	21463.22
585.052	21240
585.249	21031.1
585.447	21014.72
585.644	20938.94
585.841	20951.23
586.039	21135.55
586.236	20900.03
586.434	20703.43
586.631	20703.43
586.828	20644.04
587.026	20685
587.223	20580.55
587.42	20447.43
587.618	20459.72
587.815	20185.29
588.012	20306.12
588.21	20060.37
588.407	20447.43
588.604	20162.76
588.801	19810.51
588.999	19951.82
589.196	19755.22
589.393	19759.31
589.59	19880.14
589.787	19783.89
589.984	19542.23
590.182	19595.48
590.379	19775.7
590.576	19452.12
590.773	19386.58
590.97	19501.27
591.167	19503.32
591.364	19183.84
591.561	19474.65
591.758	18854.11
591.955	19009.76
592.152	18940.13
592.349	18798.82
592.546	18923.74
592.743	18946.27
592.94	18510.05
593.137	18718.95
593.334	18796.77
593.531	18448.61
593.727	18852.06
593.924	18374.89
594.121	18231.53
594.318	18551.01
594.515	18237.67
594.712	18362.6
594.908	18190.57
595.105	18518.25
595.302	17930.48
595.499	18342.12
595.696	17922.29
595.892	18008.3
596.089	17885.42
596.286	17744.11
596.482	17864.94
596.679	17639.67
596.876	17817.84
597.072	17686.77
597.269	17514.74
597.466	17367.29
597.662	17654
597.859	17455.35
598.055	17522.93
598.252	17400.05
598.448	17158.39
598.645	17443.06
598.841	17187.07
599.038	17131.77
599.234	17041.66
599.431	16781.57
599.627	16738.56
599.824	17084.67
600.02	16795.9
600.217	16916.73
600.413	16910.59
600.609	16949.5
600.806	16595.2
601.002	16673.03
601.198	16457.99
601.395	16343.3
601.591	16392.45
601.787	16476.42
601.984	16025.87
602.18	16613.63
602.376	16167.18
602.572	16283.91
602.769	16408.84
602.965	15952.14
603.161	15888.65
603.357	16009.48
603.553	15892.75
603.75	15997.2
603.946	15796.49
604.142	15802.64
604.338	15595.79
604.534	15712.53
604.73	15663.38
604.926	15601.94
605.122	15681.81
605.318	15503.64
605.514	15384.85
605.71	15290.65
605.906	15388.95
606.102	15163.67
606.298	15137.05
606.494	15241.5
606.69	15114.52
606.886	15137.05
607.082	15116.57
607.278	15274.26
607.474	14745.89
607.67	15077.66
607.866	14844.19
608.062	14932.25
608.257	14881.05
608.453	14956.83
608.649	14803.23
608.845	14680.35
609.041	14528.8
609.236	14700.83
609.432	14643.49
609.628	14635.3
609.824	14782.75
610.019	14463.27
610.215	14313.77
610.411	14453.03
610.606	14405.92
610.802	14342.44
610.998	14194.98
611.193	14471.46
611.389	14465.32
611.584	14426.4
611.78	14197.03
611.976	14496.03
612.171	14358.82
612.367	14262.57
612.562	14178.6
612.758	13850.92
612.953	13795.63
613.149	14029.1
613.344	13834.54
613.539	14012.71
613.735	14043.43
613.93	13996.33
614.126	13844.78
614.321	13984.04
614.517	13885.74
614.712	13719.85
614.907	13769.01
615.103	13766.96
615.298	13408.56
615.493	13785.39
615.688	13394.23
615.884	13664.56
616.079	13650.22
616.274	13410.61
616.47	13625.65
616.665	13601.07
616.86	13646.13
617.055	13406.52
617.25	13398.32
617.445	13793.58
617.641	13113.66
617.836	13443.38
618.031	13021.5
618.226	13431.09
618.421	12960.06
618.616	13324.6
618.811	12990.78
619.006	13144.38
619.201	12687.68
619.396	12919.1
619.591	12769.6
619.786	12839.23
619.981	12566.85
620.176	12851.52
620.371	12548.42
620.566	12638.53
620.761	12593.47
620.956	12499.27
621.151	12210.5
621.346	12415.3
621.541	12280.13
621.735	12310.85
621.93	11946.31
622.125	12321.09
622.32	11979.08
622.515	12075.34
622.709	11909.45
622.904	11958.6
623.099	11848.01
623.294	11856.2
623.488	11823.44
623.683	11770.19
623.878	11637.07
624.072	11669.84
624.267	11516.24
624.462	11432.27
624.656	11602.25
624.851	11368.79
625.046	11217.24
625.24	11389.27
625.435	11084.12
625.629	11043.16
625.824	10867.03
626.018	11028.82
626.213	10699.1
626.407	10983.77
626.602	10713.44
626.796	10692.96
626.991	10631.52
627.185	10553.69
627.38	10600.8
627.574	10404.19
627.768	10416.48
627.963	10248.55
628.157	10414.43
628.352	10502.5
628.546	10203.49
628.74	10049.89
628.935	10178.92
629.129	10041.7
629.323	9886.06
629.517	9943.4
629.712	9867.63
629.906	9843.05
630.1	9576.81
630.294	9812.33
630.489	9642.35
630.683	9609.58
630.877	9556.33
631.071	9535.85
631.265	9396.59
631.459	9521.52
631.653	9318.77
631.848	9337.2
632.042	9238.9
632.236	9441.65
632.43	9214.32
632.624	9253.23
632.818	9109.88
633.012	9136.5
633.206	8960.38
633.4	9095.54
633.594	8948.09
633.788	8925.56
633.982	8821.11
634.176	8796.54
634.369	8796.54
634.563	8683.9
634.757	8812.92
634.951	8604.03
635.145	8616.32
635.339	8624.51
635.533	8460.67
635.726	8350.08
635.92	8472.96
636.114	8405.38
636.308	8384.9
636.501	8366.46
636.695	8305.03
636.889	8137.09
637.083	8194.43
637.276	8110.47
637.47	8087.94
637.664	7860.62
637.857	8006.02
638.051	7911.82
638.244	8026.5
638.438	7815.56
638.632	7668.11
638.825	7770.51
639.019	7512.46
639.212	7629.2
639.406	7692.68
639.599	7575.95
639.793	7494.03
639.986	7428.49
640.18	7641.48
640.373	7371.15
640.567	7334.29
640.76	7483.79
640.954	7399.82
641.147	7350.67
641.34	7213.46
641.534	7018.9
641.727	7281.04
641.92	7045.52
642.114	6936.98
642.307	7070.1
642.5	6797.72
642.694	6738.33
642.887	6830.49
643.08	6875.54
643.273	6900.12
643.467	6855.06
643.66	6678.94
643.853	6496.67
644.046	6646.17
644.239	6549.92
644.432	6699.42
644.626	6560.16
644.819	6304.16
645.012	6625.69
645.205	6535.58
645.398	6465.95
645.591	6345.12
645.784	6373.79
645.977	6248.86
646.17	6281.63
646.363	6113.7
646.556	6220.19
646.749	6218.15
646.942	6236.58
647.135	6117.79
647.328	6060.45
647.521	6121.89
647.714	6015.4
647.907	5990.82
648.099	5951.91
648.292	5992.87
648.485	5906.85
648.678	5841.32
648.871	5833.13
649.064	5753.26
649.256	5786.02
649.449	5738.92
649.642	5616.04
649.835	5609.9
650.027	5626.28
650.22	5687.72
650.413	5552.56
650.605	5579.18
650.798	5550.51
650.991	5499.31
651.183	5372.33
651.376	5423.53
651.568	5415.34
651.761	5220.78
651.954	5302.7
652.146	5245.36
652.339	5194.16
652.531	5216.69
652.724	5292.46
652.916	5188.02
653.109	5122.48
653.301	5333.42
653.494	5126.58
653.686	4952.5
653.879	5173.68
654.071	5007.8
654.263	4876.73
654.456	4923.83
654.648	5140.91
654.84	4798.9
655.033	4800.95
655.225	4936.12
655.417	4796.85
655.61	4727.22
655.802	4790.71
655.994	4692.41
656.186	4839.86
656.379	4823.48
656.571	4780.47
656.763	4682.17
656.955	4641.21
657.148	4665.78
657.34	4547
657.532	4553.15
657.724	4456.89
657.916	4497.85
658.108	4600.25
658.3	4544.95
658.492	4551.1
658.684	4387.26
658.876	4417.98
659.068	4448.7
659.26	4409.79
659.452	4346.3
659.644	4348.35
659.836	4282.81
660.028	4372.93
660.22	4204.99
660.412	4243.9
660.604	4178.37
660.796	4272.57
660.988	4137.41
661.18	4137.41
661.372	4250.05
661.563	4213.18
661.755	4032.96
661.947	4012.48
662.139	4121.03
662.331	3987.91
662.522	3983.81
662.714	4092.35
662.906	3967.43
663.097	3951.04
663.289	3899.84
663.481	3961.28
663.673	3967.43
663.864	3852.74
664.056	3822.02
664.247	3879.36
664.439	3717.58
664.631	3844.55
664.822	3805.64
665.014	3731.91
665.205	3707.34
665.397	3688.9
665.588	3815.88
665.78	3742.15
665.971	3660.23
666.163	3791.3
666.354	3613.13
666.546	3541.45
666.737	3498.44
666.929	3504.59
667.12	3541.45
667.311	3551.69
667.503	3627.46
667.694	3467.72
667.885	3471.82
668.077	3451.34
668.268	3424.72
668.459	3377.61
668.651	3332.56
668.842	3318.22
669.033	3459.53
669.224	3293.65
669.416	3385.8
669.607	3363.28
669.798	3398.09
669.989	3422.67
670.18	3469.77
670.371	3230.16
670.563	3254.73
670.754	3242.45
670.945	3275.21
671.136	3320.27
671.327	3316.17
671.518	3262.93
671.709	3228.11
671.9	3197.39
672.091	3127.76
672.282	3191.25
672.473	3013.07
672.664	3144.14
672.855	3099.09
673.046	3156.43
673.237	3170.77
673.428	3162.58
673.619	3168.72
673.809	3121.62
674	3152.34
674.191	3117.52
674.382	3000.79
674.573	3013.07
674.764	3051.99
674.954	3066.32
675.145	2922.96
675.336	2890.2
675.527	2929.11
675.717	2939.35
675.908	2906.58
676.099	2920.92
676.289	2877.91
676.48	2990.55
676.671	2892.24
676.861	2978.26
677.052	2955.73
677.243	2929.11
677.433	2863.57
677.624	2890.2
677.814	2902.48
678.005	2904.53
678.195	2845.14
678.386	2712.02
678.576	2820.56
678.767	2767.32
678.957	2894.29
679.148	2933.2
679.338	2822.61
679.529	2828.76
679.719	2816.47
679.909	2882
680.1	2804.18
680.29	2875.86
680.481	2845.14
680.671	2783.7
680.861	2976.21
681.052	2820.56
681.242	2931.16
681.432	2775.51
681.622	2738.65
681.813	2720.21
682.003	2746.84
682.193	2732.5
682.383	2882
682.573	2662.87
682.764	2662.87
682.954	2718.17
683.144	2712.02
683.334	2732.5
683.524	2722.26
683.714	2697.69
683.904	2712.02
684.094	2822.61
684.284	2730.45
684.474	2832.85
684.664	2703.83
684.854	2707.93
685.044	2611.67
685.234	2626.01
685.424	2595.29
685.614	2515.42
685.804	2572.76
685.994	2570.71
686.184	2669.02
686.374	2621.91
686.564	2621.91
686.753	2613.72
686.943	2529.75
687.133	2501.08
687.323	2591.19
687.513	2464.22
687.702	2437.59
687.892	2574.81
688.082	2507.23
688.272	2669.02
688.461	2462.17
688.651	2568.66
688.841	2413.02
689.03	2425.31
689.22	2435.55
689.41	2329.05
689.599	2468.31
689.789	2451.93
689.979	2458.07
690.168	2443.74
690.358	2431.45
690.547	2324.96
690.737	2374.11
690.926	2298.33
691.116	2279.9
691.305	2345.44
691.495	2419.16
691.684	2320.86
691.874	2341.34
692.063	2290.14
692.252	2294.24
692.442	2316.76
692.631	2333.15
692.82	2253.28
693.01	2118.11
693.199	2238.94
693.388	2273.76
693.578	2273.76
693.767	2195.93
693.956	2306.52
694.146	2298.33
694.335	2361.82
694.524	2177.5
694.713	2161.12
694.902	2187.74
695.092	2202.08
695.281	2206.17
695.47	2157.02
695.659	2122.21
695.848	2208.22
696.037	2279.9
696.226	2185.69
696.415	2083.3
696.604	2183.65
696.793	2071.01
696.982	2277.85
697.171	2163.17
697.36	2134.5
697.549	2187.74
697.738	2091.49
697.927	2128.35
698.116	2208.22
698.305	2226.65
698.494	2185.69
698.683	2179.55
698.872	2333.15
699.061	2136.54
699.25	2259.42
699.438	2200.03
699.627	2218.46
699.816	2251.23
700.005	2085.34
700.193	2134.5
700.382	2212.32
700.571	2107.87
700.76	2150.88
700.948	2183.65
701.137	2189.79
701.326	2220.51
701.514	2136.54
701.703	2175.45
701.892	2195.93
702.08	2271.71
702.269	2200.03
702.457	2249.18
702.646	2261.47
702.834	2163.17
703.023	2193.89
703.212	2142.69
703.4	2218.46
703.589	2159.07
703.777	2169.31
703.965	2206.17
704.154	2140.64
704.342	2206.17
704.531	2202.08
704.719	2165.21
704.907	2150.88
705.096	2195.93
705.284	2191.84
705.472	2171.36
705.661	2140.64
705.849	2200.03
706.037	2189.79
706.226	2230.75
706.414	2187.74
706.602	2077.15
706.79	2177.5
706.979	2095.58
707.167	2144.74
707.355	2095.58
707.543	2255.33
707.731	2148.83
707.919	2173.41
708.107	2218.46
708.296	2075.1
708.484	2150.88
708.672	2171.36
708.86	2265.57
709.048	2195.93
709.236	2101.73
709.424	2111.97
709.612	2120.16
709.8	2085.34
709.988	2114.02
710.176	2179.55
710.364	2085.34
710.551	2177.5
710.739	2238.94
710.927	2232.8
711.115	2161.12
711.303	2128.35
711.491	2077.15
711.679	2095.58
711.866	2116.06
712.054	2191.84
712.242	2185.69
712.43	2159.07
712.617	2097.63
712.805	2081.25
712.993	2171.36
713.181	2081.25
713.368	2079.2
713.556	2152.93
713.744	2079.2
713.931	2173.41
714.119	2001.38
714.306	2185.69
714.494	2243.04
714.682	2193.89
714.869	2058.72
715.057	2183.65
715.244	2052.58
715.432	2157.02
715.619	2195.93
715.807	2142.69
715.994	2105.82
716.182	2124.26
716.369	2179.55
716.556	2144.74
716.744	2173.41
716.931	1984.99
717.119	2079.2
717.306	2120.16
717.493	2099.68
717.681	2097.63
717.868	2118.11
718.055	2175.45
718.242	2144.74
718.43	2179.55
718.617	2124.26
718.804	2146.78
718.991	2169.31
719.179	2013.67
719.366	2109.92
719.553	2189.79
719.74	2017.76
719.927	2077.15
720.114	2066.91
720.301	2083.3
720.488	2068.96
720.676	2071.01
720.863	2101.73
721.05	1976.8
721.237	2116.06
721.424	2052.58
721.611	2060.77
721.798	2023.91
721.985	2105.82
722.172	2185.69
722.358	2142.69
722.545	2152.93
722.732	1987.04
722.919	2015.71
723.106	2099.68
723.293	2073.06
723.48	2011.62
723.667	2118.11
723.853	2089.44
724.04	2091.49
724.227	2023.91
724.414	2148.83
724.6	2124.26
724.787	2095.58
724.974	2001.38
725.161	1925.6
725.347	2140.64
725.534	2030.05
725.72	1984.99
725.907	2144.74
726.094	2107.87
726.28	1972.71
726.467	2079.2
726.653	2071.01
726.84	2046.43
727.027	2093.54
727.213	1913.31
727.4	2048.48
727.586	2034.14
727.773	2003.43
727.959	2146.78
728.145	2036.19
728.332	1970.66
728.518	1995.23
728.705	2122.21
728.891	1976.8
729.077	1919.46
729.264	1966.56
729.45	2101.73
729.636	2071.01
729.823	2116.06
730.009	2011.62
730.195	2073.06
730.382	2028
730.568	2093.54
730.754	2019.81
730.94	2054.62
731.126	2073.06
731.313	2005.47
731.499	2175.45
731.685	2052.58
731.871	2071.01
732.057	2052.58
732.243	2062.82
732.429	2025.95
732.615	2028
732.801	2040.29
732.987	2075.1
733.173	1948.13
733.359	1995.23
733.545	1870.31
733.731	1946.08
733.917	1989.09
734.103	2091.49
734.289	1894.88
734.475	1962.47
734.661	2054.62
734.847	1970.66
735.033	1931.75
735.219	1970.66
735.404	1925.6
735.59	2042.34
735.776	1964.51
735.962	1909.22
736.148	2003.43
736.333	1982.95
736.519	1925.6
736.705	1974.75
736.89	1956.32
737.076	1903.07
737.262	1966.56
737.447	1909.22
737.633	1810.92
737.819	1903.07
738.004	1950.18
738.19	2009.57
738.375	1954.27
738.561	1950.18
738.747	1839.59
738.932	1868.26
739.118	1819.11
739.303	1950.18
739.489	1804.77
739.674	1864.16
739.859	1868.26
740.045	1870.31
740.23	1845.73
740.416	1880.55
740.601	1776.1
740.786	1876.45
740.972	1798.63
741.157	1786.34
741.342	1884.64
741.528	1890.79
741.713	1786.34
741.898	1915.36
742.084	1866.21
742.269	1731.05
742.454	1829.35
742.639	1821.16
742.824	1786.34
743.01	1647.08
743.195	1858.02
743.38	1763.81
743.565	1702.37
743.75	1808.87
743.935	1761.77
744.12	1708.52
744.305	1841.64
744.49	1751.53
744.675	1720.81
744.86	1614.31
745.045	1673.7
745.23	1776.1
745.415	1630.7
745.6	1757.67
745.785	1751.53
745.97	1571.3
746.155	1651.17
746.34	1618.41
746.525	1741.29
746.71	1583.59
746.895	1700.33
747.079	1642.98
747.264	1593.83
747.449	1591.78
747.634	1499.63
747.819	1561.06
748.003	1507.82
748.188	1542.63
748.373	1556.97
748.557	1628.65
748.742	1583.59
748.927	1485.29
749.111	1544.68
749.296	1532.39
749.481	1495.53
749.665	1468.91
749.85	1438.19
750.034	1464.81
750.219	1423.85
750.404	1405.42
750.588	1444.33
750.773	1483.24
750.957	1454.57
751.141	1343.98
751.326	1391.08
751.51	1296.88
751.695	1380.84
751.879	1346.03
752.064	1419.75
752.248	1325.55
752.432	1337.84
752.617	1268.2
752.801	1298.92
752.985	1268.2
753.17	1180.14
753.354	1307.12
753.538	1321.45
753.722	1243.63
753.907	1268.2
754.091	1257.96
754.275	1288.68
754.459	1249.77
754.643	1182.19
754.828	1255.92
755.012	1292.78
755.196	1161.71
755.38	1196.53
755.564	1266.16
755.748	1124.85
755.932	1145.33
756.116	1223.15
756.3	1174
756.484	1128.94
756.668	1104.37
756.852	1067.5
757.036	1085.94
757.22	1092.08
757.404	1157.61
757.588	1096.18
757.772	1186.29
757.956	1081.84
758.14	1071.6
758.323	1081.84
758.507	1063.41
758.691	1155.57
758.875	1118.7
759.059	1044.98
759.242	1053.17
759.426	991.73
759.61	1075.7
759.794	1012.21
759.977	965.11
760.161	956.91
760.345	1061.36
760.528	1065.46
760.712	1032.69
760.895	1004.02
761.079	901.62
761.263	987.63
761.446	897.52
761.63	961.01
761.813	1016.3
761.997	932.34
762.18	940.53
762.364	1008.11
762.547	965.11
762.731	885.23
762.914	942.58
763.098	881.14
763.281	930.29
763.464	842.23
763.648	881.14
763.831	903.67
764.015	840.18
764.198	958.96
764.381	934.39
764.564	862.71
764.748	952.82
764.931	895.47
765.114	842.23
765.297	934.39
765.481	825.84
765.664	905.71
765.847	811.51
766.03	834.04
766.213	825.84
766.397	907.76
766.58	801.27
766.763	831.99
766.946	799.22
767.129	739.83
767.312	743.92
767.495	850.42
767.678	842.23
767.861	809.46
768.044	807.41
768.227	893.43
768.41	856.56
768.593	795.12
768.776	793.08
768.959	788.98
769.142	776.69
769.324	770.55
769.507	836.08
769.69	727.54
769.873	760.31
770.056	829.94
770.239	788.98
770.421	776.69
770.604	741.88
770.787	799.22
770.97	737.78
771.152	756.21
771.335	750.07
771.518	768.5
771.7	715.25
771.883	748.02
772.066	739.83
772.248	702.97
772.431	702.97
772.613	709.11
772.796	637.43
772.978	823.8
773.161	668.15
773.343	672.25
773.526	707.06
773.708	748.02
773.891	684.53
774.073	713.21
774.256	623.09
774.438	666.1
774.621	702.97
774.803	702.97
774.985	623.09
775.168	629.24
775.35	637.43
775.532	608.76
775.715	569.85
775.897	604.66
776.079	641.53
776.261	651.77
776.444	612.85
776.626	700.92
776.808	610.81
776.99	594.42
777.173	637.43
777.355	543.22
777.537	590.33
777.719	586.23
777.901	563.7
778.083	573.94
778.265	483.83
778.447	559.61
778.629	489.98
778.811	567.8
778.993	573.94
779.175	541.18
779.357	537.08
779.539	485.88
779.721	551.42
779.903	557.56
780.085	565.75
780.267	498.17
780.449	518.65
780.631	551.42
780.812	580.09
780.994	494.07
781.176	504.31
781.358	569.85
781.54	485.88
781.721	530.94
781.903	459.26
782.085	395.77
782.267	569.85
782.448	498.17
782.63	403.96
782.812	504.31
782.993	432.63
783.175	424.44
783.357	399.87
783.538	485.88
783.72	453.11
783.901	387.58
784.083	436.73
784.264	418.3
784.446	373.24
784.627	363
784.809	459.26
784.99	422.39
785.172	397.82
785.353	453.11
785.535	440.83
785.716	391.67
785.897	453.11
786.079	469.5
786.26	377.34
786.441	344.57
786.623	469.5
786.804	342.52
786.985	393.72
787.167	377.34
787.348	350.71
787.529	444.92
787.71	354.81
787.891	358.91
788.073	309.76
788.254	252.41
788.435	334.33
788.616	399.87
788.797	320
788.978	395.77
789.159	346.62
789.34	340.47
789.522	258.56
789.703	317.95
789.884	342.52
790.065	344.57
790.246	324.09
790.427	391.67
790.607	334.33
790.788	305.66
790.969	274.94
791.15	285.18
791.331	299.52
791.512	356.86
791.693	201.21
791.874	297.47
792.054	342.52
792.235	356.86
792.416	203.26
792.597	274.94
792.778	262.65
792.958	317.95
793.139	346.62
793.32	268.8
793.5	182.78
793.681	268.8
793.862	320
794.042	305.66
794.223	240.12
794.404	305.66
794.584	233.98
794.765	240.12
794.945	223.74
795.126	229.88
795.306	293.37
795.487	227.84
795.667	311.8
795.848	207.36
796.028	236.03
796.209	238.08
796.389	252.41
796.57	211.45
796.75	268.8
796.93	248.32
797.111	227.84
797.291	254.46
797.471	211.45
797.652	326.14
797.832	231.93
798.012	264.7
798.192	201.21
798.373	252.41
798.553	248.32
798.733	252.41
798.913	281.08
799.093	233.98
799.274	199.16
799.454	272.89
799.634	217.6
799.814	223.74
799.994	184.83
800.174	215.55
800.354	309.76
800.534	229.88
800.714	225.79
800.894	205.31
801.074	209.4
801.254	211.45
801.434	199.16
801.614	152.06
801.794	219.64
801.974	539.13
802.154	260.6
802.334	242.17
802.514	168.45
802.693	229.88
802.873	199.16
803.053	168.45
803.233	203.26
803.413	186.88
803.592	184.83
803.772	64
803.952	197.12
804.131	211.45
804.311	201.21
804.491	256.51
804.67	225.79
804.85	184.83
805.03	223.74
805.209	213.5
805.389	256.51
805.568	137.73
805.748	152.06
805.928	88.57
806.107	219.64
806.287	178.69
806.466	250.36
806.646	141.82
806.825	139.77
807.004	125.44
807.184	223.74
807.363	137.73
807.543	125.44
807.722	197.12
807.901	168.45
808.081	172.54
808.26	182.78
808.439	111.1
808.619	152.06
808.798	141.82
808.977	188.93
809.156	184.83
809.336	162.3
809.515	172.54
809.694	168.45
809.873	137.73
810.052	86.53
810.231	199.16
810.411	166.4
810.59	117.25
810.769	156.16
810.948	135.68
811.127	123.39
811.306	129.53
811.485	205.31
811.664	180.73
811.843	72.19
812.022	166.4
812.201	119.29
812.38	117.25
812.559	186.88
812.737	205.31
812.916	182.78
813.095	92.67
813.274	115.2
813.453	141.82
813.632	104.96
813.811	131.58
813.989	119.29
814.168	147.97
814.347	94.72
814.526	186.88
814.704	150.01
814.883	199.16
815.062	113.15
815.24	201.21
815.419	72.19
815.598	96.77
815.776	82.43
815.955	147.97
816.133	117.25
816.312	141.82
816.49	117.25
816.669	23.04
816.847	127.49
817.026	137.73
817.204	104.96
817.383	100.86
817.561	135.68
817.74	107.01
817.918	182.78
818.097	49.66
818.275	119.29
818.453	74.24
818.632	96.77
818.81	-5.63
818.988	61.95
819.167	31.23
819.345	137.73
819.523	123.39
819.701	92.67
819.879	131.58
820.058	129.53
820.236	35.33
820.414	150.01
820.592	70.14
820.77	104.96
820.948	74.24
821.127	111.1
821.305	51.71
821.483	64
821.661	121.34
821.839	84.48
822.017	61.95
822.195	115.2
822.373	125.44
822.551	139.77
822.729	113.15
822.907	57.86
823.085	125.44
823.262	111.1
823.44	129.53
823.618	41.47
823.796	64
823.974	86.53
824.152	78.33
824.329	78.33
824.507	123.39
824.685	86.53
824.863	84.48
825.04	152.06
825.218	57.86
825.396	64
825.574	59.9
825.751	84.48
825.929	141.82
826.107	66.05
826.284	31.23
826.462	123.39
826.639	92.67
826.817	84.48
826.994	61.95
827.172	86.53
827.349	127.49
827.527	86.53
827.704	113.15
827.882	23.04
828.059	68.09
828.237	72.19
828.414	82.43
828.591	76.29
828.769	156.16
828.946	-40.45
829.124	53.76
829.301	57.86
829.478	160.25
829.655	70.14
829.833	16.9
830.01	20.99
830.187	88.57
830.364	23.04
830.542	-7.68
830.719	70.14
830.896	86.53
831.073	55.81
831.25	143.87
831.427	152.06
831.604	111.1
831.782	92.67
831.959	55.81
832.136	104.96
832.313	31.23
832.49	47.62
832.667	43.52
832.844	18.94
833.021	78.33
833.198	4.61
833.374	61.95
833.551	178.69
833.728	12.8
833.905	70.14
834.082	10.75
834.259	88.57
834.436	43.52
834.612	-19.97
834.789	86.53
834.966	39.42
835.143	41.47
835.319	47.62
835.496	6.66
835.673	39.42
835.85	70.14
836.026	27.14
836.203	72.19
836.38	100.86
836.556	-5.63
836.733	-9.73
836.909	37.38
837.086	57.86
837.262	84.48
837.439	-34.3
837.616	133.63
837.792	39.42
837.968	37.38
838.145	-3.58
838.321	115.2
838.498	-13.82
838.674	80.38
838.851	68.09
839.027	121.34
839.203	20.99
839.38	41.47
839.556	6.66
839.732	64
839.909	74.24
840.085	64
840.261	66.05
840.437	12.8
840.614	6.66
840.79	41.47
840.966	66.05
841.142	74.24
841.318	82.43
841.494	41.47
841.671	37.38
841.847	-7.68
842.023	49.66
842.199	59.9
842.375	66.05
842.551	43.52
842.727	-7.68
842.903	74.24
843.079	37.38
843.255	49.66
843.431	55.81
843.607	82.43
843.783	76.29
843.959	29.18
844.134	-30.21
844.31	43.52
844.486	-9.73
844.662	35.33
844.838	33.28
845.013	23.04
845.189	90.62
845.365	-52.74
845.541	55.81
845.716	-28.16
845.892	14.85
846.068	20.99
846.244	39.42
846.419	14.85
846.595	39.42
846.77	10.75
846.946	35.33
847.122	31.23
847.297	23.04
847.473	39.42
847.648	23.04
847.824	64
847.999	-38.4
848.175	12.8
848.35	37.38
848.526	45.57
848.701	104.96
848.876	47.62
849.052	80.38
849.227	-13.82
849.403	113.15
849.578	-13.82
849.753	61.95
849.929	90.62
850.104	-5.63
850.279	-22.02
850.454	39.42
850.63	64
850.805	-19.97
850.98	-19.97
851.155	18.94
851.33	35.33
851.505	41.47
851.681	100.86
851.856	29.18
852.031	35.33
852.206	6.66
852.381	-28.16
852.556	66.05
852.731	0.51
852.906	47.62
853.081	39.42
853.256	115.2
853.431	-32.26
853.606	25.09
853.781	31.23
853.956	72.19
854.131	133.63
854.305	4.61
854.48	2.56
854.655	29.18
854.83	27.14
855.005	-30.21
855.18	61.95
855.354	31.23
855.529	-15.87
855.704	-26.11
855.879	-11.78
856.053	53.76
856.228	109.05
856.403	-24.06
856.577	25.09
856.752	-9.73
856.926	8.7
857.101	72.19
857.276	-52.74
857.45	18.94
857.625	35.33
857.799	-9.73
857.974	37.38
858.148	31.23
858.323	61.95
858.497	6.66
858.672	-1.54
858.846	-24.06
859.02	76.29
859.195	27.14
859.369	-7.68
859.543	8.7
859.718	18.94
859.892	59.9
860.066	43.52
860.241	6.66
860.415	-40.45
860.589	-24.06
860.763	18.94
860.938	35.33
861.112	51.71
861.286	-28.16
861.46	74.24
861.634	-30.21
861.808	33.28
861.982	-67.07
862.157	-9.73
862.331	80.38
862.505	16.9
862.679	-26.11
862.853	20.99
863.027	45.57
863.201	61.95
863.375	-9.73
863.549	-28.16
863.722	20.99
863.896	55.81
864.07	18.94
864.244	74.24
864.418	6.66
864.592	14.85
864.766	2.56
864.939	-11.78
865.113	41.47
865.287	98.81
865.461	-22.02
865.634	-17.92
865.808	-11.78
865.982	18.94
866.156	-50.69
866.329	82.43
866.503	14.85
866.676	27.14
866.85	14.85
867.024	-13.82
867.197	64
867.371	-9.73
867.544	-15.87
867.718	-44.54
867.891	43.52
868.065	59.9
868.238	-28.16
868.412	14.85
868.585	-11.78
868.759	45.57
868.932	23.04
869.105	12.8
869.279	39.42
869.452	25.09
869.625	0.51
869.799	8.7
869.972	-60.93
870.145	-67.07
870.319	25.09
870.492	-7.68
870.665	72.19
870.838	-19.97
871.011	-22.02
871.185	47.62
871.358	18.94
871.531	12.8
871.704	-22.02
871.877	-11.78
872.05	53.76
872.223	-9.73
872.396	82.43
872.569	31.23
872.742	-19.97
872.915	2.56
873.088	-32.26
873.261	-22.02
873.434	-11.78
873.607	49.66
873.78	66.05
873.953	10.75
874.126	-48.64
874.299	37.38
874.471	6.66
874.644	6.66
874.817	27.14
874.99	-28.16
875.163	8.7
875.335	39.42
875.508	-67.07
875.681	31.23
875.853	-38.4
876.026	-44.54
876.199	4.61
876.371	31.23
876.544	-3.58
876.717	4.61
876.889	-32.26
877.062	-34.3
877.234	-5.63
877.407	37.38
877.579	-28.16
877.752	53.76
877.924	-22.02
878.097	-26.11
878.269	-19.97
878.442	49.66
878.614	-5.63
878.786	41.47
878.959	70.14
879.131	-34.3
879.303	-5.63
879.476	-9.73
879.648	25.09
879.82	6.66
879.993	-17.92
880.165	64
880.337	-15.87
880.509	-60.93
880.681	-26.11
880.854	-24.06
881.026	10.75
881.198	2.56
881.37	-97.79
881.542	23.04
881.714	64
881.886	14.85
882.058	-28.16
882.23	41.47
882.402	-3.58
882.574	31.23
882.746	-7.68
882.918	39.42
883.09	27.14
883.262	-46.59
883.434	18.94
883.606	2.56
883.778	4.61
883.95	-5.63
884.122	-7.68
884.293	59.9
884.465	4.61
884.637	33.28
884.809	-19.97
884.98	-1.54
885.152	61.95
885.324	45.57
885.496	-1.54
885.667	20.99
885.839	4.61
886.011	35.33
886.182	37.38
886.354	102.91
886.525	-40.45
886.697	-5.63
886.869	12.8
887.04	-13.82
887.212	37.38
887.383	45.57
887.555	-9.73
887.726	78.33
887.897	-32.26
888.069	-67.07
888.24	18.94
888.412	16.9
888.583	27.14
888.754	-46.59
888.926	-105.98
889.097	-9.73
889.268	-36.35
889.44	-3.58
889.611	-54.78
889.782	-22.02
889.953	-28.16
890.125	14.85
890.296	-13.82
890.467	2.56
890.638	4.61
890.809	4.61
890.98	-26.11
891.151	27.14
891.323	29.18
891.494	18.94
891.665	-46.59
891.836	33.28
892.007	-40.45
892.178	2.56
892.349	-13.82
892.52	37.38
892.691	-15.87
892.862	8.7
893.032	-32.26
893.203	4.61
893.374	-22.02
893.545	33.28
893.716	-24.06
893.887	107.01
894.057	-13.82
894.228	16.9
894.399	-60.93
894.57	61.95
894.74	-48.64
894.911	29.18
895.082	-26.11
895.253	6.66
895.423	25.09
895.594	12.8
895.764	14.85
895.935	23.04
896.106	27.14
896.276	14.85
896.447	6.66
896.617	-7.68
896.788	-60.93
896.958	-103.93
897.129	-42.5
897.299	47.62
897.47	29.18
897.64	39.42
897.81	-26.11
897.981	16.9
898.151	-17.92
898.322	-54.78
898.492	70.14
898.662	51.71
898.832	10.75
899.003	-1.54
899.173	16.9
899.343	-19.97
899.513	-34.3
