Data from USB4F104151__5__11-04-33-797.txt Node

Date: Wed Mar 12 11:04:33 EDT 2025
User: louis
Spectrometer: USB4F10415
Trigger mode: 4
Integration Time (sec): 2.000000E-2
Scans to average: 1
Electric dark correction enabled: true
Nonlinearity correction enabled: false
Boxcar width: 0
XAxis mode: Wavelengths
Number of Pixels in Spectrum: 3648
>>>>>Begin Spectral Data<<<<<
178.204	-42.5
178.424	-42.5
178.644	-42.5
178.864	-44.54
179.084	-122.37
179.304	-28.16
179.524	-30.21
179.744	41.47
179.964	29.18
180.184	-11.78
180.404	-9.73
180.624	-3.58
180.844	-13.82
181.064	-60.93
181.283	14.85
181.503	25.09
181.723	47.62
181.943	-62.98
182.163	29.18
182.383	8.7
182.602	33.28
182.822	16.9
183.042	57.86
183.262	-11.78
183.482	55.81
183.701	43.52
183.921	55.81
184.141	59.9
184.361	33.28
184.58	37.38
184.8	33.28
185.02	78.33
185.239	80.38
185.459	-5.63
185.679	14.85
185.898	0.51
186.118	72.19
186.338	10.75
186.557	49.66
186.777	59.9
186.997	12.8
187.216	33.28
187.436	74.24
187.655	6.66
187.875	51.71
188.095	25.09
188.314	70.14
188.534	70.14
188.753	59.9
188.973	80.38
189.192	78.33
189.412	39.42
189.631	111.1
189.851	45.57
190.07	84.48
190.29	-48.64
190.509	33.28
190.729	49.66
190.948	109.05
191.168	70.14
191.387	115.2
191.607	72.19
191.826	35.33
192.045	29.18
192.265	72.19
192.484	25.09
192.704	18.94
192.923	-11.78
193.142	141.82
193.362	88.57
193.581	82.43
193.8	-3.58
194.02	37.38
194.239	27.14
194.458	-34.3
194.678	33.28
194.897	92.67
195.116	-28.16
195.335	74.24
195.555	33.28
195.774	41.47
195.993	41.47
196.212	23.04
196.432	35.33
196.651	84.48
196.87	29.18
197.089	25.09
197.308	78.33
197.528	43.52
197.747	-26.11
197.966	29.18
198.185	66.05
198.404	35.33
198.623	53.76
198.842	104.96
199.062	100.86
199.281	12.8
199.5	55.81
199.719	41.47
199.938	88.57
200.157	68.09
200.376	121.34
200.595	64
200.814	43.52
201.033	45.57
201.252	102.91
201.471	49.66
201.69	35.33
201.909	4.61
202.128	27.14
202.347	123.39
202.566	59.9
202.785	-34.3
203.004	49.66
203.223	109.05
203.442	47.62
203.661	12.8
203.879	-17.92
204.098	-13.82
204.317	66.05
204.536	53.76
204.755	10.75
204.974	29.18
205.193	119.29
205.411	82.43
205.63	64
205.849	-22.02
206.068	-30.21
206.287	25.09
206.505	39.42
206.724	-19.97
206.943	8.7
207.162	10.75
207.381	88.57
207.599	88.57
207.818	86.53
208.037	115.2
208.255	8.7
208.474	-5.63
208.693	61.95
208.911	-30.21
209.13	-7.68
209.349	57.86
209.567	23.04
209.786	70.14
210.005	84.48
210.223	47.62
210.442	-75.26
210.661	51.71
210.879	-15.87
211.098	49.66
211.316	45.57
211.535	8.7
211.753	80.38
211.972	25.09
212.191	41.47
212.409	2.56
212.628	33.28
212.846	-22.02
213.065	35.33
213.283	41.47
213.502	-3.58
213.72	49.66
213.938	51.71
214.157	59.9
214.375	35.33
214.594	68.09
214.812	70.14
215.031	64
215.249	-3.58
215.467	49.66
215.686	12.8
215.904	82.43
216.122	-30.21
216.341	109.05
216.559	14.85
216.778	18.94
216.996	53.76
217.214	27.14
217.432	-1.54
217.651	109.05
217.869	33.28
218.087	-19.97
218.306	111.1
218.524	31.23
218.742	84.48
218.96	53.76
219.179	2.56
219.397	35.33
219.615	109.05
219.833	78.33
220.051	-89.6
220.27	55.81
220.488	64
220.706	0.51
220.924	82.43
221.142	20.99
221.36	-11.78
221.578	45.57
221.796	33.28
222.015	35.33
222.233	72.19
222.451	6.66
222.669	47.62
222.887	111.1
223.105	82.43
223.323	57.86
223.541	70.14
223.759	-1.54
223.977	74.24
224.195	25.09
224.413	115.2
224.631	57.86
224.849	43.52
225.067	20.99
225.285	-17.92
225.503	-32.26
225.721	8.7
225.939	51.71
226.157	35.33
226.375	78.33
226.592	51.71
226.81	49.66
227.028	31.23
227.246	51.71
227.464	14.85
227.682	98.81
227.9	61.95
228.117	31.23
228.335	8.7
228.553	41.47
228.771	41.47
228.989	121.34
229.206	104.96
229.424	23.04
229.642	-9.73
229.86	80.38
230.077	-42.5
230.295	0.51
230.513	76.29
230.731	92.67
230.948	86.53
231.166	88.57
231.384	61.95
231.601	76.29
231.819	96.77
232.037	23.04
232.254	55.81
232.472	20.99
232.689	18.94
232.907	100.86
233.125	55.81
233.342	37.38
233.56	39.42
233.777	100.86
233.995	31.23
234.213	10.75
234.43	16.9
234.648	117.25
234.865	61.95
235.083	12.8
235.3	35.33
235.518	12.8
235.735	90.62
235.953	20.99
236.17	86.53
236.388	33.28
236.605	27.14
236.822	35.33
237.04	137.73
237.257	61.95
237.475	14.85
237.692	31.23
237.909	49.66
238.127	102.91
238.344	41.47
238.562	49.66
238.779	-44.54
238.996	29.18
239.214	-36.35
239.431	117.25
239.648	49.66
239.865	86.53
240.083	-3.58
240.3	33.28
240.517	-46.59
240.735	10.75
240.952	68.09
241.169	94.72
241.386	68.09
241.603	109.05
241.821	86.53
242.038	49.66
242.255	-15.87
242.472	-15.87
242.689	92.67
242.907	80.38
243.124	12.8
243.341	111.1
243.558	-62.98
243.775	-1.54
243.992	29.18
244.209	37.38
244.426	25.09
244.643	94.72
244.86	66.05
245.078	57.86
245.295	37.38
245.512	51.71
245.729	82.43
245.946	35.33
246.163	-32.26
246.38	78.33
246.597	-11.78
246.814	94.72
247.031	37.38
247.248	33.28
247.464	100.86
247.681	64
247.898	4.61
248.115	98.81
248.332	-7.68
248.549	14.85
248.766	82.43
248.983	16.9
249.2	6.66
249.417	27.14
249.633	2.56
249.85	31.23
250.067	82.43
250.284	53.76
250.501	61.95
250.717	98.81
250.934	51.71
251.151	-13.82
251.368	-3.58
251.585	51.71
251.801	-58.88
252.018	10.75
252.235	43.52
252.451	55.81
252.668	41.47
252.885	98.81
253.102	4.61
253.318	-13.82
253.535	51.71
253.752	74.24
253.968	-22.02
254.185	18.94
254.401	0.51
254.618	66.05
254.835	-48.64
255.051	117.25
255.268	33.28
255.484	74.24
255.701	45.57
255.917	-3.58
256.134	12.8
256.351	37.38
256.567	12.8
256.784	39.42
257	4.61
257.217	90.62
257.433	70.14
257.65	90.62
257.866	55.81
258.082	43.52
258.299	33.28
258.515	57.86
258.732	14.85
258.948	41.47
259.165	-13.82
259.381	2.56
259.597	-3.58
259.814	86.53
260.03	35.33
260.246	74.24
260.463	66.05
260.679	23.04
260.895	-28.16
261.112	82.43
261.328	-50.69
261.544	25.09
261.761	127.49
261.977	117.25
262.193	41.47
262.409	33.28
262.626	10.75
262.842	10.75
263.058	-13.82
263.274	66.05
263.49	25.09
263.707	20.99
263.923	20.99
264.139	29.18
264.355	57.86
264.571	25.09
264.787	45.57
265.004	29.18
265.22	66.05
265.436	10.75
265.652	41.47
265.868	-9.73
266.084	45.57
266.3	-42.5
266.516	53.76
266.732	57.86
266.948	49.66
267.164	29.18
267.38	72.19
267.596	35.33
267.812	74.24
268.028	96.77
268.244	55.81
268.46	88.57
268.676	86.53
268.892	59.9
269.108	25.09
269.324	45.57
269.54	51.71
269.756	12.8
269.972	25.09
270.188	82.43
270.403	-34.3
270.619	64
270.835	27.14
271.051	61.95
271.267	49.66
271.483	-26.11
271.698	57.86
271.914	129.53
272.13	33.28
272.346	43.52
272.562	76.29
272.777	111.1
272.993	-3.58
273.209	109.05
273.425	47.62
273.64	45.57
273.856	45.57
274.072	-15.87
274.287	23.04
274.503	76.29
274.719	-5.63
274.934	61.95
275.15	43.52
275.366	8.7
275.581	53.76
275.797	53.76
276.012	4.61
276.228	25.09
276.444	98.81
276.659	-19.97
276.875	47.62
277.09	29.18
277.306	41.47
277.521	49.66
277.737	25.09
277.952	76.29
278.168	59.9
278.383	72.19
278.599	-44.54
278.814	94.72
279.03	59.9
279.245	78.33
279.461	61.95
279.676	-3.58
279.892	55.81
280.107	18.94
280.322	2.56
280.538	80.38
280.753	12.8
280.969	39.42
281.184	59.9
281.399	27.14
281.615	2.56
281.83	70.14
282.045	82.43
282.26	4.61
282.476	53.76
282.691	119.29
282.906	2.56
283.122	66.05
283.337	37.38
283.552	27.14
283.767	51.71
283.983	45.57
284.198	51.71
284.413	64
284.628	-60.93
284.843	72.19
285.058	55.81
285.274	31.23
285.489	14.85
285.704	51.71
285.919	-3.58
286.134	51.71
286.349	53.76
286.564	49.66
286.779	135.68
286.995	23.04
287.21	0.51
287.425	90.62
287.64	102.91
287.855	47.62
288.07	-1.54
288.285	78.33
288.5	74.24
288.715	-11.78
288.93	23.04
289.145	61.95
289.36	27.14
289.575	39.42
289.79	109.05
290.004	-3.58
290.219	82.43
290.434	-17.92
290.649	45.57
290.864	29.18
291.079	88.57
291.294	80.38
291.509	119.29
291.724	33.28
291.938	66.05
292.153	59.9
292.368	-13.82
292.583	47.62
292.798	76.29
293.012	16.9
293.227	55.81
293.442	100.86
293.657	25.09
293.871	43.52
294.086	55.81
294.301	86.53
294.516	43.52
294.73	100.86
294.945	49.66
295.16	-15.87
295.374	66.05
295.589	82.43
295.804	35.33
296.018	78.33
296.233	94.72
296.447	8.7
296.662	53.76
296.877	90.62
297.091	41.47
297.306	117.25
297.52	-5.63
297.735	74.24
297.949	59.9
298.164	86.53
298.378	92.67
298.593	84.48
298.807	-42.5
299.022	-13.82
299.236	49.66
299.451	100.86
299.665	102.91
299.88	55.81
300.094	-44.54
300.309	66.05
300.523	14.85
300.737	45.57
300.952	70.14
301.166	86.53
301.381	51.71
301.595	78.33
301.809	8.7
302.024	41.47
302.238	74.24
302.452	16.9
302.667	29.18
302.881	25.09
303.095	104.96
303.309	-5.63
303.524	76.29
303.738	35.33
303.952	39.42
304.166	84.48
304.381	2.56
304.595	27.14
304.809	2.56
305.023	86.53
305.237	51.71
305.452	70.14
305.666	55.81
305.88	156.16
306.094	61.95
306.308	82.43
306.522	64
306.736	82.43
306.95	41.47
307.164	90.62
307.379	43.52
307.593	104.96
307.807	88.57
308.021	115.2
308.235	66.05
308.449	14.85
308.663	53.76
308.877	45.57
309.091	27.14
309.305	90.62
309.519	-40.45
309.733	25.09
309.947	-19.97
310.161	20.99
310.374	12.8
310.588	86.53
310.802	-30.21
311.016	47.62
311.23	70.14
311.444	104.96
311.658	-5.63
311.872	23.04
312.085	98.81
312.299	45.57
312.513	2.56
312.727	84.48
312.941	57.86
313.154	53.76
313.368	41.47
313.582	131.58
313.796	143.87
314.009	31.23
314.223	66.05
314.437	18.94
314.651	53.76
314.864	115.2
315.078	45.57
315.292	39.42
315.505	27.14
315.719	37.38
315.933	70.14
316.146	45.57
316.36	78.33
316.573	90.62
316.787	72.19
317.001	70.14
317.214	88.57
317.428	10.75
317.641	-1.54
317.855	43.52
318.068	55.81
318.282	74.24
318.495	61.95
318.709	102.91
318.922	49.66
319.136	64
319.349	127.49
319.563	49.66
319.776	82.43
319.99	68.09
320.203	102.91
320.417	78.33
320.63	113.15
320.843	55.81
321.057	57.86
321.27	74.24
321.483	31.23
321.697	25.09
321.91	86.53
322.124	31.23
322.337	107.01
322.55	86.53
322.763	78.33
322.977	66.05
323.19	37.38
323.403	10.75
323.617	125.44
323.83	57.86
324.043	47.62
324.256	53.76
324.469	57.86
324.683	14.85
324.896	88.57
325.109	113.15
325.322	27.14
325.535	45.57
325.748	78.33
325.962	14.85
326.175	37.38
326.388	86.53
326.601	104.96
326.814	14.85
327.027	70.14
327.24	64
327.453	41.47
327.666	57.86
327.879	41.47
328.092	20.99
328.305	111.1
328.518	20.99
328.731	18.94
328.944	64
329.157	115.2
329.37	53.76
329.583	158.21
329.796	145.92
330.009	4.61
330.222	66.05
330.435	-38.4
330.648	76.29
330.861	76.29
331.073	78.33
331.286	41.47
331.499	-1.54
331.712	84.48
331.925	41.47
332.138	66.05
332.35	94.72
332.563	31.23
332.776	64
332.989	2.56
333.202	70.14
333.414	119.29
333.627	102.91
333.84	61.95
334.053	16.9
334.265	86.53
334.478	107.01
334.691	25.09
334.903	4.61
335.116	14.85
335.329	64
335.541	90.62
335.754	37.38
335.966	61.95
336.179	53.76
336.392	12.8
336.604	111.1
336.817	45.57
337.029	8.7
337.242	98.81
337.454	98.81
337.667	88.57
337.88	129.53
338.092	70.14
338.305	49.66
338.517	27.14
338.729	82.43
338.942	133.63
339.154	20.99
339.367	125.44
339.579	12.8
339.792	61.95
340.004	88.57
340.217	86.53
340.429	68.09
340.641	49.66
340.854	49.66
341.066	96.77
341.278	113.15
341.491	107.01
341.703	27.14
341.915	37.38
342.128	70.14
342.34	72.19
342.552	35.33
342.764	-13.82
342.977	88.57
343.189	16.9
343.401	68.09
343.613	8.7
343.826	20.99
344.038	23.04
344.25	100.86
344.462	74.24
344.674	115.2
344.886	29.18
345.099	43.52
345.311	70.14
345.523	125.44
345.735	41.47
345.947	23.04
346.159	-1.54
346.371	76.29
346.583	23.04
346.795	45.57
347.007	107.01
347.219	119.29
347.431	45.57
347.643	47.62
347.855	47.62
348.067	82.43
348.279	82.43
348.491	18.94
348.703	80.38
348.915	49.66
349.127	49.66
349.339	4.61
349.551	117.25
349.763	51.71
349.975	70.14
350.187	90.62
350.399	107.01
350.61	78.33
350.822	-1.54
351.034	39.42
351.246	84.48
351.458	125.44
351.669	82.43
351.881	-19.97
352.093	61.95
352.305	53.76
352.517	143.87
352.728	43.52
352.94	-11.78
353.152	72.19
353.363	109.05
353.575	57.86
353.787	47.62
353.999	27.14
354.21	100.86
354.422	41.47
354.633	-1.54
354.845	80.38
355.057	25.09
355.268	70.14
355.48	90.62
355.692	61.95
355.903	64
356.115	123.39
356.326	2.56
356.538	96.77
356.749	45.57
356.961	43.52
357.172	90.62
357.384	2.56
357.595	55.81
357.807	14.85
358.018	57.86
358.23	47.62
358.441	45.57
358.653	20.99
358.864	12.8
359.075	68.09
359.287	-1.54
359.498	74.24
359.709	37.38
359.921	25.09
360.132	123.39
360.344	39.42
360.555	43.52
360.766	68.09
360.977	53.76
361.189	45.57
361.4	33.28
361.611	88.57
361.823	70.14
362.034	10.75
362.245	20.99
362.456	39.42
362.667	53.76
362.879	27.14
363.09	94.72
363.301	53.76
363.512	33.28
363.723	76.29
363.935	76.29
364.146	102.91
364.357	98.81
364.568	78.33
364.779	-19.97
364.99	53.76
365.201	0.51
365.412	98.81
365.623	-62.98
365.834	37.38
366.045	82.43
366.256	45.57
366.467	49.66
366.678	86.53
366.889	133.63
367.1	84.48
367.311	6.66
367.522	90.62
367.733	76.29
367.944	14.85
368.155	33.28
368.366	78.33
368.577	109.05
368.788	70.14
368.999	14.85
369.209	168.45
369.42	121.34
369.631	121.34
369.842	104.96
370.053	80.38
370.264	82.43
370.474	43.52
370.685	66.05
370.896	100.86
371.107	100.86
371.317	72.19
371.528	70.14
371.739	141.82
371.95	78.33
372.16	66.05
372.371	113.15
372.582	109.05
372.792	4.61
373.003	131.58
373.214	61.95
373.424	100.86
373.635	64
373.846	115.2
374.056	49.66
374.267	88.57
374.477	127.49
374.688	53.76
374.898	113.15
375.109	-3.58
375.319	27.14
375.53	35.33
375.74	57.86
375.951	78.33
376.161	98.81
376.372	104.96
376.582	23.04
376.793	80.38
377.003	57.86
377.214	119.29
377.424	111.1
377.635	158.21
377.845	57.86
378.055	88.57
378.266	59.9
378.476	94.72
378.686	29.18
378.897	102.91
379.107	80.38
379.317	55.81
379.528	-7.68
379.738	145.92
379.948	96.77
380.158	55.81
380.369	129.53
380.579	129.53
380.789	47.62
380.999	98.81
381.21	27.14
381.42	49.66
381.63	66.05
381.84	86.53
382.05	76.29
382.261	127.49
382.471	47.62
382.681	86.53
382.891	119.29
383.101	145.92
383.311	-7.68
383.521	107.01
383.731	104.96
383.941	78.33
384.151	94.72
384.361	55.81
384.571	107.01
384.781	59.9
384.991	129.53
385.201	129.53
385.411	88.57
385.621	23.04
385.831	100.86
386.041	119.29
386.251	66.05
386.461	80.38
386.671	66.05
386.881	76.29
387.091	12.8
387.301	74.24
387.511	51.71
387.72	125.44
387.93	76.29
388.14	72.19
388.35	141.82
388.56	145.92
388.769	92.67
388.979	102.91
389.189	61.95
389.399	98.81
389.609	53.76
389.818	129.53
390.028	135.68
390.238	57.86
390.447	76.29
390.657	127.49
390.867	125.44
391.076	53.76
391.286	76.29
391.496	100.86
391.705	43.52
391.915	86.53
392.125	92.67
392.334	68.09
392.544	20.99
392.753	139.77
392.963	92.67
393.172	96.77
393.382	84.48
393.591	68.09
393.801	154.11
394.01	88.57
394.22	37.38
394.429	115.2
394.639	55.81
394.848	178.69
395.058	127.49
395.267	117.25
395.477	201.21
395.686	90.62
395.895	137.73
396.105	154.11
396.314	182.78
396.524	18.94
396.733	127.49
396.942	223.74
397.152	45.57
397.361	162.3
397.57	39.42
397.78	76.29
397.989	131.58
398.198	158.21
398.407	113.15
398.617	164.35
398.826	139.77
399.035	131.58
399.244	70.14
399.453	33.28
399.663	123.39
399.872	113.15
400.081	98.81
400.29	139.77
400.499	84.48
400.708	225.79
400.917	178.69
401.127	201.21
401.336	92.67
401.545	143.87
401.754	96.77
401.963	158.21
402.172	127.49
402.381	135.68
402.59	154.11
402.799	193.02
403.008	129.53
403.217	215.55
403.426	137.73
403.635	172.54
403.844	162.3
404.053	102.91
404.262	131.58
404.471	127.49
404.68	184.83
404.888	201.21
405.097	229.88
405.306	170.49
405.515	199.16
405.724	197.12
405.933	178.69
406.142	229.88
406.35	250.36
406.559	254.46
406.768	262.65
406.977	297.47
407.185	182.78
407.394	207.36
407.603	238.08
407.812	246.27
408.02	309.76
408.229	369.15
408.438	283.13
408.646	346.62
408.855	274.94
409.064	393.72
409.272	340.47
409.481	348.67
409.69	274.94
409.898	328.19
410.107	410.11
410.315	391.67
410.524	365.05
410.733	428.54
410.941	348.67
411.15	442.87
411.358	483.83
411.567	442.87
411.775	440.83
411.984	387.58
412.192	455.16
412.401	451.07
412.609	590.33
412.818	582.14
413.026	537.08
413.234	563.7
413.443	662.01
413.651	664.05
413.86	676.34
414.068	707.06
414.276	739.83
414.485	756.21
414.693	788.98
414.901	711.16
415.11	778.74
415.318	754.16
415.526	879.09
415.734	870.9
415.943	1001.97
416.151	924.15
416.359	934.39
416.567	991.73
416.776	1016.3
416.984	1178.09
417.192	1063.41
417.4	1096.18
417.608	1049.07
417.817	1190.38
418.025	1264.11
418.233	1360.36
418.441	1311.21
418.649	1444.33
418.857	1421.8
419.065	1448.43
419.273	1542.63
419.481	1470.95
419.689	1624.55
419.897	1698.28
420.105	1655.27
420.313	1827.3
420.521	1837.54
420.729	1933.79
420.937	1886.69
421.145	2095.58
421.353	2122.21
421.561	2210.27
421.769	2183.65
421.977	2386.4
422.185	2357.72
422.393	2556.38
422.601	2720.21
422.809	2617.82
423.017	2691.54
423.224	2757.08
423.432	2875.86
423.64	2824.66
423.848	3064.27
424.056	3066.32
424.263	3301.84
424.471	3258.83
424.679	3271.12
424.887	3566.03
425.094	3649.99
425.302	3799.49
425.51	3801.54
425.718	3963.33
425.925	3949
426.133	4116.93
426.341	4211.14
426.548	4602.3
426.756	4489.66
426.964	4481.47
427.171	4972.98
427.379	5231.02
427.586	5134.77
427.794	5274.03
428.001	5499.31
428.209	5790.12
428.417	5650.86
428.624	6009.25
428.832	6015.4
429.039	5953.96
429.247	5958.05
429.454	6635.93
429.662	7010.71
429.869	6615.45
430.076	6957.46
430.284	6721.95
430.491	6963.61
430.699	7457.17
430.906	7522.7
431.114	7580.04
431.321	8139.14
431.528	8118.66
431.736	8612.22
431.943	8796.54
432.15	8794.49
432.358	8868.22
432.565	9300.34
432.772	9353.59
432.979	9824.62
433.187	10080.61
433.394	9922.92
433.601	10719.58
433.808	10819.93
434.016	10682.72
434.223	11194.71
434.43	11714.89
434.637	11598.16
434.844	11931.98
435.052	12638.53
435.259	12585.28
435.466	12589.38
435.673	12372.29
435.88	13224.25
436.087	14031.15
436.294	14102.82
436.501	13676.85
436.708	13816.11
436.915	14293.29
437.122	15077.66
437.329	15083.8
437.537	15560.98
437.743	15548.69
437.95	15456.53
438.157	16478.47
438.364	17301.75
438.571	16867.58
438.778	16875.77
438.985	18594.02
439.192	17979.63
439.399	18409.7
439.606	17981.68
439.813	18899.17
440.02	20236.49
440.227	19757.27
440.433	19724.5
440.64	20484.3
440.847	20224.2
441.054	21057.73
441.261	22134.96
441.467	22083.76
441.674	22108.33
441.881	23120.03
442.088	23283.87
442.294	22868.13
442.501	23541.91
442.708	24074.38
442.914	25069.7
443.121	26030.19
443.328	25288.83
443.534	27142.24
443.741	25999.48
443.948	26097.78
444.154	28211.28
444.361	27527.26
444.568	28190.8
444.774	28096.6
444.981	28653.64
445.187	29024.33
445.394	30423.09
445.6	29972.53
445.807	32583.69
446.013	31111.21
446.22	31819.8
446.426	32970.76
446.633	33120.26
446.839	34678.77
447.046	33015.82
447.252	34883.56
447.459	34740.21
447.665	34809.84
447.871	36249.56
448.078	37414.85
448.284	35930.08
448.491	36925.39
448.697	38252.47
448.903	38766.51
449.11	38784.94
449.316	38328.25
449.522	38875.05
449.728	39851.94
449.935	40253.34
450.141	40079.26
450.347	40902.54
450.553	39647.14
450.76	40206.23
450.966	41338.76
451.172	41019.28
451.378	41774.98
451.584	40701.84
451.791	41727.88
451.997	41865.09
452.203	42198.91
452.409	42151.8
452.615	42022.78
452.821	40486.81
453.027	40472.47
453.233	41992.06
453.44	39983.01
453.646	40654.74
453.852	40738.71
454.058	41648
454.264	40120.22
454.47	40728.47
454.676	40191.9
454.882	41375.62
455.088	37457.86
455.294	37910.46
455.5	38537.14
455.705	38899.63
455.911	37558.21
456.117	36919.24
456.323	35831.77
456.529	34019.32
456.735	35364.84
456.941	34605.04
457.147	34052.09
457.352	32761.87
457.558	32419.86
457.764	32266.26
457.97	31606.81
458.176	31158.31
458.381	30863.4
458.587	29392.96
458.793	29489.21
458.999	28092.5
459.204	30064.69
459.41	29300.8
459.616	27242.59
459.821	27482.2
460.027	27258.98
460.233	26605.67
460.438	25315.45
460.644	25657.46
460.85	24361.1
461.055	23924.88
461.261	23791.76
461.466	22038.7
461.672	21477.56
461.878	23066.78
462.083	21385.4
462.289	21409.98
462.494	20791.49
462.7	19802.32
462.905	19738.83
463.111	20381.9
463.316	20480.2
463.522	19759.31
463.727	19914.96
463.932	19607.76
464.138	19544.28
464.343	19859.66
464.549	19132.64
464.754	19732.69
464.959	19501.27
465.165	19513.56
465.37	18448.61
465.575	18186.47
465.781	18784.48
465.986	18819.3
466.191	18270.44
466.397	18082.03
466.602	17090.81
466.807	17504.5
467.012	17744.11
467.218	17832.18
467.423	17502.45
467.628	17596.66
467.833	18413.8
468.038	17486.07
468.244	17217.79
468.449	17957.1
468.654	17056
468.859	16838.91
469.064	17328.38
469.269	16134.41
469.474	16441.61
469.679	16679.17
469.885	16038.16
470.09	16515.33
470.295	16656.64
470.5	15859.98
470.705	16046.35
470.91	15542.55
471.115	15296.79
471.32	15603.99
471.525	15579.41
471.73	15337.75
471.935	15042.84
472.139	14766.37
472.344	14924.06
472.549	14694.69
472.754	14455.08
472.959	14154.02
473.164	13750.57
473.369	13871.4
473.574	14229.8
473.778	14168.36
473.983	13934.89
474.188	13781.29
474.393	13437.23
474.598	13297.97
474.802	13125.94
475.007	13175.09
475.212	13189.43
475.417	12392.77
475.621	12708.16
475.826	12806.46
476.031	12337.48
476.235	12296.52
476.44	12345.67
476.645	12108.1
476.849	12314.95
477.054	12009.8
477.259	11843.92
477.463	11940.17
477.668	11518.29
477.872	11557.2
478.077	11557.2
478.282	11254.1
478.486	11190.61
478.691	10750.3
478.895	11176.28
479.1	11032.92
479.304	11014.49
479.509	10746.2
479.713	10907.99
479.918	10746.2
480.122	10547.55
480.326	10776.92
480.531	10656.09
480.735	10342.75
480.94	10482.02
481.144	10699.1
481.348	10277.22
481.553	10537.31
481.757	10109.29
481.961	10318.18
482.166	10449.25
482.37	10447.2
482.574	10006.89
482.778	10195.3
482.983	10406.24
483.187	10144.1
483.391	10135.91
483.595	10041.7
483.8	10285.41
484.004	10256.74
484.208	10191.2
484.412	10131.81
484.616	10154.34
484.821	10252.64
485.025	10072.42
485.229	10232.16
485.433	10217.83
485.637	10146.15
485.841	9855.34
486.045	10264.93
486.249	10105.19
486.453	10228.07
486.657	10228.07
486.861	10391.91
487.065	9935.21
487.269	10125.67
487.473	9902.44
487.677	10348.9
487.881	10271.08
488.085	10363.23
488.289	10273.12
488.493	10258.79
488.697	10326.37
488.901	10252.64
489.105	10080.61
489.309	10246.5
489.512	10344.8
489.716	10377.57
489.92	10539.36
490.124	10326.37
490.328	10447.2
490.531	10459.49
490.735	10563.93
490.939	10565.98
491.143	10486.11
491.346	10518.88
491.55	10729.82
491.754	10471.78
491.958	10545.5
492.161	10537.31
492.365	10926.43
492.569	10518.88
492.772	10707.29
492.976	10961.24
493.18	10951
493.383	11086.17
493.587	10860.89
493.79	11020.63
493.994	11245.91
494.197	11184.47
494.401	11331.92
494.605	11483.47
494.808	11594.06
495.012	11518.29
495.215	11526.48
495.419	11899.21
495.622	11925.83
495.825	11772.24
496.029	11884.87
496.232	12005.7
496.436	12126.53
496.639	12349.76
496.843	12562.75
497.046	12572.99
497.249	12878.14
497.453	12757.31
497.656	12960.06
497.859	12951.87
498.063	13199.67
498.266	13240.63
498.469	13248.82
498.673	13375.8
498.876	13654.32
499.079	13818.16
499.282	13769.01
499.485	14266.66
499.689	14297.38
499.892	14332.2
500.095	14463.27
500.298	14833.95
500.501	14561.57
500.705	15251.74
500.908	15380.76
501.111	15603.99
501.314	15638.8
501.517	15677.71
501.72	15790.35
501.923	16066.83
502.126	16062.73
502.329	16519.43
502.532	16642.31
502.735	16738.56
502.938	17041.66
503.141	16959.74
503.344	17557.75
503.547	17295.61
503.75	17584.37
503.953	17852.66
504.156	18004.21
504.359	18178.28
504.562	18411.75
504.765	18577.64
504.968	18872.54
505.17	19038.43
505.373	19177.69
505.576	19658.96
505.779	19577.05
505.982	19531.99
506.185	19972.3
506.387	20164.81
506.59	20431.05
506.793	20564.17
506.996	20844.74
507.198	21231.8
507.401	21115.07
507.604	21280.96
507.807	21719.22
508.009	22059.18
508.212	22001.84
508.415	22313.13
508.617	22935.71
508.82	22784.16
509.022	22909.09
509.225	23435.42
509.428	23531.67
509.63	23824.53
509.833	23865.49
510.035	24479.88
510.238	24406.16
510.44	24684.68
510.643	25256.06
510.845	25321.6
511.048	25104.51
511.25	25598.07
511.453	25557.11
511.655	26581.1
511.858	26472.56
512.06	26667.11
512.262	27066.47
512.465	26663.02
512.667	27519.07
512.87	27748.44
513.072	27873.37
513.274	28096.6
513.477	28430.41
513.679	28635.21
513.881	29130.82
514.084	29509.69
514.286	29536.32
514.488	29720.63
514.69	30572.59
514.893	30259.25
515.095	30519.34
515.297	30992.42
515.499	30832.68
515.701	31516.7
515.904	31932.44
516.106	31938.58
516.308	32475.15
516.51	32538.64
516.712	32501.78
516.914	33019.91
517.116	33902.59
517.318	33867.77
517.52	33896.44
517.722	33843.2
517.925	34594.8
518.127	35104.74
518.329	35260.39
518.531	35121.13
518.733	35569.63
518.935	36181.98
519.136	35899.36
519.338	36849.61
519.54	36992.97
519.742	37402.57
519.944	37478.34
520.146	38049.72
520.348	37953.47
520.55	38217.66
520.752	38408.12
520.954	39245.74
521.155	38803.38
521.357	39540.64
521.559	39786.4
521.761	40458.13
521.963	40359.83
522.164	40529.81
522.366	40230.81
522.568	41160.59
522.77	41154.44
522.971	41879.42
523.173	41531.27
523.375	41774.98
523.576	42506.1
523.778	42325.88
523.98	43030.38
524.181	42981.23
524.383	43151.21
524.584	43929.44
524.786	43841.38
524.988	43626.34
525.189	44080.99
525.391	44343.13
525.592	44474.2
525.794	44855.12
525.995	44468.06
526.197	44967.76
526.398	45303.63
526.6	45428.55
526.801	45676.36
527.003	45612.87
527.204	45999.94
527.406	46489.4
527.607	46511.93
527.808	46704.44
528.01	46219.07
528.211	46499.64
528.412	47357.74
528.614	47079.22
528.815	47034.16
529.016	47769.38
529.218	47028.02
529.419	47527.72
529.62	47521.58
529.822	47730.47
530.023	47345.45
530.224	47609.64
530.425	47773.48
530.626	47437.61
530.828	47519.53
531.029	48799.51
531.23	47793.96
531.431	48318.24
531.632	48547.61
531.833	48301.85
532.035	48264.99
532.236	48686.87
532.437	48742.17
532.638	48709.4
532.839	48834.33
533.04	49200.91
533.241	48488.22
533.442	49424.14
533.643	48803.61
533.844	48785.18
534.045	49182.48
534.246	48658.2
534.447	49231.63
534.648	48813.85
534.849	49213.2
535.05	48863
535.251	49334.03
535.451	49012.5
535.652	49352.46
535.853	48961.3
536.054	49157.91
536.255	49096.47
536.456	48985.88
536.657	49628.94
536.857	49145.62
537.058	48856.85
537.259	49592.08
537.46	49362.7
537.66	49231.63
537.861	49157.91
538.062	48869.14
538.263	49252.11
538.463	48809.75
538.664	49512.2
538.865	49334.03
539.065	49268.5
539.266	48965.4
539.466	49702.67
539.667	48752.41
539.868	49565.45
540.068	49166.1
540.269	49053.46
540.469	49174.29
540.67	48543.52
540.87	48914.2
541.071	49145.62
541.271	49528.59
541.472	48533.28
541.672	48865.05
541.873	48791.32
542.073	48330.53
542.274	49067.8
542.474	48856.85
542.675	49221.39
542.875	49059.6
543.075	48953.11
543.276	48512.8
543.476	49346.32
543.676	48502.56
543.877	48615.19
544.077	48355.1
544.277	48609.05
544.478	48527.13
544.678	48834.33
544.878	48863
545.078	48977.68
545.279	48391.97
545.479	48514.84
545.679	48664.35
545.879	48205.6
546.079	48865.05
546.28	48779.03
546.48	48541.47
546.68	48969.49
546.88	48879.38
547.08	48639.77
547.28	48234.27
547.48	47998.76
547.68	48615.19
547.88	48207.65
548.081	48938.77
548.281	48269.09
548.481	48226.08
548.681	48858.9
548.881	48373.53
549.081	48500.51
549.28	48107.3
549.48	48588.57
549.68	48219.94
549.88	48514.84
550.08	48473.88
550.28	48613.15
550.48	47986.47
550.68	48480.03
550.88	47802.15
551.08	48183.07
551.279	48660.25
551.479	47736.62
551.679	48375.58
551.879	47853.35
552.079	48299.81
552.278	48031.52
552.478	48043.81
552.678	48133.92
552.878	48447.26
553.077	48033.57
553.277	47480.62
553.477	48541.47
553.676	48258.85
553.876	47890.21
554.076	47421.23
554.275	47707.94
554.475	46944.05
554.674	47494.96
554.874	47556.39
555.074	47669.03
555.273	47818.53
555.473	48064.29
555.672	47441.71
555.872	47421.23
556.071	47445.8
556.271	47306.54
556.47	47466.28
556.67	46937.91
556.869	46931.76
557.068	47290.16
557.268	46628.66
557.467	46944.05
557.667	46784.31
557.866	46860.08
558.065	46845.75
558.265	46708.54
558.464	46477.11
558.663	47075.12
558.863	45729.61
559.062	47130.42
559.261	46102.34
559.461	46800.69
559.66	45500.23
559.859	46073.66
560.058	46063.43
560.258	46262.08
560.457	45758.28
560.656	46051.14
560.855	45958.98
561.054	45817.67
561.253	45451.08
561.453	46118.72
561.652	45932.36
561.851	45483.85
562.05	45383.5
562.249	45102.93
562.448	45987.65
562.647	45281.1
562.846	44928.85
563.045	45092.69
563.244	44830.55
563.443	45375.31
563.642	44564.31
563.841	44611.42
564.04	44269.4
564.239	45365.07
564.438	44035.94
564.637	44623.7
564.836	44203.87
565.035	43960.16
565.234	44001.12
565.432	43728.74
565.631	43530.09
565.83	44273.5
566.029	43693.93
566.228	43507.56
566.427	43147.12
566.625	43337.58
566.824	42844.02
567.023	43497.32
567.222	42221.44
567.42	43267.95
567.619	43085.68
567.818	42878.83
568.016	42481.53
568.215	43183.98
568.414	42276.73
568.612	43190.12
568.811	42530.68
569.01	42565.49
569.208	41564.04
569.407	42168.19
569.605	41740.16
569.804	42145.66
570.002	41740.16
570.201	41682.82
570.4	40929.17
570.598	40966.03
570.797	40746.9
570.995	41412.49
571.193	40664.98
571.392	41170.83
571.59	40650.64
571.789	40884.11
571.987	40650.64
572.186	40341.4
572.384	40540.05
572.582	40255.39
572.781	40265.63
572.979	40114.08
573.177	40044.44
573.376	39960.48
573.574	39415.72
573.772	40003.49
573.971	39782.3
574.169	39081.9
574.367	39155.63
574.565	39550.88
574.763	39675.81
574.962	39196.59
575.16	38684.59
575.358	39094.19
575.556	38660.02
575.754	39282.6
575.952	38262.71
576.151	38864.81
576.349	38053.82
576.547	38152.12
576.745	37771.2
576.943	37926.85
577.141	37767.1
577.339	37904.32
577.537	37885.89
577.735	37480.39
577.933	37593.03
578.131	37447.62
578.329	37353.41
578.527	36956.11
578.725	36894.67
578.923	37107.66
579.121	37302.21
579.319	37015.5
579.516	37107.66
579.714	36870.09
579.912	36308.95
580.11	36548.56
580.308	35944.41
580.506	36284.37
580.704	35426.28
580.901	36014.04
581.099	36462.55
581.297	35913.69
581.495	35829.73
581.692	36227.03
581.89	35209.19
582.088	35715.04
582.285	35368.93
582.483	35264.49
582.681	35108.84
582.878	35516.39
583.076	34691.05
583.274	34828.27
583.471	34533.36
583.669	34961.39
583.866	34535.41
584.064	34967.53
584.262	34277.36
584.459	34443.25
584.657	33888.25
584.854	34582.51
585.052	33861.63
585.249	34238.45
585.447	34134.01
585.644	33753.08
585.841	33632.25
586.039	34117.62
586.236	33273.86
586.434	33171.46
586.631	33097.73
586.828	33527.81
587.026	33183.75
587.223	33093.64
587.42	32958.47
587.618	33308.68
587.815	32638.99
588.012	32356.37
588.21	32509.97
588.407	32768.01
588.604	32426
588.801	31889.43
588.999	32092.18
589.196	32114.71
589.393	32030.74
589.59	31993.88
589.787	31764.51
589.984	31793.18
590.182	31203.36
590.379	31739.93
590.576	31318.05
590.773	31467.55
590.97	30785.58
591.167	31137.83
591.364	30722.09
591.561	31070.25
591.758	30834.73
591.955	30691.37
592.152	30824.49
592.349	30367.79
592.546	30613.55
592.743	30562.35
592.94	29876.28
593.137	30267.44
593.334	30298.16
593.531	29624.38
593.727	30390.32
593.924	30031.93
594.121	29780.03
594.318	29691.96
594.515	29286.47
594.712	29829.18
594.908	29591.61
595.105	29427.77
595.302	29091.91
595.499	29493.31
595.696	28991.56
595.892	28971.08
596.089	28962.89
596.286	29071.43
596.482	28815.43
596.679	28868.68
596.876	28526.67
597.072	28506.19
597.269	28346.45
597.466	28491.85
597.662	28274.77
597.859	27959.38
598.055	28293.2
598.252	27854.93
598.448	27865.17
598.645	27793.5
598.841	27578.46
599.038	27793.5
599.234	27492.44
599.431	27250.78
599.627	27181.15
599.824	27390.05
600.02	27224.16
600.217	27301.98
600.413	27056.23
600.609	26800.23
600.806	27103.33
601.002	27017.32
601.198	26613.87
601.395	26398.83
601.591	26607.72
601.787	26509.42
601.984	26421.36
602.18	26665.07
602.376	26175.6
602.572	26056.82
602.769	25915.51
602.965	26022
603.161	25991.28
603.357	25872.5
603.553	25434.24
603.75	25976.95
603.946	25274.49
604.142	25409.66
604.338	25286.78
604.534	25421.95
604.73	25268.35
604.926	25235.58
605.122	25034.88
605.318	25049.22
605.514	24936.58
605.71	25038.98
605.906	25073.79
606.102	25008.26
606.298	24508.55
606.494	24840.32
606.69	24553.61
606.886	24584.33
607.082	24402.06
607.278	24686.73
607.474	24014.99
607.67	24668.3
607.866	24121.49
608.062	24725.64
608.257	24025.23
608.453	24078.48
608.649	24010.9
608.845	23824.53
609.041	24047.76
609.236	23705.75
609.432	23771.29
609.628	23771.29
609.824	23656.6
610.019	23296.16
610.215	23376.03
610.411	23556.25
610.606	23359.64
610.802	23238.81
610.998	23226.53
611.193	23439.51
611.389	23339.16
611.584	23330.97
611.78	23117.98
611.976	23148.7
612.171	22907.04
612.367	22814.88
612.562	22841.51
612.758	22575.27
612.953	22411.43
613.149	22950.05
613.344	22853.8
613.539	22794.4
613.735	22794.4
613.93	22661.29
614.126	22495.4
614.321	22749.35
614.517	22386.86
614.712	22235.31
614.907	22298.8
615.103	22343.85
615.298	22286.51
615.493	22169.77
615.688	21809.33
615.884	22567.08
616.079	22003.89
616.274	22108.33
616.47	21919.92
616.665	22245.55
616.86	21868.72
617.055	21987.5
617.25	21495.99
617.445	21790.9
617.641	21459.13
617.836	21737.65
618.031	21680.31
618.226	21604.53
618.421	21563.57
618.616	21463.22
618.811	20902.08
619.006	21375.16
619.201	20596.93
619.396	21219.52
619.591	20906.18
619.786	20732.1
619.981	20367.56
620.176	20949.18
620.371	20625.61
620.566	20433.1
620.761	20304.07
620.956	20439.24
621.151	20105.42
621.346	20316.36
621.541	20080.85
621.735	20000.97
621.93	19661.01
622.125	19904.72
622.32	19597.52
622.515	19785.94
622.709	19546.33
622.904	19513.56
623.099	19091.68
623.294	19450.07
623.488	19247.32
623.683	18974.94
623.878	18766.05
624.072	18757.86
624.267	18772.19
624.462	18796.77
624.656	18340.07
624.851	18536.68
625.046	18370.79
625.24	18553.06
625.435	18071.79
625.629	18127.08
625.824	17668.34
626.018	17856.75
626.213	17611
626.407	17926.38
626.602	17443.06
626.796	17647.86
626.991	17395.96
627.185	17502.45
627.38	17082.62
627.574	16998.65
627.768	16812.29
627.963	16806.14
628.157	16781.57
628.352	17015.04
628.546	16453.89
628.74	16562.44
628.935	16525.57
629.129	16306.44
629.323	15978.76
629.517	16228.62
629.712	16101.64
629.906	15921.42
630.1	15706.38
630.294	15892.75
630.489	15849.74
630.683	15980.81
630.877	15626.51
631.071	15315.22
631.265	15517.97
631.459	15548.69
631.653	15468.82
631.848	15010.07
632.042	15055.13
632.236	15098.14
632.43	14928.16
632.624	14848.29
632.818	14838.05
633.012	14805.28
633.206	14729.5
633.4	14567.71
633.594	14360.87
633.788	14627.1
633.982	14180.65
634.176	14412.07
634.369	14250.28
634.563	14266.66
634.757	13848.88
634.951	14072.11
635.145	13910.32
635.339	14094.63
635.533	13539.63
635.726	13617.46
635.92	13629.74
636.114	13682.99
636.308	13697.33
636.501	13601.07
636.695	13582.64
636.889	13117.75
637.083	13189.43
637.276	13177.14
637.47	13093.18
637.664	13082.94
637.857	12933.43
638.051	13058.36
638.244	12828.99
638.438	12773.69
638.632	12616
638.825	12499.27
639.019	12568.9
639.212	12493.12
639.406	12456.26
639.599	12331.33
639.793	12271.94
639.986	11983.18
640.18	11956.55
640.373	12052.81
640.567	11913.55
640.76	11862.35
640.954	11903.31
641.147	11991.37
641.34	11663.69
641.534	11915.59
641.727	11362.64
641.92	11524.43
642.114	11405.65
642.307	11616.59
642.5	11252.05
642.694	11290.96
642.887	11116.89
643.08	11309.4
643.273	11000.15
643.467	11014.49
643.66	11125.08
643.853	10942.81
644.046	10840.41
644.239	11008.34
644.432	10695
644.626	10690.91
644.819	10586.46
645.012	10711.39
645.205	10445.15
645.398	10508.64
645.591	10422.62
645.784	10504.54
645.977	10252.64
646.17	10211.68
646.363	10211.68
646.556	10101.09
646.749	10137.96
646.942	10226.02
647.135	9974.12
647.328	9877.87
647.521	10023.27
647.714	9767.27
647.907	9918.82
648.099	9640.3
648.292	9605.49
648.485	9689.45
648.678	9494.9
648.871	9535.85
649.064	9638.25
649.256	9619.82
649.449	9353.59
649.642	9369.97
649.835	9392.5
650.027	9275.76
650.22	9042.29
650.413	9001.33
650.605	9007.48
650.798	9103.73
650.991	8882.55
651.183	9113.97
651.376	8812.92
651.568	8868.22
651.761	8855.93
651.954	8677.76
652.146	8890.74
652.339	8700.28
652.531	8681.85
652.724	8581.5
652.916	8556.93
653.109	8479.1
653.301	8358.27
653.494	8446.34
653.686	8270.21
653.879	8462.72
654.071	8257.92
654.263	8188.29
654.456	8055.17
654.648	8055.17
654.84	8044.93
655.033	8075.65
655.225	8014.21
655.417	7788.94
655.61	8061.32
655.802	7891.34
655.994	7833.99
656.186	7745.93
656.379	7799.18
656.571	7518.61
656.763	7655.82
656.955	7557.52
657.148	7637.39
657.34	7365.01
657.532	7387.54
657.724	7362.96
657.916	7453.07
658.108	7352.72
658.3	7330.19
658.492	7283.09
658.684	7090.58
658.876	7264.66
659.068	7211.41
659.26	7160.21
659.452	7012.76
659.644	7049.62
659.836	7098.77
660.028	6990.23
660.22	6789.53
660.412	6973.85
660.604	6779.29
660.796	6896.02
660.988	6863.26
661.18	6879.64
661.372	6746.52
661.563	6717.85
661.755	6709.66
661.947	6601.12
662.139	6578.59
662.331	6529.44
662.522	6437.28
662.714	6355.36
662.906	6433.18
663.097	6502.81
663.289	6408.61
663.481	6525.34
663.673	6414.75
663.864	6173.09
664.056	6148.51
664.247	6162.85
664.439	6119.84
664.631	6224.29
664.822	6085.03
665.014	6144.42
665.205	6091.17
665.397	6037.92
665.588	6037.92
665.78	5947.81
665.971	6009.25
666.163	6113.7
666.354	5863.85
666.546	5829.03
666.737	5855.65
666.929	5681.58
667.12	5872.04
667.311	5966.24
667.503	5839.27
667.694	5816.74
667.885	5718.44
668.077	5689.77
668.268	5751.21
668.459	5628.33
668.651	5620.14
668.842	5409.2
669.033	5341.61
669.224	5538.22
669.416	5495.21
669.607	5374.38
669.798	5552.56
669.989	5425.58
670.18	5386.67
670.371	5335.47
670.563	5282.22
670.754	5446.06
670.945	5296.56
671.136	5255.6
671.327	5396.91
671.518	5280.18
671.709	5296.56
671.9	5210.54
672.091	5263.79
672.282	5280.18
672.473	5149.11
672.664	5075.38
672.855	5104.05
673.046	5007.8
673.237	5013.94
673.428	5075.38
673.619	4960.69
673.809	4960.69
674	4868.53
674.191	4981.17
674.382	4938.16
674.573	4958.64
674.764	4829.62
674.954	4956.6
675.145	4981.17
675.336	4764.09
675.527	4889.01
675.717	4856.25
675.908	4803
676.099	4780.47
676.289	4852.15
676.48	4704.7
676.671	4563.39
676.861	4833.72
677.052	4604.35
677.243	4659.64
677.433	4651.45
677.624	4815.29
677.814	4655.54
678.005	4688.31
678.195	4643.26
678.386	4481.47
678.576	4526.52
678.767	4567.48
678.957	4469.18
679.148	4536.76
679.338	4643.26
679.529	4469.18
679.719	4465.08
679.909	4618.68
680.1	4411.84
680.29	4671.93
680.481	4385.21
680.671	4415.93
680.861	4389.31
681.052	4454.84
681.242	4479.42
681.432	4438.46
681.622	4383.17
681.813	4411.84
682.003	4377.02
682.193	4442.56
682.383	4534.71
682.573	4512.19
682.764	4417.98
682.954	4432.32
683.144	4385.21
683.334	4325.82
683.524	4278.72
683.714	4370.88
683.904	4170.18
684.094	4395.45
684.284	4358.59
684.474	4213.18
684.664	4221.38
684.854	4211.14
685.044	4264.38
685.234	4139.46
685.424	4256.19
685.614	4254.14
685.804	4157.89
685.994	4204.99
686.184	4184.51
686.374	4239.81
686.564	3949
686.753	4055.49
686.943	4094.4
687.133	4110.79
687.323	3946.95
687.513	4067.78
687.702	4135.36
687.892	3955.14
688.082	3922.37
688.272	3953.09
688.461	3920.32
688.651	3903.94
688.841	3834.31
689.03	3805.64
689.22	4004.29
689.41	3899.84
689.599	3883.46
689.789	3963.33
689.979	3916.23
690.168	3801.54
690.358	3858.89
690.547	3690.95
690.737	3795.4
690.926	3758.53
691.116	3676.62
691.305	3736.01
691.495	3719.62
691.684	3725.77
691.874	3856.84
692.063	3727.82
692.252	3508.68
692.442	3617.22
692.631	3490.25
692.82	3606.98
693.01	3666.38
693.199	3609.03
693.388	3580.36
693.578	3561.93
693.767	3502.54
693.956	3586.51
694.146	3492.3
694.335	3541.45
694.524	3576.27
694.713	3471.82
694.902	3523.02
695.092	3467.72
695.281	3418.57
695.47	3428.81
695.659	3432.91
695.848	3408.33
696.037	3340.75
696.226	3527.11
696.415	3262.93
696.604	3408.33
696.793	3402.19
696.982	3480.01
697.171	3441.1
697.36	3520.97
697.549	3299.79
697.738	3402.19
697.927	3365.32
698.116	3355.08
698.305	3203.54
698.494	3473.87
698.683	3310.03
698.872	3451.34
699.061	3287.5
699.25	3412.43
699.438	3416.52
699.627	3412.43
699.816	3332.56
700.005	3389.9
700.193	3463.63
700.382	3334.61
700.571	3350.99
700.76	3242.45
700.948	3293.65
701.137	3267.02
701.326	3324.37
701.514	3344.84
701.703	3305.93
701.892	3365.32
702.08	3277.26
702.269	3406.28
702.457	3219.92
702.646	3359.18
702.834	3219.92
703.023	3314.13
703.212	3318.22
703.4	3230.16
703.589	3283.41
703.777	3221.97
703.965	3291.6
704.154	3326.41
704.342	3299.79
704.531	3197.39
704.719	3193.3
704.907	3375.56
705.096	3262.93
705.284	3162.58
705.472	3262.93
705.661	3295.69
705.849	3094.99
706.037	3150.29
706.226	3207.63
706.414	3252.69
706.602	3269.07
706.79	3187.15
706.979	3264.97
707.167	3289.55
707.355	3189.2
707.543	3246.54
707.731	3271.12
707.919	3160.53
708.107	3295.69
708.296	3170.77
708.484	3127.76
708.672	3291.6
708.86	3176.91
709.048	3084.75
709.236	3076.56
709.424	3105.23
709.612	3160.53
709.8	3234.25
709.988	3195.34
710.176	3162.58
710.364	3092.94
710.551	3178.96
710.739	3238.35
710.927	3072.47
711.115	3254.73
711.303	3156.43
711.491	3312.08
711.679	3195.34
711.866	3187.15
712.054	3056.08
712.242	3070.42
712.43	3099.09
712.617	3060.18
712.805	3123.66
712.993	3162.58
713.181	3113.42
713.368	3170.77
713.556	3172.82
713.744	3051.99
713.931	3172.82
714.119	3121.62
714.306	3076.56
714.494	3060.18
714.682	3101.14
714.869	3008.98
715.057	3023.31
715.244	3056.08
715.432	3150.29
715.619	3041.75
715.807	3072.47
715.994	3144.14
716.182	2951.63
716.369	3006.93
716.556	3094.99
716.744	3086.8
716.931	3000.79
717.119	3011.03
717.306	3019.22
717.493	2998.74
717.681	3017.17
717.868	2937.3
718.055	2927.06
718.242	3015.12
718.43	3049.94
718.617	3015.12
718.804	2976.21
718.991	2998.74
719.179	3035.6
719.366	2900.44
719.553	3008.98
719.74	3006.93
719.927	2996.69
720.114	2992.59
720.301	3084.75
720.488	2963.92
720.676	3033.55
720.863	2937.3
721.05	2970.07
721.237	2970.07
721.424	2925.01
721.611	3043.79
721.798	2957.78
721.985	2863.57
722.172	2963.92
722.358	2965.97
722.545	2912.72
722.732	2914.77
722.919	2951.63
723.106	2890.2
723.293	2824.66
723.48	2922.96
723.667	2873.81
723.853	2822.61
724.04	2955.73
724.227	2990.55
724.414	2879.96
724.6	2836.95
724.787	2896.34
724.974	2843.09
725.161	2910.68
725.347	2836.95
725.534	3006.93
725.72	2986.45
725.907	2925.01
726.094	3109.33
726.28	2841.04
726.467	2873.81
726.653	2894.29
726.84	2939.35
727.027	2941.4
727.213	2814.42
727.4	3021.27
727.586	2894.29
727.773	2867.67
727.959	2953.68
728.145	2910.68
728.332	2781.65
728.518	2869.72
728.705	2896.34
728.891	3015.12
729.077	2861.52
729.264	2910.68
729.45	2896.34
729.636	2898.39
729.823	2818.52
730.009	2890.2
730.195	2961.87
730.382	2892.24
730.568	2841.04
730.754	2744.79
730.94	2822.61
731.126	2810.33
731.313	2824.66
731.499	2853.33
731.685	2677.21
731.871	2732.5
732.057	2806.23
732.243	2785.75
732.429	2869.72
732.615	2873.81
732.801	2791.89
732.987	2814.42
733.173	2828.76
733.359	2681.3
733.545	2785.75
733.731	2693.59
733.917	2759.13
734.103	2834.9
734.289	2707.93
734.475	2783.7
734.661	2820.56
734.847	2724.31
735.033	2697.69
735.219	2945.49
735.404	2679.26
735.59	2728.41
735.776	2736.6
735.962	2851.28
736.148	2773.46
736.333	2806.23
736.519	2824.66
736.705	2744.79
736.89	2759.13
737.076	2736.6
737.262	2736.6
737.447	2642.39
737.633	2589.14
737.819	2671.06
738.004	2693.59
738.19	2714.07
738.375	2664.92
738.561	2736.6
738.747	2628.06
738.932	2568.66
739.118	2687.45
739.303	2589.14
739.489	2632.15
739.674	2626.01
739.859	2587.1
740.045	2638.3
740.23	2654.68
740.416	2476.51
740.601	2544.09
740.786	2496.99
740.972	2521.56
741.157	2570.71
741.342	2603.48
741.528	2451.93
741.713	2634.2
741.898	2496.99
742.084	2539.99
742.269	2439.64
742.454	2492.89
742.639	2445.79
742.824	2476.51
743.01	2550.23
743.195	2421.21
743.38	2302.43
743.565	2363.87
743.75	2380.25
743.935	2437.59
744.12	2359.77
744.305	2290.14
744.49	2417.12
744.675	2372.06
744.86	2288.09
745.045	2443.74
745.23	2367.96
745.415	2300.38
745.6	2443.74
745.785	2271.71
745.97	2386.4
746.155	2277.85
746.34	2306.52
746.525	2255.33
746.71	2259.42
746.895	2179.55
747.079	2159.07
747.264	2159.07
747.449	2240.99
747.634	2071.01
747.819	2271.71
748.003	2140.64
748.188	2200.03
748.373	2142.69
748.557	2152.93
748.742	2042.34
748.927	2099.68
749.111	2077.15
749.296	2089.44
749.481	1999.33
749.665	1982.95
749.85	2025.95
750.034	2091.49
750.219	2011.62
750.404	1946.08
750.588	1874.4
750.773	1968.61
750.957	1964.51
751.141	1958.37
751.326	1923.55
751.51	1927.65
751.695	1835.49
751.879	1905.12
752.064	2030.05
752.248	1866.21
752.432	1931.75
752.617	1815.01
752.801	1905.12
752.985	1827.3
753.17	1726.95
753.354	1788.39
753.538	1788.39
753.722	1747.43
753.907	1655.27
754.091	1657.32
754.275	1667.56
754.459	1726.95
754.643	1571.3
754.828	1618.41
755.012	1573.35
755.196	1673.7
755.38	1698.28
755.564	1642.98
755.748	1737.19
755.932	1765.86
756.116	1538.54
756.3	1507.82
756.484	1602.02
756.668	1630.7
756.852	1583.59
757.036	1530.34
757.22	1477.1
757.404	1534.44
757.588	1409.51
757.772	1528.3
757.956	1556.97
758.14	1495.53
758.323	1405.42
758.507	1493.48
758.691	1477.1
758.875	1417.71
759.059	1454.57
759.242	1350.12
759.426	1325.55
759.61	1427.95
759.794	1397.23
759.977	1280.49
760.161	1470.95
760.345	1323.5
760.528	1544.68
760.712	1440.23
760.895	1427.95
761.079	1360.36
761.263	1335.79
761.446	1339.88
761.63	1335.79
761.813	1346.03
761.997	1286.64
762.18	1356.27
762.364	1389.03
762.547	1239.53
762.731	1243.63
762.914	1372.65
763.098	1286.64
763.281	1206.77
763.464	1198.57
763.648	1198.57
763.831	1309.16
764.015	1231.34
764.198	1192.43
764.381	1237.49
764.564	1200.62
764.748	1217.01
764.931	1241.58
765.114	1212.91
765.297	1288.68
765.481	1161.71
765.664	1262.06
765.847	1145.33
766.03	1178.09
766.213	1069.55
766.397	1149.42
766.58	1188.33
766.763	1126.89
766.946	1217.01
767.129	1223.15
767.312	1137.13
767.495	1149.42
767.678	1067.5
767.861	1157.61
768.044	1190.38
768.227	1059.31
768.41	1081.84
768.593	1147.37
768.776	1053.17
768.959	1061.36
769.142	1090.03
769.324	1102.32
769.507	1034.74
769.69	1075.7
769.873	1016.3
770.056	1143.28
770.239	1087.98
770.421	1042.93
770.604	999.92
770.787	952.82
770.97	1061.36
771.152	1047.02
771.335	967.15
771.518	1057.26
771.7	1106.42
771.883	965.11
772.066	1044.98
772.248	1126.89
772.431	1077.74
772.613	981.49
772.796	948.72
772.978	1034.74
773.161	967.15
773.343	997.87
773.526	967.15
773.708	897.52
773.891	918
774.073	922.1
774.256	1020.4
774.438	983.54
774.621	885.23
774.803	901.62
774.985	854.51
775.168	920.05
775.35	918
775.532	926.19
775.715	860.66
775.897	889.33
776.079	854.51
776.261	870.9
776.444	852.47
776.626	813.56
776.808	862.71
776.99	801.27
777.173	817.65
777.355	840.18
777.537	776.69
777.719	844.28
777.901	829.94
778.083	803.32
778.265	719.35
778.447	797.17
778.629	737.78
778.811	725.49
778.993	815.6
779.175	770.55
779.357	766.45
779.539	713.21
779.721	758.26
779.903	768.5
780.085	768.5
780.267	705.01
780.449	682.49
780.631	752.12
780.812	760.31
780.994	786.93
781.176	711.16
781.358	674.29
781.54	737.78
781.721	668.15
781.903	625.14
782.085	633.33
782.267	698.87
782.448	633.33
782.63	680.44
782.812	686.58
782.993	674.29
783.175	641.53
783.357	627.19
783.538	612.85
783.72	651.77
783.901	594.42
784.083	594.42
784.264	535.03
784.446	578.04
784.627	563.7
784.809	537.08
784.99	612.85
785.172	592.37
785.353	676.34
785.535	557.56
785.716	567.8
785.897	580.09
786.079	563.7
786.26	526.84
786.441	518.65
786.623	532.98
786.804	487.93
786.985	543.22
787.167	487.93
787.348	481.78
787.529	514.55
787.71	475.64
787.891	551.42
788.073	477.69
788.254	471.54
788.435	492.02
788.616	485.88
788.797	508.41
788.978	438.78
789.159	481.78
789.34	494.07
789.522	483.83
789.703	524.79
789.884	463.35
790.065	430.59
790.246	508.41
790.427	487.93
790.607	475.64
790.788	500.22
790.969	414.2
791.15	504.31
791.331	389.63
791.512	428.54
791.693	383.48
791.874	422.39
792.054	440.83
792.235	485.88
792.416	432.63
792.597	383.48
792.778	524.79
792.958	477.69
793.139	487.93
793.32	414.2
793.5	328.19
793.681	434.68
793.862	420.35
794.042	342.52
794.223	334.33
794.404	371.19
794.584	320
794.765	352.76
794.945	324.09
795.126	336.38
795.306	313.85
795.487	301.56
795.667	369.15
795.848	340.47
796.028	406.01
796.209	344.57
796.389	373.24
796.57	317.95
796.75	291.32
796.93	354.81
797.111	348.67
797.291	354.81
797.471	350.71
797.652	360.95
797.832	317.95
798.012	346.62
798.192	344.57
798.373	295.42
798.553	340.47
798.733	317.95
798.913	305.66
799.093	360.95
799.274	334.33
799.454	254.46
799.634	270.84
799.814	360.95
799.994	410.11
800.174	256.51
800.354	293.37
800.534	346.62
800.714	395.77
800.894	246.27
801.074	274.94
801.254	350.71
801.434	336.38
801.614	260.6
801.794	233.98
801.974	623.09
802.154	328.19
802.334	295.42
802.514	268.8
802.693	305.66
802.873	315.9
803.053	240.12
803.233	303.61
803.413	305.66
803.592	303.61
803.772	305.66
803.952	236.03
804.131	244.22
804.311	371.19
804.491	276.99
804.67	281.08
804.85	262.65
805.03	301.56
805.209	281.08
805.389	262.65
805.568	242.17
805.748	274.94
805.928	231.93
806.107	258.56
806.287	193.02
806.466	305.66
806.646	209.4
806.825	211.45
807.004	229.88
807.184	156.16
807.363	248.32
807.543	248.32
807.722	244.22
807.901	272.89
808.081	213.5
808.26	184.83
808.439	186.88
808.619	295.42
808.798	219.64
808.977	209.4
809.156	213.5
809.336	203.26
809.515	213.5
809.694	229.88
809.873	172.54
810.052	199.16
810.231	223.74
810.411	217.6
810.59	283.13
810.769	231.93
810.948	272.89
811.127	213.5
811.306	311.8
811.485	223.74
811.664	260.6
811.843	168.45
812.022	244.22
812.201	201.21
812.38	242.17
812.559	180.73
812.737	246.27
812.916	180.73
813.095	270.84
813.274	250.36
813.453	154.11
813.632	236.03
813.811	203.26
813.989	147.97
814.168	203.26
814.347	199.16
814.526	233.98
814.704	256.51
814.883	199.16
815.062	162.3
815.24	213.5
815.419	215.55
815.598	178.69
815.776	197.12
815.955	211.45
816.133	104.96
816.312	156.16
816.49	172.54
816.669	215.55
816.847	213.5
817.026	236.03
817.204	190.97
817.383	217.6
817.561	104.96
817.74	225.79
817.918	111.1
818.097	248.32
818.275	190.97
818.453	184.83
818.632	133.63
818.81	182.78
818.988	162.3
819.167	164.35
819.345	176.64
819.523	111.1
819.701	227.84
819.879	154.11
820.058	125.44
820.236	152.06
820.414	156.16
820.592	203.26
820.77	154.11
820.948	117.25
821.127	147.97
821.305	170.49
821.483	102.91
821.661	160.25
821.839	186.88
822.017	76.29
822.195	104.96
822.373	129.53
822.551	139.77
822.729	117.25
822.907	197.12
823.085	266.75
823.262	111.1
823.44	107.01
823.618	131.58
823.796	117.25
823.974	248.32
824.152	164.35
824.329	125.44
824.507	131.58
824.685	111.1
824.863	145.92
825.04	115.2
825.218	182.78
825.396	160.25
825.574	92.67
825.751	152.06
825.929	164.35
826.107	102.91
826.284	156.16
826.462	115.2
826.639	96.77
826.817	166.4
826.994	107.01
827.172	102.91
827.349	201.21
827.527	147.97
827.704	160.25
827.882	115.2
828.059	178.69
828.237	115.2
828.414	78.33
828.591	104.96
828.769	90.62
828.946	68.09
829.124	223.74
829.301	115.2
829.478	168.45
829.655	104.96
829.833	158.21
830.01	115.2
830.187	164.35
830.364	115.2
830.542	141.82
830.719	143.87
830.896	109.05
831.073	72.19
831.25	107.01
831.427	102.91
831.604	84.48
831.782	121.34
831.959	117.25
832.136	119.29
832.313	125.44
832.49	86.53
832.667	174.59
832.844	86.53
833.021	174.59
833.198	53.76
833.374	154.11
833.551	119.29
833.728	125.44
833.905	141.82
834.082	64
834.259	47.62
834.436	139.77
834.612	113.15
834.789	119.29
834.966	86.53
835.143	76.29
835.319	109.05
835.496	121.34
835.673	94.72
835.85	178.69
836.026	72.19
836.203	150.01
836.38	76.29
836.556	160.25
836.733	129.53
836.909	78.33
837.086	121.34
837.262	104.96
837.439	147.97
837.616	111.1
837.792	160.25
837.968	68.09
838.145	78.33
838.321	115.2
838.498	57.86
838.674	139.77
838.851	188.93
839.027	211.45
839.203	66.05
839.38	88.57
839.556	31.23
839.732	109.05
839.909	76.29
840.085	86.53
840.261	86.53
840.437	82.43
840.614	84.48
840.79	135.68
840.966	82.43
841.142	37.38
841.318	68.09
841.494	78.33
841.671	104.96
841.847	39.42
842.023	127.49
842.199	90.62
842.375	197.12
842.551	8.7
842.727	27.14
842.903	61.95
843.079	82.43
843.255	121.34
843.431	76.29
843.607	70.14
843.783	43.52
843.959	-3.58
844.134	92.67
844.31	109.05
844.486	18.94
844.662	-11.78
844.838	96.77
845.013	59.9
845.189	72.19
845.365	84.48
845.541	14.85
845.716	109.05
845.892	107.01
846.068	61.95
846.244	84.48
846.419	78.33
846.595	68.09
846.77	72.19
846.946	178.69
847.122	43.52
847.297	98.81
847.473	68.09
847.648	109.05
847.824	20.99
847.999	-5.63
848.175	104.96
848.35	96.77
848.526	164.35
848.701	74.24
848.876	107.01
849.052	100.86
849.227	109.05
849.403	147.97
849.578	80.38
849.753	29.18
849.929	59.9
850.104	78.33
850.279	131.58
850.454	113.15
850.63	104.96
850.805	35.33
850.98	39.42
851.155	84.48
851.33	53.76
851.505	37.38
851.681	41.47
851.856	82.43
852.031	88.57
852.206	35.33
852.381	68.09
852.556	31.23
852.731	109.05
852.906	27.14
853.081	49.66
853.256	102.91
853.431	23.04
853.606	-5.63
853.781	20.99
853.956	94.72
854.131	8.7
854.305	74.24
854.48	84.48
854.655	74.24
854.83	-11.78
855.005	37.38
855.18	96.77
855.354	115.2
855.529	80.38
855.704	61.95
855.879	31.23
856.053	57.86
856.228	16.9
856.403	-13.82
856.577	49.66
856.752	12.8
856.926	12.8
857.101	66.05
857.276	35.33
857.45	-1.54
857.625	-24.06
857.799	37.38
857.974	4.61
858.148	88.57
858.323	37.38
858.497	35.33
858.672	16.9
858.846	18.94
859.02	-5.63
859.195	10.75
859.369	104.96
859.543	51.71
859.718	12.8
859.892	72.19
860.066	72.19
860.241	-11.78
860.415	53.76
860.589	49.66
860.763	90.62
860.938	37.38
861.112	-13.82
861.286	72.19
861.46	78.33
861.634	16.9
861.808	20.99
861.982	43.52
862.157	45.57
862.331	-17.92
862.505	59.9
862.679	53.76
862.853	39.42
863.027	6.66
863.201	76.29
863.375	-19.97
863.549	43.52
863.722	66.05
863.896	121.34
864.07	59.9
864.244	20.99
864.418	41.47
864.592	90.62
864.766	61.95
864.939	55.81
865.113	45.57
865.287	137.73
865.461	35.33
865.634	-28.16
865.808	-24.06
865.982	-28.16
866.156	12.8
866.329	39.42
866.503	70.14
866.676	64
866.85	51.71
867.024	53.76
867.197	47.62
867.371	100.86
867.544	47.62
867.718	92.67
867.891	35.33
868.065	18.94
868.238	51.71
868.412	43.52
868.585	33.28
868.759	70.14
868.932	-52.74
869.105	14.85
869.279	27.14
869.452	64
869.625	27.14
869.799	88.57
869.972	8.7
870.145	25.09
870.319	127.49
870.492	100.86
870.665	-32.26
870.838	14.85
871.011	45.57
871.185	57.86
871.358	29.18
871.531	8.7
871.704	70.14
871.877	33.28
872.05	35.33
872.223	0.51
872.396	20.99
872.569	139.77
872.742	-13.82
872.915	-13.82
873.088	2.56
873.261	78.33
873.434	29.18
873.607	0.51
873.78	41.47
873.953	18.94
874.126	33.28
874.299	102.91
874.471	25.09
874.644	64
874.817	31.23
874.99	61.95
875.163	-28.16
875.335	61.95
875.508	-5.63
875.681	152.06
875.853	4.61
876.026	43.52
876.199	86.53
876.371	53.76
876.544	-3.58
876.717	57.86
876.889	20.99
877.062	51.71
877.234	90.62
877.407	18.94
877.579	43.52
877.752	27.14
877.924	-3.58
878.097	25.09
878.269	53.76
878.442	47.62
878.614	6.66
878.786	66.05
878.959	98.81
879.131	66.05
879.303	4.61
879.476	-7.68
879.648	20.99
879.82	49.66
879.993	18.94
880.165	18.94
880.337	-28.16
880.509	31.23
880.681	-13.82
880.854	14.85
881.026	96.77
881.198	49.66
881.37	16.9
881.542	35.33
881.714	61.95
881.886	35.33
882.058	41.47
882.23	18.94
882.402	41.47
882.574	82.43
882.746	45.57
882.918	61.95
883.09	49.66
883.262	-3.58
883.434	43.52
883.606	18.94
883.778	29.18
883.95	18.94
884.122	47.62
884.293	88.57
884.465	35.33
884.637	76.29
884.809	-24.06
884.98	45.57
885.152	4.61
885.324	12.8
885.496	6.66
885.667	12.8
885.839	59.9
886.011	33.28
886.182	4.61
886.354	2.56
886.525	0.51
886.697	-24.06
886.869	29.18
887.04	53.76
887.212	-3.58
887.383	43.52
887.555	88.57
887.726	51.71
887.897	10.75
888.069	47.62
888.24	74.24
888.412	100.86
888.583	2.56
888.754	-30.21
888.926	0.51
889.097	33.28
889.268	-38.4
889.44	14.85
889.611	-52.74
889.782	72.19
889.953	-22.02
890.125	86.53
890.296	20.99
890.467	72.19
890.638	35.33
890.809	20.99
890.98	-17.92
891.151	51.71
891.323	12.8
891.494	55.81
891.665	37.38
891.836	94.72
892.007	0.51
892.178	90.62
892.349	-1.54
892.52	59.9
892.691	-48.64
892.862	14.85
893.032	14.85
893.203	-38.4
893.374	37.38
893.545	37.38
893.716	-48.64
893.887	-42.5
894.057	59.9
894.228	55.81
894.399	-19.97
894.57	109.05
894.74	98.81
894.911	45.57
895.082	-79.36
895.253	-5.63
895.423	-1.54
895.594	61.95
895.764	-3.58
895.935	0.51
896.106	6.66
896.276	16.9
896.447	-24.06
896.617	84.48
896.788	-24.06
896.958	20.99
897.129	31.23
897.299	41.47
897.47	53.76
897.64	72.19
897.81	59.9
897.981	20.99
898.151	49.66
898.322	84.48
898.492	20.99
898.662	31.23
898.832	-69.12
899.003	47.62
899.173	23.04
899.343	-15.87
899.513	-11.78
