Data from USB4F104151__195__11-09-52-741.txt Node

Date: Wed Mar 12 11:09:52 EDT 2025
User: louis
Spectrometer: USB4F10415
Trigger mode: 4
Integration Time (sec): 2.000000E-2
Scans to average: 1
Electric dark correction enabled: true
Nonlinearity correction enabled: false
Boxcar width: 0
XAxis mode: Wavelengths
Number of Pixels in Spectrum: 3648
>>>>>Begin Spectral Data<<<<<
178.204	-66.9
178.424	-66.9
178.644	-66.9
178.864	-83.28
179.084	-68.95
179.304	19.11
179.524	-17.75
179.744	37.55
179.964	23.21
180.184	39.59
180.404	-42.32
180.624	-27.99
180.844	-50.52
181.064	27.31
181.283	6.83
181.503	-23.89
181.723	8.87
181.943	-32.08
182.163	41.64
182.383	-13.65
182.602	-9.56
182.822	25.26
183.042	8.87
183.262	6.83
183.482	4.78
183.701	-30.04
183.921	-42.32
184.141	-21.85
184.361	78.51
184.58	-23.89
184.8	12.97
185.02	-38.23
185.239	-40.28
185.459	8.87
185.679	53.93
185.898	-56.66
186.118	-40.28
186.338	-81.24
186.557	-46.42
186.777	-7.51
186.997	-48.47
187.216	25.26
187.436	8.87
187.655	-9.56
187.875	43.69
188.095	62.12
188.314	-23.89
188.534	80.55
188.753	-5.46
188.973	43.69
189.192	15.02
189.412	-21.85
189.631	-13.65
189.851	-11.61
190.07	47.79
190.29	-13.65
190.509	-62.8
190.729	-3.41
190.948	51.88
191.168	72.36
191.387	6.83
191.607	-7.51
191.826	-21.85
192.045	-13.65
192.265	39.59
192.484	-46.42
192.704	-25.94
192.923	-21.85
193.142	19.11
193.362	51.88
193.581	4.78
193.8	-5.46
194.02	-30.04
194.239	-5.46
194.458	35.5
194.678	-7.51
194.897	27.31
195.116	-44.37
195.335	-13.65
195.555	-30.04
195.774	17.07
195.993	-25.94
196.212	-79.19
196.432	23.21
196.651	51.88
196.87	-32.08
197.089	-13.65
197.308	-85.33
197.528	49.83
197.747	-11.61
197.966	-46.42
198.185	55.98
198.404	-36.18
198.623	-9.56
198.842	31.4
199.062	8.87
199.281	55.98
199.5	-11.61
199.719	0.68
199.938	35.5
200.157	74.41
200.376	-21.85
200.595	2.73
200.814	-9.56
201.033	-25.94
201.252	0.68
201.471	-5.46
201.69	-9.56
201.909	8.87
202.128	31.4
202.347	25.26
202.566	-15.7
202.785	27.31
203.004	-60.76
203.223	6.83
203.442	-19.8
203.661	-21.85
203.879	58.03
204.098	86.7
204.317	-21.85
204.536	86.7
204.755	-3.41
204.974	-17.75
205.193	-54.61
205.411	80.55
205.63	45.74
205.849	39.59
206.068	-58.71
206.287	-9.56
206.505	8.87
206.724	-23.89
206.943	-7.51
207.162	35.5
207.381	-60.76
207.599	-54.61
207.818	-5.46
208.037	-17.75
208.255	-54.61
208.474	39.59
208.693	25.26
208.911	19.11
209.13	-27.99
209.349	19.11
209.567	74.41
209.786	76.46
210.005	-52.56
210.223	-3.41
210.442	-68.95
210.661	-19.8
210.879	-107.86
211.098	-85.33
211.316	-36.18
211.535	35.5
211.753	-3.41
211.972	-7.51
212.191	-32.08
212.409	-40.28
212.628	2.73
212.846	-9.56
213.065	-15.7
213.283	15.02
213.502	68.27
213.72	66.22
213.938	-50.52
214.157	4.78
214.375	35.5
214.594	10.92
214.812	-54.61
215.031	-62.8
215.249	-32.08
215.467	-17.75
215.686	-44.37
215.904	-120.15
216.122	23.21
216.341	76.46
216.559	-75.09
216.778	-7.51
216.996	-5.46
217.214	-25.94
217.432	37.55
217.651	-1.37
217.869	-15.7
218.087	58.03
218.306	-75.09
218.524	-23.89
218.742	-32.08
218.96	-1.37
219.179	23.21
219.397	-48.47
219.615	39.59
219.833	19.11
220.051	-32.08
220.27	53.93
220.488	-13.65
220.706	47.79
220.924	-60.76
221.142	-21.85
221.36	27.31
221.578	25.26
221.796	-17.75
222.015	-21.85
222.233	-15.7
222.451	-25.94
222.669	-42.32
222.887	39.59
223.105	12.97
223.323	-13.65
223.541	17.07
223.759	-34.13
223.977	10.92
224.195	25.26
224.413	-19.8
224.631	23.21
224.849	-15.7
225.067	-54.61
225.285	-30.04
225.503	21.16
225.721	-40.28
225.939	62.12
226.157	29.35
226.375	23.21
226.592	-58.71
226.81	-5.46
227.028	-11.61
227.246	70.31
227.464	-3.41
227.682	-11.61
227.9	15.02
228.117	21.16
228.335	-15.7
228.553	-13.65
228.771	23.21
228.989	-42.32
229.206	-17.75
229.424	27.31
229.642	-58.71
229.86	-62.8
230.077	2.73
230.295	-77.14
230.513	15.02
230.731	-25.94
230.948	31.4
231.166	115.37
231.384	8.87
231.601	0.68
231.819	66.22
232.037	-38.23
232.254	15.02
232.472	8.87
232.689	-46.42
232.907	41.64
233.125	-64.85
233.342	29.35
233.56	35.5
233.777	29.35
233.995	-46.42
234.213	-9.56
234.43	-71
234.648	-19.8
234.865	-64.85
235.083	68.27
235.3	-60.76
235.518	25.26
235.735	55.98
235.953	-44.37
236.17	-32.08
236.388	6.83
236.605	-1.37
236.822	-50.52
237.04	10.92
237.257	12.97
237.475	-79.19
237.692	58.03
237.909	-42.32
238.127	47.79
238.344	-36.18
238.562	-48.47
238.779	-5.46
238.996	-1.37
239.214	47.79
239.431	-15.7
239.648	4.78
239.865	-34.13
240.083	-21.85
240.3	53.93
240.517	-19.8
240.735	51.88
240.952	-40.28
241.169	-34.13
241.386	78.51
241.603	29.35
241.821	-38.23
242.038	127.66
242.255	47.79
242.472	-48.47
242.689	31.4
242.907	21.16
243.124	-58.71
243.341	-11.61
243.558	43.69
243.775	-38.23
243.992	-34.13
244.209	4.78
244.426	64.17
244.643	33.45
244.86	6.83
245.078	-9.56
245.295	-81.24
245.512	-58.71
245.729	6.83
245.946	27.31
246.163	37.55
246.38	-3.41
246.597	-93.52
246.814	-17.75
247.031	19.11
247.248	10.92
247.464	-52.56
247.681	43.69
247.898	-77.14
248.115	-95.57
248.332	2.73
248.549	6.83
248.766	-15.7
248.983	6.83
249.2	-11.61
249.417	-11.61
249.633	-85.33
249.85	23.21
250.067	8.87
250.284	12.97
250.501	-5.46
250.717	25.26
250.934	-27.99
251.151	-1.37
251.368	33.45
251.585	17.07
251.801	-38.23
252.018	-38.23
252.235	-19.8
252.451	-32.08
252.668	31.4
252.885	-91.48
253.102	-23.89
253.318	-21.85
253.535	-23.89
253.752	-32.08
253.968	43.69
254.185	-52.56
254.401	43.69
254.618	47.79
254.835	-66.9
255.051	-40.28
255.268	-60.76
255.484	-3.41
255.701	-34.13
255.917	-73.04
256.134	-38.23
256.351	-44.37
256.567	62.12
256.784	0.68
257	-11.61
257.217	-64.85
257.433	17.07
257.65	-3.41
257.866	23.21
258.082	-17.75
258.299	-19.8
258.515	107.18
258.732	4.78
258.948	-15.7
259.165	-32.08
259.381	-91.48
259.597	-13.65
259.814	-42.32
260.03	-54.61
260.246	47.79
260.463	0.68
260.679	23.21
260.895	-46.42
261.112	-19.8
261.328	55.98
261.544	-40.28
261.761	55.98
261.977	23.21
262.193	-23.89
262.409	-15.7
262.626	12.97
262.842	-13.65
263.058	-64.85
263.274	-38.23
263.49	37.55
263.707	-11.61
263.923	-15.7
264.139	-42.32
264.355	78.51
264.571	2.73
264.787	51.88
265.004	51.88
265.22	-66.9
265.436	53.93
265.652	0.68
265.868	31.4
266.084	53.93
266.3	-30.04
266.516	-101.72
266.732	-19.8
266.948	2.73
267.164	35.5
267.38	-21.85
267.596	-30.04
267.812	94.89
268.028	17.07
268.244	-19.8
268.46	43.69
268.676	-13.65
268.892	17.07
269.108	41.64
269.324	-50.52
269.54	-13.65
269.756	47.79
269.972	-21.85
270.188	29.35
270.403	-3.41
270.619	-62.8
270.835	-62.8
271.051	-54.61
271.267	-91.48
271.483	-81.24
271.698	29.35
271.914	-21.85
272.13	-21.85
272.346	43.69
272.562	-9.56
272.777	-5.46
272.993	-32.08
273.209	31.4
273.425	-21.85
273.64	-107.86
273.856	33.45
274.072	4.78
274.287	62.12
274.503	76.46
274.719	-38.23
274.934	19.11
275.15	-34.13
275.366	-27.99
275.581	66.22
275.797	45.74
276.012	-38.23
276.228	-42.32
276.444	-11.61
276.659	-50.52
276.875	39.59
277.09	23.21
277.306	62.12
277.521	8.87
277.737	2.73
277.952	23.21
278.168	-1.37
278.383	-23.89
278.599	8.87
278.814	4.78
279.03	-5.46
279.245	72.36
279.461	-5.46
279.676	6.83
279.892	-3.41
280.107	-77.14
280.322	29.35
280.538	23.21
280.753	-68.95
280.969	35.5
281.184	-9.56
281.399	33.45
281.615	39.59
281.83	47.79
282.045	45.74
282.26	47.79
282.476	17.07
282.691	-27.99
282.906	-46.42
283.122	-56.66
283.337	-1.37
283.552	-7.51
283.767	-15.7
283.983	82.6
284.198	-34.13
284.413	-9.56
284.628	-1.37
284.843	-11.61
285.058	-77.14
285.274	10.92
285.489	-13.65
285.704	6.83
285.919	-1.37
286.134	-19.8
286.349	-13.65
286.564	-5.46
286.779	-32.08
286.995	-19.8
287.21	8.87
287.425	-46.42
287.64	0.68
287.855	80.55
288.07	-54.61
288.285	-21.85
288.5	43.69
288.715	17.07
288.93	-42.32
289.145	37.55
289.36	-1.37
289.575	-46.42
289.79	-103.76
290.004	-7.51
290.219	-5.46
290.434	4.78
290.649	-3.41
290.864	-42.32
291.079	10.92
291.294	-1.37
291.509	60.07
291.724	-5.46
291.938	-5.46
292.153	-48.47
292.368	-3.41
292.583	-17.75
292.798	39.59
293.012	-23.89
293.227	-40.28
293.442	-73.04
293.657	6.83
293.871	8.87
294.086	25.26
294.301	43.69
294.516	10.92
294.73	-15.7
294.945	-27.99
295.16	10.92
295.374	6.83
295.589	-23.89
295.804	-17.75
296.018	25.26
296.233	-17.75
296.447	8.87
296.662	-52.56
296.877	55.98
297.091	0.68
297.306	-9.56
297.52	-52.56
297.735	47.79
297.949	17.07
298.164	-7.51
298.378	-79.19
298.593	78.51
298.807	-3.41
299.022	-5.46
299.236	27.31
299.451	-54.61
299.665	15.02
299.88	-9.56
300.094	25.26
300.309	-97.62
300.523	-48.47
300.737	10.92
300.952	10.92
301.166	-1.37
301.381	-105.81
301.595	33.45
301.809	-19.8
302.024	6.83
302.238	-21.85
302.452	-1.37
302.667	-5.46
302.881	23.21
303.095	-38.23
303.309	39.59
303.524	-56.66
303.738	-5.46
303.952	-40.28
304.166	2.73
304.381	-32.08
304.595	35.5
304.809	86.7
305.023	-15.7
305.237	-27.99
305.452	-21.85
305.666	-11.61
305.88	-3.41
306.094	-60.76
306.308	-30.04
306.522	-25.94
306.736	-13.65
306.95	10.92
307.164	-9.56
307.379	-32.08
307.593	55.98
307.807	31.4
308.021	12.97
308.235	10.92
308.449	-13.65
308.663	58.03
308.877	27.31
309.091	8.87
309.305	45.74
309.519	-52.56
309.733	-7.51
309.947	-42.32
310.161	-19.8
310.374	-52.56
310.588	-13.65
310.802	43.69
311.016	27.31
311.23	-71
311.444	-7.51
311.658	19.11
311.872	-30.04
312.085	17.07
312.299	-17.75
312.513	41.64
312.727	-40.28
312.941	-44.37
313.154	45.74
313.368	0.68
313.582	51.88
313.796	-60.76
314.009	-15.7
314.223	45.74
314.437	4.78
314.651	4.78
314.864	-9.56
315.078	6.83
315.292	8.87
315.505	29.35
315.719	19.11
315.933	23.21
316.146	-3.41
316.36	23.21
316.573	29.35
316.787	-25.94
317.001	-60.76
317.214	-17.75
317.428	-30.04
317.641	12.97
317.855	-46.42
318.068	0.68
318.282	39.59
318.495	96.94
318.709	98.99
318.922	23.21
319.136	19.11
319.349	19.11
319.563	-52.56
319.776	70.31
319.99	-21.85
320.203	-23.89
320.417	-3.41
320.63	39.59
320.843	51.88
321.057	60.07
321.27	21.16
321.483	37.55
321.697	27.31
321.91	-23.89
322.124	-32.08
322.337	64.17
322.55	43.69
322.763	-32.08
322.977	23.21
323.19	-32.08
323.403	15.02
323.617	12.97
323.83	23.21
324.043	-52.56
324.256	23.21
324.469	-32.08
324.683	45.74
324.896	31.4
325.109	37.55
325.322	-3.41
325.535	8.87
325.748	-19.8
325.962	6.83
326.175	33.45
326.388	86.7
326.601	43.69
326.814	4.78
327.027	-15.7
327.24	21.16
327.453	-7.51
327.666	0.68
327.879	-30.04
328.092	-42.32
328.305	-5.46
328.518	68.27
328.731	0.68
328.944	-27.99
329.157	-9.56
329.37	-7.51
329.583	12.97
329.796	39.59
330.009	-25.94
330.222	-60.76
330.435	-23.89
330.648	39.59
330.861	-9.56
331.073	-48.47
331.286	55.98
331.499	29.35
331.712	-30.04
331.925	-19.8
332.138	-54.61
332.35	27.31
332.563	10.92
332.776	-30.04
332.989	-36.18
333.202	-42.32
333.414	-7.51
333.627	55.98
333.84	-9.56
334.053	25.26
334.265	37.55
334.478	-50.52
334.691	-87.38
334.903	23.21
335.116	-21.85
335.329	-50.52
335.541	-23.89
335.754	10.92
335.966	-54.61
336.179	-15.7
336.392	-15.7
336.604	-21.85
336.817	0.68
337.029	-13.65
337.242	-32.08
337.454	41.64
337.667	53.93
337.88	23.21
338.092	0.68
338.305	-42.32
338.517	37.55
338.729	8.87
338.942	51.88
339.154	-9.56
339.367	-27.99
339.579	-36.18
339.792	-5.46
340.004	31.4
340.217	-46.42
340.429	31.4
340.641	64.17
340.854	66.22
341.066	60.07
341.278	-32.08
341.491	45.74
341.703	8.87
341.915	-130.39
342.128	12.97
342.34	10.92
342.552	0.68
342.764	-13.65
342.977	-30.04
343.189	-1.37
343.401	55.98
343.613	-17.75
343.826	31.4
344.038	19.11
344.25	-9.56
344.462	12.97
344.674	-15.7
344.886	-27.99
345.099	60.07
345.311	-19.8
345.523	-5.46
345.735	12.97
345.947	-3.41
346.159	37.55
346.371	-34.13
346.583	-32.08
346.795	12.97
347.007	-58.71
347.219	-7.51
347.431	-7.51
347.643	41.64
347.855	-40.28
348.067	17.07
348.279	-40.28
348.491	35.5
348.703	23.21
348.915	-5.46
349.127	-13.65
349.339	72.36
349.551	-42.32
349.763	-11.61
349.975	88.75
350.187	47.79
350.399	31.4
350.61	-36.18
350.822	-17.75
351.034	-1.37
351.246	-13.65
351.458	15.02
351.669	-27.99
351.881	0.68
352.093	8.87
352.305	6.83
352.517	-30.04
352.728	78.51
352.94	12.97
353.152	72.36
353.363	-54.61
353.575	-7.51
353.787	-7.51
353.999	10.92
354.21	-19.8
354.422	4.78
354.633	-32.08
354.845	55.98
355.057	-15.7
355.268	55.98
355.48	19.11
355.692	-32.08
355.903	-34.13
356.115	-9.56
356.326	25.26
356.538	31.4
356.749	4.78
356.961	8.87
357.172	49.83
357.384	39.59
357.595	10.92
357.807	6.83
358.018	-34.13
358.23	51.88
358.441	15.02
358.653	23.21
358.864	-27.99
359.075	-50.52
359.287	2.73
359.498	33.45
359.709	31.4
359.921	-11.61
360.132	-13.65
360.344	60.07
360.555	10.92
360.766	45.74
360.977	-38.23
361.189	29.35
361.4	35.5
361.611	31.4
361.823	33.45
362.034	19.11
362.245	-62.8
362.456	-32.08
362.667	43.69
362.879	-30.04
363.09	29.35
363.301	17.07
363.512	-19.8
363.723	37.55
363.935	29.35
364.146	66.22
364.357	-27.99
364.568	-3.41
364.779	2.73
364.99	53.93
365.201	-9.56
365.412	23.21
365.623	-11.61
365.834	-34.13
366.045	-77.14
366.256	35.5
366.467	35.5
366.678	58.03
366.889	45.74
367.1	25.26
367.311	27.31
367.522	8.87
367.733	35.5
367.944	74.41
368.155	8.87
368.366	-32.08
368.577	41.64
368.788	-5.46
368.999	-34.13
369.209	-30.04
369.42	41.64
369.631	64.17
369.842	-66.9
370.053	-50.52
370.264	107.18
370.474	-9.56
370.685	-73.04
370.896	35.5
371.107	45.74
371.317	6.83
371.528	31.4
371.739	80.55
371.95	-48.47
372.16	62.12
372.371	17.07
372.582	-23.89
372.792	-15.7
373.003	27.31
373.214	17.07
373.424	-3.41
373.635	-30.04
373.846	8.87
374.056	49.83
374.267	-25.94
374.477	-58.71
374.688	15.02
374.898	45.74
375.109	-15.7
375.319	-15.7
375.53	25.26
375.74	25.26
375.951	10.92
376.161	49.83
376.372	6.83
376.582	25.26
376.793	-30.04
377.003	-60.76
377.214	60.07
377.424	-11.61
377.635	-36.18
377.845	-11.61
378.055	53.93
378.266	23.21
378.476	-7.51
378.686	-56.66
378.897	60.07
379.107	31.4
379.317	-42.32
379.528	-38.23
379.738	8.87
379.948	-19.8
380.158	17.07
380.369	31.4
380.579	64.17
380.789	58.03
380.999	58.03
381.21	92.84
381.42	17.07
381.63	-3.41
381.84	33.45
382.05	0.68
382.261	-15.7
382.471	39.59
382.681	-25.94
382.891	23.21
383.101	-15.7
383.311	-21.85
383.521	47.79
383.731	35.5
383.941	2.73
384.151	70.31
384.361	-21.85
384.571	72.36
384.781	-38.23
384.991	31.4
385.201	78.51
385.411	-23.89
385.621	39.59
385.831	-87.38
386.041	21.16
386.251	6.83
386.461	47.79
386.671	51.88
386.881	58.03
387.091	-11.61
387.301	37.55
387.511	-38.23
387.72	-7.51
387.93	41.64
388.14	-17.75
388.35	-25.94
388.56	19.11
388.769	60.07
388.979	49.83
389.189	-34.13
389.399	-42.32
389.609	64.17
389.818	27.31
390.028	-21.85
390.238	-23.89
390.447	-11.61
390.657	-13.65
390.867	66.22
391.076	45.74
391.286	2.73
391.496	55.98
391.705	51.88
391.915	-15.7
392.125	10.92
392.334	-7.51
392.544	8.87
392.753	27.31
392.963	23.21
393.172	37.55
393.382	39.59
393.591	94.89
393.801	-21.85
394.01	88.75
394.22	43.69
394.429	64.17
394.639	25.26
394.848	37.55
395.058	-13.65
395.267	-11.61
395.477	-25.94
395.686	35.5
395.895	27.31
396.105	45.74
396.314	58.03
396.524	49.83
396.733	-19.8
396.942	27.31
397.152	-1.37
397.361	49.83
397.57	23.21
397.78	-23.89
397.989	31.4
398.198	51.88
398.407	68.27
398.617	49.83
398.826	49.83
399.035	33.45
399.244	84.65
399.453	76.46
399.663	12.97
399.872	146.09
400.081	-7.51
400.29	43.69
400.499	23.21
400.708	113.32
400.917	29.35
401.127	33.45
401.336	64.17
401.545	53.93
401.754	23.21
401.963	39.59
402.172	4.78
402.381	33.45
402.59	41.64
402.799	107.18
403.008	68.27
403.217	78.51
403.426	76.46
403.635	37.55
403.844	96.94
404.053	37.55
404.262	103.08
404.471	-19.8
404.68	19.11
404.888	111.27
405.097	33.45
405.306	49.83
405.515	35.5
405.724	58.03
405.933	74.41
406.142	115.37
406.35	127.66
406.559	105.13
406.768	117.42
406.977	49.83
407.185	58.03
407.394	55.98
407.603	55.98
407.812	127.66
408.02	141.99
408.229	80.55
408.438	96.94
408.646	39.59
408.855	187.05
409.064	98.99
409.272	82.6
409.481	119.46
409.69	152.23
409.898	148.14
410.107	107.18
410.315	185
410.524	107.18
410.733	182.95
410.941	135.85
411.15	135.85
411.358	240.3
411.567	187.05
411.775	209.58
411.984	242.34
412.192	174.76
412.401	248.49
412.609	250.53
412.818	338.6
413.026	264.87
413.234	240.3
413.443	283.3
413.651	303.78
413.86	264.87
414.068	320.17
414.276	395.94
414.485	316.07
414.693	295.59
414.901	465.57
415.11	301.73
415.318	395.94
415.526	397.99
415.734	447.14
415.943	348.84
416.151	465.57
416.359	471.72
416.567	484
416.776	486.05
416.984	588.45
417.192	570.02
417.4	488.1
417.608	559.78
417.817	514.72
418.025	621.22
418.233	596.64
418.441	690.85
418.649	651.94
418.857	615.07
419.065	746.14
419.273	660.13
419.481	742.05
419.689	803.49
419.897	797.34
420.105	742.05
420.313	799.39
420.521	850.59
420.729	813.73
420.937	940.7
421.145	1002.14
421.353	975.52
421.561	1057.43
421.769	1012.38
421.977	1141.4
422.185	1045.15
422.393	1208.98
422.601	1299.09
422.809	1178.26
423.017	1243.8
423.224	1327.77
423.432	1346.2
423.64	1333.91
423.848	1479.32
424.056	1473.17
424.263	1489.56
424.471	1522.32
424.679	1458.84
424.887	1684.11
425.094	1731.22
425.302	1684.11
425.51	1698.45
425.718	1913.49
425.925	1893.01
426.133	1931.92
426.341	1950.35
426.548	2136.71
426.756	2099.85
426.964	2062.99
427.171	2284.17
427.379	2384.52
427.586	2263.69
427.794	2423.43
428.001	2654.85
428.209	2654.85
428.417	2751.1
428.624	2781.82
428.832	2796.16
429.039	2886.27
429.247	2777.73
429.454	3021.44
429.662	3228.28
429.869	3177.08
430.076	3244.67
430.284	3175.03
430.491	3246.71
430.699	3474.04
430.906	3535.48
431.114	3502.71
431.321	3766.9
431.528	3938.93
431.736	3908.21
431.943	4250.22
432.15	4031.09
432.358	4110.96
432.565	4328.04
432.772	4270.7
432.979	4696.68
433.187	4536.93
433.394	4737.63
433.601	4962.91
433.808	4944.48
434.016	4924
434.223	5163.61
434.43	5362.26
434.637	5489.24
434.844	5659.22
435.052	5749.33
435.259	5771.86
435.466	5798.48
435.673	5681.75
435.88	6132.3
436.087	6406.73
436.294	6578.76
436.501	6339.15
436.708	6494.79
436.915	6677.06
437.122	7039.55
437.329	6849.09
437.537	7117.37
437.743	7230.01
437.95	7209.53
438.157	7651.89
438.364	7926.32
438.571	7848.5
438.778	8043.06
438.985	8694.31
439.192	8311.34
439.399	8624.68
439.606	8227.37
439.813	8677.93
440.02	9245.21
440.227	9134.62
440.433	9040.42
440.64	9288.22
440.847	9320.99
441.054	9468.44
441.261	10177.04
441.467	10019.35
441.674	10299.92
441.881	10504.71
442.088	10650.12
442.294	10607.11
442.501	10721.8
442.708	11045.38
442.914	11387.39
443.121	11803.13
443.328	11680.25
443.534	12339.69
443.741	12034.55
443.948	11956.72
444.154	12675.56
444.361	12646.89
444.568	12683.75
444.774	12906.98
444.981	12827.11
445.187	13281.76
445.394	13666.78
445.6	13887.96
445.807	14627.28
446.013	14205.39
446.22	14518.73
446.426	14899.66
446.633	15215.04
446.839	15729.08
447.046	15247.81
447.252	15815.1
447.459	16144.82
447.665	16064.95
447.871	16525.74
448.078	17168.8
448.284	16503.21
448.491	16834.99
448.697	17676.7
448.903	18055.58
449.11	17789.34
449.316	17306.02
449.522	17922.46
449.728	18534.8
449.935	18520.46
450.141	18182.55
450.347	18782.6
450.553	18534.8
450.76	18383.25
450.966	19014.02
451.172	18743.69
451.378	19030.41
451.584	19024.26
451.791	19378.56
451.997	19407.23
452.203	19550.59
452.409	19612.03
452.615	19380.61
452.821	18835.85
453.027	18534.8
453.233	19825.02
453.44	18561.42
453.646	19167.62
453.852	18985.35
454.058	19220.87
454.264	18536.85
454.47	18817.42
454.676	18538.9
454.882	19417.47
455.088	17820.06
455.294	17838.49
455.5	17998.23
455.705	18194.84
455.911	17398.18
456.117	17213.86
456.323	16800.17
456.529	16015.8
456.735	16566.7
456.941	16296.37
457.147	16001.46
457.352	15475.13
457.558	15208.9
457.764	15151.56
457.97	15016.39
458.176	14629.32
458.381	14705.1
458.587	14178.77
458.793	13803.99
458.999	13128.16
459.204	14170.58
459.41	13904.34
459.616	12947.94
459.821	12630.51
460.027	12747.24
460.233	12671.47
460.438	11903.48
460.644	12251.63
460.85	11553.27
461.055	11414.01
461.261	11098.63
461.466	10424.84
461.672	10035.73
461.878	10807.81
462.083	10308.11
462.289	10097.17
462.494	10002.96
462.7	9480.73
462.905	8983.07
463.111	9398.81
463.316	9562.65
463.522	9306.65
463.727	9536.03
463.932	9224.73
464.138	9169.44
464.343	9243.17
464.549	9038.37
464.754	9419.29
464.959	9269.79
465.165	9148.96
465.37	8858.15
465.575	8518.18
465.781	8983.07
465.986	9116.19
466.191	8532.52
466.397	8530.47
466.602	8006.19
466.807	8454.7
467.012	8436.27
467.218	8473.13
467.423	8221.23
467.628	8462.89
467.833	8639.01
468.038	8249.9
468.244	7899.7
468.449	8350.25
468.654	8147.5
468.859	8073.78
469.064	8102.45
469.269	7758.39
469.474	7727.67
469.679	7924.27
469.885	7606.84
470.09	7856.69
470.295	7684.66
470.5	7443
470.705	7600.69
470.91	7434.81
471.115	7309.88
471.32	7406.14
471.525	7363.13
471.73	7281.21
471.935	7174.72
472.139	6947.39
472.344	6865.47
472.549	6781.51
472.754	6822.47
472.959	6980.16
473.164	6562.37
473.369	6482.5
473.574	6853.19
473.778	6701.64
473.983	6632.01
474.188	6578.76
474.393	6470.22
474.598	6265.42
474.802	6134.35
475.007	6218.32
475.212	6302.28
475.417	6079.05
475.621	6056.53
475.826	5974.61
476.031	5782.1
476.235	5941.84
476.44	5904.98
476.645	5872.21
476.849	5675.6
477.054	5565.01
477.259	5726.8
477.463	5644.88
477.668	5673.56
477.872	5362.26
478.077	5368.41
478.282	5315.16
478.486	5440.09
478.691	5208.67
478.895	5323.35
479.1	5122.65
479.304	5356.12
479.509	4995.68
479.713	5180
479.918	5159.52
480.122	5053.02
480.326	4977.25
480.531	4962.91
480.735	4911.71
480.94	4856.42
481.144	5098.08
481.348	4940.38
481.553	4895.33
481.757	4788.83
481.961	4868.7
482.166	4893.28
482.37	4725.35
482.574	4846.18
482.778	4762.21
482.983	4991.58
483.187	4866.66
483.391	4862.56
483.595	4846.18
483.8	4688.48
484.004	4719.2
484.208	4780.64
484.412	4928.1
484.616	4964.96
484.821	4788.83
485.025	4770.4
485.229	4754.02
485.433	4831.84
485.637	4717.15
485.841	4936.29
486.045	4762.21
486.249	4919.9
486.453	4743.78
486.657	4835.94
486.861	4784.74
487.065	4663.91
487.269	4794.98
487.473	4741.73
487.677	4751.97
487.881	4940.38
488.085	4733.54
488.289	4727.39
488.493	4823.65
488.697	4860.51
488.901	4784.74
489.105	4772.45
489.309	4930.14
489.512	4840.03
489.716	4819.55
489.92	4794.98
490.124	4860.51
490.328	4973.15
490.531	4942.43
490.735	4954.72
490.939	5010.01
491.143	4827.74
491.346	4973.15
491.55	4971.1
491.754	4952.67
491.958	4989.53
492.161	5057.12
492.365	5044.83
492.569	4975.2
492.772	5075.55
492.976	5130.84
493.18	5284.44
493.383	5204.57
493.587	5280.35
493.79	5392.98
493.994	5227.1
494.197	5278.3
494.401	5321.31
494.605	5259.87
494.808	5397.08
495.012	5409.37
495.215	5304.92
495.419	5620.31
495.622	5339.74
495.825	5642.84
496.029	5599.83
496.232	5769.81
496.436	5773.91
496.639	5790.29
496.843	5691.99
497.046	5970.51
497.249	6089.29
497.453	5888.59
497.656	6173.26
497.859	6060.62
498.063	6240.84
498.266	6144.59
498.469	6163.02
498.673	6339.15
498.876	6277.71
499.079	6599.24
499.282	6582.85
499.485	6484.55
499.689	6584.9
499.892	6824.51
500.095	6724.16
500.298	6988.35
500.501	6939.2
500.705	7227.96
500.908	7203.39
501.111	7236.16
501.314	7322.17
501.517	7416.38
501.72	7397.95
501.923	7324.22
502.126	7684.66
502.329	7817.78
502.532	7756.34
502.735	7832.12
502.938	7977.52
503.141	7981.62
503.344	8073.78
503.547	8145.45
503.75	8297
503.953	8387.11
504.156	8657.45
504.359	8673.83
504.562	8485.42
504.765	8792.61
504.968	8899.11
505.17	8970.79
505.373	9011.75
505.576	9200.16
505.779	9273.89
505.982	9067.04
506.185	9474.59
506.387	9462.3
506.59	9558.55
506.793	9810.45
506.996	9652.76
507.198	9996.82
507.401	10052.11
507.604	10138.13
507.807	10234.38
508.009	10363.4
508.212	10553.87
508.415	10594.83
508.617	10775.05
508.82	10871.3
509.022	10603.02
509.225	11090.43
509.428	11100.67
509.63	11330.05
509.833	11201.02
510.035	11766.26
510.238	11532.79
510.44	11526.65
510.643	11819.51
510.845	11848.18
511.048	12012.02
511.25	12014.07
511.453	12245.49
511.655	12491.24
511.858	12474.86
512.06	12614.12
512.262	12788.2
512.465	12677.61
512.667	13091.3
512.87	13310.43
513.072	13132.26
513.274	13459.93
513.477	13455.84
513.679	13582.81
513.881	13861.34
514.084	13879.77
514.286	13916.63
514.488	14197.2
514.69	14549.45
514.893	14393.81
515.095	14465.49
515.297	14932.42
515.499	15020.49
515.701	15059.4
515.904	15069.64
516.106	15208.9
516.308	15307.2
516.51	15694.27
516.712	15587.77
516.914	16038.33
517.116	16300.47
517.318	16050.61
517.52	16519.6
517.722	16464.3
517.925	16497.07
518.127	16990.63
518.329	17084.84
518.531	16951.72
518.733	17480.1
518.935	17641.89
519.136	17688.99
519.338	17703.32
519.54	17822.11
519.742	18170.26
519.944	18110.87
520.146	18624.91
520.348	18538.9
520.55	18805.13
520.752	19147.14
520.954	19110.28
521.155	19054.98
521.357	19333.51
521.559	19519.87
521.761	20119.93
521.963	19794.3
522.164	19970.43
522.366	20306.29
522.568	20183.41
522.77	20390.26
522.971	20869.48
523.173	20629.87
523.375	20879.72
523.576	20803.95
523.778	20799.85
523.98	21369.19
524.181	21377.38
524.383	21655.9
524.584	21750.11
524.786	21762.4
524.988	21823.84
525.189	22296.92
525.391	22376.79
525.592	22184.28
525.794	22505.81
525.995	22393.17
526.197	22751.57
526.398	23011.66
526.6	23079.24
526.801	22982.99
527.003	23083.34
527.204	23220.55
527.406	23361.86
527.607	23187.78
527.808	23513.41
528.01	23114.06
528.211	23624
528.412	24127.8
528.614	23955.77
528.815	23828.8
529.016	24183.1
529.218	24013.12
529.419	24109.37
529.62	24185.15
529.822	24150.33
530.023	24248.63
530.224	24332.6
530.425	24457.53
530.626	24238.39
530.828	24179
531.029	24811.82
531.23	24582.45
531.431	24762.67
531.632	24719.67
531.833	24660.27
532.035	24539.44
532.236	24955.18
532.437	25125.16
532.638	24779.06
532.839	25116.97
533.04	25086.25
533.241	24799.54
533.442	25471.27
533.643	25270.57
533.844	25053.48
534.045	25481.51
534.246	24865.07
534.447	25266.47
534.648	24760.62
534.849	25305.38
535.05	25131.31
535.251	25475.37
535.451	25149.74
535.652	25526.57
535.853	25280.81
536.054	25229.61
536.255	25526.57
536.456	25289
536.657	25522.47
536.857	25182.51
537.058	25399.59
537.259	25256.23
537.46	25465.13
537.66	24910.13
537.861	25430.31
538.062	25178.41
538.263	25628.96
538.463	25366.82
538.664	25438.5
538.865	25456.93
539.065	25514.28
539.266	25213.23
539.466	25508.13
539.667	25428.26
539.868	25438.5
540.068	25772.32
540.269	25377.06
540.469	25633.06
540.67	25454.89
540.87	25631.01
541.071	25411.88
541.271	25489.7
541.472	25354.54
541.672	25338.15
541.873	25397.54
542.073	24881.45
542.274	25563.43
542.474	25401.64
542.675	25143.6
542.875	25428.26
543.075	25385.26
543.276	25229.61
543.476	25510.18
543.676	25399.59
543.877	25284.9
544.077	25280.81
544.277	25506.09
544.478	25076.01
544.678	25452.84
544.878	25327.91
545.078	25430.31
545.279	25139.5
545.479	25231.66
545.679	25104.68
545.879	25422.12
546.079	25250.09
546.28	25100.59
546.48	25233.71
546.68	25411.88
546.88	25262.38
547.08	25090.35
547.28	25436.45
547.48	24860.98
547.68	25329.96
547.88	25315.62
548.081	25422.12
548.281	25223.47
548.481	25258.28
548.681	25473.32
548.881	25243.95
549.081	25461.03
549.28	25057.58
549.48	25317.67
549.68	25209.13
549.88	25618.72
550.08	24879.41
550.28	25280.81
550.48	25037.1
550.68	25491.75
550.88	25010.48
551.08	25162.03
551.279	25035.05
551.479	24914.22
551.679	25121.07
551.879	25270.57
552.079	25088.3
552.278	25264.43
552.478	25119.02
552.678	25309.48
552.878	25076.01
553.077	25067.82
553.277	24787.25
553.477	25282.86
553.676	24828.21
553.876	24789.3
554.076	24791.34
554.275	24942.89
554.475	24738.1
554.674	24979.76
554.874	24545.59
555.074	24908.08
555.273	25030.96
555.473	24959.28
555.672	24871.22
555.872	24693.04
556.071	24426.81
556.271	24946.99
556.47	24375.61
556.67	24480.05
556.869	24095.03
557.068	24355.13
557.268	24404.28
557.467	24246.58
557.667	24435
557.866	24320.31
558.065	24340.79
558.265	24273.21
558.464	24193.34
558.663	24412.47
558.863	23810.37
559.062	24430.9
559.261	23929.15
559.461	24228.15
559.66	23798.08
559.859	24025.4
560.058	23900.48
560.258	24115.51
560.457	23746.88
560.656	23865.66
560.855	23902.53
561.054	23689.54
561.253	23533.89
561.453	23560.52
561.652	23761.22
561.851	23540.04
562.05	23214.41
562.249	23220.55
562.448	23435.59
562.647	23060.81
562.846	23255.37
563.045	23400.77
563.244	23036.24
563.443	23427.4
563.642	22581.59
563.841	23034.19
564.04	22679.89
564.239	23226.7
564.438	22933.84
564.637	22780.24
564.836	22880.59
565.035	22536.53
565.234	22616.4
565.432	22100.31
565.631	22241.62
565.83	22452.56
566.029	22149.46
566.228	22145.37
566.427	22030.68
566.625	22116.7
566.824	21438.82
567.023	22360.41
567.222	21645.66
567.42	22241.62
567.619	21872.99
567.818	21760.35
568.016	21668.19
568.215	22198.62
568.414	21463.4
568.612	21524.83
568.811	21479.78
569.01	21084.52
569.208	21191.02
569.407	21291.37
569.605	21070.19
569.804	21252.45
570.002	20740.46
570.201	20955.5
570.4	20787.57
570.598	20746.61
570.797	20617.58
570.995	20681.07
571.193	20482.42
571.392	20801.9
571.59	20281.72
571.789	20210.04
571.987	20072.82
572.186	20330.87
572.384	20173.17
572.582	20126.07
572.781	20251
572.979	19949.95
573.177	20044.15
573.376	20074.87
573.574	19687.81
573.772	20052.34
573.971	19523.97
574.169	19517.82
574.367	19618.18
574.565	19603.84
574.763	19194.25
574.962	19245.44
575.16	19165.57
575.358	19554.69
575.556	19044.74
575.754	19220.87
575.952	18790.8
576.151	19083.66
576.349	18743.69
576.547	18778.51
576.745	18905.48
576.943	18764.17
577.141	18684.3
577.339	18573.71
577.537	18854.28
577.735	18567.57
577.933	18536.85
578.131	18600.33
578.329	18291.09
578.527	18135.45
578.725	18653.58
578.923	18229.65
579.121	18082.2
579.319	17949.08
579.516	18020.76
579.714	18147.73
579.912	18002.33
580.11	17789.34
580.308	17668.51
580.506	17572.25
580.704	17369.51
580.901	17584.54
581.099	17656.22
581.297	17543.58
581.495	17600.93
581.692	17406.37
581.89	17248.68
582.088	17506.72
582.285	17060.26
582.483	17000.87
582.681	17068.45
582.878	17101.22
583.076	17037.73
583.274	17035.69
583.471	16916.9
583.669	17138.09
583.866	16712.11
584.064	17031.59
584.262	16589.23
584.459	16865.71
584.657	16472.5
584.854	16732.59
585.052	16253.36
585.249	16890.28
585.447	16656.81
585.644	16333.23
585.841	16429.49
586.039	16357.81
586.236	16224.69
586.434	15948.22
586.631	16234.93
586.828	16044.47
587.026	16171.44
587.223	15993.27
587.42	15886.78
587.618	16243.12
587.815	15755.71
588.012	15858.1
588.21	16036.28
588.407	15702.46
588.604	15634.88
588.801	15610.3
588.999	15598.01
589.196	15307.2
589.393	15616.44
589.59	15315.39
589.787	15479.23
589.984	15321.54
590.182	15075.78
590.379	15143.36
590.576	15327.68
590.773	15229.38
590.97	14969.29
591.167	15018.44
591.364	14723.53
591.561	15045.06
591.758	14748.11
591.955	14942.66
592.152	15012.29
592.349	14875.08
592.546	14744.01
592.743	14703.05
592.94	14760.39
593.137	14567.88
593.334	14750.15
593.531	14428.62
593.727	14619.08
593.924	14518.73
594.121	14191.06
594.318	14440.91
594.515	14385.62
594.712	14408.14
594.908	14135.76
595.105	14266.83
595.302	13971.93
595.499	14195.15
595.696	13912.53
595.892	14039.51
596.089	14088.66
596.286	13949.4
596.482	13832.66
596.679	13988.31
596.876	14016.98
597.072	13574.62
597.269	13642.2
597.466	13734.36
597.662	13459.93
597.859	13638.11
598.055	13584.86
598.252	13648.35
598.448	13496.8
598.645	13574.62
598.841	13314.53
599.038	13277.66
599.234	13353.44
599.431	13087.2
599.627	13244.9
599.824	13277.66
600.02	12935.65
600.217	13238.75
600.413	13105.63
600.609	13038.05
600.806	12720.62
601.002	13009.38
601.198	12829.16
601.395	12880.36
601.591	12585.45
601.787	12665.32
601.984	12841.45
602.18	12863.97
602.376	12689.9
602.572	12431.85
602.769	12634.6
602.965	12458.48
603.161	12554.73
603.357	12296.69
603.553	12466.67
603.75	12503.53
603.946	12220.91
604.142	12272.11
604.338	12155.38
604.534	12335.6
604.73	12042.74
604.926	11940.34
605.122	12147.19
605.318	12003.83
605.514	11964.92
605.71	11958.77
605.906	11913.72
606.102	11778.55
606.298	11751.93
606.494	11926
606.69	11919.86
606.886	11839.99
607.082	11473.4
607.278	11698.68
607.474	11622.91
607.67	11895.29
607.866	11391.48
608.062	11803.13
608.257	11577.85
608.453	11610.62
608.649	11489.79
608.845	11395.58
609.041	11577.85
609.236	11280.89
609.432	11399.68
609.628	11307.52
609.824	11137.54
610.019	11162.11
610.215	11469.31
610.411	11401.72
610.606	11063.81
610.802	11336.19
610.998	11268.61
611.193	11020.8
611.389	11043.33
611.584	11108.87
611.78	10908.16
611.976	11074.05
612.171	10969.6
612.367	11078.15
612.562	10660.36
612.758	10906.12
612.953	10791.43
613.149	10758.66
613.344	10801.67
613.539	10805.77
613.735	10789.38
613.93	10959.36
614.126	10641.93
614.321	10777.09
614.517	10684.94
614.712	10684.94
614.907	10551.82
615.103	10664.46
615.298	10439.18
615.493	10600.97
615.688	10428.94
615.884	10684.94
616.079	10523.15
616.274	10463.76
616.47	10334.73
616.665	10600.97
616.86	10172.94
617.055	10422.8
617.25	10281.49
617.445	10330.64
617.641	10334.73
617.836	10265.1
618.031	10199.57
618.226	10332.69
618.421	10101.26
618.616	10398.22
618.811	10037.78
619.006	10152.46
619.201	9902.61
619.396	10103.31
619.591	9863.7
619.786	10062.35
619.981	9828.88
620.176	9896.47
620.371	9869.84
620.566	9808.4
620.761	9736.73
620.956	9746.97
621.151	9624.09
621.346	9634.33
621.541	9552.41
621.735	9515.55
621.93	9372.19
622.125	9212.45
622.32	8997.41
622.515	9253.41
622.709	9267.74
622.904	9181.73
623.099	9200.16
623.294	9320.99
623.488	9028.13
623.683	8958.5
623.878	8913.44
624.072	9206.3
624.267	9157.15
624.462	8716.84
624.656	8720.93
624.851	8725.03
625.046	8628.77
625.24	8682.02
625.435	8462.89
625.629	8755.75
625.824	8503.85
626.018	8780.32
626.213	8215.09
626.407	8383.02
626.602	8186.41
626.796	8329.77
626.991	8362.54
627.185	8165.93
627.38	8133.17
627.574	7989.81
627.768	7983.66
627.963	8235.56
628.157	7952.95
628.352	7770.68
628.546	7877.17
628.74	8094.26
628.935	7887.41
629.129	7764.53
629.323	7905.84
629.517	7699
629.712	7592.5
629.906	7633.46
630.1	7391.8
630.294	7578.17
630.489	7598.65
630.683	7332.41
630.877	7410.23
631.071	7371.32
631.265	7522.87
631.459	7189.05
631.653	7162.43
631.848	7078.46
632.042	7279.16
632.236	7113.28
632.43	6963.78
632.624	7076.41
632.818	6844.99
633.012	6990.4
633.206	6984.26
633.4	6992.45
633.594	6879.81
633.788	6967.87
633.982	6816.32
634.176	6677.06
634.369	6861.38
634.563	6660.68
634.757	6578.76
634.951	6658.63
635.145	6519.37
635.339	6515.27
635.533	6572.61
635.726	6609.48
635.92	6453.83
636.114	6443.59
636.308	6337.1
636.501	6525.51
636.695	6343.24
636.889	6318.67
637.083	6361.67
637.276	6345.29
637.47	6249.04
637.664	6150.73
637.857	6212.17
638.051	6089.29
638.244	6134.35
638.438	6036.05
638.632	6126.16
638.825	5927.5
639.019	5958.22
639.212	5931.6
639.406	5872.21
639.599	5730.9
639.793	5802.58
639.986	5599.83
640.18	5841.49
640.373	5724.76
640.567	5642.84
640.76	5501.53
640.954	5616.21
641.147	5456.47
641.34	5466.71
641.534	5536.34
641.727	5440.09
641.92	5481.05
642.114	5442.14
642.307	5466.71
642.5	5255.77
642.694	5286.49
642.887	5188.19
643.08	5347.93
643.273	5147.23
643.467	5347.93
643.66	5155.42
643.853	5100.12
644.046	5096.03
644.239	5028.45
644.432	4942.43
644.626	5014.11
644.819	5048.93
645.012	5030.49
645.205	5003.87
645.398	4954.72
645.591	5050.97
645.784	4899.42
645.977	4774.5
646.17	4741.73
646.363	4807.27
646.556	4682.34
646.749	4622.95
646.942	4803.17
647.135	4713.06
647.328	4670.05
647.521	4663.91
647.714	4581.99
647.907	4670.05
648.099	4614.76
648.292	4581.99
648.485	4481.64
648.678	4383.34
648.871	4567.65
649.064	4373.1
649.256	4416.1
649.449	4383.34
649.642	4352.62
649.835	4354.66
650.027	4311.66
650.22	4280.94
650.413	4321.9
650.605	4246.12
650.798	4174.44
650.991	4076.14
651.183	4291.18
651.376	4047.47
651.568	4295.27
651.761	4102.76
651.954	4119.15
652.146	4024.94
652.339	4110.96
652.531	4076.14
652.724	3996.27
652.916	3889.78
653.109	3883.63
653.301	4076.14
653.494	4108.91
653.686	4006.51
653.879	3975.79
654.071	3889.78
654.263	3891.82
654.456	3811.95
654.648	3740.27
654.84	3711.6
655.033	3748.47
655.225	3865.2
655.417	3791.47
655.61	3719.79
655.802	3762.8
655.994	3779.18
656.186	3654.26
656.379	3615.35
656.571	3652.21
656.763	3588.72
656.955	3605.11
657.148	3402.36
657.34	3633.78
657.532	3437.17
657.724	3525.24
657.916	3451.51
658.108	3428.98
658.3	3603.06
658.492	3467.89
658.684	3199.61
658.876	3357.3
659.068	3412.6
659.26	3291.77
659.452	3328.63
659.644	3369.59
659.836	3355.26
660.028	3232.38
660.22	3259
660.412	3209.85
660.604	3316.34
660.796	3205.75
660.988	3084.92
661.18	3228.28
661.372	3109.5
661.563	3168.89
661.755	3125.88
661.947	3099.26
662.139	3191.42
662.331	3123.84
662.522	3105.4
662.714	2927.23
662.906	3005.05
663.097	3070.59
663.289	2904.7
663.481	2966.14
663.673	2904.7
663.864	2984.57
664.056	2951.81
664.247	2935.42
664.439	2888.32
664.631	2921.09
664.822	2912.89
665.014	2818.69
665.205	2794.11
665.397	2898.56
665.588	2906.75
665.78	2900.61
665.971	2869.89
666.163	2822.78
666.354	2796.16
666.546	2771.58
666.737	2839.17
666.929	2802.3
667.12	2794.11
667.311	2759.3
667.503	2804.35
667.694	2644.61
667.885	2693.76
668.077	2787.97
668.268	2642.56
668.459	2642.56
668.651	2761.34
668.842	2624.13
669.033	2644.61
669.224	2589.32
669.416	2708.1
669.607	2511.49
669.798	2595.46
669.989	2587.27
670.18	2566.79
670.371	2583.17
670.563	2542.21
670.754	2572.93
670.945	2398.85
671.136	2519.68
671.327	2429.57
671.518	2468.49
671.709	2525.83
671.9	2620.03
672.091	2531.97
672.282	2519.68
672.473	2452.1
672.664	2478.72
672.855	2433.67
673.046	2372.23
673.237	2491.01
673.428	2423.43
673.619	2480.77
673.809	2540.16
674	2380.42
674.191	2392.71
674.382	2521.73
674.573	2357.89
674.764	2355.85
674.954	2282.12
675.145	2331.27
675.336	2318.98
675.527	2245.26
675.717	2370.18
675.908	2335.37
676.099	2357.89
676.289	2347.65
676.48	2198.15
676.671	2357.89
676.861	2243.21
677.052	2478.72
677.243	2296.46
677.433	2316.94
677.624	2304.65
677.814	2308.74
678.005	2255.5
678.195	2271.88
678.386	2284.17
678.576	2237.06
678.767	2220.68
678.957	2310.79
679.148	2341.51
679.338	2255.5
679.529	2269.83
679.719	2177.67
679.909	2249.35
680.1	2257.54
680.29	2296.46
680.481	2241.16
680.671	2296.46
680.861	2208.39
681.052	2122.38
681.242	2226.82
681.432	2187.91
681.622	2226.82
681.813	2181.77
682.003	2214.54
682.193	2093.71
682.383	2243.21
682.573	2108.04
682.764	2208.39
682.954	2218.63
683.144	2251.4
683.334	2171.53
683.524	2103.95
683.714	2339.46
683.904	2071.18
684.094	2060.94
684.284	2138.76
684.474	2222.73
684.664	2097.8
684.854	2165.39
685.044	2091.66
685.234	2130.57
685.424	2159.24
685.614	2101.9
685.804	2001.55
685.994	2120.33
686.184	2093.71
686.374	2093.71
686.564	2253.45
686.753	2112.14
686.943	2122.38
687.133	2065.04
687.323	2237.06
687.513	2054.8
687.702	2112.14
687.892	2091.66
688.082	1989.26
688.272	2046.6
688.461	2042.51
688.651	2067.08
688.841	1944.2
689.03	2003.6
689.22	1976.97
689.41	2028.17
689.599	2114.19
689.789	2054.8
689.979	1884.81
690.168	2009.74
690.358	1944.2
690.547	1927.82
690.737	1903.25
690.926	1944.2
691.116	1964.68
691.305	1964.68
691.495	2019.98
691.684	1958.54
691.874	1987.21
692.063	1944.2
692.252	1886.86
692.442	1845.9
692.631	1798.8
692.82	1831.57
693.01	1903.25
693.199	1925.77
693.388	1880.72
693.578	1884.81
693.767	1884.81
693.956	1854.09
694.146	1858.19
694.335	1768.08
694.524	1831.57
694.713	1788.56
694.902	1768.08
695.092	1944.2
695.281	1817.23
695.47	1856.14
695.659	1794.7
695.848	1698.45
696.037	1712.78
696.226	1864.33
696.415	1864.33
696.604	1741.46
696.793	1825.42
696.982	1817.23
697.171	1712.78
697.36	1780.37
697.549	1809.04
697.738	1852.05
697.927	1850
698.116	1852.05
698.305	1829.52
698.494	1845.9
698.683	1690.26
698.872	1819.28
699.061	1847.95
699.25	1809.04
699.438	1802.9
699.627	1768.08
699.816	1733.26
700.005	1735.31
700.193	1897.1
700.382	1913.49
700.571	1852.05
700.76	1952.4
700.948	1802.9
701.137	1675.92
701.326	1751.7
701.514	1753.74
701.703	1815.18
701.892	1905.29
702.08	1839.76
702.269	1872.53
702.457	1899.15
702.646	1837.71
702.834	1850
703.023	1829.52
703.212	1739.41
703.4	1772.18
703.589	1751.7
703.777	1845.9
703.965	1804.94
704.154	1757.84
704.342	1886.86
704.531	1739.41
704.719	1761.94
704.907	1815.18
705.096	1841.81
705.284	1909.39
705.472	1952.4
705.661	1817.23
705.849	1825.42
706.037	1800.85
706.226	1825.42
706.414	1870.48
706.602	1804.94
706.79	1911.44
706.979	1759.89
707.167	1688.21
707.355	1876.62
707.543	1927.82
707.731	1845.9
707.919	1890.96
708.107	1923.73
708.296	1788.56
708.484	1794.7
708.672	1905.29
708.86	1888.91
709.048	1872.53
709.236	1917.58
709.424	1850
709.612	1901.2
709.8	1847.95
709.988	1823.37
710.176	1974.92
710.364	1903.25
710.551	1927.82
710.739	1856.14
710.927	1835.66
711.115	1858.19
711.303	1866.38
711.491	1786.51
711.679	1847.95
711.866	1968.78
712.054	1878.67
712.242	1880.72
712.43	1989.26
712.617	1870.48
712.805	1847.95
712.993	2005.64
713.181	1899.15
713.368	1872.53
713.556	1845.9
713.744	1813.13
713.931	1866.38
714.119	1813.13
714.306	1897.1
714.494	1817.23
714.682	1874.57
714.869	1964.68
715.057	1770.13
715.244	1874.57
715.432	1819.28
715.619	1983.12
715.807	1964.68
715.994	1876.62
716.182	1936.01
716.369	1952.4
716.556	1993.36
716.744	1798.8
716.931	1874.57
717.119	1960.59
717.306	1858.19
717.493	1942.16
717.681	1864.33
717.868	1899.15
718.055	1888.91
718.242	1933.97
718.43	1979.02
718.617	1882.77
718.804	1907.34
718.991	2013.84
719.179	2019.98
719.366	1841.81
719.553	1972.88
719.74	1958.54
719.927	1866.38
720.114	1923.73
720.301	1946.25
720.488	1917.58
720.676	1956.49
720.863	1933.97
721.05	1958.54
721.237	1948.3
721.424	1860.24
721.611	1874.57
721.798	1860.24
721.985	1956.49
722.172	1944.2
722.358	1884.81
722.545	2022.03
722.732	1794.7
722.919	1944.2
723.106	1936.01
723.293	1915.53
723.48	1847.95
723.667	1819.28
723.853	1942.16
724.04	1952.4
724.227	2011.79
724.414	1999.5
724.6	1940.11
724.787	2052.75
724.974	1907.34
725.161	2095.75
725.347	1886.86
725.534	1979.02
725.72	2038.41
725.907	1964.68
726.094	1874.57
726.28	1880.72
726.467	2044.56
726.653	1907.34
726.84	1946.25
727.027	2022.03
727.213	1899.15
727.4	2032.27
727.586	1962.64
727.773	1856.14
727.959	1987.21
728.145	1936.01
728.332	1888.91
728.518	1956.49
728.705	2112.14
728.891	1952.4
729.077	1933.97
729.264	1933.97
729.45	1915.53
729.636	1954.44
729.823	1886.86
730.009	2013.84
730.195	1936.01
730.382	1999.5
730.568	1850
730.754	1972.88
730.94	2003.6
731.126	1913.49
731.313	2024.08
731.499	1976.97
731.685	2050.7
731.871	1927.82
732.057	2060.94
732.243	2042.51
732.429	1950.35
732.615	2001.55
732.801	1905.29
732.987	1938.06
733.173	2011.79
733.359	1841.81
733.545	1942.16
733.731	1968.78
733.917	1901.2
734.103	2003.6
734.289	1993.36
734.475	1796.75
734.661	1972.88
734.847	1958.54
735.033	2007.69
735.219	1888.91
735.404	1882.77
735.59	1950.35
735.776	1966.73
735.962	1972.88
736.148	2026.12
736.333	1958.54
736.519	1938.06
736.705	2028.17
736.89	1993.36
737.076	1923.73
737.262	2077.32
737.447	1960.59
737.633	1925.77
737.819	1987.21
738.004	1952.4
738.19	1962.64
738.375	1950.35
738.561	2019.98
738.747	1893.01
738.932	1841.81
739.118	1866.38
739.303	1866.38
739.489	1970.83
739.674	1837.71
739.859	1913.49
740.045	1890.96
740.23	1921.68
740.416	1921.68
740.601	1886.86
740.786	1833.61
740.972	1753.74
741.157	1784.46
741.342	1796.75
741.528	1763.98
741.713	1788.56
741.898	1874.57
742.084	1794.7
742.269	1938.06
742.454	1870.48
742.639	1831.57
742.824	1890.96
743.01	1854.09
743.195	1788.56
743.38	1839.76
743.565	1792.66
743.75	1809.04
743.935	1649.3
744.12	1772.18
744.305	1718.93
744.49	1780.37
744.675	1665.68
744.86	1745.55
745.045	1663.63
745.23	1663.63
745.415	1780.37
745.6	1735.31
745.785	1659.54
745.97	1669.78
746.155	1720.98
746.34	1712.78
746.525	1645.2
746.71	1688.21
746.895	1630.87
747.079	1559.19
747.264	1624.72
747.449	1624.72
747.634	1684.11
747.819	1637.01
748.003	1567.38
748.188	1569.43
748.373	1591.95
748.557	1608.34
748.742	1641.11
748.927	1581.71
749.111	1573.52
749.296	1456.79
749.481	1544.85
749.665	1452.69
749.85	1401.49
750.034	1522.32
750.219	1557.14
750.404	1368.73
750.588	1446.55
750.773	1538.71
750.957	1471.12
751.141	1413.78
751.326	1464.98
751.51	1368.73
751.695	1407.64
751.879	1444.5
752.064	1391.25
752.248	1372.82
752.432	1419.93
752.617	1364.63
752.801	1415.83
752.985	1309.33
753.17	1309.33
753.354	1235.61
753.538	1354.39
753.722	1299.09
753.907	1249.94
754.091	1264.28
754.275	1288.86
754.459	1221.27
754.643	1198.74
754.828	1241.75
755.012	1303.19
755.196	1233.56
755.38	1266.33
755.564	1143.45
755.748	1145.5
755.932	1266.33
756.116	1221.27
756.3	1176.22
756.484	1116.83
756.668	1174.17
756.852	1190.55
757.036	1059.48
757.22	1186.46
757.404	1190.55
757.588	1133.21
757.772	1108.63
757.956	1211.03
758.14	1120.92
758.323	1055.39
758.507	1155.74
758.691	1112.73
758.875	1059.48
759.059	1092.25
759.242	1086.11
759.426	987.8
759.61	1049.24
759.794	1092.25
759.977	1049.24
760.161	1043.1
760.345	1106.59
760.528	985.76
760.712	1073.82
760.895	1059.48
761.079	924.32
761.263	1112.73
761.446	965.28
761.63	918.17
761.813	1024.67
761.997	883.36
762.18	963.23
762.364	1034.91
762.547	975.52
762.731	957.08
762.914	920.22
763.098	1002.14
763.281	877.21
763.464	975.52
763.648	914.08
763.831	864.93
764.015	840.35
764.198	858.78
764.381	848.54
764.564	799.39
764.748	875.17
764.931	916.12
765.114	932.51
765.297	948.89
765.481	875.17
765.664	871.07
765.847	866.97
766.03	883.36
766.213	760.48
766.397	879.26
766.58	873.12
766.763	914.08
766.946	881.31
767.129	815.77
767.312	836.25
767.495	869.02
767.678	889.5
767.861	789.15
768.044	828.06
768.227	823.97
768.41	819.87
768.593	793.25
768.776	842.4
768.959	793.25
769.142	813.73
769.324	826.01
769.507	701.09
769.69	709.28
769.873	789.15
770.056	789.15
770.239	791.2
770.421	889.5
770.604	862.88
770.787	690.85
770.97	674.46
771.152	819.87
771.335	772.77
771.518	676.51
771.7	821.92
771.883	717.47
772.066	666.27
772.248	737.95
772.431	795.29
772.613	664.22
772.796	684.7
772.978	750.24
773.161	715.42
773.343	641.7
773.526	694.94
773.708	582.31
773.891	719.52
774.073	703.14
774.256	588.45
774.438	670.37
774.621	699.04
774.803	701.09
774.985	643.74
775.168	621.22
775.35	684.7
775.532	580.26
775.715	701.09
775.897	688.8
776.079	658.08
776.261	610.98
776.444	703.14
776.626	553.63
776.808	658.08
776.99	606.88
777.173	582.31
777.355	619.17
777.537	594.59
777.719	563.87
777.901	559.78
778.083	584.35
778.265	445.09
778.447	606.88
778.629	514.72
778.811	604.83
778.993	484
779.175	543.39
779.357	494.24
779.539	557.73
779.721	500.39
779.903	631.46
780.085	500.39
780.267	580.26
780.449	553.63
780.631	557.73
780.812	547.49
780.994	443.04
781.176	451.24
781.358	574.11
781.54	527.01
781.721	477.86
781.903	438.95
782.085	498.34
782.267	475.81
782.448	481.96
782.63	412.32
782.812	445.09
782.993	467.62
783.175	492.2
783.357	428.71
783.538	527.01
783.72	449.19
783.901	393.89
784.083	301.73
784.264	348.84
784.446	432.8
784.627	350.89
784.809	453.28
784.99	426.66
785.172	486.05
785.353	445.09
785.535	494.24
785.716	387.75
785.897	346.79
786.079	330.41
786.26	426.66
786.441	393.89
786.623	354.98
786.804	365.22
786.985	307.88
787.167	318.12
787.348	373.41
787.529	410.28
787.71	402.08
787.891	397.99
788.073	299.69
788.254	309.93
788.435	395.94
788.616	424.61
788.797	342.69
788.978	314.02
789.159	275.11
789.34	271.01
789.522	365.22
789.703	357.03
789.884	244.39
790.065	275.11
790.246	395.94
790.427	307.88
790.607	381.6
790.788	305.83
790.969	326.31
791.15	316.07
791.331	324.26
791.512	240.3
791.693	277.16
791.874	293.54
792.054	314.02
792.235	256.68
792.416	242.34
792.597	289.45
792.778	367.27
792.958	236.2
793.139	262.82
793.32	297.64
793.5	279.21
793.681	332.45
793.862	281.25
794.042	223.91
794.223	213.67
794.404	246.44
794.584	256.68
794.765	223.91
794.945	305.83
795.126	273.06
795.306	311.97
795.487	242.34
795.667	205.48
795.848	266.92
796.028	268.97
796.209	281.25
796.389	256.68
796.57	283.3
796.75	221.86
796.93	285.35
797.111	219.82
797.291	180.9
797.471	254.63
797.652	271.01
797.832	203.43
798.012	256.68
798.192	219.82
798.373	240.3
798.553	248.49
798.733	236.2
798.913	221.86
799.093	230.06
799.274	271.01
799.454	230.06
799.634	199.34
799.814	205.48
799.994	219.82
800.174	211.62
800.354	154.28
800.534	201.38
800.714	195.24
800.894	178.86
801.074	144.04
801.254	254.63
801.434	187.05
801.614	185
801.794	187.05
801.974	572.07
802.154	103.08
802.334	195.24
802.514	129.7
802.693	225.96
802.873	94.89
803.053	215.72
803.233	174.76
803.413	146.09
803.592	242.34
803.772	121.51
803.952	105.13
804.131	72.36
804.311	180.9
804.491	217.77
804.67	127.66
804.85	115.37
805.03	178.86
805.209	242.34
805.389	133.8
805.568	150.18
805.748	215.72
805.928	205.48
806.107	170.66
806.287	178.86
806.466	166.57
806.646	178.86
806.825	137.9
807.004	133.8
807.184	170.66
807.363	189.1
807.543	164.52
807.722	156.33
807.901	129.7
808.081	240.3
808.26	103.08
808.439	228.01
808.619	113.32
808.798	187.05
808.977	154.28
809.156	127.66
809.336	107.18
809.515	107.18
809.694	109.23
809.873	219.82
810.052	111.27
810.231	119.46
810.411	148.14
810.59	187.05
810.769	158.38
810.948	133.8
811.127	109.23
811.306	131.75
811.485	152.23
811.664	170.66
811.843	166.57
812.022	199.34
812.201	66.22
812.38	94.89
812.559	107.18
812.737	146.09
812.916	39.59
813.095	137.9
813.274	72.36
813.453	101.03
813.632	80.55
813.811	19.11
813.989	78.51
814.168	101.03
814.347	86.7
814.526	105.13
814.704	39.59
814.883	70.31
815.062	115.37
815.24	123.56
815.419	66.22
815.598	109.23
815.776	109.23
815.955	141.99
816.133	125.61
816.312	129.7
816.49	86.7
816.669	80.55
816.847	76.46
817.026	105.13
817.204	76.46
817.383	86.7
817.561	82.6
817.74	129.7
817.918	92.84
818.097	10.92
818.275	131.75
818.453	103.08
818.632	182.95
818.81	121.51
818.988	58.03
819.167	76.46
819.345	94.89
819.523	74.41
819.701	51.88
819.879	60.07
820.058	162.47
820.236	103.08
820.414	90.79
820.592	60.07
820.77	82.6
820.948	150.18
821.127	39.59
821.305	51.88
821.483	49.83
821.661	139.94
821.839	15.02
822.017	137.9
822.195	70.31
822.373	62.12
822.551	88.75
822.729	98.99
822.907	68.27
823.085	47.79
823.262	103.08
823.44	35.5
823.618	86.7
823.796	45.74
823.974	43.69
824.152	94.89
824.329	23.21
824.507	105.13
824.685	98.99
824.863	105.13
825.04	60.07
825.218	74.41
825.396	39.59
825.574	23.21
825.751	107.18
825.929	119.46
826.107	2.73
826.284	129.7
826.462	35.5
826.639	111.27
826.817	-1.37
826.994	10.92
827.172	49.83
827.349	72.36
827.527	64.17
827.704	55.98
827.882	-3.41
828.059	66.22
828.237	45.74
828.414	62.12
828.591	39.59
828.769	45.74
828.946	109.23
829.124	33.45
829.301	41.64
829.478	37.55
829.655	66.22
829.833	68.27
830.01	39.59
830.187	25.26
830.364	19.11
830.542	64.17
830.719	51.88
830.896	45.74
831.073	6.83
831.25	51.88
831.427	49.83
831.604	86.7
831.782	103.08
831.959	31.4
832.136	66.22
832.313	55.98
832.49	-9.56
832.667	101.03
832.844	33.45
833.021	64.17
833.198	58.03
833.374	31.4
833.551	27.31
833.728	-1.37
833.905	39.59
834.082	51.88
834.259	103.08
834.436	64.17
834.612	37.55
834.789	35.5
834.966	53.93
835.143	66.22
835.319	-1.37
835.496	39.59
835.673	33.45
835.85	78.51
836.026	76.46
836.203	101.03
836.38	19.11
836.556	19.11
836.733	78.51
836.909	25.26
837.086	10.92
837.262	27.31
837.439	86.7
837.616	12.97
837.792	4.78
837.968	117.42
838.145	35.5
838.321	-11.61
838.498	123.56
838.674	70.31
838.851	45.74
839.027	19.11
839.203	33.45
839.38	10.92
839.556	17.07
839.732	53.93
839.909	35.5
840.085	39.59
840.261	-25.94
840.437	-13.65
840.614	-30.04
840.79	49.83
840.966	-9.56
841.142	33.45
841.318	55.98
841.494	103.08
841.671	0.68
841.847	0.68
842.023	98.99
842.199	-1.37
842.375	15.02
842.551	12.97
842.727	12.97
842.903	131.75
843.079	-13.65
843.255	84.65
843.431	33.45
843.607	70.31
843.783	-5.46
843.959	72.36
844.134	27.31
844.31	80.55
844.486	45.74
844.662	6.83
844.838	-44.37
845.013	23.21
845.189	10.92
845.365	-17.75
845.541	10.92
845.716	45.74
845.892	49.83
846.068	-25.94
846.244	43.69
846.419	92.84
846.595	-21.85
846.77	21.16
846.946	88.75
847.122	37.55
847.297	17.07
847.473	86.7
847.648	8.87
847.824	76.46
847.999	-1.37
848.175	-79.19
848.35	27.31
848.526	39.59
848.701	62.12
848.876	10.92
849.052	-17.75
849.227	51.88
849.403	49.83
849.578	55.98
849.753	-5.46
849.929	53.93
850.104	-30.04
850.279	31.4
850.454	-11.61
850.63	103.08
850.805	8.87
850.98	19.11
851.155	0.68
851.33	31.4
851.505	-25.94
851.681	12.97
851.856	19.11
852.031	0.68
852.206	23.21
852.381	-50.52
852.556	-9.56
852.731	-11.61
852.906	33.45
853.081	21.16
853.256	-25.94
853.431	51.88
853.606	-36.18
853.781	-7.51
853.956	10.92
854.131	12.97
854.305	-27.99
854.48	-17.75
854.655	-62.8
854.83	2.73
855.005	-38.23
855.18	21.16
855.354	31.4
855.529	-54.61
855.704	31.4
855.879	-1.37
856.053	-44.37
856.228	-71
856.403	-21.85
856.577	82.6
856.752	-85.33
856.926	-17.75
857.101	-64.85
857.276	47.79
857.45	-1.37
857.625	41.64
857.799	-32.08
857.974	-9.56
858.148	-21.85
858.323	-7.51
858.497	-25.94
858.672	-25.94
858.846	-52.56
859.02	64.17
859.195	-62.8
859.369	-48.47
859.543	-13.65
859.718	37.55
859.892	10.92
860.066	-42.32
860.241	10.92
860.415	-36.18
860.589	-3.41
860.763	-25.94
860.938	15.02
861.112	-13.65
861.286	72.36
861.46	33.45
861.634	8.87
861.808	-21.85
861.982	0.68
862.157	-40.28
862.331	-15.7
862.505	-48.47
862.679	-75.09
862.853	-19.8
863.027	29.35
863.201	2.73
863.375	2.73
863.549	-75.09
863.722	-21.85
863.896	66.22
864.07	39.59
864.244	12.97
864.418	31.4
864.592	-111.96
864.766	51.88
864.939	-54.61
865.113	-44.37
865.287	27.31
865.461	-56.66
865.634	-130.39
865.808	6.83
865.982	-79.19
866.156	2.73
866.329	19.11
866.503	39.59
866.676	-5.46
866.85	17.07
867.024	12.97
867.197	15.02
867.371	-42.32
867.544	10.92
867.718	-58.71
867.891	31.4
868.065	49.83
868.238	19.11
868.412	2.73
868.585	-42.32
868.759	6.83
868.932	-3.41
869.105	-21.85
869.279	-9.56
869.452	-13.65
869.625	-3.41
869.799	-46.42
869.972	37.55
870.145	25.26
870.319	-62.8
870.492	10.92
870.665	-25.94
870.838	19.11
871.011	-7.51
871.185	-44.37
871.358	-34.13
871.531	37.55
871.704	-36.18
871.877	-15.7
872.05	43.69
872.223	-40.28
872.396	-27.99
872.569	21.16
872.742	-68.95
872.915	49.83
873.088	37.55
873.261	55.98
873.434	47.79
873.607	-30.04
873.78	-21.85
873.953	-1.37
874.126	27.31
874.299	19.11
874.471	33.45
874.644	39.59
874.817	10.92
874.99	109.23
875.163	10.92
875.335	-60.76
875.508	-5.46
875.681	-1.37
875.853	-13.65
876.026	-40.28
876.199	-62.8
876.371	19.11
876.544	-30.04
876.717	-38.23
876.889	-3.41
877.062	-25.94
877.234	15.02
877.407	-13.65
877.579	-79.19
877.752	-42.32
877.924	-15.7
878.097	62.12
878.269	-32.08
878.442	4.78
878.614	6.83
878.786	-15.7
878.959	-62.8
879.131	49.83
879.303	-99.67
879.476	43.69
879.648	-13.65
879.82	19.11
879.993	-42.32
880.165	-52.56
880.337	-85.33
880.509	2.73
880.681	-17.75
880.854	-75.09
881.026	-23.89
881.198	-9.56
881.37	23.21
881.542	-13.65
881.714	-13.65
881.886	25.26
882.058	-62.8
882.23	6.83
882.402	-75.09
882.574	53.93
882.746	23.21
882.918	-3.41
883.09	-13.65
883.262	-3.41
883.434	-34.13
883.606	-9.56
883.778	23.21
883.95	-7.51
884.122	-118.1
884.293	72.36
884.465	33.45
884.637	-30.04
884.809	-46.42
884.98	-75.09
885.152	-30.04
885.324	8.87
885.496	-34.13
885.667	29.35
885.839	-11.61
886.011	12.97
886.182	23.21
886.354	-46.42
886.525	-17.75
886.697	-21.85
886.869	-7.51
887.04	-32.08
887.212	-58.71
887.383	64.17
887.555	70.31
887.726	-75.09
887.897	-36.18
888.069	8.87
888.24	15.02
888.412	-11.61
888.583	-5.46
888.754	-5.46
888.926	-38.23
889.097	-75.09
889.268	-58.71
889.44	-73.04
889.611	-27.99
889.782	-50.52
889.953	-58.71
890.125	-19.8
890.296	51.88
890.467	19.11
890.638	-30.04
890.809	-34.13
890.98	-64.85
891.151	-17.75
891.323	-32.08
891.494	25.26
891.665	-60.76
891.836	-42.32
892.007	10.92
892.178	-34.13
892.349	-38.23
892.52	-7.51
892.691	-124.24
892.862	-30.04
893.032	-44.37
893.203	-27.99
893.374	-5.46
893.545	-7.51
893.716	4.78
893.887	-30.04
894.057	-23.89
894.228	25.26
894.399	-23.89
894.57	31.4
894.74	-66.9
894.911	0.68
895.082	25.26
895.253	27.31
895.423	-42.32
895.594	43.69
895.764	-42.32
895.935	-15.7
896.106	-58.71
896.276	49.83
896.447	-27.99
896.617	-36.18
896.788	-54.61
896.958	-21.85
897.129	-62.8
897.299	-30.04
897.47	-15.7
897.64	-38.23
897.81	-81.24
897.981	-1.37
898.151	-17.75
898.322	-11.61
898.492	-54.61
898.662	-17.75
898.832	19.11
899.003	6.83
899.173	4.78
899.343	49.83
899.513	-71
