Data from USB4F104151__175__11-09-24-104.txt Node

Date: Wed Mar 12 11:09:24 EDT 2025
User: louis
Spectrometer: USB4F10415
Trigger mode: 4
Integration Time (sec): 2.000000E-2
Scans to average: 1
Electric dark correction enabled: true
Nonlinearity correction enabled: false
Boxcar width: 0
XAxis mode: Wavelengths
Number of Pixels in Spectrum: 3648
>>>>>Begin Spectral Data<<<<<
178.204	-87.38
178.424	-87.38
178.644	-87.38
178.864	-52.56
179.084	-85.33
179.304	-11.61
179.524	-17.75
179.744	-3.41
179.964	72.36
180.184	-87.38
180.404	-13.65
180.624	-38.23
180.844	12.97
181.064	49.83
181.283	-5.46
181.503	2.73
181.723	39.59
181.943	-38.23
182.163	35.5
182.383	0.68
182.602	-3.41
182.822	-62.8
183.042	12.97
183.262	-64.85
183.482	-13.65
183.701	10.92
183.921	12.97
184.141	-17.75
184.361	-3.41
184.58	17.07
184.8	72.36
185.02	92.84
185.239	133.8
185.459	-19.8
185.679	23.21
185.898	-42.32
186.118	17.07
186.338	-19.8
186.557	-5.46
186.777	-11.61
186.997	0.68
187.216	-3.41
187.436	84.65
187.655	-15.7
187.875	53.93
188.095	0.68
188.314	35.5
188.534	21.16
188.753	0.68
188.973	15.02
189.192	47.79
189.412	-3.41
189.631	-23.89
189.851	43.69
190.07	8.87
190.29	-48.47
190.509	-11.61
190.729	-56.66
190.948	-11.61
191.168	43.69
191.387	10.92
191.607	-44.37
191.826	29.35
192.045	-19.8
192.265	-27.99
192.484	31.4
192.704	-56.66
192.923	-36.18
193.142	19.11
193.362	0.68
193.581	-11.61
193.8	-1.37
194.02	4.78
194.239	-62.8
194.458	21.16
194.678	74.41
194.897	62.12
195.116	10.92
195.335	41.64
195.555	-5.46
195.774	-19.8
195.993	-19.8
196.212	17.07
196.432	-36.18
196.651	17.07
196.87	-46.42
197.089	88.75
197.308	43.69
197.528	82.6
197.747	-52.56
197.966	-42.32
198.185	41.64
198.404	58.03
198.623	8.87
198.842	107.18
199.062	62.12
199.281	27.31
199.5	-17.75
199.719	-38.23
199.938	76.46
200.157	45.74
200.376	37.55
200.595	-3.41
200.814	6.83
201.033	-48.47
201.252	8.87
201.471	78.51
201.69	33.45
201.909	-11.61
202.128	58.03
202.347	17.07
202.566	4.78
202.785	-30.04
203.004	0.68
203.223	76.46
203.442	-79.19
203.661	8.87
203.879	17.07
204.098	105.13
204.317	-23.89
204.536	80.55
204.755	51.88
204.974	23.21
205.193	0.68
205.411	-9.56
205.63	64.17
205.849	2.73
206.068	66.22
206.287	-9.56
206.505	-19.8
206.724	31.4
206.943	43.69
207.162	-52.56
207.381	-11.61
207.599	-87.38
207.818	4.78
208.037	-9.56
208.255	10.92
208.474	31.4
208.693	-5.46
208.911	33.45
209.13	17.07
209.349	-42.32
209.567	60.07
209.786	37.55
210.005	-23.89
210.223	-30.04
210.442	-19.8
210.661	-7.51
210.879	-30.04
211.098	-32.08
211.316	4.78
211.535	-5.46
211.753	0.68
211.972	21.16
212.191	-81.24
212.409	-11.61
212.628	-7.51
212.846	-40.28
213.065	-44.37
213.283	76.46
213.502	19.11
213.72	12.97
213.938	43.69
214.157	-50.52
214.375	-27.99
214.594	45.74
214.812	-32.08
215.031	41.64
215.249	0.68
215.467	19.11
215.686	15.02
215.904	45.74
216.122	12.97
216.341	0.68
216.559	62.12
216.778	84.65
216.996	29.35
217.214	-9.56
217.432	-5.46
217.651	101.03
217.869	-9.56
218.087	-15.7
218.306	-17.75
218.524	10.92
218.742	-9.56
218.96	33.45
219.179	15.02
219.397	-30.04
219.615	17.07
219.833	72.36
220.051	-13.65
220.27	88.75
220.488	27.31
220.706	35.5
220.924	-17.75
221.142	4.78
221.36	51.88
221.578	-44.37
221.796	66.22
222.015	-21.85
222.233	-34.13
222.451	37.55
222.669	-11.61
222.887	21.16
223.105	-13.65
223.323	-15.7
223.541	-7.51
223.759	29.35
223.977	35.5
224.195	41.64
224.413	21.16
224.631	-46.42
224.849	66.22
225.067	60.07
225.285	-11.61
225.503	12.97
225.721	27.31
225.939	47.79
226.157	-17.75
226.375	58.03
226.592	-54.61
226.81	43.69
227.028	-17.75
227.246	-3.41
227.464	-1.37
227.682	47.79
227.9	23.21
228.117	43.69
228.335	-27.99
228.553	-15.7
228.771	6.83
228.989	0.68
229.206	-15.7
229.424	25.26
229.642	80.55
229.86	-7.51
230.077	-36.18
230.295	86.7
230.513	-68.95
230.731	72.36
230.948	-5.46
231.166	-36.18
231.384	-7.51
231.601	47.79
231.819	62.12
232.037	-93.52
232.254	94.89
232.472	-21.85
232.689	33.45
232.907	49.83
233.125	15.02
233.342	-21.85
233.56	-32.08
233.777	25.26
233.995	-7.51
234.213	53.93
234.43	10.92
234.648	-46.42
234.865	-7.51
235.083	74.41
235.3	-21.85
235.518	-52.56
235.735	37.55
235.953	17.07
236.17	12.97
236.388	29.35
236.605	35.5
236.822	55.98
237.04	53.93
237.257	109.22
237.475	-13.65
237.692	19.11
237.909	6.83
238.127	8.87
238.344	55.98
238.562	29.35
238.779	31.4
238.996	-11.61
239.214	-11.61
239.431	23.21
239.648	-32.08
239.865	33.45
240.083	8.87
240.3	-73.04
240.517	21.16
240.735	45.74
240.952	84.65
241.169	68.27
241.386	-11.61
241.603	-23.89
241.821	45.74
242.038	-3.41
242.255	37.55
242.472	39.59
242.689	66.22
242.907	12.97
243.124	27.31
243.341	6.83
243.558	-48.47
243.775	55.98
243.992	-50.52
244.209	-1.37
244.426	0.68
244.643	55.98
244.86	8.87
245.078	0.68
245.295	-7.51
245.512	49.83
245.729	-36.18
245.946	-27.99
246.163	-32.08
246.38	-1.37
246.597	-44.37
246.814	33.45
247.031	53.93
247.248	94.89
247.464	4.78
247.681	27.31
247.898	49.83
248.115	62.12
248.332	-71
248.549	55.98
248.766	41.64
248.983	-23.89
249.2	-44.37
249.417	8.87
249.633	17.07
249.85	-32.08
250.067	-11.61
250.284	-1.37
250.501	45.74
250.717	29.35
250.934	-46.42
251.151	-15.7
251.368	-13.65
251.585	51.88
251.801	41.64
252.018	-36.18
252.235	-15.7
252.451	-15.7
252.668	33.45
252.885	109.22
253.102	-25.94
253.318	2.73
253.535	-7.51
253.752	-15.7
253.968	6.83
254.185	-3.41
254.401	23.21
254.618	-30.04
254.835	-60.76
255.051	43.69
255.268	-23.89
255.484	-40.28
255.701	-1.37
255.917	4.78
256.134	-17.75
256.351	-32.08
256.567	-27.99
256.784	-64.85
257	-5.46
257.217	19.11
257.433	-40.28
257.65	43.69
257.866	37.55
258.082	72.36
258.299	-21.85
258.515	-19.8
258.732	15.02
258.948	-75.09
259.165	12.97
259.381	-50.52
259.597	66.22
259.814	72.36
260.03	39.59
260.246	-91.48
260.463	45.74
260.679	33.45
260.895	-15.7
261.112	-34.13
261.328	8.87
261.544	-32.08
261.761	60.07
261.977	43.69
262.193	-34.13
262.409	-46.42
262.626	68.27
262.842	-11.61
263.058	-3.41
263.274	31.4
263.49	68.27
263.707	4.78
263.923	-52.56
264.139	-11.61
264.355	29.35
264.571	25.26
264.787	43.69
265.004	-23.89
265.22	-3.41
265.436	-3.41
265.652	2.73
265.868	4.78
266.084	-11.61
266.3	-62.8
266.516	23.21
266.732	33.45
266.948	58.03
267.164	4.78
267.38	-13.65
267.596	8.87
267.812	12.97
268.028	25.26
268.244	64.17
268.46	8.87
268.676	8.87
268.892	31.4
269.108	-5.46
269.324	-3.41
269.54	35.5
269.756	66.22
269.972	0.68
270.188	0.68
270.403	121.51
270.619	-48.47
270.835	2.73
271.051	39.59
271.267	-85.33
271.483	49.83
271.698	-38.23
271.914	0.68
272.13	-25.94
272.346	-3.41
272.562	-1.37
272.777	-11.61
272.993	53.93
273.209	33.45
273.425	76.46
273.64	-48.47
273.856	2.73
274.072	15.02
274.287	-36.18
274.503	29.35
274.719	49.83
274.934	60.07
275.15	-25.94
275.366	66.22
275.581	15.02
275.797	29.35
276.012	-42.32
276.228	-38.23
276.444	-11.61
276.659	64.17
276.875	-30.04
277.09	53.93
277.306	51.88
277.521	64.17
277.737	-42.32
277.952	58.03
278.168	-13.65
278.383	10.92
278.599	8.87
278.814	25.26
279.03	-21.85
279.245	51.88
279.461	-15.7
279.676	-1.37
279.892	-58.71
280.107	58.03
280.322	-21.85
280.538	12.97
280.753	8.87
280.969	62.12
281.184	-34.13
281.399	86.7
281.615	-52.56
281.83	43.69
282.045	-93.52
282.26	17.07
282.476	-13.65
282.691	-50.52
282.906	-19.8
283.122	-15.7
283.337	6.83
283.552	37.55
283.767	-23.89
283.983	21.16
284.198	-5.46
284.413	66.22
284.628	-42.32
284.843	29.35
285.058	33.45
285.274	-5.46
285.489	-42.32
285.704	8.87
285.919	-36.18
286.134	-9.56
286.349	-27.99
286.564	29.35
286.779	-23.89
286.995	-50.52
287.21	-17.75
287.425	-11.61
287.64	-15.7
287.855	58.03
288.07	35.5
288.285	-1.37
288.5	19.11
288.715	12.97
288.93	-66.9
289.145	39.59
289.36	-21.85
289.575	15.02
289.79	39.59
290.004	-27.99
290.219	21.16
290.434	12.97
290.649	-27.99
290.864	21.16
291.079	4.78
291.294	-23.89
291.509	4.78
291.724	0.68
291.938	43.69
292.153	2.73
292.368	25.26
292.583	-3.41
292.798	23.21
293.012	-25.94
293.227	21.16
293.442	70.31
293.657	-32.08
293.871	64.17
294.086	70.31
294.301	58.03
294.516	111.27
294.73	-7.51
294.945	29.35
295.16	21.16
295.374	58.03
295.589	31.4
295.804	-36.18
296.018	51.88
296.233	29.35
296.447	-34.13
296.662	-1.37
296.877	-40.28
297.091	60.07
297.306	41.64
297.52	-30.04
297.735	-30.04
297.949	33.45
298.164	8.87
298.378	6.83
298.593	47.79
298.807	19.11
299.022	17.07
299.236	4.78
299.451	12.97
299.665	4.78
299.88	72.36
300.094	-21.85
300.309	62.12
300.523	55.98
300.737	31.4
300.952	47.79
301.166	27.31
301.381	4.78
301.595	64.17
301.809	33.45
302.024	-1.37
302.238	-38.23
302.452	33.45
302.667	-19.8
302.881	70.31
303.095	84.65
303.309	41.64
303.524	-38.23
303.738	-19.8
303.952	-13.65
304.166	68.27
304.381	-81.24
304.595	19.11
304.809	-91.48
305.023	-13.65
305.237	-21.85
305.452	72.36
305.666	-5.46
305.88	45.74
306.094	-1.37
306.308	-5.46
306.522	-13.65
306.736	70.31
306.95	27.31
307.164	-56.66
307.379	10.92
307.593	78.51
307.807	53.93
308.021	-3.41
308.235	21.16
308.449	49.83
308.663	-19.8
308.877	37.55
309.091	-23.89
309.305	25.26
309.519	8.87
309.733	98.99
309.947	-1.37
310.161	37.55
310.374	21.16
310.588	-66.9
310.802	27.31
311.016	96.94
311.23	25.26
311.444	-73.04
311.658	70.31
311.872	2.73
312.085	39.59
312.299	-27.99
312.513	27.31
312.727	-1.37
312.941	-15.7
313.154	-36.18
313.368	-19.8
313.582	21.16
313.796	-13.65
314.009	10.92
314.223	35.5
314.437	33.45
314.651	88.75
314.864	-7.51
315.078	17.07
315.292	8.87
315.505	29.35
315.719	-9.56
315.933	15.02
316.146	86.7
316.36	-42.32
316.573	-1.37
316.787	55.98
317.001	43.69
317.214	2.73
317.428	60.07
317.641	37.55
317.855	-3.41
318.068	41.64
318.282	4.78
318.495	78.51
318.709	53.93
318.922	-38.23
319.136	51.88
319.349	-23.89
319.563	45.74
319.776	27.31
319.99	-25.94
320.203	-3.41
320.417	58.03
320.63	23.21
320.843	10.92
321.057	6.83
321.27	31.4
321.483	58.03
321.697	62.12
321.91	49.83
322.124	17.07
322.337	47.79
322.55	0.68
322.763	-9.56
322.977	27.31
323.19	33.45
323.403	0.68
323.617	-30.04
323.83	-15.7
324.043	-9.56
324.256	27.31
324.469	-23.89
324.683	94.89
324.896	70.31
325.109	-3.41
325.322	-7.51
325.535	58.03
325.748	27.31
325.962	29.35
326.175	43.69
326.388	37.55
326.601	-25.94
326.814	92.84
327.027	-30.04
327.24	58.03
327.453	-62.8
327.666	-34.13
327.879	21.16
328.092	58.03
328.305	-13.65
328.518	58.03
328.731	-1.37
328.944	-30.04
329.157	33.45
329.37	10.92
329.583	-11.61
329.796	10.92
330.009	-54.61
330.222	15.02
330.435	47.79
330.648	45.74
330.861	17.07
331.073	-32.08
331.286	-3.41
331.499	33.45
331.712	39.59
331.925	-15.7
332.138	86.7
332.35	15.02
332.563	37.55
332.776	70.31
332.989	-23.89
333.202	2.73
333.414	4.78
333.627	-32.08
333.84	37.55
334.053	49.83
334.265	23.21
334.478	58.03
334.691	15.02
334.903	6.83
335.116	6.83
335.329	-40.28
335.541	45.74
335.754	115.37
335.966	-38.23
336.179	-3.41
336.392	-32.08
336.604	84.65
336.817	78.51
337.029	-9.56
337.242	-66.9
337.454	39.59
337.667	-73.04
337.88	37.55
338.092	70.31
338.305	31.4
338.517	2.73
338.729	4.78
338.942	19.11
339.154	-60.76
339.367	-42.32
339.579	37.55
339.792	4.78
340.004	-27.99
340.217	6.83
340.429	17.07
340.641	53.93
340.854	-25.94
341.066	8.87
341.278	117.42
341.491	66.22
341.703	51.88
341.915	-15.7
342.128	-9.56
342.34	15.02
342.552	-32.08
342.764	41.64
342.977	15.02
343.189	-48.47
343.401	92.84
343.613	12.97
343.826	8.87
344.038	53.93
344.25	0.68
344.462	-11.61
344.674	45.74
344.886	15.02
345.099	12.97
345.311	21.16
345.523	12.97
345.735	-44.37
345.947	12.97
346.159	43.69
346.371	37.55
346.583	-23.89
346.795	6.83
347.007	0.68
347.219	12.97
347.431	49.83
347.643	-19.8
347.855	29.35
348.067	70.31
348.279	4.78
348.491	-52.56
348.703	70.31
348.915	49.83
349.127	-52.56
349.339	6.83
349.551	-60.76
349.763	58.03
349.975	74.41
350.187	137.9
350.399	-27.99
350.61	-7.51
350.822	-3.41
351.034	-1.37
351.246	-25.94
351.458	51.88
351.669	-1.37
351.881	68.27
352.093	-19.8
352.305	-21.85
352.517	60.07
352.728	39.59
352.94	6.83
353.152	60.07
353.363	74.41
353.575	29.35
353.787	-19.8
353.999	39.59
354.21	70.31
354.422	23.21
354.633	12.97
354.845	12.97
355.057	25.26
355.268	27.31
355.48	15.02
355.692	41.64
355.903	23.21
356.115	82.6
356.326	-36.18
356.538	76.46
356.749	58.03
356.961	141.99
357.172	-17.75
357.384	64.17
357.595	72.36
357.807	10.92
358.018	64.17
358.23	15.02
358.441	58.03
358.653	33.45
358.864	-3.41
359.075	-9.56
359.287	-46.42
359.498	-19.8
359.709	15.02
359.921	33.45
360.132	6.83
360.344	6.83
360.555	21.16
360.766	25.26
360.977	15.02
361.189	43.69
361.4	-34.13
361.611	37.55
361.823	-27.99
362.034	29.35
362.245	15.02
362.456	60.07
362.667	8.87
362.879	-40.28
363.09	78.51
363.301	39.59
363.512	29.35
363.723	53.93
363.935	-19.8
364.146	62.12
364.357	12.97
364.568	-15.7
364.779	-77.14
364.99	58.03
365.201	-9.56
365.412	-1.37
365.623	17.07
365.834	49.83
366.045	12.97
366.256	21.16
366.467	-3.41
366.678	62.12
366.889	-27.99
367.1	-17.75
367.311	115.37
367.522	23.21
367.733	41.64
367.944	-44.37
368.155	-27.99
368.366	15.02
368.577	-44.37
368.788	94.89
368.999	29.35
369.209	41.64
369.42	68.27
369.631	12.97
369.842	-13.65
370.053	76.46
370.264	12.97
370.474	25.26
370.685	25.26
370.896	41.64
371.107	33.45
371.317	-27.99
371.528	-87.38
371.739	47.79
371.95	80.55
372.16	45.74
372.371	62.12
372.582	10.92
372.792	31.4
373.003	-23.89
373.214	-11.61
373.424	-13.65
373.635	68.27
373.846	129.7
374.056	94.89
374.267	86.7
374.477	72.36
374.688	31.4
374.898	119.46
375.109	4.78
375.319	64.17
375.53	15.02
375.74	-3.41
375.951	49.83
376.161	66.22
376.372	82.6
376.582	-13.65
376.793	21.16
377.003	0.68
377.214	8.87
377.424	-42.32
377.635	53.93
377.845	12.97
378.055	8.87
378.266	-30.04
378.476	76.46
378.686	-15.7
378.897	17.07
379.107	37.55
379.317	35.5
379.528	17.07
379.738	62.12
379.948	-40.28
380.158	27.31
380.369	-15.7
380.579	8.87
380.789	90.79
380.999	47.79
381.21	88.75
381.42	72.36
381.63	45.74
381.84	70.31
382.05	17.07
382.261	121.51
382.471	55.98
382.681	-11.61
382.891	29.35
383.101	53.93
383.311	25.26
383.521	-11.61
383.731	51.88
383.941	10.92
384.151	-30.04
384.361	-32.08
384.571	23.21
384.781	80.55
384.991	10.92
385.201	113.32
385.411	6.83
385.621	119.46
385.831	23.21
386.041	-30.04
386.251	94.89
386.461	76.46
386.671	53.93
386.881	35.5
387.091	-54.61
387.301	74.41
387.511	58.03
387.72	64.17
387.93	-5.46
388.14	25.26
388.35	45.74
388.56	43.69
388.769	74.41
388.979	23.21
389.189	6.83
389.399	47.79
389.609	-19.8
389.818	43.69
390.028	0.68
390.238	37.55
390.447	29.35
390.657	29.35
390.867	10.92
391.076	96.94
391.286	41.64
391.496	76.46
391.705	78.51
391.915	35.5
392.125	84.65
392.334	27.31
392.544	35.5
392.753	60.07
392.963	12.97
393.172	90.79
393.382	80.55
393.591	17.07
393.801	76.46
394.01	53.93
394.22	60.07
394.429	45.74
394.639	19.11
394.848	80.55
395.058	53.93
395.267	66.22
395.477	66.22
395.686	60.07
395.895	21.16
396.105	127.66
396.314	41.64
396.524	-15.7
396.733	45.74
396.942	62.12
397.152	15.02
397.361	21.16
397.57	51.88
397.78	-19.8
397.989	70.31
398.198	146.09
398.407	66.22
398.617	-52.56
398.826	90.79
399.035	17.07
399.244	45.74
399.453	51.88
399.663	-17.75
399.872	74.41
400.081	37.55
400.29	131.75
400.499	43.69
400.708	55.98
400.917	92.84
401.127	19.11
401.336	51.88
401.545	125.61
401.754	72.36
401.963	88.75
402.172	53.93
402.381	78.51
402.59	78.51
402.799	41.64
403.008	111.27
403.217	58.03
403.426	62.12
403.635	80.55
403.844	55.98
404.053	164.52
404.262	53.93
404.471	135.85
404.68	135.85
404.888	111.27
405.097	133.8
405.306	98.99
405.515	123.56
405.724	150.18
405.933	62.12
406.142	115.37
406.35	129.7
406.559	150.18
406.768	121.51
406.977	94.89
407.185	191.14
407.394	197.29
407.603	115.37
407.812	221.86
408.02	160.42
408.229	180.9
408.438	101.03
408.646	154.28
408.855	131.75
409.064	164.52
409.272	197.29
409.481	207.53
409.69	195.24
409.898	189.1
410.107	215.72
410.315	246.44
410.524	217.77
410.733	236.2
410.941	228.01
411.15	180.9
411.358	256.68
411.567	301.73
411.775	311.97
411.984	293.54
412.192	303.78
412.401	336.55
412.609	418.47
412.818	289.45
413.026	340.65
413.234	395.94
413.443	357.03
413.651	318.12
413.86	418.47
414.068	428.71
414.276	402.08
414.485	449.19
414.693	453.28
414.901	469.67
415.11	455.33
415.318	551.59
415.526	545.44
415.734	578.21
415.943	602.79
416.151	621.22
416.359	584.35
416.567	621.22
416.776	676.51
416.984	613.03
417.192	633.5
417.4	783.01
417.608	635.55
417.817	672.42
418.025	811.68
418.233	866.97
418.441	832.16
418.649	838.3
418.857	1012.38
419.065	877.21
419.273	893.6
419.481	971.42
419.689	1010.33
419.897	1051.29
420.105	1108.63
420.313	1194.65
420.521	1147.55
420.729	1165.98
420.937	1225.37
421.145	1319.57
421.353	1348.25
421.561	1477.27
421.769	1426.07
421.977	1510.04
422.185	1507.99
422.393	1602.19
422.601	1733.26
422.809	1620.63
423.017	1733.26
423.224	1823.37
423.432	1874.57
423.64	1843.85
423.848	1938.06
424.056	2042.51
424.263	2083.47
424.471	2101.9
424.679	2155.15
424.887	2298.5
425.094	2372.23
425.302	2278.02
425.51	2583.17
425.718	2472.58
425.925	2511.49
426.133	2724.48
426.341	2812.54
426.548	2900.61
426.756	2839.17
426.964	3033.72
427.171	3144.31
427.379	3189.37
427.586	3160.7
427.794	3277.43
428.001	3332.73
428.209	3537.52
428.417	3680.88
428.624	3811.95
428.832	3895.92
429.039	3693.17
429.247	3887.73
429.454	4047.47
429.662	4371.05
429.869	4272.75
430.076	4295.27
430.284	4459.11
430.491	4557.41
430.699	4860.51
430.906	4719.2
431.114	4786.79
431.321	5073.5
431.528	5114.46
431.736	5450.33
431.943	5526.1
432.15	5632.6
432.358	5536.34
432.565	5921.36
432.772	5747.28
432.979	6083.15
433.187	6439.5
433.394	6361.67
433.601	6539.85
433.808	6890.05
434.016	6646.34
434.223	6943.3
434.43	7375.42
434.637	7408.19
434.844	7514.68
435.052	7928.37
435.259	7803.44
435.466	7965.23
435.673	7797.3
435.88	8403.5
436.087	8761.89
436.294	8827.43
436.501	8405.55
436.708	8806.95
436.915	9052.7
437.122	9472.54
437.329	9587.22
437.537	9759.25
437.743	10007.06
437.95	9794.07
438.157	10205.71
438.364	10643.98
438.571	10721.8
438.778	10709.51
438.985	11733.5
439.192	10889.73
439.399	11739.64
439.606	11506.17
439.813	12063.22
440.02	12612.07
440.227	12378.61
440.433	12337.65
440.64	12884.45
440.847	12521.96
441.054	13079.01
441.261	14082.52
441.467	13605.34
441.674	14137.81
441.881	14481.87
442.088	14109.14
442.294	14076.37
442.501	14807.5
442.708	14850.5
442.914	15479.23
443.121	16306.61
443.328	15753.66
443.534	16984.49
443.741	16396.72
443.948	16230.84
444.154	17303.97
444.361	17361.31
444.568	17523.1
444.774	17486.24
444.981	17392.03
445.187	17908.12
445.394	18768.27
445.6	18809.23
445.807	20347.25
446.013	19038.6
446.22	19921.27
446.426	20586.86
446.633	20588.91
446.839	21152.1
447.046	20609.39
447.252	21559.65
447.459	21952.86
447.665	21850.46
447.871	22505.81
448.078	23599.43
448.284	22540.63
448.491	23206.22
448.697	24004.92
448.903	24324.41
449.11	23953.73
449.316	23996.73
449.522	24480.05
449.728	25133.36
449.935	25121.07
450.141	25135.4
450.347	26073.37
450.553	25090.35
450.76	25149.74
450.966	26034.46
451.172	25903.39
451.378	26415.38
451.584	25932.06
451.791	26368.28
451.997	26143
452.203	26657.04
452.409	26577.17
452.615	26757.39
452.821	25573.67
453.027	25641.25
453.233	26562.84
453.44	25835.81
453.646	26181.92
453.852	25954.59
454.058	26652.95
454.264	25352.49
454.47	26202.39
454.676	25854.24
454.882	26118.43
455.088	24277.3
455.294	24590.64
455.5	24805.68
455.705	25000.24
455.911	24025.4
456.117	23755.07
456.323	22978.89
456.529	22202.71
456.735	23054.67
456.941	22133.08
457.147	21961.05
457.352	21436.77
457.558	21160.3
457.764	21135.72
457.97	20816.24
458.176	20207.99
458.381	20320.63
458.587	19446.15
458.793	19423.62
458.999	18127.25
459.204	19624.32
459.41	19259.78
459.616	18020.76
459.821	17629.6
460.027	17940.89
460.233	17568.16
460.438	16708.01
460.644	17031.59
460.85	16380.34
461.055	15847.86
461.261	15757.75
461.466	14670.28
461.672	14113.24
461.878	15194.56
462.083	14100.95
462.289	13787.61
462.494	13758.94
462.7	13046.24
462.905	12866.02
463.111	13056.48
463.316	13296.1
463.522	13138.4
463.727	13212.13
463.932	13093.35
464.138	12700.14
464.343	12993
464.549	12446.19
464.754	12796.39
464.959	12589.55
465.165	12716.52
465.37	12210.67
465.575	11844.09
465.781	12354.03
465.986	12300.78
466.191	11770.36
466.397	11911.67
466.602	11272.7
466.807	11760.12
467.012	11670.01
467.218	11538.94
467.423	11379.2
467.628	11497.98
467.833	12003.83
468.038	11510.27
468.244	11063.81
468.449	11692.54
468.654	11088.39
468.859	11227.65
469.064	10809.86
469.269	10875.4
469.474	10721.8
469.679	10965.51
469.885	10557.96
470.09	10564.11
470.295	10629.64
470.5	10371.6
470.705	10402.32
470.91	10189.33
471.115	10174.99
471.32	10234.38
471.525	10404.36
471.73	9925.14
471.935	10027.54
472.139	9589.27
472.344	9654.81
472.549	9519.64
472.754	9519.64
472.959	9347.61
473.164	9159.2
473.369	9009.7
473.574	9568.79
473.778	9267.74
473.983	9105.95
474.188	9138.72
474.393	8657.45
474.598	8731.17
474.802	8579.62
475.007	8540.71
475.212	8704.55
475.417	8229.42
475.621	8213.04
475.826	8475.18
476.031	8237.61
476.235	8049.2
476.44	8268.33
476.645	8096.3
476.849	7916.08
477.054	8016.43
477.259	7922.23
477.463	7707.19
477.668	7592.5
477.872	7744.05
478.077	7473.72
478.282	7182.91
478.486	7213.63
478.691	7365.18
478.895	7410.23
479.1	7440.95
479.304	7062.08
479.509	6931.01
479.713	7236.16
479.918	6908.48
480.122	6937.15
480.326	6957.63
480.531	6937.15
480.735	6879.81
480.94	6847.04
481.144	6965.82
481.348	6589
481.553	6720.07
481.757	6521.42
481.961	6863.43
482.166	6812.23
482.37	6746.69
482.574	6582.85
482.778	6707.78
482.983	6789.7
483.187	6564.42
483.391	6857.28
483.595	6718.02
483.8	6638.15
484.004	6797.89
484.208	6847.04
484.412	6621.77
484.616	6849.09
484.821	6584.9
485.025	6742.6
485.229	6801.99
485.433	6517.32
485.637	6586.95
485.841	6525.51
486.045	6701.64
486.249	6640.2
486.453	6638.15
486.657	6709.83
486.861	6656.58
487.065	6605.38
487.269	6703.68
487.473	6455.88
487.677	6658.63
487.881	6591.05
488.085	6543.94
488.289	6668.87
488.493	6597.19
488.697	6820.42
488.901	6738.5
489.105	6488.65
489.309	6945.34
489.512	6808.13
489.716	6763.08
489.92	6754.88
490.124	6773.32
490.328	6879.81
490.531	6619.72
490.735	6822.47
490.939	6787.65
491.143	6961.73
491.346	6906.43
491.55	6974.02
491.754	7031.36
491.958	7008.83
492.161	6894.15
492.365	6906.43
492.569	7066.17
492.772	6990.4
492.976	7115.33
493.18	7127.61
493.383	7230.01
493.587	7178.81
493.79	7178.81
493.994	7174.72
494.197	7164.48
494.401	7584.31
494.605	7457.34
494.808	7399.99
495.012	7670.33
495.215	7699
495.419	7516.73
495.622	7574.07
495.825	7678.52
496.029	7547.45
496.232	7911.99
496.436	7701.05
496.639	8051.25
496.843	8088.11
497.046	8010.29
497.249	8397.35
497.453	8241.71
497.656	8268.33
497.859	8262.19
498.063	8477.23
498.266	8831.52
498.469	8526.38
498.673	8712.74
498.876	8833.57
499.079	8866.34
499.282	9204.25
499.485	9073.18
499.689	9304.6
499.892	9409.05
500.095	8974.88
500.298	9749.01
500.501	9617.94
500.705	9744.92
500.908	9789.97
501.111	9826.84
501.314	9945.62
501.517	10299.92
501.72	10281.49
501.923	10191.38
502.126	10619.4
502.329	10764.81
502.532	10813.96
502.735	10838.53
502.938	11016.71
503.141	10955.27
503.344	11182.59
503.547	11328
503.75	11403.77
503.953	11477.5
504.156	11506.17
504.359	11792.89
504.562	11844.09
504.765	12085.75
504.968	12034.55
505.17	12378.61
505.373	12294.64
505.576	12642.79
505.779	12681.71
505.982	12667.37
506.185	12990.95
506.387	13126.11
506.59	13007.33
506.793	13578.72
506.996	13398.49
507.198	13457.89
507.401	13728.22
507.604	13726.17
507.807	13994.45
508.009	13953.49
508.212	14203.35
508.415	14449.1
508.617	14625.23
508.82	14762.44
509.022	14758.35
509.225	15153.6
509.428	15307.2
509.63	15137.22
509.833	15364.54
510.035	15905.21
510.238	15700.41
510.44	15763.9
510.643	15929.78
510.845	16032.18
511.048	16075.19
511.25	16382.38
511.453	16552.37
511.655	17236.39
511.858	16875.95
512.06	17244.58
512.262	17215.91
512.465	17303.97
512.667	17693.08
512.87	17957.27
513.072	17828.25
513.274	18592.14
513.477	18211.22
513.679	18600.33
513.881	18606.48
514.084	18962.83
514.286	18811.28
514.488	19210.63
514.69	19712.38
514.893	19691.9
515.095	19575.17
515.297	19894.65
515.499	19919.23
515.701	20273.53
515.904	20480.37
516.106	20580.72
516.308	20799.85
516.51	21094.76
516.712	21363.04
516.914	21356.9
517.116	21383.52
517.318	21477.73
517.52	21907.8
517.722	21893.47
517.925	22241.62
518.127	22311.25
518.329	22878.54
518.531	22438.23
518.733	23093.58
518.935	23294.28
519.136	23001.42
519.338	23554.37
519.54	23857.47
519.742	23970.11
519.944	23863.61
520.146	24344.89
520.348	24578.36
520.55	24594.74
520.752	24844.59
520.954	25317.67
521.155	25127.21
521.357	25555.24
521.559	25569.57
521.761	26044.7
521.963	26069.28
522.164	26003.74
522.366	26294.55
522.568	26358.04
522.77	26882.32
522.971	27183.37
523.173	26890.51
523.375	27148.56
523.576	27220.24
523.778	27412.74
523.98	28055.81
524.181	27795.71
524.383	27670.79
524.584	28231.93
524.786	28119.29
524.988	28070.14
525.189	28602.61
525.391	28987.63
525.592	28731.64
525.794	28891.38
525.995	29169.9
526.197	28971.25
526.398	29376.75
526.6	29522.15
526.801	29356.27
527.003	29903.07
527.204	29649.13
527.406	29939.94
527.607	29769.96
527.808	30259.42
528.01	29880.55
528.211	30130.4
528.412	30814.42
528.614	30441.69
528.815	30312.67
529.016	30580.95
529.218	30736.6
529.419	30834.9
529.62	30875.86
529.822	30826.71
530.023	30912.72
530.224	31312.08
530.425	30834.9
530.626	30965.97
530.828	31088.85
531.029	31893.7
531.23	31117.52
531.431	31150.29
531.632	31299.79
531.833	31170.77
532.035	31453.39
532.236	31334.6
532.437	32026.82
532.638	31719.62
532.839	31758.53
533.04	31834.31
533.241	31529.16
533.442	32352.44
533.643	32053.44
533.844	31795.4
534.045	32004.29
534.246	31471.82
534.447	32078.02
534.648	31699.14
534.849	31803.59
535.05	31744.2
535.251	31951.04
535.451	31865.03
535.652	32188.61
535.853	32035.01
536.054	32102.59
536.255	32063.68
536.456	32178.37
536.657	32161.98
536.857	31901.89
537.058	32010.43
537.259	32278.72
537.46	32131.26
537.66	31914.18
537.861	32237.76
538.062	31807.69
538.263	32071.87
538.463	31967.43
538.664	31983.81
538.865	32329.92
539.065	32329.92
539.266	31926.47
539.466	32121.02
539.667	31703.24
539.868	32680.12
540.068	31840.45
540.269	32067.78
540.469	31928.52
540.67	31916.23
540.87	32078.02
541.071	31922.37
541.271	31787.21
541.472	31488.2
541.672	32041.15
541.873	31645.9
542.073	31656.14
542.274	32182.46
542.474	31887.56
542.675	31768.77
542.875	31615.18
543.075	31862.98
543.276	31420.62
543.476	31922.37
543.676	31664.33
543.877	31936.71
544.077	31815.88
544.277	32041.15
544.478	31951.04
544.678	32057.54
544.878	31713.48
545.078	31838.4
545.279	31434.95
545.479	31975.62
545.679	31815.88
545.879	31631.56
546.079	31979.71
546.28	31688.9
546.48	31568.07
546.68	31881.41
546.88	31877.32
547.08	31705.29
547.28	31844.55
547.48	31361.23
547.68	32129.22
547.88	31643.85
548.081	31791.3
548.281	32028.87
548.481	31396.04
548.681	32049.35
548.881	31733.96
549.081	31697.09
549.28	31619.27
549.48	31832.26
549.68	31824.07
549.88	31983.81
550.08	31195.34
550.28	31426.76
550.48	31566.02
550.68	31742.15
550.88	31449.29
551.08	31529.16
551.279	31463.63
551.479	31437
551.679	31551.69
551.879	31332.56
552.079	31897.8
552.278	31430.86
552.478	31430.86
552.678	31471.82
552.878	31680.71
553.077	31271.12
553.277	31248.59
553.477	31912.13
553.676	31283.41
553.876	31400.14
554.076	31103.18
554.275	30992.59
554.475	30925.01
554.674	31367.37
554.874	31135.95
555.074	30886.1
555.273	31074.51
555.473	31424.72
555.672	30884.05
555.872	31127.76
556.071	31252.69
556.271	30787.8
556.47	31101.14
556.67	30664.92
556.869	30535.9
557.068	31051.98
557.268	30712.02
557.467	30628.06
557.667	30669.01
557.866	30572.76
558.065	30398.68
558.265	30480.6
558.464	30038.24
558.663	30830.8
558.863	30458.07
559.062	30931.15
559.261	30324.96
559.461	30560.47
559.66	29931.75
559.859	30243.04
560.058	30171.36
560.258	29864.16
560.457	30140.64
560.656	30261.47
560.855	29923.55
561.054	29964.51
561.253	29845.73
561.453	29890.79
561.652	30030.05
561.851	29892.83
562.05	29554.92
562.249	29751.52
562.448	29812.96
562.647	29593.83
562.846	29759.72
563.045	29651.17
563.244	29118.7
563.443	29513.96
563.642	29108.46
563.841	29307.12
564.04	29124.85
564.239	29466.86
564.438	28846.32
564.637	29200.62
564.836	28979.44
565.035	28619
565.234	29120.75
565.432	28674.29
565.631	28575.99
565.83	28662.01
566.029	28762.36
566.228	28500.22
566.427	28705.01
566.625	27869.44
566.824	28115.2
567.023	28461.3
567.222	27842.82
567.42	28295.42
567.619	28195.07
567.818	27914.5
568.016	27969.79
568.215	27820.29
568.414	27922.69
568.612	28262.65
568.811	27441.42
569.01	27625.73
569.208	27275.53
569.407	27746.56
569.605	26835.22
569.804	27644.16
570.002	27103.5
570.201	27437.32
570.4	26751.25
570.598	26751.25
570.797	26827.03
570.995	26659.09
571.193	26476.82
571.392	27242.76
571.59	26384.66
571.789	26818.83
571.987	26312.99
572.186	26661.14
572.384	26394.9
572.582	26700.05
572.781	26722.58
572.979	26171.68
573.177	26450.2
573.376	26325.27
573.574	26155.29
573.772	26020.13
573.971	25733.41
574.169	25729.31
574.367	25518.37
574.565	25811.23
574.763	25499.94
574.962	25248.04
575.16	25090.35
575.358	25772.32
575.556	25311.53
575.754	25348.39
575.952	25047.34
576.151	25241.9
576.349	24979.76
576.547	24887.6
576.745	25035.05
576.943	24717.62
577.141	24953.13
577.339	24836.4
577.537	24795.44
577.735	24566.07
577.933	24248.63
578.131	24537.4
578.329	24082.75
578.527	24330.55
578.725	23980.35
578.923	24375.61
579.121	24117.56
579.319	23884.09
579.516	24068.41
579.714	23929.15
579.912	23673.15
580.11	24213.82
580.308	23804.22
580.506	23673.15
580.704	23460.16
580.901	23554.37
581.099	23712.06
581.297	23302.47
581.495	23335.24
581.692	23511.36
581.89	23013.71
582.088	23550.28
582.285	23058.76
582.483	23228.74
582.681	23234.89
582.878	23005.52
583.076	22706.51
583.274	23171.4
583.471	22741.33
583.669	22948.17
583.866	22468.95
584.064	22704.46
584.262	22344.02
584.459	22487.38
584.657	22497.62
584.854	22450.52
585.052	22284.63
585.249	22186.33
585.447	22440.28
585.644	21805.41
585.841	22174.04
586.039	21963.1
586.236	21942.62
586.434	21860.7
586.631	21672.29
586.828	21635.42
587.026	21795.17
587.223	21576.03
587.42	21490.02
587.618	21375.33
587.815	21313.89
588.012	21289.32
588.21	21514.59
588.407	21334.37
588.604	21313.89
588.801	21184.87
588.999	21166.44
589.196	20943.21
589.393	21039.47
589.59	20980.07
589.787	20865.39
589.984	20992.36
590.182	20648.3
590.379	20724.08
590.576	20394.36
590.773	20404.6
590.97	20537.71
591.167	20377.97
591.364	20263.29
591.561	20504.95
591.758	20017.53
591.955	19939.71
592.152	20242.81
592.349	19818.88
592.546	20001.15
592.743	20121.98
592.94	19657.09
593.137	19771.77
593.334	19782.01
593.531	19362.18
593.727	19630.46
593.924	19698.05
594.121	19249.54
594.318	19579.26
594.515	19419.52
594.712	19411.33
594.908	19276.16
595.105	19231.11
595.302	19044.74
595.499	19214.73
595.696	19100.04
595.892	18960.78
596.089	18938.25
596.286	18872.71
596.482	18983.3
596.679	18934.15
596.876	18450.83
597.072	18782.6
597.269	18692.49
597.466	18528.66
597.662	18469.26
597.859	18592.14
598.055	18403.73
598.252	18370.96
598.448	18413.97
598.645	17918.36
598.841	18100.63
599.038	18010.52
599.234	17848.73
599.431	17904.03
599.627	17850.78
599.824	18067.86
600.02	18000.28
600.217	17813.91
600.413	17668.51
600.609	17674.65
600.806	17711.52
601.002	17635.74
601.198	17379.75
601.395	17326.5
601.591	17260.96
601.787	17361.31
601.984	17119.65
602.18	17600.93
602.376	17326.5
602.572	17361.31
602.769	17019.3
602.965	16984.49
603.161	17115.56
603.357	16767.4
603.553	16834.99
603.75	17058.21
603.946	16755.11
604.142	16941.48
604.338	16435.63
604.534	16695.72
604.73	16470.45
604.926	16533.93
605.122	16486.83
605.318	16437.68
605.514	16353.71
605.71	16411.06
605.906	16443.82
606.102	16193.97
606.298	16161.2
606.494	16175.54
606.69	16003.51
606.886	16114.1
607.082	15845.82
607.278	16185.78
607.474	15417.79
607.67	15849.91
607.866	15610.3
608.062	15944.12
608.257	15649.21
608.453	15854.01
608.649	15565.25
608.845	15479.23
609.041	15446.46
609.236	15503.81
609.432	15661.5
609.628	15561.15
609.824	15585.72
610.019	15331.78
610.215	15389.12
610.411	15452.61
610.606	15292.87
610.802	15614.4
610.998	15296.96
611.193	15286.72
611.389	15466.94
611.584	15323.58
611.78	15088.07
611.976	15274.43
612.171	15104.45
612.367	15010.25
612.562	15247.81
612.758	14883.27
612.953	15131.08
613.149	15020.49
613.344	14903.75
613.539	15053.25
613.735	14897.61
613.93	14899.66
614.126	14707.15
614.321	14883.27
614.517	14905.8
614.712	14561.74
614.907	14748.11
615.103	14678.47
615.298	14725.58
615.493	14614.99
615.688	14449.1
615.884	14748.11
616.079	14399.95
616.274	14793.16
616.47	14674.38
616.665	14594.51
616.86	14393.81
617.055	14268.88
617.25	14275.02
617.445	14393.81
617.641	14139.86
617.836	14369.23
618.031	13955.54
618.226	14242.26
618.421	14092.76
618.616	14090.71
618.811	13750.74
619.006	14027.22
619.201	13953.49
619.396	13928.92
619.591	13818.33
619.786	13941.21
619.981	13529.56
620.176	13689.31
620.371	13400.54
620.566	13537.76
620.761	13556.19
620.956	13470.17
621.151	13302.24
621.346	13302.24
621.541	12984.8
621.735	13259.23
621.93	13089.25
622.125	12988.9
622.32	12753.38
622.515	13029.86
622.709	13017.57
622.904	12745.19
623.099	12935.65
623.294	12837.35
623.488	12345.84
623.683	12702.18
623.878	12591.59
624.072	12327.41
624.267	12294.64
624.462	12212.72
624.656	12177.9
624.851	12444.14
625.046	11979.25
625.24	11991.54
625.435	11901.43
625.629	11960.82
625.824	11813.37
626.018	12012.02
626.213	11653.62
626.407	11569.66
626.602	11635.19
626.796	11624.95
626.991	11422.2
627.185	11334.14
627.38	11258.37
627.574	11299.33
627.768	11188.74
627.963	11069.95
628.157	10996.23
628.352	11098.63
628.546	10879.49
628.74	10840.58
628.935	10709.51
629.129	10859.01
629.323	10662.41
629.517	10637.83
629.712	10469.9
629.906	10613.26
630.1	10496.52
630.294	10484.23
630.489	10367.5
630.683	10367.5
630.877	10199.57
631.071	10203.66
631.265	10138.13
631.459	10099.22
631.653	10066.45
631.848	10230.29
632.042	10082.83
632.236	10050.07
632.43	9927.19
632.624	9945.62
632.818	9738.77
633.012	9607.7
633.206	9744.92
633.4	9894.42
633.594	9746.97
633.788	9640.47
633.982	9572.89
634.176	9488.92
634.369	9454.11
634.563	9402.91
634.757	9245.21
634.951	9204.25
635.145	9105.95
635.339	9159.2
635.533	8978.98
635.726	9142.82
635.92	8849.96
636.114	9130.53
636.308	9064.99
636.501	8745.51
636.695	8923.68
636.889	8809
637.083	8765.99
637.276	8655.4
637.47	8755.75
637.664	8550.95
637.857	8618.54
638.051	8499.75
638.244	8329.77
638.438	8362.54
638.632	8540.71
638.825	8284.72
639.019	8272.43
639.212	8282.67
639.406	8284.72
639.599	8188.46
639.793	8053.3
639.986	8155.69
640.18	8176.17
640.373	7907.89
640.567	7998
640.76	7957.04
640.954	7864.88
641.147	7815.73
641.34	7684.66
641.534	7729.72
641.727	7696.95
641.92	7655.99
642.114	7512.63
642.307	7725.62
642.5	7582.26
642.694	7387.71
642.887	7344.7
643.08	7412.28
643.273	7322.17
643.467	7383.61
643.66	7266.88
643.853	7391.8
644.046	7146.05
644.239	7160.38
644.432	7156.29
644.626	6881.86
644.819	6961.73
645.012	6916.67
645.205	7115.33
645.398	6863.43
645.591	7019.07
645.784	6865.47
645.977	6765.12
646.17	6875.71
646.363	6783.56
646.556	6498.89
646.749	6638.15
646.942	6652.49
647.135	6685.25
647.328	6668.87
647.521	6437.45
647.714	6296.14
647.907	6449.74
648.099	6396.49
648.292	6292.04
648.485	6384.2
648.678	6359.63
648.871	6328.91
649.064	6107.73
649.256	6179.4
649.449	6185.55
649.642	6124.11
649.835	6038.09
650.027	6251.08
650.22	5982.8
650.413	6042.19
650.605	5995.09
650.798	5902.93
650.991	5878.35
651.183	5872.21
651.376	5888.59
651.568	5835.35
651.761	5653.08
651.954	5816.91
652.146	5876.3
652.339	5675.6
652.531	5577.3
652.724	5722.71
652.916	5626.45
653.109	5556.82
653.301	5616.21
653.494	5460.57
653.686	5444.18
653.879	5448.28
654.071	5485.14
654.263	5433.94
654.456	5429.85
654.648	5571.16
654.84	5356.12
655.033	5309.02
655.225	5352.02
655.417	5231.19
655.61	5204.57
655.802	5145.18
655.994	5200.48
656.186	5255.77
656.379	5161.56
656.571	5177.95
656.763	5087.84
656.955	4930.14
657.148	5132.89
657.34	5247.58
657.532	4909.66
657.724	4901.47
657.916	4811.36
658.108	4764.26
658.3	4766.31
658.492	4811.36
658.684	4745.83
658.876	4770.4
659.068	4674.15
659.26	4727.39
659.452	4659.81
659.644	4680.29
659.836	4610.66
660.028	4680.29
660.22	4680.29
660.412	4631.14
660.604	4555.37
660.796	4516.45
660.988	4502.12
661.18	4485.73
661.372	4350.57
661.563	4596.32
661.755	4387.43
661.947	4311.66
662.139	4428.39
662.331	4389.48
662.522	4323.94
662.714	4254.31
662.906	4311.66
663.097	4280.94
663.289	4362.86
663.481	4211.31
663.673	4153.96
663.864	4170.35
664.056	4164.2
664.247	4229.74
664.439	4029.04
664.631	4211.31
664.822	3998.32
665.014	4133.48
665.205	4022.89
665.397	4063.85
665.588	3844.72
665.78	4026.99
665.971	3887.73
666.163	3947.12
666.354	3914.35
666.546	3990.13
666.737	3824.24
666.929	3824.24
667.12	3785.33
667.311	3705.46
667.503	3695.22
667.694	3746.42
667.885	3756.66
668.077	3762.8
668.268	3648.11
668.459	3670.64
668.651	3635.83
668.842	3627.64
669.033	3625.59
669.224	3590.77
669.416	3838.58
669.607	3484.28
669.798	3502.71
669.989	3566.2
670.18	3601.01
670.371	3510.9
670.563	3584.63
670.754	3455.61
670.945	3461.75
671.136	3445.37
671.327	3471.99
671.518	3394.17
671.709	3431.03
671.9	3349.11
672.091	3392.12
672.282	3412.6
672.473	3365.5
672.664	3218.04
672.855	3385.97
673.046	3265.14
673.237	3314.3
673.428	3232.38
673.619	3357.3
673.809	3228.28
674	3285.62
674.191	3220.09
674.382	3220.09
674.573	3142.27
674.764	3177.08
674.954	3152.51
675.145	3158.65
675.336	3052.16
675.527	3117.69
675.717	3117.69
675.908	3154.55
676.099	2970.24
676.289	3060.35
676.48	3005.05
676.671	2992.76
676.861	2949.76
677.052	2972.29
677.243	3009.15
677.433	3013.24
677.624	2898.56
677.814	2933.37
678.005	3015.29
678.195	2855.55
678.386	2931.33
678.576	2966.14
678.767	2855.55
678.957	2861.69
679.148	3091.07
679.338	2935.42
679.529	2876.03
679.719	2820.74
679.909	2767.49
680.1	2761.34
680.29	2876.03
680.481	2843.26
680.671	2843.26
680.861	2722.43
681.052	2765.44
681.242	2749.06
681.432	2830.98
681.622	2769.54
681.813	2771.58
682.003	2779.78
682.193	2806.4
682.383	2744.96
682.573	2681.47
682.764	2806.4
682.954	2773.63
683.144	2693.76
683.334	2724.48
683.524	2685.57
683.714	2542.21
683.904	2663.04
684.094	2550.4
684.284	2589.32
684.474	2675.33
684.664	2587.27
684.854	2695.81
685.044	2622.08
685.234	2642.56
685.424	2554.5
685.614	2581.12
685.804	2650.75
685.994	2597.51
686.184	2482.82
686.374	2607.75
686.564	2517.64
686.753	2456.2
686.943	2507.4
687.133	2564.74
687.323	2546.31
687.513	2523.78
687.702	2542.21
687.892	2505.35
688.082	2396.81
688.272	2497.16
688.461	2405
688.651	2470.53
688.841	2450.05
689.03	2390.66
689.22	2409.09
689.41	2519.68
689.599	2452.1
689.789	2333.32
689.979	2390.66
690.168	2292.36
690.358	2288.26
690.547	2380.42
690.737	2409.09
690.926	2204.3
691.116	2323.08
691.305	2288.26
691.495	2245.26
691.684	2300.55
691.874	2194.06
692.063	2228.87
692.252	2392.71
692.442	2224.78
692.631	2284.17
692.82	2253.45
693.01	2089.61
693.199	2226.82
693.388	2151.05
693.578	2206.34
693.767	2165.39
693.956	2206.34
694.146	2171.53
694.335	2175.63
694.524	2224.78
694.713	2353.8
694.902	2218.63
695.092	2165.39
695.281	2146.95
695.47	2030.22
695.659	2216.58
695.848	2124.43
696.037	2196.11
696.226	2208.39
696.415	2140.81
696.604	2093.71
696.793	2075.27
696.982	2046.6
697.171	2083.47
697.36	2087.56
697.549	2038.41
697.738	1968.78
697.927	2128.52
698.116	2124.43
698.305	1985.16
698.494	2120.33
698.683	2030.22
698.872	2138.76
699.061	2015.88
699.25	2085.51
699.438	2071.18
699.627	2079.37
699.816	1981.07
700.005	2013.84
700.193	1966.73
700.382	2103.95
700.571	2032.27
700.76	2081.42
700.948	2091.66
701.137	2077.32
701.326	2085.51
701.514	2087.56
701.703	2054.8
701.892	2151.05
702.08	2030.22
702.269	2071.18
702.457	2105.99
702.646	2028.17
702.834	2060.94
703.023	2038.41
703.212	2044.56
703.4	2091.66
703.589	1909.39
703.777	2105.99
703.965	1987.21
704.154	2042.51
704.342	1948.3
704.531	1936.01
704.719	1860.24
704.907	2058.89
705.096	1976.97
705.284	2056.84
705.472	2017.93
705.661	1942.16
705.849	2058.89
706.037	2015.88
706.226	2017.93
706.414	2036.36
706.602	2011.79
706.79	2136.71
706.979	1940.11
707.167	2003.6
707.355	2048.65
707.543	2048.65
707.731	2083.47
707.919	2091.66
708.107	1950.35
708.296	1950.35
708.484	2030.22
708.672	2011.79
708.86	1872.53
709.048	1884.81
709.236	1989.26
709.424	1956.49
709.612	2075.27
709.8	2028.17
709.988	1929.87
710.176	2030.22
710.364	2011.79
710.551	2026.12
710.739	1966.73
710.927	1860.24
711.115	2060.94
711.303	2022.03
711.491	2001.55
711.679	1925.77
711.866	1940.11
712.054	1985.16
712.242	1915.53
712.43	2024.08
712.617	1981.07
712.805	1911.44
712.993	2024.08
713.181	1913.49
713.368	1997.45
713.556	1952.4
713.744	1929.87
713.931	2034.32
714.119	2065.04
714.306	1936.01
714.494	1929.87
714.682	1936.01
714.869	1956.49
715.057	1956.49
715.244	2005.64
715.432	1921.68
715.619	2015.88
715.807	1946.25
715.994	1970.83
716.182	1925.77
716.369	2073.23
716.556	1921.68
716.744	1927.82
716.931	1872.53
717.119	1925.77
717.306	1890.96
717.493	2044.56
717.681	2009.74
717.868	1909.39
718.055	1940.11
718.242	1962.64
718.43	1974.92
718.617	1931.92
718.804	2058.89
718.991	1860.24
719.179	1931.92
719.366	2060.94
719.553	1905.29
719.74	2044.56
719.927	2032.27
720.114	1835.66
720.301	1958.54
720.488	1823.37
720.676	1903.25
720.863	1899.15
721.05	1919.63
721.237	1880.72
721.424	1942.16
721.611	1903.25
721.798	1929.87
721.985	1735.31
722.172	1960.59
722.358	1868.43
722.545	1860.24
722.732	1907.34
722.919	1847.95
723.106	1919.63
723.293	1876.62
723.48	1827.47
723.667	1794.7
723.853	1845.9
724.04	1974.92
724.227	1874.57
724.414	1933.97
724.6	1847.95
724.787	1866.38
724.974	1933.97
725.161	1950.35
725.347	1835.66
725.534	1929.87
725.72	1927.82
725.907	1862.29
726.094	1878.67
726.28	1966.73
726.467	1882.77
726.653	1757.84
726.84	1923.73
727.027	1841.81
727.213	1880.72
727.4	1929.87
727.586	1981.07
727.773	1915.53
727.959	1845.9
728.145	1884.81
728.332	1819.28
728.518	1827.47
728.705	1860.24
728.891	1753.74
729.077	1751.7
729.264	1915.53
729.45	1802.9
729.636	1845.9
729.823	1802.9
730.009	1899.15
730.195	1884.81
730.382	1933.97
730.568	1831.57
730.754	1813.13
730.94	1868.43
731.126	1845.9
731.313	1798.8
731.499	1780.37
731.685	1864.33
731.871	1839.76
732.057	1806.99
732.243	1825.42
732.429	1688.21
732.615	1847.95
732.801	1806.99
732.987	1702.54
733.173	1809.04
733.359	1735.31
733.545	1720.98
733.731	1852.05
733.917	1979.02
734.103	1755.79
734.289	1704.59
734.475	1774.22
734.661	1854.09
734.847	1903.25
735.033	1843.85
735.219	1782.42
735.404	1700.5
735.59	1829.52
735.776	1780.37
735.962	1811.09
736.148	1796.75
736.333	1751.7
736.519	1700.5
736.705	1741.46
736.89	1651.35
737.076	1720.98
737.262	1860.24
737.447	1782.42
737.633	1643.15
737.819	1698.45
738.004	1733.26
738.19	1731.22
738.375	1698.45
738.561	1657.49
738.747	1749.65
738.932	1657.49
739.118	1792.66
739.303	1723.02
739.489	1688.21
739.674	1704.59
739.859	1778.32
740.045	1614.48
740.23	1811.09
740.416	1708.69
740.601	1745.55
740.786	1667.73
740.972	1618.58
741.157	1714.83
741.342	1575.57
741.528	1628.82
741.713	1647.25
741.898	1639.06
742.084	1555.09
742.269	1675.92
742.454	1704.59
742.639	1686.16
742.824	1579.67
743.01	1675.92
743.195	1594
743.38	1655.44
743.565	1581.71
743.75	1557.14
743.935	1503.89
744.12	1534.61
744.305	1464.98
744.49	1565.33
744.675	1495.7
744.86	1546.9
745.045	1544.85
745.23	1555.09
745.415	1497.75
745.6	1471.12
745.785	1454.74
745.97	1567.38
746.155	1526.42
746.34	1401.49
746.525	1507.99
746.71	1421.97
746.895	1495.7
747.079	1348.25
747.264	1413.78
747.449	1409.69
747.634	1401.49
747.819	1430.16
748.003	1303.19
748.188	1370.77
748.373	1424.02
748.557	1317.53
748.742	1329.81
748.927	1378.97
749.111	1381.01
749.296	1313.43
749.481	1350.29
749.665	1333.91
749.85	1295
750.034	1280.66
750.219	1266.33
750.404	1272.47
750.588	1307.29
750.773	1262.23
750.957	1229.46
751.141	1213.08
751.326	1245.85
751.51	1286.81
751.695	1145.5
751.879	1178.26
752.064	1256.09
752.248	1139.35
752.432	1295
752.617	1182.36
752.801	1211.03
752.985	1143.45
753.17	1168.02
753.354	1157.78
753.538	1127.07
753.722	1149.59
753.907	1174.17
754.091	1141.4
754.275	1204.89
754.459	1098.39
754.643	1125.02
754.828	1073.82
755.012	1102.49
755.196	1036.95
755.38	1139.35
755.564	1129.11
755.748	1053.34
755.932	1036.95
756.116	1168.02
756.3	979.61
756.484	1041.05
756.668	1045.15
756.852	1014.43
757.036	1073.82
757.22	993.95
757.404	1022.62
757.588	1024.67
757.772	979.61
757.956	969.37
758.14	1034.91
758.323	938.65
758.507	875.17
758.691	946.84
758.875	1032.86
759.059	944.8
759.242	912.03
759.426	903.84
759.61	889.5
759.794	893.6
759.977	920.22
760.161	977.56
760.345	983.71
760.528	834.21
760.712	903.84
760.895	901.79
761.079	899.74
761.263	977.56
761.446	881.31
761.63	813.73
761.813	838.3
761.997	912.03
762.18	819.87
762.364	879.26
762.547	832.16
762.731	852.64
762.914	848.54
763.098	830.11
763.281	742.05
763.464	821.92
763.648	772.77
763.831	783.01
764.015	799.39
764.198	866.97
764.381	807.58
764.564	768.67
764.748	783.01
764.931	871.07
765.114	778.91
765.297	778.91
765.481	770.72
765.664	707.23
765.847	811.68
766.03	770.72
766.213	696.99
766.397	811.68
766.58	793.25
766.763	756.38
766.946	787.1
767.129	764.58
767.312	783.01
767.495	821.92
767.678	758.43
767.861	676.51
768.044	688.8
768.227	721.57
768.41	690.85
768.593	764.58
768.776	758.43
768.959	740
769.142	754.34
769.324	733.86
769.507	727.71
769.69	701.09
769.873	737.95
770.056	735.9
770.239	713.38
770.421	690.85
770.604	752.29
770.787	715.42
770.97	715.42
771.152	680.61
771.335	686.75
771.518	729.76
771.7	625.31
771.883	735.9
772.066	666.27
772.248	701.09
772.431	723.62
772.613	684.7
772.796	596.64
772.978	725.66
773.161	692.9
773.343	602.79
773.526	617.12
773.708	656.03
773.891	602.79
774.073	647.84
774.256	615.07
774.438	686.75
774.621	639.65
774.803	592.55
774.985	662.18
775.168	721.57
775.35	576.16
775.532	606.88
775.715	584.35
775.897	617.12
776.079	600.74
776.261	666.27
776.444	610.98
776.626	563.87
776.808	565.92
776.99	539.3
777.173	586.4
777.355	473.76
777.537	615.07
777.719	537.25
777.901	475.81
778.083	506.53
778.265	490.15
778.447	578.21
778.629	518.82
778.811	537.25
778.993	465.57
779.175	432.8
779.357	481.96
779.539	520.87
779.721	494.24
779.903	455.33
780.085	518.82
780.267	613.03
780.449	510.63
780.631	508.58
780.812	514.72
780.994	467.62
781.176	445.09
781.358	479.91
781.54	432.8
781.721	387.75
781.903	457.38
782.085	393.89
782.267	414.37
782.448	494.24
782.63	481.96
782.812	418.47
782.993	352.93
783.175	486.05
783.357	412.32
783.538	402.08
783.72	404.13
783.901	375.46
784.083	438.95
784.264	420.52
784.446	393.89
784.627	395.94
784.809	422.56
784.99	379.56
785.172	406.18
785.353	375.46
785.535	420.52
785.716	348.84
785.897	393.89
786.079	385.7
786.26	385.7
786.441	393.89
786.623	277.16
786.804	383.65
786.985	387.75
787.167	359.08
787.348	334.5
787.529	314.02
787.71	338.6
787.891	367.27
788.073	324.26
788.254	311.97
788.435	244.39
788.616	393.89
788.797	291.49
788.978	283.3
789.159	322.21
789.34	359.08
789.522	318.12
789.703	314.02
789.884	322.21
790.065	397.99
790.246	318.12
790.427	377.51
790.607	336.55
790.788	252.58
790.969	250.53
791.15	287.4
791.331	236.2
791.512	297.64
791.693	283.3
791.874	207.53
792.054	277.16
792.235	311.97
792.416	322.21
792.597	318.12
792.778	357.03
792.958	268.97
793.139	244.39
793.32	283.3
793.5	250.53
793.681	234.15
793.862	289.45
794.042	221.86
794.223	240.29
794.404	279.21
794.584	242.34
794.765	180.9
794.945	275.11
795.126	176.81
795.306	279.21
795.487	215.72
795.667	293.54
795.848	305.83
796.028	162.47
796.209	240.29
796.389	248.49
796.57	266.92
796.75	232.1
796.93	185
797.111	256.68
797.291	221.86
797.471	295.59
797.652	176.81
797.832	240.29
798.012	260.77
798.192	232.1
798.373	271.01
798.553	135.85
798.733	139.94
798.913	187.05
799.093	223.91
799.274	195.24
799.454	191.14
799.634	199.34
799.814	180.9
799.994	199.34
800.174	262.82
800.354	230.06
800.534	191.14
800.714	191.14
800.894	144.04
801.074	264.87
801.254	176.81
801.434	258.73
801.614	193.19
801.794	146.09
801.974	545.44
802.154	105.13
802.334	205.48
802.514	133.8
802.693	178.86
802.873	160.42
803.053	193.19
803.233	174.76
803.413	199.34
803.592	121.51
803.772	152.23
803.952	250.53
804.131	170.66
804.311	141.99
804.491	234.15
804.67	150.18
804.85	146.09
805.03	262.82
805.209	205.48
805.389	156.33
805.568	228.01
805.748	160.42
805.928	148.14
806.107	135.85
806.287	242.34
806.466	158.38
806.646	195.24
806.825	111.27
807.004	199.34
807.184	254.63
807.363	127.66
807.543	160.42
807.722	203.43
807.901	178.86
808.081	174.76
808.26	191.14
808.439	105.13
808.619	131.75
808.798	105.13
808.977	109.22
809.156	150.18
809.336	178.86
809.515	111.27
809.694	107.18
809.873	82.6
810.052	101.03
810.231	160.42
810.411	105.13
810.59	193.19
810.769	55.98
810.948	137.9
811.127	111.27
811.306	146.09
811.485	144.04
811.664	152.23
811.843	197.29
812.022	164.52
812.201	60.07
812.38	121.51
812.559	53.93
812.737	53.93
812.916	119.46
813.095	68.27
813.274	217.77
813.453	80.55
813.632	160.42
813.811	82.6
813.989	139.94
814.168	103.08
814.347	111.27
814.526	152.23
814.704	107.18
814.883	150.18
815.062	82.6
815.24	127.66
815.419	88.75
815.598	113.32
815.776	39.59
815.955	146.09
816.133	49.83
816.312	88.75
816.49	139.94
816.669	68.27
816.847	115.37
817.026	113.32
817.204	90.79
817.383	127.66
817.561	60.07
817.74	74.41
817.918	101.03
818.097	133.8
818.275	113.32
818.453	150.18
818.632	82.6
818.81	-11.61
818.988	103.08
819.167	119.46
819.345	150.18
819.523	68.27
819.701	82.6
819.879	150.18
820.058	141.99
820.236	29.35
820.414	74.41
820.592	96.94
820.77	103.08
820.948	39.59
821.127	115.37
821.305	146.09
821.483	68.27
821.661	137.9
821.839	70.31
822.017	39.59
822.195	23.21
822.373	115.37
822.551	62.12
822.729	90.79
822.907	129.7
823.085	105.13
823.262	70.31
823.44	51.88
823.618	58.03
823.796	23.21
823.974	109.22
824.152	98.99
824.329	103.08
824.507	156.33
824.685	-5.46
824.863	88.75
825.04	90.79
825.218	31.4
825.396	70.31
825.574	103.08
825.751	90.79
825.929	166.57
826.107	82.6
826.284	58.03
826.462	94.89
826.639	94.89
826.817	19.11
826.994	103.08
827.172	109.22
827.349	180.9
827.527	29.35
827.704	109.22
827.882	49.83
828.059	88.75
828.237	-3.41
828.414	51.88
828.591	55.98
828.769	113.32
828.946	103.08
829.124	86.7
829.301	137.9
829.478	80.55
829.655	55.98
829.833	4.78
830.01	45.74
830.187	113.32
830.364	90.79
830.542	156.33
830.719	0.68
830.896	72.36
831.073	98.99
831.25	121.51
831.427	139.94
831.604	25.26
831.782	43.69
831.959	27.31
832.136	94.89
832.313	70.31
832.49	33.45
832.667	125.61
832.844	53.93
833.021	107.18
833.198	4.78
833.374	74.41
833.551	70.31
833.728	43.69
833.905	135.85
834.082	15.02
834.259	47.79
834.436	86.7
834.612	70.31
834.789	47.79
834.966	55.98
835.143	88.75
835.319	2.73
835.496	129.7
835.673	35.5
835.85	12.97
836.026	31.4
836.203	94.89
836.38	41.64
836.556	109.22
836.733	-3.41
836.909	115.37
837.086	-5.46
837.262	-1.37
837.439	-40.28
837.616	35.5
837.792	8.87
837.968	15.02
838.145	45.74
838.321	58.03
838.498	127.66
838.674	17.07
838.851	31.4
839.027	15.02
839.203	64.17
839.38	70.31
839.556	21.16
839.732	25.26
839.909	-23.89
840.085	-46.42
840.261	-32.08
840.437	53.93
840.614	64.17
840.79	41.64
840.966	10.92
841.142	33.45
841.318	-19.8
841.494	-19.8
841.671	4.78
841.847	17.07
842.023	12.97
842.199	62.12
842.375	37.55
842.551	15.02
842.727	-1.37
842.903	60.07
843.079	6.83
843.255	66.22
843.431	31.4
843.607	45.74
843.783	8.87
843.959	-7.51
844.134	-19.8
844.31	21.16
844.486	33.45
844.662	51.88
844.838	-5.46
845.013	49.83
845.189	53.93
845.365	8.87
845.541	33.45
845.716	86.7
845.892	55.98
846.068	74.41
846.244	25.26
846.419	78.51
846.595	-60.76
846.77	78.51
846.946	62.12
847.122	-13.65
847.297	31.4
847.473	129.7
847.648	37.55
847.824	27.31
847.999	0.68
848.175	19.11
848.35	35.5
848.526	41.64
848.701	62.12
848.876	-30.04
849.052	111.27
849.227	58.03
849.403	29.35
849.578	4.78
849.753	-23.89
849.929	64.17
850.104	23.21
850.279	49.83
850.454	45.74
850.63	70.31
850.805	19.11
850.98	17.07
851.155	-3.41
851.33	76.46
851.505	-38.23
851.681	49.83
851.856	53.93
852.031	43.69
852.206	-11.61
852.381	58.03
852.556	31.4
852.731	17.07
852.906	53.93
853.081	31.4
853.256	49.83
853.431	6.83
853.606	29.35
853.781	21.16
853.956	-46.42
854.131	47.79
854.305	-5.46
854.48	-38.23
854.655	-54.61
854.83	31.4
855.005	-7.51
855.18	35.5
855.354	-3.41
855.529	17.07
855.704	49.83
855.879	49.83
856.053	78.51
856.228	-3.41
856.403	0.68
856.577	-32.08
856.752	-42.32
856.926	62.12
857.101	35.5
857.276	-58.71
857.45	-5.46
857.625	68.27
857.799	19.11
857.974	-21.85
858.148	0.68
858.323	62.12
858.497	-5.46
858.672	6.83
858.846	-7.51
859.02	84.65
859.195	-58.71
859.369	43.69
859.543	55.98
859.718	-15.7
859.892	41.64
860.066	-11.61
860.241	19.11
860.415	76.46
860.589	-5.46
860.763	92.84
860.938	19.11
861.112	8.87
861.286	-15.7
861.46	-40.28
861.634	-21.85
861.808	-23.89
861.982	-19.8
862.157	58.03
862.331	33.45
862.505	-23.89
862.679	-19.8
862.853	0.68
863.027	29.35
863.201	43.69
863.375	0.68
863.549	-9.56
863.722	64.17
863.896	-9.56
864.07	-17.75
864.244	-21.85
864.418	66.22
864.592	6.83
864.766	-11.61
864.939	25.26
865.113	-5.46
865.287	-25.94
865.461	-11.61
865.634	-19.8
865.808	-11.61
865.982	-27.99
866.156	8.87
866.329	25.26
866.503	29.35
866.676	29.35
866.85	47.79
867.024	-21.85
867.197	-19.8
867.371	25.26
867.544	-32.08
867.718	47.79
867.891	66.22
868.065	-36.18
868.238	4.78
868.412	113.32
868.585	-60.76
868.759	17.07
868.932	6.83
869.105	2.73
869.279	-93.52
869.452	62.12
869.625	41.64
869.799	0.68
869.972	-21.85
870.145	33.45
870.319	-42.32
870.492	-79.19
870.665	-38.23
870.838	-77.14
871.011	-64.85
871.185	-95.57
871.358	-62.8
871.531	41.64
871.704	17.07
871.877	25.26
872.05	-38.23
872.223	-11.61
872.396	68.27
872.569	70.31
872.742	-19.8
872.915	76.46
873.088	8.87
873.261	-56.66
873.434	43.69
873.607	23.21
873.78	37.55
873.953	-60.76
874.126	29.35
874.299	-19.8
874.471	2.73
874.644	-79.19
874.817	-30.04
874.99	66.22
875.163	51.88
875.335	31.4
875.508	43.69
875.681	-34.13
875.853	-99.67
876.026	29.35
876.199	0.68
876.371	-11.61
876.544	12.97
876.717	29.35
876.889	-3.41
877.062	-77.14
877.234	-32.08
877.407	-36.18
877.579	12.97
877.752	-71
877.924	-64.85
878.097	-5.46
878.269	-27.99
878.442	-17.75
878.614	-9.56
878.786	-40.28
878.959	-23.89
879.131	-15.7
879.303	-40.28
879.476	10.92
879.648	-5.46
879.82	47.79
879.993	49.83
880.165	17.07
880.337	-42.32
880.509	-7.51
880.681	-21.85
880.854	-11.61
881.026	-60.76
881.198	21.16
881.37	-27.99
881.542	-19.8
881.714	25.26
881.886	4.78
882.058	0.68
882.23	-21.85
882.402	10.92
882.574	-54.61
882.746	33.45
882.918	4.78
883.09	2.73
883.262	12.97
883.434	-3.41
883.606	-5.46
883.778	-3.41
883.95	19.11
884.122	-3.41
884.293	62.12
884.465	-23.89
884.637	19.11
884.809	43.69
884.98	-40.28
885.152	-5.46
885.324	27.31
885.496	-42.32
885.667	12.97
885.839	-40.28
886.011	-3.41
886.182	33.45
886.354	-46.42
886.525	10.92
886.697	33.45
886.869	4.78
887.04	-23.89
887.212	6.83
887.383	31.4
887.555	15.02
887.726	-15.7
887.897	-50.52
888.069	21.16
888.24	-5.46
888.412	0.68
888.583	-42.32
888.754	-62.8
888.926	-3.41
889.097	-1.37
889.268	-23.89
889.44	-15.7
889.611	-23.89
889.782	-3.41
889.953	12.97
890.125	2.73
890.296	19.11
890.467	-58.71
890.638	-60.76
890.809	-11.61
890.98	-17.75
891.151	-23.89
891.323	-11.61
891.494	-21.85
891.665	-5.46
891.836	103.08
892.007	-27.99
892.178	10.92
892.349	60.07
892.52	39.59
892.691	-19.8
892.862	-5.46
893.032	-9.56
893.203	-27.99
893.374	0.68
893.545	33.45
893.716	-89.43
893.887	15.02
894.057	21.16
894.228	-27.99
894.399	-11.61
894.57	41.64
894.74	-23.89
894.911	4.78
895.082	-36.18
895.253	-1.37
895.423	17.07
895.594	-7.51
895.764	58.03
895.935	8.87
896.106	33.45
896.276	72.36
896.447	-48.47
896.617	15.02
896.788	37.55
896.958	-64.85
897.129	25.26
897.299	0.68
897.47	2.73
897.64	-40.28
897.81	-38.23
897.981	31.4
898.151	4.78
898.322	29.35
898.492	-3.41
898.662	-79.19
898.832	-13.65
899.003	-32.08
899.173	12.97
899.343	-15.7
899.513	-27.99
