Data from USB4F104151__192__11-09-51-021.txt Node

Date: Wed Mar 12 11:09:51 EDT 2025
User: louis
Spectrometer: USB4F10415
Trigger mode: 4
Integration Time (sec): 2.000000E-2
Scans to average: 1
Electric dark correction enabled: true
Nonlinearity correction enabled: false
Boxcar width: 0
XAxis mode: Wavelengths
Number of Pixels in Spectrum: 3648
>>>>>Begin Spectral Data<<<<<
178.204	-106.15
178.424	-106.15
178.644	-106.15
178.864	-128.68
179.084	-106.15
179.304	-13.99
179.524	33.11
179.744	51.54
179.964	-18.09
180.184	16.73
180.404	-34.47
180.624	-18.09
180.844	-42.67
181.064	-38.57
181.283	29.01
181.503	-7.85
181.723	43.35
181.943	-3.75
182.163	-61.1
182.383	16.73
182.602	14.68
182.822	6.49
183.042	-85.67
183.262	0.34
183.482	-91.82
183.701	10.58
183.921	-50.86
184.141	-57
184.361	20.82
184.58	6.49
184.8	-54.95
185.02	-16.04
185.239	-20.14
185.459	-1.71
185.679	45.4
185.898	-79.53
186.118	37.2
186.338	-44.71
186.557	90.45
186.777	-26.28
186.997	-11.95
187.216	43.35
187.436	31.06
187.655	4.44
187.875	-24.23
188.095	6.49
188.314	-22.19
188.534	-3.75
188.753	0.34
188.973	8.53
189.192	0.34
189.412	-48.81
189.631	-91.82
189.851	49.49
190.07	26.96
190.29	-61.1
190.509	-44.71
190.729	-57
190.948	-28.33
191.168	47.44
191.387	-34.47
191.607	45.4
191.826	-32.43
192.045	4.44
192.265	-11.95
192.484	39.25
192.704	-36.52
192.923	-54.95
193.142	-5.8
193.362	-9.9
193.581	29.01
193.8	31.06
194.02	43.35
194.239	-24.23
194.458	43.35
194.678	51.54
194.897	-16.04
195.116	29.01
195.335	-69.29
195.555	-16.04
195.774	-13.99
195.993	37.2
196.212	16.73
196.432	-38.57
196.651	-71.34
196.87	-16.04
197.089	37.2
197.308	12.63
197.528	-34.47
197.747	-48.81
197.966	18.77
198.185	33.11
198.404	29.01
198.623	4.44
198.842	22.87
199.062	-32.43
199.281	115.03
199.5	-48.81
199.719	51.54
199.938	16.73
200.157	-5.8
200.376	29.01
200.595	31.06
200.814	55.64
201.033	-69.29
201.252	31.06
201.471	-28.33
201.69	4.44
201.909	-34.47
202.128	6.49
202.347	14.68
202.566	-9.9
202.785	10.58
203.004	-36.52
203.223	24.92
203.442	-3.75
203.661	2.39
203.879	-42.67
204.098	-13.99
204.317	-44.71
204.536	43.35
204.755	-32.43
204.974	72.02
205.193	45.4
205.411	24.92
205.63	-59.05
205.849	18.77
206.068	41.3
206.287	35.16
206.505	-42.67
206.724	-44.71
206.943	0.34
207.162	18.77
207.381	8.53
207.599	-40.62
207.818	-7.85
208.037	-9.9
208.255	6.49
208.474	8.53
208.693	-20.14
208.911	-36.52
209.13	61.78
209.349	-61.1
209.567	-61.1
209.786	-32.43
210.005	41.3
210.223	-40.62
210.442	-24.23
210.661	57.68
210.879	31.06
211.098	33.11
211.316	20.82
211.535	35.16
211.753	-46.76
211.972	-24.23
212.191	-7.85
212.409	18.77
212.628	51.54
212.846	18.77
213.065	12.63
213.283	-1.71
213.502	-22.19
213.72	-16.04
213.938	-34.47
214.157	88.4
214.375	4.44
214.594	-20.14
214.812	-32.43
215.031	12.63
215.249	4.44
215.467	51.54
215.686	2.39
215.904	-30.38
216.122	-26.28
216.341	37.2
216.559	-11.95
216.778	-3.75
216.996	-30.38
217.214	-100.01
217.432	-3.75
217.651	4.44
217.869	29.01
218.087	0.34
218.306	33.11
218.524	-3.75
218.742	-69.29
218.96	2.39
219.179	-11.95
219.397	-9.9
219.615	43.35
219.833	-11.95
220.051	-36.52
220.27	24.92
220.488	51.54
220.706	35.16
220.924	-5.8
221.142	-44.71
221.36	-52.91
221.578	-20.14
221.796	49.49
222.015	61.78
222.233	-1.71
222.451	12.63
222.669	-30.38
222.887	39.25
223.105	53.59
223.323	-100.01
223.541	-61.1
223.759	22.87
223.977	29.01
224.195	96.6
224.413	-1.71
224.631	-7.85
224.849	35.16
225.067	57.68
225.285	2.39
225.503	41.3
225.721	-24.23
225.939	53.59
226.157	-5.8
226.375	-1.71
226.592	-57
226.81	-13.99
227.028	-52.91
227.246	59.73
227.464	39.25
227.682	-3.75
227.9	47.44
228.117	16.73
228.335	8.53
228.553	-46.76
228.771	0.34
228.989	-16.04
229.206	37.2
229.424	-71.34
229.642	29.01
229.86	-3.75
230.077	57.68
230.295	57.68
230.513	18.77
230.731	24.92
230.948	43.35
231.166	86.36
231.384	22.87
231.601	-67.24
231.819	45.4
232.037	-32.43
232.254	39.25
232.472	-79.53
232.689	-20.14
232.907	35.16
233.125	-20.14
233.342	-24.23
233.56	24.92
233.777	-26.28
233.995	-32.43
234.213	33.11
234.43	39.25
234.648	35.16
234.865	-48.81
235.083	-20.14
235.3	59.73
235.518	-36.52
235.735	61.78
235.953	20.82
236.17	-42.67
236.388	-61.1
236.605	-73.39
236.822	0.34
237.04	-24.23
237.257	4.44
237.475	29.01
237.692	-1.71
237.909	59.73
238.127	47.44
238.344	35.16
238.562	2.39
238.779	-20.14
238.996	-54.95
239.214	16.73
239.431	-34.47
239.648	12.63
239.865	4.44
240.083	-3.75
240.3	51.54
240.517	57.68
240.735	20.82
240.952	53.59
241.169	-11.95
241.386	35.16
241.603	41.3
241.821	24.92
242.038	-18.09
242.255	53.59
242.472	-5.8
242.689	65.88
242.907	26.96
243.124	31.06
243.341	-16.04
243.558	-54.95
243.775	0.34
243.992	-85.67
244.209	-11.95
244.426	-1.71
244.643	-13.99
244.86	-73.39
245.078	-65.19
245.295	-24.23
245.512	-32.43
245.729	-24.23
245.946	39.25
246.163	-3.75
246.38	-20.14
246.597	43.35
246.814	41.3
247.031	-32.43
247.248	-18.09
247.464	61.78
247.681	-3.75
247.898	-73.39
248.115	-11.95
248.332	14.68
248.549	20.82
248.766	-34.47
248.983	16.73
249.2	-16.04
249.417	6.49
249.633	-57
249.85	59.73
250.067	-59.05
250.284	26.96
250.501	-20.14
250.717	65.88
250.934	35.16
251.151	8.53
251.368	-3.75
251.585	47.44
251.801	14.68
252.018	-26.28
252.235	-11.95
252.451	-5.8
252.668	-54.95
252.885	-7.85
253.102	-1.71
253.318	-36.52
253.535	-50.86
253.752	20.82
253.968	49.49
254.185	-11.95
254.401	53.59
254.618	-20.14
254.835	2.39
255.051	49.49
255.268	-11.95
255.484	45.4
255.701	6.49
255.917	14.68
256.134	-126.63
256.351	-36.52
256.567	12.63
256.784	57.68
257	18.77
257.217	-77.48
257.433	-18.09
257.65	-5.8
257.866	16.73
258.082	-26.28
258.299	-65.19
258.515	-22.19
258.732	-20.14
258.948	-40.62
259.165	-59.05
259.381	14.68
259.597	51.54
259.814	20.82
260.03	-40.62
260.246	12.63
260.463	29.01
260.679	37.2
260.895	24.92
261.112	-11.95
261.328	-40.62
261.544	-24.23
261.761	41.3
261.977	59.73
262.193	-42.67
262.409	-9.9
262.626	37.2
262.842	-48.81
263.058	37.2
263.274	-16.04
263.49	-28.33
263.707	4.44
263.923	59.73
264.139	6.49
264.355	37.2
264.571	2.39
264.787	31.06
265.004	-7.85
265.22	-3.75
265.436	-9.9
265.652	33.11
265.868	26.96
266.084	-22.19
266.3	-32.43
266.516	-3.75
266.732	-32.43
266.948	4.44
267.164	-18.09
267.38	-7.85
267.596	-46.76
267.812	78.16
268.028	35.16
268.244	43.35
268.46	65.88
268.676	-9.9
268.892	10.58
269.108	-28.33
269.324	39.25
269.54	-106.15
269.756	16.73
269.972	-65.19
270.188	31.06
270.403	-73.39
270.619	-34.47
270.835	45.4
271.051	22.87
271.267	4.44
271.483	-7.85
271.698	-13.99
271.914	49.49
272.13	-16.04
272.346	-13.99
272.562	26.96
272.777	-16.04
272.993	-28.33
273.209	18.77
273.425	6.49
273.64	45.4
273.856	18.77
274.072	-1.71
274.287	-77.48
274.503	-13.99
274.719	-28.33
274.934	37.2
275.15	2.39
275.366	-7.85
275.581	33.11
275.797	24.92
276.012	31.06
276.228	-30.38
276.444	-52.91
276.659	55.64
276.875	-42.67
277.09	-30.38
277.306	18.77
277.521	29.01
277.737	20.82
277.952	-36.52
278.168	65.88
278.383	-52.91
278.599	108.88
278.814	-28.33
279.03	-26.28
279.245	-65.19
279.461	51.54
279.676	39.25
279.892	-36.52
280.107	26.96
280.322	0.34
280.538	-59.05
280.753	10.58
280.969	-20.14
281.184	-34.47
281.399	-40.62
281.615	96.6
281.83	53.59
282.045	-32.43
282.26	-48.81
282.476	24.92
282.691	8.53
282.906	-40.62
283.122	29.01
283.337	39.25
283.552	119.12
283.767	12.63
283.983	-18.09
284.198	-44.71
284.413	-16.04
284.628	-38.57
284.843	18.77
285.058	76.12
285.274	-11.95
285.489	20.82
285.704	43.35
285.919	39.25
286.134	-18.09
286.349	14.68
286.564	-38.57
286.779	10.58
286.995	8.53
287.21	-81.58
287.425	22.87
287.64	-18.09
287.855	-54.95
288.07	41.3
288.285	-1.71
288.5	4.44
288.715	53.59
288.93	-34.47
289.145	-1.71
289.36	22.87
289.575	55.64
289.79	12.63
290.004	24.92
290.219	49.49
290.434	-46.76
290.649	-36.52
290.864	-110.25
291.079	-28.33
291.294	6.49
291.509	12.63
291.724	20.82
291.938	29.01
292.153	33.11
292.368	-16.04
292.583	2.39
292.798	-9.9
293.012	16.73
293.227	-61.1
293.442	2.39
293.657	-24.23
293.871	86.36
294.086	-18.09
294.301	-50.86
294.516	-32.43
294.73	39.25
294.945	31.06
295.16	29.01
295.374	0.34
295.589	-28.33
295.804	35.16
296.018	-57
296.233	26.96
296.447	31.06
296.662	-63.15
296.877	12.63
297.091	4.44
297.306	49.49
297.52	33.11
297.735	-5.8
297.949	-73.39
298.164	-22.19
298.378	-44.71
298.593	-26.28
298.807	-1.71
299.022	20.82
299.236	45.4
299.451	49.49
299.665	8.53
299.88	49.49
300.094	-20.14
300.309	31.06
300.523	-30.38
300.737	-1.71
300.952	16.73
301.166	10.58
301.381	-7.85
301.595	-1.71
301.809	8.53
302.024	59.73
302.238	-26.28
302.452	24.92
302.667	8.53
302.881	12.63
303.095	37.2
303.309	-20.14
303.524	-59.05
303.738	10.58
303.952	49.49
304.166	-91.82
304.381	-73.39
304.595	-9.9
304.809	24.92
305.023	-81.58
305.237	-7.85
305.452	14.68
305.666	31.06
305.88	31.06
306.094	-20.14
306.308	20.82
306.522	2.39
306.736	-65.19
306.95	0.34
307.164	8.53
307.379	-20.14
307.593	39.25
307.807	-3.75
308.021	18.77
308.235	-52.91
308.449	-22.19
308.663	-13.99
308.877	4.44
309.091	-7.85
309.305	-24.23
309.519	-79.53
309.733	63.83
309.947	-48.81
310.161	-71.34
310.374	41.3
310.588	-3.75
310.802	51.54
311.016	61.78
311.23	43.35
311.444	-36.52
311.658	4.44
311.872	41.3
312.085	-1.71
312.299	47.44
312.513	33.11
312.727	-26.28
312.941	20.82
313.154	14.68
313.368	-71.34
313.582	-46.76
313.796	-20.14
314.009	-30.38
314.223	-16.04
314.437	59.73
314.651	47.44
314.864	8.53
315.078	-11.95
315.292	12.63
315.505	0.34
315.719	102.74
315.933	65.88
316.146	12.63
316.36	-36.52
316.573	12.63
316.787	-44.71
317.001	-13.99
317.214	-20.14
317.428	88.4
317.641	-36.52
317.855	63.83
318.068	22.87
318.282	-24.23
318.495	6.49
318.709	-5.8
318.922	-61.1
319.136	41.3
319.349	-24.23
319.563	-1.71
319.776	22.87
319.99	-36.52
320.203	-11.95
320.417	43.35
320.63	2.39
320.843	10.58
321.057	39.25
321.27	-24.23
321.483	49.49
321.697	-40.62
321.91	6.49
322.124	20.82
322.337	-30.38
322.55	63.83
322.763	22.87
322.977	63.83
323.19	-16.04
323.403	-57
323.617	-44.71
323.83	86.36
324.043	-3.75
324.256	4.44
324.469	18.77
324.683	57.68
324.896	-79.53
325.109	-20.14
325.322	-3.75
325.535	14.68
325.748	41.3
325.962	53.59
326.175	-9.9
326.388	6.49
326.601	86.36
326.814	20.82
327.027	55.64
327.24	41.3
327.453	12.63
327.666	12.63
327.879	0.34
328.092	-22.19
328.305	8.53
328.518	8.53
328.731	20.82
328.944	0.34
329.157	8.53
329.37	39.25
329.583	14.68
329.796	12.63
330.009	-30.38
330.222	16.73
330.435	-52.91
330.648	-16.04
330.861	41.3
331.073	-7.85
331.286	-3.75
331.499	-26.28
331.712	-59.05
331.925	53.59
332.138	37.2
332.35	24.92
332.563	4.44
332.776	-20.14
332.989	8.53
333.202	-5.8
333.414	-24.23
333.627	26.96
333.84	-5.8
334.053	33.11
334.265	-30.38
334.478	8.53
334.691	0.34
334.903	49.49
335.116	-104.11
335.329	82.26
335.541	4.44
335.754	20.82
335.966	-40.62
336.179	0.34
336.392	-11.95
336.604	-24.23
336.817	0.34
337.029	55.64
337.242	22.87
337.454	22.87
337.667	-63.15
337.88	18.77
338.092	6.49
338.305	31.06
338.517	-112.3
338.729	33.11
338.942	-20.14
339.154	-5.8
339.367	24.92
339.579	31.06
339.792	10.58
340.004	16.73
340.217	53.59
340.429	33.11
340.641	-40.62
340.854	-16.04
341.066	14.68
341.278	24.92
341.491	106.84
341.703	-16.04
341.915	-48.81
342.128	-77.48
342.34	-50.86
342.552	-42.67
342.764	100.69
342.977	-34.47
343.189	-11.95
343.401	24.92
343.613	-26.28
343.826	-46.76
344.038	16.73
344.25	-34.47
344.462	78.16
344.674	-9.9
344.886	-13.99
345.099	43.35
345.311	12.63
345.523	6.49
345.735	-30.38
345.947	-7.85
346.159	-1.71
346.371	35.16
346.583	6.49
346.795	67.92
347.007	67.92
347.219	-3.75
347.431	16.73
347.643	90.45
347.855	-3.75
348.067	12.63
348.279	8.53
348.491	-52.91
348.703	-9.9
348.915	51.54
349.127	-5.8
349.339	-5.8
349.551	-57
349.763	39.25
349.975	-65.19
350.187	33.11
350.399	119.12
350.61	10.58
350.822	-63.15
351.034	45.4
351.246	2.39
351.458	39.25
351.669	-9.9
351.881	29.01
352.093	-7.85
352.305	61.78
352.517	16.73
352.728	61.78
352.94	-1.71
353.152	35.16
353.363	12.63
353.575	26.96
353.787	-18.09
353.999	-5.8
354.21	39.25
354.422	-83.63
354.633	88.4
354.845	24.92
355.057	-13.99
355.268	16.73
355.48	12.63
355.692	16.73
355.903	-5.8
356.115	-5.8
356.326	-30.38
356.538	20.82
356.749	12.63
356.961	18.77
357.172	18.77
357.384	53.59
357.595	35.16
357.807	16.73
358.018	33.11
358.23	12.63
358.441	49.49
358.653	10.58
358.864	26.96
359.075	10.58
359.287	-7.85
359.498	39.25
359.709	-26.28
359.921	72.02
360.132	90.45
360.344	86.36
360.555	-13.99
360.766	22.87
360.977	24.92
361.189	6.49
361.4	-13.99
361.611	63.83
361.823	-36.52
362.034	-42.67
362.245	-52.91
362.456	51.54
362.667	-5.8
362.879	-11.95
363.09	-24.23
363.301	22.87
363.512	4.44
363.723	-16.04
363.935	10.58
364.146	24.92
364.357	35.16
364.568	45.4
364.779	12.63
364.99	-44.71
365.201	-11.95
365.412	39.25
365.623	-40.62
365.834	26.96
366.045	-32.43
366.256	29.01
366.467	-59.05
366.678	31.06
366.889	-9.9
367.1	33.11
367.311	41.3
367.522	49.49
367.733	2.39
367.944	-18.09
368.155	16.73
368.366	33.11
368.577	41.3
368.788	2.39
368.999	45.4
369.209	-50.86
369.42	20.82
369.631	20.82
369.842	55.64
370.053	2.39
370.264	-3.75
370.474	-38.57
370.685	31.06
370.896	-22.19
371.107	26.96
371.317	-13.99
371.528	14.68
371.739	10.58
371.95	12.63
372.16	-26.28
372.371	-7.85
372.582	37.2
372.792	12.63
373.003	14.68
373.214	-3.75
373.424	20.82
373.635	18.77
373.846	41.3
374.056	4.44
374.267	12.63
374.477	43.35
374.688	57.68
374.898	-18.09
375.109	-24.23
375.319	4.44
375.53	-32.43
375.74	24.92
375.951	24.92
376.161	6.49
376.372	-34.47
376.582	4.44
376.793	49.49
377.003	-34.47
377.214	53.59
377.424	51.54
377.635	8.53
377.845	-22.19
378.055	57.68
378.266	6.49
378.476	31.06
378.686	6.49
378.897	29.01
379.107	26.96
379.317	2.39
379.528	45.4
379.738	18.77
379.948	-48.81
380.158	47.44
380.369	-24.23
380.579	51.54
380.789	-30.38
380.999	63.83
381.21	47.44
381.42	-20.14
381.63	4.44
381.84	88.4
382.05	0.34
382.261	-18.09
382.471	-28.33
382.681	26.96
382.891	-16.04
383.101	98.64
383.311	-16.04
383.521	-36.52
383.731	22.87
383.941	45.4
384.151	8.53
384.361	37.2
384.571	43.35
384.781	24.92
384.991	47.44
385.201	39.25
385.411	37.2
385.621	33.11
385.831	43.35
386.041	-32.43
386.251	24.92
386.461	-36.52
386.671	39.25
386.881	43.35
387.091	61.78
387.301	-18.09
387.511	-44.71
387.72	-1.71
387.93	14.68
388.14	-7.85
388.35	-11.95
388.56	0.34
388.769	53.59
388.979	35.16
389.189	-52.91
389.399	-20.14
389.609	16.73
389.818	-5.8
390.028	33.11
390.238	41.3
390.447	24.92
390.657	14.68
390.867	-7.85
391.076	-1.71
391.286	-3.75
391.496	-83.63
391.705	14.68
391.915	147.8
392.125	12.63
392.334	69.97
392.544	41.3
392.753	20.82
392.963	-69.29
393.172	33.11
393.382	-38.57
393.591	35.16
393.801	45.4
394.01	129.36
394.22	82.26
394.429	-44.71
394.639	-18.09
394.848	65.88
395.058	2.39
395.267	51.54
395.477	108.88
395.686	61.78
395.895	131.41
396.105	67.92
396.314	41.3
396.524	4.44
396.733	6.49
396.942	98.64
397.152	4.44
397.361	55.64
397.57	10.58
397.78	74.07
397.989	94.55
398.198	22.87
398.407	51.54
398.617	12.63
398.826	-1.71
399.035	43.35
399.244	72.02
399.453	96.6
399.663	102.74
399.872	55.64
400.081	92.5
400.29	112.98
400.499	0.34
400.708	57.68
400.917	31.06
401.127	20.82
401.336	65.88
401.545	80.21
401.754	57.68
401.963	35.16
402.172	69.97
402.381	41.3
402.59	2.39
402.799	53.59
403.008	14.68
403.217	86.36
403.426	24.92
403.635	51.54
403.844	14.68
404.053	65.88
404.262	63.83
404.471	-20.14
404.68	74.07
404.888	76.12
405.097	31.06
405.306	106.84
405.515	123.22
405.724	63.83
405.933	96.6
406.142	74.07
406.35	2.39
406.559	135.51
406.768	123.22
406.977	55.64
407.185	57.68
407.394	129.36
407.603	92.5
407.812	61.78
408.02	100.69
408.229	121.17
408.438	119.12
408.646	110.93
408.855	117.08
409.064	149.84
409.272	110.93
409.481	145.75
409.69	90.45
409.898	57.68
410.107	149.84
410.315	151.89
410.524	145.75
410.733	155.99
410.941	186.71
411.15	129.36
411.358	244.05
411.567	141.65
411.775	184.66
411.984	246.1
412.192	205.14
412.401	198.99
412.609	254.29
412.818	203.09
413.026	340.3
413.234	289.1
413.443	289.1
413.651	287.06
413.86	305.49
414.068	315.73
414.276	328.02
414.485	268.63
414.693	379.22
414.901	389.46
415.11	465.23
415.318	321.87
415.526	395.6
415.734	399.7
415.943	397.65
416.151	524.62
416.359	477.52
416.567	508.24
416.776	549.2
416.984	442.7
417.192	592.2
417.4	489.81
417.608	565.58
417.817	545.1
418.025	659.79
418.233	557.39
418.441	614.73
418.649	686.41
418.857	784.71
419.065	706.89
419.273	725.32
419.481	733.51
419.689	743.75
419.897	891.21
420.105	854.34
420.313	868.68
420.521	903.5
420.729	1022.28
420.937	860.49
421.145	958.79
421.353	1061.19
421.561	997.7
421.769	1136.96
421.977	1243.46
422.185	1130.82
422.393	1169.73
422.601	1257.79
422.809	1274.18
423.017	1311.04
423.224	1304.9
423.432	1216.83
423.64	1378.62
423.848	1489.21
424.056	1419.58
424.263	1558.85
424.471	1532.22
424.679	1603.9
424.887	1657.15
425.094	1761.59
425.302	1769.79
425.51	1724.73
425.718	1868.09
425.925	1749.31
426.133	1902.9
426.341	2015.54
426.548	2206
426.756	2169.14
426.964	2156.85
427.171	2261.3
427.379	2300.21
427.586	2515.25
427.794	2421.04
428.001	2578.73
428.209	2677.04
428.417	2623.79
428.624	2912.55
428.832	2765.1
429.039	2810.15
429.247	2859.31
429.454	3068.2
429.662	3373.35
429.869	3098.92
430.076	3334.43
430.284	3043.62
430.491	3340.58
430.699	3518.75
430.906	3723.55
431.114	3572
431.321	3711.26
431.528	3774.75
431.736	4081.94
431.943	4088.09
432.15	4047.13
432.358	4081.94
432.565	4354.32
432.772	4397.33
432.979	4530.45
433.187	4669.71
433.394	4589.84
433.601	4833.55
433.808	5077.26
434.016	4940.04
434.223	5089.54
434.43	5460.23
434.637	5411.07
434.844	5708.03
435.052	5775.61
435.259	5812.48
435.466	5744.89
435.673	5832.96
435.88	6275.32
436.087	6572.27
436.294	6435.06
436.501	6244.6
436.708	6424.82
436.915	6672.62
437.122	6990.06
437.329	6910.19
437.537	7155.94
437.743	7405.8
437.95	7330.02
438.157	7489.76
438.364	7868.64
438.571	7688.42
438.778	7665.89
438.985	8710.35
439.192	8362.2
439.399	8480.98
439.606	8354.01
439.813	8773.84
440.02	9396.42
440.227	9087.18
440.433	9042.12
440.64	9355.46
440.847	9369.8
441.054	9597.12
441.261	10238.14
441.467	10117.31
441.674	10303.67
441.881	10791.09
442.088	10690.74
442.294	10569.91
442.501	10950.83
442.708	11055.28
442.914	11407.53
443.121	11741.35
443.328	11477.16
443.534	12361.88
443.741	12187.8
443.948	11622.56
444.154	12826.77
444.361	12628.12
444.568	12931.22
444.774	12830.87
444.981	12900.5
445.187	13248.65
445.394	13865.09
445.6	13682.82
445.807	14876.79
446.013	14379.13
446.22	14581.88
446.426	15237.23
446.633	15304.81
446.839	15550.57
447.046	14995.57
447.252	16046.18
447.459	15958.11
447.665	15730.79
447.871	16760.92
448.078	17154.13
448.284	16363.61
448.491	16998.48
448.697	17659.98
448.903	17789
449.11	17739.85
449.316	17426.51
449.522	17958.98
449.728	18284.61
449.935	18405.44
450.141	18430.01
450.347	18587.71
450.553	18407.48
450.76	18550.84
450.966	19167.28
451.172	18634.81
451.378	19329.07
451.584	18798.65
451.791	19640.36
451.997	19271.73
452.203	19656.75
452.409	19613.74
452.615	19404.85
452.821	18788.41
453.027	18565.18
453.233	19796.01
453.44	18804.79
453.646	19091.51
453.852	19103.79
454.058	19355.69
454.264	18884.66
454.47	19017.78
454.676	18493.5
454.882	19163.18
455.088	17733.7
455.294	17571.91
455.5	18128.96
455.705	18440.25
455.911	17526.86
456.117	17219.66
456.323	17064.02
456.529	15859.81
456.735	16666.71
456.941	16334.94
457.147	15929.44
457.352	15472.75
457.558	15224.94
457.764	15376.49
457.97	14907.51
458.176	14651.51
458.381	14631.03
458.587	14039.17
458.793	13781.12
458.999	13238.41
459.204	14116.99
459.41	13912.19
459.616	12904.59
459.821	12972.18
460.027	12945.55
460.233	12451.99
460.438	11841.7
460.644	11933.86
460.85	11403.43
461.055	11399.34
461.261	11196.59
461.466	10571.96
461.672	10119.35
461.878	10784.94
462.083	10131.64
462.289	9937.09
462.494	9859.26
462.7	9470.15
462.905	9371.85
463.111	9482.44
463.316	9529.54
463.522	9414.85
463.727	9435.33
463.932	9279.69
464.138	9279.69
464.343	9273.54
464.549	9267.4
464.754	9529.54
464.959	9220.3
465.165	9306.31
465.37	8769.74
465.575	8407.25
465.781	8810.7
465.986	9103.56
466.191	8812.75
466.397	8329.43
466.602	8052.95
466.807	8411.35
467.012	8290.52
467.218	8460.5
467.423	8302.81
467.628	8284.37
467.833	8472.79
468.038	8460.5
468.244	8112.35
468.449	8300.76
468.654	8087.77
468.859	7975.13
469.064	7928.03
469.269	7741.66
469.474	7688.42
469.679	7932.12
469.885	7813.34
470.09	7799.01
470.295	7876.83
470.5	7510.24
470.705	7631.07
470.91	7356.65
471.115	7416.04
471.32	7512.29
471.525	7477.48
471.73	7203.05
471.935	7084.27
472.139	6891.76
472.344	6832.37
472.549	7106.79
472.754	6902
472.959	6719.73
473.164	6631.66
473.369	6488.31
473.574	6848.75
473.778	6607.09
473.983	6813.93
474.188	6680.82
474.393	6381.81
474.598	6420.72
474.802	6234.36
475.007	6248.69
475.212	6148.34
475.417	5978.36
475.621	6045.95
475.826	5884.16
476.031	5771.52
476.235	5900.54
476.44	5992.7
476.645	5728.51
476.849	5789.95
477.054	5751.04
477.259	5728.51
477.463	5685.5
477.668	5449.99
477.872	5675.26
478.077	5384.45
478.282	5214.47
478.486	5286.15
478.691	5427.46
478.895	5232.9
479.1	5314.82
479.304	5318.92
479.509	5138.69
479.713	5103.88
479.918	5128.46
480.122	4899.08
480.326	5114.12
480.531	5077.26
480.735	5005.58
480.94	4770.06
481.144	5116.17
481.348	4858.12
481.553	5107.98
481.757	4958.47
481.961	5069.06
482.166	4960.52
482.37	4921.61
482.574	4841.74
482.778	4686.09
482.983	4985.1
483.187	4825.36
483.391	4796.68
483.595	4899.08
483.8	4841.74
484.004	4856.08
484.208	4741.39
484.412	4845.84
484.616	4864.27
484.821	4974.86
485.025	4884.75
485.229	4933.9
485.433	4788.49
485.637	4876.55
485.841	4958.47
486.045	4837.64
486.249	4688.14
486.453	4909.32
486.657	4909.32
486.861	4921.61
487.065	4647.18
487.269	4888.84
487.473	4890.89
487.677	4907.27
487.881	4849.93
488.085	4714.77
488.289	4956.43
488.493	4780.3
488.697	4876.55
488.901	4851.98
489.105	4858.12
489.309	4860.17
489.512	4813.07
489.716	4858.12
489.92	4929.8
490.124	4946.19
490.328	4968.71
490.531	4952.33
490.735	5062.92
490.939	5081.35
491.143	4981
491.346	4976.91
491.55	5105.93
491.754	4989.19
491.958	5128.46
492.161	4894.99
492.365	5146.89
492.569	5157.13
492.772	5114.12
492.976	5120.26
493.18	5310.72
493.383	5347.59
493.587	5261.57
493.79	5318.92
493.994	5173.51
494.197	5323.01
494.401	5437.7
494.605	5366.02
494.808	5468.42
495.012	5327.11
495.215	5730.56
495.419	5474.56
495.622	5523.71
495.825	5536
496.029	5560.58
496.232	5804.28
496.436	5705.98
496.639	5824.76
496.843	5912.83
497.046	5998.84
497.249	5974.27
497.453	6033.66
497.656	6236.41
497.859	6043.9
498.063	6301.94
498.266	6504.69
498.469	6332.66
498.673	6404.34
498.876	6414.58
499.079	6377.72
499.282	6408.44
499.485	6785.26
499.689	6799.6
499.892	6748.4
500.095	6719.73
500.298	6981.87
500.501	6979.82
500.705	7067.88
500.908	7080.17
501.111	7201
501.314	7307.49
501.517	7463.14
501.72	7475.43
501.923	7477.48
502.126	7620.83
502.329	7624.93
502.532	7784.67
502.735	7866.59
502.938	8009.95
503.141	8059.1
503.344	8179.93
503.547	8085.72
503.75	8468.69
503.953	8292.57
504.156	8505.56
504.359	8585.43
504.562	8638.67
504.765	8919.25
504.968	8972.49
505.17	8947.92
505.373	9029.84
505.576	9230.54
505.779	9291.98
505.982	9248.97
506.185	9609.41
506.387	9498.82
506.59	9556.16
506.793	9781.44
506.996	9918.65
507.198	9998.52
507.401	10172.6
507.604	10170.55
507.807	10178.75
508.009	10619.06
508.212	10379.45
508.415	10752.18
508.617	10698.93
508.82	10934.45
509.022	10965.17
509.225	11086
509.428	11114.67
509.63	11286.7
509.833	11237.55
510.035	11624.61
510.238	11346.09
510.44	11563.17
510.643	11808.93
510.845	12109.98
511.048	11937.95
511.25	12126.36
511.453	12122.27
511.655	12583.06
511.858	12654.74
512.06	12654.74
512.262	12746.9
512.465	13099.15
512.667	12896.4
512.87	13197.45
513.072	13254.8
513.274	13453.45
513.477	13713.54
513.679	13719.68
513.881	13715.59
514.084	14047.36
514.286	14112.89
514.488	14037.12
514.69	14532.73
514.893	14602.36
515.095	14823.54
515.297	14954.61
515.499	14780.53
515.701	15087.73
515.904	15378.54
516.106	15261.8
516.308	15765.6
516.51	15679.59
516.712	15743.08
516.914	15943.78
517.116	16134.24
517.318	16226.4
517.52	16480.35
517.722	16429.15
517.925	16932.95
518.127	16738.39
518.329	16932.95
518.531	16801.88
518.733	17451.08
518.935	17297.49
519.136	17395.79
519.338	17930.31
519.54	17983.55
519.742	18253.89
519.944	18419.77
520.146	18597.95
520.348	18669.62
520.55	18686.01
520.752	18821.17
520.954	19439.66
521.155	19081.27
521.357	19400.75
521.559	19695.66
521.761	19976.23
521.963	20021.28
522.164	20131.87
522.366	20142.11
522.568	20496.41
522.77	20287.52
522.971	20926.49
523.173	20717.59
523.375	21016.6
523.576	21016.6
523.778	20949.01
523.98	21387.28
524.181	21313.55
524.383	21436.43
524.584	21907.46
524.786	22026.25
524.988	21866.5
525.189	22319.1
525.391	22411.26
525.592	22333.44
525.794	22564.86
525.995	22620.16
526.197	22745.08
526.398	22730.75
526.6	23039.99
526.801	23398.38
527.003	22990.84
527.204	23207.92
527.406	23435.25
527.607	23455.73
527.808	23879.66
528.01	23406.58
528.211	23758.83
528.412	24135.65
528.614	24068.07
528.815	24092.65
529.016	24307.68
529.218	24025.06
529.419	24170.47
529.62	24405.98
529.822	24401.89
530.023	24324.07
530.224	24637.41
530.425	24487.9
530.626	24702.94
530.828	24203.24
531.029	24915.93
531.23	24547.29
531.431	24582.11
531.632	24985.56
531.833	24725.47
532.035	24897.5
532.236	25063.38
532.437	24881.11
532.638	24897.5
532.839	25229.27
533.04	25194.45
533.241	24987.61
533.442	25378.77
533.643	25130.97
533.844	25186.26
534.045	25333.71
534.246	25432.02
534.447	25262.04
534.648	25063.38
534.849	25108.44
535.05	24963.03
535.251	25118.68
535.451	25266.13
535.652	25298.9
535.853	25393.11
536.054	25700.3
536.255	25571.28
536.456	25282.52
536.657	25526.22
536.857	25202.64
537.058	25550.8
537.259	25638.86
537.46	25186.26
537.66	25520.08
537.861	25638.86
538.062	25534.42
538.263	25667.53
538.463	25634.77
538.664	25167.83
538.865	25575.38
539.065	25632.72
539.266	25210.84
539.466	25653.2
539.667	25335.76
539.868	25909.19
540.068	25515.98
540.269	25597.9
540.469	25546.7
540.67	25153.49
540.87	25198.55
541.071	25558.99
541.271	25857.99
541.472	25421.78
541.672	25397.2
541.873	25497.55
542.073	24981.46
542.274	25571.28
542.474	25282.52
542.675	25171.93
542.875	25739.21
543.075	25450.45
543.276	25165.78
543.476	25612.24
543.676	25505.74
543.877	25757.64
544.077	25577.42
544.277	25366.48
544.478	25137.11
544.678	25704.4
544.878	25176.02
545.078	25395.15
545.279	25006.04
545.479	25274.32
545.679	25341.91
545.879	25409.49
546.079	25405.39
546.28	25180.12
546.48	25057.24
546.68	25382.87
546.88	25409.49
547.08	25554.9
547.28	25571.28
547.48	25200.6
547.68	25186.26
547.88	25192.4
548.081	25405.39
548.281	25149.4
548.481	25370.58
548.681	25165.78
548.881	24995.8
549.081	25243.6
549.28	25167.83
549.48	25446.35
549.68	25038.81
549.88	25470.93
550.08	25147.35
550.28	25300.95
550.48	25198.55
550.68	25522.13
550.88	25186.26
551.08	25362.39
551.279	25202.64
551.479	25151.45
551.679	25303
551.879	24860.63
552.079	25370.58
552.278	25022.42
552.478	24993.75
552.678	24993.75
552.878	25128.92
553.077	25128.92
553.277	24702.94
553.477	25401.3
553.676	25214.93
553.876	25122.77
554.076	24764.38
554.275	24995.8
554.475	24483.81
554.674	25173.97
554.874	24944.6
555.074	24711.13
555.273	24805.34
555.473	24848.35
555.672	24436.7
555.872	24838.11
556.071	24819.67
556.271	24752.09
556.47	24651.74
556.67	24649.69
556.869	24764.38
557.068	24850.39
557.268	24446.94
557.467	24586.21
557.667	24582.11
557.866	24418.27
558.065	24508.38
558.265	24008.68
558.464	24328.16
558.663	24424.42
558.863	24086.5
559.062	24522.72
559.261	24367.07
559.461	24262.63
559.66	23887.85
559.859	23885.8
560.058	23547.89
560.258	24113.13
560.457	23386.1
560.656	23887.85
560.855	23736.3
561.054	23869.42
561.253	23404.53
561.453	23584.75
561.652	23388.14
561.851	23769.07
562.05	23250.93
562.249	23232.5
562.448	23619.56
562.647	23449.58
562.846	23054.33
563.045	23275.51
563.244	22929.4
563.443	23361.52
563.642	23017.46
563.841	23068.66
564.04	22874.1
564.239	23205.88
564.438	22530.05
564.637	22906.87
564.836	22591.48
565.035	22538.24
565.234	22464.51
565.432	22433.79
565.631	22032.39
565.83	22472.7
566.029	22050.82
566.228	21878.79
566.427	22233.09
566.625	22118.4
566.824	21989.38
567.023	22042.63
567.222	21616.65
567.42	22155.27
567.619	21850.12
567.818	21764.11
568.016	21641.23
568.215	21821.45
568.414	21637.13
568.612	21579.79
568.811	21303.31
569.01	21643.28
569.208	20975.64
569.407	21387.28
569.605	20797.46
569.804	20875.29
570.002	21055.51
570.201	20817.94
570.4	20764.7
570.598	20619.29
570.797	20465.69
570.995	20772.89
571.193	20570.14
571.392	20508.7
571.59	20439.07
571.789	20400.16
571.987	20281.38
572.186	20287.52
572.384	20101.15
572.582	20480.03
572.781	20152.35
572.979	19796.01
573.177	20006.95
573.376	19933.22
573.574	19724.33
573.772	19882.02
573.971	19509.29
574.169	19449.9
574.367	19607.59
574.565	19734.57
574.763	19488.81
574.962	19413.04
575.16	19163.18
575.358	19253.3
575.556	18942
575.754	19374.13
575.952	18841.65
576.151	19230.77
576.349	18788.41
576.547	18925.62
576.745	18909.24
576.943	18903.09
577.141	18737.21
577.339	18595.9
577.537	18624.57
577.735	18423.87
577.933	18505.79
578.131	18464.83
578.329	18509.88
578.527	18268.22
578.725	18380.86
578.923	18468.92
579.121	18178.11
579.319	18225.22
579.516	18114.62
579.714	18016.32
579.912	17985.6
580.11	17983.55
580.308	18001.99
580.506	18083.91
580.704	17735.75
580.901	17606.73
581.099	17565.77
581.297	17455.18
581.495	17313.87
581.692	17664.07
581.89	17545.29
582.088	17512.52
582.285	17426.51
582.483	17289.29
582.681	17383.5
582.878	17344.59
583.076	17123.41
583.274	17487.95
583.471	16762.97
583.669	16889.94
583.866	16996.43
584.064	17090.64
584.262	16683.09
584.459	16867.41
584.657	16896.08
584.854	16867.41
585.052	16443.48
585.249	16769.11
585.447	16545.88
585.644	16535.64
585.841	16588.89
586.039	16248.93
586.236	16357.47
586.434	16099.42
586.631	16072.8
586.828	16144.48
587.026	16162.91
587.223	16203.87
587.42	15947.87
587.618	15839.33
587.815	15935.59
588.012	15693.93
588.21	15741.03
588.407	15751.27
588.604	15931.49
588.801	15661.16
588.999	15569
589.196	15448.17
589.393	15585.38
589.59	15603.82
589.787	14999.66
589.984	15274.09
590.182	15263.85
590.379	15407.21
590.576	15353.96
590.773	15065.2
590.97	15245.42
591.167	14981.23
591.364	15077.49
591.561	15235.18
591.758	15022.19
591.955	14936.18
592.152	14981.23
592.349	14921.84
592.546	14907.51
592.743	14532.73
592.94	14815.35
593.137	14573.69
593.334	14616.69
593.531	14473.34
593.727	14639.22
593.924	14540.92
594.121	14459
594.318	14471.29
594.515	14241.92
594.712	14246.01
594.908	14286.97
595.105	14266.49
595.302	14207.1
595.499	14225.53
595.696	13981.82
595.892	13992.06
596.089	13987.97
596.286	14133.37
596.482	13645.96
596.679	13877.38
596.876	13764.74
597.072	13736.07
597.269	13785.22
597.466	13600.9
597.662	13430.92
597.859	13451.4
598.055	13588.61
598.252	13367.43
598.448	13619.33
598.645	13613.19
598.841	13430.92
599.038	13273.23
599.234	13334.67
599.431	13375.63
599.627	12845.2
599.824	13297.8
600.02	13285.51
600.217	13437.06
600.413	12947.6
600.609	13244.56
600.806	12998.8
601.002	12816.53
601.198	12701.84
601.395	12613.78
601.591	13017.23
601.787	12875.92
601.984	13041.81
602.18	12779.67
602.376	12763.28
602.572	12507.29
602.769	12546.2
602.965	12603.54
603.161	12730.52
603.357	12490.9
603.553	12382.36
603.75	12222.62
603.946	12411.03
604.142	12357.78
604.338	12005.53
604.534	12359.83
604.73	12171.42
604.926	11882.66
605.122	12175.52
605.318	12171.42
605.514	11921.57
605.71	11962.53
605.906	12091.55
606.102	11870.37
606.298	11839.65
606.494	12048.54
606.69	11829.41
606.886	11923.62
607.082	11563.17
607.278	11673.76
607.474	11477.16
607.67	11632.8
607.866	11542.69
608.062	11704.48
608.257	11686.05
608.453	11591.84
608.649	11491.49
608.845	11612.32
609.041	11444.39
609.236	11317.42
609.432	11417.77
609.628	11358.38
609.824	11258.03
610.019	11552.93
610.215	11276.46
610.411	11200.68
610.606	11319.46
610.802	11311.27
610.998	11108.52
611.193	11151.53
611.389	11112.62
611.584	11079.85
611.78	11053.23
611.976	11106.48
612.171	11129
612.367	10858.67
612.562	10936.49
612.758	10795.18
612.953	10600.63
613.149	10668.21
613.344	10590.39
613.539	10655.92
613.735	10899.63
613.93	10881.2
614.126	10868.91
614.321	10793.14
614.517	10662.07
614.712	10811.57
614.907	10528.95
615.103	10825.9
615.298	10623.16
615.493	10897.58
615.688	10336.44
615.884	10965.17
616.079	10387.64
616.274	10543.28
616.47	10354.87
616.665	10543.28
616.86	10401.97
617.055	10492.09
617.25	10291.38
617.445	10295.48
617.641	10111.16
617.836	10385.59
618.031	10195.13
618.226	10479.8
618.421	10236.09
618.616	10055.87
618.811	10008.76
619.006	10238.14
619.201	10021.05
619.396	10248.38
619.591	9793.73
619.786	10141.88
619.981	9617.6
620.176	9902.27
620.371	9758.91
620.566	9945.28
620.761	9676.99
620.956	9881.79
621.151	9373.89
621.346	9754.82
621.541	9513.16
621.735	9597.12
621.93	9324.74
622.125	9478.34
622.32	9441.48
622.515	9394.37
622.709	9056.46
622.904	9310.41
623.099	9210.06
623.294	9169.1
623.488	9124.04
623.683	9066.7
623.878	8921.29
624.072	9038.03
624.267	8902.86
624.462	8698.06
624.656	8882.38
624.851	8863.95
625.046	8906.96
625.24	8710.35
625.435	8562.9
625.629	8487.12
625.824	8515.8
626.018	8485.08
626.213	8405.21
626.407	8599.76
626.602	8384.73
626.796	8483.03
626.991	8440.02
627.185	8198.36
627.38	8220.89
627.574	8077.53
627.768	8083.67
627.963	8106.2
628.157	7887.07
628.352	7942.36
628.546	7823.58
628.74	7856.35
628.935	7729.38
629.129	8034.52
629.323	7639.26
629.517	7719.14
629.712	7702.75
629.906	7680.22
630.1	7489.76
630.294	7487.72
630.489	7561.44
630.683	7633.12
630.877	7305.45
631.071	7459.04
631.265	7346.41
631.459	7356.65
631.653	7186.66
631.848	7166.18
632.042	7213.29
632.236	7235.81
632.43	7262.44
632.624	7203.05
632.818	7106.79
633.012	6953.2
633.206	7045.35
633.4	6953.2
633.594	6760.69
633.788	6762.73
633.982	6727.92
634.176	6748.4
634.369	6721.77
634.563	6648.05
634.757	6832.37
634.951	6736.11
635.145	6594.8
635.339	6525.17
635.533	6457.59
635.726	6672.62
635.92	6506.74
636.114	6674.67
636.308	6248.69
636.501	6443.25
636.695	6428.92
636.889	6416.63
637.083	6252.79
637.276	6152.44
637.47	6271.22
637.664	6230.26
637.857	6185.21
638.051	6177.02
638.244	6111.48
638.438	6088.95
638.632	6031.61
638.825	5980.41
639.019	5974.27
639.212	5884.16
639.406	5959.93
639.599	5898.49
639.793	5835
639.986	5796.09
640.18	5701.89
640.373	5826.81
640.567	5538.05
640.76	5683.45
640.954	5714.17
641.147	5509.38
641.34	5566.72
641.534	5574.91
641.727	5523.71
641.92	5470.47
642.114	5378.31
642.307	5513.47
642.5	5431.55
642.694	5386.5
642.887	5538.05
643.08	5302.53
643.273	5325.06
643.467	5331.2
643.66	5247.24
643.853	5153.03
644.046	5064.97
644.239	5085.45
644.432	5034.25
644.626	4974.86
644.819	5062.92
645.012	5054.73
645.205	4970.76
645.398	5048.58
645.591	4839.69
645.784	4747.53
645.977	4870.41
646.17	4839.69
646.363	4851.98
646.556	4964.62
646.749	4624.65
646.942	4798.73
647.135	4778.25
647.328	4632.85
647.521	4708.62
647.714	4636.94
647.907	4657.42
648.099	4622.61
648.292	4477.2
648.485	4577.55
648.678	4507.92
648.871	4454.67
649.064	4368.66
649.256	4538.64
649.449	4479.25
649.642	4329.75
649.835	4442.39
650.027	4296.98
650.22	4387.09
650.413	4315.41
650.605	4329.75
650.798	4370.71
650.991	4294.93
651.183	4159.77
651.376	4141.33
651.568	4213.01
651.761	4112.66
651.954	4059.42
652.146	4147.48
652.339	4176.15
652.531	4133.14
652.724	3965.21
652.916	4079.9
653.109	3930.39
653.301	4092.18
653.494	4002.07
653.686	3918.11
653.879	3914.01
654.071	3858.71
654.263	3957.02
654.456	3887.39
654.648	3756.32
654.84	3977.5
655.033	3776.8
655.225	3774.75
655.417	3772.7
655.61	3856.67
655.802	3834.14
655.994	3676.45
656.186	3840.28
656.379	3598.62
656.571	3553.57
656.763	3723.55
656.955	3553.57
657.148	3649.82
657.34	3610.91
657.532	3541.28
657.724	3494.18
657.916	3516.7
658.108	3492.13
658.3	3508.51
658.492	3572
658.684	3356.96
658.876	3449.12
659.068	3322.15
659.26	3457.31
659.452	3430.69
659.644	3428.64
659.836	3309.86
660.028	3182.88
660.22	3238.18
660.412	3354.91
660.604	3184.93
660.796	3320.1
660.988	3160.36
661.18	3242.28
661.372	3162.41
661.563	3236.13
661.755	3252.52
661.947	3176.74
662.139	3162.41
662.331	3131.69
662.522	3084.58
662.714	3074.34
662.906	3066.15
663.097	3021.1
663.289	3066.15
663.481	3031.34
663.673	2959.66
663.864	3084.58
664.056	2963.75
664.247	3049.77
664.439	2996.52
664.631	2890.03
664.822	2928.94
665.014	2990.38
665.205	2875.69
665.397	2973.99
665.588	3049.77
665.78	2918.7
665.971	2849.07
666.163	2816.3
666.354	2928.94
666.546	2824.49
666.737	2799.91
666.929	2754.86
667.12	2658.6
667.311	2713.9
667.503	2713.9
667.694	2726.19
667.885	2771.24
668.077	2713.9
668.268	2752.81
668.459	2765.1
668.651	2763.05
668.842	2715.95
669.033	2744.62
669.224	2603.31
669.416	2844.97
669.607	2554.16
669.798	2656.56
669.989	2625.84
670.18	2496.82
670.371	2601.26
670.563	2537.77
670.754	2584.88
670.945	2509.1
671.136	2613.55
671.327	2462
671.518	2593.07
671.709	2709.8
671.9	2502.96
672.091	2699.56
672.282	2480.43
672.473	2488.62
672.664	2492.72
672.855	2523.44
673.046	2488.62
673.237	2593.07
673.428	2527.53
673.619	2545.97
673.809	2445.62
674	2462
674.191	2402.61
674.382	2472.24
674.573	2296.11
674.764	2396.46
674.954	2443.57
675.145	2443.57
675.336	2416.94
675.527	2314.55
675.717	2457.9
675.908	2421.04
676.099	2388.27
676.289	2443.57
676.48	2425.14
676.671	2351.41
676.861	2427.18
677.052	2195.76
677.243	2292.02
677.433	2310.45
677.624	2433.33
677.814	2351.41
678.005	2455.86
678.195	2386.22
678.386	2277.68
678.576	2343.22
678.767	2324.79
678.957	2470.19
679.148	2326.83
679.338	2341.17
679.529	2335.03
679.719	2292.02
679.909	2404.66
680.1	2306.35
680.29	2435.38
680.481	2253.11
680.671	2367.79
680.861	2302.26
681.052	2263.35
681.242	2330.93
681.432	2365.75
681.622	2232.63
681.813	2267.44
682.003	2263.35
682.193	2429.23
682.383	2287.92
682.573	2324.79
682.764	2167.09
682.954	2263.35
683.144	2339.12
683.334	2195.76
683.524	2236.72
683.714	2289.97
683.904	2332.98
684.094	2298.16
684.284	2242.87
684.474	2244.92
684.664	2281.78
684.854	2214.2
685.044	2216.24
685.234	2300.21
685.424	2185.52
685.614	2144.56
685.804	2263.35
685.994	2230.58
686.184	2171.19
686.374	2357.55
686.564	2218.29
686.753	2179.38
686.943	2099.51
687.133	2203.96
687.323	2187.57
687.513	2087.22
687.702	2119.99
687.892	2177.33
688.082	2146.61
688.272	2095.41
688.461	2148.66
688.651	2191.67
688.841	2130.23
689.03	2021.69
689.22	2142.52
689.41	2107.7
689.599	2066.74
689.789	1982.78
689.979	1947.96
690.168	2091.32
690.358	2046.26
690.547	2062.65
690.737	1945.91
690.926	2062.65
691.116	1870.14
691.305	2054.45
691.495	1968.44
691.684	1939.77
691.874	2025.78
692.063	1927.48
692.252	2036.02
692.442	2105.65
692.631	1941.82
692.82	1913.14
693.01	1911.1
693.199	1886.52
693.388	1911.1
693.578	1978.68
693.767	1888.57
693.956	1968.44
694.146	1825.08
694.335	1931.58
694.524	1931.58
694.713	1825.08
694.902	1843.51
695.092	1868.09
695.281	1931.58
695.47	1841.47
695.659	1841.47
695.848	1937.72
696.037	1851.71
696.226	1896.76
696.415	1849.66
696.604	1937.72
696.793	1933.62
696.982	1841.47
697.171	1892.66
697.36	1866.04
697.549	1808.7
697.738	1909.05
697.927	1853.75
698.116	1839.42
698.305	1931.58
698.494	1829.18
698.683	1888.57
698.872	1810.75
699.061	1945.91
699.25	1917.24
699.438	1708.35
699.627	1874.23
699.816	1843.51
700.005	1833.27
700.193	1855.8
700.382	1931.58
700.571	1952.06
700.76	1808.7
700.948	1933.62
701.137	1825.08
701.326	1923.38
701.514	1816.89
701.703	1898.81
701.892	1831.23
702.08	1958.2
702.269	1896.76
702.457	1868.09
702.646	1909.05
702.834	1870.14
703.023	1823.03
703.212	1823.03
703.4	1798.46
703.589	1804.6
703.777	1857.85
703.965	1800.51
704.154	1823.03
704.342	1767.74
704.531	1855.8
704.719	1839.42
704.907	2044.21
705.096	1945.91
705.284	1960.25
705.472	1923.38
705.661	1870.14
705.849	1884.47
706.037	1954.1
706.226	1882.42
706.414	1978.68
706.602	1870.14
706.79	1888.57
706.979	1925.43
707.167	1870.14
707.355	1931.58
707.543	1863.99
707.731	2009.4
707.919	1872.18
708.107	1886.52
708.296	1939.77
708.484	1874.23
708.672	1972.54
708.86	1923.38
709.048	1890.62
709.236	1921.34
709.424	1980.73
709.612	2050.36
709.8	1917.24
709.988	1902.9
710.176	1921.34
710.364	1939.77
710.551	1884.47
710.739	1921.34
710.927	2050.36
711.115	1962.3
711.303	2050.36
711.491	1913.14
711.679	1937.72
711.866	2011.45
712.054	1874.23
712.242	1915.19
712.43	2021.69
712.617	1945.91
712.805	2019.64
712.993	1943.86
713.181	1868.09
713.368	1947.96
713.556	1970.49
713.744	1974.58
713.931	1933.62
714.119	1909.05
714.306	2052.41
714.494	1952.06
714.682	1993.01
714.869	1927.48
715.057	1976.63
715.244	1966.39
715.432	1968.44
715.619	1863.99
715.807	2011.45
715.994	1882.42
716.182	1956.15
716.369	2040.12
716.556	1986.87
716.744	2056.5
716.931	1935.67
717.119	1964.34
717.306	1892.66
717.493	1947.96
717.681	1947.96
717.868	2015.54
718.055	2005.3
718.242	2040.12
718.43	1966.39
718.617	1999.16
718.804	1974.58
718.991	1950.01
719.179	2117.94
719.366	2101.56
719.553	1945.91
719.74	1976.63
719.927	1960.25
720.114	1984.82
720.301	1990.97
720.488	1939.77
720.676	2021.69
720.863	1997.11
721.05	2142.52
721.237	1980.73
721.424	2027.83
721.611	2001.21
721.798	1884.47
721.985	2044.21
722.172	1863.99
722.358	1972.54
722.545	2048.31
722.732	1970.49
722.919	2025.78
723.106	1935.67
723.293	2066.74
723.48	2056.5
723.667	1988.92
723.853	2066.74
724.04	1960.25
724.227	1972.54
724.414	2019.64
724.6	2023.73
724.787	2011.45
724.974	2056.5
725.161	1950.01
725.347	1990.97
725.534	2105.65
725.72	1976.63
725.907	1990.97
726.094	2042.17
726.28	2017.59
726.467	1995.06
726.653	1988.92
726.84	2023.73
727.027	2021.69
727.213	2103.61
727.4	2036.02
727.586	2001.21
727.773	1986.87
727.959	2130.23
728.145	1978.68
728.332	2042.17
728.518	2042.17
728.705	2158.9
728.891	2111.8
729.077	2044.21
729.264	2017.59
729.45	2130.23
729.636	2126.13
729.823	2058.55
730.009	2011.45
730.195	2011.45
730.382	2009.4
730.568	1990.97
730.754	2033.97
730.94	2015.54
731.126	1995.06
731.313	2048.31
731.499	2033.97
731.685	1941.82
731.871	2052.41
732.057	2117.94
732.243	2132.28
732.429	1968.44
732.615	2062.65
732.801	2132.28
732.987	2021.69
733.173	2169.14
733.359	2115.89
733.545	2064.69
733.731	1911.1
733.917	2058.55
734.103	2070.84
734.289	2040.12
734.475	2089.27
734.661	2025.78
734.847	2158.9
735.033	2154.8
735.219	2117.94
735.404	2031.93
735.59	2029.88
735.776	1892.66
735.962	2007.35
736.148	2072.89
736.333	2052.41
736.519	2007.35
736.705	1980.73
736.89	2087.22
737.076	2083.13
737.262	1911.1
737.447	1937.72
737.633	2095.41
737.819	2005.3
738.004	1962.3
738.19	1993.01
738.375	2027.83
738.561	2095.41
738.747	1950.01
738.932	2015.54
739.118	1995.06
739.303	1970.49
739.489	2105.65
739.674	1921.34
739.859	1990.97
740.045	2033.97
740.23	2095.41
740.416	1874.23
740.601	1950.01
740.786	1925.43
740.972	1933.62
741.157	1945.91
741.342	1923.38
741.528	1974.58
741.713	1935.67
741.898	2001.21
742.084	1904.95
742.269	1773.88
742.454	1984.82
742.639	1988.92
742.824	1909.05
743.01	1825.08
743.195	1892.66
743.38	1745.21
743.565	1843.51
743.75	1818.94
743.935	1870.14
744.12	1947.96
744.305	1792.31
744.49	1800.51
744.675	1773.88
744.86	1782.07
745.045	1921.34
745.23	1870.14
745.415	1896.76
745.6	1759.55
745.785	1700.16
745.97	1786.17
746.155	1794.36
746.34	1812.79
746.525	1749.31
746.71	1753.4
746.895	1689.92
747.079	1831.23
747.264	1638.72
747.449	1710.4
747.634	1728.83
747.819	1630.52
748.003	1675.58
748.188	1601.85
748.373	1712.44
748.557	1632.57
748.742	1610.04
748.927	1591.61
749.111	1593.66
749.296	1632.57
749.481	1526.08
749.665	1558.85
749.85	1503.55
750.034	1612.09
750.219	1569.09
750.404	1530.17
750.588	1462.59
750.773	1540.41
750.957	1575.23
751.141	1567.04
751.326	1495.36
751.51	1466.69
751.695	1472.83
751.879	1556.8
752.064	1464.64
752.248	1403.2
752.432	1413.44
752.617	1337.66
752.801	1409.34
752.985	1446.21
753.17	1435.97
753.354	1411.39
753.538	1413.44
753.722	1317.19
753.907	1374.53
754.091	1395.01
754.275	1225.03
754.459	1397.06
754.643	1300.8
754.828	1294.66
755.012	1337.66
755.196	1337.66
755.38	1241.41
755.564	1290.56
755.748	1204.55
755.932	1278.27
756.116	1227.07
756.3	1225.03
756.484	1270.08
756.668	1210.69
756.852	1200.45
757.036	1235.27
757.22	1204.55
757.404	1225.03
757.588	1116.48
757.772	1179.97
757.956	1157.44
758.14	1179.97
758.323	1102.15
758.507	1177.92
758.691	1081.67
758.875	1147.2
759.059	1149.25
759.242	1184.07
759.426	1124.68
759.61	1089.86
759.794	1069.38
759.977	1096
760.161	1202.5
760.345	1073.48
760.528	1050.95
760.712	1057.09
760.895	1093.96
761.079	1038.66
761.263	1024.33
761.446	1077.57
761.63	995.65
761.813	1016.13
761.997	946.5
762.18	1012.04
762.364	1034.57
762.547	987.46
762.731	1012.04
762.914	995.65
763.098	926.02
763.281	954.69
763.464	966.98
763.648	1024.33
763.831	921.93
764.015	1005.89
764.198	944.45
764.381	854.34
764.564	969.03
764.748	971.08
764.931	1040.71
765.114	975.17
765.297	1003.85
765.481	862.54
765.664	872.78
765.847	909.64
766.03	962.89
766.213	936.26
766.397	987.46
766.58	862.54
766.763	932.17
766.946	973.13
767.129	874.82
767.312	880.97
767.495	856.39
767.678	856.39
767.861	794.95
768.044	803.15
768.227	848.2
768.41	889.16
768.593	840.01
768.776	942.41
768.959	827.72
769.142	852.3
769.324	817.48
769.507	850.25
769.69	797
769.873	784.71
770.056	837.96
770.239	860.49
770.421	809.29
770.604	817.48
770.787	876.87
770.97	794.95
771.152	786.76
771.335	862.54
771.518	778.57
771.7	854.34
771.883	792.91
772.066	803.15
772.248	792.91
772.431	813.38
772.613	739.66
772.796	713.03
772.978	797
773.161	782.67
773.343	725.32
773.526	690.51
773.708	762.19
773.891	733.51
774.073	733.51
774.256	811.34
774.438	805.19
774.621	700.75
774.803	700.75
774.985	704.84
775.168	708.94
775.35	690.51
775.532	655.69
775.715	649.55
775.897	741.71
776.079	530.77
776.261	713.03
776.444	620.88
776.626	667.98
776.808	639.31
776.99	674.12
777.173	729.42
777.355	620.88
777.537	608.59
777.719	588.11
777.901	594.25
778.083	559.44
778.265	600.4
778.447	665.93
778.629	520.53
778.811	610.64
778.993	604.49
779.175	577.87
779.357	604.49
779.539	545.1
779.721	557.39
779.903	553.29
780.085	514.38
780.267	530.77
780.449	579.92
780.631	526.67
780.812	512.33
780.994	522.57
781.176	514.38
781.358	571.72
781.54	516.43
781.721	495.95
781.903	465.23
782.085	463.18
782.267	426.32
782.448	454.99
782.63	506.19
782.812	500.05
782.993	516.43
783.175	506.19
783.357	420.17
783.538	461.13
783.72	446.8
783.901	504.14
784.083	450.89
784.264	430.41
784.446	399.7
784.627	432.46
784.809	479.57
784.99	399.7
785.172	391.5
785.353	430.41
785.535	469.33
785.716	502.09
785.897	397.65
786.079	467.28
786.26	405.84
786.441	366.93
786.623	334.16
786.804	393.55
786.985	397.65
787.167	401.74
787.348	332.11
787.529	389.46
787.71	362.83
787.891	391.5
788.073	323.92
788.254	352.59
788.435	323.92
788.616	319.82
788.797	258.39
788.978	432.46
789.159	352.59
789.34	336.21
789.522	350.54
789.703	358.74
789.884	323.92
790.065	313.68
790.246	348.5
790.427	307.54
790.607	358.74
790.788	340.3
790.969	317.78
791.15	321.87
791.331	311.63
791.512	344.4
791.693	250.19
791.874	305.49
792.054	295.25
792.235	366.93
792.416	287.06
792.597	330.06
792.778	344.4
792.958	256.34
793.139	285.01
793.32	285.01
793.5	211.28
793.681	330.06
793.862	321.87
794.042	328.02
794.223	303.44
794.404	276.82
794.584	282.96
794.765	317.78
794.945	272.72
795.126	254.29
795.306	289.1
795.487	321.87
795.667	188.75
795.848	311.63
796.028	258.39
796.209	291.15
796.389	295.25
796.57	309.58
796.75	201.04
796.93	272.72
797.111	250.19
797.291	184.66
797.471	274.77
797.652	315.73
797.832	242
798.012	205.14
798.192	201.04
798.373	176.47
798.553	221.52
798.733	254.29
798.913	162.13
799.093	248.15
799.274	201.04
799.454	258.39
799.634	256.34
799.814	213.33
799.994	196.95
800.174	252.24
800.354	164.18
800.534	233.81
800.714	205.14
800.894	266.58
801.074	151.89
801.254	233.81
801.434	246.1
801.614	198.99
801.794	246.1
801.974	555.34
802.154	268.63
802.334	198.99
802.514	155.99
802.693	219.47
802.873	229.71
803.053	182.61
803.233	174.42
803.413	211.28
803.592	166.23
803.772	237.91
803.952	242
804.131	143.7
804.311	180.56
804.491	215.38
804.67	145.75
804.85	201.04
805.03	186.71
805.209	272.72
805.389	213.33
805.568	131.41
805.748	135.51
805.928	172.37
806.107	188.75
806.287	141.65
806.466	153.94
806.646	135.51
806.825	235.86
807.004	192.85
807.184	133.46
807.363	180.56
807.543	135.51
807.722	203.09
807.901	168.27
808.081	201.04
808.26	131.41
808.439	155.99
808.619	201.04
808.798	184.66
808.977	172.37
809.156	188.75
809.336	151.89
809.515	145.75
809.694	141.65
809.873	178.51
810.052	137.56
810.231	190.8
810.411	129.36
810.59	223.57
810.769	88.4
810.948	141.65
811.127	155.99
811.306	147.8
811.485	82.26
811.664	176.47
811.843	94.55
812.022	129.36
812.201	160.08
812.38	203.09
812.559	88.4
812.737	147.8
812.916	123.22
813.095	94.55
813.274	127.32
813.453	112.98
813.632	252.24
813.811	145.75
813.989	90.45
814.168	123.22
814.347	86.36
814.526	123.22
814.704	88.4
814.883	188.75
815.062	158.03
815.24	133.46
815.419	115.03
815.598	72.02
815.776	119.12
815.955	127.32
816.133	108.88
816.312	96.6
816.49	78.16
816.669	88.4
816.847	186.71
817.026	131.41
817.204	110.93
817.383	104.79
817.561	84.31
817.74	119.12
817.918	149.84
818.097	92.5
818.275	43.35
818.453	201.04
818.632	102.74
818.81	112.98
818.988	63.83
819.167	104.79
819.345	82.26
819.523	139.6
819.701	47.44
819.879	141.65
820.058	112.98
820.236	123.22
820.414	98.64
820.592	63.83
820.77	78.16
820.948	94.55
821.127	33.11
821.305	98.64
821.483	76.12
821.661	117.08
821.839	45.4
822.017	141.65
822.195	80.21
822.373	88.4
822.551	41.3
822.729	51.54
822.907	153.94
823.085	127.32
823.262	78.16
823.44	65.88
823.618	82.26
823.796	155.99
823.974	78.16
824.152	82.26
824.329	94.55
824.507	102.74
824.685	63.83
824.863	149.84
825.04	90.45
825.218	94.55
825.396	14.68
825.574	67.92
825.751	131.41
825.929	90.45
826.107	59.73
826.284	125.27
826.462	65.88
826.639	65.88
826.817	86.36
826.994	8.53
827.172	-46.76
827.349	80.21
827.527	61.78
827.704	80.21
827.882	45.4
828.059	131.41
828.237	53.59
828.414	-1.71
828.591	8.53
828.769	63.83
828.946	65.88
829.124	67.92
829.301	-18.09
829.478	74.07
829.655	72.02
829.833	6.49
830.01	92.5
830.187	94.55
830.364	-1.71
830.542	78.16
830.719	59.73
830.896	92.5
831.073	55.64
831.25	37.2
831.427	51.54
831.604	35.16
831.782	88.4
831.959	131.41
832.136	-13.99
832.313	-1.71
832.49	74.07
832.667	108.88
832.844	-20.14
833.021	43.35
833.198	72.02
833.374	37.2
833.551	108.88
833.728	14.68
833.905	33.11
834.082	33.11
834.259	-36.52
834.436	100.69
834.612	12.63
834.789	145.75
834.966	6.49
835.143	33.11
835.319	43.35
835.496	-20.14
835.673	47.44
835.85	90.45
836.026	69.97
836.203	16.73
836.38	57.68
836.556	55.64
836.733	-3.75
836.909	61.78
837.086	39.25
837.262	37.2
837.439	39.25
837.616	47.44
837.792	119.12
837.968	61.78
838.145	20.82
838.321	86.36
838.498	-24.23
838.674	-1.71
838.851	88.4
839.027	76.12
839.203	-16.04
839.38	80.21
839.556	69.97
839.732	106.84
839.909	67.92
840.085	74.07
840.261	22.87
840.437	39.25
840.614	-22.19
840.79	106.84
840.966	24.92
841.142	72.02
841.318	35.16
841.494	37.2
841.671	63.83
841.847	-3.75
842.023	-3.75
842.199	37.2
842.375	-28.33
842.551	12.63
842.727	-22.19
842.903	47.44
843.079	-16.04
843.255	16.73
843.431	0.34
843.607	72.02
843.783	-34.47
843.959	29.01
844.134	49.49
844.31	82.26
844.486	-1.71
844.662	39.25
844.838	41.3
845.013	33.11
845.189	-46.76
845.365	55.64
845.541	43.35
845.716	45.4
845.892	41.3
846.068	-7.85
846.244	41.3
846.419	20.82
846.595	-48.81
846.77	78.16
846.946	18.77
847.122	45.4
847.297	24.92
847.473	-11.95
847.648	78.16
847.824	49.49
847.999	-30.38
848.175	-26.28
848.35	82.26
848.526	29.01
848.701	37.2
848.876	47.44
849.052	8.53
849.227	45.4
849.403	24.92
849.578	61.78
849.753	67.92
849.929	49.49
850.104	14.68
850.279	-11.95
850.454	-5.8
850.63	22.87
850.805	20.82
850.98	-7.85
851.155	33.11
851.33	12.63
851.505	20.82
851.681	100.69
851.856	37.2
852.031	2.39
852.206	55.64
852.381	29.01
852.556	31.06
852.731	33.11
852.906	-7.85
853.081	0.34
853.256	49.49
853.431	-20.14
853.606	4.44
853.781	-7.85
853.956	-11.95
854.131	55.64
854.305	-57
854.48	0.34
854.655	2.39
854.83	31.06
855.005	-20.14
855.18	51.54
855.354	-16.04
855.529	-11.95
855.704	-28.33
855.879	29.01
856.053	-13.99
856.228	96.6
856.403	-73.39
856.577	-40.62
856.752	-26.28
856.926	-16.04
857.101	-40.62
857.276	26.96
857.45	82.26
857.625	-30.38
857.799	-24.23
857.974	-1.71
858.148	-91.82
858.323	74.07
858.497	-1.71
858.672	45.4
858.846	-46.76
859.02	69.97
859.195	-38.57
859.369	41.3
859.543	-32.43
859.718	-3.75
859.892	82.26
860.066	14.68
860.241	47.44
860.415	-44.71
860.589	57.68
860.763	24.92
860.938	22.87
861.112	0.34
861.286	24.92
861.46	-16.04
861.634	-28.33
861.808	41.3
861.982	-24.23
862.157	-63.15
862.331	-73.39
862.505	-40.62
862.679	-57
862.853	24.92
863.027	6.49
863.201	47.44
863.375	47.44
863.549	69.97
863.722	-28.33
863.896	59.73
864.07	74.07
864.244	-18.09
864.418	-5.8
864.592	61.78
864.766	-57
864.939	41.3
865.113	20.82
865.287	88.4
865.461	-30.38
865.634	61.78
865.808	55.64
865.982	-24.23
866.156	-79.53
866.329	35.16
866.503	-65.19
866.676	-50.86
866.85	24.92
867.024	4.44
867.197	14.68
867.371	-32.43
867.544	-48.81
867.718	-48.81
867.891	63.83
868.065	-5.8
868.238	18.77
868.412	-18.09
868.585	31.06
868.759	-11.95
868.932	-13.99
869.105	0.34
869.279	24.92
869.452	39.25
869.625	53.59
869.799	-24.23
869.972	-28.33
870.145	6.49
870.319	-61.1
870.492	26.96
870.665	16.73
870.838	90.45
871.011	-75.43
871.185	2.39
871.358	-36.52
871.531	-11.95
871.704	-7.85
871.877	12.63
872.05	-1.71
872.223	74.07
872.396	-48.81
872.569	55.64
872.742	-63.15
872.915	84.31
873.088	-24.23
873.261	26.96
873.434	24.92
873.607	76.12
873.78	16.73
873.953	8.53
874.126	41.3
874.299	-48.81
874.471	53.59
874.644	-75.43
874.817	45.4
874.99	12.63
875.163	18.77
875.335	67.92
875.508	8.53
875.681	-18.09
875.853	-9.9
876.026	57.68
876.199	-11.95
876.371	0.34
876.544	-67.24
876.717	-32.43
876.889	-13.99
877.062	26.96
877.234	49.49
877.407	-3.75
877.579	-3.75
877.752	-40.62
877.924	4.44
878.097	-7.85
878.269	-42.67
878.442	-73.39
878.614	-40.62
878.786	18.77
878.959	-1.71
879.131	31.06
879.303	-46.76
879.476	-5.8
879.648	14.68
879.82	0.34
879.993	-13.99
880.165	-26.28
880.337	-18.09
880.509	0.34
880.681	-26.28
880.854	-77.48
881.026	29.01
881.198	61.78
881.37	-32.43
881.542	59.73
881.714	-18.09
881.886	-42.67
882.058	74.07
882.23	-42.67
882.402	80.21
882.574	33.11
882.746	10.58
882.918	-22.19
883.09	18.77
883.262	-95.91
883.434	6.49
883.606	-52.91
883.778	-28.33
883.95	-13.99
884.122	-9.9
884.293	-13.99
884.465	49.49
884.637	57.68
884.809	-24.23
884.98	-52.91
885.152	-32.43
885.324	-13.99
885.496	-38.57
885.667	-69.29
885.839	0.34
886.011	8.53
886.182	37.2
886.354	0.34
886.525	33.11
886.697	-18.09
886.869	4.44
887.04	-11.95
887.212	24.92
887.383	84.31
887.555	74.07
887.726	4.44
887.897	-1.71
888.069	-36.52
888.24	-20.14
888.412	-26.28
888.583	-16.04
888.754	-26.28
888.926	24.92
889.097	-24.23
889.268	-40.62
889.44	10.58
889.611	-85.67
889.782	-50.86
889.953	-112.3
890.125	59.73
890.296	-57
890.467	-16.04
890.638	-83.63
890.809	31.06
890.98	-87.72
891.151	59.73
891.323	-50.86
891.494	16.73
891.665	-24.23
891.836	18.77
892.007	35.16
892.178	-1.71
892.349	43.35
892.52	-9.9
892.691	-1.71
892.862	-11.95
893.032	-59.05
893.203	0.34
893.374	-16.04
893.545	-7.85
893.716	18.77
893.887	12.63
894.057	-89.77
894.228	-67.24
894.399	-63.15
894.57	-5.8
894.74	-24.23
894.911	-1.71
895.082	37.2
895.253	14.68
895.423	4.44
895.594	45.4
895.764	49.49
895.935	-32.43
896.106	-22.19
896.276	39.25
896.447	6.49
896.617	-28.33
896.788	-32.43
896.958	-5.8
897.129	-13.99
897.299	-22.19
897.47	-5.8
897.64	-7.85
897.81	6.49
897.981	67.92
898.151	-79.53
898.322	-20.14
898.492	-61.1
898.662	14.68
898.832	2.39
899.003	-28.33
899.173	-20.14
899.343	-20.14
899.513	-93.87
