Data from USB4F104151__123__11-07-30-816.txt Node

Date: Wed Mar 12 11:07:30 EDT 2025
User: louis
Spectrometer: USB4F10415
Trigger mode: 4
Integration Time (sec): 2.000000E-2
Scans to average: 1
Electric dark correction enabled: true
Nonlinearity correction enabled: false
Boxcar width: 0
XAxis mode: Wavelengths
Number of Pixels in Spectrum: 3648
>>>>>Begin Spectral Data<<<<<
178.204	-99.16
178.424	-99.16
178.644	-99.16
178.864	-80.72
179.084	-54.1
179.304	-19.29
179.524	15.53
179.744	-54.1
179.964	56.49
180.184	9.39
180.404	-7
180.624	-9.05
180.844	-27.48
181.064	-4.95
181.283	-13.14
181.503	-15.19
181.723	68.78
181.943	11.43
182.163	23.72
182.383	-9.05
182.602	54.44
182.822	-37.72
183.042	-17.24
183.262	-27.48
183.482	33.96
183.701	21.67
183.921	7.34
184.141	-45.91
184.361	15.53
184.58	48.3
184.8	21.67
185.02	23.72
185.239	60.59
185.459	1.19
185.679	5.29
185.898	58.54
186.118	-45.91
186.338	52.39
186.557	42.15
186.777	36.01
186.997	70.83
187.216	15.53
187.436	44.2
187.655	48.3
187.875	31.91
188.095	-17.24
188.314	91.31
188.534	44.2
188.753	3.24
188.973	29.87
189.192	60.59
189.412	48.3
189.631	1.19
189.851	38.06
190.07	66.73
190.29	-17.24
190.509	68.78
190.729	15.53
190.948	76.97
191.168	111.78
191.387	76.97
191.607	-19.29
191.826	60.59
192.045	19.63
192.265	36.01
192.484	-2.9
192.704	7.34
192.923	5.29
193.142	72.87
193.362	29.87
193.581	87.21
193.8	95.4
194.02	33.96
194.239	-23.38
194.458	42.15
194.678	-29.52
194.897	-2.9
195.116	31.91
195.335	48.3
195.555	-41.81
195.774	-11.09
195.993	87.21
196.212	70.83
196.432	27.82
196.651	-21.33
196.87	21.67
197.089	91.31
197.308	19.63
197.528	-0.85
197.747	3.24
197.966	27.82
198.185	52.39
198.404	64.68
198.623	21.67
198.842	68.78
199.062	23.72
199.281	-29.52
199.5	-11.09
199.719	-2.9
199.938	13.48
200.157	58.54
200.376	29.87
200.595	-17.24
200.814	-39.76
201.033	5.29
201.252	42.15
201.471	42.15
201.69	5.29
201.909	44.2
202.128	93.35
202.347	27.82
202.566	15.53
202.785	19.63
203.004	-0.85
203.223	72.87
203.442	-31.57
203.661	-2.9
203.879	19.63
204.098	99.5
204.317	36.01
204.536	74.92
204.755	-9.05
204.974	56.49
205.193	25.77
205.411	136.36
205.63	-33.62
205.849	7.34
206.068	-19.29
206.287	33.96
206.505	13.48
206.724	3.24
206.943	97.45
207.162	64.68
207.381	46.25
207.599	95.4
207.818	60.59
208.037	72.87
208.255	-0.85
208.474	19.63
208.693	-11.09
208.911	-13.14
209.13	-35.67
209.349	-7
209.567	54.44
209.786	64.68
210.005	23.72
210.223	109.74
210.442	-17.24
210.661	87.21
210.879	3.24
211.098	105.64
211.316	17.58
211.535	19.63
211.753	38.06
211.972	27.82
212.191	-11.09
212.409	1.19
212.628	50.35
212.846	11.43
213.065	40.11
213.283	23.72
213.502	79.02
213.72	21.67
213.938	109.74
214.157	-7
214.375	36.01
214.594	-25.43
214.812	15.53
215.031	15.53
215.249	21.67
215.467	5.29
215.686	44.2
215.904	93.35
216.122	-4.95
216.341	76.97
216.559	-0.85
216.778	76.97
216.996	91.31
217.214	50.35
217.432	-0.85
217.651	27.82
217.869	68.78
218.087	64.68
218.306	56.49
218.524	105.64
218.742	19.63
218.96	25.77
219.179	21.67
219.397	23.72
219.615	58.54
219.833	-4.95
220.051	36.01
220.27	60.59
220.488	81.07
220.706	-0.85
220.924	95.4
221.142	-13.14
221.36	64.68
221.578	40.11
221.796	7.34
222.015	3.24
222.233	74.92
222.451	72.87
222.669	-13.14
222.887	62.63
223.105	68.78
223.323	109.74
223.541	-25.43
223.759	36.01
223.977	-13.14
224.195	128.17
224.413	70.83
224.631	103.59
224.849	-9.05
225.067	17.58
225.285	-25.43
225.503	79.02
225.721	40.11
225.939	89.26
226.157	40.11
226.375	36.01
226.592	48.3
226.81	9.39
227.028	-11.09
227.246	29.87
227.464	66.73
227.682	68.78
227.9	91.31
228.117	11.43
228.335	81.07
228.553	1.19
228.771	58.54
228.989	15.53
229.206	50.35
229.424	17.58
229.642	31.91
229.86	17.58
230.077	40.11
230.295	27.82
230.513	44.2
230.731	38.06
230.948	52.39
231.166	21.67
231.384	-52.05
231.601	-31.57
231.819	64.68
232.037	50.35
232.254	29.87
232.472	72.87
232.689	-4.95
232.907	126.12
233.125	11.43
233.342	15.53
233.56	-17.24
233.777	97.45
233.995	9.39
234.213	44.2
234.43	-29.52
234.648	15.53
234.865	31.91
235.083	79.02
235.3	42.15
235.518	11.43
235.735	68.78
235.953	23.72
236.17	-19.29
236.388	76.97
236.605	19.63
236.822	15.53
237.04	23.72
237.257	21.67
237.475	-4.95
237.692	109.74
237.909	113.83
238.127	9.39
238.344	13.48
238.562	11.43
238.779	15.53
238.996	31.91
239.214	31.91
239.431	68.78
239.648	42.15
239.865	3.24
240.083	68.78
240.3	44.2
240.517	17.58
240.735	42.15
240.952	23.72
241.169	-4.95
241.386	48.3
241.603	33.96
241.821	54.44
242.038	27.82
242.255	52.39
242.472	19.63
242.689	23.72
242.907	95.4
243.124	7.34
243.341	66.73
243.558	72.87
243.775	-37.72
243.992	44.2
244.209	68.78
244.426	111.78
244.643	83.11
244.86	58.54
245.078	36.01
245.295	93.35
245.512	38.06
245.729	31.91
245.946	60.59
246.163	62.63
246.38	42.15
246.597	-19.29
246.814	46.25
247.031	74.92
247.248	79.02
247.464	-0.85
247.681	-19.29
247.898	3.24
248.115	56.49
248.332	-27.48
248.549	76.97
248.766	36.01
248.983	9.39
249.2	46.25
249.417	23.72
249.633	36.01
249.85	31.91
250.067	38.06
250.284	101.55
250.501	46.25
250.717	68.78
250.934	-41.81
251.151	74.92
251.368	3.24
251.585	64.68
251.801	79.02
252.018	19.63
252.235	68.78
252.451	9.39
252.668	-25.43
252.885	56.49
253.102	85.16
253.318	33.96
253.535	-52.05
253.752	11.43
253.968	-7
254.185	38.06
254.401	29.87
254.618	76.97
254.835	-9.05
255.051	95.4
255.268	72.87
255.484	15.53
255.701	11.43
255.917	50.35
256.134	33.96
256.351	74.92
256.567	19.63
256.784	93.35
257	50.35
257.217	95.4
257.433	29.87
257.65	70.83
257.866	15.53
258.082	36.01
258.299	-4.95
258.515	68.78
258.732	109.74
258.948	42.15
259.165	29.87
259.381	3.24
259.597	48.3
259.814	52.39
260.03	-2.9
260.246	58.54
260.463	97.45
260.679	68.78
260.895	-33.62
261.112	111.78
261.328	64.68
261.544	46.25
261.761	44.2
261.977	17.58
262.193	23.72
262.409	31.91
262.626	95.4
262.842	103.59
263.058	50.35
263.274	132.26
263.49	-21.33
263.707	31.91
263.923	89.26
264.139	62.63
264.355	91.31
264.571	7.34
264.787	-64.34
265.004	62.63
265.22	19.63
265.436	62.63
265.652	25.77
265.868	46.25
266.084	44.2
266.3	48.3
266.516	54.44
266.732	117.93
266.948	-29.52
267.164	-0.85
267.38	19.63
267.596	68.78
267.812	95.4
268.028	19.63
268.244	48.3
268.46	48.3
268.676	27.82
268.892	62.63
269.108	11.43
269.324	95.4
269.54	44.2
269.756	40.11
269.972	15.53
270.188	-2.9
270.403	83.11
270.619	64.68
270.835	64.68
271.051	11.43
271.267	81.07
271.483	83.11
271.698	97.45
271.914	-58.2
272.13	93.35
272.346	64.68
272.562	-11.09
272.777	42.15
272.993	44.2
273.209	66.73
273.425	38.06
273.64	-25.43
273.856	62.63
274.072	3.24
274.287	42.15
274.503	68.78
274.719	58.54
274.934	54.44
275.15	23.72
275.366	87.21
275.581	13.48
275.797	117.93
276.012	56.49
276.228	23.72
276.444	105.64
276.659	60.59
276.875	3.24
277.09	5.29
277.306	23.72
277.521	97.45
277.737	11.43
277.952	52.39
278.168	-19.29
278.383	50.35
278.599	33.96
278.814	66.73
279.03	1.19
279.245	15.53
279.461	23.72
279.676	42.15
279.892	31.91
280.107	33.96
280.322	7.34
280.538	38.06
280.753	23.72
280.969	56.49
281.184	89.26
281.399	44.2
281.615	36.01
281.83	21.67
282.045	17.58
282.26	74.92
282.476	68.78
282.691	128.17
282.906	44.2
283.122	31.91
283.337	3.24
283.552	122.02
283.767	81.07
283.983	109.74
284.198	-2.9
284.413	50.35
284.628	15.53
284.843	11.43
285.058	11.43
285.274	25.77
285.489	-50
285.704	52.39
285.919	56.49
286.134	87.21
286.349	19.63
286.564	64.68
286.779	46.25
286.995	99.5
287.21	17.58
287.425	31.91
287.64	72.87
287.855	36.01
288.07	-2.9
288.285	33.96
288.5	93.35
288.715	-2.9
288.93	36.01
289.145	115.88
289.36	68.78
289.575	48.3
289.79	89.26
290.004	-9.05
290.219	60.59
290.434	7.34
290.649	38.06
290.864	38.06
291.079	25.77
291.294	48.3
291.509	107.69
291.724	38.06
291.938	62.63
292.153	48.3
292.368	33.96
292.583	21.67
292.798	66.73
293.012	79.02
293.227	83.11
293.442	-4.95
293.657	83.11
293.871	74.92
294.086	3.24
294.301	46.25
294.516	119.98
294.73	27.82
294.945	11.43
295.16	31.91
295.374	81.07
295.589	38.06
295.804	87.21
296.018	97.45
296.233	3.24
296.447	99.5
296.662	-9.05
296.877	40.11
297.091	40.11
297.306	-4.95
297.52	42.15
297.735	72.87
297.949	66.73
298.164	99.5
298.378	115.88
298.593	27.82
298.807	97.45
299.022	3.24
299.236	58.54
299.451	23.72
299.665	7.34
299.88	40.11
300.094	81.07
300.309	70.83
300.523	31.91
300.737	76.97
300.952	101.55
301.166	70.83
301.381	-0.85
301.595	9.39
301.809	105.64
302.024	-7
302.238	83.11
302.452	68.78
302.667	25.77
302.881	66.73
303.095	81.07
303.309	1.19
303.524	40.11
303.738	13.48
303.952	-15.19
304.166	68.78
304.381	-33.62
304.595	111.78
304.809	115.88
305.023	87.21
305.237	9.39
305.452	60.59
305.666	33.96
305.88	68.78
306.094	74.92
306.308	38.06
306.522	122.02
306.736	40.11
306.95	23.72
307.164	44.2
307.379	50.35
307.593	79.02
307.807	76.97
308.021	99.5
308.235	154.79
308.449	13.48
308.663	58.54
308.877	122.02
309.091	111.78
309.305	33.96
309.519	-0.85
309.733	-4.95
309.947	54.44
310.161	101.55
310.374	62.63
310.588	42.15
310.802	-0.85
311.016	13.48
311.23	-33.62
311.444	44.2
311.658	38.06
311.872	-2.9
312.085	17.58
312.299	85.16
312.513	17.58
312.727	91.31
312.941	3.24
313.154	27.82
313.368	48.3
313.582	64.68
313.796	56.49
314.009	3.24
314.223	54.44
314.437	7.34
314.651	50.35
314.864	38.06
315.078	21.67
315.292	15.53
315.505	23.72
315.719	60.59
315.933	31.91
316.146	89.26
316.36	66.73
316.573	64.68
316.787	31.91
317.001	85.16
317.214	85.16
317.428	76.97
317.641	79.02
317.855	-31.57
318.068	101.55
318.282	29.87
318.495	23.72
318.709	21.67
318.922	31.91
319.136	66.73
319.349	89.26
319.563	21.67
319.776	40.11
319.99	33.96
320.203	81.07
320.417	-11.09
320.63	23.72
320.843	68.78
321.057	11.43
321.27	148.65
321.483	72.87
321.697	109.74
321.91	89.26
322.124	74.92
322.337	54.44
322.55	31.91
322.763	48.3
322.977	-9.05
323.19	52.39
323.403	72.87
323.617	15.53
323.83	19.63
324.043	-45.91
324.256	117.93
324.469	-13.14
324.683	97.45
324.896	52.39
325.109	13.48
325.322	-13.14
325.535	-0.85
325.748	56.49
325.962	48.3
326.175	126.12
326.388	54.44
326.601	-2.9
326.814	89.26
327.027	15.53
327.24	91.31
327.453	3.24
327.666	99.5
327.879	56.49
328.092	68.78
328.305	38.06
328.518	99.5
328.731	48.3
328.944	23.72
329.157	56.49
329.37	29.87
329.583	40.11
329.796	91.31
330.009	23.72
330.222	-2.9
330.435	44.2
330.648	3.24
330.861	-37.72
331.073	9.39
331.286	46.25
331.499	64.68
331.712	36.01
331.925	58.54
332.138	89.26
332.35	33.96
332.563	17.58
332.776	105.64
332.989	17.58
333.202	97.45
333.414	101.55
333.627	-21.33
333.84	3.24
334.053	140.46
334.265	-4.95
334.478	15.53
334.691	29.87
334.903	62.63
335.116	64.68
335.329	58.54
335.541	50.35
335.754	99.5
335.966	3.24
336.179	1.19
336.392	72.87
336.604	-13.14
336.817	54.44
337.029	38.06
337.242	13.48
337.454	-25.43
337.667	103.59
337.88	54.44
338.092	140.46
338.305	-0.85
338.517	-29.52
338.729	56.49
338.942	66.73
339.154	76.97
339.367	15.53
339.579	81.07
339.792	64.68
340.004	70.83
340.217	31.91
340.429	74.92
340.641	13.48
340.854	-13.14
341.066	103.59
341.278	97.45
341.491	87.21
341.703	111.78
341.915	21.67
342.128	50.35
342.34	31.91
342.552	89.26
342.764	68.78
342.977	60.59
343.189	124.07
343.401	56.49
343.613	23.72
343.826	13.48
344.038	23.72
344.25	144.55
344.462	66.73
344.674	99.5
344.886	83.11
345.099	38.06
345.311	72.87
345.523	40.11
345.735	111.78
345.947	150.7
346.159	105.64
346.371	85.16
346.583	17.58
346.795	79.02
347.007	-27.48
347.219	103.59
347.431	89.26
347.643	46.25
347.855	97.45
348.067	148.65
348.279	50.35
348.491	46.25
348.703	99.5
348.915	103.59
349.127	-17.24
349.339	111.78
349.551	62.63
349.763	97.45
349.975	81.07
350.187	87.21
350.399	95.4
350.61	31.91
350.822	72.87
351.034	72.87
351.246	23.72
351.458	54.44
351.669	46.25
351.881	87.21
352.093	79.02
352.305	17.58
352.517	74.92
352.728	122.02
352.94	48.3
353.152	124.07
353.363	33.96
353.575	19.63
353.787	101.55
353.999	58.54
354.21	105.64
354.422	-43.86
354.633	81.07
354.845	27.82
355.057	-7
355.268	162.98
355.48	-25.43
355.692	27.82
355.903	-11.09
356.115	66.73
356.326	15.53
356.538	36.01
356.749	56.49
356.961	124.07
357.172	40.11
357.384	42.15
357.595	83.11
357.807	93.35
358.018	36.01
358.23	44.2
358.441	60.59
358.653	85.16
358.864	-0.85
359.075	122.02
359.287	68.78
359.498	158.89
359.709	99.5
359.921	56.49
360.132	85.16
360.344	72.87
360.555	62.63
360.766	74.92
360.977	-13.14
361.189	56.49
361.4	15.53
361.611	107.69
361.823	89.26
362.034	56.49
362.245	25.77
362.456	48.3
362.667	70.83
362.879	79.02
363.09	52.39
363.301	1.19
363.512	62.63
363.723	3.24
363.935	31.91
364.146	64.68
364.357	117.93
364.568	89.26
364.779	42.15
364.99	76.97
365.201	-2.9
365.412	113.83
365.623	40.11
365.834	122.02
366.045	81.07
366.256	87.21
366.467	76.97
366.678	79.02
366.889	60.59
367.1	56.49
367.311	44.2
367.522	-2.9
367.733	50.35
367.944	162.98
368.155	70.83
368.366	9.39
368.577	99.5
368.788	117.93
368.999	64.68
369.209	66.73
369.42	138.41
369.631	68.78
369.842	117.93
370.053	44.2
370.264	160.94
370.474	89.26
370.685	103.59
370.896	76.97
371.107	58.54
371.317	89.26
371.528	79.02
371.739	81.07
371.95	66.73
372.16	50.35
372.371	76.97
372.582	36.01
372.792	56.49
373.003	56.49
373.214	46.25
373.424	36.01
373.635	81.07
373.846	142.5
374.056	66.73
374.267	70.83
374.477	85.16
374.688	50.35
374.898	38.06
375.109	160.94
375.319	85.16
375.53	148.65
375.74	101.55
375.951	68.78
376.161	76.97
376.372	136.36
376.582	81.07
376.793	105.64
377.003	3.24
377.214	97.45
377.424	54.44
377.635	-7
377.845	21.67
378.055	111.78
378.266	27.82
378.476	79.02
378.686	58.54
378.897	54.44
379.107	42.15
379.317	115.88
379.528	103.59
379.738	76.97
379.948	15.53
380.158	46.25
380.369	76.97
380.579	62.63
380.789	-0.85
380.999	85.16
381.21	107.69
381.42	97.45
381.63	21.67
381.84	76.97
382.05	44.2
382.261	38.06
382.471	111.78
382.681	13.48
382.891	87.21
383.101	85.16
383.311	54.44
383.521	79.02
383.731	142.5
383.941	85.16
384.151	109.74
384.361	42.15
384.571	15.53
384.781	107.69
384.991	134.31
385.201	126.12
385.411	36.01
385.621	132.26
385.831	-9.05
386.041	154.79
386.251	-15.19
386.461	101.55
386.671	56.49
386.881	109.74
387.091	103.59
387.301	101.55
387.511	56.49
387.72	89.26
387.93	93.35
388.14	-2.9
388.35	83.11
388.56	152.74
388.769	60.59
388.979	42.15
389.189	128.17
389.399	44.2
389.609	58.54
389.818	117.93
390.028	85.16
390.238	119.98
390.447	124.07
390.657	89.26
390.867	74.92
391.076	79.02
391.286	150.7
391.496	109.74
391.705	99.5
391.915	175.27
392.125	17.58
392.334	56.49
392.544	93.35
392.753	158.89
392.963	117.93
393.172	115.88
393.382	44.2
393.591	115.88
393.801	87.21
394.01	146.6
394.22	95.4
394.429	87.21
394.639	81.07
394.848	124.07
395.058	99.5
395.267	144.55
395.477	142.5
395.686	154.79
395.895	179.37
396.105	115.88
396.314	89.26
396.524	111.78
396.733	72.87
396.942	150.7
397.152	105.64
397.361	74.92
397.57	171.18
397.78	103.59
397.989	179.37
398.198	195.75
398.407	81.07
398.617	105.64
398.826	76.97
399.035	126.12
399.244	87.21
399.453	175.27
399.663	152.74
399.872	109.74
400.081	124.07
400.29	138.41
400.499	134.31
400.708	214.18
400.917	146.6
401.127	132.26
401.336	148.65
401.545	179.37
401.754	218.28
401.963	171.18
402.172	154.79
402.381	99.5
402.59	93.35
402.799	152.74
403.008	158.89
403.217	130.22
403.426	158.89
403.635	195.75
403.844	144.55
404.053	140.46
404.262	160.94
404.471	195.75
404.68	150.7
404.888	240.81
405.097	165.03
405.306	242.85
405.515	257.19
405.724	257.19
405.933	253.09
406.142	187.56
406.35	281.77
406.559	281.77
406.768	201.9
406.977	312.49
407.185	251.05
407.394	330.92
407.603	275.62
407.812	349.35
408.02	345.25
408.229	275.62
408.438	380.07
408.646	296.1
408.855	337.06
409.064	375.97
409.272	380.07
409.481	408.74
409.69	388.26
409.898	404.64
410.107	421.03
410.315	384.16
410.524	418.98
410.733	537.76
410.941	457.89
411.15	513.19
411.358	574.63
411.567	558.24
411.775	593.06
411.984	502.95
412.192	504.99
412.401	617.63
412.609	674.98
412.818	691.36
413.026	650.4
413.234	687.26
413.443	742.56
413.651	713.89
413.86	699.55
414.068	828.57
414.276	828.57
414.485	765.09
414.693	842.91
414.901	830.62
415.11	955.55
415.318	967.84
415.526	1023.13
415.734	1045.66
415.943	1021.08
416.151	1037.47
416.359	1127.58
416.567	1158.3
416.776	1184.92
416.984	1336.47
417.192	1287.32
417.4	1383.57
417.608	1350.81
417.817	1449.11
418.025	1412.25
418.233	1508.5
418.441	1522.84
418.649	1614.99
418.857	1776.78
419.065	1813.65
419.273	1809.55
419.481	1809.55
419.689	2057.36
419.897	2079.88
420.105	2260.1
420.313	2135.18
420.521	2225.29
420.729	2264.2
420.937	2321.54
421.145	2274.44
421.353	2516.1
421.561	2694.27
421.769	2559.11
421.977	2798.72
422.185	2894.97
422.393	3013.76
422.601	3284.09
422.809	3054.72
423.017	3183.74
423.224	3157.11
423.432	3409.01
423.64	3372.15
423.848	3697.78
424.056	3658.87
424.263	3863.66
424.471	3990.64
424.679	3998.83
424.887	4166.76
425.094	4150.38
425.302	4254.83
425.51	4398.18
425.718	4721.76
425.925	4695.14
426.133	4953.18
426.341	5289.05
426.548	5518.42
426.756	5360.73
426.964	5477.46
427.171	5829.71
427.379	5874.77
427.586	5882.96
427.794	6222.92
428.001	6472.78
428.209	6747.2
428.417	6618.18
428.624	6968.38
428.832	7316.54
429.039	7105.6
429.247	7119.93
429.454	7830.58
429.662	8326.19
429.869	7789.62
430.076	8285.23
430.284	7984.18
430.491	8459.31
430.699	8899.62
430.906	9030.69
431.114	9022.5
431.321	9485.34
431.528	9575.45
431.736	10279.95
431.943	10726.41
432.15	10191.89
432.358	10290.19
432.565	10931.2
432.772	11017.22
432.979	11578.36
433.187	11580.41
433.394	11641.85
433.601	12671.98
433.808	12563.43
434.016	12479.47
434.223	13018.08
434.43	14021.59
434.637	13521.88
434.844	14343.12
435.052	14617.55
435.259	14650.32
435.466	14877.64
435.673	14656.46
435.88	15666.11
436.087	16425.9
436.294	16466.86
436.501	15956.92
436.708	16260.02
436.915	16978.86
437.122	17492.9
437.329	17468.32
437.537	18097.05
437.743	18592.65
437.95	18166.68
438.157	19256.2
438.364	19788.67
438.571	19792.76
438.778	19860.35
438.985	21957.47
439.192	21017.45
439.399	21631.84
439.606	21283.69
439.813	22512.47
440.02	24062.78
440.227	23290.7
440.433	22973.26
440.64	24077.12
440.847	23556.93
441.054	24273.72
441.261	25715.49
441.467	25565.99
441.674	25807.65
441.881	27044.62
442.088	26952.46
442.294	26567.45
442.501	27613.96
442.708	27939.58
442.914	28846.83
443.121	30180.06
443.328	29588.2
443.534	31408.84
443.741	30749.4
443.948	30118.62
444.154	32527.03
444.361	32078.53
444.568	32379.58
444.774	32322.24
444.981	32699.06
445.187	33591.98
445.394	35109.52
445.6	34738.84
445.807	37823.08
446.013	35881.61
446.22	37190.26
446.426	38134.37
446.633	38527.58
446.839	40268.36
447.046	38339.17
447.252	40475.2
447.459	40467.01
447.665	40456.77
447.871	41980.46
448.078	43557.39
448.284	41724.46
448.491	42770.97
448.697	44378.63
448.903	44827.13
449.11	45220.34
449.316	44317.19
449.522	45257.21
449.728	46481.89
449.935	46289.38
450.141	46555.62
450.347	47794.64
450.553	46156.27
450.76	46643.68
450.966	48226.76
451.172	47632.85
451.378	48447.94
451.584	47718.87
451.791	48902.59
451.997	48464.33
452.203	49508.79
452.409	49330.62
452.615	49297.85
452.821	46971.36
453.027	46907.87
453.233	49291.71
453.44	47356.38
453.646	47503.83
453.852	48155.08
454.058	48488.9
454.264	47034.84
454.47	48060.88
454.676	46832.1
454.882	48196.04
455.088	44653.06
455.294	44802.56
455.5	45570.55
455.705	45754.86
455.911	44081.67
456.117	43469.33
456.323	42648.1
456.529	40278.6
456.735	42224.17
456.941	41181.75
457.147	40340.04
457.352	39236.18
457.558	38941.27
457.764	38597.21
457.97	37896.81
458.176	37290.61
458.381	36901.5
458.587	35324.56
458.793	35486.35
458.999	33432.24
459.204	36059.78
459.41	35328.66
459.616	32670.39
459.821	32864.95
460.027	32869.05
460.233	31681.22
460.438	30071.52
460.644	30882.52
460.85	29448.94
461.055	29102.83
461.261	28850.93
461.466	26512.15
461.672	26002.21
461.878	27927.3
462.083	25824.03
462.289	25699.11
462.494	25525.03
462.7	24515.38
462.905	23354.18
463.111	24177.47
463.316	24140.6
463.522	23982.91
463.727	23599.94
463.932	23898.94
464.138	23610.18
464.343	23673.67
464.549	22784.85
464.754	23618.37
464.959	23415.62
465.165	22944.59
465.37	22598.48
465.575	22012.76
465.781	22770.51
465.986	22752.08
466.191	22041.43
466.397	21726.05
466.602	20407.16
466.807	21420.9
467.012	21384.04
467.218	21220.2
467.423	20892.52
467.628	21158.76
467.833	22176.6
468.038	21306.21
468.244	20730.73
468.449	21572.45
468.654	20898.67
468.859	20611.95
469.064	20382.58
469.269	19706.75
469.474	19764.09
469.679	20030.33
469.885	19659.65
470.09	19882.88
470.295	20089.72
470.5	19112.84
470.705	19262.34
470.91	19012.49
471.115	18908.04
471.32	18791.31
471.525	18779.02
471.73	18394
471.935	18248.6
472.139	17744.8
472.344	17822.62
472.549	17789.85
472.754	17548.19
472.959	17327.01
473.164	16798.63
473.369	16616.37
473.574	17298.34
473.778	17038.25
473.983	16921.51
474.188	16755.63
474.393	16169.91
474.598	16180.15
474.802	16092.09
475.007	16057.27
475.212	15915.96
475.417	15350.72
475.621	15371.2
475.826	15449.02
476.031	15174.6
476.235	14840.78
476.44	14908.36
476.645	14701.51
476.849	14910.41
477.054	14693.32
477.259	14404.56
477.463	14539.72
477.668	14029.78
477.872	13951.96
478.077	13935.57
478.282	13540.32
478.486	13587.42
478.691	13323.23
478.895	13513.69
479.1	13401.05
479.304	13446.11
479.509	12878.82
479.713	13376.48
479.918	12903.4
480.122	12835.81
480.326	12825.57
480.531	12817.38
480.735	12633.07
480.94	12684.27
481.144	13009.89
481.348	12440.56
481.553	12657.64
481.757	12479.47
481.961	12590.06
482.166	12930.02
482.37	12573.67
482.574	12436.46
482.778	12284.91
482.983	12665.83
483.187	12202.99
483.391	12628.97
483.595	12270.58
483.8	12192.75
484.004	12403.69
484.208	12338.16
484.412	12282.86
484.616	12151.79
484.821	12403.69
485.025	11949.04
485.229	12321.77
485.433	12010.48
485.637	12350.45
485.841	12147.7
486.045	12106.74
486.249	12321.77
486.453	12016.63
486.657	12426.22
486.861	12387.31
487.065	11781.11
487.269	12440.56
487.473	12065.78
487.677	12264.43
487.881	12458.99
488.085	12393.45
488.289	12422.13
488.493	12196.85
488.697	12489.71
488.901	12413.93
489.105	12385.26
489.309	12438.51
489.512	12393.45
489.716	12360.69
489.92	12422.13
490.124	12295.15
490.328	12637.16
490.531	12477.42
490.735	12628.97
490.939	12547.05
491.143	12491.76
491.346	12827.62
491.55	12825.57
491.754	12819.43
491.958	12776.42
492.161	12784.62
492.365	12817.38
492.569	12852.2
492.772	12919.78
492.976	13155.3
493.18	13177.83
493.383	13218.78
493.587	13396.96
493.79	13478.88
493.994	13519.84
494.197	13472.73
494.401	13855.7
494.605	13591.52
494.808	13972.44
495.012	13650.91
495.215	13954.01
495.419	14005.2
495.622	14138.32
495.825	14296.02
496.029	14263.25
496.232	14511.05
496.436	14488.53
496.639	15125.44
496.843	14810.06
497.046	15244.23
497.249	15375.3
497.453	15399.87
497.656	15598.52
497.859	15336.38
498.063	15731.64
498.266	16038.84
498.469	16112.56
498.673	15903.67
498.876	16362.42
499.079	16583.6
499.282	16507.82
499.485	16958.38
499.689	17105.83
499.892	17380.26
500.095	17261.48
500.298	18068.37
500.501	17533.86
500.705	18232.21
500.908	18373.52
501.111	18307.99
501.314	18488.21
501.517	18815.88
501.72	19256.2
501.923	19102.6
502.126	19377.03
502.329	19850.11
502.532	19573.63
502.735	19911.55
502.938	20177.78
503.141	20323.19
503.344	20697.97
503.547	20495.22
503.75	20894.57
503.953	21162.86
504.156	21644.13
504.359	22094.68
504.562	21756.77
504.765	22219.61
504.968	22575.95
505.17	22506.32
505.373	22780.75
505.576	23196.49
505.779	23257.93
505.982	23618.37
506.185	23771.97
506.387	24120.12
506.59	24062.78
506.793	24542
506.996	24689.46
507.198	25451.3
507.401	25072.43
507.604	25766.69
507.807	25953.05
508.009	26075.93
508.212	26757.91
508.415	26661.65
508.617	26831.63
508.82	26643.22
509.022	26979.09
509.225	27685.64
509.428	27915.01
509.63	27947.78
509.833	28375.8
510.035	28805.88
510.238	29002.48
510.44	28992.24
510.643	29461.23
510.845	29895.39
511.048	29334.25
511.25	30126.81
511.453	30423.77
511.655	31554.25
511.858	31265.49
512.06	31361.74
512.262	31384.27
512.465	31822.53
512.667	32129.73
512.87	32463.55
513.072	32713.4
513.274	32821.94
513.477	33378.99
513.679	33946.28
513.881	33874.6
514.084	34917.01
514.286	34478.75
514.488	34863.77
514.69	35783.3
514.893	35519.12
515.095	35394.19
515.297	36102.79
515.499	36084.36
515.701	36848.25
515.904	37104.24
516.106	37544.56
516.308	37569.13
516.51	38011.49
516.712	38009.45
516.914	38431.33
517.116	39547.47
517.318	39113.3
517.52	39236.18
517.722	39264.85
517.925	39907.91
518.127	40532.54
518.329	40991.29
518.531	40716.86
518.733	41663.02
518.935	41640.5
519.136	42168.87
519.338	42244.65
519.54	42539.55
519.742	43055.64
519.944	43123.22
520.146	43735.57
520.348	43987.47
520.55	44077.58
520.752	43969.04
520.954	44995.07
521.155	44984.83
521.357	45648.37
521.559	45887.98
521.761	46744.03
521.963	46047.72
522.164	46748.13
522.366	46735.84
522.568	47020.51
522.77	47118.81
522.971	47841.74
523.173	47632.85
523.375	48079.31
523.576	48333.26
523.778	48337.35
523.98	48910.78
524.181	49308.09
524.383	49275.32
524.584	49709.49
524.786	49871.28
524.988	49975.73
525.189	50370.99
525.391	50588.07
525.592	50688.42
525.794	50882.98
525.995	51128.73
526.197	51202.46
526.398	51171.74
526.6	51569.05
526.801	51802.52
527.003	52300.17
527.204	52042.13
527.406	52521.35
527.607	52720.01
527.808	52640.14
528.01	52140.43
528.211	52627.85
528.412	53895.54
528.614	53049.73
528.815	53358.97
529.016	53977.46
529.218	53051.78
529.419	53809.53
529.62	53766.52
529.822	53612.92
530.023	53676.41
530.224	54020.47
530.425	54227.31
530.626	53885.3
530.828	53469.56
531.029	54976.87
531.23	53793.14
531.431	53866.87
531.632	54395.24
531.833	54645.1
532.035	54116.72
532.236	54686.06
532.437	54950.24
532.638	54260.08
532.839	54755.69
533.04	54894.95
533.241	54718.82
533.442	55521.63
533.643	55001.44
533.844	54796.65
534.045	55071.07
534.246	54546.79
534.447	55009.64
534.648	54755.69
534.849	55564.63
535.05	54452.59
535.251	55001.44
535.451	54770.02
535.652	55288.16
535.853	55144.8
536.054	54853.99
536.255	55452
536.456	54649.19
536.657	55767.38
536.857	55112.03
537.058	55013.73
537.259	55468.38
537.46	55740.76
537.66	55181.66
537.861	55304.54
538.062	54944.1
538.263	55083.36
538.463	55396.7
538.664	55152.99
538.865	55239.01
539.065	55402.85
539.266	54929.76
539.466	55554.39
539.667	54174.06
539.868	55544.16
540.068	54952.29
540.269	54919.52
540.469	54993.25
540.67	54851.94
540.87	55105.89
541.071	54653.29
541.271	55255.39
541.472	55013.73
541.672	54878.57
541.873	54763.88
542.073	54288.75
542.274	54712.68
542.474	54358.38
542.675	54129.01
542.875	54550.89
543.075	54514.03
543.276	54288.75
543.476	54616.43
543.676	54536.55
543.877	54913.38
544.077	54571.37
544.277	54501.74
544.478	54782.31
544.678	54641
544.878	54538.6
545.078	54444.4
545.279	54325.61
545.479	54747.5
545.679	54434.16
545.879	54514.03
546.079	54976.87
546.28	54479.21
546.48	54258.03
546.68	54514.03
546.88	54704.49
547.08	54468.97
547.28	54190.45
547.48	54030.71
547.68	54110.58
547.88	53946.74
548.081	54641
548.281	54419.82
548.481	54227.31
548.681	54616.43
548.881	54554.99
549.081	54600.04
549.28	54092.15
549.48	54436.2
549.68	54557.03
549.88	54894.95
550.08	54169.97
550.28	54694.25
550.48	54086
550.68	54415.72
550.88	53938.55
551.08	53916.02
551.279	54022.51
551.479	53670.26
551.679	54198.64
551.879	54129.01
552.079	54145.39
552.278	54002.03
552.478	53750.13
552.678	53959.03
552.878	53920.12
553.077	53617.02
553.277	53242.24
553.477	54137.2
553.676	53346.68
553.876	53258.62
554.076	53234.05
554.275	53719.41
554.475	52697.48
554.674	53629.3
554.874	53664.12
555.074	53199.23
555.273	53324.16
555.473	53567.87
555.672	53162.37
555.872	53238.14
556.071	53133.7
556.271	53203.33
556.47	53119.36
556.67	52421
556.869	53078.4
557.068	52873.6
557.268	52736.39
557.467	52986.24
557.667	52674.95
557.866	52642.18
558.065	52625.8
558.265	52226.45
558.464	52447.63
558.663	52541.83
558.863	52257.17
559.062	53270.91
559.261	52162.96
559.461	52357.52
559.66	51663.25
559.859	52064.66
560.058	52173.2
560.258	52085.14
560.457	51585.43
560.656	52621.7
560.855	51970.45
561.054	51909.01
561.253	51399.07
561.453	51917.2
561.652	51732.89
561.851	51863.96
562.05	51351.96
562.249	51016.1
562.448	51790.23
562.647	50700.71
562.846	51007.9
563.045	51175.84
563.244	50594.21
563.443	51405.21
563.642	50020.78
563.841	50557.35
564.04	50352.55
564.239	51012
564.438	50491.82
564.637	50303.4
564.836	50360.75
565.035	49811.89
565.234	50360.75
565.432	50022.83
565.631	49699.25
565.83	49951.15
566.029	49590.71
566.228	49537.46
566.427	49648.05
566.625	49455.54
566.824	48767.43
567.023	49658.29
567.222	48329.16
567.42	48882.11
567.619	48875.97
567.818	48718.28
568.016	48734.66
568.215	49039.81
568.414	48488.9
568.612	48939.46
568.811	48292.3
569.01	48376.26
569.208	47641.04
569.407	47981.01
569.605	47555.03
569.804	48026.06
570.002	47608.28
570.201	47774.16
570.4	47536.6
570.598	47170.01
570.797	47446.49
570.995	47483.35
571.193	46850.53
571.392	47661.52
571.59	46678.5
571.789	46711.27
571.987	46428.65
572.186	46483.94
572.384	46344.68
572.582	46416.36
572.781	46406.12
572.979	46012.91
573.177	46305.77
573.376	46297.58
573.574	45941.23
573.772	45965.81
573.971	45443.57
574.169	45634.03
574.367	45343.22
574.565	45812.21
574.763	45107.71
574.962	45515.25
575.16	44704.26
575.358	45498.87
575.556	44188.17
575.754	45584.88
575.952	44141.07
576.151	44911.1
576.349	44300.81
576.547	44468.74
576.745	44630.53
576.943	44552.71
577.141	44421.64
577.339	44202.5
577.537	43905.55
577.735	43688.46
577.933	43426.32
578.131	43721.23
578.329	43207.19
578.527	43076.12
578.725	43135.51
578.923	43139.61
579.121	43340.31
579.319	43014.68
579.516	43082.27
579.714	42883.61
579.912	42795.55
580.11	42617.38
580.308	42738.21
580.506	42379.81
580.704	41968.17
580.901	42091.05
581.099	42752.54
581.297	41919.02
581.495	41706.03
581.692	42056.23
581.89	41523.76
582.088	42015.27
582.285	41374.26
582.483	41916.97
582.681	41787.95
582.878	41460.27
583.076	40569.41
583.274	41341.49
583.471	40438.34
583.669	41069.11
583.866	40075.85
584.064	40866.36
584.262	40538.69
584.459	40817.21
584.657	40063.56
584.854	40495.68
585.052	39887.43
585.249	40065.61
585.447	39735.88
585.644	39555.66
585.841	39588.43
586.039	40231.49
586.236	39080.53
586.434	39418.45
586.631	39199.32
586.828	39350.87
587.026	38924.89
587.223	39072.34
587.42	38748.76
587.618	38646.36
587.815	38251.11
588.012	38548.06
588.21	38302.31
588.407	39088.73
588.604	38267.49
588.801	37905
588.999	37993.06
589.196	37835.37
589.393	37896.81
589.59	37323.38
589.787	37446.26
589.984	37159.54
590.182	36924.02
590.379	37366.38
590.576	36807.29
590.773	37202.55
590.97	36416.13
591.167	37302.9
591.364	36409.98
591.561	36659.84
591.758	36160.13
591.955	36655.74
592.152	36512.38
592.349	36242.05
592.546	36377.22
592.743	36190.85
592.94	35766.92
593.137	35969.67
593.334	35859.08
593.531	35177.11
593.727	35691.15
593.924	35701.39
594.121	35078.8
594.318	35658.38
594.515	35025.56
594.712	35254.93
594.908	34605.72
595.105	34822.81
595.302	34732.7
595.499	34491.04
595.696	34626.2
595.892	34321.05
596.089	34343.58
596.286	34339.49
596.482	34343.58
596.679	34294.43
596.876	33870.5
597.072	34095.78
597.269	34038.44
597.466	33622.7
597.662	33854.12
597.859	33725.1
598.055	33899.17
598.252	33465
598.448	33428.14
598.645	32942.77
598.841	33022.64
599.038	33147.57
599.234	32885.43
599.431	32881.33
599.627	32428.73
599.824	32948.92
600.02	32451.26
600.217	32703.16
600.413	31963.84
600.609	32162.5
600.806	31527.63
601.002	32297.66
601.198	31826.63
601.395	31656.65
601.591	31570.63
601.787	31824.58
601.984	31658.7
602.18	31757
602.376	31533.77
602.572	31167.18
602.769	31115.98
602.965	30800.6
603.161	31179.47
603.357	30741.21
603.553	30956.24
603.75	30743.25
603.946	30687.96
604.142	30569.18
604.338	30128.86
604.534	30614.23
604.73	30153.44
604.926	30245.6
605.122	30348
605.318	29967.07
605.514	29903.59
605.71	29762.28
605.906	30040.8
606.102	29539.05
606.298	29592.3
606.494	29506.28
606.69	29420.27
606.886	29627.11
607.082	29465.32
607.278	29493.99
607.474	28996.34
607.67	29432.55
607.866	29035.25
608.062	29416.17
608.257	28965.62
608.453	28908.27
608.649	29115.12
608.845	28721.91
609.041	28472.06
609.236	28859.12
609.432	28453.62
609.628	28707.57
609.824	28592.89
610.019	28365.56
610.215	28197.63
610.411	28519.16
610.606	28193.53
610.802	28363.51
610.998	28369.66
611.193	27872
611.389	27998.98
611.584	28033.79
611.78	27763.46
611.976	27986.69
612.171	27824.9
612.367	28156.67
612.562	27407.11
612.758	27511.56
612.953	27622.15
613.149	27775.75
613.344	27212.56
613.539	27652.87
613.735	27507.46
613.93	27187.98
614.126	27290.38
614.321	27380.49
614.517	27616.01
614.712	27454.22
614.907	27044.62
615.103	27384.58
615.298	27013.9
615.493	27228.94
615.688	26716.95
615.884	27437.83
616.079	26907.41
616.274	26856.21
616.47	26716.95
616.665	26948.37
616.86	26583.83
617.055	26452.76
617.25	26381.08
617.445	26690.32
617.641	26086.17
617.836	26624.79
618.031	26120.99
618.226	26116.89
618.421	26151.71
618.616	26129.18
618.811	25539.36
619.006	26141.47
619.201	25688.87
619.396	25991.97
619.591	25197.35
619.786	25885.47
619.981	25307.94
620.176	25533.22
620.371	25054
620.566	25256.75
620.761	24908.59
620.956	25201.45
621.151	24595.25
621.346	24939.31
621.541	24204.09
621.735	24742.71
621.93	24138.55
622.125	24582.96
622.32	23765.82
622.515	24140.6
622.709	23663.43
622.904	23745.34
623.099	23755.58
623.294	23364.42
623.488	23452.48
623.683	23462.72
623.878	23206.73
624.072	23106.38
624.267	23053.13
624.462	22754.13
624.656	22625.11
624.851	22829.9
625.046	22453.08
625.24	22471.51
625.435	22127.45
625.629	22313.81
625.824	22100.83
626.018	21887.84
626.213	21338.98
626.407	21830.49
626.602	21535.59
626.796	21494.63
626.991	21365.6
627.185	21425
627.38	20968.3
627.574	20966.25
627.768	21277.54
627.963	21031.79
628.157	20482.93
628.352	20913
628.546	20382.58
628.74	20929.39
628.935	20286.33
629.129	20241.27
629.323	19827.58
629.517	19731.33
629.712	20104.06
629.906	19932.03
630.1	19460.99
630.294	19563.39
630.489	19590.02
630.683	19739.52
630.877	19307.4
631.071	19245.96
631.265	19137.41
631.459	19094.41
631.653	18652.05
631.848	18944.91
632.042	18883.47
632.236	18885.51
632.43	18443.15
632.624	18641.81
632.818	18457.49
633.012	18068.37
633.206	18086.81
633.4	18410.39
633.594	17644.45
633.788	17914.78
633.982	17798.04
634.176	17664.93
634.369	17492.9
634.563	17525.66
634.757	17308.58
634.951	17617.82
635.145	17185.7
635.339	17398.69
635.533	17226.66
635.726	17390.5
635.92	16907.18
636.114	16825.26
636.308	16802.73
636.501	16602.03
636.695	16823.21
636.889	16808.87
637.083	16550.83
637.276	16450.48
637.47	16186.29
637.664	16108.47
637.857	16231.35
638.051	16061.37
638.244	15799.23
638.438	16053.17
638.632	15641.53
638.825	15743.93
639.019	15739.83
639.212	15567.81
639.406	15528.89
639.599	15514.56
639.793	15403.97
639.986	15133.64
640.18	15227.84
640.373	14998.47
640.567	14646.22
640.76	14971.85
640.954	14728.14
641.147	14894.02
641.34	14355.41
641.534	14717.9
641.727	14676.94
641.92	14324.69
642.114	14164.95
642.307	14398.41
642.5	14068.69
642.694	14248.91
642.887	13902.81
643.08	14089.17
643.273	13849.56
643.467	13759.45
643.66	13945.81
643.853	13691.87
644.046	13464.54
644.239	13454.3
644.432	13593.56
644.626	13239.26
644.819	13284.32
645.012	13456.35
645.205	13136.87
645.398	13276.13
645.591	12839.91
645.784	12925.93
645.977	12940.26
646.17	12903.4
646.363	12798.95
646.556	12714.98
646.749	12919.78
646.942	12805.1
647.135	12567.53
647.328	12473.32
647.521	12458.99
647.714	12131.31
647.907	12243.95
648.099	12332.01
648.292	12176.37
648.485	12286.96
648.678	12016.63
648.871	12092.4
649.064	11742.2
649.256	11908.08
649.449	11983.86
649.642	11854.84
649.835	11897.85
650.027	11572.22
650.22	11529.21
650.413	11389.95
650.605	11617.27
650.798	11447.29
650.991	11127.81
651.183	11320.32
651.376	11121.66
651.568	11211.78
651.761	10980.36
651.954	11168.77
652.146	10861.57
652.339	10949.64
652.531	11127.81
652.724	10996.74
652.916	10873.86
653.109	10867.72
653.301	10753.03
653.494	10746.89
653.686	10435.6
653.879	10494.99
654.071	10351.63
654.263	10273.81
654.456	10425.36
654.648	10472.46
654.84	10128.4
655.033	10284.05
655.225	10048.53
655.417	10077.2
655.61	9915.41
655.802	9853.97
655.994	9731.09
656.186	9810.96
656.379	9915.41
656.571	9815.06
656.763	9858.07
656.955	9579.54
657.148	9847.83
657.34	9466.91
657.532	9427.99
657.724	9464.86
657.916	9356.32
658.108	9432.09
658.3	9356.32
658.492	9387.04
658.684	9331.74
658.876	9106.46
659.068	9124.9
659.26	9143.33
659.452	9122.85
659.644	8999.97
659.836	8932.39
660.028	8981.54
660.22	8678.44
660.412	8643.62
660.604	8868.9
660.796	8836.13
660.988	8703.01
661.18	8496.17
661.372	8475.69
661.563	8547.37
661.755	8414.25
661.947	8387.63
662.139	8365.1
662.331	8340.52
662.522	8369.19
662.714	8252.46
662.906	8109.1
663.097	8252.46
663.289	8152.11
663.481	8080.43
663.673	8113.2
663.864	8055.86
664.056	8004.66
664.247	7945.27
664.439	7824.44
664.631	7861.3
664.822	7873.59
665.014	7842.87
665.205	7779.38
665.397	7668.79
665.588	7744.56
665.78	7550.01
665.971	7760.95
666.163	7586.87
666.354	7584.82
666.546	7545.91
666.737	7447.61
666.929	7476.28
667.12	7447.61
667.311	7375.93
667.503	7441.47
667.694	7273.53
667.885	7224.38
668.077	7234.62
668.268	7076.93
668.459	7261.24
668.651	7062.59
668.842	6968.38
669.033	7173.18
669.224	6843.46
669.416	7236.67
669.607	6982.72
669.798	6808.64
669.989	6941.76
670.18	6896.71
670.371	6753.35
670.563	6839.36
670.754	6827.07
670.945	6702.15
671.136	6657.09
671.327	6665.28
671.518	6702.15
671.709	6571.08
671.9	6691.91
672.091	6564.93
672.282	6683.72
672.473	6577.22
672.664	6587.46
672.855	6425.67
673.046	6413.38
673.237	6425.67
673.428	6280.27
673.619	6245.45
673.809	6409.29
674	6218.83
674.191	6181.96
674.382	6179.92
674.573	6356.04
674.764	6157.39
674.954	6138.96
675.145	6059.09
675.336	6173.77
675.527	6081.61
675.717	6149.2
675.908	5909.58
676.099	5958.74
676.289	5966.93
676.48	5991.5
676.671	5839.95
676.861	5909.58
677.052	5727.32
677.243	5766.23
677.433	5876.82
677.624	5776.47
677.814	5833.81
678.005	5833.81
678.195	5811.28
678.386	5710.93
678.576	5774.42
678.767	5674.07
678.957	5657.68
679.148	5770.32
679.338	5647.44
679.529	5684.31
679.719	5512.28
679.909	5620.82
680.1	5553.24
680.29	5497.94
680.481	5532.76
680.671	5586.01
680.861	5499.99
681.052	5549.14
681.242	5377.11
681.432	5602.39
681.622	5385.3
681.813	5506.13
682.003	5493.85
682.193	5373.02
682.383	5338.2
682.573	5405.78
682.764	5348.44
682.954	5313.63
683.144	5229.66
683.334	5233.75
683.524	5319.77
683.714	5332.06
683.904	5108.83
684.094	5252.19
684.284	5090.4
684.474	5172.32
684.664	5221.47
684.854	5104.73
685.044	5203.04
685.234	5098.59
685.424	5121.12
685.614	5094.49
685.804	4977.76
685.994	4996.19
686.184	5090.4
686.374	5033.05
686.564	4844.64
686.753	5082.21
686.943	4967.52
687.133	4863.07
687.323	4871.26
687.513	4742.24
687.702	4992.09
687.892	4740.19
688.082	4768.87
688.272	4670.56
688.461	4770.91
688.651	4809.83
688.841	4680.8
689.03	4682.85
689.22	4754.53
689.41	4686.95
689.599	4566.12
689.789	4732
689.979	4582.5
690.168	4602.98
690.358	4602.98
690.547	4506.73
690.737	4430.95
690.926	4521.06
691.116	4324.46
691.305	4504.68
691.495	4478.05
691.684	4328.55
691.874	4551.78
692.063	4516.97
692.252	4308.07
692.442	4396.14
692.631	4236.39
692.82	4383.85
693.01	4297.83
693.199	4281.45
693.388	4230.25
693.578	4301.93
693.767	4430.95
693.956	4211.82
694.146	4226.15
694.335	4287.59
694.524	4336.74
694.713	4344.94
694.902	4129.9
695.092	4168.81
695.281	4254.83
695.47	4058.22
695.659	4002.93
695.848	4070.51
696.037	4177
696.226	4127.85
696.415	4191.34
696.604	4086.89
696.793	4090.99
696.982	4134
697.171	4279.4
697.36	4117.61
697.549	4021.36
697.738	4017.26
697.927	3914.86
698.116	4152.43
698.305	4021.36
698.494	4082.8
698.683	4011.12
698.872	3968.11
699.061	3910.77
699.25	3976.3
699.438	3935.34
699.627	3882.1
699.816	3945.58
700.005	3853.42
700.193	3947.63
700.382	3912.81
700.571	3939.44
700.76	3882.1
700.948	4086.89
701.137	4090.99
701.326	3816.56
701.514	3791.98
701.703	3804.27
701.892	3822.7
702.08	4009.07
702.269	3849.33
702.457	3884.14
702.646	3859.57
702.834	3789.94
703.023	3761.27
703.212	3837.04
703.4	3810.42
703.589	3728.5
703.777	3816.56
703.965	3683.44
704.154	3882.1
704.342	3804.27
704.531	3869.81
704.719	3771.51
704.907	3820.66
705.096	3669.11
705.284	3814.51
705.472	3824.75
705.661	3671.15
705.849	3669.11
706.037	3677.3
706.226	3689.59
706.414	3767.41
706.602	3642.48
706.79	3763.31
706.979	3662.96
707.167	3730.55
707.355	3568.76
707.543	3587.19
707.731	3699.83
707.919	3742.83
708.107	3648.63
708.296	3716.21
708.484	3566.71
708.672	3722.35
708.86	3787.89
709.048	3667.06
709.236	3538.04
709.424	3599.48
709.612	3605.62
709.8	3542.13
709.988	3574.9
710.176	3648.63
710.364	3497.08
710.551	3595.38
710.739	3540.08
710.927	3544.18
711.115	3640.44
711.303	3388.53
711.491	3564.66
711.679	3490.93
711.866	3574.9
712.054	3628.15
712.242	3495.03
712.43	3597.43
712.617	3511.41
712.805	3515.51
712.993	3394.68
713.181	3488.89
713.368	3509.37
713.556	3431.54
713.744	3394.68
713.931	3562.61
714.119	3394.68
714.306	3486.84
714.494	3413.11
714.682	3517.56
714.869	3404.92
715.057	3509.37
715.244	3464.31
715.432	3437.69
715.619	3402.87
715.807	3470.45
715.994	3445.88
716.182	3157.11
716.369	3349.62
716.556	3425.4
716.744	3423.35
716.931	3329.14
717.119	3380.34
717.306	3284.09
717.493	3392.63
717.681	3333.24
717.868	3255.42
718.055	3345.53
718.242	3282.04
718.43	3337.34
718.617	3308.66
718.804	3269.75
718.991	3296.38
719.179	3339.38
719.366	3216.51
719.553	3331.19
719.74	3179.64
719.927	3357.82
720.114	3316.86
720.301	3263.61
720.488	3306.62
720.676	3273.85
720.863	3191.93
721.05	3224.7
721.237	3284.09
721.424	3273.85
721.611	3234.94
721.798	3196.03
721.985	3218.55
722.172	3177.59
722.358	3230.84
722.545	3228.79
722.732	3216.51
722.919	3230.84
723.106	3130.49
723.293	3337.34
723.48	3122.3
723.667	3107.96
723.853	3290.23
724.04	3163.26
724.227	3138.68
724.414	3044.48
724.6	3107.96
724.787	3095.68
724.974	3351.67
725.161	2978.94
725.347	3136.63
725.534	3136.63
725.72	3103.87
725.907	3134.59
726.094	3200.12
726.28	3146.87
726.467	2987.13
726.653	3083.39
726.84	3208.31
727.027	3163.26
727.213	3091.58
727.4	3304.57
727.586	3073.15
727.773	3069.05
727.959	3038.33
728.145	3075.2
728.332	3077.24
728.518	3048.57
728.705	3169.4
728.891	3032.19
729.077	2974.85
729.264	3067
729.45	2991.23
729.636	3116.16
729.823	3050.62
730.009	3052.67
730.195	3017.85
730.382	3079.29
730.568	2933.89
730.754	3050.62
730.94	3003.52
731.126	3116.16
731.313	3001.47
731.499	2964.61
731.685	2954.37
731.871	3007.61
732.057	2894.97
732.243	3075.2
732.429	2935.93
732.615	2927.74
732.801	3056.76
732.987	3046.52
733.173	2933.89
733.359	3073.15
733.545	2970.75
733.731	2935.93
733.917	2907.26
734.103	2954.37
734.289	3071.1
734.475	2899.07
734.661	2952.32
734.847	2847.87
735.033	2907.26
735.219	2894.97
735.404	2923.65
735.59	2845.82
735.776	2727.04
735.962	2987.13
736.148	2915.45
736.333	2903.17
736.519	3056.76
736.705	2845.82
736.89	2946.17
737.076	2956.41
737.262	2813.06
737.447	2960.51
737.633	2753.66
737.819	2862.21
738.004	2827.39
738.19	2837.63
738.375	2835.58
738.561	2741.38
738.747	2819.2
738.932	2802.82
739.118	2849.92
739.303	2778.24
739.489	2851.97
739.674	2780.29
739.859	2761.86
740.045	2798.72
740.23	2765.95
740.416	2733.18
740.601	2722.95
740.786	2808.96
740.972	2667.65
741.157	2831.49
741.342	2565.25
741.528	2710.66
741.713	2632.83
741.898	2577.54
742.084	2634.88
742.269	2686.08
742.454	2692.23
742.639	2669.7
742.824	2679.94
743.01	2673.79
743.195	2598.02
743.38	2493.57
743.565	2440.33
743.75	2657.41
743.935	2620.55
744.12	2651.27
744.305	2591.88
744.49	2573.44
744.675	2540.68
744.86	2520.2
745.045	2464.9
745.23	2534.53
745.415	2532.48
745.6	2378.89
745.785	2403.46
745.97	2370.69
746.155	2389.13
746.34	2356.36
746.525	2415.75
746.71	2419.85
746.895	2393.22
747.079	2278.54
747.264	2444.42
747.449	2239.62
747.634	2221.19
747.819	2294.92
748.003	2223.24
748.188	2280.58
748.373	2309.26
748.557	2327.69
748.742	2278.54
748.927	2178.19
749.111	2309.26
749.296	2253.96
749.481	2227.34
749.665	2188.43
749.85	2192.52
750.034	2143.37
750.219	2204.81
750.404	2020.49
750.588	2083.98
750.773	2063.5
750.957	2088.07
751.141	2057.36
751.326	2063.5
751.51	2040.97
751.695	1979.53
751.879	1959.05
752.064	2153.61
752.248	1926.29
752.432	2000.01
752.617	1895.57
752.801	2004.11
752.985	1889.42
753.17	1866.89
753.354	1916.05
753.538	1924.24
753.722	1805.46
753.907	1739.92
754.091	1944.72
754.275	1830.03
754.459	1766.54
754.643	1899.66
754.828	1842.32
755.012	1776.78
755.196	1619.09
755.38	1737.87
755.564	1721.49
755.748	1737.87
755.932	1793.17
756.116	1717.39
756.3	1643.67
756.484	1715.34
756.668	1686.67
756.852	1553.55
757.036	1752.21
757.22	1578.13
757.404	1561.75
757.588	1651.86
757.772	1660.05
757.956	1584.27
758.14	1592.47
758.323	1649.81
758.507	1561.75
758.691	1596.56
758.875	1520.79
759.059	1586.32
759.242	1571.99
759.426	1539.22
759.61	1547.41
759.794	1449.11
759.977	1512.6
760.161	1533.08
760.345	1469.59
760.528	1459.35
760.712	1479.83
760.895	1399.96
761.079	1449.11
761.263	1369.24
761.446	1330.33
761.63	1459.35
761.813	1365.14
761.997	1369.24
762.18	1418.39
762.364	1412.25
762.547	1377.43
762.731	1326.23
762.914	1332.37
763.098	1240.22
763.281	1315.99
763.464	1412.25
763.648	1293.46
763.831	1393.81
764.015	1293.46
764.198	1344.66
764.381	1270.94
764.564	1406.1
764.748	1307.8
764.931	1293.46
765.114	1326.23
765.297	1297.56
765.481	1221.78
765.664	1227.93
765.847	1268.89
766.03	1275.03
766.213	1240.22
766.397	1129.63
766.58	1191.06
766.763	1248.41
766.946	1205.4
767.129	1207.45
767.312	1258.65
767.495	1219.74
767.678	1182.87
767.861	1178.78
768.044	1189.02
768.227	1277.08
768.41	1217.69
768.593	1207.45
768.776	1236.12
768.959	1160.34
769.142	1062.04
769.324	1094.81
769.507	1211.54
769.69	1049.75
769.873	1094.81
770.056	1309.85
770.239	1176.73
770.421	1111.19
770.604	1168.54
770.787	1152.15
770.97	1113.24
771.152	1006.75
771.335	1123.48
771.518	1103
771.7	1023.13
771.883	1146.01
772.066	1033.37
772.248	1062.04
772.431	1053.85
772.613	1076.38
772.796	1062.04
772.978	1074.33
773.161	953.5
773.343	969.88
773.526	980.12
773.708	959.64
773.891	1014.94
774.073	990.36
774.256	998.56
774.438	965.79
774.621	855.2
774.803	1027.23
774.985	1031.32
775.168	978.08
775.35	941.21
775.532	973.98
775.715	873.63
775.897	922.78
776.079	806.05
776.261	939.16
776.444	894.11
776.626	898.2
776.808	914.59
776.99	853.15
777.173	924.83
777.355	908.44
777.537	804
777.719	806.05
777.901	797.85
778.083	847.01
778.265	871.58
778.447	867.49
778.629	826.53
778.811	883.87
778.993	775.33
779.175	699.55
779.357	777.37
779.539	855.2
779.721	783.52
779.903	836.77
780.085	765.09
780.267	814.24
780.449	736.42
780.631	834.72
780.812	738.46
780.994	783.52
781.176	705.7
781.358	720.03
781.54	687.26
781.721	756.9
781.903	701.6
782.085	674.98
782.267	707.74
782.448	779.42
782.63	652.45
782.812	717.98
782.993	666.78
783.175	650.4
783.357	527.52
783.538	695.46
783.72	629.92
783.901	586.91
784.083	562.34
784.264	664.74
784.446	679.07
784.627	603.3
784.809	507.04
784.99	654.5
785.172	584.87
785.353	568.48
785.535	580.77
785.716	605.35
785.897	638.11
786.079	623.78
786.26	519.33
786.441	552.1
786.623	568.48
786.804	461.99
786.985	488.61
787.167	509.09
787.348	492.71
787.529	601.25
787.71	605.35
787.891	519.33
788.073	515.23
788.254	507.04
788.435	494.76
788.616	484.52
788.797	535.71
788.978	451.75
789.159	527.52
789.34	496.8
789.522	500.9
789.703	418.98
789.884	421.03
790.065	507.04
790.246	449.7
790.427	488.61
790.607	476.32
790.788	527.52
790.969	445.6
791.15	498.85
791.331	464.04
791.512	457.89
791.693	392.36
791.874	492.71
792.054	461.99
792.235	418.98
792.416	404.64
792.597	453.8
792.778	363.69
792.958	509.09
793.139	400.55
793.32	449.7
793.5	382.12
793.681	423.08
793.862	464.04
794.042	453.8
794.223	378.02
794.404	427.17
794.584	402.6
794.765	457.89
794.945	361.64
795.126	416.93
795.306	357.54
795.487	361.64
795.667	427.17
795.848	416.93
796.028	363.69
796.209	412.84
796.389	318.63
796.57	320.68
796.75	330.92
796.93	375.97
797.111	265.38
797.291	351.4
797.471	341.16
797.652	308.39
797.832	324.77
798.012	371.88
798.192	404.64
798.373	353.45
798.553	316.58
798.733	365.73
798.913	400.55
799.093	292.01
799.274	332.97
799.454	361.64
799.634	412.84
799.814	347.3
799.994	367.78
800.174	335.01
800.354	339.11
800.534	324.77
800.714	330.92
800.894	369.83
801.074	304.29
801.254	273.57
801.434	337.06
801.614	343.21
801.794	232.62
801.974	586.91
802.154	314.53
802.334	343.21
802.514	314.53
802.693	318.63
802.873	326.82
803.053	345.25
803.233	304.29
803.413	283.81
803.592	312.49
803.772	249
803.952	359.59
804.131	306.34
804.311	363.69
804.491	265.38
804.67	277.67
804.85	269.48
805.03	242.85
805.209	255.14
805.389	220.33
805.568	238.76
805.748	226.47
805.928	253.09
806.107	283.81
806.287	259.24
806.466	253.09
806.646	320.68
806.825	255.14
807.004	193.7
807.184	318.63
807.363	212.14
807.543	314.53
807.722	324.77
807.901	335.01
808.081	236.71
808.26	263.33
808.439	269.48
808.619	216.23
808.798	269.48
808.977	214.18
809.156	203.94
809.336	330.92
809.515	253.09
809.694	263.33
809.873	234.66
810.052	218.28
810.231	210.09
810.411	173.22
810.59	216.23
810.769	238.76
810.948	246.95
811.127	208.04
811.306	251.05
811.485	232.62
811.664	273.57
811.843	306.34
812.022	199.85
812.201	156.84
812.38	259.24
812.559	193.7
812.737	275.62
812.916	208.04
813.095	269.48
813.274	244.9
813.453	195.75
813.632	187.56
813.811	230.57
813.989	156.84
814.168	259.24
814.347	214.18
814.526	222.38
814.704	236.71
814.883	277.67
815.062	70.83
815.24	269.48
815.419	134.31
815.598	195.75
815.776	214.18
815.955	242.85
816.133	267.43
816.312	169.13
816.49	181.42
816.669	197.8
816.847	183.46
817.026	226.47
817.204	251.05
817.383	246.95
817.561	89.26
817.74	244.9
817.918	238.76
818.097	136.36
818.275	160.94
818.453	165.03
818.632	167.08
818.81	191.66
818.988	146.6
819.167	150.7
819.345	169.13
819.523	210.09
819.701	126.12
819.879	191.66
820.058	146.6
820.236	218.28
820.414	167.08
820.592	162.98
820.77	81.07
820.948	140.46
821.127	226.47
821.305	156.84
821.483	117.93
821.661	216.23
821.839	105.64
822.017	99.5
822.195	191.66
822.373	179.37
822.551	105.64
822.729	208.04
822.907	173.22
823.085	142.5
823.262	142.5
823.44	148.65
823.618	191.66
823.796	173.22
823.974	167.08
824.152	140.46
824.329	122.02
824.507	152.74
824.685	150.7
824.863	124.07
825.04	185.51
825.218	126.12
825.396	97.45
825.574	142.5
825.751	124.07
825.929	111.78
826.107	115.88
826.284	132.26
826.462	201.9
826.639	109.74
826.817	162.98
826.994	115.88
827.172	85.16
827.349	216.23
827.527	132.26
827.704	181.42
827.882	119.98
828.059	95.4
828.237	72.87
828.414	107.69
828.591	150.7
828.769	144.55
828.946	134.31
829.124	134.31
829.301	119.98
829.478	128.17
829.655	107.69
829.833	169.13
830.01	97.45
830.187	62.63
830.364	146.6
830.542	119.98
830.719	99.5
830.896	224.42
831.073	81.07
831.25	175.27
831.427	124.07
831.604	119.98
831.782	109.74
831.959	105.64
832.136	87.21
832.313	130.22
832.49	60.59
832.667	-0.85
832.844	72.87
833.021	136.36
833.198	117.93
833.374	85.16
833.551	119.98
833.728	99.5
833.905	87.21
834.082	187.56
834.259	154.79
834.436	101.55
834.612	109.74
834.789	62.63
834.966	93.35
835.143	150.7
835.319	81.07
835.496	95.4
835.673	150.7
835.85	62.63
836.026	128.17
836.203	105.64
836.38	74.92
836.556	132.26
836.733	68.78
836.909	68.78
837.086	81.07
837.262	91.31
837.439	142.5
837.616	58.54
837.792	95.4
837.968	40.11
838.145	68.78
838.321	130.22
838.498	109.74
838.674	60.59
838.851	177.32
839.027	76.97
839.203	111.78
839.38	138.41
839.556	91.31
839.732	85.16
839.909	76.97
840.085	111.78
840.261	87.21
840.437	115.88
840.614	62.63
840.79	89.26
840.966	76.97
841.142	79.02
841.318	81.07
841.494	117.93
841.671	113.83
841.847	56.49
842.023	46.25
842.199	83.11
842.375	-0.85
842.551	62.63
842.727	-41.81
842.903	97.45
843.079	95.4
843.255	134.31
843.431	40.11
843.607	97.45
843.783	70.83
843.959	130.22
844.134	76.97
844.31	85.16
844.486	89.26
844.662	-23.38
844.838	38.06
845.013	42.15
845.189	134.31
845.365	72.87
845.541	89.26
845.716	74.92
845.892	46.25
846.068	91.31
846.244	17.58
846.419	68.78
846.595	3.24
846.77	29.87
846.946	74.92
847.122	60.59
847.297	66.73
847.473	81.07
847.648	-15.19
847.824	140.46
847.999	68.78
848.175	-37.72
848.35	79.02
848.526	103.59
848.701	81.07
848.876	81.07
849.052	81.07
849.227	113.83
849.403	29.87
849.578	140.46
849.753	62.63
849.929	81.07
850.104	31.91
850.279	-7
850.454	132.26
850.63	48.3
850.805	105.64
850.98	105.64
851.155	62.63
851.33	60.59
851.505	-17.24
851.681	93.35
851.856	5.29
852.031	46.25
852.206	54.44
852.381	70.83
852.556	64.68
852.731	62.63
852.906	72.87
853.081	62.63
853.256	38.06
853.431	91.31
853.606	-15.19
853.781	42.15
853.956	46.25
854.131	111.78
854.305	42.15
854.48	50.35
854.655	85.16
854.83	50.35
855.005	60.59
855.18	107.69
855.354	5.29
855.529	152.74
855.704	13.48
855.879	40.11
856.053	-9.05
856.228	42.15
856.403	29.87
856.577	19.63
856.752	38.06
856.926	-4.95
857.101	58.54
857.276	31.91
857.45	27.82
857.625	115.88
857.799	-9.05
857.974	3.24
858.148	95.4
858.323	124.07
858.497	5.29
858.672	-19.29
858.846	-70.48
859.02	52.39
859.195	48.3
859.369	101.55
859.543	91.31
859.718	-9.05
859.892	-9.05
860.066	68.78
860.241	87.21
860.415	72.87
860.589	29.87
860.763	29.87
860.938	66.73
861.112	64.68
861.286	33.96
861.46	31.91
861.634	68.78
861.808	46.25
861.982	-0.85
862.157	3.24
862.331	42.15
862.505	21.67
862.679	46.25
862.853	76.97
863.027	-7
863.201	89.26
863.375	76.97
863.549	46.25
863.722	-13.14
863.896	91.31
864.07	42.15
864.244	-33.62
864.418	27.82
864.592	25.77
864.766	79.02
864.939	40.11
865.113	46.25
865.287	9.39
865.461	56.49
865.634	105.64
865.808	15.53
865.982	33.96
866.156	56.49
866.329	40.11
866.503	48.3
866.676	64.68
866.85	11.43
867.024	68.78
867.197	64.68
867.371	29.87
867.544	19.63
867.718	9.39
867.891	27.82
868.065	19.63
868.238	52.39
868.412	31.91
868.585	21.67
868.759	19.63
868.932	17.58
869.105	79.02
869.279	48.3
869.452	64.68
869.625	79.02
869.799	-27.48
869.972	-47.96
870.145	9.39
870.319	117.93
870.492	-0.85
870.665	52.39
870.838	-7
871.011	-74.58
871.185	-17.24
871.358	21.67
871.531	62.63
871.704	-27.48
871.877	40.11
872.05	27.82
872.223	3.24
872.396	91.31
872.569	13.48
872.742	46.25
872.915	122.02
873.088	-7
873.261	64.68
873.434	-29.52
873.607	23.72
873.78	33.96
873.953	56.49
874.126	-35.67
874.299	76.97
874.471	15.53
874.644	50.35
874.817	7.34
874.99	64.68
875.163	21.67
875.335	60.59
875.508	-11.09
875.681	42.15
875.853	11.43
876.026	56.49
876.199	21.67
876.371	13.48
876.544	1.19
876.717	-33.62
876.889	95.4
877.062	42.15
877.234	9.39
877.407	-25.43
877.579	46.25
877.752	5.29
877.924	-15.19
878.097	33.96
878.269	3.24
878.442	42.15
878.614	44.2
878.786	-27.48
878.959	36.01
879.131	-29.52
879.303	62.63
879.476	7.34
879.648	85.16
879.82	46.25
879.993	62.63
880.165	58.54
880.337	7.34
880.509	85.16
880.681	21.67
880.854	29.87
881.026	58.54
881.198	87.21
881.37	72.87
881.542	44.2
881.714	-4.95
881.886	17.58
882.058	33.96
882.23	48.3
882.402	52.39
882.574	15.53
882.746	70.83
882.918	27.82
883.09	50.35
883.262	33.96
883.434	38.06
883.606	85.16
883.778	5.29
883.95	-9.05
884.122	156.84
884.293	-2.9
884.465	103.59
884.637	9.39
884.809	74.92
884.98	40.11
885.152	-2.9
885.324	-7
885.496	-43.86
885.667	21.67
885.839	48.3
886.011	42.15
886.182	42.15
886.354	29.87
886.525	36.01
886.697	13.48
886.869	44.2
887.04	-58.2
887.212	33.96
887.383	50.35
887.555	79.02
887.726	56.49
887.897	-29.52
888.069	7.34
888.24	31.91
888.412	33.96
888.583	85.16
888.754	-15.19
888.926	7.34
889.097	-9.05
889.268	13.48
889.44	-21.33
889.611	9.39
889.782	-39.76
889.953	31.91
890.125	72.87
890.296	-33.62
890.467	-13.14
890.638	13.48
890.809	33.96
890.98	52.39
891.151	15.53
891.323	-17.24
891.494	-29.52
891.665	-7
891.836	87.21
892.007	13.48
892.178	1.19
892.349	-13.14
892.52	-27.48
892.691	46.25
892.862	107.69
893.032	-21.33
893.203	40.11
893.374	52.39
893.545	13.48
893.716	40.11
893.887	70.83
894.057	48.3
894.228	40.11
894.399	-47.96
894.57	44.2
894.74	17.58
894.911	60.59
895.082	46.25
895.253	58.54
895.423	74.92
895.594	25.77
895.764	46.25
895.935	-9.05
896.106	56.49
896.276	3.24
896.447	-0.85
896.617	-35.67
896.788	19.63
896.958	44.2
897.129	60.59
897.299	-13.14
897.47	60.59
897.64	-13.14
897.81	33.96
897.981	29.87
898.151	3.24
898.322	-54.1
898.492	52.39
898.662	-4.95
898.832	54.44
899.003	29.87
899.173	36.01
899.343	42.15
899.513	-4.95
