Data from USB4F104151__205__11-10-15-758.txt Node

Date: Wed Mar 12 11:10:15 EDT 2025
User: louis
Spectrometer: USB4F10415
Trigger mode: 4
Integration Time (sec): 2.000000E-2
Scans to average: 1
Electric dark correction enabled: true
Nonlinearity correction enabled: false
Boxcar width: 0
XAxis mode: Wavelengths
Number of Pixels in Spectrum: 3648
>>>>>Begin Spectral Data<<<<<
178.204	-28.33
178.424	-28.33
178.644	-28.33
178.864	-77.48
179.084	-89.77
179.304	8.53
179.524	2.39
179.744	-32.43
179.964	-24.23
180.184	47.44
180.404	33.11
180.624	-3.75
180.844	-46.76
181.064	-79.53
181.283	39.25
181.503	18.77
181.723	37.2
181.943	-22.19
182.163	-50.86
182.383	61.78
182.602	-3.75
182.822	-11.95
183.042	4.44
183.262	-22.19
183.482	82.26
183.701	-1.71
183.921	-46.76
184.141	-22.19
184.361	88.4
184.58	-7.85
184.8	-69.29
185.02	-32.43
185.239	98.64
185.459	-61.1
185.679	20.82
185.898	-9.9
186.118	8.53
186.338	115.03
186.557	45.4
186.777	22.87
186.997	65.88
187.216	-34.47
187.436	8.53
187.655	-9.9
187.875	37.2
188.095	-13.99
188.314	63.83
188.534	31.06
188.753	-67.24
188.973	-1.71
189.192	69.97
189.412	-9.9
189.631	-22.19
189.851	-67.24
190.07	24.92
190.29	-69.29
190.509	-7.85
190.729	-77.48
190.948	92.5
191.168	35.16
191.387	29.01
191.607	-32.43
191.826	-28.33
192.045	-9.9
192.265	43.35
192.484	53.59
192.704	16.73
192.923	-16.04
193.142	26.96
193.362	53.59
193.581	55.64
193.8	16.73
194.02	16.73
194.239	-32.43
194.458	41.3
194.678	4.44
194.897	84.31
195.116	18.77
195.335	-7.85
195.555	8.53
195.774	-40.62
195.993	49.49
196.212	-20.14
196.432	41.3
196.651	-28.33
196.87	55.64
197.089	0.34
197.308	0.34
197.528	41.3
197.747	-67.24
197.966	22.87
198.185	-16.04
198.404	41.3
198.623	29.01
198.842	53.59
199.062	26.96
199.281	41.3
199.5	-11.95
199.719	22.87
199.938	29.01
200.157	67.92
200.376	8.53
200.595	43.35
200.814	-3.75
201.033	12.63
201.252	86.36
201.471	6.49
201.69	39.25
201.909	-28.33
202.128	-30.38
202.347	24.92
202.566	14.68
202.785	-7.85
203.004	-52.91
203.223	55.64
203.442	-40.62
203.661	29.01
203.879	47.44
204.098	12.63
204.317	18.77
204.536	72.02
204.755	20.82
204.974	-38.57
205.193	-63.15
205.411	55.64
205.63	-16.04
205.849	-3.75
206.068	33.11
206.287	67.92
206.505	-7.85
206.724	-20.14
206.943	14.68
207.162	-18.09
207.381	0.34
207.599	16.73
207.818	-3.75
208.037	-1.71
208.255	49.49
208.474	-44.71
208.693	-16.04
208.911	18.77
209.13	-73.39
209.349	20.82
209.567	-40.62
209.786	43.35
210.005	-36.52
210.223	-13.99
210.442	2.39
210.661	-24.23
210.879	-7.85
211.098	-40.62
211.316	-54.95
211.535	35.16
211.753	0.34
211.972	-20.14
212.191	-18.09
212.409	-11.95
212.628	-30.38
212.846	-46.76
213.065	53.59
213.283	10.58
213.502	41.3
213.72	-65.19
213.938	49.49
214.157	29.01
214.375	0.34
214.594	-1.71
214.812	-13.99
215.031	20.82
215.249	14.68
215.467	43.35
215.686	-3.75
215.904	59.73
216.122	65.88
216.341	86.36
216.559	16.73
216.778	2.39
216.996	55.64
217.214	-7.85
217.432	0.34
217.651	16.73
217.869	-32.43
218.087	0.34
218.306	6.49
218.524	90.45
218.742	8.53
218.96	39.25
219.179	22.87
219.397	22.87
219.615	49.49
219.833	10.58
220.051	26.96
220.27	-30.38
220.488	86.36
220.706	88.4
220.924	41.3
221.142	8.53
221.36	74.07
221.578	33.11
221.796	45.4
222.015	33.11
222.233	6.49
222.451	16.73
222.669	-1.71
222.887	47.44
223.105	12.63
223.323	-1.71
223.541	45.4
223.759	61.78
223.977	-13.99
224.195	33.11
224.413	45.4
224.631	37.2
224.849	-16.04
225.067	-5.8
225.285	-30.38
225.503	-13.99
225.721	10.58
225.939	-30.38
226.157	-28.33
226.375	2.39
226.592	-75.43
226.81	-38.57
227.028	-9.9
227.246	59.73
227.464	22.87
227.682	57.68
227.9	-20.14
228.117	-36.52
228.335	-67.24
228.553	51.54
228.771	90.45
228.989	-54.95
229.206	29.01
229.424	-20.14
229.642	-16.04
229.86	8.53
230.077	59.73
230.295	37.2
230.513	-24.23
230.731	57.68
230.948	-32.43
231.166	-7.85
231.384	-26.28
231.601	6.49
231.819	94.55
232.037	-34.47
232.254	24.92
232.472	33.11
232.689	-11.95
232.907	24.92
233.125	33.11
233.342	-63.15
233.56	-77.48
233.777	6.49
233.995	-16.04
234.213	31.06
234.43	-57
234.648	-67.24
234.865	-11.95
235.083	-44.71
235.3	26.96
235.518	-5.8
235.735	-24.23
235.953	22.87
236.17	-16.04
236.388	2.39
236.605	41.3
236.822	61.78
237.04	-7.85
237.257	74.07
237.475	57.68
237.692	-3.75
237.909	10.58
238.127	-32.43
238.344	-9.9
238.562	-5.8
238.779	8.53
238.996	-89.77
239.214	26.96
239.431	-9.9
239.648	-7.85
239.865	22.87
240.083	-9.9
240.3	20.82
240.517	45.4
240.735	14.68
240.952	51.54
241.169	-30.38
241.386	96.6
241.603	20.82
241.821	-30.38
242.038	47.44
242.255	-46.76
242.472	0.34
242.689	8.53
242.907	112.98
243.124	53.59
243.341	35.16
243.558	-46.76
243.775	-30.38
243.992	-1.71
244.209	16.73
244.426	10.58
244.643	80.21
244.86	-3.75
245.078	35.16
245.295	22.87
245.512	31.06
245.729	-9.9
245.946	-36.52
246.163	-36.52
246.38	115.03
246.597	-3.75
246.814	63.83
247.031	-3.75
247.248	18.77
247.464	94.55
247.681	-11.95
247.898	65.88
248.115	41.3
248.332	-22.19
248.549	41.3
248.766	100.69
248.983	-11.95
249.2	-28.33
249.417	18.77
249.633	-124.58
249.85	-40.62
250.067	20.82
250.284	55.64
250.501	39.25
250.717	-5.8
250.934	-32.43
251.151	69.97
251.368	24.92
251.585	67.92
251.801	55.64
252.018	53.59
252.235	37.2
252.451	45.4
252.668	55.64
252.885	-42.67
253.102	16.73
253.318	-24.23
253.535	20.82
253.752	-5.8
253.968	74.07
254.185	41.3
254.401	6.49
254.618	14.68
254.835	31.06
255.051	29.01
255.268	-28.33
255.484	33.11
255.701	84.31
255.917	33.11
256.134	0.34
256.351	-24.23
256.567	-22.19
256.784	24.92
257	-5.8
257.217	112.98
257.433	-50.86
257.65	41.3
257.866	14.68
258.082	-9.9
258.299	-13.99
258.515	22.87
258.732	-9.9
258.948	61.78
259.165	-7.85
259.381	74.07
259.597	26.96
259.814	-13.99
260.03	-7.85
260.246	2.39
260.463	29.01
260.679	18.77
260.895	10.58
261.112	104.79
261.328	22.87
261.544	4.44
261.761	47.44
261.977	-26.28
262.193	-44.71
262.409	98.64
262.626	8.53
262.842	6.49
263.058	16.73
263.274	10.58
263.49	-11.95
263.707	12.63
263.923	24.92
264.139	-110.25
264.355	47.44
264.571	37.2
264.787	57.68
265.004	-22.19
265.22	43.35
265.436	-20.14
265.652	-18.09
265.868	31.06
266.084	12.63
266.3	80.21
266.516	20.82
266.732	63.83
266.948	33.11
267.164	6.49
267.38	-5.8
267.596	-7.85
267.812	102.74
268.028	-7.85
268.244	16.73
268.46	-7.85
268.676	-89.77
268.892	76.12
269.108	-3.75
269.324	-9.9
269.54	51.54
269.756	0.34
269.972	-7.85
270.188	20.82
270.403	-1.71
270.619	94.55
270.835	-1.71
271.051	18.77
271.267	-38.57
271.483	-91.82
271.698	18.77
271.914	-22.19
272.13	0.34
272.346	69.97
272.562	53.59
272.777	-3.75
272.993	-26.28
273.209	65.88
273.425	74.07
273.64	2.39
273.856	-3.75
274.072	29.01
274.287	12.63
274.503	4.44
274.719	43.35
274.934	49.49
275.15	31.06
275.366	0.34
275.581	-63.15
275.797	33.11
276.012	-24.23
276.228	-36.52
276.444	22.87
276.659	10.58
276.875	24.92
277.09	96.6
277.306	51.54
277.521	-16.04
277.737	47.44
277.952	-59.05
278.168	12.63
278.383	8.53
278.599	10.58
278.814	4.44
279.03	88.4
279.245	14.68
279.461	35.16
279.676	-20.14
279.892	-1.71
280.107	20.82
280.322	-42.67
280.538	-16.04
280.753	20.82
280.969	57.68
281.184	-3.75
281.399	41.3
281.615	-9.9
281.83	67.92
282.045	4.44
282.26	-1.71
282.476	22.87
282.691	-16.04
282.906	63.83
283.122	53.59
283.337	-24.23
283.552	45.4
283.767	-7.85
283.983	-36.52
284.198	18.77
284.413	39.25
284.628	-40.62
284.843	33.11
285.058	-13.99
285.274	35.16
285.489	6.49
285.704	33.11
285.919	-3.75
286.134	20.82
286.349	31.06
286.564	69.97
286.779	55.64
286.995	63.83
287.21	6.49
287.425	4.44
287.64	31.06
287.855	-69.29
288.07	4.44
288.285	14.68
288.5	4.44
288.715	33.11
288.93	6.49
289.145	-30.38
289.36	51.54
289.575	-61.1
289.79	94.55
290.004	47.44
290.219	33.11
290.434	-22.19
290.649	31.06
290.864	35.16
291.079	6.49
291.294	78.16
291.509	47.44
291.724	88.4
291.938	29.01
292.153	14.68
292.368	8.53
292.583	-20.14
292.798	18.77
293.012	33.11
293.227	18.77
293.442	-59.05
293.657	-9.9
293.871	41.3
294.086	-11.95
294.301	47.44
294.516	-7.85
294.73	20.82
294.945	12.63
295.16	67.92
295.374	74.07
295.589	80.21
295.804	59.73
296.018	55.64
296.233	18.77
296.447	24.92
296.662	20.82
296.877	57.68
297.091	22.87
297.306	-22.19
297.52	43.35
297.735	82.26
297.949	35.16
298.164	-5.8
298.378	-16.04
298.593	-13.99
298.807	-61.1
299.022	14.68
299.236	51.54
299.451	47.44
299.665	-22.19
299.88	31.06
300.094	-18.09
300.309	35.16
300.523	18.77
300.737	-24.23
300.952	86.36
301.166	-3.75
301.381	-57
301.595	33.11
301.809	51.54
302.024	4.44
302.238	-34.47
302.452	61.78
302.667	-52.91
302.881	6.49
303.095	-5.8
303.309	55.64
303.524	4.44
303.738	-30.38
303.952	4.44
304.166	43.35
304.381	-50.86
304.595	41.3
304.809	12.63
305.023	51.54
305.237	53.59
305.452	74.07
305.666	57.68
305.88	29.01
306.094	31.06
306.308	-24.23
306.522	57.68
306.736	-7.85
306.95	-16.04
307.164	61.78
307.379	12.63
307.593	-46.76
307.807	41.3
308.021	-38.57
308.235	18.77
308.449	29.01
308.663	74.07
308.877	65.88
309.091	39.25
309.305	12.63
309.519	-32.43
309.733	41.3
309.947	-16.04
310.161	164.18
310.374	29.01
310.588	45.4
310.802	-28.33
311.016	-22.19
311.23	29.01
311.444	-38.57
311.658	39.25
311.872	57.68
312.085	74.07
312.299	12.63
312.513	-28.33
312.727	53.59
312.941	18.77
313.154	33.11
313.368	18.77
313.582	8.53
313.796	0.34
314.009	10.58
314.223	8.53
314.437	43.35
314.651	22.87
314.864	55.64
315.078	-40.62
315.292	29.01
315.505	31.06
315.719	92.5
315.933	-30.38
316.146	49.49
316.36	-7.85
316.573	37.2
316.787	2.39
317.001	-30.38
317.214	55.64
317.428	12.63
317.641	41.3
317.855	41.3
318.068	39.25
318.282	78.16
318.495	127.32
318.709	59.73
318.922	12.63
319.136	57.68
319.349	8.53
319.563	22.87
319.776	0.34
319.99	-36.52
320.203	35.16
320.417	55.64
320.63	18.77
320.843	41.3
321.057	35.16
321.27	18.77
321.483	24.92
321.697	-3.75
321.91	35.16
322.124	100.69
322.337	6.49
322.55	16.73
322.763	14.68
322.977	-22.19
323.19	10.58
323.403	35.16
323.617	-40.62
323.83	43.35
324.043	2.39
324.256	80.21
324.469	8.53
324.683	-3.75
324.896	-34.47
325.109	33.11
325.322	39.25
325.535	57.68
325.748	41.3
325.962	16.73
326.175	8.53
326.388	0.34
326.601	39.25
326.814	-5.8
327.027	45.4
327.24	33.11
327.453	-1.71
327.666	59.73
327.879	59.73
328.092	-5.8
328.305	59.73
328.518	-24.23
328.731	49.49
328.944	20.82
329.157	45.4
329.37	16.73
329.583	110.93
329.796	155.99
330.009	33.11
330.222	78.16
330.435	20.82
330.648	-16.04
330.861	-75.43
331.073	61.78
331.286	-11.95
331.499	-1.71
331.712	-16.04
331.925	22.87
332.138	12.63
332.35	-16.04
332.563	8.53
332.776	-7.85
332.989	29.01
333.202	29.01
333.414	-36.52
333.627	53.59
333.84	-28.33
334.053	53.59
334.265	0.34
334.478	33.11
334.691	78.16
334.903	16.73
335.116	-52.91
335.329	84.31
335.541	57.68
335.754	6.49
335.966	16.73
336.179	12.63
336.392	-7.85
336.604	29.01
336.817	65.88
337.029	-5.8
337.242	39.25
337.454	100.69
337.667	-32.43
337.88	31.06
338.092	74.07
338.305	0.34
338.517	-24.23
338.729	-3.75
338.942	94.55
339.154	45.4
339.367	-20.14
339.579	63.83
339.792	51.54
340.004	-59.05
340.217	-32.43
340.429	26.96
340.641	72.02
340.854	41.3
341.066	37.2
341.278	22.87
341.491	86.36
341.703	6.49
341.915	51.54
342.128	57.68
342.34	24.92
342.552	14.68
342.764	88.4
342.977	57.68
343.189	-7.85
343.401	78.16
343.613	4.44
343.826	-1.71
344.038	22.87
344.25	-44.71
344.462	72.02
344.674	4.44
344.886	-24.23
345.099	10.58
345.311	-28.33
345.523	72.02
345.735	33.11
345.947	59.73
346.159	-1.71
346.371	102.74
346.583	18.77
346.795	67.92
347.007	-24.23
347.219	20.82
347.431	16.73
347.643	20.82
347.855	12.63
348.067	74.07
348.279	-20.14
348.491	57.68
348.703	39.25
348.915	59.73
349.127	-22.19
349.339	8.53
349.551	-7.85
349.763	51.54
349.975	53.59
350.187	84.31
350.399	74.07
350.61	39.25
350.822	49.49
351.034	94.55
351.246	31.06
351.458	67.92
351.669	49.49
351.881	26.96
352.093	-52.91
352.305	20.82
352.517	61.78
352.728	74.07
352.94	45.4
353.152	12.63
353.363	-40.62
353.575	12.63
353.787	153.94
353.999	10.58
354.21	59.73
354.422	47.44
354.633	26.96
354.845	24.92
355.057	31.06
355.268	26.96
355.48	12.63
355.692	61.78
355.903	59.73
356.115	82.26
356.326	-22.19
356.538	65.88
356.749	18.77
356.961	14.68
357.172	-1.71
357.384	-28.33
357.595	61.78
357.807	-28.33
358.018	117.08
358.23	33.11
358.441	0.34
358.653	57.68
358.864	39.25
359.075	-16.04
359.287	67.92
359.498	104.79
359.709	43.35
359.921	14.68
360.132	-7.85
360.344	45.4
360.555	24.92
360.766	-44.71
360.977	41.3
361.189	121.17
361.4	6.49
361.611	35.16
361.823	41.3
362.034	-20.14
362.245	41.3
362.456	18.77
362.667	69.97
362.879	88.4
363.09	-18.09
363.301	45.4
363.512	41.3
363.723	65.88
363.935	20.82
364.146	8.53
364.357	78.16
364.568	-38.57
364.779	12.63
364.99	-9.9
365.201	78.16
365.412	31.06
365.623	8.53
365.834	20.82
366.045	-5.8
366.256	67.92
366.467	88.4
366.678	86.36
366.889	-7.85
367.1	76.12
367.311	-13.99
367.522	22.87
367.733	69.97
367.944	76.12
368.155	-32.43
368.366	29.01
368.577	49.49
368.788	43.35
368.999	14.68
369.209	102.74
369.42	-1.71
369.631	127.32
369.842	4.44
370.053	-48.81
370.264	72.02
370.474	-24.23
370.685	14.68
370.896	-16.04
371.107	29.01
371.317	35.16
371.528	-11.95
371.739	61.78
371.95	86.36
372.16	4.44
372.371	41.3
372.582	80.21
372.792	55.64
373.003	-7.85
373.214	115.03
373.424	29.01
373.635	-54.95
373.846	51.54
374.056	82.26
374.267	65.88
374.477	51.54
374.688	-32.43
374.898	-16.04
375.109	-13.99
375.319	10.58
375.53	14.68
375.74	12.63
375.951	-24.23
376.161	53.59
376.372	57.68
376.582	53.59
376.793	35.16
377.003	61.78
377.214	102.74
377.424	45.4
377.635	41.3
377.845	31.06
378.055	53.59
378.266	51.54
378.476	49.49
378.686	53.59
378.897	37.2
379.107	-65.19
379.317	65.88
379.528	26.96
379.738	72.02
379.948	-18.09
380.158	74.07
380.369	10.58
380.579	110.93
380.789	-16.04
380.999	39.25
381.21	8.53
381.42	80.21
381.63	43.35
381.84	33.11
382.05	20.82
382.261	41.3
382.471	98.64
382.681	22.87
382.891	117.08
383.101	20.82
383.311	20.82
383.521	22.87
383.731	8.53
383.941	96.6
384.151	90.45
384.361	8.53
384.571	20.82
384.781	-9.9
384.991	61.78
385.201	119.12
385.411	33.11
385.621	24.92
385.831	18.77
386.041	53.59
386.251	57.68
386.461	29.01
386.671	43.35
386.881	102.74
387.091	18.77
387.301	0.34
387.511	-13.99
387.72	49.49
387.93	51.54
388.14	10.58
388.35	22.87
388.56	53.59
388.769	41.3
388.979	96.6
389.189	12.63
389.399	90.45
389.609	-13.99
389.818	123.22
390.028	31.06
390.238	47.44
390.447	24.92
390.657	88.4
390.867	80.21
391.076	61.78
391.286	98.64
391.496	47.44
391.705	47.44
391.915	55.64
392.125	57.68
392.334	43.35
392.544	84.31
392.753	88.4
392.963	45.4
393.172	16.73
393.382	45.4
393.591	112.98
393.801	-1.71
394.01	117.08
394.22	39.25
394.429	100.69
394.639	90.45
394.848	131.41
395.058	22.87
395.267	72.02
395.477	59.73
395.686	51.54
395.895	123.22
396.105	82.26
396.314	78.16
396.524	108.88
396.733	65.88
396.942	61.78
397.152	10.58
397.361	119.12
397.57	20.82
397.78	69.97
397.989	110.93
398.198	33.11
398.407	82.26
398.617	100.69
398.826	63.83
399.035	117.08
399.244	98.64
399.453	90.45
399.663	135.51
399.872	96.6
400.081	149.84
400.29	74.07
400.499	49.49
400.708	110.93
400.917	88.4
401.127	43.35
401.336	88.4
401.545	96.6
401.754	117.08
401.963	147.8
402.172	131.41
402.381	37.2
402.59	112.98
402.799	78.16
403.008	55.64
403.217	119.12
403.426	155.99
403.635	96.6
403.844	88.4
404.053	76.12
404.262	94.55
404.471	143.7
404.68	137.56
404.888	104.79
405.097	209.23
405.306	166.23
405.515	158.03
405.724	115.03
405.933	176.47
406.142	170.32
406.35	153.94
406.559	135.51
406.768	205.14
406.977	176.47
407.185	102.74
407.394	219.47
407.603	164.18
407.812	242
408.02	246.1
408.229	262.48
408.438	276.82
408.646	205.14
408.855	293.2
409.064	229.71
409.272	291.15
409.481	364.88
409.69	285.01
409.898	325.97
410.107	342.35
410.315	301.39
410.524	272.72
410.733	414.03
410.941	330.06
411.15	373.07
411.358	399.7
411.567	432.46
411.775	377.17
411.984	391.5
412.192	512.33
412.401	373.07
412.609	584.01
412.818	450.89
413.026	524.62
413.234	543.05
413.443	549.2
413.651	561.48
413.86	631.12
414.068	702.79
414.276	610.64
414.485	569.68
414.693	708.94
414.901	706.89
415.11	776.52
415.318	678.22
415.526	815.43
415.734	803.15
415.943	870.73
416.151	913.74
416.359	932.17
416.567	948.55
416.776	987.46
416.984	979.27
417.192	928.07
417.4	1022.28
417.608	1065.29
417.817	1128.77
418.025	1147.2
418.233	1288.51
418.441	1069.38
418.649	1233.22
418.857	1382.72
419.065	1333.57
419.273	1386.82
419.481	1448.26
419.689	1503.55
419.897	1663.29
420.105	1632.57
420.313	1689.92
420.521	1632.57
420.729	1792.31
420.937	1868.09
421.145	1835.32
421.353	1943.86
421.561	2105.65
421.769	2011.45
421.977	2142.52
422.185	2154.8
422.393	2296.11
422.601	2402.61
422.809	2560.3
423.017	2418.99
423.224	2554.16
423.432	2631.98
423.64	2699.56
423.848	3021.1
424.056	2681.13
424.263	3062.05
424.471	2976.04
424.679	3080.49
424.887	3297.57
425.094	3354.91
425.302	3332.39
425.51	3522.85
425.718	3649.82
425.925	3801.37
426.133	3809.56
426.341	3940.63
426.548	4198.68
426.756	4208.92
426.964	4362.51
427.171	4512.02
427.379	4622.61
427.586	4776.2
427.794	4940.04
428.001	5107.98
428.209	5312.77
428.417	5191.94
428.624	5650.69
428.832	5730.56
429.039	5605.63
429.247	5644.54
429.454	6088.95
429.662	6480.11
429.869	6111.48
430.076	6426.87
430.284	6394.1
430.491	6613.23
430.699	7084.27
430.906	7047.4
431.114	6963.44
431.321	7397.6
431.528	7618.79
431.736	8118.49
431.943	8472.79
432.15	8077.53
432.358	8224.98
432.565	8822.99
432.772	8650.96
432.979	8810.7
433.187	9195.72
433.394	9216.2
433.601	10006.72
433.808	9887.93
434.016	9777.34
434.223	10338.49
434.43	10932.4
434.637	10535.09
434.844	11450.53
435.052	11557.03
435.259	11479.21
435.466	11563.17
435.673	11395.24
435.88	12380.31
436.087	13037.71
436.294	12863.63
436.501	12650.64
436.708	12771.47
436.915	13213.84
437.122	13844.61
437.329	13717.64
437.537	14385.27
437.743	14602.36
437.95	14516.34
438.157	15079.54
438.364	15779.94
438.571	15575.14
438.778	15603.82
438.985	16851.03
439.192	16410.71
439.399	16769.11
439.606	16443.48
439.813	17461.32
440.02	18647.1
440.227	18221.12
440.433	18001.99
440.64	18653.24
440.847	18677.82
441.054	19157.04
441.261	20398.11
441.467	20121.63
441.674	20482.08
441.881	21239.83
442.088	21039.12
442.294	21112.85
442.501	21358.61
442.708	22118.4
442.914	22990.84
443.121	23531.5
443.328	23246.83
443.534	24889.31
443.741	24068.07
443.948	23562.22
444.154	25622.48
444.361	25171.93
444.568	25450.45
444.774	25511.89
444.981	25718.73
445.187	26335.17
445.394	27625.39
445.6	27422.64
445.807	29861.77
446.013	28428.2
446.22	29161.37
446.426	30281.61
446.633	30259.08
446.839	31663.99
447.046	30220.17
447.252	31428.47
447.459	31936.37
447.665	31410.04
447.871	33427.29
448.078	34772.8
448.284	32823.14
448.491	33908.56
448.697	34674.5
448.903	35624.76
449.11	35579.7
449.316	34948.93
449.522	35630.9
449.728	36679.46
449.935	36697.89
450.141	36640.55
450.347	37816.08
450.553	36431.66
450.76	36708.13
450.966	37832.47
451.172	37711.64
451.378	38217.49
451.584	37771.03
451.791	38817.54
451.997	38684.42
452.203	38905.6
452.409	39106.3
452.615	38905.6
452.821	37095.2
453.027	37080.86
453.233	39114.5
453.44	37228.32
453.646	37717.78
453.852	38182.67
454.058	38487.82
454.264	37062.43
454.47	37635.86
454.676	36970.27
454.882	38145.81
455.088	34836.29
455.294	35620.66
455.5	35839.79
455.705	36452.14
455.911	34957.12
456.117	34023.25
456.323	33587.03
456.529	31915.89
456.735	33169.24
456.941	32540.52
457.147	31838.06
457.352	30885.76
457.558	30549.89
457.764	30439.3
457.97	30150.54
458.176	29116.31
458.381	29403.03
458.587	27658.16
458.793	28010.41
458.999	26286.02
459.204	28299.17
459.41	27645.87
459.616	25958.35
459.821	25851.85
460.027	25679.82
460.233	25079.77
460.438	23853.03
460.644	24254.44
460.85	22978.55
461.055	22984.69
461.261	22378.5
461.466	20703.26
461.672	20394.01
461.878	21929.99
462.083	20209.7
462.289	20154.4
462.494	19839.01
462.7	18815.03
462.905	18300.99
463.111	18866.23
463.316	19122.23
463.522	18620.47
463.727	18901.04
463.932	18663.48
464.138	18475.07
464.343	18735.16
464.549	17864.77
464.754	18737.21
464.959	18622.52
465.165	18479.16
465.37	17616.97
465.575	17143.89
465.781	17875.01
465.986	18024.51
466.191	17434.7
466.397	16967.76
466.602	15982.69
466.807	16975.95
467.012	16787.54
467.218	16656.47
467.423	16646.23
467.628	16562.26
467.833	17549.39
468.038	16756.82
468.244	16248.93
468.449	16883.8
468.654	16156.77
468.859	16164.96
469.064	16138.34
469.269	15599.72
469.474	15650.92
469.679	15827.04
469.885	15376.49
470.09	15489.13
470.295	15534.18
470.5	15308.91
470.705	15140.97
470.91	14710.9
471.115	14594.17
471.32	15071.34
471.525	14786.68
471.73	14528.63
471.935	14344.31
472.139	13850.75
472.344	14131.33
472.549	13967.49
472.754	13904
472.959	13688.96
473.164	13260.94
473.369	13234.32
473.574	13758.6
473.778	13305.99
473.983	13303.95
474.188	13125.77
474.393	12777.62
474.598	12896.4
474.802	12581.01
475.007	12578.97
475.212	12363.93
475.417	12132.51
475.621	12032.16
475.826	12064.93
476.031	12214.43
476.235	11765.92
476.44	11964.57
476.645	11446.44
476.849	11788.45
477.054	11466.92
477.259	11563.17
477.463	11245.74
477.668	10817.71
477.872	11444.39
478.077	10854.58
478.282	10741.94
478.486	10709.17
478.691	10492.09
478.895	10766.51
479.1	10387.64
479.304	10598.58
479.509	10275
479.713	10281.14
479.918	10213.56
480.122	9875.65
480.326	10053.82
480.531	10313.91
480.735	10158.27
480.94	10023.1
481.144	10379.45
481.348	9873.6
481.553	9781.44
481.757	9699.52
481.961	9961.66
482.166	10113.21
482.37	10078.4
482.574	9771.2
482.778	9701.57
482.983	10051.77
483.187	9605.31
483.391	10064.06
483.595	9756.86
483.8	9662.66
484.004	9707.71
484.208	9963.71
484.412	9732.29
484.616	9840.83
484.821	9963.71
485.025	9644.23
485.229	9814.21
485.433	9693.38
485.637	10109.12
485.841	9547.97
486.045	9797.82
486.249	9728.19
486.453	9691.33
486.657	9781.44
486.861	9969.85
487.065	9539.78
487.269	9697.47
487.473	9519.3
487.677	9853.12
487.881	9916.61
488.085	9593.03
488.289	9863.36
488.493	9711.81
488.697	9662.66
488.901	9832.64
489.105	9707.71
489.309	9881.79
489.512	9971.9
489.716	9969.85
489.92	9859.26
490.124	9826.5
490.328	9871.55
490.531	9849.02
490.735	10166.46
490.939	10170.55
491.143	10023.1
491.346	9832.64
491.55	10252.47
491.754	10123.45
491.958	10377.4
492.161	10150.07
492.365	10297.53
492.569	10461.37
492.772	10266.81
492.976	10539.19
493.18	10557.62
493.383	10676.4
493.587	10594.48
493.79	10711.22
493.994	10436.79
494.197	10721.46
494.401	10858.67
494.605	10641.59
494.808	10987.69
495.012	11083.95
495.215	11002.03
495.419	11341.99
495.622	11032.75
495.825	11094.19
496.029	11350.18
496.232	11450.53
496.436	11530.41
496.639	11864.22
496.843	11653.28
497.046	11935.9
497.249	11948.19
497.453	12191.9
497.656	12325.02
497.859	12292.25
498.063	12425.37
498.266	12773.52
498.469	12517.53
498.673	12736.66
498.876	12970.13
499.079	13205.64
499.282	13191.31
499.485	13535.37
499.689	13316.23
499.892	13402.25
500.095	13475.98
500.298	13834.37
500.501	13832.32
500.705	14282.88
500.908	14415.99
501.111	14452.86
501.314	14645.37
501.517	14801.01
501.72	15075.44
501.923	14760.05
502.126	15284.33
502.329	15761.51
502.532	15517.8
502.735	15417.45
502.938	16009.31
503.141	16099.42
503.344	16302.17
503.547	16310.36
503.75	16607.32
503.953	16902.23
504.156	17064.02
504.359	17201.23
504.562	17328.2
504.765	18135.1
504.968	17649.74
505.17	18231.36
505.373	17975.36
505.576	18389.05
505.779	18485.31
505.982	18348.09
506.185	19091.51
506.387	18833.46
506.59	18870.33
506.793	19736.62
506.996	19400.75
507.198	20095.01
507.401	19789.86
507.604	20400.16
507.807	20535.32
508.009	20713.5
508.212	20819.99
508.415	21162
508.617	21346.32
508.82	21526.54
509.022	21090.32
509.225	22097.92
509.428	22044.68
509.63	22196.23
509.833	22065.16
510.035	22839.29
510.238	22767.61
510.44	23074.81
510.643	23226.35
510.845	23812.07
511.048	23619.56
511.25	23889.9
511.453	24053.73
511.655	25038.81
511.858	24889.31
512.06	24975.32
512.262	25233.36
512.465	25157.59
512.667	25774.03
512.87	25798.6
513.072	25925.58
513.274	26767.29
513.477	26542.02
513.679	26587.07
513.881	26980.28
514.084	27551.66
514.286	27256.76
514.488	27596.72
514.69	28379.04
514.893	28389.28
515.095	28542.88
515.297	28977.05
515.499	29011.87
515.701	29089.69
515.904	29726.61
516.106	29630.35
516.308	30017.42
516.51	30451.59
516.712	30508.93
516.914	30453.64
517.116	31174.52
517.318	31459.19
517.52	31678.32
517.722	31412.09
517.925	32108.4
518.127	32556.9
518.329	32827.23
518.531	32806.75
518.733	33451.86
518.935	33320.79
519.136	33367.9
519.338	34150.22
519.54	34326.35
519.742	34565.96
519.944	34531.14
520.146	35180.35
520.348	35141.44
520.55	35409.72
520.752	35784.5
520.954	35989.3
521.155	35888.95
521.357	36515.62
521.559	36730.66
521.761	37269.28
521.963	37246.75
522.164	37429.02
522.366	37529.37
522.568	37705.49
522.77	37957.39
522.971	38663.94
523.173	38631.18
523.375	38946.56
523.576	38498.06
523.778	39130.88
523.98	39595.77
524.181	39833.33
524.383	39737.08
524.584	39911.16
524.786	40468.2
524.988	40060.66
525.189	40529.64
525.391	40929
525.592	41420.51
525.794	41404.13
525.995	41397.98
526.197	41318.11
526.398	41281.25
526.6	42018.52
526.801	42153.68
527.003	42034.9
527.204	42358.48
527.406	42632.91
527.607	42657.48
527.808	43265.73
528.01	42614.48
528.211	42624.71
528.412	43738.81
528.614	43323.07
528.815	43245.25
529.016	43908.79
529.218	43312.83
529.419	43570.88
529.62	43706.04
529.822	43194.05
530.023	43382.46
530.224	43849.4
530.425	43943.61
530.626	43886.26
530.828	43835.06
531.029	44744.36
531.23	43851.45
531.431	44375.73
531.632	44414.64
531.833	44701.36
532.035	44263.09
532.236	44797.61
532.437	44707.5
532.638	44500.65
532.839	45141.67
533.04	44603.05
533.241	44242.61
533.442	45086.37
533.643	44840.62
533.844	44734.12
534.045	44517.04
534.246	44478.13
534.447	44943.02
534.648	45135.52
534.849	45096.61
535.05	44701.36
535.251	45237.92
535.451	44684.97
535.652	44799.66
535.853	45213.35
536.054	45377.18
536.255	45192.87
536.456	44717.74
536.657	45254.31
536.857	44947.11
537.058	45143.72
537.259	45485.73
537.46	45244.07
537.66	45151.91
537.861	45620.89
538.062	45397.66
538.263	45366.95
538.463	45039.27
538.664	45186.72
538.865	45055.65
539.065	45336.23
539.266	44869.29
539.466	45825.69
539.667	44508.85
539.868	45833.88
540.068	45332.13
540.269	44955.3
540.469	45872.79
540.67	44531.37
540.87	44613.29
541.071	44754.6
541.271	45041.32
541.472	44955.3
541.672	44979.88
541.873	44959.4
542.073	44068.53
542.274	45360.8
542.474	45098.66
542.675	44932.78
542.875	45182.63
543.075	45014.69
543.276	44578.48
543.476	45180.58
543.676	44885.67
543.877	45248.16
544.077	44943.02
544.277	44973.74
544.478	44521.13
544.678	44928.68
544.878	44873.38
545.078	44893.86
545.279	44750.51
545.479	44539.57
545.679	44736.17
545.879	44773.03
546.079	44580.53
546.28	45012.65
546.48	44713.64
546.68	45104.81
546.88	45002.41
547.08	44502.7
547.28	44521.13
547.48	44205.75
547.68	44394.16
547.88	44316.34
548.081	44418.74
548.281	44775.08
548.481	44887.72
548.681	45082.28
548.881	44500.65
549.081	44562.09
549.28	44080.82
549.48	44918.44
549.68	44500.65
549.88	45055.65
550.08	44490.41
550.28	44717.74
550.48	44324.53
550.68	44848.81
550.88	44119.73
551.08	44705.45
551.279	44136.12
551.479	44062.39
551.679	44328.62
551.879	44809.9
552.079	44486.32
552.278	43949.75
552.478	44005.05
552.678	44144.31
552.878	44699.31
553.077	44025.53
553.277	44070.58
553.477	44920.49
553.676	44070.58
553.876	43740.86
554.076	43738.81
554.275	43681.47
554.475	43472.57
554.674	43849.4
554.874	43990.71
555.074	43484.86
555.273	43869.88
555.473	44041.91
555.672	43740.86
555.872	43632.32
556.071	43421.37
556.271	43667.13
556.47	43325.12
556.67	43034.31
556.869	43392.7
557.068	43820.73
557.268	43384.51
557.467	43382.46
557.667	43284.16
557.866	43812.54
558.065	42956.49
558.265	43351.74
558.464	43308.74
558.663	43216.58
558.863	42542.8
559.062	43454.14
559.261	42694.35
559.461	43337.41
559.66	42675.91
559.859	42673.87
560.058	42483.41
560.258	42493.64
560.457	42518.22
560.656	42901.19
560.855	42225.36
561.054	42294.99
561.253	42108.63
561.453	42290.9
561.652	42143.44
561.851	42342.1
562.05	42241.74
562.249	41948.89
562.448	42266.32
562.647	41948.89
562.846	41991.89
563.045	41692.89
563.244	41297.63
563.443	42039
563.642	41096.93
563.841	41838.29
564.04	41215.71
564.239	41422.56
564.438	41170.66
564.637	41400.03
564.836	41332.45
565.035	40783.59
565.234	40908.52
565.432	40896.23
565.631	40314.61
565.83	41113.31
566.029	40863.46
566.228	40513.26
566.427	40406.76
566.625	40036.08
566.824	40060.66
567.023	40189.68
567.222	39554.81
567.42	40298.22
567.619	40167.15
567.818	39825.14
568.016	39679.74
568.215	39970.55
568.414	39743.22
568.612	39681.78
568.811	39565.05
569.01	39505.66
569.208	39057.15
569.407	39444.22
569.605	38872.84
569.804	39751.41
570.002	38706.95
570.201	39151.36
570.4	38412.04
570.598	38410
570.797	38483.72
570.995	38719.24
571.193	37822.23
571.392	38559.5
571.59	37848.85
571.789	38061.84
571.987	37838.61
572.186	38121.23
572.384	37523.22
572.582	37777.17
572.781	37803.8
572.979	37211.93
573.177	37199.65
573.376	37701.4
573.574	37285.66
573.772	37324.57
573.971	37066.53
574.169	37113.63
574.367	36654.89
574.565	37099.3
574.763	36734.76
574.962	36529.96
575.16	36316.97
575.358	36634.41
575.556	36050.74
575.754	36677.41
575.952	35817.27
576.151	36405.03
576.349	36028.21
576.547	35852.08
576.745	35649.33
576.943	36042.54
577.141	35649.33
577.339	35454.78
577.537	35338.04
577.735	35239.74
577.933	35514.17
578.131	35184.44
578.329	35065.66
578.527	35039.04
578.725	34914.11
578.923	35127.1
579.121	34678.6
579.319	34961.22
579.516	35108.67
579.714	34694.98
579.912	34541.38
580.11	34176.84
580.308	34084.69
580.506	34111.31
580.704	33578.84
580.901	33681.24
581.099	34150.22
581.297	33664.85
581.495	33599.32
581.692	33654.61
581.89	33441.62
582.088	33392.47
582.285	33533.78
582.483	33582.93
582.681	33539.93
582.878	33351.51
583.076	32640.87
583.274	33374.04
583.471	32771.94
583.669	32542.56
583.866	32298.86
584.064	33216.35
584.262	31922.03
584.459	32925.53
584.657	32325.48
584.854	32640.87
585.052	31895.41
585.249	32079.72
585.447	32018.28
585.644	31698.8
585.841	31721.33
586.039	31786.86
586.236	31238.01
586.434	31647.6
586.631	31706.99
586.828	31745.9
587.026	31303.54
587.223	31520.63
587.42	31330.17
587.618	31018.88
587.815	30949.25
588.012	30859.13
588.21	30408.58
588.407	31090.55
588.604	30713.73
588.801	30494.6
588.999	30676.87
589.196	30502.79
589.393	30433.16
589.59	30283.66
589.787	29964.17
589.984	29853.58
590.182	29798.29
590.379	30218.12
590.576	29349.78
590.773	29591.44
590.97	29583.25
591.167	29575.06
591.364	29728.66
591.561	29558.67
591.758	29095.83
591.955	29183.9
592.152	29386.64
592.349	29331.35
592.546	29116.31
592.743	28802.97
592.94	28467.11
593.137	28987.29
593.334	29024.15
593.531	28200.87
593.727	28178.34
593.924	28331.94
594.121	28342.18
594.318	28503.97
594.515	28315.56
594.712	28272.55
594.908	27854.76
595.105	28168.1
595.302	27832.24
595.499	27858.86
595.696	27778.99
595.892	27588.53
596.089	27848.62
596.286	27555.76
596.482	27254.71
596.679	27580.34
596.876	27522.99
597.072	27320.24
597.269	27283.38
597.466	26845.12
597.662	26726.33
597.859	26869.69
598.055	27035.58
598.252	26478.53
598.448	26431.43
598.645	26253.25
598.841	26144.71
599.038	26406.85
599.234	26298.31
599.431	25907.15
599.627	26101.7
599.824	26365.89
600.02	25755.6
600.217	25962.44
600.413	25665.49
600.609	25622.48
600.806	25698.25
601.002	25726.92
601.198	25311.19
601.395	25493.46
601.591	25200.6
601.787	25558.99
601.984	25149.4
602.18	25274.32
602.376	24965.08
602.572	24897.5
602.769	25110.49
602.965	24502.24
603.161	24483.81
603.357	24547.29
603.553	24252.39
603.75	24338.4
603.946	24571.87
604.142	24635.36
604.338	24027.11
604.534	24469.47
604.73	23920.62
604.926	24162.28
605.122	24125.41
605.318	23592.94
605.514	23652.33
605.71	23496.69
605.906	23724.01
606.102	23764.97
606.298	23580.65
606.494	23519.21
606.69	23463.92
606.886	23431.15
607.082	23164.92
607.278	23635.95
607.474	22962.17
607.67	23121.91
607.866	22867.96
608.062	22937.59
608.257	23039.99
608.453	22908.92
608.649	22927.35
608.845	22564.86
609.041	22448.13
609.236	22812.67
609.432	22474.75
609.628	22726.65
609.824	22716.41
610.019	22392.83
610.215	22218.75
610.411	22550.53
610.606	22292.48
610.802	22669.31
610.998	22294.53
611.193	22353.92
611.389	22372.35
611.584	21833.74
611.78	22110.21
611.976	22265.86
612.171	22065.16
612.367	21778.44
612.562	21962.76
612.758	21780.49
612.953	21737.48
613.149	21917.7
613.344	21594.12
613.539	21788.68
613.735	21690.38
613.93	21643.28
614.126	21266.45
614.321	21680.14
614.517	21471.25
614.712	21504.01
614.907	21147.67
615.103	21452.81
615.298	21291.02
615.493	21231.63
615.688	21196.82
615.884	21614.6
616.079	20987.93
616.274	20893.72
616.47	21002.26
616.665	21006.36
616.86	21073.94
617.055	20725.79
617.25	21014.55
617.445	21020.69
617.641	20496.41
617.836	20887.57
618.031	20543.52
618.226	20617.24
618.421	20449.31
618.616	20545.56
618.811	20422.69
619.006	20596.76
619.201	19687.46
619.396	20432.93
619.591	19849.25
619.786	20224.03
619.981	19900.45
620.176	20006.95
620.371	19576.87
620.566	19714.09
620.761	19736.62
620.956	19554.35
621.151	19392.56
621.346	19363.89
621.541	19218.48
621.735	19302.45
621.93	18870.33
622.125	19212.34
622.32	18763.83
622.515	18602.04
622.709	18559.03
622.904	18751.54
623.099	18468.92
623.294	18370.62
623.488	18085.95
623.683	18335.81
623.878	17979.46
624.072	18161.73
624.267	17815.62
624.462	17702.98
624.656	17821.77
624.851	18157.63
625.046	17395.79
625.24	17504.33
625.435	17315.92
625.629	17305.68
625.824	17277.01
626.018	17082.45
626.213	16679
626.407	16848.98
626.602	16775.25
626.796	16920.66
626.991	16623.7
627.185	16801.88
627.38	16373.85
627.574	16320.6
627.768	16042.08
627.963	16156.77
628.157	16138.34
628.352	16310.36
628.546	15827.04
628.74	16013.41
628.935	15657.06
629.129	15685.73
629.323	15499.37
629.517	15620.2
629.712	15585.38
629.906	15540.33
630.1	15222.89
630.294	15317.1
630.489	15218.8
630.683	15087.73
630.877	15003.76
631.071	14835.83
631.265	14970.99
631.459	14915.7
631.653	14686.33
631.848	14651.51
632.042	14467.19
632.236	14649.46
632.43	14528.63
632.624	14250.11
632.818	14352.51
633.012	14342.27
633.206	14026.88
633.4	14203
633.594	13830.27
633.788	13795.46
633.982	13944.96
634.176	13871.23
634.369	13652.1
634.563	13254.8
634.757	13617.29
634.951	13437.06
635.145	13432.97
635.339	13398.15
635.533	13342.86
635.726	13396.1
635.92	13090.96
636.114	13275.27
636.308	12871.82
636.501	12984.46
636.695	12894.35
636.889	12462.23
637.083	12546.2
637.276	12529.81
637.47	12787.86
637.664	12400.79
637.857	12531.86
638.051	12507.29
638.244	12107.93
638.438	12316.83
638.632	12267.67
638.825	12222.62
639.019	12001.44
639.212	12058.78
639.406	11843.74
639.599	11825.31
639.793	11817.12
639.986	11610.28
640.18	11774.11
640.373	11655.33
640.567	11387.05
640.76	11597.99
640.954	11419.82
641.147	11206.83
641.34	11280.55
641.534	11362.47
641.727	11227.31
641.92	11387.05
642.114	11188.39
642.307	11055.28
642.5	10936.49
642.694	10633.4
642.887	10909.87
643.08	10934.45
643.273	10850.48
643.467	10612.92
643.66	10590.39
643.853	10500.28
644.046	10375.35
644.239	10490.04
644.432	10313.91
644.626	10637.49
644.819	10227.9
645.012	10172.6
645.205	10225.85
645.398	10297.53
645.591	10096.83
645.784	10033.34
645.977	9758.91
646.17	10016.96
646.363	9773.25
646.556	9691.33
646.749	9736.38
646.942	9734.34
647.135	9582.79
647.328	9502.92
647.521	9654.47
647.714	9388.23
647.907	9414.85
648.099	9445.57
648.292	9283.78
648.485	9519.3
648.678	9099.47
648.871	9085.13
649.064	9134.28
649.256	9089.23
649.449	8992.97
649.642	8878.29
649.835	8866
650.027	8923.34
650.22	8747.22
650.413	8696.02
650.605	8868.05
650.798	8857.81
650.991	8558.8
651.183	8618.19
651.376	8491.22
651.568	8483.03
651.761	8556.75
651.954	8446.16
652.146	8540.37
652.339	8116.44
652.531	8362.2
652.724	8210.65
652.916	8102.11
653.109	8173.78
653.301	8098.01
653.494	8198.36
653.686	7966.94
653.879	8155.35
654.071	7870.69
654.263	8034.52
654.456	7749.86
654.648	7911.64
654.84	7760.09
655.033	7610.59
655.225	7778.53
655.417	7547.11
655.61	7569.63
655.802	7637.22
655.994	7424.23
656.186	7526.63
656.379	7407.84
656.571	7422.18
656.763	7256.29
656.955	7330.02
657.148	7381.22
657.34	7485.67
657.532	7264.49
657.724	7141.61
657.916	7137.51
658.108	7143.66
658.3	7057.64
658.492	7164.14
658.684	6990.06
658.876	6850.8
659.068	6865.13
659.26	6844.65
659.452	6998.25
659.644	6797.55
659.836	6709.49
660.028	6742.25
660.22	6629.62
660.412	6566.13
660.604	6580.46
660.796	6478.07
660.988	6582.51
661.18	6553.84
661.372	6451.44
661.563	6564.08
661.755	6365.43
661.947	6297.85
662.139	6527.22
662.331	6344.95
662.522	6369.52
662.714	6197.49
662.906	6285.56
663.097	6291.7
663.289	6252.79
663.481	5949.69
663.673	6140.15
663.864	5980.41
664.056	6101.24
664.247	6025.47
664.439	5923.07
664.631	5714.17
664.822	5697.79
665.014	5855.48
665.205	5818.62
665.397	5878.01
665.588	5900.54
665.78	5677.31
665.971	5892.35
666.163	5800.19
666.354	5722.37
666.546	5798.14
666.737	5642.5
666.929	5538.05
667.12	5703.93
667.311	5591.3
667.503	5603.58
667.694	5550.34
667.885	5497.09
668.077	5640.45
668.268	5196.04
668.459	5255.43
668.651	5390.6
668.842	5486.85
669.033	5204.23
669.224	5183.75
669.416	5363.97
669.607	5267.72
669.798	5220.61
669.989	5249.29
670.18	5191.94
670.371	4952.33
670.563	5107.98
670.754	5050.63
670.945	4956.43
671.136	5126.41
671.327	4978.95
671.518	4917.51
671.709	4937.99
671.9	4864.27
672.091	4821.26
672.282	4892.94
672.473	4909.32
672.664	4866.32
672.855	4794.64
673.046	4780.3
673.237	4878.6
673.428	4698.38
673.619	4589.84
673.809	4745.48
674	4716.81
674.191	4628.75
674.382	4483.34
674.573	4802.83
674.764	4661.52
674.954	4698.38
675.145	4604.18
675.336	4378.9
675.527	4591.89
675.717	4636.94
675.908	4366.61
676.099	4540.69
676.289	4331.8
676.48	4403.47
676.671	4434.19
676.861	4356.37
677.052	4415.76
677.243	4260.12
677.433	4264.21
677.624	4360.47
677.814	4301.08
678.005	4137.24
678.195	4327.7
678.386	4245.78
678.576	4153.62
678.767	4253.97
678.957	4180.25
679.148	4237.59
679.338	4155.67
679.529	4241.68
679.719	4127
679.909	4184.34
680.1	4049.18
680.29	4096.28
680.481	4040.98
680.671	4061.46
680.861	3887.39
681.052	4075.8
681.242	4014.36
681.432	3987.74
681.622	3965.21
681.813	3977.5
682.003	3973.4
682.193	3864.86
682.383	4038.94
682.573	3893.53
682.764	3875.1
682.954	3883.29
683.144	3969.3
683.334	3733.79
683.524	3780.89
683.714	3821.85
683.904	3832.09
684.094	3854.62
684.284	3692.83
684.474	3772.7
684.664	3721.5
684.854	3741.98
685.044	3645.73
685.234	3764.51
685.424	3764.51
685.614	3612.96
685.804	3531.04
685.994	3746.08
686.184	3653.92
686.374	3668.25
686.564	3561.76
686.753	3539.23
686.943	3514.66
687.133	3629.34
687.323	3561.76
687.513	3533.09
687.702	3531.04
687.892	3543.33
688.082	3395.87
688.272	3428.64
688.461	3594.53
688.651	3500.32
688.841	3418.4
689.03	3234.08
689.22	3381.54
689.41	3424.55
689.599	3404.07
689.789	3428.64
689.979	3399.97
690.168	3367.2
690.358	3332.39
690.547	3182.88
690.737	3219.75
690.926	3285.28
691.116	3240.23
691.305	3285.28
691.495	3258.66
691.684	3146.02
691.874	3021.1
692.063	3170.6
692.252	3152.17
692.442	3207.46
692.631	3160.36
692.82	3166.5
693.01	3139.88
693.199	3213.6
693.388	3117.35
693.578	3148.07
693.767	3072.29
693.956	3043.62
694.146	3070.25
694.335	3023.14
694.524	3047.72
694.713	3090.73
694.902	3062.05
695.092	3019.05
695.281	2937.13
695.47	2957.61
695.659	3000.62
695.848	2922.79
696.037	2951.46
696.226	2959.66
696.415	2994.47
696.604	3021.1
696.793	2973.99
696.982	2894.12
697.171	2978.09
697.36	3064.1
697.549	2844.97
697.738	2965.8
697.927	2922.79
698.116	2920.74
698.305	2892.07
698.494	2937.13
698.683	2914.6
698.872	2990.38
699.061	2781.48
699.25	2801.96
699.438	2765.1
699.627	2877.74
699.816	2773.29
700.005	2736.43
700.193	2705.71
700.382	2849.07
700.571	2769.2
700.76	2797.87
700.948	2883.88
701.137	2799.91
701.326	2875.69
701.514	2662.7
701.703	2701.61
701.892	2623.79
702.08	2832.68
702.269	2752.81
702.457	2695.47
702.646	2844.97
702.834	2812.2
703.023	2763.05
703.212	2705.71
703.4	2713.9
703.589	2707.76
703.777	2740.52
703.965	2693.42
704.154	2816.3
704.342	2744.62
704.531	2763.05
704.719	2664.75
704.907	2736.43
705.096	2660.65
705.284	2758.96
705.472	2734.38
705.661	2715.95
705.849	2791.72
706.037	2818.35
706.226	2769.2
706.414	2656.56
706.602	2646.32
706.79	2650.41
706.979	2627.89
707.167	2775.34
707.355	2693.42
707.543	2718
707.731	2656.56
707.919	2703.66
708.107	2701.61
708.296	2748.72
708.484	2582.83
708.672	2715.95
708.86	2609.45
709.048	2699.56
709.236	2638.13
709.424	2718
709.612	2777.39
709.8	2640.17
709.988	2634.03
710.176	2650.41
710.364	2615.6
710.551	2715.95
710.739	2605.36
710.927	2713.9
711.115	2601.26
711.303	2572.59
711.491	2562.35
711.679	2529.58
711.866	2505.01
712.054	2691.37
712.242	2623.79
712.43	2591.02
712.617	2515.25
712.805	2646.32
712.993	2593.07
713.181	2357.55
713.368	2525.49
713.556	2552.11
713.744	2502.96
713.931	2748.72
714.119	2552.11
714.306	2482.48
714.494	2558.25
714.682	2502.96
714.869	2505.01
715.057	2509.1
715.244	2562.35
715.432	2488.62
715.619	2636.08
715.807	2482.48
715.994	2568.49
716.182	2476.34
716.369	2580.78
716.556	2566.45
716.744	2441.52
716.931	2500.91
717.119	2519.34
717.306	2599.21
717.493	2500.91
717.681	2599.21
717.868	2543.92
718.055	2519.34
718.242	2474.29
718.43	2464.05
718.617	2525.49
718.804	2431.28
718.991	2390.32
719.179	2507.06
719.366	2359.6
719.553	2386.22
719.74	2455.86
719.927	2496.82
720.114	2341.17
720.301	2326.83
720.488	2373.94
720.676	2457.9
720.863	2486.58
721.05	2408.75
721.237	2478.38
721.424	2302.26
721.611	2439.47
721.798	2367.79
721.985	2427.18
722.172	2349.36
722.358	2300.21
722.545	2390.32
722.732	2441.52
722.919	2394.42
723.106	2408.75
723.293	2378.03
723.48	2445.62
723.667	2335.03
723.853	2367.79
724.04	2414.9
724.227	2400.56
724.414	2343.22
724.6	2265.39
724.787	2289.97
724.974	2375.99
725.161	2382.13
725.347	2285.87
725.534	2402.61
725.72	2443.57
725.907	2328.88
726.094	2365.75
726.28	2302.26
726.467	2402.61
726.653	2275.63
726.84	2392.37
727.027	2367.79
727.213	2320.69
727.4	2369.84
727.586	2279.73
727.773	2335.03
727.959	2335.03
728.145	2341.17
728.332	2249.01
728.518	2312.5
728.705	2193.72
728.891	2384.18
729.077	2283.83
729.264	2285.87
729.45	2083.13
729.636	2298.16
729.823	2355.51
730.009	2345.27
730.195	2257.2
730.382	2220.34
730.568	2279.73
730.754	2363.7
730.94	2175.28
731.126	2244.92
731.313	2228.53
731.499	2216.24
731.685	2271.54
731.871	2230.58
732.057	2289.97
732.243	2134.32
732.429	2353.46
732.615	2218.29
732.801	2257.2
732.987	2163
733.173	2249.01
733.359	2228.53
733.545	2171.19
733.731	2111.8
733.917	2134.32
734.103	2085.17
734.289	2201.91
734.475	2117.94
734.661	2236.72
734.847	2222.39
735.033	2146.61
735.219	2175.28
735.404	2216.24
735.59	2058.55
735.776	2167.09
735.962	2076.98
736.148	2154.8
736.333	2152.76
736.519	2070.84
736.705	2021.69
736.89	2097.46
737.076	2179.38
737.262	2126.13
737.447	2167.09
737.633	2072.89
737.819	2201.91
738.004	2091.32
738.19	2177.33
738.375	2027.83
738.561	2066.74
738.747	1982.78
738.932	1986.87
739.118	2187.57
739.303	2136.37
739.489	1935.67
739.674	2081.08
739.859	2009.4
740.045	2072.89
740.23	1974.58
740.416	2023.73
740.601	1968.44
740.786	1978.68
740.972	1999.16
741.157	1929.53
741.342	1947.96
741.528	1976.63
741.713	1972.54
741.898	1933.62
742.084	1915.19
742.269	1935.67
742.454	2003.25
742.639	1968.44
742.824	1876.28
743.01	1847.61
743.195	1972.54
743.38	1925.43
743.565	1847.61
743.75	1952.06
743.935	1818.94
744.12	1970.49
744.305	1851.71
744.49	1859.9
744.675	1782.07
744.86	1767.74
745.045	1796.41
745.23	1837.37
745.415	1816.89
745.6	1730.87
745.785	1808.7
745.97	1710.4
746.155	1681.72
746.34	1696.06
746.525	1751.35
746.71	1833.27
746.895	1679.68
747.079	1669.44
747.264	1644.86
747.449	1655.1
747.634	1638.72
747.819	1616.19
748.003	1700.16
748.188	1638.72
748.373	1634.62
748.557	1564.99
748.742	1636.67
748.927	1659.2
749.111	1644.86
749.296	1524.03
749.481	1569.09
749.665	1587.52
749.85	1532.22
750.034	1571.13
750.219	1585.47
750.404	1587.52
750.588	1481.02
750.773	1499.45
750.957	1470.78
751.141	1493.31
751.326	1411.39
751.51	1450.3
751.695	1532.22
751.879	1464.64
752.064	1556.8
752.248	1448.26
752.432	1485.12
752.617	1538.37
752.801	1438.02
752.985	1401.15
753.17	1427.78
753.354	1325.38
753.538	1521.98
753.722	1311.04
753.907	1368.38
754.091	1362.24
754.275	1384.77
754.459	1315.14
754.643	1358.14
754.828	1333.57
755.012	1325.38
755.196	1253.7
755.38	1268.03
755.564	1251.65
755.748	1278.27
755.932	1294.66
756.116	1235.27
756.3	1218.88
756.484	1177.92
756.668	1196.36
756.852	1237.31
757.036	1245.51
757.22	1247.55
757.404	1204.55
757.588	1155.4
757.772	1118.53
757.956	1263.94
758.14	1177.92
758.323	1182.02
758.507	1196.36
758.691	1149.25
758.875	1190.21
759.059	1149.25
759.242	1091.91
759.426	1214.79
759.61	1083.72
759.794	1040.71
759.977	1087.81
760.161	1155.4
760.345	1218.88
760.528	1149.25
760.712	1112.39
760.895	1159.49
761.079	1128.77
761.263	1065.29
761.446	1048.9
761.63	1071.43
761.813	999.75
761.997	1030.47
762.18	1073.48
762.364	1036.61
762.547	940.36
762.731	981.32
762.914	983.37
763.098	1030.47
763.281	1061.19
763.464	993.61
763.648	964.93
763.831	985.41
764.015	1038.66
764.198	985.41
764.381	1028.42
764.564	983.37
764.748	1003.85
764.931	950.6
765.114	878.92
765.297	969.03
765.481	954.69
765.664	950.6
765.847	977.22
766.03	958.79
766.213	977.22
766.397	1026.37
766.58	997.7
766.763	907.59
766.946	964.93
767.129	917.83
767.312	868.68
767.495	899.4
767.678	950.6
767.861	811.34
768.044	807.24
768.227	899.4
768.41	950.6
768.593	887.11
768.776	852.3
768.959	891.21
769.142	883.02
769.324	946.5
769.507	905.54
769.69	811.34
769.873	844.1
770.056	885.06
770.239	868.68
770.421	903.5
770.604	821.58
770.787	829.77
770.97	852.3
771.152	858.44
771.335	745.8
771.518	792.91
771.7	932.17
771.883	905.54
772.066	876.87
772.248	741.71
772.431	819.53
772.613	811.34
772.796	833.86
772.978	788.81
773.161	774.47
773.343	797
773.526	760.14
773.708	688.46
773.891	784.71
774.073	721.23
774.256	772.43
774.438	735.56
774.621	700.75
774.803	811.34
774.985	678.22
775.168	770.38
775.35	721.23
775.532	717.13
775.715	713.03
775.897	665.93
776.079	735.56
776.261	665.93
776.444	770.38
776.626	663.88
776.808	776.52
776.99	745.8
777.173	659.79
777.355	663.88
777.537	561.48
777.719	713.03
777.901	612.68
778.083	614.73
778.265	684.36
778.447	614.73
778.629	598.35
778.811	659.79
778.993	584.01
779.175	629.07
779.357	575.82
779.539	577.87
779.721	698.7
779.903	629.07
780.085	612.68
780.267	563.53
780.449	678.22
780.631	549.2
780.812	618.83
780.994	549.2
781.176	579.92
781.358	510.29
781.54	586.06
781.721	491.85
781.903	526.67
782.085	532.81
782.267	522.57
782.448	512.33
782.63	518.48
782.812	481.61
782.993	557.39
783.175	491.85
783.357	536.91
783.538	571.72
783.72	477.52
783.901	454.99
784.083	567.63
784.264	532.81
784.446	516.43
784.627	444.75
784.809	383.31
784.99	483.66
785.172	467.28
785.353	465.23
785.535	446.8
785.716	438.61
785.897	481.61
786.079	516.43
786.26	442.7
786.441	446.8
786.623	340.3
786.804	440.65
786.985	457.04
787.167	414.03
787.348	405.84
787.529	381.26
787.71	452.94
787.891	436.56
788.073	428.37
788.254	438.61
788.435	479.57
788.616	330.06
788.797	360.78
788.978	342.35
789.159	405.84
789.34	418.13
789.522	405.84
789.703	371.02
789.884	405.84
790.065	368.98
790.246	407.89
790.427	432.46
790.607	342.35
790.788	391.5
790.969	313.68
791.15	411.98
791.331	260.43
791.512	321.87
791.693	272.72
791.874	340.3
792.054	360.78
792.235	409.94
792.416	287.06
792.597	362.83
792.778	262.48
792.958	321.87
793.139	317.78
793.32	360.78
793.5	258.39
793.681	280.91
793.862	311.63
794.042	254.29
794.223	276.82
794.404	391.5
794.584	364.88
794.765	246.1
794.945	262.48
795.126	272.72
795.306	274.77
795.487	321.87
795.667	250.19
795.848	248.15
796.028	250.19
796.209	233.81
796.389	426.32
796.57	272.72
796.75	229.71
796.93	270.67
797.111	336.21
797.291	188.75
797.471	303.44
797.652	323.92
797.832	287.06
798.012	235.86
798.192	268.63
798.373	282.96
798.553	219.47
798.733	219.47
798.913	287.06
799.093	207.19
799.274	264.53
799.454	315.73
799.634	295.25
799.814	315.73
799.994	282.96
800.174	291.15
800.354	237.91
800.534	323.92
800.714	221.52
800.894	215.38
801.074	229.71
801.254	215.38
801.434	211.28
801.614	225.62
801.794	182.61
801.974	645.45
802.154	246.1
802.334	219.47
802.514	256.34
802.693	223.57
802.873	168.27
803.053	242
803.233	344.4
803.413	268.63
803.592	186.71
803.772	229.71
803.952	143.7
804.131	287.06
804.311	182.61
804.491	184.66
804.67	158.03
804.85	190.8
805.03	180.56
805.209	223.57
805.389	174.42
805.568	262.48
805.748	194.9
805.928	168.27
806.107	186.71
806.287	221.52
806.466	221.52
806.646	184.66
806.825	176.47
807.004	190.8
807.184	237.91
807.363	141.65
807.543	149.84
807.722	153.94
807.901	213.33
808.081	219.47
808.26	176.47
808.439	133.46
808.619	129.36
808.798	211.28
808.977	170.32
809.156	219.47
809.336	201.04
809.515	196.95
809.694	147.8
809.873	131.41
810.052	127.32
810.231	217.43
810.411	160.08
810.59	172.37
810.769	149.84
810.948	188.75
811.127	135.51
811.306	129.36
811.485	72.02
811.664	201.04
811.843	215.38
812.022	168.27
812.201	133.46
812.38	178.51
812.559	127.32
812.737	192.85
812.916	123.22
813.095	145.75
813.274	217.43
813.453	213.33
813.632	178.51
813.811	233.81
813.989	92.5
814.168	131.41
814.347	57.68
814.526	162.13
814.704	104.79
814.883	115.03
815.062	164.18
815.24	94.55
815.419	37.2
815.598	119.12
815.776	106.84
815.955	149.84
816.133	121.17
816.312	133.46
816.49	143.7
816.669	119.12
816.847	203.09
817.026	129.36
817.204	149.84
817.383	246.1
817.561	106.84
817.74	63.83
817.918	110.93
818.097	180.56
818.275	153.94
818.453	198.99
818.632	98.64
818.81	127.32
818.988	74.07
819.167	61.78
819.345	31.06
819.523	67.92
819.701	168.27
819.879	106.84
820.058	76.12
820.236	147.8
820.414	141.65
820.592	172.37
820.77	110.93
820.948	147.8
821.127	80.21
821.305	133.46
821.483	151.89
821.661	121.17
821.839	88.4
822.017	123.22
822.195	117.08
822.373	143.7
822.551	110.93
822.729	84.31
822.907	61.78
823.085	162.13
823.262	123.22
823.44	39.25
823.618	125.27
823.796	59.73
823.974	90.45
824.152	162.13
824.329	51.54
824.507	160.08
824.685	74.07
824.863	55.64
825.04	88.4
825.218	141.65
825.396	100.69
825.574	35.16
825.751	94.55
825.929	119.12
826.107	6.49
826.284	131.41
826.462	59.73
826.639	172.37
826.817	59.73
826.994	115.03
827.172	98.64
827.349	102.74
827.527	69.97
827.704	117.08
827.882	78.16
828.059	104.79
828.237	102.74
828.414	76.12
828.591	61.78
828.769	100.69
828.946	104.79
829.124	129.36
829.301	82.26
829.478	115.03
829.655	29.01
829.833	57.68
830.01	37.2
830.187	74.07
830.364	63.83
830.542	82.26
830.719	80.21
830.896	86.36
831.073	131.41
831.25	37.2
831.427	102.74
831.604	6.49
831.782	39.25
831.959	37.2
832.136	123.22
832.313	92.5
832.49	90.45
832.667	-7.85
832.844	74.07
833.021	88.4
833.198	47.44
833.374	35.16
833.551	78.16
833.728	82.26
833.905	135.51
834.082	57.68
834.259	131.41
834.436	106.84
834.612	45.4
834.789	94.55
834.966	69.97
835.143	29.01
835.319	0.34
835.496	47.44
835.673	16.73
835.85	22.87
836.026	61.78
836.203	67.92
836.38	10.58
836.556	-3.75
836.733	16.73
836.909	78.16
837.086	8.53
837.262	51.54
837.439	20.82
837.616	-18.09
837.792	59.73
837.968	33.11
838.145	43.35
838.321	16.73
838.498	47.44
838.674	69.97
838.851	26.96
839.027	53.59
839.203	49.49
839.38	104.79
839.556	20.82
839.732	29.01
839.909	61.78
840.085	90.45
840.261	0.34
840.437	74.07
840.614	-22.19
840.79	76.12
840.966	55.64
841.142	4.44
841.318	35.16
841.494	110.93
841.671	-1.71
841.847	22.87
842.023	26.96
842.199	51.54
842.375	45.4
842.551	-18.09
842.727	16.73
842.903	12.63
843.079	55.64
843.255	20.82
843.431	24.92
843.607	80.21
843.783	-28.33
843.959	16.73
844.134	-9.9
844.31	51.54
844.486	-18.09
844.662	63.83
844.838	59.73
845.013	22.87
845.189	61.78
845.365	43.35
845.541	18.77
845.716	10.58
845.892	0.34
846.068	41.3
846.244	-28.33
846.419	29.01
846.595	37.2
846.77	96.6
846.946	43.35
847.122	12.63
847.297	119.12
847.473	78.16
847.648	-7.85
847.824	78.16
847.999	-13.99
848.175	10.58
848.35	18.77
848.526	55.64
848.701	102.74
848.876	45.4
849.052	12.63
849.227	-1.71
849.403	-13.99
849.578	67.92
849.753	45.4
849.929	-22.19
850.104	82.26
850.279	90.45
850.454	12.63
850.63	31.06
850.805	45.4
850.98	26.96
851.155	-40.62
851.33	4.44
851.505	33.11
851.681	35.16
851.856	-65.19
852.031	4.44
852.206	12.63
852.381	31.06
852.556	51.54
852.731	-1.71
852.906	24.92
853.081	8.53
853.256	78.16
853.431	26.96
853.606	-46.76
853.781	-7.85
853.956	31.06
854.131	-16.04
854.305	137.56
854.48	12.63
854.655	63.83
854.83	26.96
855.005	2.39
855.18	69.97
855.354	59.73
855.529	78.16
855.704	10.58
855.879	100.69
856.053	14.68
856.228	80.21
856.403	-61.1
856.577	86.36
856.752	10.58
856.926	6.49
857.101	45.4
857.276	45.4
857.45	-7.85
857.625	-65.19
857.799	33.11
857.974	20.82
858.148	-112.3
858.323	-26.28
858.497	-34.47
858.672	16.73
858.846	16.73
859.02	24.92
859.195	86.36
859.369	10.58
859.543	82.26
859.718	-11.95
859.892	102.74
860.066	69.97
860.241	-5.8
860.415	-3.75
860.589	4.44
860.763	29.01
860.938	10.58
861.112	84.31
861.286	-28.33
861.46	-40.62
861.634	35.16
861.808	2.39
861.982	-20.14
862.157	-40.62
862.331	45.4
862.505	2.39
862.679	-1.71
862.853	41.3
863.027	22.87
863.201	-5.8
863.375	0.34
863.549	72.02
863.722	2.39
863.896	63.83
864.07	33.11
864.244	59.73
864.418	47.44
864.592	4.44
864.766	-5.8
864.939	-7.85
865.113	-42.67
865.287	59.73
865.461	-42.67
865.634	10.58
865.808	-40.62
865.982	-44.71
866.156	-11.95
866.329	49.49
866.503	0.34
866.676	74.07
866.85	29.01
867.024	6.49
867.197	55.64
867.371	61.78
867.544	12.63
867.718	-7.85
867.891	8.53
868.065	-3.75
868.238	0.34
868.412	45.4
868.585	14.68
868.759	-26.28
868.932	-40.62
869.105	-65.19
869.279	-50.86
869.452	29.01
869.625	14.68
869.799	-16.04
869.972	-3.75
870.145	-54.95
870.319	37.2
870.492	67.92
870.665	-42.67
870.838	12.63
871.011	-26.28
871.185	-32.43
871.358	47.44
871.531	67.92
871.704	-48.81
871.877	18.77
872.05	-52.91
872.223	-59.05
872.396	6.49
872.569	53.59
872.742	-16.04
872.915	39.25
873.088	-16.04
873.261	-16.04
873.434	4.44
873.607	-52.91
873.78	47.44
873.953	-22.19
874.126	6.49
874.299	57.68
874.471	-1.71
874.644	-9.9
874.817	24.92
874.99	0.34
875.163	24.92
875.335	-65.19
875.508	-18.09
875.681	16.73
875.853	4.44
876.026	18.77
876.199	43.35
876.371	-11.95
876.544	-79.53
876.717	47.44
876.889	49.49
877.062	22.87
877.234	-57
877.407	-32.43
877.579	-40.62
877.752	26.96
877.924	-42.67
878.097	47.44
878.269	-36.52
878.442	49.49
878.614	-40.62
878.786	29.01
878.959	-16.04
879.131	22.87
879.303	-63.15
879.476	63.83
879.648	45.4
879.82	6.49
879.993	0.34
880.165	41.3
880.337	-40.62
880.509	4.44
880.681	14.68
880.854	10.58
881.026	-57
881.198	43.35
881.37	-18.09
881.542	41.3
881.714	24.92
881.886	-7.85
882.058	-11.95
882.23	-69.29
882.402	49.49
882.574	82.26
882.746	-38.57
882.918	78.16
883.09	10.58
883.262	10.58
883.434	-16.04
883.606	-9.9
883.778	33.11
883.95	6.49
884.122	-5.8
884.293	-102.06
884.465	22.87
884.637	10.58
884.809	-9.9
884.98	22.87
885.152	-3.75
885.324	55.64
885.496	-16.04
885.667	22.87
885.839	55.64
886.011	-22.19
886.182	10.58
886.354	39.25
886.525	-1.71
886.697	4.44
886.869	-5.8
887.04	8.53
887.212	-5.8
887.383	-3.75
887.555	26.96
887.726	-32.43
887.897	35.16
888.069	6.49
888.24	92.5
888.412	0.34
888.583	-1.71
888.754	29.01
888.926	-67.24
889.097	-40.62
889.268	10.58
889.44	84.31
889.611	12.63
889.782	-57
889.953	8.53
890.125	16.73
890.296	-89.77
890.467	-13.99
890.638	-18.09
890.809	49.49
890.98	-48.81
891.151	-16.04
891.323	4.44
891.494	20.82
891.665	-48.81
891.836	65.88
892.007	-54.95
892.178	-26.28
892.349	0.34
892.52	-18.09
892.691	2.39
892.862	16.73
893.032	-91.82
893.203	-9.9
893.374	-3.75
893.545	94.55
893.716	-40.62
893.887	-3.75
894.057	-26.28
894.228	-3.75
894.399	-7.85
894.57	88.4
894.74	-16.04
894.911	14.68
895.082	-52.91
895.253	-3.75
895.423	-24.23
895.594	4.44
895.764	96.6
895.935	-18.09
896.106	16.73
896.276	-9.9
896.447	-7.85
896.617	-16.04
896.788	-44.71
896.958	-50.86
897.129	8.53
897.299	-20.14
897.47	4.44
897.64	8.53
897.81	-38.57
897.981	-1.71
898.151	29.01
898.322	6.49
898.492	20.82
898.662	-32.43
898.832	20.82
899.003	-16.04
899.173	24.92
899.343	-32.43
899.513	-7.85
