Data from USB4F104151__188__11-09-42-442.txt Node

Date: Wed Mar 12 11:09:42 EDT 2025
User: louis
Spectrometer: USB4F10415
Trigger mode: 4
Integration Time (sec): 2.000000E-2
Scans to average: 1
Electric dark correction enabled: true
Nonlinearity correction enabled: false
Boxcar width: 0
XAxis mode: Wavelengths
Number of Pixels in Spectrum: 3648
>>>>>Begin Spectral Data<<<<<
178.204	-56.83
178.424	-56.83
178.644	-56.83
178.864	-62.98
179.084	-58.88
179.304	-54.78
179.524	-58.88
179.744	12.8
179.964	31.23
180.184	10.75
180.404	-60.93
180.624	-36.35
180.844	53.76
181.064	-17.92
181.283	80.38
181.503	-11.78
181.723	51.71
181.943	-19.97
182.163	88.57
182.383	4.61
182.602	4.61
182.822	20.99
183.042	45.57
183.262	-17.92
183.482	104.96
183.701	10.75
183.921	23.04
184.141	12.8
184.361	0.51
184.58	14.85
184.8	-62.98
185.02	35.33
185.239	14.85
185.459	6.66
185.679	6.66
185.898	39.42
186.118	8.7
186.338	-11.78
186.557	33.28
186.777	-30.21
186.997	-46.59
187.216	-103.93
187.436	70.14
187.655	45.57
187.875	18.94
188.095	49.66
188.314	27.14
188.534	16.9
188.753	8.7
188.973	25.09
189.192	104.96
189.412	-26.11
189.631	33.28
189.851	47.62
190.07	41.47
190.29	-13.82
190.509	43.52
190.729	27.14
190.948	-69.12
191.168	57.86
191.387	-11.78
191.607	-60.93
191.826	25.09
192.045	61.95
192.265	45.57
192.484	-17.92
192.704	-1.54
192.923	8.7
193.142	35.33
193.362	23.04
193.581	98.81
193.8	-22.02
194.02	4.61
194.239	-54.78
194.458	68.09
194.678	68.09
194.897	43.52
195.116	-28.16
195.335	66.05
195.555	0.51
195.774	0.51
195.993	35.33
196.212	16.9
196.432	29.18
196.651	23.04
196.87	6.66
197.089	47.62
197.308	109.05
197.528	23.04
197.747	23.04
197.966	66.05
198.185	6.66
198.404	61.95
198.623	-19.97
198.842	37.38
199.062	59.9
199.281	25.09
199.5	-50.69
199.719	-7.68
199.938	76.29
200.157	-11.78
200.376	12.8
200.595	68.09
200.814	45.57
201.033	98.81
201.252	33.28
201.471	27.14
201.69	59.9
201.909	41.47
202.128	14.85
202.347	-11.78
202.566	6.66
202.785	29.18
203.004	-46.59
203.223	23.04
203.442	16.9
203.661	31.23
203.879	-26.11
204.098	59.9
204.317	-44.54
204.536	86.53
204.755	25.09
204.974	33.28
205.193	33.28
205.411	31.23
205.63	6.66
205.849	74.24
206.068	43.52
206.287	-60.93
206.505	18.94
206.724	47.62
206.943	-9.73
207.162	45.57
207.381	29.18
207.599	-56.83
207.818	-42.5
208.037	-54.78
208.255	14.85
208.474	20.99
208.693	0.51
208.911	6.66
209.13	66.05
209.349	-7.68
209.567	14.85
209.786	0.51
210.005	-13.82
210.223	29.18
210.442	12.8
210.661	-58.88
210.879	53.76
211.098	2.56
211.316	51.71
211.535	43.52
211.753	14.85
211.972	-5.63
212.191	-28.16
212.409	-3.58
212.628	45.57
212.846	45.57
213.065	25.09
213.283	-3.58
213.502	27.14
213.72	-44.54
213.938	12.8
214.157	-42.5
214.375	41.47
214.594	23.04
214.812	49.66
215.031	-19.97
215.249	-17.92
215.467	2.56
215.686	0.51
215.904	53.76
216.122	35.33
216.341	-1.54
216.559	47.62
216.778	-32.26
216.996	100.86
217.214	55.81
217.432	-3.58
217.651	-24.06
217.869	82.43
218.087	-42.5
218.306	80.38
218.524	35.33
218.742	-48.64
218.96	33.28
219.179	-42.5
219.397	66.05
219.615	-11.78
219.833	33.28
220.051	-3.58
220.27	31.23
220.488	39.42
220.706	12.8
220.924	66.05
221.142	-15.87
221.36	-15.87
221.578	4.61
221.796	16.9
222.015	29.18
222.233	-34.3
222.451	12.8
222.669	16.9
222.887	29.18
223.105	43.52
223.323	14.85
223.541	-3.58
223.759	29.18
223.977	51.71
224.195	82.43
224.413	-26.11
224.631	61.95
224.849	6.66
225.067	70.14
225.285	90.62
225.503	-32.26
225.721	35.33
225.939	10.75
226.157	20.99
226.375	135.68
226.592	31.23
226.81	53.76
227.028	74.24
227.246	16.9
227.464	-5.63
227.682	0.51
227.9	33.28
228.117	8.7
228.335	47.62
228.553	-54.78
228.771	8.7
228.989	4.61
229.206	-3.58
229.424	0.51
229.642	4.61
229.86	-5.63
230.077	-36.35
230.295	25.09
230.513	49.66
230.731	29.18
230.948	31.23
231.166	27.14
231.384	20.99
231.601	64
231.819	64
232.037	-7.68
232.254	80.38
232.472	45.57
232.689	-30.21
232.907	0.51
233.125	-26.11
233.342	4.61
233.56	16.9
233.777	39.42
233.995	20.99
234.213	133.63
234.43	33.28
234.648	-28.16
234.865	8.7
235.083	43.52
235.3	74.24
235.518	10.75
235.735	94.72
235.953	53.76
236.17	10.75
236.388	41.47
236.605	0.51
236.822	47.62
237.04	53.76
237.257	0.51
237.475	23.04
237.692	18.94
237.909	18.94
238.127	-7.68
238.344	-17.92
238.562	53.76
238.779	37.38
238.996	-13.82
239.214	47.62
239.431	29.18
239.648	39.42
239.865	8.7
240.083	33.28
240.3	39.42
240.517	43.52
240.735	45.57
240.952	45.57
241.169	57.86
241.386	-30.21
241.603	35.33
241.821	-22.02
242.038	100.86
242.255	51.71
242.472	-62.98
242.689	-24.06
242.907	20.99
243.124	-42.5
243.341	25.09
243.558	-38.4
243.775	37.38
243.992	-22.02
244.209	-44.54
244.426	29.18
244.643	-3.58
244.86	0.51
245.078	23.04
245.295	33.28
245.512	-28.16
245.729	-1.54
245.946	33.28
246.163	-11.78
246.38	-24.06
246.597	37.38
246.814	-22.02
247.031	-17.92
247.248	68.09
247.464	-15.87
247.681	31.23
247.898	18.94
248.115	111.1
248.332	86.53
248.549	25.09
248.766	104.96
248.983	10.75
249.2	111.1
249.417	10.75
249.633	6.66
249.85	37.38
250.067	-62.98
250.284	25.09
250.501	20.99
250.717	61.95
250.934	53.76
251.151	-28.16
251.368	-1.54
251.585	43.52
251.801	-36.35
252.018	29.18
252.235	25.09
252.451	-19.97
252.668	2.56
252.885	47.62
253.102	-15.87
253.318	16.9
253.535	-40.45
253.752	23.04
253.968	29.18
254.185	8.7
254.401	29.18
254.618	35.33
254.835	-34.3
255.051	-5.63
255.268	14.85
255.484	78.33
255.701	-11.78
255.917	31.23
256.134	2.56
256.351	-17.92
256.567	2.56
256.784	12.8
257	-5.63
257.217	35.33
257.433	37.38
257.65	25.09
257.866	82.43
258.082	8.7
258.299	-65.02
258.515	18.94
258.732	14.85
258.948	74.24
259.165	-22.02
259.381	-65.02
259.597	8.7
259.814	0.51
260.03	51.71
260.246	-1.54
260.463	20.99
260.679	-17.92
260.895	55.81
261.112	25.09
261.328	-11.78
261.544	-46.59
261.761	27.14
261.977	49.66
262.193	6.66
262.409	45.57
262.626	-28.16
262.842	33.28
263.058	-28.16
263.274	14.85
263.49	35.33
263.707	16.9
263.923	29.18
264.139	41.47
264.355	61.95
264.571	45.57
264.787	8.7
265.004	6.66
265.22	47.62
265.436	-79.36
265.652	-1.54
265.868	-11.78
266.084	-36.35
266.3	0.51
266.516	-42.5
266.732	39.42
266.948	-56.83
267.164	111.1
267.38	14.85
267.596	37.38
267.812	113.15
268.028	68.09
268.244	35.33
268.46	47.62
268.676	-32.26
268.892	80.38
269.108	-3.58
269.324	-36.35
269.54	14.85
269.756	90.62
269.972	43.52
270.188	-15.87
270.403	49.66
270.619	27.14
270.835	-44.54
271.051	68.09
271.267	-13.82
271.483	-7.68
271.698	-38.4
271.914	41.47
272.13	0.51
272.346	0.51
272.562	16.9
272.777	61.95
272.993	-15.87
273.209	-22.02
273.425	-7.68
273.64	57.86
273.856	-38.4
274.072	10.75
274.287	35.33
274.503	39.42
274.719	37.38
274.934	-19.97
275.15	39.42
275.366	55.81
275.581	47.62
275.797	23.04
276.012	-1.54
276.228	4.61
276.444	70.14
276.659	-15.87
276.875	12.8
277.09	-44.54
277.306	55.81
277.521	37.38
277.737	-40.45
277.952	37.38
278.168	80.38
278.383	-11.78
278.599	-1.54
278.814	35.33
279.03	35.33
279.245	27.14
279.461	20.99
279.676	74.24
279.892	39.42
280.107	4.61
280.322	12.8
280.538	41.47
280.753	-42.5
280.969	-32.26
281.184	10.75
281.399	35.33
281.615	-22.02
281.83	12.8
282.045	-48.64
282.26	4.61
282.476	33.28
282.691	35.33
282.906	35.33
283.122	57.86
283.337	-40.45
283.552	23.04
283.767	8.7
283.983	72.19
284.198	18.94
284.413	43.52
284.628	16.9
284.843	47.62
285.058	84.48
285.274	66.05
285.489	10.75
285.704	18.94
285.919	61.95
286.134	35.33
286.349	47.62
286.564	0.51
286.779	125.44
286.995	8.7
287.21	53.76
287.425	-1.54
287.64	86.53
287.855	80.38
288.07	53.76
288.285	14.85
288.5	-7.68
288.715	23.04
288.93	-17.92
289.145	10.75
289.36	16.9
289.575	29.18
289.79	25.09
290.004	41.47
290.219	74.24
290.434	109.05
290.649	-130.56
290.864	-17.92
291.079	72.19
291.294	98.81
291.509	29.18
291.724	23.04
291.938	-32.26
292.153	61.95
292.368	27.14
292.583	4.61
292.798	-52.74
293.012	37.38
293.227	14.85
293.442	-7.68
293.657	8.7
293.871	68.09
294.086	29.18
294.301	27.14
294.516	53.76
294.73	68.09
294.945	12.8
295.16	43.52
295.374	35.33
295.589	20.99
295.804	8.7
296.018	57.86
296.233	-15.87
296.447	96.77
296.662	-26.11
296.877	10.75
297.091	102.91
297.306	20.99
297.52	-1.54
297.735	20.99
297.949	-1.54
298.164	33.28
298.378	-5.63
298.593	8.7
298.807	20.99
299.022	43.52
299.236	20.99
299.451	25.09
299.665	25.09
299.88	55.81
300.094	55.81
300.309	72.19
300.523	70.14
300.737	10.75
300.952	29.18
301.166	-7.68
301.381	-13.82
301.595	-13.82
301.809	43.52
302.024	0.51
302.238	18.94
302.452	29.18
302.667	92.67
302.881	94.72
303.095	66.05
303.309	76.29
303.524	-13.82
303.738	53.76
303.952	16.9
304.166	12.8
304.381	29.18
304.595	8.7
304.809	-62.98
305.023	37.38
305.237	-44.54
305.452	-1.54
305.666	31.23
305.88	37.38
306.094	-9.73
306.308	-13.82
306.522	39.42
306.736	-19.97
306.95	2.56
307.164	-3.58
307.379	-58.88
307.593	49.66
307.807	0.51
308.021	20.99
308.235	45.57
308.449	10.75
308.663	-28.16
308.877	53.76
309.091	-54.78
309.305	27.14
309.519	76.29
309.733	82.43
309.947	2.56
310.161	59.9
310.374	-1.54
310.588	66.05
310.802	10.75
311.016	-13.82
311.23	49.66
311.444	-46.59
311.658	33.28
311.872	25.09
312.085	98.81
312.299	117.25
312.513	31.23
312.727	45.57
312.941	-22.02
313.154	-17.92
313.368	20.99
313.582	-1.54
313.796	47.62
314.009	41.47
314.223	80.38
314.437	29.18
314.651	33.28
314.864	18.94
315.078	-19.97
315.292	4.61
315.505	39.42
315.719	8.7
315.933	-11.78
316.146	-5.63
316.36	-26.11
316.573	25.09
316.787	-15.87
317.001	0.51
317.214	0.51
317.428	-36.35
317.641	27.14
317.855	14.85
318.068	29.18
318.282	-11.78
318.495	14.85
318.709	43.52
318.922	59.9
319.136	-5.63
319.349	29.18
319.563	68.09
319.776	8.7
319.99	20.99
320.203	70.14
320.417	20.99
320.63	55.81
320.843	37.38
321.057	55.81
321.27	78.33
321.483	51.71
321.697	45.57
321.91	-46.59
322.124	78.33
322.337	-17.92
322.55	20.99
322.763	-15.87
322.977	68.09
323.19	47.62
323.403	-1.54
323.617	-28.16
323.83	61.95
324.043	-26.11
324.256	-19.97
324.469	4.61
324.683	33.28
324.896	-83.45
325.109	64
325.322	-85.5
325.535	68.09
325.748	43.52
325.962	16.9
326.175	-42.5
326.388	29.18
326.601	-60.93
326.814	37.38
327.027	-7.68
327.24	70.14
327.453	14.85
327.666	66.05
327.879	39.42
328.092	12.8
328.305	29.18
328.518	12.8
328.731	-52.74
328.944	70.14
329.157	16.9
329.37	35.33
329.583	35.33
329.796	45.57
330.009	-32.26
330.222	47.62
330.435	31.23
330.648	39.42
330.861	4.61
331.073	2.56
331.286	-34.3
331.499	74.24
331.712	-15.87
331.925	12.8
332.138	2.56
332.35	55.81
332.563	-7.68
332.776	78.33
332.989	16.9
333.202	-65.02
333.414	-30.21
333.627	33.28
333.84	-28.16
334.053	72.19
334.265	57.86
334.478	-34.3
334.691	20.99
334.903	-5.63
335.116	-11.78
335.329	33.28
335.541	8.7
335.754	133.63
335.966	-48.64
336.179	45.57
336.392	66.05
336.604	37.38
336.817	27.14
337.029	33.28
337.242	2.56
337.454	29.18
337.667	6.66
337.88	33.28
338.092	39.42
338.305	2.56
338.517	-1.54
338.729	31.23
338.942	-38.4
339.154	39.42
339.367	10.75
339.579	66.05
339.792	51.71
340.004	-3.58
340.217	12.8
340.429	6.66
340.641	-65.02
340.854	-5.63
341.066	16.9
341.278	80.38
341.491	109.05
341.703	-40.45
341.915	-24.06
342.128	68.09
342.34	6.66
342.552	-34.3
342.764	16.9
342.977	78.33
343.189	78.33
343.401	25.09
343.613	-65.02
343.826	0.51
344.038	10.75
344.25	49.66
344.462	-7.68
344.674	8.7
344.886	0.51
345.099	80.38
345.311	27.14
345.523	86.53
345.735	12.8
345.947	27.14
346.159	-13.82
346.371	25.09
346.583	6.66
346.795	33.28
347.007	-15.87
347.219	61.95
347.431	14.85
347.643	64
347.855	72.19
348.067	94.72
348.279	-99.84
348.491	92.67
348.703	2.56
348.915	-15.87
349.127	-9.73
349.339	51.71
349.551	43.52
349.763	78.33
349.975	35.33
350.187	2.56
350.399	51.71
350.61	-13.82
350.822	23.04
351.034	82.43
351.246	47.62
351.458	61.95
351.669	27.14
351.881	10.75
352.093	117.25
352.305	14.85
352.517	8.7
352.728	70.14
352.94	4.61
353.152	23.04
353.363	31.23
353.575	86.53
353.787	23.04
353.999	78.33
354.21	-19.97
354.422	29.18
354.633	-11.78
354.845	10.75
355.057	23.04
355.268	-9.73
355.48	61.95
355.692	-5.63
355.903	45.57
356.115	-30.21
356.326	-48.64
356.538	82.43
356.749	59.9
356.961	35.33
357.172	-3.58
357.384	0.51
357.595	31.23
357.807	29.18
358.018	74.24
358.23	27.14
358.441	35.33
358.653	49.66
358.864	23.04
359.075	55.81
359.287	-11.78
359.498	-34.3
359.709	-19.97
359.921	84.48
360.132	-81.41
360.344	4.61
360.555	-19.97
360.766	33.28
360.977	-81.41
361.189	84.48
361.4	18.94
361.611	23.04
361.823	49.66
362.034	-1.54
362.245	49.66
362.456	16.9
362.667	51.71
362.879	-11.78
363.09	-7.68
363.301	-15.87
363.512	70.14
363.723	27.14
363.935	12.8
364.146	35.33
364.357	14.85
364.568	-3.58
364.779	51.71
364.99	53.76
365.201	-22.02
365.412	72.19
365.623	-24.06
365.834	64
366.045	4.61
366.256	23.04
366.467	20.99
366.678	14.85
366.889	-19.97
367.1	-5.63
367.311	33.28
367.522	4.61
367.733	4.61
367.944	10.75
368.155	27.14
368.366	78.33
368.577	20.99
368.788	117.25
368.999	-3.58
369.209	16.9
369.42	45.57
369.631	8.7
369.842	55.81
370.053	25.09
370.264	84.48
370.474	61.95
370.685	70.14
370.896	31.23
371.107	18.94
371.317	66.05
371.528	29.18
371.739	45.57
371.95	6.66
372.16	-15.87
372.371	-73.21
372.582	-38.4
372.792	66.05
373.003	51.71
373.214	-48.64
373.424	10.75
373.635	2.56
373.846	33.28
374.056	33.28
374.267	-1.54
374.477	-52.74
374.688	18.94
374.898	-7.68
375.109	-13.82
375.319	96.77
375.53	64
375.74	31.23
375.951	10.75
376.161	-26.11
376.372	18.94
376.582	-9.73
376.793	37.38
377.003	-56.83
377.214	-9.73
377.424	-5.63
377.635	-7.68
377.845	-42.5
378.055	29.18
378.266	2.56
378.476	80.38
378.686	-15.87
378.897	-26.11
379.107	35.33
379.317	8.7
379.528	61.95
379.738	125.44
379.948	45.57
380.158	53.76
380.369	33.28
380.579	59.9
380.789	-1.54
380.999	78.33
381.21	33.28
381.42	82.43
381.63	20.99
381.84	33.28
382.05	-9.73
382.261	78.33
382.471	64
382.681	-24.06
382.891	47.62
383.101	6.66
383.311	-67.07
383.521	-9.73
383.731	78.33
383.941	59.9
384.151	12.8
384.361	98.81
384.571	-3.58
384.781	14.85
384.991	72.19
385.201	45.57
385.411	16.9
385.621	-5.63
385.831	6.66
386.041	61.95
386.251	121.34
386.461	61.95
386.671	-24.06
386.881	88.57
387.091	86.53
387.301	-3.58
387.511	-36.35
387.72	-1.54
387.93	98.81
388.14	20.99
388.35	123.39
388.56	64
388.769	-58.88
388.979	90.62
389.189	-28.16
389.399	35.33
389.609	66.05
389.818	78.33
390.028	18.94
390.238	129.53
390.447	-1.54
390.657	64
390.867	39.42
391.076	45.57
391.286	100.86
391.496	98.81
391.705	23.04
391.915	72.19
392.125	76.29
392.334	14.85
392.544	74.24
392.753	49.66
392.963	39.42
393.172	55.81
393.382	20.99
393.591	-30.21
393.801	14.85
394.01	-19.97
394.22	-19.97
394.429	-13.82
394.639	14.85
394.848	59.9
395.058	82.43
395.267	6.66
395.477	41.47
395.686	82.43
395.895	33.28
396.105	131.58
396.314	25.09
396.524	31.23
396.733	12.8
396.942	-13.82
397.152	76.29
397.361	84.48
397.57	78.33
397.78	47.62
397.989	66.05
398.198	98.81
398.407	78.33
398.617	20.99
398.826	64
399.035	78.33
399.244	78.33
399.453	96.77
399.663	127.49
399.872	33.28
400.081	64
400.29	53.76
400.499	102.91
400.708	68.09
400.917	29.18
401.127	37.38
401.336	2.56
401.545	61.95
401.754	98.81
401.963	139.77
402.172	197.12
402.381	23.04
402.59	78.33
402.799	76.29
403.008	61.95
403.217	100.86
403.426	37.38
403.635	100.86
403.844	90.62
404.053	98.81
404.262	-11.78
404.471	152.06
404.68	96.77
404.888	84.48
405.097	121.34
405.306	45.57
405.515	162.3
405.724	168.45
405.933	100.86
406.142	47.62
406.35	80.38
406.559	129.53
406.768	123.39
406.977	236.03
407.185	123.39
407.394	135.68
407.603	125.44
407.812	98.81
408.02	176.64
408.229	137.73
408.438	162.3
408.646	133.63
408.855	127.49
409.064	203.26
409.272	117.25
409.481	141.82
409.69	158.21
409.898	205.31
410.107	221.69
410.315	186.88
410.524	115.2
410.733	225.79
410.941	217.6
411.15	279.04
411.358	215.55
411.567	211.45
411.775	236.03
411.984	193.02
412.192	264.7
412.401	221.69
412.609	217.6
412.818	246.27
413.026	270.84
413.234	330.23
413.443	375.29
413.651	305.66
413.86	254.46
414.068	406.01
414.276	328.19
414.485	356.86
414.693	338.43
414.901	344.57
415.11	354.81
415.318	432.63
415.526	432.63
415.734	481.78
415.943	408.06
416.151	483.83
416.359	414.2
416.567	485.88
416.776	446.97
416.984	506.36
417.192	518.65
417.4	526.84
417.608	530.94
417.817	596.47
418.025	590.33
418.233	606.71
418.441	653.81
418.649	649.72
418.857	682.49
419.065	680.44
419.273	662.01
419.481	700.92
419.689	885.23
419.897	795.12
420.105	840.18
420.313	766.45
420.521	997.87
420.729	905.71
420.937	938.48
421.145	920.05
421.353	1006.06
421.561	1038.83
421.769	1184.24
421.977	1110.51
422.185	1165.81
422.393	1139.18
422.601	1262.06
422.809	1296.88
423.017	1245.68
423.224	1313.26
423.432	1346.03
423.64	1417.71
423.848	1473
424.056	1479.15
424.263	1618.41
424.471	1614.31
424.679	1659.37
424.887	1677.8
425.094	1790.44
425.302	1722.85
425.51	1851.88
425.718	1827.3
425.925	1941.99
426.133	1917.41
426.341	2071.01
426.548	2136.54
426.756	2105.82
426.964	2144.74
427.171	2306.52
427.379	2384.35
427.586	2413.02
427.794	2546.14
428.001	2568.66
428.209	2619.86
428.417	2494.94
428.624	2957.78
428.832	2879.96
429.039	2849.24
429.247	2912.72
429.454	3158.48
429.662	3299.79
429.869	3031.51
430.076	3322.32
430.284	3181.01
430.491	3172.82
430.699	3570.12
430.906	3553.74
431.114	3686.86
431.321	3795.4
431.528	3842.5
431.736	4035.01
431.943	4100.55
432.15	4082.11
432.358	4149.7
432.565	4286.91
432.772	4415.93
432.979	4561.34
433.187	4671.93
433.394	4700.6
433.601	5018.04
433.808	4954.55
434.016	4921.78
434.223	5118.39
434.43	5491.12
434.637	5409.2
434.844	5874.09
435.052	5716.39
435.259	5857.7
435.466	5882.28
435.673	5767.59
435.88	6277.54
436.087	6574.49
436.294	6406.56
436.501	6255.01
436.708	6330.78
436.915	6721.95
437.122	6984.09
437.329	6982.04
437.537	7129.49
437.743	7109.01
437.95	7139.73
438.157	7704.97
438.364	7936.39
438.571	7741.83
438.778	7698.83
438.985	8702.33
439.192	8253.83
439.399	8546.69
439.606	8280.45
439.813	8798.59
440.02	9386.35
440.227	9275.76
440.433	9128.31
440.64	9318.77
440.847	9345.39
441.054	9427.31
441.261	10053.99
441.467	10318.18
441.674	10217.83
441.881	10568.03
442.088	10482.02
442.294	10455.39
442.501	10746.2
442.708	10844.51
442.914	11243.86
443.121	11946.31
443.328	11475.28
443.534	12271.94
443.741	11991.37
443.948	11790.67
444.154	12673.34
444.361	12611.9
444.568	12558.66
444.774	12720.45
444.981	12865.85
445.187	13316.4
445.394	13742.38
445.6	13545.78
445.807	15159.58
446.013	14201.13
446.22	14553.38
446.426	14872.86
446.633	15112.47
446.839	15800.59
447.046	15309.08
447.252	15714.58
447.459	15929.61
447.665	15726.86
447.871	16574.72
448.078	16969.98
448.284	16294.15
448.491	16703.75
448.697	17490.17
448.903	17991.92
449.11	17975.53
449.316	17508.6
449.522	17668.34
449.728	18528.49
449.935	18479.33
450.141	18583.78
450.347	19136.73
450.553	18104.56
450.76	18489.57
450.966	19048.67
451.172	19003.61
451.378	19151.07
451.584	18809.06
451.791	19398.87
451.997	19364.06
452.203	19558.61
452.409	19339.48
452.615	19417.3
452.821	18612.45
453.027	18569.44
453.233	19577.05
453.44	18876.64
453.646	19085.53
453.852	19036.38
454.058	19599.57
454.264	18540.77
454.47	18927.84
454.676	18753.76
454.882	19325.15
455.088	17547.51
455.294	17910
455.5	18157.8
455.705	18333.93
455.911	17645.81
456.117	17361.14
456.323	17070.33
456.529	16089.35
456.735	16828.67
456.941	16431.37
457.147	16021.77
457.352	15622.42
457.558	15300.89
457.764	15278.36
457.97	15116.57
458.176	14580
458.381	14711.07
458.587	13922.6
458.793	14055.72
458.999	13359.41
459.204	14446.88
459.41	13730.09
459.616	13007.16
459.821	12771.65
460.027	12908.86
460.233	12544.32
460.438	12071.24
460.644	11985.23
460.85	11632.97
461.055	11413.84
461.261	11381.07
461.466	10529.12
461.672	10041.7
461.878	10789.21
462.083	10051.94
462.289	10060.13
462.494	9879.91
462.7	9314.67
462.905	9406.83
463.111	9478.51
463.316	9562.48
463.522	9269.62
463.727	9296.24
463.932	9404.78
464.138	9384.3
464.343	9152.88
464.549	9097.59
464.754	9208.18
464.959	9212.28
465.165	9171.32
465.37	8876.41
465.575	8526.21
465.781	8763.77
465.986	9128.31
466.191	8667.52
466.397	8450.43
466.602	7885.19
466.807	8380.8
467.012	8460.67
467.218	8262.02
467.423	8245.63
467.628	8118.66
467.833	8706.43
468.038	8354.18
468.244	8083.84
468.449	8296.83
468.654	8059.27
468.859	8044.93
469.064	8067.46
469.269	7709.07
469.474	7756.17
469.679	8178.05
469.885	7727.5
470.09	7768.46
470.295	7721.35
470.5	7569.8
470.705	7520.65
470.91	7539.08
471.115	7356.82
471.32	7330.19
471.525	7539.08
471.73	7162.26
471.935	7176.59
472.139	6893.97
472.344	7035.28
472.549	7012.76
472.754	6910.36
472.959	6920.6
473.164	6504.86
473.369	6556.06
473.574	6781.34
473.778	6672.79
473.983	6713.75
474.188	6582.68
474.393	6545.82
474.598	6465.95
474.802	6308.26
475.007	6283.68
475.212	6328.74
475.417	6015.4
475.621	5982.63
475.826	6062.5
476.031	5984.68
476.235	5855.65
476.44	5788.07
476.645	5808.55
476.849	5839.27
477.054	5665.19
477.259	5556.65
477.463	5630.38
477.668	5454.25
477.872	5786.02
478.077	5583.27
478.282	5296.56
478.486	5429.68
478.691	5339.57
478.895	5259.7
479.1	5370.29
479.304	5308.85
479.509	5185.97
479.713	5265.84
479.918	5102
480.122	4954.55
480.326	5011.89
480.531	5171.63
480.735	5063.09
480.94	4944.31
481.144	5181.87
481.348	4848.05
481.553	5079.47
481.757	4919.73
481.961	5015.99
482.166	5116.34
482.37	4932.02
482.574	4886.97
482.778	4948.4
482.983	5034.42
483.187	4813.24
483.391	5024.18
483.595	4913.59
483.8	4862.39
484.004	4870.58
484.208	5036.47
484.412	4977.08
484.616	5018.04
484.821	4780.47
485.025	4665.78
485.229	4841.91
485.433	4835.77
485.637	4921.78
485.841	4858.29
486.045	4977.08
486.249	4854.2
486.453	4909.49
486.657	4843.96
486.861	5157.3
487.065	4923.83
487.269	4733.37
487.473	4866.49
487.677	4768.18
487.881	4964.79
488.085	4841.91
488.289	4964.79
488.493	4907.45
488.697	4934.07
488.901	4903.35
489.105	4964.79
489.309	4946.36
489.512	4993.46
489.716	4815.29
489.92	4993.46
490.124	4977.08
490.328	4997.56
490.531	5013.94
490.735	4952.5
490.939	5009.84
491.143	4946.36
491.346	4997.56
491.55	5030.32
491.754	5054.9
491.958	5058.99
492.161	5136.82
492.365	5093.81
492.569	5114.29
492.772	5124.53
492.976	5237.17
493.18	5222.83
493.383	5411.25
493.587	5257.65
493.79	5319.09
493.994	5310.89
494.197	5452.2
494.401	5419.44
494.605	5401.01
494.808	5419.44
495.012	5394.86
495.215	5552.56
495.419	5730.73
495.622	5478.83
495.825	5611.95
496.029	5667.24
496.232	5837.22
496.436	5794.22
496.639	5753.26
496.843	5943.72
497.046	5984.68
497.249	5816.74
497.453	6177.19
497.656	6091.17
497.859	6134.18
498.063	6416.8
498.266	6308.26
498.469	6326.69
498.673	6277.54
498.876	6347.17
499.079	6508.96
499.282	6549.92
499.485	6627.74
499.689	6738.33
499.892	6902.17
500.095	6826.39
500.298	7131.54
500.501	6836.63
500.705	7221.65
500.908	7102.87
501.111	7365.01
501.314	7381.39
501.517	7442.83
501.72	7567.76
501.923	7477.65
502.126	7833.99
502.329	7848.33
502.532	7831.94
502.735	7928.2
502.938	8176
503.141	8071.56
503.344	8085.89
503.547	8255.87
503.75	8276.35
503.953	8341.89
504.156	8591.74
504.359	8683.9
504.562	8550.78
504.765	9015.67
504.968	9034.1
505.17	9079.16
505.373	9038.2
505.576	9193.84
505.779	9449.84
505.982	9429.36
506.185	9527.66
506.387	9599.34
506.59	9851.24
506.793	9797.99
506.996	9869.67
507.198	10131.81
507.401	9965.93
507.604	10238.31
507.807	10365.28
508.009	10482.02
508.212	10449.25
508.415	10705.24
508.617	10799.45
508.82	10807.64
509.022	10643.81
509.225	11034.97
509.428	11170.13
509.63	11141.46
509.833	11202.9
510.035	11514.19
510.238	11645.26
510.44	11649.36
510.643	11753.8
510.845	11815.24
511.048	11891.02
511.25	12128.58
511.453	12294.47
511.655	12708.16
511.858	12362.05
512.06	12353.86
512.262	12775.74
512.465	12693.82
512.667	13132.09
512.87	13025.59
513.072	12984.63
513.274	13365.56
513.477	13461.81
513.679	13607.22
513.881	13963.56
514.084	13955.37
514.286	14108.97
514.488	14063.91
514.69	14321.96
514.893	14592.29
515.095	14606.63
515.297	14516.51
515.499	14704.93
515.701	15096.09
515.904	15337.75
516.106	15339.8
516.308	15554.83
516.51	15667.47
516.712	15644.95
516.914	15763.73
517.116	16113.93
517.318	16079.11
517.52	16099.59
517.722	16451.84
517.925	16709.89
518.127	16886.01
518.329	16709.89
518.531	16744.7
518.733	17137.91
518.935	17260.79
519.136	17244.41
519.338	17686.77
519.54	17672.43
519.742	18047.21
519.944	17938.67
520.146	18149.61
520.348	18202.86
520.55	18591.97
520.752	18581.73
520.954	19181.79
521.155	18774.24
521.357	18903.26
521.559	19339.48
521.761	19611.86
521.963	19548.37
522.164	19572.95
522.366	19618
522.568	19976.4
522.77	20123.85
522.971	20500.68
523.173	20410.57
523.375	20625.61
523.576	20611.27
523.778	20543.69
523.98	20844.74
524.181	21104.83
524.383	21006.53
524.584	21074.11
524.786	21248.19
524.988	21424.31
525.189	21700.79
525.391	22018.22
525.592	21858.48
525.794	22061.23
525.995	22100.14
526.197	22028.46
526.398	22229.16
526.6	22755.49
526.801	22429.87
527.003	22595.75
527.204	23070.88
527.406	23077.02
527.607	22669.48
527.808	23173.28
528.01	22929.57
528.211	23314.59
528.412	23367.84
528.614	23382.17
528.815	23144.61
529.016	23574.68
529.218	23451.8
529.419	23482.52
529.62	23632.02
529.822	23488.67
530.023	23744.66
530.224	23734.42
530.425	23928.98
530.626	23525.53
530.828	23599.26
531.029	24385.68
531.23	23681.17
531.431	24037.52
531.632	24113.3
531.833	24453.26
532.035	23787.67
532.236	24373.39
532.437	24371.34
532.638	24367.24
532.839	24117.39
533.04	24512.65
533.241	24367.24
533.442	24705.16
533.643	24565.9
533.844	24400.01
534.045	24266.89
534.246	24125.58
534.447	24957.06
534.648	24340.62
534.849	24721.54
535.05	24301.71
535.251	24608.9
535.451	24688.78
535.652	24985.73
535.853	24451.21
536.054	24817.8
536.255	24735.88
536.456	24676.49
536.657	25165.95
536.857	24621.19
537.058	24901.76
537.259	25038.98
537.46	24813.7
537.66	24770.69
537.861	24737.93
538.062	24869
538.263	24907.91
538.463	24813.7
538.664	24850.56
538.865	24905.86
539.065	24733.83
539.266	24512.65
539.466	25196.67
539.667	24524.94
539.868	25178.24
540.068	24653.96
540.269	24795.27
540.469	24979.59
540.67	24838.28
540.87	24823.94
541.071	24625.29
541.271	24940.68
541.472	24840.32
541.672	24828.04
541.873	24555.66
542.073	24354.96
542.274	25196.67
542.474	24719.49
542.675	24397.96
542.875	24973.44
543.075	24858.76
543.276	24338.57
543.476	25239.68
543.676	24717.45
543.877	24526.99
544.077	25028.74
544.277	24756.36
544.478	24594.57
544.678	24682.63
544.878	24623.24
545.078	25225.34
545.279	24520.84
545.479	24508.55
545.679	25047.17
545.879	24565.9
546.079	24920.2
546.28	24840.32
546.48	24406.16
546.68	24592.52
546.88	24881.28
547.08	24840.32
547.28	24633.48
547.48	24791.17
547.68	24840.32
547.88	24572.04
548.081	24969.35
548.281	24742.02
548.481	24625.29
548.681	24901.76
548.881	24635.53
549.081	24848.52
549.28	24539.27
549.48	24469.64
549.68	24625.29
549.88	25014.4
550.08	24791.17
550.28	24658.06
550.48	24334.48
550.68	24772.74
550.88	24473.74
551.08	24907.91
551.279	24721.54
551.479	24426.64
551.679	24428.68
551.879	24432.78
552.079	24268.94
552.278	24320.14
552.478	24348.81
552.678	24537.23
552.878	24602.76
553.077	24279.18
553.277	24191.12
553.477	24731.78
553.676	24373.39
553.876	24514.7
554.076	24166.54
554.275	24270.99
554.475	24279.18
554.674	24420.49
554.874	24359.05
555.074	24053.9
555.273	24023.19
555.473	24221.84
555.672	24014.99
555.872	23832.72
556.071	24043.67
556.271	24045.71
556.47	23937.17
556.67	23767.19
556.869	23928.98
557.068	24098.96
557.268	23795.86
557.467	23947.41
557.667	23595.16
557.866	23847.06
558.065	23744.66
558.265	23625.88
558.464	23425.18
558.663	23818.39
558.863	23343.26
559.062	23797.91
559.261	23128.22
559.461	23318.68
559.66	23343.26
559.859	23615.64
560.058	23582.87
560.258	23613.59
560.457	23322.78
560.656	23459.99
560.855	23351.45
561.054	23365.79
561.253	22876.32
561.453	23281.82
561.652	23128.22
561.851	23142.56
562.05	22816.93
562.249	22493.35
562.448	22755.49
562.647	23128.22
562.846	22988.96
563.045	22743.2
563.244	22569.13
563.443	22470.83
563.642	22261.93
563.841	22751.4
564.04	22397.1
564.239	22687.91
564.438	22290.6
564.637	22429.87
564.836	22155.44
565.035	22198.45
565.234	21967.02
565.432	22061.23
565.631	21840.05
565.83	21924.02
566.029	22100.14
566.228	21598.39
566.427	21903.54
566.625	21469.37
566.824	21780.66
567.023	21926.07
567.222	21184.7
567.42	21330.11
567.619	21385.4
567.818	21326.01
568.016	21205.18
568.215	21326.01
568.414	20875.46
568.612	21254.33
568.811	20916.42
569.01	21207.23
569.208	20928.7
569.407	21100.73
569.605	20732.1
569.804	20650.18
570.002	20611.27
570.201	20748.48
570.4	20652.23
570.598	20213.96
570.797	20406.47
570.995	20336.84
571.193	19906.77
571.392	20099.28
571.59	20205.77
571.789	20199.63
571.987	19972.3
572.186	20134.09
572.384	19826.9
572.582	19964.11
572.781	19990.73
572.979	19669.2
573.177	19540.18
573.376	19865.81
573.574	19785.94
573.772	19415.26
573.971	19316.95
574.169	19362.01
574.367	19251.42
574.565	19523.8
574.763	18995.42
574.962	19437.78
575.16	19210.46
575.358	19110.11
575.556	19042.53
575.754	19181.79
575.952	18786.53
576.151	18923.74
576.349	18782.43
576.547	18686.18
576.745	18778.34
576.943	18626.79
577.141	18497.77
577.339	18424.04
577.537	18501.86
577.735	18120.94
577.933	18292.97
578.131	18606.31
578.329	18145.52
578.527	18159.85
578.725	18043.12
578.923	18262.25
579.121	17969.39
579.319	17996.01
579.516	18165.99
579.714	18106.6
579.912	17580.28
580.11	17832.18
580.308	17785.07
580.506	17549.56
580.704	17393.91
580.901	17821.94
581.099	17488.12
581.297	17617.14
581.495	17363.19
581.692	17340.66
581.89	17064.19
582.088	17408.25
582.285	17314.04
582.483	17273.08
582.681	17123.58
582.878	17107.19
583.076	16836.86
583.274	16871.68
583.471	16736.51
583.669	16685.31
583.866	16701.7
584.064	16918.78
584.262	16681.22
584.459	16789.76
584.657	16517.38
584.854	16857.34
585.052	16392.45
585.249	16464.13
585.447	16640.26
585.644	16261.38
585.841	16296.2
586.039	16443.65
586.236	16173.32
586.434	15978.76
586.631	16169.23
586.828	15939.85
587.026	15905.04
587.223	16113.93
587.42	15958.28
587.618	15730.96
587.815	15718.67
588.012	15591.7
588.21	15845.65
588.407	15755.54
588.604	15481.11
588.801	15509.78
588.999	15515.92
589.196	15413.52
589.393	15548.69
589.59	15319.32
589.787	15362.33
589.984	15321.37
590.182	15540.5
590.379	15315.22
590.576	15005.98
590.773	15395.09
590.97	15036.7
591.167	15118.62
591.364	14645.54
591.561	14969.12
591.758	14770.46
591.955	15091.99
592.152	14752.03
592.349	14792.99
592.546	14784.8
592.743	14924.06
592.94	14516.51
593.137	14713.12
593.334	14584.1
593.531	14330.15
593.727	14336.29
593.924	14526.75
594.121	14266.66
594.318	14184.74
594.515	14215.46
594.712	14547.23
594.908	14123.3
595.105	14410.02
595.302	13965.61
595.499	14147.88
595.696	13617.46
595.892	14025
596.089	14217.51
596.286	13981.99
596.482	13967.66
596.679	14125.35
596.876	13877.55
597.072	13656.37
597.269	13766.96
597.466	13279.54
597.662	13703.47
597.859	13525.3
598.055	13521.2
598.252	13316.4
598.448	13566.26
598.645	13310.26
598.841	13123.9
599.038	13422.9
599.234	13203.77
599.431	13349.17
599.627	13146.42
599.824	13054.26
600.02	13091.13
600.217	12841.28
600.413	12962.11
600.609	12988.73
600.806	12937.53
601.002	13068.6
601.198	12935.48
601.395	12796.22
601.591	13035.83
601.787	12826.94
601.984	12736.83
602.18	12814.65
602.376	12517.7
602.572	12386.63
602.769	12523.84
602.965	12630.34
603.161	12540.22
603.357	12572.99
603.553	12372.29
603.75	12437.83
603.946	12222.79
604.142	12478.79
604.338	12050.76
604.534	12435.78
604.73	12214.6
604.926	12255.56
605.122	12190.02
605.318	11888.97
605.514	12073.29
605.71	11952.46
605.906	11776.33
606.102	11880.78
606.298	12032.33
606.494	11888.97
606.69	11815.24
606.886	11942.22
607.082	11749.71
607.278	11991.37
607.474	11481.42
607.67	11788.62
607.866	11780.43
608.062	11827.53
608.257	11680.08
608.453	11512.14
608.649	11635.02
608.845	11401.55
609.041	11520.34
609.236	11483.47
609.432	11528.53
609.628	11389.27
609.824	11233.62
610.019	11188.57
610.215	11288.92
610.411	11235.67
610.606	11270.48
610.802	11200.85
610.998	11014.49
611.193	11112.79
611.389	11018.58
611.584	11114.84
611.78	10975.58
611.976	11163.99
612.171	11141.46
612.367	11266.39
612.562	10924.38
612.758	10838.36
612.953	10942.81
613.149	11110.74
613.344	10860.89
613.539	11030.87
613.735	11039.06
613.93	10897.75
614.126	10787.16
614.321	10656.09
614.517	10733.92
614.712	10717.53
614.907	10617.18
615.103	10738.01
615.298	10391.91
615.493	10637.66
615.688	10539.36
615.884	10631.52
616.079	10582.37
616.274	10584.41
616.47	10570.08
616.665	10477.92
616.86	10533.22
617.055	10543.46
617.25	10373.47
617.445	10608.99
617.641	10359.14
617.836	10414.43
618.031	10209.64
618.226	10490.21
618.421	10299.75
618.616	10424.67
618.811	10129.77
619.006	10316.13
619.201	9957.74
619.396	9984.36
619.591	9961.83
619.786	9771.37
619.981	9939.3
620.176	10082.66
620.371	9847.15
620.566	9800.04
620.761	9824.62
620.956	9728.36
621.151	9628.01
621.346	9636.2
621.541	9736.56
621.735	9800.04
621.93	9408.88
622.125	9630.06
622.32	9374.06
622.515	9372.02
622.709	9347.44
622.904	9390.45
623.099	9286
623.294	9212.28
623.488	8954.23
623.683	9288.05
623.878	9134.45
624.072	8978.81
624.267	8982.9
624.462	8870.26
624.656	8831.35
624.851	8812.92
625.046	8894.84
625.24	8679.8
625.435	8581.5
625.629	8532.35
625.824	8493.44
626.018	8530.3
626.213	8489.34
626.407	8477.05
626.602	8479.1
626.796	8395.14
626.991	8231.3
627.185	8337.79
627.38	8370.56
627.574	8098.18
627.768	8182.15
627.963	7989.64
628.157	7940.49
628.352	8106.37
628.546	7973.25
628.74	7854.47
628.935	7745.93
629.129	7965.06
629.323	7745.93
629.517	7649.68
629.712	7727.5
629.906	7809.42
630.1	7414.16
630.294	7582.09
630.489	7539.08
630.683	7541.13
630.877	7555.47
631.071	7387.54
631.265	7559.56
631.459	7313.81
631.653	7141.78
631.848	7223.7
632.042	7188.88
632.236	7301.52
632.43	7125.4
632.624	7229.84
632.818	7029.14
633.012	7139.73
633.206	6963.61
633.4	6967.7
633.594	6939.03
633.788	6971.8
633.982	6955.41
634.176	6781.34
634.369	6877.59
634.563	7025.04
634.757	6748.57
634.951	6578.59
635.145	6697.37
635.339	6615.45
635.533	6488.48
635.726	6670.75
635.92	6377.89
636.114	6461.85
636.308	6498.72
636.501	6511
636.695	6384.03
636.889	6273.44
637.083	6334.88
637.276	6130.08
637.47	6263.2
637.664	6224.29
637.857	6293.92
638.051	6326.69
638.244	6054.31
638.438	6121.89
638.632	6132.13
638.825	5872.04
639.019	6087.08
639.212	6048.16
639.406	5921.19
639.599	5853.61
639.793	5753.26
639.986	5884.33
640.18	5865.89
640.373	5808.55
640.567	5743.02
640.76	5706.15
640.954	5597.61
641.147	5556.65
641.34	5452.2
641.534	5577.13
641.727	5583.27
641.92	5417.39
642.114	5341.61
642.307	5478.83
642.5	5546.41
642.694	5366.19
642.887	5401.01
643.08	5345.71
643.273	5286.32
643.467	5280.18
643.66	5196.21
643.853	5075.38
644.046	5175.73
644.239	5241.26
644.432	5063.09
644.626	5122.48
644.819	4989.36
645.012	5220.78
645.205	4995.51
645.398	5022.13
645.591	4866.49
645.784	4950.45
645.977	4946.36
646.17	4936.12
646.363	4846.01
646.556	4854.2
646.749	4790.71
646.942	4825.53
647.135	4782.52
647.328	4710.84
647.521	4723.13
647.714	4604.35
647.907	4596.15
648.099	4651.45
648.292	4487.61
648.485	4708.79
648.678	4383.17
648.871	4540.86
649.064	4555.19
649.256	4522.43
649.449	4485.56
649.642	4364.73
649.835	4395.45
650.027	4344.25
650.22	4422.08
650.413	4192.7
650.605	4196.8
650.798	4243.9
650.991	4202.94
651.183	4184.51
651.376	4063.68
651.568	4360.64
651.761	4219.33
651.954	4139.46
652.146	4229.57
652.339	4071.87
652.531	4129.22
652.724	4121.03
652.916	3989.96
653.109	3905.99
653.301	4121.03
653.494	4000.19
653.686	4002.24
653.879	4106.69
654.071	3994.05
654.263	3926.47
654.456	3875.27
654.648	3944.9
654.84	3795.4
655.033	3770.82
655.225	3791.3
655.417	3717.58
655.61	3789.25
655.802	3729.86
655.994	3707.34
656.186	3637.7
656.379	3713.48
656.571	3750.34
656.763	3699.14
656.955	3643.85
657.148	3506.63
657.34	3678.66
657.532	3656.14
657.724	3535.31
657.916	3504.59
658.108	3551.69
658.3	3549.64
658.492	3404.24
658.684	3387.85
658.876	3404.24
659.068	3439.05
659.26	3379.66
659.452	3379.66
659.644	3439.05
659.836	3420.62
660.028	3482.06
660.22	3279.31
660.412	3328.46
660.604	3228.11
660.796	3232.21
660.988	3279.31
661.18	3113.42
661.372	3271.12
661.563	3289.55
661.755	3135.95
661.947	3154.38
662.139	3076.56
662.331	3084.75
662.522	3142.1
662.714	3035.6
662.906	3125.71
663.097	3097.04
663.289	3004.88
663.481	2949.59
663.673	3117.52
663.864	2933.2
664.056	2990.55
664.247	3103.18
664.439	3025.36
664.631	2896.34
664.822	3002.83
665.014	2882
665.205	3021.27
665.397	2914.77
665.588	2890.2
665.78	2820.56
665.971	2732.5
666.163	2773.46
666.354	2771.41
666.546	2843.09
666.737	2798.04
666.929	2738.65
667.12	2877.91
667.311	2777.56
667.503	2601.43
667.694	2699.73
667.885	2677.21
668.077	2650.58
668.268	2521.56
668.459	2691.54
668.651	2621.91
668.842	2611.67
669.033	2564.57
669.224	2585.05
669.416	2658.78
669.607	2578.9
669.798	2539.99
669.989	2546.14
670.18	2576.86
670.371	2523.61
670.563	2476.51
670.754	2576.86
670.945	2451.93
671.136	2470.36
671.327	2601.43
671.518	2525.66
671.709	2537.95
671.9	2490.84
672.091	2443.74
672.282	2415.07
672.473	2312.67
672.664	2333.15
672.855	2421.21
673.046	2349.53
673.237	2435.55
673.428	2306.52
673.619	2367.96
673.809	2388.44
674	2458.07
674.191	2351.58
674.382	2400.73
674.573	2312.67
674.764	2259.42
674.954	2394.59
675.145	2288.09
675.336	2134.5
675.527	2212.32
675.717	2134.5
675.908	2286.05
676.099	2341.34
676.289	2318.81
676.48	2302.43
676.671	2118.11
676.861	2228.7
677.052	2146.78
677.243	2193.89
677.433	2224.61
677.624	2230.75
677.814	2181.6
678.005	2271.71
678.195	2259.42
678.386	2148.83
678.576	2105.82
678.767	2175.45
678.957	2130.4
679.148	2161.12
679.338	2202.08
679.529	2066.91
679.719	2103.78
679.909	2212.32
680.1	2179.55
680.29	2175.45
680.481	2128.35
680.671	2005.47
680.861	2157.02
681.052	2101.73
681.242	2052.58
681.432	2095.58
681.622	2050.53
681.813	1954.27
682.003	2036.19
682.193	1999.33
682.383	2046.43
682.573	1970.66
682.764	2003.43
682.954	2023.91
683.144	2011.62
683.334	2030.05
683.524	1974.75
683.714	1941.99
683.904	1984.99
684.094	2095.58
684.284	2075.1
684.474	1987.04
684.664	2007.52
684.854	1874.4
685.044	1939.94
685.234	1905.12
685.424	1880.55
685.614	1882.6
685.804	2003.43
685.994	1864.16
686.184	1935.84
686.374	1974.75
686.564	1911.27
686.753	1864.16
686.943	1860.07
687.133	2007.52
687.323	1804.77
687.513	1843.68
687.702	1901.03
687.892	1921.51
688.082	1833.44
688.272	1896.93
688.461	1769.96
688.651	1868.26
688.841	1767.91
689.03	1849.83
689.22	1778.15
689.41	1870.31
689.599	1761.77
689.789	1917.41
689.979	1739.24
690.168	1855.97
690.358	1720.81
690.547	1665.51
690.737	1782.24
690.926	1675.75
691.116	1671.65
691.305	1800.68
691.495	1718.76
691.684	1767.91
691.874	1729
692.063	1692.13
692.252	1696.23
692.442	1767.91
692.631	1733.09
692.82	1710.57
693.01	1706.47
693.199	1599.98
693.388	1679.85
693.578	1612.26
693.767	1743.33
693.956	1663.46
694.146	1677.8
694.335	1724.9
694.524	1651.17
694.713	1561.06
694.902	1544.68
695.092	1733.09
695.281	1665.51
695.47	1667.56
695.659	1599.98
695.848	1726.95
696.037	1618.41
696.226	1675.75
696.415	1597.93
696.604	1720.81
696.793	1579.5
696.982	1554.92
697.171	1688.04
697.36	1544.68
697.549	1624.55
697.738	1589.74
697.927	1567.21
698.116	1569.26
698.305	1528.3
698.494	1677.8
698.683	1597.93
698.872	1675.75
699.061	1610.22
699.25	1513.96
699.438	1630.7
699.627	1612.26
699.816	1751.53
700.005	1608.17
700.193	1733.09
700.382	1616.36
700.571	1571.3
700.76	1757.67
700.948	1579.5
701.137	1626.6
701.326	1772
701.514	1774.05
701.703	1616.36
701.892	1546.73
702.08	1718.76
702.269	1651.17
702.457	1690.09
702.646	1634.79
702.834	1640.93
703.023	1495.53
703.212	1667.56
703.4	1661.41
703.589	1679.85
703.777	1817.06
703.965	1657.32
704.154	1749.48
704.342	1720.81
704.531	1698.28
704.719	1581.54
704.907	1647.08
705.096	1712.61
705.284	1638.89
705.472	1651.17
705.661	1657.32
705.849	1624.55
706.037	1655.27
706.226	1642.98
706.414	1667.56
706.602	1647.08
706.79	1759.72
706.979	1675.75
707.167	1589.74
707.355	1583.59
707.543	1589.74
707.731	1710.57
707.919	1593.83
708.107	1679.85
708.296	1593.83
708.484	1634.79
708.672	1624.55
708.86	1655.27
709.048	1673.7
709.236	1575.4
709.424	1757.67
709.612	1618.41
709.8	1698.28
709.988	1688.04
710.176	1745.38
710.364	1669.61
710.551	1683.94
710.739	1604.07
710.927	1683.94
711.115	1681.89
711.303	1665.51
711.491	1610.22
711.679	1618.41
711.866	1747.43
712.054	1724.9
712.242	1618.41
712.43	1810.92
712.617	1702.37
712.805	1688.04
712.993	1661.41
713.181	1569.26
713.368	1634.79
713.556	1726.95
713.744	1659.37
713.931	1692.13
714.119	1636.84
714.306	1720.81
714.494	1757.67
714.682	1683.94
714.869	1632.74
715.057	1677.8
715.244	1675.75
715.432	1743.33
715.619	1706.47
715.807	1597.93
715.994	1640.93
716.182	1612.26
716.369	1733.09
716.556	1642.98
716.744	1620.46
716.931	1645.03
717.119	1612.26
717.306	1591.78
717.493	1683.94
717.681	1565.16
717.868	1559.02
718.055	1694.18
718.242	1642.98
718.43	1739.24
718.617	1745.38
718.804	1761.77
718.991	1677.8
719.179	1823.2
719.366	1675.75
719.553	1659.37
719.74	1665.51
719.927	1671.65
720.114	1761.77
720.301	1667.56
720.488	1739.24
720.676	1583.59
720.863	1778.15
721.05	1751.53
721.237	1708.52
721.424	1784.29
721.611	1663.46
721.798	1556.97
721.985	1632.74
722.172	1683.94
722.358	1704.42
722.545	1831.4
722.732	1630.7
722.919	1647.08
723.106	1749.48
723.293	1710.57
723.48	1585.64
723.667	1624.55
723.853	1757.67
724.04	1634.79
724.227	1796.58
724.414	1690.09
724.6	1634.79
724.787	1659.37
724.974	1657.32
725.161	1700.33
725.347	1567.21
725.534	1620.46
725.72	1638.89
725.907	1704.42
726.094	1708.52
726.28	1743.33
726.467	1683.94
726.653	1597.93
726.84	1634.79
727.027	1647.08
727.213	1659.37
727.4	1745.38
727.586	1602.02
727.773	1683.94
727.959	1622.5
728.145	1663.46
728.332	1688.04
728.518	1663.46
728.705	1559.02
728.891	1614.31
729.077	1692.13
729.264	1606.12
729.45	1659.37
729.636	1661.41
729.823	1602.02
730.009	1692.13
730.195	1659.37
730.382	1667.56
730.568	1714.66
730.754	1647.08
730.94	1776.1
731.126	1677.8
731.313	1769.96
731.499	1624.55
731.685	1741.29
731.871	1647.08
732.057	1608.17
732.243	1774.05
732.429	1716.71
732.615	1651.17
732.801	1688.04
732.987	1692.13
733.173	1616.36
733.359	1604.07
733.545	1651.17
733.731	1636.84
733.917	1675.75
734.103	1649.13
734.289	1690.09
734.475	1540.58
734.661	1624.55
734.847	1552.87
735.033	1620.46
735.219	1716.71
735.404	1733.09
735.59	1628.65
735.776	1671.65
735.962	1700.33
736.148	1573.35
736.333	1556.97
736.519	1624.55
736.705	1616.36
736.89	1561.06
737.076	1608.17
737.262	1542.63
737.447	1575.4
737.633	1620.46
737.819	1688.04
738.004	1499.63
738.19	1645.03
738.375	1550.82
738.561	1538.54
738.747	1565.16
738.932	1552.87
739.118	1630.7
739.303	1653.22
739.489	1741.29
739.674	1540.58
739.859	1561.06
740.045	1659.37
740.23	1583.59
740.416	1626.6
740.601	1575.4
740.786	1468.91
740.972	1427.95
741.157	1565.16
741.342	1507.82
741.528	1518.06
741.713	1421.8
741.898	1606.12
742.084	1561.06
742.269	1505.77
742.454	1556.97
742.639	1528.3
742.824	1491.43
743.01	1503.72
743.195	1401.32
743.38	1497.58
743.565	1444.33
743.75	1421.8
743.935	1497.58
744.12	1458.67
744.305	1395.18
744.49	1382.89
744.675	1348.08
744.86	1450.47
745.045	1352.17
745.23	1479.15
745.415	1393.13
745.6	1386.99
745.785	1368.56
745.97	1460.71
746.155	1343.98
746.34	1438.19
746.525	1481.19
746.71	1360.36
746.895	1346.03
747.079	1423.85
747.264	1391.08
747.449	1296.88
747.634	1219.05
747.819	1272.3
748.003	1307.12
748.188	1327.6
748.373	1249.77
748.557	1298.92
748.742	1327.6
748.927	1307.12
749.111	1219.05
749.296	1147.37
749.481	1339.88
749.665	1221.1
749.85	1133.04
750.034	1169.9
750.219	1290.73
750.404	1139.18
750.588	1153.52
750.773	1122.8
750.957	1212.91
751.141	1153.52
751.326	1165.81
751.51	1098.22
751.695	1065.46
751.879	1096.18
752.064	1163.76
752.248	1118.7
752.432	1163.76
752.617	1108.46
752.801	1116.65
752.985	1157.61
753.17	1024.5
753.354	1059.31
753.538	1055.22
753.722	1024.5
753.907	1161.71
754.091	1071.6
754.275	1022.45
754.459	1079.79
754.643	969.2
754.828	942.58
755.012	1028.59
755.196	958.96
755.38	1034.74
755.564	975.35
755.748	971.25
755.932	1059.31
756.116	967.15
756.3	1036.78
756.484	889.33
756.668	1018.35
756.852	928.24
757.036	936.43
757.22	1098.22
757.404	973.3
757.588	905.71
757.772	930.29
757.956	969.2
758.14	918
758.323	860.66
758.507	852.47
758.691	887.28
758.875	870.9
759.059	831.99
759.242	956.91
759.426	938.48
759.61	881.14
759.794	825.84
759.977	963.06
760.161	850.42
760.345	877.04
760.528	864.75
760.712	907.76
760.895	954.87
761.079	795.12
761.263	930.29
761.446	778.74
761.63	926.19
761.813	803.32
761.997	788.98
762.18	758.26
762.364	848.37
762.547	760.31
762.731	809.46
762.914	823.8
763.098	784.88
763.281	659.96
763.464	709.11
763.648	776.69
763.831	760.31
764.015	754.16
764.198	780.79
764.381	762.36
764.564	756.21
764.748	752.12
764.931	758.26
765.114	762.36
765.297	801.27
765.481	662.01
765.664	713.21
765.847	739.83
766.03	786.93
766.213	745.97
766.397	645.62
766.58	686.58
766.763	727.54
766.946	750.07
767.129	678.39
767.312	807.41
767.495	739.83
767.678	795.12
767.861	702.97
768.044	668.15
768.227	725.49
768.41	760.31
768.593	745.97
768.776	752.12
768.959	698.87
769.142	795.12
769.324	731.64
769.507	664.05
769.69	627.19
769.873	696.82
770.056	633.33
770.239	651.77
770.421	653.81
770.604	621.05
770.787	586.23
770.97	637.43
771.152	645.62
771.335	733.68
771.518	645.62
771.7	625.14
771.883	629.24
772.066	653.81
772.248	651.77
772.431	662.01
772.613	649.72
772.796	541.18
772.978	582.14
773.161	596.47
773.343	604.66
773.526	586.23
773.708	590.33
773.891	551.42
774.073	569.85
774.256	709.11
774.438	616.95
774.621	625.14
774.803	598.52
774.985	514.55
775.168	619
775.35	553.46
775.532	621.05
775.715	555.51
775.897	578.04
776.079	575.99
776.261	530.94
776.444	487.93
776.626	514.55
776.808	573.94
776.99	510.46
777.173	467.45
777.355	524.79
777.537	561.66
777.719	580.09
777.901	537.08
778.083	463.35
778.265	504.31
778.447	514.55
778.629	477.69
778.811	473.59
778.993	479.74
779.175	532.98
779.357	479.74
779.539	410.11
779.721	567.8
779.903	436.73
780.085	371.19
780.267	496.12
780.449	485.88
780.631	375.29
780.812	446.97
780.994	442.87
781.176	446.97
781.358	416.25
781.54	393.72
781.721	408.06
781.903	371.19
782.085	492.02
782.267	397.82
782.448	397.82
782.63	410.11
782.812	381.43
782.993	428.54
783.175	401.91
783.357	338.43
783.538	459.26
783.72	395.77
783.901	389.63
784.083	440.83
784.264	342.52
784.446	399.87
784.627	293.37
784.809	410.11
784.99	322.04
785.172	393.72
785.353	371.19
785.535	389.63
785.716	360.95
785.897	387.58
786.079	307.71
786.26	274.94
786.441	377.34
786.623	311.8
786.804	426.49
786.985	389.63
787.167	330.23
787.348	326.14
787.529	309.76
787.71	367.1
787.891	344.57
788.073	344.57
788.254	231.93
788.435	344.57
788.616	352.76
788.797	295.42
788.978	332.28
789.159	287.23
789.34	231.93
789.522	309.76
789.703	340.47
789.884	360.95
790.065	266.75
790.246	295.42
790.427	342.52
790.607	311.8
790.788	287.23
790.969	217.6
791.15	350.71
791.331	291.32
791.512	264.7
791.693	203.26
791.874	231.93
792.054	285.18
792.235	248.32
792.416	279.04
792.597	186.88
792.778	256.51
792.958	213.5
793.139	246.27
793.32	289.28
793.5	305.66
793.681	272.89
793.862	281.08
794.042	180.73
794.223	254.46
794.404	248.32
794.584	197.12
794.765	231.93
794.945	240.12
795.126	248.32
795.306	231.93
795.487	258.56
795.667	201.21
795.848	279.04
796.028	233.98
796.209	209.4
796.389	266.75
796.57	203.26
796.75	147.97
796.93	262.65
797.111	199.16
797.291	254.46
797.471	283.13
797.652	193.02
797.832	201.21
798.012	254.46
798.192	215.55
798.373	143.87
798.553	242.17
798.733	164.35
798.913	170.49
799.093	195.07
799.274	170.49
799.454	260.6
799.634	180.73
799.814	233.98
799.994	205.31
800.174	203.26
800.354	113.15
800.534	166.4
800.714	197.12
800.894	160.25
801.074	129.53
801.254	213.5
801.434	195.07
801.614	203.26
801.794	195.07
801.974	582.14
802.154	141.82
802.334	193.02
802.514	162.3
802.693	125.44
802.873	156.16
803.053	172.54
803.233	135.68
803.413	107.01
803.592	147.97
803.772	96.77
803.952	186.88
804.131	90.62
804.311	166.4
804.491	238.08
804.67	135.68
804.85	117.25
805.03	215.55
805.209	240.12
805.389	154.11
805.568	197.12
805.748	152.06
805.928	209.4
806.107	193.02
806.287	135.68
806.466	133.63
806.646	180.73
806.825	160.25
807.004	162.3
807.184	139.77
807.363	186.88
807.543	156.16
807.722	115.2
807.901	137.73
808.081	123.39
808.26	64
808.439	176.64
808.619	82.43
808.798	121.34
808.977	143.87
809.156	166.4
809.336	223.74
809.515	125.44
809.694	145.92
809.873	88.57
810.052	172.54
810.231	168.45
810.411	127.49
810.59	98.81
810.769	176.64
810.948	143.87
811.127	107.01
811.306	131.58
811.485	147.97
811.664	143.87
811.843	125.44
812.022	119.29
812.201	92.67
812.38	166.4
812.559	135.68
812.737	172.54
812.916	43.52
813.095	59.9
813.274	201.21
813.453	123.39
813.632	82.43
813.811	174.59
813.989	96.77
814.168	168.45
814.347	64
814.526	104.96
814.704	156.16
814.883	135.68
815.062	162.3
815.24	160.25
815.419	100.86
815.598	102.91
815.776	121.34
815.955	70.14
816.133	37.38
816.312	80.38
816.49	98.81
816.669	80.38
816.847	66.05
817.026	90.62
817.204	123.39
817.383	72.19
817.561	135.68
817.74	121.34
817.918	70.14
818.097	135.68
818.275	135.68
818.453	64
818.632	156.16
818.81	168.45
818.988	127.49
819.167	14.85
819.345	119.29
819.523	84.48
819.701	164.35
819.879	92.67
820.058	129.53
820.236	119.29
820.414	82.43
820.592	84.48
820.77	74.24
820.948	168.45
821.127	2.56
821.305	98.81
821.483	61.95
821.661	68.09
821.839	107.01
822.017	176.64
822.195	92.67
822.373	111.1
822.551	59.9
822.729	121.34
822.907	100.86
823.085	117.25
823.262	74.24
823.44	109.05
823.618	0.51
823.796	37.38
823.974	96.77
824.152	113.15
824.329	131.58
824.507	43.52
824.685	76.29
824.863	111.1
825.04	111.1
825.218	78.33
825.396	-28.16
825.574	41.47
825.751	90.62
825.929	117.25
826.107	129.53
826.284	55.81
826.462	127.49
826.639	53.76
826.817	88.57
826.994	131.58
827.172	31.23
827.349	131.58
827.527	76.29
827.704	41.47
827.882	53.76
828.059	45.57
828.237	55.81
828.414	35.33
828.591	31.23
828.769	88.57
828.946	55.81
829.124	47.62
829.301	100.86
829.478	12.8
829.655	18.94
829.833	139.77
830.01	68.09
830.187	86.53
830.364	49.66
830.542	119.29
830.719	113.15
830.896	156.16
831.073	59.9
831.25	25.09
831.427	8.7
831.604	107.01
831.782	59.9
831.959	61.95
832.136	-11.78
832.313	23.04
832.49	8.7
832.667	45.57
832.844	16.9
833.021	147.97
833.198	143.87
833.374	88.57
833.551	64
833.728	104.96
833.905	84.48
834.082	10.75
834.259	55.81
834.436	55.81
834.612	88.57
834.789	45.57
834.966	86.53
835.143	23.04
835.319	57.86
835.496	72.19
835.673	23.04
835.85	121.34
836.026	57.86
836.203	-15.87
836.38	27.14
836.556	57.86
836.733	41.47
836.909	61.95
837.086	18.94
837.262	33.28
837.439	96.77
837.616	57.86
837.792	66.05
837.968	41.47
838.145	-34.3
838.321	51.71
838.498	-36.35
838.674	55.81
838.851	29.18
839.027	102.91
839.203	6.66
839.38	6.66
839.556	80.38
839.732	78.33
839.909	39.42
840.085	-19.97
840.261	-28.16
840.437	61.95
840.614	64
840.79	64
840.966	41.47
841.142	78.33
841.318	16.9
841.494	154.11
841.671	41.47
841.847	29.18
842.023	57.86
842.199	51.71
842.375	25.09
842.551	49.66
842.727	8.7
842.903	4.61
843.079	-13.82
843.255	131.58
843.431	27.14
843.607	45.57
843.783	-3.58
843.959	96.77
844.134	90.62
844.31	70.14
844.486	53.76
844.662	35.33
844.838	55.81
845.013	-38.4
845.189	78.33
845.365	98.81
845.541	37.38
845.716	23.04
845.892	-1.54
846.068	27.14
846.244	51.71
846.419	102.91
846.595	66.05
846.77	-26.11
846.946	-3.58
847.122	8.7
847.297	76.29
847.473	35.33
847.648	57.86
847.824	53.76
847.999	16.9
848.175	82.43
848.35	20.99
848.526	129.53
848.701	55.81
848.876	72.19
849.052	68.09
849.227	47.62
849.403	6.66
849.578	39.42
849.753	25.09
849.929	41.47
850.104	8.7
850.279	0.51
850.454	76.29
850.63	59.9
850.805	37.38
850.98	61.95
851.155	72.19
851.33	-15.87
851.505	-3.58
851.681	-7.68
851.856	68.09
852.031	0.51
852.206	31.23
852.381	6.66
852.556	98.81
852.731	100.86
852.906	49.66
853.081	94.72
853.256	74.24
853.431	70.14
853.606	6.66
853.781	-22.02
853.956	6.66
854.131	55.81
854.305	64
854.48	68.09
854.655	-9.73
854.83	8.7
855.005	80.38
855.18	100.86
855.354	-73.21
855.529	59.9
855.704	70.14
855.879	37.38
856.053	80.38
856.228	76.29
856.403	-54.78
856.577	25.09
856.752	-1.54
856.926	72.19
857.101	-26.11
857.276	80.38
857.45	-17.92
857.625	72.19
857.799	37.38
857.974	12.8
858.148	-13.82
858.323	-22.02
858.497	55.81
858.672	86.53
858.846	23.04
859.02	-42.5
859.195	27.14
859.369	86.53
859.543	12.8
859.718	-60.93
859.892	18.94
860.066	53.76
860.241	-32.26
860.415	45.57
860.589	57.86
860.763	-3.58
860.938	-19.97
861.112	-40.45
861.286	64
861.46	-11.78
861.634	25.09
861.808	57.86
861.982	90.62
862.157	2.56
862.331	-58.88
862.505	16.9
862.679	-7.68
862.853	-3.58
863.027	76.29
863.201	66.05
863.375	-40.45
863.549	55.81
863.722	29.18
863.896	88.57
864.07	-7.68
864.244	-28.16
864.418	29.18
864.592	-1.54
864.766	-1.54
864.939	-32.26
865.113	29.18
865.287	-30.21
865.461	-15.87
865.634	45.57
865.808	4.61
865.982	25.09
866.156	-19.97
866.329	-83.45
866.503	66.05
866.676	6.66
866.85	-13.82
867.024	-46.59
867.197	20.99
867.371	49.66
867.544	37.38
867.718	-7.68
867.891	25.09
868.065	-5.63
868.238	43.52
868.412	8.7
868.585	-17.92
868.759	64
868.932	-9.73
869.105	-28.16
869.279	25.09
869.452	49.66
869.625	88.57
869.799	43.52
869.972	-5.63
870.145	4.61
870.319	-34.3
870.492	20.99
870.665	-71.17
870.838	16.9
871.011	-3.58
871.185	-3.58
871.358	-30.21
871.531	47.62
871.704	-15.87
871.877	49.66
872.05	82.43
872.223	-5.63
872.396	-62.98
872.569	-22.02
872.742	0.51
872.915	61.95
873.088	10.75
873.261	33.28
873.434	29.18
873.607	4.61
873.78	6.66
873.953	-7.68
874.126	57.86
874.299	45.57
874.471	57.86
874.644	-34.3
874.817	68.09
874.99	88.57
875.163	-7.68
875.335	25.09
875.508	2.56
875.681	39.42
875.853	8.7
876.026	61.95
876.199	43.52
876.371	-52.74
876.544	35.33
876.717	12.8
876.889	51.71
877.062	47.62
877.234	-9.73
877.407	25.09
877.579	-30.21
877.752	18.94
877.924	41.47
878.097	76.29
878.269	29.18
878.442	45.57
878.614	39.42
878.786	-58.88
878.959	-24.06
879.131	23.04
879.303	82.43
879.476	-73.21
879.648	-50.69
879.82	47.62
879.993	-17.92
880.165	25.09
880.337	-7.68
880.509	41.47
880.681	-75.26
880.854	35.33
881.026	49.66
881.198	64
881.37	35.33
881.542	-54.78
881.714	-44.54
881.886	-7.68
882.058	41.47
882.23	78.33
882.402	-1.54
882.574	16.9
882.746	-28.16
882.918	20.99
883.09	12.8
883.262	41.47
883.434	35.33
883.606	-30.21
883.778	76.29
883.95	-5.63
884.122	20.99
884.293	6.66
884.465	16.9
884.637	16.9
884.809	-7.68
884.98	-7.68
885.152	-42.5
885.324	-54.78
885.496	-22.02
885.667	10.75
885.839	-34.3
886.011	6.66
886.182	72.19
886.354	31.23
886.525	6.66
886.697	-56.83
886.869	-26.11
887.04	47.62
887.212	107.01
887.383	35.33
887.555	14.85
887.726	-56.83
887.897	55.81
888.069	-19.97
888.24	20.99
888.412	20.99
888.583	-30.21
888.754	90.62
888.926	14.85
889.097	47.62
889.268	-87.55
889.44	66.05
889.611	-34.3
889.782	-15.87
889.953	-67.07
890.125	39.42
890.296	-77.31
890.467	4.61
890.638	-9.73
890.809	-17.92
890.98	-19.97
891.151	-52.74
891.323	-17.92
891.494	55.81
891.665	20.99
891.836	-50.69
892.007	-60.93
892.178	-99.84
892.349	-17.92
892.52	-22.02
892.691	-19.97
892.862	14.85
893.032	-50.69
893.203	16.9
893.374	92.67
893.545	57.86
893.716	31.23
893.887	0.51
894.057	-22.02
894.228	-30.21
894.399	-15.87
894.57	66.05
894.74	37.38
894.911	68.09
895.082	-3.58
895.253	8.7
895.423	-11.78
895.594	70.14
895.764	8.7
895.935	-34.3
896.106	-3.58
896.276	49.66
896.447	-17.92
896.617	-1.54
896.788	-24.06
896.958	4.61
897.129	-48.64
897.299	20.99
897.47	12.8
897.64	-42.5
897.81	-3.58
897.981	51.71
898.151	-9.73
898.322	-5.63
898.492	31.23
898.662	-22.02
898.832	29.18
899.003	72.19
899.173	25.09
899.343	-34.3
899.513	29.18
