Data from USB4F104151__62__11-06-02-466.txt Node

Date: Wed Mar 12 11:06:02 EDT 2025
User: louis
Spectrometer: USB4F10415
Trigger mode: 4
Integration Time (sec): 2.000000E-2
Scans to average: 1
Electric dark correction enabled: true
Nonlinearity correction enabled: false
Boxcar width: 0
XAxis mode: Wavelengths
Number of Pixels in Spectrum: 3648
>>>>>Begin Spectral Data<<<<<
178.204	-76.97
178.424	-76.97
178.644	-76.97
178.864	-5.29
179.084	-64.68
179.304	33.62
179.524	-33.96
179.744	-5.29
179.964	35.67
180.184	-29.87
180.404	45.91
180.624	-52.39
180.844	21.33
181.064	-31.91
181.283	-29.87
181.503	0.85
181.723	45.91
181.943	45.91
182.163	62.29
182.383	15.19
182.602	119.64
182.822	97.11
183.042	56.15
183.262	4.95
183.482	33.62
183.701	-23.72
183.921	82.77
184.141	56.15
184.361	0.85
184.58	101.2
184.8	11.09
185.02	-9.39
185.239	152.4
185.459	29.52
185.679	25.43
185.898	50
186.118	99.16
186.338	-9.39
186.557	9.05
186.777	11.09
186.997	-11.43
187.216	76.63
187.436	45.91
187.655	56.15
187.875	64.34
188.095	60.24
188.314	66.39
188.534	4.95
188.753	-3.24
188.973	66.39
189.192	37.72
189.412	17.24
189.631	35.67
189.851	86.87
190.07	62.29
190.29	37.72
190.509	-27.82
190.729	117.59
190.948	88.92
191.168	97.11
191.387	158.55
191.607	33.62
191.826	43.86
192.045	-11.43
192.265	21.33
192.484	41.81
192.704	70.48
192.923	29.52
193.142	76.63
193.362	-21.67
193.581	97.11
193.8	58.2
194.02	0.85
194.239	95.06
194.458	-15.53
194.678	31.57
194.897	27.48
195.116	72.53
195.335	103.25
195.555	19.29
195.774	-54.44
195.993	21.33
196.212	78.68
196.432	21.33
196.651	-46.25
196.87	17.24
197.089	119.64
197.308	45.91
197.528	33.62
197.747	-1.19
197.966	-64.68
198.185	60.24
198.404	27.48
198.623	21.33
198.842	74.58
199.062	-11.43
199.281	37.72
199.5	31.57
199.719	-15.53
199.938	43.86
200.157	-19.63
200.376	101.2
200.595	82.77
200.814	68.44
201.033	52.05
201.252	70.48
201.471	2.9
201.69	84.82
201.909	99.16
202.128	-1.19
202.347	45.91
202.566	11.09
202.785	29.52
203.004	37.72
203.223	111.44
203.442	41.81
203.661	31.57
203.879	99.16
204.098	82.77
204.317	82.77
204.536	99.16
204.755	-15.53
204.974	84.82
205.193	50
205.411	29.52
205.63	54.1
205.849	58.2
206.068	-21.67
206.287	47.96
206.505	50
206.724	60.24
206.943	-3.24
207.162	0.85
207.381	21.33
207.599	-21.67
207.818	84.82
208.037	-21.67
208.255	13.14
208.474	121.68
208.693	54.1
208.911	47.96
209.13	74.58
209.349	-9.39
209.567	37.72
209.786	50
210.005	37.72
210.223	76.63
210.442	52.05
210.661	29.52
210.879	21.33
211.098	23.38
211.316	70.48
211.535	62.29
211.753	68.44
211.972	76.63
212.191	64.34
212.409	39.76
212.628	52.05
212.846	7
213.065	52.05
213.283	52.05
213.502	7
213.72	31.57
213.938	-13.48
214.157	54.1
214.375	-5.29
214.594	15.19
214.812	17.24
215.031	9.05
215.249	-3.24
215.467	-3.24
215.686	29.52
215.904	62.29
216.122	54.1
216.341	103.25
216.559	19.29
216.778	64.34
216.996	58.2
217.214	90.96
217.432	0.85
217.651	64.34
217.869	82.77
218.087	45.91
218.306	-17.58
218.524	86.87
218.742	-27.82
218.96	23.38
219.179	4.95
219.397	78.68
219.615	29.52
219.833	74.58
220.051	-19.63
220.27	70.48
220.488	31.57
220.706	93.01
220.924	-15.53
221.142	50
221.36	25.43
221.578	9.05
221.796	56.15
222.015	11.09
222.233	-27.82
222.451	113.49
222.669	35.67
222.887	54.1
223.105	52.05
223.323	-36.01
223.541	58.2
223.759	25.43
223.977	33.62
224.195	78.68
224.413	78.68
224.631	45.91
224.849	72.53
225.067	45.91
225.285	50
225.503	62.29
225.721	54.1
225.939	115.54
226.157	29.52
226.375	66.39
226.592	35.67
226.81	140.12
227.028	21.33
227.246	43.86
227.464	50
227.682	78.68
227.9	103.25
228.117	54.1
228.335	-13.48
228.553	29.52
228.771	82.77
228.989	101.2
229.206	70.48
229.424	107.35
229.642	50
229.86	35.67
230.077	129.88
230.295	80.72
230.513	37.72
230.731	140.12
230.948	41.81
231.166	129.88
231.384	62.29
231.601	101.2
231.819	-13.48
232.037	-38.06
232.254	7
232.472	62.29
232.689	58.2
232.907	66.39
233.125	39.76
233.342	0.85
233.56	41.81
233.777	13.14
233.995	109.4
234.213	90.96
234.43	-11.43
234.648	35.67
234.865	68.44
235.083	146.26
235.3	39.76
235.518	64.34
235.735	62.29
235.953	27.48
236.17	45.91
236.388	35.67
236.605	35.67
236.822	29.52
237.04	50
237.257	4.95
237.475	64.34
237.692	76.63
237.909	95.06
238.127	33.62
238.344	29.52
238.562	-5.29
238.779	62.29
238.996	-3.24
239.214	56.15
239.431	50
239.648	23.38
239.865	50
240.083	90.96
240.3	74.58
240.517	-46.25
240.735	17.24
240.952	86.87
241.169	50
241.386	29.52
241.603	43.86
241.821	-17.58
242.038	54.1
242.255	33.62
242.472	129.88
242.689	99.16
242.907	78.68
243.124	15.19
243.341	62.29
243.558	54.1
243.775	13.14
243.992	70.48
244.209	33.62
244.426	90.96
244.643	72.53
244.86	45.91
245.078	13.14
245.295	52.05
245.512	45.91
245.729	41.81
245.946	68.44
246.163	17.24
246.38	95.06
246.597	21.33
246.814	105.3
247.031	84.82
247.248	41.81
247.464	39.76
247.681	-9.39
247.898	29.52
248.115	78.68
248.332	37.72
248.549	31.57
248.766	111.44
248.983	-1.19
249.2	29.52
249.417	31.57
249.633	7
249.85	101.2
250.067	21.33
250.284	-11.43
250.501	82.77
250.717	56.15
250.934	45.91
251.151	70.48
251.368	33.62
251.585	84.82
251.801	47.96
252.018	64.34
252.235	-46.25
252.451	99.16
252.668	27.48
252.885	60.24
253.102	78.68
253.318	160.59
253.535	29.52
253.752	2.9
253.968	17.24
254.185	-46.25
254.401	74.58
254.618	103.25
254.835	-15.53
255.051	78.68
255.268	62.29
255.484	64.34
255.701	-3.24
255.917	70.48
256.134	25.43
256.351	58.2
256.567	-3.24
256.784	50
257	72.53
257.217	70.48
257.433	-13.48
257.65	68.44
257.866	39.76
258.082	107.35
258.299	33.62
258.515	33.62
258.732	39.76
258.948	43.86
259.165	101.2
259.381	45.91
259.597	41.81
259.814	9.05
260.03	56.15
260.246	43.86
260.463	29.52
260.679	117.59
260.895	64.34
261.112	68.44
261.328	101.2
261.544	76.63
261.761	93.01
261.977	62.29
262.193	-23.72
262.409	54.1
262.626	33.62
262.842	84.82
263.058	41.81
263.274	60.24
263.49	39.76
263.707	109.4
263.923	2.9
264.139	35.67
264.355	50
264.571	88.92
264.787	97.11
265.004	47.96
265.22	70.48
265.436	31.57
265.652	-54.44
265.868	21.33
266.084	25.43
266.3	82.77
266.516	33.62
266.732	54.1
266.948	88.92
267.164	123.73
267.38	27.48
267.596	13.14
267.812	107.35
268.028	43.86
268.244	39.76
268.46	84.82
268.676	25.43
268.892	27.48
269.108	7
269.324	29.52
269.54	66.39
269.756	23.38
269.972	76.63
270.188	80.72
270.403	-29.87
270.619	74.58
270.835	60.24
271.051	68.44
271.267	19.29
271.483	33.62
271.698	90.96
271.914	66.39
272.13	95.06
272.346	78.68
272.562	52.05
272.777	17.24
272.993	39.76
273.209	-19.63
273.425	76.63
273.64	70.48
273.856	66.39
274.072	47.96
274.287	39.76
274.503	11.09
274.719	74.58
274.934	133.97
275.15	70.48
275.366	76.63
275.581	58.2
275.797	13.14
276.012	74.58
276.228	70.48
276.444	62.29
276.659	80.72
276.875	119.64
277.09	84.82
277.306	19.29
277.521	7
277.737	41.81
277.952	109.4
278.168	70.48
278.383	76.63
278.599	29.52
278.814	82.77
279.03	80.72
279.245	21.33
279.461	29.52
279.676	68.44
279.892	103.25
280.107	29.52
280.322	33.62
280.538	17.24
280.753	-40.11
280.969	0.85
281.184	27.48
281.399	78.68
281.615	47.96
281.83	95.06
282.045	2.9
282.26	-7.34
282.476	50
282.691	33.62
282.906	47.96
283.122	-7.34
283.337	111.44
283.552	131.92
283.767	93.01
283.983	97.11
284.198	9.05
284.413	88.92
284.628	11.09
284.843	2.9
285.058	45.91
285.274	82.77
285.489	54.1
285.704	131.92
285.919	-58.54
286.134	11.09
286.349	13.14
286.564	43.86
286.779	45.91
286.995	70.48
287.21	33.62
287.425	78.68
287.64	97.11
287.855	52.05
288.07	-9.39
288.285	101.2
288.5	105.3
288.715	68.44
288.93	15.19
289.145	43.86
289.36	23.38
289.575	41.81
289.79	-7.34
290.004	35.67
290.219	95.06
290.434	78.68
290.649	54.1
290.864	11.09
291.079	35.67
291.294	142.16
291.509	27.48
291.724	101.2
291.938	-15.53
292.153	86.87
292.368	-13.48
292.583	54.1
292.798	43.86
293.012	4.95
293.227	52.05
293.442	62.29
293.657	88.92
293.871	45.91
294.086	39.76
294.301	95.06
294.516	41.81
294.73	-5.29
294.945	15.19
295.16	-7.34
295.374	86.87
295.589	41.81
295.804	35.67
296.018	62.29
296.233	25.43
296.447	72.53
296.662	11.09
296.877	31.57
297.091	113.49
297.306	35.67
297.52	-1.19
297.735	43.86
297.949	2.9
298.164	50
298.378	0.85
298.593	9.05
298.807	-19.63
299.022	70.48
299.236	80.72
299.451	41.81
299.665	45.91
299.88	29.52
300.094	68.44
300.309	52.05
300.523	35.67
300.737	19.29
300.952	88.92
301.166	41.81
301.381	76.63
301.595	43.86
301.809	70.48
302.024	70.48
302.238	127.83
302.452	-9.39
302.667	47.96
302.881	66.39
303.095	136.02
303.309	111.44
303.524	52.05
303.738	35.67
303.952	17.24
304.166	58.2
304.381	11.09
304.595	109.4
304.809	9.05
305.023	74.58
305.237	60.24
305.452	21.33
305.666	45.91
305.88	105.3
306.094	27.48
306.308	27.48
306.522	105.3
306.736	72.53
306.95	35.67
307.164	-7.34
307.379	37.72
307.593	58.2
307.807	58.2
308.021	-13.48
308.235	27.48
308.449	58.2
308.663	66.39
308.877	72.53
309.091	66.39
309.305	50
309.519	58.2
309.733	68.44
309.947	33.62
310.161	68.44
310.374	31.57
310.588	107.35
310.802	35.67
311.016	23.38
311.23	21.33
311.444	7
311.658	47.96
311.872	23.38
312.085	50
312.299	80.72
312.513	-21.67
312.727	70.48
312.941	19.29
313.154	31.57
313.368	68.44
313.582	54.1
313.796	64.34
314.009	29.52
314.223	84.82
314.437	29.52
314.651	-21.67
314.864	15.19
315.078	33.62
315.292	78.68
315.505	27.48
315.719	58.2
315.933	21.33
316.146	62.29
316.36	45.91
316.573	109.4
316.787	39.76
317.001	60.24
317.214	45.91
317.428	47.96
317.641	13.14
317.855	97.11
318.068	72.53
318.282	45.91
318.495	90.96
318.709	66.39
318.922	19.29
319.136	95.06
319.349	72.53
319.563	62.29
319.776	45.91
319.99	52.05
320.203	37.72
320.417	13.14
320.63	78.68
320.843	17.24
321.057	54.1
321.27	88.92
321.483	86.87
321.697	111.44
321.91	17.24
322.124	80.72
322.337	68.44
322.55	29.52
322.763	52.05
322.977	103.25
323.19	-58.54
323.403	21.33
323.617	74.58
323.83	33.62
324.043	47.96
324.256	25.43
324.469	56.15
324.683	88.92
324.896	13.14
325.109	39.76
325.322	74.58
325.535	101.2
325.748	33.62
325.962	-11.43
326.175	33.62
326.388	58.2
326.601	60.24
326.814	43.86
327.027	47.96
327.24	113.49
327.453	64.34
327.666	39.76
327.879	90.96
328.092	86.87
328.305	74.58
328.518	62.29
328.731	-33.96
328.944	131.92
329.157	95.06
329.37	4.95
329.583	119.64
329.796	66.39
330.009	37.72
330.222	-1.19
330.435	70.48
330.648	58.2
330.861	4.95
331.073	90.96
331.286	27.48
331.499	121.68
331.712	99.16
331.925	47.96
332.138	60.24
332.35	56.15
332.563	56.15
332.776	52.05
332.989	-36.01
333.202	150.36
333.414	29.52
333.627	-11.43
333.84	66.39
334.053	72.53
334.265	-40.11
334.478	21.33
334.691	-29.87
334.903	33.62
335.116	78.68
335.329	-13.48
335.541	64.34
335.754	111.44
335.966	-23.72
336.179	9.05
336.392	68.44
336.604	54.1
336.817	39.76
337.029	131.92
337.242	78.68
337.454	47.96
337.667	-1.19
337.88	80.72
338.092	107.35
338.305	23.38
338.517	93.01
338.729	45.91
338.942	90.96
339.154	7
339.367	50
339.579	35.67
339.792	2.9
340.004	90.96
340.217	-5.29
340.429	29.52
340.641	-15.53
340.854	72.53
341.066	52.05
341.278	60.24
341.491	74.58
341.703	45.91
341.915	17.24
342.128	52.05
342.34	-3.24
342.552	76.63
342.764	25.43
342.977	27.48
343.189	29.52
343.401	41.81
343.613	82.77
343.826	74.58
344.038	23.38
344.25	37.72
344.462	111.44
344.674	99.16
344.886	4.95
345.099	131.92
345.311	74.58
345.523	95.06
345.735	47.96
345.947	97.11
346.159	101.2
346.371	52.05
346.583	70.48
346.795	78.68
347.007	13.14
347.219	62.29
347.431	9.05
347.643	39.76
347.855	70.48
348.067	70.48
348.279	43.86
348.491	50
348.703	103.25
348.915	-5.29
349.127	39.76
349.339	-5.29
349.551	113.49
349.763	23.38
349.975	27.48
350.187	15.19
350.399	4.95
350.61	82.77
350.822	109.4
351.034	66.39
351.246	-19.63
351.458	156.5
351.669	47.96
351.881	131.92
352.093	-5.29
352.305	41.81
352.517	70.48
352.728	70.48
352.94	82.77
353.152	103.25
353.363	52.05
353.575	66.39
353.787	62.29
353.999	117.59
354.21	35.67
354.422	103.25
354.633	29.52
354.845	72.53
355.057	50
355.268	90.96
355.48	21.33
355.692	11.09
355.903	25.43
356.115	66.39
356.326	17.24
356.538	105.3
356.749	-19.63
356.961	37.72
357.172	97.11
357.384	119.64
357.595	17.24
357.807	72.53
358.018	60.24
358.23	111.44
358.441	103.25
358.653	43.86
358.864	43.86
359.075	54.1
359.287	70.48
359.498	70.48
359.709	45.91
359.921	68.44
360.132	90.96
360.344	58.2
360.555	117.59
360.766	68.44
360.977	11.09
361.189	103.25
361.4	62.29
361.611	152.4
361.823	37.72
362.034	119.64
362.245	129.88
362.456	58.2
362.667	70.48
362.879	19.29
363.09	103.25
363.301	103.25
363.512	4.95
363.723	64.34
363.935	115.54
364.146	58.2
364.357	29.52
364.568	95.06
364.779	76.63
364.99	125.78
365.201	62.29
365.412	74.58
365.623	-38.06
365.834	90.96
366.045	56.15
366.256	39.76
366.467	93.01
366.678	33.62
366.889	25.43
367.1	17.24
367.311	33.62
367.522	93.01
367.733	47.96
367.944	97.11
368.155	80.72
368.366	66.39
368.577	107.35
368.788	117.59
368.999	-31.91
369.209	105.3
369.42	19.29
369.631	93.01
369.842	56.15
370.053	125.78
370.264	117.59
370.474	47.96
370.685	47.96
370.896	-1.19
371.107	101.2
371.317	58.2
371.528	78.68
371.739	107.35
371.95	0.85
372.16	105.3
372.371	95.06
372.582	62.29
372.792	93.01
373.003	97.11
373.214	13.14
373.424	64.34
373.635	-7.34
373.846	119.64
374.056	109.4
374.267	109.4
374.477	-11.43
374.688	150.36
374.898	27.48
375.109	29.52
375.319	113.49
375.53	123.73
375.74	13.14
375.951	11.09
376.161	56.15
376.372	158.55
376.582	33.62
376.793	54.1
377.003	78.68
377.214	45.91
377.424	33.62
377.635	31.57
377.845	43.86
378.055	72.53
378.266	95.06
378.476	70.48
378.686	50
378.897	72.53
379.107	115.54
379.317	33.62
379.528	27.48
379.738	148.31
379.948	101.2
380.158	-3.24
380.369	54.1
380.579	90.96
380.789	33.62
380.999	93.01
381.21	109.4
381.42	52.05
381.63	45.91
381.84	76.63
382.05	47.96
382.261	66.39
382.471	21.33
382.681	60.24
382.891	-33.96
383.101	68.44
383.311	82.77
383.521	78.68
383.731	99.16
383.941	95.06
384.151	43.86
384.361	70.48
384.571	60.24
384.781	123.73
384.991	115.54
385.201	45.91
385.411	127.83
385.621	95.06
385.831	19.29
386.041	111.44
386.251	58.2
386.461	70.48
386.671	68.44
386.881	105.3
387.091	78.68
387.301	62.29
387.511	25.43
387.72	84.82
387.93	105.3
388.14	-11.43
388.35	125.78
388.56	121.68
388.769	121.68
388.979	33.62
389.189	70.48
389.399	47.96
389.609	95.06
389.818	123.73
390.028	-11.43
390.238	15.19
390.447	95.06
390.657	121.68
390.867	43.86
391.076	82.77
391.286	84.82
391.496	119.64
391.705	131.92
391.915	74.58
392.125	58.2
392.334	103.25
392.544	80.72
392.753	43.86
392.963	76.63
393.172	88.92
393.382	60.24
393.591	113.49
393.801	66.39
394.01	25.43
394.22	125.78
394.429	101.2
394.639	129.88
394.848	136.02
395.058	109.4
395.267	109.4
395.477	105.3
395.686	113.49
395.895	121.68
396.105	160.59
396.314	111.44
396.524	66.39
396.733	45.91
396.942	187.22
397.152	105.3
397.361	86.87
397.57	111.44
397.78	101.2
397.989	99.16
398.198	197.46
398.407	33.62
398.617	121.68
398.826	101.2
399.035	121.68
399.244	95.06
399.453	164.69
399.663	58.2
399.872	115.54
400.081	103.25
400.29	187.22
400.499	105.3
400.708	144.21
400.917	62.29
401.127	90.96
401.336	127.83
401.545	131.92
401.754	88.92
401.963	185.17
402.172	125.78
402.381	76.63
402.59	142.16
402.799	113.49
403.008	179.03
403.217	219.99
403.426	95.06
403.635	99.16
403.844	119.64
404.053	195.41
404.262	170.83
404.471	133.97
404.68	138.07
404.888	176.98
405.097	88.92
405.306	129.88
405.515	168.79
405.724	166.74
405.933	213.84
406.142	166.74
406.35	217.94
406.559	140.12
406.768	201.55
406.977	195.41
407.185	158.55
407.394	162.64
407.603	232.27
407.812	189.27
408.02	240.47
408.229	197.46
408.438	324.43
408.646	156.5
408.855	265.04
409.064	258.9
409.272	265.04
409.481	336.72
409.69	256.85
409.898	262.99
410.107	314.19
410.315	287.57
410.524	217.94
410.733	260.95
410.941	355.15
411.15	312.14
411.358	320.34
411.567	400.21
411.775	406.35
411.984	318.29
412.192	367.44
412.401	469.84
412.609	443.21
412.818	496.46
413.026	398.16
413.234	490.32
413.443	500.56
413.651	488.27
413.86	437.07
414.068	582.48
414.276	537.42
414.485	578.38
414.693	566.09
414.901	617.29
415.11	611.15
415.318	643.92
415.526	611.15
415.734	656.2
415.943	709.45
416.151	738.12
416.359	727.88
416.567	742.22
416.776	803.66
416.984	848.71
417.192	871.24
417.4	942.92
417.608	928.58
417.817	934.73
418.025	987.97
418.233	1098.56
418.441	1069.89
418.649	1157.96
418.857	1078.08
419.065	1258.31
419.273	1192.77
419.481	1217.35
419.689	1301.31
419.897	1336.13
420.105	1385.28
420.313	1387.33
420.521	1540.93
420.729	1557.31
420.937	1526.59
421.145	1551.17
421.353	1598.27
421.561	1747.77
421.769	1684.28
421.977	1895.22
422.185	1727.29
422.393	1989.43
422.601	2050.87
422.809	2100.02
423.017	2057.01
423.224	2116.41
423.432	2218.8
423.64	2227
423.848	2583.34
424.056	2413.36
424.263	2562.86
424.471	2530.09
424.679	2589.49
424.887	2745.13
425.094	2898.73
425.302	2847.53
425.51	2978.6
425.718	2997.03
425.925	3031.85
426.133	3212.07
426.341	3394.34
426.548	3470.11
426.756	3558.18
426.964	3601.18
427.171	3838.75
427.379	3859.23
427.586	3887.9
427.794	3959.58
428.001	4178.71
428.209	4401.94
428.417	4293.4
428.624	4768.52
428.832	4559.63
429.039	4684.56
429.247	4621.07
429.454	5159.69
429.662	5466.88
429.869	5157.64
430.076	5602.05
430.284	5305.09
430.491	5630.72
430.699	5905.15
430.906	5747.45
431.114	6028.03
431.321	6028.03
431.528	6195.96
431.736	6806.25
431.943	6879.98
432.15	6847.21
432.358	6787.82
432.565	7305.96
432.772	7058.15
432.979	7623.39
433.187	7688.93
433.394	7811.81
433.601	8225.5
433.808	8239.83
434.016	8184.54
434.223	8665.81
434.43	9167.56
434.637	8973
434.844	9433.8
435.052	9603.78
435.259	9773.76
435.466	9732.8
435.673	9644.74
435.88	10355.38
436.087	10875.57
436.294	10695.35
436.501	10601.14
436.708	10781.36
436.915	11104.94
437.122	11541.16
437.329	11702.95
437.537	11856.54
437.743	11901.6
437.95	12194.46
438.157	12530.33
438.364	13138.57
438.571	13079.18
438.778	13333.13
438.985	14555.77
439.192	13791.87
439.399	14430.84
439.606	14015.1
439.813	14695.03
440.02	15637.09
440.227	15260.27
440.433	15309.42
440.64	15852.13
440.847	15598.18
441.054	15954.53
441.261	17236.56
441.467	16943.7
441.674	17273.42
441.881	17875.52
442.088	17947.2
442.294	17683.02
442.501	18248.25
442.708	18655.8
442.914	19313.2
443.121	20118.05
443.328	19458.6
443.534	20783.64
443.741	20398.62
443.948	20089.38
444.154	21699.08
444.361	21166.61
444.568	21430.8
444.774	21412.37
444.981	21649.93
445.187	22290.95
445.394	23763.43
445.6	22962.68
445.807	25256.4
446.013	23822.83
446.22	24613.34
446.426	25496.02
446.633	26040.78
446.839	26438.08
447.046	25569.74
447.252	27077.05
447.459	26974.65
447.665	26880.44
447.871	28045.74
448.078	29159.83
448.284	27638.19
448.491	28619.17
448.697	29677.97
448.903	29964.68
449.11	30292.36
449.316	29641.11
449.522	30245.26
449.728	30865.79
449.935	31502.71
450.141	31197.56
450.347	32233.83
450.553	30785.92
450.76	30931.33
450.966	32049.52
451.172	31983.98
451.378	32532.84
451.584	32369
451.791	32878.94
451.997	32588.13
452.203	33229.15
452.409	33163.61
452.615	33048.93
452.821	31633.78
453.027	31234.42
453.233	33141.08
453.44	31385.97
453.646	31998.32
453.852	32119.15
454.058	32620.9
454.264	31369.59
454.47	32164.2
454.676	31545.72
454.882	32475.49
455.088	29712.78
455.294	29962.64
455.5	30603.65
455.705	30855.55
455.911	29559.19
456.117	29008.28
456.323	28477.86
456.529	27105.72
456.735	28377.51
456.941	27335.09
457.147	27113.91
457.352	26329.54
457.558	25954.76
457.764	25795.02
457.97	25332.18
458.176	24809.95
458.381	24951.26
458.587	23536.11
458.793	23589.36
458.999	22262.27
459.204	23986.66
459.41	23441.9
459.616	21651.98
459.821	21717.51
460.027	22067.72
460.233	21176.85
460.438	20208.16
460.644	20511.26
460.85	19622.44
461.055	19110.45
461.261	19442.22
461.466	17640.01
461.672	17140.3
461.878	18510.39
462.083	17445.45
462.289	16900.69
462.494	16951.89
462.7	16208.48
462.905	15780.45
463.111	16099.94
463.316	16360.03
463.522	15751.78
463.727	15694.44
463.932	15833.7
464.138	15524.46
464.343	15911.52
464.549	15377
464.754	15624.81
464.959	15655.53
465.165	15493.74
465.37	14828.15
465.575	14482.04
465.781	15030.9
465.986	15245.93
466.191	14688.89
466.397	14365.31
466.602	13697.67
466.807	14318.2
467.012	14226.04
467.218	14140.03
467.423	13869.7
467.628	14082.69
467.833	14795.38
468.038	14201.47
468.244	13669
468.449	14264.96
468.654	13795.97
468.859	13718.15
469.064	13746.82
469.269	13097.61
469.474	13441.67
469.679	13546.12
469.885	13138.57
470.09	13257.36
470.295	13118.09
470.5	13023.89
470.705	13013.65
470.91	12501.65
471.115	12376.73
471.32	12645.01
471.525	12534.42
471.73	12542.61
471.935	12112.54
472.139	11778.72
472.344	12004
472.549	11854.5
472.754	11643.56
472.959	11446.95
473.164	11133.61
473.369	10953.39
473.574	11709.09
473.778	11358.89
473.983	11438.76
474.188	11352.74
474.393	10601.14
474.598	10750.64
474.802	10570.42
475.007	10877.62
475.212	10896.05
475.417	9870.01
475.621	10341.05
475.826	10289.85
476.031	10099.39
476.235	10066.62
476.44	9986.75
476.645	9657.03
476.849	9800.38
477.054	9521.86
477.259	9786.05
477.463	9634.5
477.668	9456.33
477.872	9444.04
478.077	9384.65
478.282	9161.42
478.486	8936.14
478.691	9052.88
478.895	8862.41
479.1	8950.48
479.304	9022.16
479.509	8727.25
479.713	8676.05
479.918	8637.14
480.122	8504.02
480.326	8770.26
480.531	8655.57
480.735	8624.85
480.94	8467.16
481.144	8911.57
481.348	8047.32
481.553	8450.77
481.757	8342.23
481.961	8483.54
482.166	8473.3
482.37	8475.35
482.574	8284.89
482.778	8219.35
482.983	8379.09
483.187	8231.64
483.391	8532.69
483.595	8420.05
483.8	8262.36
484.004	8327.89
484.208	8587.99
484.412	8303.32
484.616	8415.96
484.821	8501.97
485.025	8217.3
485.229	8375
485.433	8119
485.637	8368.85
485.841	8315.61
486.045	8436.44
486.249	8250.07
486.453	8258.26
486.657	8268.5
486.861	8243.93
487.065	8141.53
487.269	8186.58
487.473	8186.58
487.677	8309.46
487.881	8383.19
488.085	8225.5
488.289	8475.35
488.493	8268.5
488.697	8450.77
488.901	8485.59
489.105	8299.22
489.309	8420.05
489.512	8567.51
489.716	8413.91
489.92	8436.44
490.124	8495.83
490.328	8444.63
490.531	8501.97
490.735	8497.88
490.939	8526.55
491.143	8504.02
491.346	8506.07
491.55	8837.84
491.754	8499.92
491.958	8825.55
492.161	8776.4
492.365	8653.52
492.569	8889.04
492.772	8950.48
492.976	8891.09
493.18	9065.16
493.383	9169.61
493.587	9177.8
493.79	8987.34
493.994	8940.24
494.197	9138.89
494.401	9259.72
494.605	9255.62
494.808	9505.48
495.012	9542.34
495.215	9460.42
495.419	9677.51
495.622	9476.8
495.825	9632.45
496.029	9853.63
496.232	9960.13
496.436	10019.52
496.639	10013.37
496.843	10105.53
497.046	10279.61
497.249	10586.8
497.453	10551.99
497.656	10695.35
497.859	10715.83
498.063	10777.26
498.266	10941.1
498.469	10746.55
498.673	11268.78
498.876	11250.35
499.079	11248.3
499.282	11172.52
499.485	11801.25
499.689	11860.64
499.892	11924.13
500.095	11723.43
500.298	12124.83
500.501	11954.85
500.705	12479.13
500.908	12475.03
501.111	12610.2
501.314	12726.93
501.517	12964.5
501.72	13193.87
501.923	12958.35
502.126	13507.21
502.329	13574.79
502.532	13582.98
502.735	13691.52
502.938	13959.81
503.141	14066.3
503.344	14271.1
503.547	14379.64
503.75	14357.11
503.953	14822
504.156	14869.11
504.359	15102.57
504.562	14985.84
504.765	15243.88
504.968	15551.08
505.17	15749.73
505.373	15649.38
505.576	16036.45
505.779	16015.97
505.982	16343.64
506.185	16482.91
506.387	16712.28
506.59	16556.63
506.793	17144.4
506.996	17136.21
507.198	17812.04
507.401	17533.51
507.604	17367.63
507.807	18104.9
508.009	18213.44
508.212	18309.69
508.415	18967.09
508.617	18846.26
508.82	18891.32
509.022	18821.69
509.225	19565.1
509.428	19249.71
509.63	19696.17
509.833	20120.1
510.035	20288.03
510.238	19923.49
510.44	20507.16
510.643	20816.41
510.845	20705.82
511.048	20920.85
511.25	21099.03
511.453	21414.41
511.655	22182.4
511.858	21795.34
512.06	22104.58
512.262	22200.83
512.465	22356.48
512.667	22481.41
512.87	22835.7
513.072	22794.75
513.274	23501.29
513.477	23695.85
513.679	23894.5
513.881	24111.59
514.084	24498.66
514.286	24562.14
514.488	24758.75
514.69	25192.92
514.893	25250.26
515.095	25473.49
515.297	25872.84
515.499	25926.09
515.701	26048.97
515.904	26579.39
516.106	26698.17
516.308	27046.33
516.51	27693.49
516.712	27261.37
516.914	27785.65
517.116	28154.28
517.318	28152.23
517.52	28279.21
517.722	28608.93
517.925	29143.45
518.127	29706.64
518.329	29327.77
518.531	29360.53
518.733	30062.99
518.935	30237.06
519.136	30108.04
519.338	30908.8
519.54	31013.24
519.742	31381.88
519.944	31451.51
520.146	32053.61
520.348	32137.58
520.55	32248.17
520.752	32504.17
520.954	32983.39
521.155	32905.57
521.357	33454.42
521.559	33780.05
521.761	34040.14
521.963	34013.52
522.164	34335.05
522.366	34642.24
522.568	34781.51
522.77	35098.94
522.971	35574.07
523.173	35375.42
523.375	35674.42
523.576	35739.96
523.778	35684.66
523.98	36321.58
524.181	36423.98
524.383	36325.68
524.584	37052.7
524.786	37386.52
524.988	37015.84
525.189	37384.47
525.391	37751.06
525.592	37843.22
525.794	38527.24
525.995	38250.77
526.197	38400.27
526.398	38633.74
526.6	38783.24
526.801	38689.03
527.003	39196.93
527.204	38963.46
527.406	39246.08
527.607	39393.53
527.808	39835.89
528.01	39069.95
528.211	39690.49
528.412	40409.32
528.614	40270.06
528.815	40315.12
529.016	40818.92
529.218	40032.5
529.419	40872.17
529.62	40591.59
529.822	40788.2
530.023	40872.17
530.224	40876.26
530.425	41023.72
530.626	40917.22
530.828	40648.94
531.029	41736.41
531.23	41056.48
531.431	41474.27
531.632	41378.01
531.833	42035.41
532.035	41494.75
532.236	41795.8
532.437	42154.19
532.638	41312.48
532.839	41836.76
533.04	41873.62
533.241	41541.85
533.442	42494.16
533.643	42277.07
533.844	42105.04
534.045	42268.88
534.246	42189.01
534.447	42762.44
534.648	41951.45
534.849	42414.29
535.05	42074.32
535.251	42399.95
535.451	42021.08
535.652	42514.64
535.853	42252.5
536.054	42340.56
536.255	42526.92
536.456	42109.14
536.657	42836.17
536.857	42199.25
537.058	42268.88
537.259	42887.37
537.46	42621.13
537.66	42481.87
537.861	42653.9
538.062	42160.34
538.263	42856.65
538.463	42213.59
538.664	42731.72
538.865	42635.47
539.065	42793.16
539.266	42207.44
539.466	42586.32
539.667	42002.64
539.868	43260.1
540.068	42596.56
540.269	42768.58
540.469	42488.01
540.67	42133.71
540.87	42375.37
541.071	42236.11
541.271	42676.43
541.472	42318.03
541.672	42528.97
541.873	42606.8
542.073	42125.52
542.274	42899.65
542.474	42563.79
542.675	42275.02
542.875	42672.33
543.075	42590.41
543.276	41785.56
543.476	42899.65
543.676	42238.16
543.877	42483.92
544.077	42102.99
544.277	42586.32
544.478	42031.32
544.678	42592.46
544.878	42049.75
545.078	42621.13
545.279	41879.77
545.479	42064.08
545.679	42340.56
545.879	42330.32
546.079	42422.48
546.28	42160.34
546.48	42127.57
546.68	42170.58
546.88	42438.86
547.08	42385.61
547.28	42272.98
547.48	42133.71
547.68	42229.97
547.88	42123.47
548.081	42696.91
548.281	42342.61
548.481	42129.62
548.681	42293.46
548.881	42350.8
549.081	42111.19
549.28	42121.43
549.48	42522.83
549.68	42006.74
549.88	43065.54
550.08	41771.22
550.28	42674.38
550.48	42088.66
550.68	42629.32
550.88	42008.79
551.08	42047.7
551.279	42420.43
551.479	41789.66
551.679	42158.29
551.879	42182.87
552.079	42623.18
552.278	41722.07
552.478	42150.1
552.678	41904.34
552.878	42770.63
553.077	41767.13
553.277	41455.84
553.477	42270.93
553.676	41748.7
553.876	41838.81
554.076	41582.81
554.275	41769.18
554.475	41445.6
554.674	41763.03
554.874	42031.32
555.074	41752.79
555.273	41617.63
555.473	41765.08
555.672	41351.39
555.872	41816.28
556.071	41793.75
556.271	41736.41
556.47	41361.63
556.67	41222.37
556.869	41388.25
557.068	41683.16
557.268	41001.19
557.467	41269.47
557.667	41478.36
557.866	41744.6
558.065	40763.62
558.265	40810.73
558.464	40945.89
558.663	41421.02
558.863	40294.64
559.062	41298.14
559.261	40544.49
559.461	40775.91
559.66	40655.08
559.859	40720.62
560.058	40335.6
560.258	40575.21
560.457	40577.26
560.656	40335.6
560.855	40237.3
561.054	40427.76
561.253	40231.15
561.453	40282.35
561.652	40456.43
561.851	40468.72
562.05	40044.79
562.249	39827.7
562.448	39891.19
562.647	40091.89
562.846	39678.2
563.045	39917.81
563.244	39172.35
563.443	39686.39
563.642	39076.1
563.841	39538.94
564.04	39313.66
564.239	39946.48
564.438	39278.85
564.637	39489.79
564.836	39254.27
565.035	38627.59
565.234	39012.61
565.432	39004.42
565.631	38557.96
565.83	38834.44
566.029	38807.81
566.228	38402.32
566.427	38469.9
566.625	37873.94
566.824	38144.27
567.023	38496.52
567.222	37730.58
567.42	38185.23
567.619	38430.99
567.818	37880.08
568.016	37900.56
568.215	38078.74
568.414	37736.73
568.612	37675.29
568.811	37722.39
569.01	37808.4
569.208	36860.19
569.407	37345.56
569.605	36993.31
569.804	37122.33
570.002	36659.49
570.201	36946.21
570.4	36700.45
570.598	36438.31
570.797	36548.9
570.995	36909.35
571.193	36233.52
571.392	36645.16
571.59	36204.84
571.789	36041.01
571.987	36227.37
572.186	36233.52
572.384	35928.37
572.582	36073.77
572.781	35967.28
572.979	35254.59
573.177	35551.54
573.376	35725.62
573.574	35217.72
573.772	35639.61
573.971	34797.89
574.169	34785.6
574.367	34785.6
574.565	35002.69
574.763	34941.25
574.962	34412.87
575.16	34337.1
575.358	34769.22
575.556	34183.5
575.754	34894.14
575.952	34099.53
576.151	34550.09
576.349	33769.81
576.547	33962.32
576.745	34099.53
576.943	34015.57
577.141	33829.2
577.339	33710.42
577.537	33495.38
577.735	33534.29
577.933	33462.61
578.131	33737.04
578.329	33098.08
578.527	33358.17
578.725	32674.15
578.923	33186.14
579.121	33003.87
579.319	32897.38
579.516	32749.92
579.714	32878.94
579.912	32878.94
580.11	32643.43
580.308	32461.16
580.506	32448.87
580.704	32242.03
580.901	32131.44
581.099	32498.02
581.297	32004.46
581.495	32188.78
581.692	32235.88
581.89	31900.01
582.088	32092.52
582.285	31345.02
582.483	31850.86
582.681	31750.51
582.878	31641.97
583.076	31009.15
583.274	31480.18
583.471	30960
583.669	31148.41
583.866	30658.95
584.064	31089.02
584.262	30894.46
584.459	30986.62
584.657	31080.83
584.854	31254.9
585.052	30464.39
585.249	30914.94
585.447	30560.64
585.644	30212.49
585.841	30267.78
586.039	30564.74
586.236	29911.44
586.434	30228.87
586.631	30138.76
586.828	29927.82
587.026	29905.29
587.223	29800.85
587.42	29649.3
587.618	29489.56
587.815	29686.16
588.012	29559.19
588.21	29432.21
588.407	29682.06
588.604	29049.24
588.801	28948.89
588.999	29102.49
589.196	29086.11
589.393	28961.18
589.59	28963.23
589.787	28764.57
589.984	28479.91
590.182	28385.7
590.379	28621.22
590.576	28205.48
590.773	28508.58
590.97	27982.25
591.167	28606.88
591.364	27783.6
591.561	28248.49
591.758	27818.41
591.955	27929
592.152	27896.24
592.349	27531.7
592.546	27582.9
592.743	27699.63
592.94	26991.03
593.137	27234.74
593.334	27597.23
593.531	26786.24
593.727	27345.33
593.924	27267.51
594.121	26925.5
594.318	27546.03
594.515	26968.51
594.712	27300.28
594.908	26624.45
595.105	26765.76
595.302	26581.44
595.499	26593.73
595.696	26388.93
595.892	26692.03
596.089	26571.2
596.286	26472.9
596.482	25965
596.679	26145.22
596.876	26157.51
597.072	25981.38
597.269	26034.63
597.466	26018.25
597.662	25735.63
597.859	25545.17
598.055	25627.09
598.252	25260.5
598.448	25344.47
598.645	25225.68
598.841	25188.82
599.038	25274.84
599.234	25041.37
599.431	24816.09
599.627	24971.74
599.824	24752.6
600.02	24672.73
600.217	25033.18
600.413	24566.24
600.609	24490.46
600.806	24435.17
601.002	24617.44
601.198	24406.5
601.395	24441.31
601.591	24390.11
601.787	24240.61
601.984	24203.75
602.18	24257
602.376	24304.1
602.572	24148.45
602.769	23951.85
602.965	23810.54
603.161	24007.14
603.357	23927.27
603.553	23572.97
603.75	24076.77
603.946	23304.69
604.142	23312.88
604.338	23020.02
604.534	23495.15
604.73	23001.59
604.926	23302.64
605.122	23263.73
605.318	23089.65
605.514	22960.63
605.71	22974.97
605.906	22729.21
606.102	22858.23
606.298	22696.44
606.494	22804.99
606.69	22594.04
606.886	22655.48
607.082	22579.71
607.278	22520.32
607.474	22385.15
607.67	22487.55
607.866	22141.44
608.062	22452.73
608.257	22112.77
608.453	22229.51
608.649	22301.19
608.845	21836.3
609.041	22045.19
609.236	22014.47
609.432	21893.64
609.628	21699.08
609.824	22026.76
610.019	21697.03
610.215	21496.33
610.411	21895.69
610.606	21586.44
610.802	22153.73
610.998	21635.6
611.193	21699.08
611.389	21434.89
611.584	21205.52
611.78	21324.3
611.976	21262.86
612.171	21393.93
612.367	21324.3
612.562	21101.08
612.758	20988.44
612.953	20943.38
613.149	21455.37
613.344	20714.01
613.539	21248.53
613.735	21172.75
613.93	21019.16
614.126	20918.81
614.321	21078.55
614.517	21004.82
614.712	20570.65
614.907	20683.29
615.103	20927
615.298	20791.83
615.493	20781.59
615.688	20558.36
615.884	20855.32
616.079	20173.35
616.274	20728.35
616.47	20615.71
616.665	20238.88
616.86	20357.66
617.055	20593.18
617.25	20402.72
617.445	20372
617.641	20048.42
617.836	20185.63
618.031	20111.91
618.226	19886.63
618.421	19857.96
618.616	19978.79
618.811	19857.96
619.006	19972.64
619.201	19667.5
619.396	19773.99
619.591	19198.51
619.786	19804.71
619.981	19288.62
620.176	19532.33
620.371	19006
620.566	18897.46
620.761	19008.05
620.956	19264.05
621.151	18752.06
621.346	19122.74
621.541	18375.23
621.735	18862.65
621.93	18491.96
622.125	18424.38
622.32	18143.81
622.515	18397.76
622.709	18154.05
622.904	18195.01
623.099	18270.78
623.294	17951.3
623.488	17896
623.683	18037.31
623.878	17709.64
624.072	17812.04
624.267	17723.97
624.462	17611.34
624.656	17285.71
624.851	17328.72
625.046	17396.3
625.24	17064.53
625.435	16790.1
625.629	16988.75
625.824	16894.55
626.018	16669.27
626.213	16527.96
626.407	16581.21
626.602	16269.92
626.796	16552.54
626.991	16501.34
627.185	16274.01
627.38	16163.42
627.574	16132.7
627.768	15929.95
627.963	15774.31
628.157	15948.39
628.352	16032.35
628.546	15624.81
628.74	15893.09
628.935	15198.83
629.129	15473.26
629.323	15467.11
629.517	15366.76
629.712	15354.48
629.906	15098.48
630.1	14711.41
630.294	14994.03
630.489	15110.77
630.683	14867.06
630.877	14705.27
631.071	14856.82
631.265	14783.09
631.459	14416.51
631.653	14260.86
631.848	14115.45
632.042	14092.93
632.236	14205.56
632.43	14041.73
632.624	14207.61
632.818	14080.64
633.012	13843.07
633.206	13935.23
633.4	13820.55
633.594	13712
633.788	13697.67
633.982	13550.21
634.176	13396.62
634.369	13347.47
634.563	13419.14
634.757	13142.67
634.951	13306.51
635.145	12898.96
635.339	13144.72
635.533	12948.11
635.726	13038.22
635.92	12905.1
636.114	12806.8
636.308	12819.09
636.501	12788.37
636.695	12767.89
636.889	12538.52
637.083	12372.63
637.276	12446.36
637.47	12489.37
637.664	12292.76
637.857	12182.17
638.051	12298.91
638.244	12198.56
638.438	12130.97
638.632	11940.51
638.825	11944.61
639.019	11858.59
639.212	11745.95
639.406	11899.55
639.599	11768.48
639.793	11694.75
639.986	11322.02
640.18	11674.28
640.373	11371.18
640.567	11307.69
640.76	11270.83
640.954	11242.15
641.147	10975.92
641.34	11106.99
641.534	11063.98
641.727	11111.08
641.92	10779.31
642.114	10894
642.307	10756.79
642.5	10961.58
642.694	10717.87
642.887	10549.94
643.08	10676.91
643.273	10601.14
643.467	10511.03
643.66	10625.72
643.853	10347.19
644.046	10293.94
644.239	10252.98
644.432	10267.32
644.626	10156.73
644.819	9927.36
645.012	10091.2
645.205	10029.76
645.398	9996.99
645.591	9849.54
645.784	9845.44
645.977	9841.34
646.17	9618.11
646.363	9566.92
646.556	9634.5
646.749	9485
646.942	9740.99
647.135	9335.49
647.328	9417.41
647.521	9550.53
647.714	9374.41
647.907	9321.16
648.099	9224.9
648.292	9323.21
648.485	9235.14
648.678	9091.79
648.871	8876.75
649.064	8964.81
649.256	9013.96
649.449	9022.16
649.642	8966.86
649.835	8835.79
650.027	8927.95
650.22	8694.48
650.413	8708.82
650.605	8569.55
650.798	8475.35
650.991	8499.92
651.183	8608.47
651.376	8438.48
651.568	8620.75
651.761	8405.72
651.954	8420.05
652.146	8139.48
652.339	8258.26
652.531	8213.21
652.724	8129.24
652.916	7959.26
653.109	7977.69
653.301	8131.29
653.494	8151.77
653.686	8065.75
653.879	8143.58
654.071	7998.17
654.263	7738.08
654.456	7789.28
654.648	7781.09
654.84	7658.21
655.033	7901.92
655.225	7619.3
655.417	7473.89
655.61	7600.87
655.802	7506.66
655.994	7424.74
656.186	7559.91
656.379	7355.11
656.571	7469.8
656.763	7338.73
656.955	7289.57
657.148	7369.44
657.34	7314.15
657.532	7299.81
657.724	7228.14
657.916	7109.35
658.108	7088.87
658.3	6857.45
658.492	7097.07
658.684	6763.25
658.876	6992.62
659.068	6939.37
659.26	6869.74
659.452	6904.56
659.644	6869.74
659.836	6683.38
660.028	6912.75
660.22	6789.87
660.412	6816.49
660.604	6628.08
660.796	6576.88
660.988	6449.91
661.18	6431.48
661.372	6425.33
661.563	6464.24
661.755	6261.49
661.947	6290.17
662.139	6365.94
662.331	6423.28
662.522	6316.79
662.714	6236.92
662.906	6134.52
663.097	6335.22
663.289	6075.13
663.481	6179.58
663.673	6042.36
663.864	6064.89
664.056	6052.6
664.247	6111.99
664.439	5784.32
664.631	6040.31
664.822	5894.91
665.014	6023.93
665.205	5804.8
665.397	5858.04
665.588	5772.03
665.78	5917.44
665.971	5829.37
666.163	5837.56
666.354	5759.74
666.546	5622.53
666.737	5679.87
666.929	5604.1
667.12	5661.44
667.311	5745.41
667.503	5526.27
667.694	5346.05
667.885	5366.53
668.077	5563.14
668.268	5374.72
668.459	5432.07
668.651	5434.11
668.842	5352.2
669.033	5341.96
669.224	5294.85
669.416	5227.27
669.607	5288.71
669.798	5214.98
669.989	5337.86
670.18	5210.89
670.371	5182.21
670.563	5022.47
670.754	5235.46
670.945	5112.58
671.136	5174.02
671.327	5120.78
671.518	4965.13
671.709	5112.58
671.9	4922.12
672.091	4895.5
672.282	4961.03
672.473	4854.54
672.664	4887.31
672.855	4813.58
673.046	4918.03
673.237	4791.05
673.428	4768.52
673.619	4819.72
673.809	4834.06
674	4733.71
674.191	4719.37
674.382	4776.72
674.573	4694.8
674.764	4752.14
674.954	4725.52
675.145	4705.04
675.336	4698.89
675.527	4672.27
675.717	4713.23
675.908	4549.39
676.099	4594.45
676.289	4647.69
676.48	4614.93
676.671	4469.52
676.861	4508.43
677.052	4535.06
677.243	4436.75
677.433	4373.27
677.624	4395.79
677.814	4457.23
678.005	4358.93
678.195	4412.18
678.386	4459.28
678.576	4475.67
678.767	4391.7
678.957	4244.24
679.148	4473.62
679.338	4248.34
679.529	4283.16
679.719	4195.09
679.909	4457.23
680.1	4252.44
680.29	4371.22
680.481	4274.96
680.671	4227.86
680.861	4293.4
681.052	4334.36
681.242	4342.55
681.432	4303.64
681.622	3957.53
681.813	4305.68
682.003	4272.92
682.193	4082.46
682.383	4082.46
682.573	4260.63
682.764	4174.61
682.954	4258.58
683.144	4139.8
683.334	4053.78
683.524	4197.14
683.714	4174.61
683.904	4066.07
684.094	4104.98
684.284	3980.06
684.474	3971.86
684.664	4021.02
684.854	4018.97
685.044	3969.82
685.234	4070.17
685.424	4010.78
685.614	3859.23
685.804	3818.27
685.994	4010.78
686.184	3971.86
686.374	3953.43
686.564	3875.61
686.753	3910.43
686.943	3941.15
687.133	3824.41
687.323	3799.84
687.513	3814.17
687.702	3771.16
687.892	3879.71
688.082	3779.36
688.272	3914.52
688.461	3638.05
688.651	3978.01
688.841	3633.95
689.03	3676.96
689.22	3654.43
689.41	3650.33
689.599	3687.2
689.789	3754.78
689.979	3687.2
690.168	3719.96
690.358	3590.94
690.547	3644.19
690.737	3586.85
690.926	3668.77
691.116	3568.41
691.305	3638.05
691.495	3545.89
691.684	3451.68
691.874	3509.02
692.063	3496.74
692.252	3576.61
692.442	3556.13
692.631	3490.59
692.82	3531.55
693.01	3584.8
693.199	3562.27
693.388	3375.91
693.578	3535.65
693.767	3564.32
693.956	3400.48
694.146	3513.12
694.335	3453.73
694.524	3449.63
694.713	3418.91
694.902	3234.6
695.092	3527.46
695.281	3425.06
695.47	3343.14
695.659	3357.47
695.848	3396.39
696.037	3357.47
696.226	3371.81
696.415	3238.69
696.604	3408.67
696.793	3230.5
696.982	3306.27
697.171	3369.76
697.36	3406.63
697.549	3205.92
697.738	3291.94
697.927	3212.07
698.116	3259.17
698.305	3320.61
698.494	3156.77
698.683	3257.12
698.872	3269.41
699.061	3330.85
699.25	3234.6
699.438	3173.16
699.627	3324.71
699.816	3285.8
700.005	3357.47
700.193	3216.16
700.382	3226.4
700.571	3257.12
700.76	3275.56
700.948	3222.31
701.137	3304.23
701.326	3228.45
701.514	3236.64
701.703	3154.73
701.892	3308.32
702.08	3304.23
702.269	3357.47
702.457	3177.25
702.646	3226.4
702.834	3316.51
703.023	3185.44
703.212	3130.15
703.4	3261.22
703.589	3298.08
703.777	3306.27
703.965	3205.92
704.154	3318.56
704.342	3042.09
704.531	3205.92
704.719	3234.6
704.907	3242.79
705.096	3062.57
705.284	3259.17
705.472	3124.01
705.661	3126.05
705.849	3242.79
706.037	3281.7
706.226	3169.06
706.414	3164.97
706.602	3212.07
706.79	3162.92
706.979	3099.43
707.167	3177.25
707.355	3074.85
707.543	3232.55
707.731	3056.42
707.919	3152.68
708.107	3216.16
708.296	3216.16
708.484	3152.68
708.672	3152.68
708.86	3218.21
709.048	3207.97
709.236	3242.79
709.424	3210.02
709.612	3037.99
709.8	3210.02
709.988	3134.25
710.176	3134.25
710.364	3144.49
710.551	3058.47
710.739	3087.14
710.927	3058.47
711.115	3115.81
711.303	3173.16
711.491	3089.19
711.679	3210.02
711.866	3040.04
712.054	3261.22
712.242	3201.83
712.43	3072.81
712.617	3154.73
712.805	3017.51
712.993	3058.47
713.181	2986.79
713.368	2994.98
713.556	3003.18
713.744	2933.54
713.931	3097.38
714.119	2980.65
714.306	2999.08
714.494	2994.98
714.682	3011.37
714.869	2997.03
715.057	2999.08
715.244	3068.71
715.432	3115.81
715.619	3091.24
715.807	3078.95
715.994	3025.7
716.182	3005.22
716.369	3068.71
716.556	2994.98
716.744	2960.17
716.931	2999.08
717.119	3060.52
717.306	3005.22
717.493	2900.78
717.681	2986.79
717.868	2976.55
718.055	3074.85
718.242	2935.59
718.43	3072.81
718.617	2966.31
718.804	2884.39
718.991	2841.39
719.179	3011.37
719.366	2976.55
719.553	2997.03
719.74	2788.14
719.927	3046.18
720.114	2962.22
720.301	2943.78
720.488	2900.78
720.676	2902.83
720.863	2872.11
721.05	2966.31
721.237	2982.7
721.424	3019.56
721.611	2800.43
721.798	2841.39
721.985	2831.15
722.172	2876.2
722.358	2945.83
722.545	2978.6
722.732	2808.62
722.919	2829.1
723.106	2822.95
723.293	2890.54
723.48	2894.63
723.667	2822.95
723.853	2788.14
724.04	2925.35
724.227	2872.11
724.414	2730.8
724.6	2896.68
724.787	2781.99
724.974	2921.26
725.161	2714.41
725.347	2771.76
725.534	2800.43
725.72	2829.1
725.907	2833.19
726.094	2863.91
726.28	2904.87
726.467	2730.8
726.653	2693.93
726.84	2874.15
727.027	2917.16
727.213	2790.19
727.4	2708.27
727.586	2816.81
727.773	2779.95
727.959	2720.56
728.145	2825
728.332	2757.42
728.518	2822.95
728.705	2876.2
728.891	2704.17
729.077	2851.63
729.264	2808.62
729.45	2702.12
729.636	2831.15
729.823	2833.19
730.009	2845.48
730.195	2741.04
730.382	2749.23
730.568	2775.85
730.754	2765.61
730.94	2759.47
731.126	2609.97
731.313	2784.04
731.499	2743.08
731.685	2634.54
731.871	2691.88
732.057	2777.9
732.243	2751.28
732.429	2663.21
732.615	2812.71
732.801	2655.02
732.987	2675.5
733.173	2710.32
733.359	2702.12
733.545	2681.64
733.731	2685.74
733.917	2650.92
734.103	2693.93
734.289	2622.25
734.475	2526
734.661	2702.12
734.847	2652.97
735.033	2552.62
735.219	2599.73
735.404	2781.99
735.59	2698.03
735.776	2730.8
735.962	2579.25
736.148	2597.68
736.333	2650.92
736.519	2526
736.705	2636.59
736.89	2612.01
737.076	2650.92
737.262	2597.68
737.447	2571.05
737.633	2618.16
737.819	2526
738.004	2566.96
738.19	2495.28
738.375	2677.55
738.561	2503.47
738.747	2538.29
738.932	2427.7
739.118	2609.97
739.303	2589.49
739.489	2407.22
739.674	2542.38
739.859	2394.93
740.045	2593.58
740.23	2396.98
740.416	2566.96
740.601	2480.94
740.786	2446.13
740.972	2364.21
741.157	2454.32
741.342	2425.65
741.528	2466.61
741.713	2478.9
741.898	2331.44
742.084	2476.85
742.269	2370.35
742.454	2380.59
742.639	2372.4
742.824	2356.02
743.01	2321.2
743.195	2380.59
743.38	2353.97
743.565	2349.87
743.75	2382.64
743.935	2327.35
744.12	2337.59
744.305	2323.25
744.49	2241.33
744.675	2394.93
744.86	2284.34
745.045	2284.34
745.23	2216.76
745.415	2270
745.6	2321.2
745.785	2304.82
745.97	2245.43
746.155	2231.09
746.34	2188.08
746.525	2216.76
746.71	2188.08
746.895	2241.33
747.079	2089.78
747.264	2097.97
747.449	2216.76
747.634	2085.69
747.819	2100.02
748.003	2106.17
748.188	2014.01
748.373	2106.17
748.557	2024.25
748.742	2040.63
748.927	2014.01
749.111	2114.36
749.296	1977.14
749.481	1993.53
749.665	1930.04
749.85	1968.95
750.034	1932.09
750.219	1905.46
750.404	1899.32
750.588	1878.84
750.773	1895.22
750.957	1782.59
751.141	1846.07
751.326	1983.29
751.51	1764.15
751.695	1794.87
751.879	1766.2
752.064	1798.97
752.248	1825.59
752.432	1827.64
752.617	1733.43
752.801	1821.5
752.985	1655.61
753.17	1815.35
753.354	1682.24
753.538	1694.52
753.722	1571.65
753.907	1698.62
754.091	1661.76
754.275	1641.28
754.459	1622.84
754.643	1739.58
754.828	1626.94
755.012	1567.55
755.196	1581.89
755.38	1676.09
755.564	1555.26
755.748	1567.55
755.932	1524.54
756.116	1536.83
756.3	1618.75
756.484	1461.06
756.668	1575.74
756.852	1391.42
757.036	1481.53
757.22	1424.19
757.404	1461.06
757.588	1436.48
757.772	1401.66
757.956	1407.81
758.14	1461.06
758.323	1555.26
758.507	1307.46
758.691	1325.89
758.875	1389.38
759.059	1459.01
759.242	1315.65
759.426	1303.36
759.61	1362.75
759.794	1397.57
759.977	1317.7
760.161	1401.66
760.345	1368.9
760.528	1336.13
760.712	1401.66
760.895	1305.41
761.079	1291.07
761.263	1248.07
761.446	1258.31
761.63	1286.98
761.813	1264.45
761.997	1270.59
762.18	1209.15
762.364	1354.56
762.547	1194.82
762.731	1301.31
762.914	1338.18
763.098	1229.63
763.281	1227.59
763.464	1223.49
763.648	1252.16
763.831	1196.87
764.015	1264.45
764.198	1129.28
764.381	1174.34
764.564	1135.43
764.748	1217.35
764.931	1110.85
765.114	1047.37
765.297	1270.59
765.481	1141.57
765.664	1112.9
765.847	1186.63
766.03	1119.04
766.213	1086.28
766.397	1112.9
766.58	1162.05
766.763	1186.63
766.946	1063.75
767.129	1102.66
767.312	1018.69
767.495	1114.95
767.678	1076.04
767.861	1135.43
768.044	1133.38
768.227	1059.65
768.41	1055.56
768.593	1067.85
768.776	1114.95
768.959	1133.38
769.142	1108.8
769.324	1026.89
769.507	1117
769.69	1053.51
769.873	1045.32
770.056	1049.41
770.239	1063.75
770.421	1080.13
770.604	998.21
770.787	1045.32
770.97	959.3
771.152	969.54
771.335	1024.84
771.518	955.21
771.7	1043.27
771.883	971.59
772.066	963.4
772.248	961.35
772.431	981.83
772.613	1028.93
772.796	957.25
772.978	834.38
773.161	1049.41
773.343	858.95
773.526	938.82
773.708	930.63
773.891	914.25
774.073	916.3
774.256	879.43
774.438	901.96
774.621	858.95
774.803	846.66
774.985	895.82
775.168	895.82
775.35	914.25
775.532	920.39
775.715	930.63
775.897	889.67
776.079	783.18
776.261	828.23
776.444	897.86
776.626	865.1
776.808	742.22
776.99	815.94
777.173	766.79
777.355	789.32
777.537	721.74
777.719	781.13
777.901	865.1
778.083	795.47
778.265	668.49
778.447	715.59
778.629	756.55
778.811	688.97
778.993	844.62
779.175	850.76
779.357	662.35
779.539	629.58
779.721	662.35
779.903	703.31
780.085	766.79
780.267	707.4
780.449	676.68
780.631	660.3
780.812	734.03
780.994	774.99
781.176	680.78
781.358	684.87
781.54	664.4
781.721	607.05
781.903	645.96
782.085	680.78
782.267	580.43
782.448	605
782.63	537.42
782.812	631.63
782.993	736.07
783.175	629.58
783.357	570.19
783.538	611.15
783.72	613.2
783.901	639.82
784.083	664.4
784.264	631.63
784.446	537.42
784.627	551.76
784.809	543.57
784.99	570.19
785.172	641.87
785.353	508.75
785.535	543.57
785.716	541.52
785.897	551.76
786.079	605
786.26	525.13
786.441	574.28
786.623	551.76
786.804	521.04
786.985	537.42
787.167	516.94
787.348	547.66
787.529	518.99
787.71	553.8
787.891	504.65
788.073	549.71
788.254	422.73
788.435	492.37
788.616	465.74
788.797	424.78
788.978	478.03
789.159	467.79
789.34	455.5
789.522	512.85
789.703	428.88
789.884	437.07
790.065	480.08
790.246	478.03
790.427	430.93
790.607	467.79
790.788	340.82
790.969	518.99
791.15	439.12
791.331	412.5
791.512	439.12
791.693	416.59
791.874	488.27
792.054	451.41
792.235	445.26
792.416	441.17
792.597	422.73
792.778	328.53
792.958	455.5
793.139	412.5
793.32	465.74
793.5	412.5
793.681	392.02
793.862	426.83
794.042	396.11
794.223	299.86
794.404	385.87
794.584	389.97
794.765	373.58
794.945	422.73
795.126	394.06
795.306	359.25
795.487	306
795.667	406.35
795.848	424.78
796.028	371.54
796.209	420.69
796.389	373.58
796.57	357.2
796.75	377.68
796.93	420.69
797.111	344.91
797.291	369.49
797.471	340.82
797.652	355.15
797.832	340.82
798.012	351.06
798.192	303.95
798.373	373.58
798.553	326.48
798.733	322.38
798.913	377.68
799.093	293.71
799.274	287.57
799.454	316.24
799.634	353.1
799.814	295.76
799.994	414.54
800.174	301.9
800.354	357.2
800.534	312.14
800.714	316.24
800.894	273.23
801.074	332.62
801.254	230.23
801.434	283.47
801.614	267.09
801.794	234.32
801.974	641.87
802.154	283.47
802.334	377.68
802.514	254.8
802.693	244.56
802.873	297.81
803.053	310.1
803.233	301.9
803.413	328.53
803.592	158.55
803.772	252.75
803.952	275.28
804.131	293.71
804.311	291.66
804.491	293.71
804.67	213.84
804.85	279.38
805.03	279.38
805.209	254.8
805.389	256.85
805.568	240.47
805.748	275.28
805.928	275.28
806.107	197.46
806.287	203.6
806.466	322.38
806.646	273.23
806.825	277.33
807.004	234.32
807.184	267.09
807.363	322.38
807.543	244.56
807.722	215.89
807.901	281.43
808.081	197.46
808.26	172.88
808.439	265.04
808.619	205.65
808.798	281.43
808.977	179.03
809.156	219.99
809.336	267.09
809.515	236.37
809.694	238.42
809.873	217.94
810.052	199.51
810.231	303.95
810.411	265.04
810.59	183.12
810.769	123.73
810.948	273.23
811.127	193.36
811.306	207.7
811.485	213.84
811.664	265.04
811.843	160.59
812.022	191.31
812.201	197.46
812.38	275.28
812.559	254.8
812.737	174.93
812.916	136.02
813.095	207.7
813.274	242.51
813.453	203.6
813.632	179.03
813.811	238.42
813.989	168.79
814.168	148.31
814.347	176.98
814.526	156.5
814.704	310.1
814.883	136.02
815.062	222.03
815.24	125.78
815.419	236.37
815.598	166.74
815.776	181.07
815.955	217.94
816.133	115.54
816.312	211.79
816.49	187.22
816.669	179.03
816.847	136.02
817.026	148.31
817.204	199.51
817.383	191.31
817.561	152.4
817.74	160.59
817.918	123.73
818.097	176.98
818.275	164.69
818.453	174.93
818.632	217.94
818.81	176.98
818.988	82.77
819.167	168.79
819.345	168.79
819.523	166.74
819.701	176.98
819.879	195.41
820.058	197.46
820.236	181.07
820.414	140.12
820.592	123.73
820.77	172.88
820.948	195.41
821.127	172.88
821.305	158.55
821.483	144.21
821.661	123.73
821.839	123.73
822.017	172.88
822.195	160.59
822.373	152.4
822.551	131.92
822.729	107.35
822.907	117.59
823.085	123.73
823.262	131.92
823.44	176.98
823.618	164.69
823.796	154.45
823.974	160.59
824.152	138.07
824.329	195.41
824.507	219.99
824.685	97.11
824.863	115.54
825.04	201.55
825.218	148.31
825.396	109.4
825.574	121.68
825.751	107.35
825.929	37.72
826.107	103.25
826.284	156.5
826.462	160.59
826.639	33.62
826.817	162.64
826.994	133.97
827.172	27.48
827.349	179.03
827.527	119.64
827.704	111.44
827.882	185.17
828.059	131.92
828.237	148.31
828.414	129.88
828.591	90.96
828.769	158.55
828.946	88.92
829.124	95.06
829.301	203.6
829.478	144.21
829.655	166.74
829.833	119.64
830.01	78.68
830.187	172.88
830.364	70.48
830.542	56.15
830.719	162.64
830.896	119.64
831.073	119.64
831.25	107.35
831.427	99.16
831.604	133.97
831.782	43.86
831.959	156.5
832.136	142.16
832.313	115.54
832.49	148.31
832.667	131.92
832.844	144.21
833.021	72.53
833.198	54.1
833.374	86.87
833.551	84.82
833.728	80.72
833.905	158.55
834.082	66.39
834.259	97.11
834.436	64.34
834.612	115.54
834.789	93.01
834.966	86.87
835.143	142.16
835.319	119.64
835.496	123.73
835.673	74.58
835.85	84.82
836.026	183.12
836.203	109.4
836.38	101.2
836.556	54.1
836.733	133.97
836.909	86.87
837.086	123.73
837.262	119.64
837.439	43.86
837.616	52.05
837.792	148.31
837.968	138.07
838.145	62.29
838.321	35.67
838.498	90.96
838.674	72.53
838.851	21.33
839.027	150.36
839.203	54.1
839.38	211.79
839.556	70.48
839.732	131.92
839.909	84.82
840.085	129.88
840.261	39.76
840.437	119.64
840.614	33.62
840.79	82.77
840.966	93.01
841.142	39.76
841.318	119.64
841.494	109.4
841.671	138.07
841.847	41.81
842.023	54.1
842.199	109.4
842.375	70.48
842.551	39.76
842.727	64.34
842.903	80.72
843.079	41.81
843.255	123.73
843.431	125.78
843.607	158.55
843.783	-46.25
843.959	35.67
844.134	84.82
844.31	86.87
844.486	99.16
844.662	31.57
844.838	50
845.013	90.96
845.189	70.48
845.365	68.44
845.541	37.72
845.716	74.58
845.892	68.44
846.068	50
846.244	99.16
846.419	113.49
846.595	109.4
846.77	50
846.946	74.58
847.122	90.96
847.297	119.64
847.473	138.07
847.648	62.29
847.824	74.58
847.999	62.29
848.175	31.57
848.35	121.68
848.526	19.29
848.701	43.86
848.876	101.2
849.052	64.34
849.227	99.16
849.403	37.72
849.578	45.91
849.753	136.02
849.929	150.36
850.104	117.59
850.279	72.53
850.454	99.16
850.63	90.96
850.805	62.29
850.98	93.01
851.155	33.62
851.33	82.77
851.505	90.96
851.681	103.25
851.856	-13.48
852.031	62.29
852.206	90.96
852.381	23.38
852.556	97.11
852.731	131.92
852.906	136.02
853.081	123.73
853.256	31.57
853.431	86.87
853.606	4.95
853.781	76.63
853.956	21.33
854.131	52.05
854.305	50
854.48	76.63
854.655	45.91
854.83	60.24
855.005	131.92
855.18	78.68
855.354	74.58
855.529	52.05
855.704	39.76
855.879	125.78
856.053	50
856.228	86.87
856.403	4.95
856.577	70.48
856.752	13.14
856.926	121.68
857.101	66.39
857.276	52.05
857.45	93.01
857.625	47.96
857.799	162.64
857.974	25.43
858.148	41.81
858.323	45.91
858.497	82.77
858.672	37.72
858.846	41.81
859.02	95.06
859.195	60.24
859.369	78.68
859.543	4.95
859.718	23.38
859.892	84.82
860.066	25.43
860.241	21.33
860.415	58.2
860.589	41.81
860.763	21.33
860.938	11.09
861.112	111.44
861.286	13.14
861.46	95.06
861.634	33.62
861.808	50
861.982	29.52
862.157	58.2
862.331	27.48
862.505	39.76
862.679	60.24
862.853	88.92
863.027	-15.53
863.201	56.15
863.375	-3.24
863.549	82.77
863.722	39.76
863.896	119.64
864.07	60.24
864.244	-17.58
864.418	54.1
864.592	45.91
864.766	101.2
864.939	13.14
865.113	119.64
865.287	15.19
865.461	52.05
865.634	25.43
865.808	35.67
865.982	62.29
866.156	60.24
866.329	25.43
866.503	31.57
866.676	-7.34
866.85	35.67
867.024	35.67
867.197	21.33
867.371	99.16
867.544	70.48
867.718	62.29
867.891	11.09
868.065	78.68
868.238	113.49
868.412	45.91
868.585	33.62
868.759	50
868.932	93.01
869.105	45.91
869.279	-19.63
869.452	35.67
869.625	-1.19
869.799	45.91
869.972	68.44
870.145	66.39
870.319	-13.48
870.492	66.39
870.665	15.19
870.838	64.34
871.011	-23.72
871.185	97.11
871.358	11.09
871.531	-27.82
871.704	62.29
871.877	154.45
872.05	68.44
872.223	56.15
872.396	45.91
872.569	56.15
872.742	52.05
872.915	86.87
873.088	13.14
873.261	47.96
873.434	-15.53
873.607	41.81
873.78	56.15
873.953	15.19
874.126	80.72
874.299	13.14
874.471	-40.11
874.644	84.82
874.817	56.15
874.99	62.29
875.163	-11.43
875.335	78.68
875.508	90.96
875.681	113.49
875.853	33.62
876.026	41.81
876.199	90.96
876.371	74.58
876.544	50
876.717	27.48
876.889	60.24
877.062	88.92
877.234	-25.77
877.407	-9.39
877.579	52.05
877.752	70.48
877.924	-11.43
878.097	11.09
878.269	13.14
878.442	62.29
878.614	21.33
878.786	15.19
878.959	58.2
879.131	33.62
879.303	54.1
879.476	17.24
879.648	0.85
879.82	0.85
879.993	39.76
880.165	72.53
880.337	15.19
880.509	39.76
880.681	21.33
880.854	115.54
881.026	33.62
881.198	17.24
881.37	13.14
881.542	58.2
881.714	-5.29
881.886	-44.2
882.058	33.62
882.23	74.58
882.402	21.33
882.574	58.2
882.746	101.2
882.918	84.82
883.09	148.31
883.262	37.72
883.434	0.85
883.606	2.9
883.778	33.62
883.95	25.43
884.122	-13.48
884.293	50
884.465	-36.01
884.637	-5.29
884.809	52.05
884.98	27.48
885.152	97.11
885.324	52.05
885.496	56.15
885.667	72.53
885.839	29.52
886.011	76.63
886.182	25.43
886.354	50
886.525	33.62
886.697	19.29
886.869	15.19
887.04	47.96
887.212	62.29
887.383	109.4
887.555	37.72
887.726	19.29
887.897	-11.43
888.069	-15.53
888.24	41.81
888.412	60.24
888.583	66.39
888.754	-64.68
888.926	7
889.097	-7.34
889.268	37.72
889.44	19.29
889.611	-19.63
889.782	31.57
889.953	-40.11
890.125	27.48
890.296	-21.67
890.467	19.29
890.638	60.24
890.809	29.52
890.98	37.72
891.151	17.24
891.323	33.62
891.494	33.62
891.665	13.14
891.836	-1.19
892.007	27.48
892.178	43.86
892.349	-17.58
892.52	-1.19
892.691	74.58
892.862	17.24
893.032	-74.92
893.203	76.63
893.374	64.34
893.545	56.15
893.716	35.67
893.887	58.2
894.057	45.91
894.228	39.76
894.399	52.05
894.57	58.2
894.74	52.05
894.911	4.95
895.082	-40.11
895.253	15.19
895.423	0.85
895.594	19.29
895.764	15.19
895.935	-42.15
896.106	60.24
896.276	-50.35
896.447	68.44
896.617	66.39
896.788	-36.01
896.958	-17.58
897.129	27.48
897.299	76.63
897.47	68.44
897.64	76.63
897.81	-3.24
897.981	11.09
898.151	-17.58
898.322	-9.39
898.492	41.81
898.662	19.29
898.832	13.14
899.003	-27.82
899.173	21.33
899.343	39.76
899.513	-44.2
