Data from USB4F104151__59__11-05-56-406.txt Node

Date: Wed Mar 12 11:05:56 EDT 2025
User: louis
Spectrometer: USB4F10415
Trigger mode: 4
Integration Time (sec): 2.000000E-2
Scans to average: 1
Electric dark correction enabled: true
Nonlinearity correction enabled: false
Boxcar width: 0
XAxis mode: Wavelengths
Number of Pixels in Spectrum: 3648
>>>>>Begin Spectral Data<<<<<
178.204	-70.14
178.424	-70.14
178.644	-70.14
178.864	-64
179.084	-102.91
179.304	30.21
179.524	11.78
179.744	-43.52
179.964	65.02
180.184	32.26
180.404	-25.09
180.624	-41.47
180.844	-55.81
181.064	22.02
181.283	-18.94
181.503	9.73
181.723	13.82
181.943	5.63
182.163	3.58
182.383	-25.09
182.602	44.54
182.822	17.92
183.042	-18.94
183.262	62.98
183.482	77.31
183.701	32.26
183.921	108.03
184.141	54.78
184.361	9.73
184.58	32.26
184.8	-14.85
185.02	48.64
185.239	62.98
185.459	1.54
185.679	71.17
185.898	9.73
186.118	38.4
186.338	1.54
186.557	52.74
186.777	-45.57
186.997	75.26
187.216	71.17
187.436	103.93
187.655	65.02
187.875	87.55
188.095	-23.04
188.314	67.07
188.534	101.89
188.753	-6.66
188.973	77.31
189.192	67.07
189.412	73.21
189.631	9.73
189.851	89.6
190.07	50.69
190.29	24.06
190.509	56.83
190.729	26.11
190.948	103.93
191.168	151.04
191.387	71.17
191.607	54.78
191.826	79.36
192.045	9.73
192.265	103.93
192.484	110.08
192.704	9.73
192.923	46.59
193.142	9.73
193.362	60.93
193.581	112.13
193.8	7.68
194.02	130.56
194.239	-0.51
194.458	19.97
194.678	-25.09
194.897	26.11
195.116	26.11
195.335	30.21
195.555	3.58
195.774	50.69
195.993	9.73
196.212	-20.99
196.432	-0.51
196.651	73.21
196.87	56.83
197.089	89.6
197.308	22.02
197.528	-4.61
197.747	19.97
197.966	38.4
198.185	99.84
198.404	32.26
198.623	83.45
198.842	24.06
199.062	54.78
199.281	73.21
199.5	40.45
199.719	67.07
199.938	91.65
200.157	54.78
200.376	65.02
200.595	46.59
200.814	140.8
201.033	17.92
201.252	67.07
201.471	-25.09
201.69	110.08
201.909	24.06
202.128	71.17
202.347	-27.14
202.566	54.78
202.785	50.69
203.004	91.65
203.223	40.45
203.442	60.93
203.661	91.65
203.879	46.59
204.098	81.41
204.317	26.11
204.536	60.93
204.755	-2.56
204.974	26.11
205.193	40.45
205.411	62.98
205.63	28.16
205.849	1.54
206.068	85.5
206.287	46.59
206.505	79.36
206.724	50.69
206.943	44.54
207.162	44.54
207.381	-45.57
207.599	-39.42
207.818	71.17
208.037	-6.66
208.255	19.97
208.474	138.75
208.693	50.69
208.911	65.02
209.13	50.69
209.349	38.4
209.567	22.02
209.786	26.11
210.005	91.65
210.223	132.61
210.442	73.21
210.661	38.4
210.879	9.73
211.098	30.21
211.316	46.59
211.535	28.16
211.753	17.92
211.972	60.93
212.191	58.88
212.409	89.6
212.628	93.69
212.846	73.21
213.065	19.97
213.283	22.02
213.502	128.51
213.72	11.78
213.938	-39.42
214.157	60.93
214.375	46.59
214.594	60.93
214.812	52.74
215.031	48.64
215.249	17.92
215.467	95.74
215.686	87.55
215.904	42.5
216.122	34.3
216.341	77.31
216.559	62.98
216.778	38.4
216.996	54.78
217.214	-0.51
217.432	67.07
217.651	112.13
217.869	17.92
218.087	36.35
218.306	56.83
218.524	46.59
218.742	17.92
218.96	60.93
219.179	60.93
219.397	22.02
219.615	130.56
219.833	58.88
220.051	42.5
220.27	60.93
220.488	85.5
220.706	93.69
220.924	13.82
221.142	32.26
221.36	30.21
221.578	65.02
221.796	38.4
222.015	19.97
222.233	-27.14
222.451	26.11
222.669	62.98
222.887	79.36
223.105	79.36
223.323	3.58
223.541	69.12
223.759	58.88
223.977	62.98
224.195	52.74
224.413	54.78
224.631	89.6
224.849	-45.57
225.067	79.36
225.285	36.35
225.503	110.08
225.721	-57.86
225.939	40.45
226.157	30.21
226.375	93.69
226.592	-16.9
226.81	62.98
227.028	116.22
227.246	17.92
227.464	9.73
227.682	42.5
227.9	58.88
228.117	34.3
228.335	54.78
228.553	91.65
228.771	13.82
228.989	54.78
229.206	110.08
229.424	13.82
229.642	-35.33
229.86	1.54
230.077	7.68
230.295	50.69
230.513	34.3
230.731	105.98
230.948	81.41
231.166	124.41
231.384	56.83
231.601	36.35
231.819	71.17
232.037	46.59
232.254	28.16
232.472	-27.14
232.689	42.5
232.907	7.68
233.125	42.5
233.342	30.21
233.56	62.98
233.777	58.88
233.995	24.06
234.213	69.12
234.43	118.27
234.648	50.69
234.865	9.73
235.083	89.6
235.3	7.68
235.518	54.78
235.735	114.17
235.953	75.26
236.17	30.21
236.388	48.64
236.605	-12.8
236.822	69.12
237.04	44.54
237.257	65.02
237.475	42.5
237.692	52.74
237.909	126.46
238.127	1.54
238.344	17.92
238.562	103.93
238.779	42.5
238.996	77.31
239.214	79.36
239.431	36.35
239.648	-0.51
239.865	112.13
240.083	93.69
240.3	42.5
240.517	26.11
240.735	-6.66
240.952	26.11
241.169	67.07
241.386	99.84
241.603	54.78
241.821	22.02
242.038	71.17
242.255	56.83
242.472	38.4
242.689	85.5
242.907	99.84
243.124	-12.8
243.341	112.13
243.558	28.16
243.775	-20.99
243.992	28.16
244.209	62.98
244.426	58.88
244.643	62.98
244.86	-59.9
245.078	85.5
245.295	24.06
245.512	28.16
245.729	-20.99
245.946	17.92
246.163	36.35
246.38	-2.56
246.597	-33.28
246.814	77.31
247.031	40.45
247.248	56.83
247.464	17.92
247.681	134.65
247.898	-4.61
248.115	101.89
248.332	-4.61
248.549	56.83
248.766	97.79
248.983	87.55
249.2	54.78
249.417	73.21
249.633	26.11
249.85	77.31
250.067	114.17
250.284	83.45
250.501	32.26
250.717	89.6
250.934	-76.29
251.151	56.83
251.368	34.3
251.585	42.5
251.801	62.98
252.018	24.06
252.235	56.83
252.451	-16.9
252.668	62.98
252.885	91.65
253.102	71.17
253.318	30.21
253.535	24.06
253.752	73.21
253.968	54.78
254.185	60.93
254.401	81.41
254.618	132.61
254.835	75.26
255.051	38.4
255.268	99.84
255.484	120.32
255.701	75.26
255.917	89.6
256.134	52.74
256.351	50.69
256.567	60.93
256.784	56.83
257	30.21
257.217	103.93
257.433	85.5
257.65	73.21
257.866	83.45
258.082	60.93
258.299	19.97
258.515	116.22
258.732	24.06
258.948	36.35
259.165	38.4
259.381	67.07
259.597	105.98
259.814	24.06
260.03	95.74
260.246	54.78
260.463	-8.7
260.679	40.45
260.895	-10.75
261.112	7.68
261.328	58.88
261.544	1.54
261.761	71.17
261.977	17.92
262.193	26.11
262.409	89.6
262.626	48.64
262.842	7.68
263.058	54.78
263.274	32.26
263.49	30.21
263.707	1.54
263.923	114.17
264.139	-6.66
264.355	71.17
264.571	40.45
264.787	22.02
265.004	93.69
265.22	105.98
265.436	56.83
265.652	28.16
265.868	42.5
266.084	30.21
266.3	77.31
266.516	46.59
266.732	-12.8
266.948	87.55
267.164	26.11
267.38	89.6
267.596	83.45
267.812	132.61
268.028	50.69
268.244	22.02
268.46	62.98
268.676	-2.56
268.892	99.84
269.108	30.21
269.324	89.6
269.54	30.21
269.756	79.36
269.972	26.11
270.188	89.6
270.403	58.88
270.619	56.83
270.835	116.22
271.051	34.3
271.267	28.16
271.483	54.78
271.698	50.69
271.914	85.5
272.13	93.69
272.346	7.68
272.562	95.74
272.777	1.54
272.993	112.13
273.209	1.54
273.425	110.08
273.64	54.78
273.856	34.3
274.072	48.64
274.287	-35.33
274.503	60.93
274.719	65.02
274.934	60.93
275.15	56.83
275.366	58.88
275.581	65.02
275.797	50.69
276.012	134.65
276.228	77.31
276.444	122.37
276.659	67.07
276.875	69.12
277.09	140.8
277.306	-27.14
277.521	114.17
277.737	69.12
277.952	22.02
278.168	79.36
278.383	30.21
278.599	-37.38
278.814	34.3
279.03	34.3
279.245	124.41
279.461	67.07
279.676	67.07
279.892	17.92
280.107	62.98
280.322	85.5
280.538	44.54
280.753	87.55
280.969	87.55
281.184	11.78
281.399	24.06
281.615	42.5
281.83	42.5
282.045	97.79
282.26	26.11
282.476	32.26
282.691	65.02
282.906	30.21
283.122	5.63
283.337	67.07
283.552	28.16
283.767	54.78
283.983	67.07
284.198	69.12
284.413	71.17
284.628	36.35
284.843	62.98
285.058	15.87
285.274	62.98
285.489	103.93
285.704	71.17
285.919	58.88
286.134	97.79
286.349	1.54
286.564	24.06
286.779	112.13
286.995	67.07
287.21	34.3
287.425	65.02
287.64	48.64
287.855	126.46
288.07	-51.71
288.285	71.17
288.5	77.31
288.715	50.69
288.93	73.21
289.145	83.45
289.36	65.02
289.575	44.54
289.79	48.64
290.004	26.11
290.219	116.22
290.434	58.88
290.649	36.35
290.864	62.98
291.079	54.78
291.294	60.93
291.509	30.21
291.724	56.83
291.938	77.31
292.153	95.74
292.368	56.83
292.583	87.55
292.798	81.41
293.012	112.13
293.227	24.06
293.442	93.69
293.657	11.78
293.871	32.26
294.086	40.45
294.301	81.41
294.516	120.32
294.73	22.02
294.945	69.12
295.16	58.88
295.374	7.68
295.589	65.02
295.804	97.79
296.018	46.59
296.233	85.5
296.447	-10.75
296.662	11.78
296.877	77.31
297.091	85.5
297.306	26.11
297.52	30.21
297.735	9.73
297.949	79.36
298.164	108.03
298.378	58.88
298.593	24.06
298.807	-2.56
299.022	3.58
299.236	40.45
299.451	56.83
299.665	120.32
299.88	5.63
300.094	36.35
300.309	85.5
300.523	85.5
300.737	15.87
300.952	62.98
301.166	50.69
301.381	44.54
301.595	13.82
301.809	5.63
302.024	85.5
302.238	5.63
302.452	62.98
302.667	85.5
302.881	87.55
303.095	128.51
303.309	103.93
303.524	44.54
303.738	50.69
303.952	79.36
304.166	126.46
304.381	38.4
304.595	103.93
304.809	44.54
305.023	-4.61
305.237	108.03
305.452	77.31
305.666	81.41
305.88	58.88
306.094	77.31
306.308	40.45
306.522	40.45
306.736	105.98
306.95	30.21
307.164	67.07
307.379	87.55
307.593	118.27
307.807	101.89
308.021	77.31
308.235	46.59
308.449	11.78
308.663	91.65
308.877	136.7
309.091	19.97
309.305	46.59
309.519	-2.56
309.733	79.36
309.947	44.54
310.161	79.36
310.374	60.93
310.588	60.93
310.802	56.83
311.016	-18.94
311.23	93.69
311.444	52.74
311.658	48.64
311.872	54.78
312.085	17.92
312.299	71.17
312.513	50.69
312.727	58.88
312.941	30.21
313.154	112.13
313.368	13.82
313.582	60.93
313.796	62.98
314.009	140.8
314.223	58.88
314.437	69.12
314.651	40.45
314.864	9.73
315.078	42.5
315.292	52.74
315.505	83.45
315.719	56.83
315.933	93.69
316.146	-29.18
316.36	5.63
316.573	30.21
316.787	46.59
317.001	136.7
317.214	60.93
317.428	79.36
317.641	52.74
317.855	71.17
318.068	62.98
318.282	142.85
318.495	54.78
318.709	13.82
318.922	120.32
319.136	91.65
319.349	93.69
319.563	32.26
319.776	87.55
319.99	28.16
320.203	48.64
320.417	73.21
320.63	56.83
320.843	89.6
321.057	44.54
321.27	42.5
321.483	30.21
321.697	87.55
321.91	56.83
322.124	50.69
322.337	89.6
322.55	65.02
322.763	75.26
322.977	36.35
323.19	97.79
323.403	62.98
323.617	36.35
323.83	75.26
324.043	-43.52
324.256	122.37
324.469	1.54
324.683	99.84
324.896	50.69
325.109	67.07
325.322	56.83
325.535	140.8
325.748	99.84
325.962	62.98
326.175	-6.66
326.388	22.02
326.601	38.4
326.814	114.17
327.027	73.21
327.24	134.65
327.453	32.26
327.666	101.89
327.879	60.93
328.092	26.11
328.305	22.02
328.518	71.17
328.731	24.06
328.944	79.36
329.157	105.98
329.37	26.11
329.583	103.93
329.796	89.6
330.009	11.78
330.222	48.64
330.435	30.21
330.648	122.37
330.861	99.84
331.073	58.88
331.286	56.83
331.499	62.98
331.712	42.5
331.925	65.02
332.138	58.88
332.35	130.56
332.563	103.93
332.776	97.79
332.989	62.98
333.202	69.12
333.414	30.21
333.627	42.5
333.84	60.93
334.053	32.26
334.265	52.74
334.478	93.69
334.691	11.78
334.903	48.64
335.116	52.74
335.329	105.98
335.541	75.26
335.754	7.68
335.966	56.83
336.179	116.22
336.392	50.69
336.604	108.03
336.817	83.45
337.029	114.17
337.242	38.4
337.454	26.11
337.667	75.26
337.88	138.75
338.092	91.65
338.305	52.74
338.517	11.78
338.729	56.83
338.942	95.74
339.154	50.69
339.367	79.36
339.579	58.88
339.792	54.78
340.004	183.81
340.217	46.59
340.429	30.21
340.641	71.17
340.854	81.41
341.066	36.35
341.278	17.92
341.491	144.89
341.703	81.41
341.915	77.31
342.128	138.75
342.34	-4.61
342.552	58.88
342.764	7.68
342.977	24.06
343.189	65.02
343.401	50.69
343.613	40.45
343.826	-0.51
344.038	13.82
344.25	73.21
344.462	38.4
344.674	44.54
344.886	99.84
345.099	38.4
345.311	97.79
345.523	-6.66
345.735	87.55
345.947	71.17
346.159	112.13
346.371	91.65
346.583	118.27
346.795	103.93
347.007	46.59
347.219	122.37
347.431	79.36
347.643	103.93
347.855	46.59
348.067	58.88
348.279	19.97
348.491	89.6
348.703	89.6
348.915	26.11
349.127	73.21
349.339	69.12
349.551	69.12
349.763	93.69
349.975	79.36
350.187	132.61
350.399	81.41
350.61	110.08
350.822	44.54
351.034	89.6
351.246	99.84
351.458	48.64
351.669	75.26
351.881	128.51
352.093	194.05
352.305	67.07
352.517	46.59
352.728	83.45
352.94	48.64
353.152	65.02
353.363	85.5
353.575	42.5
353.787	83.45
353.999	112.13
354.21	34.3
354.422	67.07
354.633	46.59
354.845	50.69
355.057	85.5
355.268	65.02
355.48	11.78
355.692	62.98
355.903	71.17
356.115	42.5
356.326	62.98
356.538	-2.56
356.749	50.69
356.961	91.65
357.172	11.78
357.384	7.68
357.595	120.32
357.807	110.08
358.018	73.21
358.23	60.93
358.441	138.75
358.653	62.98
358.864	48.64
359.075	73.21
359.287	1.54
359.498	34.3
359.709	67.07
359.921	108.03
360.132	44.54
360.344	112.13
360.555	71.17
360.766	99.84
360.977	79.36
361.189	146.94
361.4	52.74
361.611	130.56
361.823	87.55
362.034	75.26
362.245	65.02
362.456	50.69
362.667	108.03
362.879	83.45
363.09	24.06
363.301	140.8
363.512	44.54
363.723	93.69
363.935	65.02
364.146	85.5
364.357	71.17
364.568	5.63
364.779	48.64
364.99	155.13
365.201	95.74
365.412	97.79
365.623	105.98
365.834	50.69
366.045	85.5
366.256	108.03
366.467	112.13
366.678	75.26
366.889	54.78
367.1	5.63
367.311	52.74
367.522	71.17
367.733	128.51
367.944	65.02
368.155	79.36
368.366	93.69
368.577	138.75
368.788	95.74
368.999	38.4
369.209	62.98
369.42	69.12
369.631	87.55
369.842	67.07
370.053	26.11
370.264	97.79
370.474	110.08
370.685	105.98
370.896	71.17
371.107	118.27
371.317	120.32
371.528	30.21
371.739	97.79
371.95	122.37
372.16	89.6
372.371	77.31
372.582	62.98
372.792	13.82
373.003	95.74
373.214	73.21
373.424	91.65
373.635	77.31
373.846	136.7
374.056	103.93
374.267	112.13
374.477	146.94
374.688	79.36
374.898	5.63
375.109	-10.75
375.319	73.21
375.53	142.85
375.74	67.07
375.951	-14.85
376.161	34.3
376.372	194.05
376.582	85.5
376.793	148.99
377.003	118.27
377.214	50.69
377.424	83.45
377.635	60.93
377.845	13.82
378.055	194.05
378.266	22.02
378.476	65.02
378.686	122.37
378.897	44.54
379.107	112.13
379.317	105.98
379.528	40.45
379.738	116.22
379.948	71.17
380.158	120.32
380.369	38.4
380.579	124.41
380.789	50.69
380.999	60.93
381.21	54.78
381.42	163.33
381.63	58.88
381.84	65.02
382.05	30.21
382.261	26.11
382.471	62.98
382.681	67.07
382.891	128.51
383.101	54.78
383.311	52.74
383.521	67.07
383.731	87.55
383.941	89.6
384.151	56.83
384.361	75.26
384.571	103.93
384.781	134.65
384.991	103.93
385.201	40.45
385.411	130.56
385.621	169.47
385.831	112.13
386.041	122.37
386.251	122.37
386.461	136.7
386.671	69.12
386.881	81.41
387.091	58.88
387.301	79.36
387.511	120.32
387.72	95.74
387.93	-0.51
388.14	73.21
388.35	46.59
388.56	124.41
388.769	118.27
388.979	128.51
389.189	110.08
389.399	128.51
389.609	81.41
389.818	87.55
390.028	65.02
390.238	67.07
390.447	130.56
390.657	91.65
390.867	120.32
391.076	75.26
391.286	108.03
391.496	87.55
391.705	136.7
391.915	138.75
392.125	114.17
392.334	101.89
392.544	177.66
392.753	167.42
392.963	75.26
393.172	163.33
393.382	93.69
393.591	122.37
393.801	112.13
394.01	120.32
394.22	69.12
394.429	77.31
394.639	118.27
394.848	65.02
395.058	71.17
395.267	124.41
395.477	122.37
395.686	132.61
395.895	185.85
396.105	148.99
396.314	196.09
396.524	110.08
396.733	128.51
396.942	144.89
397.152	157.18
397.361	161.28
397.57	155.13
397.78	194.05
397.989	116.22
398.198	200.19
398.407	126.46
398.617	91.65
398.826	161.28
399.035	153.09
399.244	179.71
399.453	116.22
399.663	138.75
399.872	159.23
400.081	157.18
400.29	167.42
400.499	91.65
400.708	138.75
400.917	151.04
401.127	122.37
401.336	167.42
401.545	220.67
401.754	153.09
401.963	226.81
402.172	159.23
402.381	144.89
402.59	177.66
402.799	138.75
403.008	159.23
403.217	183.81
403.426	140.8
403.635	200.19
403.844	155.13
404.053	194.05
404.262	157.18
404.471	220.67
404.68	101.89
404.888	179.71
405.097	165.37
405.306	161.28
405.515	259.58
405.724	210.43
405.933	226.81
406.142	224.76
406.35	148.99
406.559	253.44
406.768	253.44
406.977	273.92
407.185	372.22
407.394	265.72
407.603	280.06
407.812	318.97
408.02	329.21
408.229	269.82
408.438	343.55
408.646	230.91
408.855	304.64
409.064	292.35
409.272	237.05
409.481	384.51
409.69	368.12
409.898	339.45
410.107	368.12
410.315	390.65
410.524	413.18
410.733	388.6
410.941	351.74
411.15	474.62
411.358	361.98
411.567	488.95
411.775	441.85
411.984	497.14
412.192	636.41
412.401	556.54
412.609	517.62
412.818	630.26
413.026	654.84
413.234	589.3
413.443	509.43
413.651	589.3
413.86	638.45
414.068	701.94
414.276	753.14
414.485	724.47
414.693	769.52
414.901	771.57
415.11	882.16
415.318	882.16
415.526	886.26
415.734	929.27
415.943	927.22
416.151	968.18
416.359	994.8
416.567	966.13
416.776	972.27
416.984	1058.29
417.192	1068.53
417.4	1183.21
417.608	1222.13
417.817	1252.84
418.025	1277.42
418.233	1287.66
418.441	1355.24
418.649	1349.1
418.857	1488.36
419.065	1529.32
419.273	1502.7
419.481	1572.33
419.689	1689.06
419.897	1727.97
420.105	1754.6
420.313	1863.14
420.521	1940.96
420.729	1969.63
420.937	1992.16
421.145	2057.7
421.353	2125.28
421.561	2160.1
421.769	2262.49
421.977	2444.76
422.185	2354.65
422.393	2526.68
422.601	2602.46
422.809	2614.74
423.017	2651.61
423.224	2938.32
423.432	2811.35
423.64	2979.28
423.848	3206.61
424.056	3110.35
424.263	3405.26
424.471	3376.59
424.679	3403.21
424.887	3636.68
425.094	3708.36
425.302	3722.7
425.51	3880.39
425.718	4120
425.925	4079.04
426.133	4212.16
426.341	4277.69
426.548	4599.23
426.756	4824.5
426.964	4550.07
427.171	4896.18
427.379	4933.04
427.586	5223.86
427.794	5363.12
428.001	5617.07
428.209	5881.25
428.417	5733.8
428.624	6143.39
428.832	6288.8
429.039	6176.16
429.247	5967.27
429.454	6665.63
429.662	7073.17
429.869	6753.69
430.076	6993.3
430.284	6968.73
430.491	7257.49
430.699	7615.88
430.906	7652.75
431.114	7562.64
431.321	8011.14
431.528	8299.91
431.736	8621.44
431.943	9074.04
432.15	8779.13
432.358	8945.02
432.565	9483.63
432.772	9647.47
432.979	10071.4
433.187	10069.35
433.394	10292.58
433.601	10818.91
433.808	10794.33
434.016	10894.68
434.223	11212.12
434.43	12221.77
434.637	11677.01
434.844	12490.05
435.052	12795.2
435.259	12506.43
435.466	12830.01
435.673	12680.51
435.88	13481.27
436.087	14122.28
436.294	14243.11
436.501	13673.78
436.708	14015.79
436.915	14431.52
437.122	15125.79
437.329	15260.95
437.537	15607.06
437.743	16162.06
437.95	15836.43
438.157	16559.36
438.364	17165.56
438.571	17077.5
438.778	17425.65
438.985	18820.32
439.192	17886.45
439.399	18773.22
439.606	18443.49
439.813	19346.65
440.02	20622.53
440.227	20118.73
440.433	19975.38
440.64	20706.5
440.847	20505.8
441.054	21193.92
441.261	22541.48
441.467	22097.07
441.674	22297.77
441.881	23526.55
442.088	23409.82
442.294	23092.38
442.501	23977.11
442.708	24167.57
442.914	25390.2
443.121	26389.61
443.328	25730.17
443.534	27409.5
443.741	26535.02
443.948	26326.13
444.154	28505.17
444.361	28204.11
444.568	28228.69
444.774	28060.76
444.981	28943.43
445.187	29529.15
445.394	30624.81
445.6	30489.65
445.807	33522.69
446.013	31691.8
446.22	32439.31
446.426	33713.15
446.633	34315.25
446.839	35066.86
447.046	33504.26
447.252	35208.17
447.459	35625.95
447.665	35390.44
447.871	36948.94
448.078	38200.25
448.284	36563.92
448.491	37397.45
448.697	38771.63
448.903	39459.75
449.11	39926.69
449.316	38603.7
449.522	39895.97
449.728	40770.45
449.935	41061.26
450.141	40901.52
450.347	42152.83
450.553	40686.48
450.76	41001.87
450.966	42400.63
451.172	41671.56
451.378	42965.87
451.584	42163.07
451.791	42967.92
451.997	42699.64
452.203	43615.08
452.409	42949.49
452.615	43027.31
452.821	41524.1
453.027	41274.25
453.233	43211.63
453.44	41350.03
453.646	41823.11
453.852	42474.36
454.058	42759.03
454.264	41407.37
454.47	42167.16
454.676	41462.66
454.882	42494.84
455.088	38824.88
455.294	39650.21
455.5	39889.82
455.705	40094.62
455.911	38595.51
456.117	38034.36
456.323	37727.17
456.529	35570.66
456.735	36625.36
456.941	35912.67
457.147	35283.94
457.352	34212.85
457.558	33934.33
457.764	34192.37
457.97	33426.43
458.176	32834.57
458.381	32623.63
458.587	30895.14
458.793	31011.88
458.999	29285.44
459.204	31607.84
459.41	30778.41
459.616	28716.11
459.821	28568.65
460.027	28683.34
460.233	28351.57
460.438	26657.9
460.644	26858.6
460.85	25820.28
461.055	25306.24
461.261	25402.49
461.466	23354.52
461.672	22457.51
461.878	24360.08
462.083	22742.18
462.289	22422.7
462.494	22140.08
462.7	21374.14
462.905	20624.58
463.111	21290.17
463.316	21339.32
463.522	20874.43
463.727	21195.96
463.932	20974.78
464.138	20628.68
464.343	20829.38
464.549	20235.47
464.754	20747.46
464.959	20841.67
465.165	20427.98
465.37	19619.03
465.575	19168.48
465.781	20067.53
465.986	20290.76
466.191	19528.92
466.397	18810.08
466.602	18416.87
466.807	18672.87
467.012	18783.46
467.218	18848.99
467.423	18511.08
467.628	18779.36
467.833	19395.8
468.038	18810.08
468.244	18085.1
468.449	19031.26
468.654	18035.95
468.859	18107.63
469.064	18210.03
469.269	17460.47
469.474	17403.13
469.679	17720.56
469.885	17175.8
470.09	17593.59
470.295	17255.67
470.5	16839.94
470.705	17321.21
470.91	16674.05
471.115	16588.03
471.32	16774.4
471.525	16841.98
471.73	16334.09
471.935	16219.4
472.139	15465.75
472.344	16067.85
472.549	15746.32
472.754	15451.41
472.959	15217.94
473.164	14898.46
473.369	14884.12
473.574	15017.24
473.778	15009.05
473.983	14912.8
474.188	14843.17
474.393	14239.01
474.598	14386.47
474.802	14163.24
475.007	14009.64
475.212	14138.66
475.417	13661.49
475.621	13688.11
475.826	13616.43
476.031	13448.5
476.235	13098.3
476.44	13296.95
476.645	13192.5
476.849	13358.39
477.054	12938.55
477.259	12688.7
477.463	12733.76
477.668	12375.36
477.872	12612.93
478.077	12393.79
478.282	12059.98
478.486	11885.9
478.691	12008.78
478.895	11976.01
479.1	11846.99
479.304	11883.85
479.509	11445.59
479.713	11871.56
479.918	11521.36
480.122	11345.23
480.326	11425.11
480.531	11378
480.735	11269.46
480.94	11406.67
481.144	11703.63
481.348	11183.45
481.553	11335
481.757	10929.5
481.961	11337.04
482.166	11328.85
482.37	11105.62
482.574	10837.34
482.778	10995.03
482.983	11382.1
483.187	11005.27
483.391	11165.01
483.595	11085.14
483.8	10868.06
484.004	11208.02
484.208	11199.83
484.412	11070.81
484.616	11179.35
484.821	11228.5
485.025	10874.2
485.229	11035.99
485.433	10796.38
485.637	11191.64
485.841	10919.26
486.045	10974.55
486.249	11162.97
486.453	10771.8
486.657	11310.42
486.861	11140.44
487.065	10900.83
487.269	11234.64
487.473	10716.51
487.677	11326.8
487.881	10970.46
488.085	11029.85
488.289	11218.26
488.493	11015.51
488.697	11359.57
488.901	11072.86
489.105	11183.45
489.309	11083.09
489.512	11285.84
489.716	11072.86
489.92	11306.32
490.124	11320.66
490.328	11543.89
490.531	11265.36
490.735	11556.18
490.939	11509.07
491.143	11244.88
491.346	11363.67
491.55	11717.97
491.754	11648.33
491.958	11693.39
492.161	11687.25
492.365	11726.16
492.569	11621.71
492.772	11646.29
492.976	11926.86
493.18	11924.81
493.383	11924.81
493.587	12107.08
493.79	12387.65
493.994	12123.46
494.197	12272.96
494.401	12232.01
494.605	12387.65
494.808	12680.51
495.012	12606.78
495.215	12762.43
495.419	12883.26
495.622	12797.24
495.825	12858.68
496.029	12932.41
496.232	13225.27
496.436	13258.04
496.639	13346.1
496.843	13471.03
497.046	13917.48
497.249	14064.94
497.453	14140.71
497.656	14079.27
497.859	14163.24
498.063	14476.58
498.266	14646.56
498.469	14490.91
498.673	14501.15
498.876	15232.28
499.079	15349.01
499.282	15201.56
499.485	15551.76
499.689	15512.85
499.892	15836.43
500.095	15803.66
500.298	16434.44
500.501	16002.32
500.705	16696.58
500.908	16704.77
501.111	16813.31
501.314	16882.94
501.517	17282.3
501.72	17538.29
501.923	17327.35
502.126	17738.99
502.329	17939.69
502.532	18189.55
502.735	18427.11
502.938	18605.28
503.141	18629.86
503.344	19004.64
503.547	19000.54
503.75	19098.84
503.953	19576.02
504.156	19721.43
504.359	19924.18
504.562	20268.23
504.765	20427.98
504.968	20505.8
505.17	20894.91
505.373	20739.27
505.576	21460.15
505.779	21482.68
505.982	21667
506.185	22174.89
506.387	22287.53
506.59	22367.4
506.793	23168.16
506.996	22779.04
507.198	23381.15
507.401	23481.5
507.604	23479.45
507.807	23839.89
508.009	24296.59
508.212	24300.69
508.415	24687.75
508.617	24958.08
508.82	25287.81
509.022	24876.16
509.225	25756.79
509.428	25848.95
509.63	26233.97
509.833	26070.13
510.035	26713.19
510.238	26528.88
510.44	27184.23
510.643	27589.72
510.845	27630.68
511.048	27802.71
511.25	28120.15
511.453	28736.59
511.655	29551.68
511.858	28931.14
512.06	29451.33
512.262	29819.96
512.465	29901.88
512.667	30151.73
512.87	30811.18
513.072	30465.07
513.274	31093.8
513.477	31376.42
513.679	32009.24
513.881	31984.66
514.084	32420.88
514.286	32316.43
514.488	32728.08
514.69	33833.98
514.893	33739.77
515.095	33324.04
515.297	34305.01
515.499	34587.63
515.701	34866.16
515.904	34890.73
516.106	35202.02
516.308	35640.29
516.51	36199.38
516.712	36228.06
516.914	36711.38
517.116	37432.26
517.318	37471.17
517.52	37446.6
517.722	38081.47
517.925	38339.51
518.127	39132.07
518.329	39115.69
518.531	38923.18
518.733	39738.27
518.935	40360.86
519.136	40258.46
519.338	40485.78
519.54	40758.16
519.742	41237.39
519.944	41360.26
520.146	42124.16
520.348	42181.5
520.55	42836.85
520.752	42556.28
520.954	43486.06
521.155	43938.66
521.357	43916.13
521.559	43776.87
521.761	44608.34
521.963	44995.41
522.164	44981.07
522.366	45075.28
522.568	45644.62
522.77	45804.36
522.971	46492.47
523.173	46021.44
523.375	46922.55
523.576	46369.6
523.778	47186.74
523.98	47854.37
524.181	48071.46
524.383	48403.23
524.584	48683.8
524.786	48696.09
524.988	48573.21
525.189	49240.85
525.391	49462.03
525.592	49666.83
525.794	50297.6
525.995	50232.07
526.197	49568.52
526.398	50219.78
526.6	50379.52
526.801	50801.4
527.003	50866.94
527.204	51180.28
527.406	51387.12
527.607	51346.16
527.808	52024.04
528.01	51370.74
528.211	51837.67
528.412	53086.93
528.614	52636.38
528.815	52384.48
529.016	52992.73
529.218	52736.73
529.419	52974.3
529.62	52828.89
529.822	52828.89
530.023	53050.07
530.224	53279.44
530.425	53373.65
530.626	52607.71
530.828	52765.4
531.029	54315.72
531.23	53529.3
531.431	53574.35
531.632	54301.38
531.833	54094.53
532.035	53983.94
532.236	53828.3
532.437	54074.05
532.638	53957.32
532.839	54092.49
533.04	54454.98
533.241	53953.22
533.442	54467.26
533.643	54674.11
533.844	54678.21
534.045	54282.95
534.246	54270.66
534.447	54649.53
534.648	54512.32
534.849	54508.22
535.05	54358.72
535.251	54381.25
535.451	54897.34
535.652	54829.76
535.853	54813.37
536.054	55016.12
536.255	54885.05
536.456	54516.42
536.657	55165.62
536.857	54442.69
537.058	54438.59
537.259	54969.02
537.46	55003.83
537.66	54635.2
537.861	55190.2
538.062	54555.33
538.263	54864.57
538.463	54518.46
538.664	55038.65
538.865	55280.31
539.065	55257.78
539.266	54598.33
539.466	55311.03
539.667	54344.39
539.868	55388.85
540.068	54979.26
540.269	54926.01
540.469	55104.18
540.67	55012.02
540.87	55151.29
541.071	54897.34
541.271	55128.76
541.472	54813.37
541.672	54463.17
541.873	54784.7
542.073	54510.27
542.274	55132.85
542.474	54850.24
542.675	54356.67
542.875	55337.65
543.075	54874.81
543.276	54057.67
543.476	54917.82
543.676	54549.18
543.877	55442.1
544.077	55073.46
544.277	54516.42
544.478	54647.49
544.678	55169.72
544.878	54780.6
545.078	54700.73
545.279	54205.12
545.479	54338.24
545.679	54985.4
545.879	54962.87
546.079	54633.15
546.28	54743.74
546.48	54121.16
546.68	54895.29
546.88	54913.72
547.08	54694.59
547.28	54735.55
547.48	54270.66
547.68	54620.86
547.88	54250.18
548.081	54999.74
548.281	54749.88
548.481	54618.81
548.681	54512.32
548.881	54670.01
549.081	54559.42
549.28	54624.96
549.48	54708.93
549.68	54340.29
549.88	54991.54
550.08	54090.44
550.28	54352.58
550.48	54520.51
550.68	55134.9
550.88	54325.96
551.08	54602.43
551.279	54364.87
551.479	54162.12
551.679	54485.7
551.879	54221.51
552.079	54540.99
552.278	54022.86
552.478	54098.63
552.678	54311.62
552.878	54876.86
553.077	54301.38
553.277	54020.81
553.477	54917.82
553.676	53859.02
553.876	54233.8
554.076	54262.47
554.275	54037.19
554.475	53930.7
554.674	54311.62
554.874	54110.92
555.074	53658.32
555.273	54123.21
555.473	53738.19
555.672	53465.81
555.872	53844.68
556.071	53893.83
556.271	54270.66
556.47	53721.8
556.67	53455.57
556.869	53500.62
557.068	53705.42
557.268	53422.8
557.467	53783.24
557.667	53295.83
557.866	53521.1
558.065	53465.81
558.265	53189.33
558.464	52585.18
558.663	53920.46
558.863	53365.46
559.062	53678.8
559.261	52620
559.461	53365.46
559.66	52658.91
559.859	52837.08
560.058	52640.48
560.258	52503.26
560.457	52175.59
560.656	52822.75
560.855	52435.68
561.054	52822.75
561.253	52179.68
561.453	52290.27
561.652	52882.14
561.851	52673.24
562.05	52151.01
562.249	51485.42
562.448	52173.54
562.647	52032.23
562.846	51657.45
563.045	51702.51
563.244	51385.07
563.443	52144.87
563.642	51036.92
563.841	51485.42
564.04	51165.94
564.239	51899.11
564.438	50963.19
564.637	51598.06
564.836	51104.5
565.035	50166.53
565.234	50692.86
565.432	50533.12
565.631	50082.56
565.83	50400
566.029	50076.42
566.228	50154.24
566.427	50494.21
566.625	49464.08
566.824	49414.93
567.023	50193.15
567.222	49167.12
567.42	50217.73
567.619	49971.97
567.818	49462.03
568.016	49754.89
568.215	49734.41
568.414	49376.01
568.612	49634.06
568.811	49292.05
569.01	48847.64
569.208	48515.87
569.407	48798.49
569.605	48374.56
569.804	49177.36
570.002	48761.62
570.201	48020.26
570.4	48063.27
570.598	47819.56
570.797	47780.65
570.995	48253.73
571.193	47665.96
571.392	48007.97
571.59	47422.25
571.789	47303.47
571.987	47547.18
572.186	47448.88
572.384	47072.05
572.582	47502.12
572.781	46979.89
572.979	46506.81
573.177	46818.1
573.376	47184.69
573.574	46603.06
573.772	46711.61
573.971	46484.28
574.169	46603.06
574.367	46228.29
574.565	46314.3
574.763	46070.59
574.962	45753.16
575.16	45628.23
575.358	46027.59
575.556	45560.65
575.754	45591.37
575.952	45357.9
576.151	45511.5
576.349	44802.9
576.547	45077.33
576.745	45327.18
576.943	44456.79
577.141	44651.35
577.339	44979.03
577.537	44464.99
577.735	44763.99
577.933	44096.35
578.131	44303.2
578.329	44157.79
578.527	43973.47
578.725	43875.17
578.923	44178.27
579.121	43723.62
579.319	43699.05
579.516	43817.83
579.714	43641.7
579.912	43336.55
580.11	43142
580.308	43266.92
580.506	43180.91
580.704	42449.78
580.901	42867.57
581.099	43031.41
581.297	42574.71
581.495	42523.51
581.692	42888.05
581.89	41788.29
582.088	42701.68
582.285	42085.25
582.483	42097.53
582.681	42132.35
582.878	41866.11
583.076	41614.21
583.274	42298.23
583.471	41208.72
583.669	41237.39
583.866	40997.77
584.064	41147.28
584.262	41016.21
584.459	41147.28
584.657	41091.98
584.854	40770.45
585.052	40252.31
585.249	40792.98
585.447	40506.26
585.644	40098.72
585.841	40295.32
586.039	40895.38
586.236	40016.8
586.434	39926.69
586.631	39857.06
586.828	39738.27
587.026	39832.48
587.223	39992.22
587.42	39736.23
587.618	39099.31
587.815	39279.53
588.012	39103.4
588.21	39125.93
588.407	39537.57
588.604	38577.08
588.801	38538.16
588.999	38730.67
589.196	38552.5
589.393	38403
589.59	38286.26
589.787	38689.71
589.984	37979.07
590.182	37766.08
590.379	38460.34
590.576	37682.11
590.773	37946.3
590.97	37563.33
591.167	37807.04
591.364	37802.94
591.561	37745.6
591.758	37311.43
591.955	37137.35
592.152	37270.47
592.349	36748.24
592.546	37211.08
592.743	37114.83
592.94	36307.93
593.137	36735.95
593.334	36948.94
593.531	36651.98
593.727	36731.86
593.924	36316.12
594.121	35965.92
594.318	36139.99
594.515	35783.65
594.712	36230.1
594.908	35996.63
595.105	36287.45
595.302	35466.21
595.499	35978.2
595.696	35306.47
595.892	35550.18
596.089	35122.15
596.286	35486.69
596.482	34989.03
596.679	35156.97
596.876	35140.58
597.072	34982.89
597.269	34843.63
597.466	34458.61
597.662	34827.24
597.859	34788.33
598.055	34612.21
598.252	34595.82
598.448	34286.58
598.645	33993.72
598.841	33930.23
599.038	33790.97
599.234	33987.58
599.431	33428.48
599.627	33375.23
599.824	33831.93
600.02	33391.62
600.217	33741.82
600.413	33158.15
600.609	33000.46
600.806	32887.82
601.002	33586.18
601.198	32834.57
601.395	32484.37
601.591	32488.46
601.787	33104.9
601.984	32447.5
602.18	32764.94
602.376	32093.21
602.572	32021.53
602.769	32218.13
602.965	31986.71
603.161	31902.75
603.357	31851.55
603.553	32037.91
603.75	32064.53
603.946	31620.13
604.142	31898.65
604.338	31153.19
604.534	31579.17
604.73	31122.47
604.926	31421.47
605.122	31255.59
605.318	31142.95
605.514	31175.72
605.71	30743.59
605.906	30870.57
606.102	30569.52
606.298	30948.39
606.494	30366.77
606.69	30551.09
606.886	30868.52
607.082	30438.45
607.278	30530.61
607.474	29983.8
607.67	30374.96
607.866	29754.43
608.062	30096.44
608.257	30088.24
608.453	30227.51
608.649	30264.37
608.845	29574.2
609.041	29756.47
609.236	30061.62
609.432	29551.68
609.628	29656.12
609.824	29666.36
610.019	29400.13
610.215	29647.93
610.411	29402.18
610.606	28881.99
610.802	29518.91
610.998	29097.03
611.193	28970.05
611.389	28847.18
611.584	28951.62
611.78	28939.33
611.976	28965.96
612.171	28281.94
612.367	28890.18
612.562	28613.71
612.758	28306.51
612.953	28062.8
613.149	28978.25
613.344	28427.34
613.539	28802.12
613.735	28279.89
613.93	28546.12
614.126	28032.08
614.321	28648.52
614.517	27999.32
614.712	28537.93
614.907	28128.34
615.103	28189.78
615.298	27817.05
615.493	28208.21
615.688	27747.42
615.884	27966.55
616.079	27749.46
616.274	27771.99
616.47	27597.91
616.665	27974.74
616.86	27577.44
617.055	27579.48
617.25	27587.68
617.445	27737.18
617.641	27059.3
617.836	27370.59
618.031	27010.15
618.226	27071.59
618.421	27038.82
618.616	27077.73
618.811	26821.73
619.006	27063.4
619.201	26463.34
619.396	26874.98
619.591	26590.31
619.786	26608.75
619.981	26162.29
620.176	26678.38
620.371	25996.4
620.566	26326.13
620.761	25957.49
620.956	25869.43
621.151	25584.76
621.346	25769.08
621.541	24994.95
621.735	25656.44
621.93	25234.56
622.125	25238.65
622.32	24853.64
622.515	25095.3
622.709	24878.21
622.904	24628.36
623.099	24714.37
623.294	24429.71
623.488	24153.23
623.683	23973.01
623.878	24120.46
624.072	24134.8
624.267	24136.85
624.462	23798.93
624.656	23489.69
624.851	23569.56
625.046	23364.76
625.24	23379.1
625.435	23190.69
625.629	22834.34
625.824	23112.86
626.018	22883.49
626.213	22561.96
626.407	23032.99
626.602	22013.1
626.796	22283.44
626.991	22482.09
627.185	22342.83
627.38	21607.61
627.574	21527.74
627.768	21861.55
627.963	21818.55
628.157	21388.47
628.352	21632.18
628.546	21191.87
628.74	21464.25
628.935	21193.92
629.129	21187.77
629.323	21023.94
629.517	20765.89
629.712	20690.12
629.906	20675.78
630.1	20327.63
630.294	20671.68
630.489	20301
630.683	20301
630.877	20002
631.071	19606.74
631.265	19973.33
631.459	19649.75
631.653	19641.56
631.848	19629.27
632.042	19573.97
632.236	19639.51
632.43	19254.49
632.624	19264.73
632.818	19186.91
633.012	18734.31
633.206	18875.62
633.4	18865.38
633.594	18470.12
633.788	18613.48
633.982	18613.48
634.176	18574.56
634.369	18457.83
634.563	18337
634.757	18017.52
634.951	18121.96
635.145	18162.92
635.339	18267.37
635.533	17782
635.726	17822.96
635.92	17460.47
636.114	17779.95
636.308	17353.98
636.501	17437.94
636.695	17499.38
636.889	17194.23
637.083	17183.99
637.276	17003.77
637.47	16764.16
637.664	16686.34
637.857	16657.67
638.051	16735.49
638.244	16512.26
638.438	16600.32
638.632	16424.2
638.825	16286.98
639.019	16186.63
639.212	15949.07
639.406	16301.32
639.599	15930.64
639.793	16022.8
639.986	15797.52
640.18	15594.77
640.373	15547.67
640.567	15361.3
640.76	15551.76
640.954	15467.8
641.147	15375.64
641.34	15183.13
641.534	14920.99
641.727	15088.92
641.92	15148.31
642.114	14853.41
642.307	14796.06
642.5	14578.98
642.694	14583.07
642.887	14615.84
643.08	14495.01
643.273	14503.2
643.467	14482.72
643.66	14114.09
643.853	14066.99
644.046	13942.06
644.239	14171.43
644.432	13901.1
644.626	13868.33
644.819	13858.09
645.012	13645.1
645.205	13919.53
645.398	13761.84
645.591	13378.87
645.784	13616.43
645.977	13446.45
646.17	13397.3
646.363	13190.45
646.556	13280.57
646.749	13301.05
646.942	13006.14
647.135	12774.72
647.328	12948.79
647.521	12758.33
647.714	12850.49
647.907	12561.73
648.099	12584.26
648.292	12725.57
648.485	12690.75
648.678	12166.47
648.871	12221.77
649.064	12186.95
649.256	12526.91
649.449	12301.64
649.642	12189
649.835	11902.28
650.027	11967.82
650.22	11679.05
650.413	11730.25
650.605	11720.01
650.798	11961.67
650.991	11664.72
651.183	11726.16
651.376	11595.09
651.568	11619.66
651.761	11605.33
651.954	11552.08
652.146	11097.43
652.339	11353.43
652.531	11367.76
652.724	11218.26
652.916	10829.15
653.109	11136.34
653.301	11134.29
653.494	11035.99
653.686	10816.86
653.879	10988.89
654.071	10624.35
654.263	10835.29
654.456	10839.39
654.648	10616.16
654.84	10624.35
655.033	10536.29
655.225	10329.44
655.417	10437.98
655.61	10605.92
655.802	10296.67
655.994	10261.86
656.186	10306.91
656.379	10028.39
656.571	10233.19
656.763	10048.87
656.955	10005.86
657.148	10155.37
657.34	9835.88
657.532	9762.16
657.724	9756.01
657.916	9610.61
658.108	9698.67
658.3	9633.13
658.492	9684.33
658.684	9598.32
658.876	9395.57
659.068	9174.39
659.26	9176.44
659.452	9215.35
659.644	9354.61
659.836	9223.54
660.028	9280.88
660.22	8951.16
660.412	9258.35
660.604	8932.73
660.796	8973.69
660.988	8926.58
661.18	9041.27
661.372	8746.36
661.563	8807.8
661.755	8674.68
661.947	8856.95
662.139	8686.97
662.331	8643.96
662.522	8582.53
662.714	8459.65
662.906	8582.53
663.097	8627.58
663.289	8422.78
663.481	8289.67
663.673	8347.01
663.864	8136.07
664.056	8199.55
664.247	8150.4
664.439	8203.65
664.631	8154.5
664.822	7867.78
665.014	7947.65
665.205	7830.92
665.397	7931.27
665.588	8095.11
665.78	7925.13
665.971	7789.96
666.163	7787.91
666.354	7806.34
666.546	7673.23
666.737	7640.46
666.929	7740.81
667.12	7624.08
667.311	7456.14
667.503	7476.62
667.694	7402.9
667.885	7634.32
668.077	7351.7
668.268	7515.53
668.459	7320.98
668.651	7265.68
668.842	7230.87
669.033	7331.22
669.224	7241.11
669.416	7247.25
669.607	7282.06
669.798	7122.32
669.989	7183.76
670.18	7054.74
670.371	7083.41
670.563	6886.81
670.754	7028.12
670.945	6935.96
671.136	6923.67
671.327	6927.77
671.518	6704.54
671.709	6718.87
671.9	6763.93
672.091	6696.35
672.282	6665.63
672.473	6700.44
672.664	6835.61
672.855	6671.77
673.046	6483.36
673.237	6686.11
673.428	6385.05
673.619	6471.07
673.809	6360.48
674	6321.57
674.191	6450.59
674.382	6493.6
674.573	6415.77
674.764	6415.77
674.954	6503.84
675.145	6274.46
675.336	6399.39
675.527	6139.3
675.717	6120.87
675.908	6192.55
676.099	6186.4
676.289	6047.14
676.48	6127.01
676.671	6077.86
676.861	6114.72
677.052	6176.16
677.243	6010.28
677.433	6071.72
677.624	6110.63
677.814	5926.31
678.005	5983.65
678.195	5920.17
678.386	5977.51
678.576	5920.17
678.767	5997.99
678.957	5977.51
679.148	5821.86
679.338	5725.61
679.529	5979.56
679.719	5825.96
679.909	5838.25
680.1	5877.16
680.29	5811.62
680.481	5713.32
680.671	5797.29
680.861	5590.44
681.052	5680.55
681.242	5750.18
681.432	5875.11
681.622	5473.71
681.813	5490.09
682.003	5508.52
682.193	5463.47
682.383	5631.4
682.573	5463.47
682.764	5477.8
682.954	5473.71
683.144	5526.96
683.334	5606.83
683.524	5529
683.714	5410.22
683.904	5381.55
684.094	5402.03
684.284	5363.12
684.474	5563.82
684.664	5469.61
684.854	5232.05
685.044	5209.52
685.234	5064.11
685.424	5250.48
685.614	5348.78
685.804	5238.19
685.994	5244.34
686.184	5160.37
686.374	5174.71
686.564	5166.51
686.753	5242.29
686.943	5084.59
687.133	5092.79
687.323	4908.47
687.513	5256.62
687.702	5129.65
687.892	5025.2
688.082	4920.76
688.272	5006.77
688.461	5021.11
688.651	4961.72
688.841	4797.88
689.03	4945.33
689.22	4967.86
689.41	4806.07
689.599	4908.47
689.789	4896.18
689.979	4877.75
690.168	4804.02
690.358	4847.03
690.547	4761.02
690.737	4777.4
690.926	4779.45
691.116	4611.51
691.305	4750.78
691.495	4644.28
691.684	4658.62
691.874	4666.81
692.063	4629.95
692.252	4623.8
692.442	4588.99
692.631	4533.69
692.82	4568.51
693.01	4437.44
693.199	4591.03
693.388	4464.06
693.578	4564.41
693.767	4537.79
693.956	4439.48
694.146	4509.12
694.335	4500.92
694.524	4472.25
694.713	4462.01
694.902	4341.18
695.092	4490.68
695.281	4480.44
695.47	4425.15
695.659	4353.47
695.848	4269.5
696.037	4500.92
696.226	4324.8
696.415	4156.86
696.604	4380.09
696.793	4265.41
696.982	4265.41
697.171	4447.68
697.36	4249.02
697.549	4367.81
697.738	4341.18
697.927	4249.02
698.116	4380.09
698.305	4328.89
698.494	4355.52
698.683	4314.56
698.872	4265.41
699.061	4109.76
699.25	4281.79
699.438	4220.35
699.627	4292.03
699.816	4300.22
700.005	4337.09
700.193	4287.93
700.382	4128.19
700.571	4191.68
700.76	4195.78
700.948	4115.91
701.137	4214.21
701.326	4185.54
701.514	4271.55
701.703	4175.3
701.892	3999.17
702.08	4175.3
702.269	4105.67
702.457	4050.37
702.646	4199.87
702.834	4060.61
703.023	3964.36
703.212	4179.39
703.4	4076.99
703.589	4132.29
703.777	4249.02
703.965	4093.38
704.154	3915.2
704.342	4103.62
704.531	4048.32
704.719	4023.75
704.907	4163.01
705.096	3888.58
705.284	4089.28
705.472	4068.8
705.661	4089.28
705.849	4042.18
706.037	4040.13
706.226	4025.79
706.414	3931.59
706.602	3945.92
706.79	3954.12
706.979	3896.77
707.167	3902.92
707.355	3999.17
707.543	3929.54
707.731	3898.82
707.919	4017.6
708.107	3950.02
708.296	3855.81
708.484	3818.95
708.672	3845.57
708.86	3964.36
709.048	4005.31
709.236	3904.96
709.424	3943.88
709.612	3818.95
709.8	3913.16
709.988	3831.24
710.176	3876.29
710.364	3759.56
710.551	3784.13
710.739	3882.44
710.927	3790.28
711.115	3706.31
711.303	3798.47
711.491	3829.19
711.679	3833.29
711.866	3743.17
712.054	3888.58
712.242	3755.46
712.43	3872.2
712.617	3755.46
712.805	3663.3
712.993	3630.54
713.181	3800.52
713.368	3622.34
713.556	3722.7
713.744	3632.58
713.931	3823.05
714.119	3612.1
714.306	3749.32
714.494	3730.89
714.682	3810.76
714.869	3618.25
715.057	3599.82
715.244	3702.22
715.432	3728.84
715.619	3550.67
715.807	3485.13
715.994	3569.1
716.182	3698.12
716.369	3610.06
716.556	3681.74
716.744	3681.74
716.931	3485.13
717.119	3544.52
717.306	3642.82
717.493	3431.88
717.681	3573.19
717.868	3573.19
718.055	3544.52
718.242	3446.22
718.43	3560.91
718.617	3470.8
718.804	3478.99
718.991	3495.37
719.179	3464.65
719.366	3493.32
719.553	3431.88
719.74	3517.9
719.927	3657.16
720.114	3425.74
720.301	3501.51
720.488	3528.14
720.676	3435.98
720.863	3466.7
721.05	3468.75
721.237	3446.22
721.424	3505.61
721.611	3575.24
721.798	3403.21
721.985	3337.68
722.172	3347.92
722.358	3306.96
722.545	3380.68
722.732	3300.81
722.919	3288.53
723.106	3214.8
723.293	3352.01
723.48	3323.34
723.667	3331.53
723.853	3290.57
724.04	3374.54
724.227	3368.4
724.414	3425.74
724.6	3360.2
724.787	3358.16
724.974	3255.76
725.161	3114.45
725.347	3290.57
725.534	3327.44
725.72	3347.92
725.907	3227.09
726.094	3222.99
726.28	3331.53
726.467	3317.2
726.653	3208.66
726.84	3311.05
727.027	3141.07
727.213	3192.27
727.4	3261.9
727.586	3122.64
727.773	3175.89
727.959	3233.23
728.145	3222.99
728.332	3118.54
728.518	3274.19
728.705	3179.98
728.891	3104.21
729.077	3100.11
729.264	3237.33
729.45	3020.24
729.636	3368.4
729.823	3089.87
730.009	3179.98
730.195	3126.74
730.382	3120.59
730.568	3225.04
730.754	3202.51
730.94	3169.74
731.126	3046.87
731.313	3214.8
731.499	3108.3
731.685	3057.11
731.871	2954.71
732.057	2979.28
732.243	3018.19
732.429	3098.06
732.615	3192.27
732.801	3079.63
732.987	3139.02
733.173	3048.91
733.359	2932.18
733.545	3096.02
733.731	3028.43
733.917	2917.84
734.103	3098.06
734.289	2862.55
734.475	3018.19
734.661	2983.38
734.847	3048.91
735.033	2932.18
735.219	2944.47
735.404	2827.73
735.59	2958.8
735.776	2944.47
735.962	3007.95
736.148	2944.47
736.333	3016.15
736.519	2878.93
736.705	2856.4
736.89	2866.64
737.076	2938.32
737.262	2815.45
737.447	2917.84
737.633	2887.12
737.819	2829.78
738.004	2797.01
738.19	3003.86
738.375	2819.54
738.561	2915.8
738.747	2774.49
738.932	2792.92
739.118	2811.35
739.303	2749.91
739.489	2815.45
739.674	2706.9
739.859	2674.14
740.045	2866.64
740.23	2862.55
740.416	2618.84
740.601	2819.54
740.786	2649.56
740.972	2842.07
741.157	2663.9
741.342	2758.1
741.528	2678.23
741.713	2739.67
741.898	2739.67
742.084	2719.19
742.269	2762.2
742.454	2711
742.639	2711
742.824	2559.45
743.01	2643.42
743.195	2635.22
743.38	2637.27
743.565	2680.28
743.75	2541.02
743.935	2495.96
744.12	2762.2
744.305	2502.11
744.49	2489.82
744.675	2459.1
744.86	2450.91
745.045	2547.16
745.23	2541.02
745.415	2502.11
745.6	2452.95
745.785	2586.07
745.97	2469.34
746.155	2446.81
746.34	2485.72
746.525	2299.36
746.71	2313.69
746.895	2295.26
747.079	2366.94
747.264	2317.79
747.449	2291.17
747.634	2311.64
747.819	2262.49
748.003	2246.11
748.188	2291.17
748.373	2301.4
748.557	2268.64
748.742	2268.64
748.927	2233.82
749.111	2211.29
749.296	2239.97
749.481	2201.05
749.665	2108.9
749.85	2139.62
750.034	2164.19
750.219	2188.77
750.404	2153.95
750.588	2000.35
750.773	2084.32
750.957	2084.32
751.141	2031.07
751.326	1869.28
751.51	2143.71
751.695	2022.88
751.879	2067.94
752.064	2131.42
752.248	1959.39
752.432	2010.59
752.617	2086.37
752.801	1889.76
752.985	1900
753.17	1912.29
753.354	1986.02
753.538	1959.39
753.722	1803.75
753.907	1873.38
754.091	1750.5
754.275	1793.51
754.459	1715.69
754.643	1770.98
754.828	1705.45
755.012	1850.85
755.196	1650.15
755.38	1734.12
755.564	1707.49
755.748	1687.01
755.932	1836.52
756.116	1684.97
756.3	1664.49
756.484	1672.68
756.668	1672.68
756.852	1609.19
757.036	1738.21
757.22	1627.62
757.404	1545.7
757.588	1635.82
757.772	1717.73
757.956	1578.47
758.14	1601
758.323	1488.36
758.507	1605.1
758.691	1496.55
758.875	1586.66
759.059	1596.9
759.242	1508.84
759.426	1510.89
759.61	1465.83
759.794	1510.89
759.977	1469.93
760.161	1535.46
760.345	1506.79
760.528	1449.45
760.712	1471.98
760.895	1426.92
761.079	1484.27
761.263	1435.11
761.446	1474.03
761.63	1369.58
761.813	1441.26
761.997	1490.41
762.18	1443.31
762.364	1353.2
762.547	1353.2
762.731	1328.62
762.914	1250.8
763.098	1402.35
763.281	1361.39
763.464	1414.63
763.648	1302
763.831	1297.9
764.015	1281.52
764.198	1375.72
764.381	1353.2
764.564	1263.08
764.748	1287.66
764.931	1361.39
765.114	1258.99
765.297	1308.14
765.481	1304.04
765.664	1330.67
765.847	1277.42
766.03	1250.8
766.213	1279.47
766.397	1232.37
766.58	1316.33
766.763	1277.42
766.946	1316.33
767.129	1232.37
767.312	1197.55
767.495	1148.4
767.678	1238.51
767.861	1185.26
768.044	1232.37
768.227	1175.02
768.41	1144.3
768.593	1218.03
768.776	1185.26
768.959	1129.97
769.142	1232.37
769.324	1144.3
769.507	1273.32
769.69	1123.82
769.873	1179.12
770.056	1129.97
770.239	1162.73
770.421	1285.61
770.604	1031.66
770.787	1172.97
770.97	1177.07
771.152	1025.52
771.335	1109.49
771.518	1172.97
771.7	1062.38
771.883	1132.01
772.066	1041.9
772.248	1070.58
772.431	1107.44
772.613	1039.86
772.796	970.23
772.978	1099.25
773.161	1041.9
773.343	1046
773.526	1099.25
773.708	988.66
773.891	1095.15
774.073	1031.66
774.256	1048.05
774.438	1039.86
774.621	945.65
774.803	1052.14
774.985	1019.38
775.168	1035.76
775.35	996.85
775.532	990.7
775.715	933.36
775.897	841.2
776.079	1062.38
776.261	941.55
776.444	966.13
776.626	962.03
776.808	923.12
776.99	904.69
777.173	890.35
777.355	871.92
777.537	861.68
777.719	857.59
777.901	787.96
778.083	884.21
778.265	841.2
778.447	882.16
778.629	908.79
778.811	806.39
778.993	845.3
779.175	826.87
779.357	853.49
779.539	785.91
779.721	873.97
779.903	833.01
780.085	787.96
780.267	857.59
780.449	726.52
780.631	794.1
780.812	767.48
780.994	859.63
781.176	908.79
781.358	837.11
781.54	714.23
781.721	734.71
781.903	757.24
782.085	693.75
782.267	804.34
782.448	697.85
782.63	736.76
782.812	759.28
782.993	755.19
783.175	695.8
783.357	683.51
783.538	728.56
783.72	701.94
783.901	689.65
784.083	615.93
784.264	722.42
784.446	634.36
784.627	652.79
784.809	656.89
784.99	607.73
785.172	624.12
785.353	648.69
785.535	677.37
785.716	568.82
785.897	654.84
786.079	658.93
786.26	644.6
786.441	620.02
786.623	624.12
786.804	601.59
786.985	554.49
787.167	595.45
787.348	531.96
787.529	542.2
787.71	546.3
787.891	536.06
788.073	587.26
788.254	546.3
788.435	583.16
788.616	548.34
788.797	560.63
788.978	488.95
789.159	509.43
789.34	478.71
789.522	579.06
789.703	521.72
789.884	529.91
790.065	499.19
790.246	503.29
790.427	470.52
790.607	513.53
790.788	509.43
790.969	462.33
791.15	562.68
791.331	433.66
791.512	507.38
791.693	431.61
791.874	495.1
792.054	509.43
792.235	447.99
792.416	456.19
792.597	464.38
792.778	472.57
792.958	495.1
793.139	443.9
793.32	456.19
793.5	331.26
793.681	447.99
793.862	443.9
794.042	460.28
794.223	380.41
794.404	421.37
794.584	423.42
794.765	464.38
794.945	505.34
795.126	480.76
795.306	437.75
795.487	419.32
795.667	388.6
795.848	423.42
796.028	378.36
796.209	372.22
796.389	351.74
796.57	333.31
796.75	417.27
796.93	378.36
797.111	447.99
797.291	415.23
797.471	351.74
797.652	409.08
797.832	357.88
798.012	402.94
798.192	419.32
798.373	345.59
798.553	374.27
798.733	404.99
798.913	372.22
799.093	361.98
799.274	374.27
799.454	427.51
799.634	267.77
799.814	413.18
799.994	413.18
800.174	357.88
800.354	345.59
800.534	325.12
800.714	349.69
800.894	382.46
801.074	335.35
801.254	394.75
801.434	419.32
801.614	351.74
801.794	228.86
801.974	787.96
802.154	366.07
802.334	370.17
802.514	286.2
802.693	278.01
802.873	335.35
803.053	331.26
803.233	321.02
803.413	310.78
803.592	306.68
803.772	247.29
803.952	298.49
804.131	259.58
804.311	259.58
804.491	337.4
804.67	255.48
804.85	251.39
805.03	364.03
805.209	361.98
805.389	302.59
805.568	239.1
805.748	265.72
805.928	329.21
806.107	347.64
806.287	247.29
806.466	263.68
806.646	296.44
806.825	206.33
807.004	159.23
807.184	318.97
807.363	296.44
807.543	171.52
807.722	271.87
807.901	241.15
808.081	269.82
808.26	198.14
808.439	253.44
808.619	198.14
808.798	216.57
808.977	228.86
809.156	194.05
809.336	208.38
809.515	296.44
809.694	286.2
809.873	300.54
810.052	261.63
810.231	241.15
810.411	232.96
810.59	269.82
810.769	216.57
810.948	204.28
811.127	181.76
811.306	245.24
811.485	294.4
811.664	230.91
811.843	218.62
812.022	304.64
812.201	259.58
812.38	202.24
812.559	173.57
812.737	230.91
812.916	179.71
813.095	257.53
813.274	243.2
813.453	175.61
813.632	232.96
813.811	308.73
813.989	243.2
814.168	245.24
814.347	175.61
814.526	249.34
814.704	230.91
814.883	222.72
815.062	228.86
815.24	228.86
815.419	198.14
815.598	210.43
815.776	138.75
815.955	271.87
816.133	181.76
816.312	198.14
816.49	165.37
816.669	173.57
816.847	165.37
817.026	185.85
817.204	228.86
817.383	235
817.561	200.19
817.74	179.71
817.918	185.85
818.097	222.72
818.275	138.75
818.453	214.52
818.632	169.47
818.81	189.95
818.988	120.32
819.167	177.66
819.345	194.05
819.523	200.19
819.701	159.23
819.879	239.1
820.058	173.57
820.236	124.41
820.414	177.66
820.592	167.42
820.77	198.14
820.948	157.18
821.127	194.05
821.305	206.33
821.483	130.56
821.661	173.57
821.839	198.14
822.017	196.09
822.195	204.28
822.373	163.33
822.551	179.71
822.729	177.66
822.907	224.76
823.085	169.47
823.262	153.09
823.44	157.18
823.618	144.89
823.796	212.48
823.974	132.61
824.152	173.57
824.329	116.22
824.507	105.98
824.685	155.13
824.863	89.6
825.04	99.84
825.218	169.47
825.396	153.09
825.574	181.76
825.751	226.81
825.929	177.66
826.107	183.81
826.284	200.19
826.462	101.89
826.639	151.04
826.817	200.19
826.994	128.51
827.172	151.04
827.349	130.56
827.527	148.99
827.704	144.89
827.882	183.81
828.059	151.04
828.237	140.8
828.414	91.65
828.591	67.07
828.769	155.13
828.946	171.52
829.124	171.52
829.301	140.8
829.478	187.9
829.655	204.28
829.833	189.95
830.01	118.27
830.187	167.42
830.364	130.56
830.542	206.33
830.719	204.28
830.896	214.52
831.073	146.94
831.25	140.8
831.427	112.13
831.604	124.41
831.782	183.81
831.959	122.37
832.136	65.02
832.313	142.85
832.49	128.51
832.667	95.74
832.844	153.09
833.021	185.85
833.198	114.17
833.374	122.37
833.551	128.51
833.728	116.22
833.905	142.85
834.082	116.22
834.259	112.13
834.436	169.47
834.612	81.41
834.789	165.37
834.966	169.47
835.143	101.89
835.319	99.84
835.496	171.52
835.673	159.23
835.85	114.17
836.026	134.65
836.203	175.61
836.38	159.23
836.556	36.35
836.733	189.95
836.909	157.18
837.086	140.8
837.262	79.36
837.439	44.54
837.616	114.17
837.792	134.65
837.968	124.41
838.145	110.08
838.321	118.27
838.498	136.7
838.674	142.85
838.851	112.13
839.027	132.61
839.203	116.22
839.38	126.46
839.556	69.12
839.732	124.41
839.909	60.93
840.085	114.17
840.261	60.93
840.437	108.03
840.614	30.21
840.79	75.26
840.966	60.93
841.142	52.74
841.318	99.84
841.494	44.54
841.671	83.45
841.847	89.6
842.023	58.88
842.199	46.59
842.375	60.93
842.551	50.69
842.727	50.69
842.903	99.84
843.079	87.55
843.255	77.31
843.431	140.8
843.607	75.26
843.783	52.74
843.959	79.36
844.134	105.98
844.31	118.27
844.486	79.36
844.662	46.59
844.838	128.51
845.013	91.65
845.189	99.84
845.365	138.75
845.541	89.6
845.716	101.89
845.892	56.83
846.068	44.54
846.244	146.94
846.419	99.84
846.595	38.4
846.77	17.92
846.946	112.13
847.122	105.98
847.297	38.4
847.473	134.65
847.648	26.11
847.824	77.31
847.999	105.98
848.175	99.84
848.35	89.6
848.526	62.98
848.701	99.84
848.876	91.65
849.052	132.61
849.227	75.26
849.403	71.17
849.578	9.73
849.753	22.02
849.929	95.74
850.104	-6.66
850.279	79.36
850.454	77.31
850.63	60.93
850.805	46.59
850.98	112.13
851.155	67.07
851.33	65.02
851.505	87.55
851.681	132.61
851.856	42.5
852.031	54.78
852.206	73.21
852.381	62.98
852.556	120.32
852.731	93.69
852.906	42.5
853.081	105.98
853.256	67.07
853.431	62.98
853.606	138.75
853.781	44.54
853.956	95.74
854.131	95.74
854.305	73.21
854.48	103.93
854.655	62.98
854.83	97.79
855.005	46.59
855.18	54.78
855.354	9.73
855.529	52.74
855.704	99.84
855.879	71.17
856.053	60.93
856.228	48.64
856.403	30.21
856.577	101.89
856.752	1.54
856.926	81.41
857.101	-20.99
857.276	38.4
857.45	60.93
857.625	85.5
857.799	58.88
857.974	32.26
858.148	42.5
858.323	30.21
858.497	32.26
858.672	79.36
858.846	118.27
859.02	38.4
859.195	13.82
859.369	54.78
859.543	40.45
859.718	95.74
859.892	46.59
860.066	69.12
860.241	34.3
860.415	81.41
860.589	19.97
860.763	87.55
860.938	40.45
861.112	46.59
861.286	-14.85
861.46	1.54
861.634	26.11
861.808	99.84
861.982	54.78
862.157	24.06
862.331	89.6
862.505	28.16
862.679	67.07
862.853	28.16
863.027	15.87
863.201	58.88
863.375	40.45
863.549	-25.09
863.722	36.35
863.896	62.98
864.07	-27.14
864.244	-6.66
864.418	62.98
864.592	17.92
864.766	91.65
864.939	34.3
865.113	5.63
865.287	108.03
865.461	36.35
865.634	62.98
865.808	81.41
865.982	58.88
866.156	11.78
866.329	77.31
866.503	28.16
866.676	5.63
866.85	77.31
867.024	81.41
867.197	87.55
867.371	75.26
867.544	-12.8
867.718	81.41
867.891	42.5
868.065	28.16
868.238	91.65
868.412	56.83
868.585	-45.57
868.759	81.41
868.932	77.31
869.105	-0.51
869.279	56.83
869.452	1.54
869.625	1.54
869.799	93.69
869.972	30.21
870.145	34.3
870.319	103.93
870.492	108.03
870.665	42.5
870.838	-18.94
871.011	-2.56
871.185	42.5
871.358	89.6
871.531	58.88
871.704	-27.14
871.877	32.26
872.05	-43.52
872.223	46.59
872.396	-25.09
872.569	42.5
872.742	-55.81
872.915	52.74
873.088	11.78
873.261	62.98
873.434	75.26
873.607	71.17
873.78	77.31
873.953	26.11
874.126	7.68
874.299	157.18
874.471	9.73
874.644	75.26
874.817	89.6
874.99	42.5
875.163	13.82
875.335	85.5
875.508	7.68
875.681	91.65
875.853	56.83
876.026	15.87
876.199	32.26
876.371	44.54
876.544	79.36
876.717	7.68
876.889	38.4
877.062	40.45
877.234	-33.28
877.407	58.88
877.579	71.17
877.752	62.98
877.924	56.83
878.097	15.87
878.269	42.5
878.442	-31.23
878.614	77.31
878.786	101.89
878.959	34.3
879.131	19.97
879.303	-33.28
879.476	38.4
879.648	67.07
879.82	44.54
879.993	-4.61
880.165	11.78
880.337	-0.51
880.509	97.79
880.681	22.02
880.854	87.55
881.026	30.21
881.198	54.78
881.37	30.21
881.542	17.92
881.714	24.06
881.886	34.3
882.058	81.41
882.23	73.21
882.402	13.82
882.574	60.93
882.746	36.35
882.918	-18.94
883.09	179.71
883.262	40.45
883.434	40.45
883.606	13.82
883.778	-12.8
883.95	24.06
884.122	-6.66
884.293	105.98
884.465	-14.85
884.637	32.26
884.809	-10.75
884.98	36.35
885.152	34.3
885.324	108.03
885.496	1.54
885.667	-2.56
885.839	50.69
886.011	30.21
886.182	-57.86
886.354	77.31
886.525	30.21
886.697	38.4
886.869	34.3
887.04	62.98
887.212	-2.56
887.383	62.98
887.555	36.35
887.726	54.78
887.897	-2.56
888.069	7.68
888.24	77.31
888.412	46.59
888.583	-16.9
888.754	38.4
888.926	24.06
889.097	9.73
889.268	-59.9
889.44	83.45
889.611	13.82
889.782	28.16
889.953	52.74
890.125	67.07
890.296	26.11
890.467	46.59
890.638	48.64
890.809	40.45
890.98	7.68
891.151	13.82
891.323	7.68
891.494	50.69
891.665	26.11
891.836	56.83
892.007	81.41
892.178	36.35
892.349	3.58
892.52	36.35
892.691	-12.8
892.862	-37.38
893.032	-6.66
893.203	52.74
893.374	13.82
893.545	142.85
893.716	79.36
893.887	9.73
894.057	-0.51
894.228	48.64
894.399	-18.94
894.57	126.46
894.74	48.64
894.911	-43.52
895.082	24.06
895.253	-4.61
895.423	-2.56
895.594	54.78
895.764	-20.99
895.935	67.07
896.106	22.02
896.276	52.74
896.447	65.02
896.617	58.88
896.788	48.64
896.958	77.31
897.129	108.03
897.299	-4.61
897.47	26.11
897.64	-12.8
897.81	56.83
897.981	42.5
898.151	-31.23
898.322	22.02
898.492	7.68
898.662	15.87
898.832	-12.8
899.003	-43.52
899.173	-37.38
899.343	32.26
899.513	22.02
