Data from USB4F104151__125__11-07-31-936.txt Node

Date: Wed Mar 12 11:07:31 EDT 2025
User: louis
Spectrometer: USB4F10415
Trigger mode: 4
Integration Time (sec): 2.000000E-2
Scans to average: 1
Electric dark correction enabled: true
Nonlinearity correction enabled: false
Boxcar width: 0
XAxis mode: Wavelengths
Number of Pixels in Spectrum: 3648
>>>>>Begin Spectral Data<<<<<
178.204	-96.08
178.424	-96.08
178.644	-96.08
178.864	-57.17
179.084	-63.32
179.304	8.36
179.524	-12.12
179.744	-44.88
179.964	32.94
180.184	2.22
180.404	2.22
180.624	65.71
180.844	20.65
181.064	-20.31
181.283	-30.55
181.503	-44.88
181.723	20.65
181.943	6.31
182.163	71.85
182.383	-14.17
182.602	69.8
182.822	34.99
183.042	-1.88
183.262	24.75
183.482	-26.45
183.701	-20.31
183.921	53.42
184.141	32.94
184.361	161.96
184.58	12.46
184.8	92.33
185.02	22.7
185.239	63.66
185.459	-12.12
185.679	-26.45
185.898	-14.17
186.118	55.47
186.338	49.32
186.557	55.47
186.777	-48.98
186.997	22.7
187.216	59.56
187.436	6.31
187.655	164.01
187.875	82.09
188.095	114.86
188.314	-32.6
188.534	34.99
188.753	10.41
188.973	55.47
189.192	80.04
189.412	47.27
189.631	-8.02
189.851	6.31
190.07	12.46
190.29	-20.31
190.509	-1.88
190.729	53.42
190.948	71.85
191.168	143.53
191.387	67.75
191.607	-38.74
191.826	24.75
192.045	39.08
192.265	0.17
192.484	51.37
192.704	55.47
192.923	75.95
193.142	43.18
193.362	32.94
193.581	28.84
193.8	22.7
194.02	53.42
194.239	-22.36
194.458	0.17
194.678	-22.36
194.897	67.75
195.116	16.55
195.335	55.47
195.555	47.27
195.774	43.18
195.993	110.76
196.212	39.08
196.432	4.27
196.651	59.56
196.87	-36.69
197.089	112.81
197.308	-5.97
197.528	59.56
197.747	6.31
197.966	77.99
198.185	37.03
198.404	30.89
198.623	37.03
198.842	77.99
199.062	71.85
199.281	71.85
199.5	-36.69
199.719	71.85
199.938	32.94
200.157	24.75
200.376	-20.31
200.595	67.75
200.814	86.19
201.033	8.36
201.252	75.95
201.471	-5.97
201.69	53.42
201.909	102.57
202.128	47.27
202.347	49.32
202.566	10.41
202.785	65.71
203.004	10.41
203.223	94.38
203.442	63.66
203.661	37.03
203.879	14.51
204.098	32.94
204.317	-16.21
204.536	49.32
204.755	-48.98
204.974	65.71
205.193	2.22
205.411	28.84
205.63	-61.27
205.849	32.94
206.068	26.79
206.287	65.71
206.505	18.6
206.724	6.31
206.943	59.56
207.162	14.51
207.381	67.75
207.599	10.41
207.818	37.03
208.037	30.89
208.255	43.18
208.474	65.71
208.693	57.51
208.911	24.75
209.13	6.31
209.349	-10.07
209.567	118.95
209.786	92.33
210.005	51.37
210.223	-69.46
210.442	41.13
210.661	22.7
210.879	37.03
211.098	39.08
211.316	47.27
211.535	108.71
211.753	18.6
211.972	26.79
212.191	75.95
212.409	47.27
212.628	57.51
212.846	-16.21
213.065	108.71
213.283	112.81
213.502	-14.17
213.72	30.89
213.938	26.79
214.157	24.75
214.375	-5.97
214.594	-46.93
214.812	30.89
215.031	53.42
215.249	55.47
215.467	41.13
215.686	10.41
215.904	49.32
216.122	59.56
216.341	47.27
216.559	43.18
216.778	34.99
216.996	108.71
217.214	77.99
217.432	30.89
217.651	-1.88
217.869	39.08
218.087	16.55
218.306	61.61
218.524	84.14
218.742	12.46
218.96	61.61
219.179	-1.88
219.397	73.9
219.615	100.52
219.833	32.94
220.051	-32.6
220.27	65.71
220.488	129.19
220.706	82.09
220.924	12.46
221.142	-1.88
221.36	98.47
221.578	90.28
221.796	71.85
222.015	94.38
222.233	94.38
222.451	114.86
222.669	28.84
222.887	59.56
223.105	10.41
223.323	6.31
223.541	10.41
223.759	43.18
223.977	12.46
224.195	-10.07
224.413	53.42
224.631	63.66
224.849	26.79
225.067	75.95
225.285	69.8
225.503	71.85
225.721	18.6
225.939	55.47
226.157	-5.97
226.375	88.23
226.592	-30.55
226.81	32.94
227.028	2.22
227.246	59.56
227.464	47.27
227.682	96.43
227.9	45.23
228.117	67.75
228.335	67.75
228.553	92.33
228.771	-34.64
228.989	108.71
229.206	4.27
229.424	43.18
229.642	39.08
229.86	-16.21
230.077	57.51
230.295	18.6
230.513	22.7
230.731	16.55
230.948	-20.31
231.166	39.08
231.384	2.22
231.601	125.1
231.819	69.8
232.037	53.42
232.254	20.65
232.472	57.51
232.689	45.23
232.907	73.9
233.125	94.38
233.342	65.71
233.56	37.03
233.777	-12.12
233.995	110.76
234.213	51.37
234.43	12.46
234.648	53.42
234.865	55.47
235.083	59.56
235.3	-5.97
235.518	6.31
235.735	30.89
235.953	49.32
236.17	22.7
236.388	22.7
236.605	82.09
236.822	39.08
237.04	22.7
237.257	-10.07
237.475	61.61
237.692	82.09
237.909	28.84
238.127	63.66
238.344	24.75
238.562	80.04
238.779	6.31
238.996	-36.69
239.214	-44.88
239.431	18.6
239.648	39.08
239.865	34.99
240.083	61.61
240.3	-5.97
240.517	61.61
240.735	26.79
240.952	73.9
241.169	67.75
241.386	22.7
241.603	-46.93
241.821	-46.93
242.038	24.75
242.255	41.13
242.472	43.18
242.689	43.18
242.907	26.79
243.124	139.43
243.341	14.51
243.558	-1.88
243.775	-16.21
243.992	-8.02
244.209	75.95
244.426	61.61
244.643	92.33
244.86	-24.4
245.078	92.33
245.295	-18.26
245.512	53.42
245.729	92.33
245.946	94.38
246.163	59.56
246.38	80.04
246.597	88.23
246.814	61.61
247.031	65.71
247.248	28.84
247.464	75.95
247.681	14.51
247.898	92.33
248.115	96.43
248.332	84.14
248.549	80.04
248.766	57.51
248.983	55.47
249.2	20.65
249.417	75.95
249.633	67.75
249.85	86.19
250.067	10.41
250.284	59.56
250.501	45.23
250.717	133.29
250.934	-40.79
251.151	34.99
251.368	26.79
251.585	84.14
251.801	53.42
252.018	114.86
252.235	-1.88
252.451	22.7
252.668	-14.17
252.885	30.89
253.102	67.75
253.318	61.61
253.535	75.95
253.752	84.14
253.968	32.94
254.185	6.31
254.401	43.18
254.618	43.18
254.835	39.08
255.051	104.62
255.268	28.84
255.484	26.79
255.701	-10.07
255.917	26.79
256.134	45.23
256.351	22.7
256.567	77.99
256.784	129.19
257	30.89
257.217	-5.97
257.433	10.41
257.65	141.48
257.866	75.95
258.082	-59.22
258.299	6.31
258.515	26.79
258.732	20.65
258.948	92.33
259.165	-26.45
259.381	102.57
259.597	100.52
259.814	67.75
260.03	12.46
260.246	114.86
260.463	26.79
260.679	86.19
260.895	20.65
261.112	88.23
261.328	141.48
261.544	73.9
261.761	-22.36
261.977	16.55
262.193	26.79
262.409	69.8
262.626	2.22
262.842	82.09
263.058	0.17
263.274	-3.93
263.49	47.27
263.707	34.99
263.923	20.65
264.139	118.95
264.355	41.13
264.571	43.18
264.787	43.18
265.004	53.42
265.22	37.03
265.436	55.47
265.652	63.66
265.868	20.65
266.084	-1.88
266.3	6.31
266.516	53.42
266.732	22.7
266.948	30.89
267.164	47.27
267.38	43.18
267.596	34.99
267.812	118.95
268.028	114.86
268.244	112.81
268.46	118.95
268.676	-69.46
268.892	30.89
269.108	24.75
269.324	41.13
269.54	49.32
269.756	73.9
269.972	30.89
270.188	6.31
270.403	14.51
270.619	104.62
270.835	65.71
271.051	67.75
271.267	8.36
271.483	98.47
271.698	67.75
271.914	77.99
272.13	-14.17
272.346	20.65
272.562	6.31
272.777	86.19
272.993	47.27
273.209	77.99
273.425	65.71
273.64	22.7
273.856	51.37
274.072	2.22
274.287	88.23
274.503	34.99
274.719	47.27
274.934	28.84
275.15	100.52
275.366	43.18
275.581	43.18
275.797	86.19
276.012	65.71
276.228	80.04
276.444	20.65
276.659	20.65
276.875	24.75
277.09	71.85
277.306	39.08
277.521	114.86
277.737	57.51
277.952	112.81
278.168	-20.31
278.383	51.37
278.599	67.75
278.814	8.36
279.03	34.99
279.245	80.04
279.461	30.89
279.676	86.19
279.892	2.22
280.107	43.18
280.322	-20.31
280.538	45.23
280.753	57.51
280.969	39.08
281.184	59.56
281.399	22.7
281.615	12.46
281.83	37.03
282.045	20.65
282.26	102.57
282.476	41.13
282.691	-16.21
282.906	88.23
283.122	55.47
283.337	47.27
283.552	49.32
283.767	30.89
283.983	112.81
284.198	37.03
284.413	63.66
284.628	69.8
284.843	104.62
285.058	116.9
285.274	6.31
285.489	6.31
285.704	67.75
285.919	22.7
286.134	24.75
286.349	-3.93
286.564	49.32
286.779	69.8
286.995	47.27
287.21	37.03
287.425	57.51
287.64	-30.55
287.855	133.29
288.07	106.67
288.285	86.19
288.5	90.28
288.715	53.42
288.93	47.27
289.145	39.08
289.36	125.1
289.575	67.75
289.79	108.71
290.004	39.08
290.219	-22.36
290.434	39.08
290.649	16.55
290.864	98.47
291.079	22.7
291.294	77.99
291.509	22.7
291.724	59.56
291.938	39.08
292.153	75.95
292.368	-1.88
292.583	10.41
292.798	110.76
293.012	61.61
293.227	55.47
293.442	-18.26
293.657	22.7
293.871	88.23
294.086	4.27
294.301	65.71
294.516	71.85
294.73	39.08
294.945	37.03
295.16	47.27
295.374	92.33
295.589	80.04
295.804	73.9
296.018	90.28
296.233	43.18
296.447	84.14
296.662	43.18
296.877	28.84
297.091	73.9
297.306	84.14
297.52	6.31
297.735	47.27
297.949	90.28
298.164	100.52
298.378	71.85
298.593	51.37
298.807	41.13
299.022	-10.07
299.236	75.95
299.451	34.99
299.665	49.32
299.88	20.65
300.094	22.7
300.309	59.56
300.523	84.14
300.737	39.08
300.952	-22.36
301.166	67.75
301.381	73.9
301.595	59.56
301.809	84.14
302.024	32.94
302.238	-38.74
302.452	104.62
302.667	-32.6
302.881	90.28
303.095	51.37
303.309	114.86
303.524	49.32
303.738	30.89
303.952	39.08
304.166	94.38
304.381	-51.03
304.595	67.75
304.809	14.51
305.023	67.75
305.237	16.55
305.452	49.32
305.666	41.13
305.88	20.65
306.094	125.1
306.308	-12.12
306.522	59.56
306.736	86.19
306.95	131.24
307.164	39.08
307.379	100.52
307.593	8.36
307.807	28.84
308.021	22.7
308.235	82.09
308.449	-8.02
308.663	57.51
308.877	135.34
309.091	108.71
309.305	57.51
309.519	39.08
309.733	65.71
309.947	80.04
310.161	77.99
310.374	84.14
310.588	77.99
310.802	6.31
311.016	30.89
311.23	43.18
311.444	84.14
311.658	104.62
311.872	47.27
312.085	71.85
312.299	73.9
312.513	55.47
312.727	61.61
312.941	94.38
313.154	96.43
313.368	37.03
313.582	51.37
313.796	18.6
314.009	71.85
314.223	8.36
314.437	-18.26
314.651	77.99
314.864	114.86
315.078	45.23
315.292	51.37
315.505	47.27
315.719	47.27
315.933	75.95
316.146	45.23
316.36	-8.02
316.573	51.37
316.787	106.67
317.001	30.89
317.214	34.99
317.428	53.42
317.641	26.79
317.855	84.14
318.068	69.8
318.282	57.51
318.495	47.27
318.709	73.9
318.922	96.43
319.136	135.34
319.349	39.08
319.563	28.84
319.776	108.71
319.99	34.99
320.203	55.47
320.417	88.23
320.63	82.09
320.843	172.2
321.057	59.56
321.27	12.46
321.483	75.95
321.697	71.85
321.91	32.94
322.124	71.85
322.337	94.38
322.55	45.23
322.763	34.99
322.977	24.75
323.19	39.08
323.403	61.61
323.617	80.04
323.83	100.52
324.043	16.55
324.256	32.94
324.469	51.37
324.683	43.18
324.896	45.23
325.109	67.75
325.322	123.05
325.535	131.24
325.748	90.28
325.962	30.89
326.175	114.86
326.388	32.94
326.601	63.66
326.814	6.31
327.027	57.51
327.24	131.24
327.453	65.71
327.666	188.58
327.879	149.67
328.092	63.66
328.305	16.55
328.518	112.81
328.731	45.23
328.944	18.6
329.157	94.38
329.37	18.6
329.583	59.56
329.796	71.85
330.009	39.08
330.222	24.75
330.435	-16.21
330.648	69.8
330.861	84.14
331.073	71.85
331.286	18.6
331.499	96.43
331.712	53.42
331.925	47.27
332.138	41.13
332.35	49.32
332.563	-14.17
332.776	80.04
332.989	121
333.202	53.42
333.414	49.32
333.627	96.43
333.84	16.55
334.053	22.7
334.265	67.75
334.478	77.99
334.691	112.81
334.903	88.23
335.116	59.56
335.329	65.71
335.541	24.75
335.754	131.24
335.966	32.94
336.179	110.76
336.392	73.9
336.604	131.24
336.817	84.14
337.029	80.04
337.242	59.56
337.454	69.8
337.667	22.7
337.88	141.48
338.092	47.27
338.305	127.14
338.517	28.84
338.729	45.23
338.942	59.56
339.154	45.23
339.367	69.8
339.579	92.33
339.792	67.75
340.004	104.62
340.217	53.42
340.429	59.56
340.641	0.17
340.854	37.03
341.066	90.28
341.278	47.27
341.491	57.51
341.703	32.94
341.915	-46.93
342.128	80.04
342.34	80.04
342.552	75.95
342.764	20.65
342.977	30.89
343.189	45.23
343.401	47.27
343.613	69.8
343.826	24.75
344.038	121
344.25	39.08
344.462	51.37
344.674	84.14
344.886	57.51
345.099	63.66
345.311	16.55
345.523	110.76
345.735	-1.88
345.947	104.62
346.159	0.17
346.371	39.08
346.583	49.32
346.795	108.71
347.007	47.27
347.219	94.38
347.431	-1.88
347.643	39.08
347.855	88.23
348.067	116.9
348.279	92.33
348.491	51.37
348.703	59.56
348.915	98.47
349.127	51.37
349.339	90.28
349.551	67.75
349.763	-22.36
349.975	88.23
350.187	14.51
350.399	139.43
350.61	98.47
350.822	77.99
351.034	82.09
351.246	73.9
351.458	-1.88
351.669	108.71
351.881	55.47
352.093	90.28
352.305	45.23
352.517	41.13
352.728	49.32
352.94	133.29
353.152	77.99
353.363	92.33
353.575	47.27
353.787	121
353.999	118.95
354.21	63.66
354.422	30.89
354.633	55.47
354.845	100.52
355.057	43.18
355.268	6.31
355.48	104.62
355.692	10.41
355.903	55.47
356.115	0.17
356.326	26.79
356.538	39.08
356.749	-16.21
356.961	71.85
357.172	80.04
357.384	59.56
357.595	184.49
357.807	4.27
358.018	155.82
358.23	67.75
358.441	75.95
358.653	100.52
358.864	106.67
359.075	77.99
359.287	61.61
359.498	116.9
359.709	6.31
359.921	82.09
360.132	92.33
360.344	43.18
360.555	49.32
360.766	67.75
360.977	65.71
361.189	133.29
361.4	98.47
361.611	94.38
361.823	90.28
362.034	59.56
362.245	67.75
362.456	84.14
362.667	43.18
362.879	121
363.09	53.42
363.301	100.52
363.512	65.71
363.723	75.95
363.935	47.27
364.146	61.61
364.357	45.23
364.568	155.82
364.779	47.27
364.99	96.43
365.201	106.67
365.412	135.34
365.623	65.71
365.834	65.71
366.045	39.08
366.256	80.04
366.467	108.71
366.678	-36.69
366.889	100.52
367.1	28.84
367.311	82.09
367.522	24.75
367.733	149.67
367.944	71.85
368.155	18.6
368.366	164.01
368.577	49.32
368.788	108.71
368.999	53.42
369.209	133.29
369.42	80.04
369.631	123.05
369.842	51.37
370.053	102.57
370.264	47.27
370.474	55.47
370.685	37.03
370.896	59.56
371.107	96.43
371.317	161.96
371.528	6.31
371.739	98.47
371.95	100.52
372.16	141.48
372.371	67.75
372.582	71.85
372.792	73.9
373.003	41.13
373.214	131.24
373.424	28.84
373.635	43.18
373.846	147.62
374.056	80.04
374.267	135.34
374.477	43.18
374.688	90.28
374.898	20.65
375.109	90.28
375.319	65.71
375.53	112.81
375.74	116.9
375.951	170.15
376.161	121
376.372	43.18
376.582	22.7
376.793	37.03
377.003	55.47
377.214	22.7
377.424	43.18
377.635	34.99
377.845	104.62
378.055	49.32
378.266	98.47
378.476	125.1
378.686	137.38
378.897	184.49
379.107	92.33
379.317	123.05
379.528	47.27
379.738	65.71
379.948	94.38
380.158	26.79
380.369	88.23
380.579	92.33
380.789	10.41
380.999	51.37
381.21	96.43
381.42	157.86
381.63	96.43
381.84	106.67
382.05	12.46
382.261	80.04
382.471	104.62
382.681	55.47
382.891	88.23
383.101	86.19
383.311	65.71
383.521	116.9
383.731	118.95
383.941	129.19
384.151	16.55
384.361	96.43
384.571	20.65
384.781	80.04
384.991	182.44
385.201	57.51
385.411	170.15
385.621	116.9
385.831	116.9
386.041	104.62
386.251	73.9
386.461	88.23
386.671	39.08
386.881	86.19
387.091	43.18
387.301	166.06
387.511	92.33
387.72	145.58
387.93	53.42
388.14	47.27
388.35	127.14
388.56	30.89
388.769	125.1
388.979	6.31
389.189	65.71
389.399	59.56
389.609	110.76
389.818	26.79
390.028	129.19
390.238	104.62
390.447	116.9
390.657	51.37
390.867	84.14
391.076	67.75
391.286	67.75
391.496	75.95
391.705	112.81
391.915	90.28
392.125	133.29
392.334	67.75
392.544	63.66
392.753	59.56
392.963	77.99
393.172	55.47
393.382	22.7
393.591	137.38
393.801	92.33
394.01	110.76
394.22	137.38
394.429	135.34
394.639	112.81
394.848	114.86
395.058	65.71
395.267	90.28
395.477	98.47
395.686	110.76
395.895	139.43
396.105	164.01
396.314	145.58
396.524	125.1
396.733	116.9
396.942	161.96
397.152	80.04
397.361	178.34
397.57	172.2
397.78	106.67
397.989	116.9
398.198	139.43
398.407	166.06
398.617	104.62
398.826	131.24
399.035	135.34
399.244	104.62
399.453	139.43
399.663	96.43
399.872	164.01
400.081	118.95
400.29	209.06
400.499	178.34
400.708	198.82
400.917	145.58
401.127	159.91
401.336	198.82
401.545	223.4
401.754	204.97
401.963	178.34
402.172	192.68
402.381	200.87
402.59	153.77
402.799	176.3
403.008	194.73
403.217	168.1
403.426	125.1
403.635	161.96
403.844	229.54
404.053	241.83
404.262	127.14
404.471	221.35
404.68	200.87
404.888	129.19
405.097	295.08
405.306	270.5
405.515	123.05
405.724	243.88
405.933	297.13
406.142	264.36
406.35	245.93
406.559	176.3
406.768	227.5
406.977	303.27
407.185	293.03
407.394	256.17
407.603	264.36
407.812	299.17
408.02	303.27
408.229	354.47
408.438	356.52
408.646	350.37
408.855	293.03
409.064	420
409.272	344.23
409.481	374.95
409.69	405.67
409.898	424.1
410.107	405.67
410.315	465.06
410.524	495.78
410.733	442.53
410.941	428.2
411.15	542.88
411.358	573.6
411.567	499.88
411.775	573.6
411.984	583.84
412.192	665.76
412.401	637.09
412.609	686.24
412.818	614.56
413.026	626.85
413.234	692.38
413.443	682.14
413.651	710.82
413.86	719.01
414.068	817.31
414.276	792.73
414.485	843.93
414.693	870.56
414.901	909.47
415.11	948.38
415.318	999.58
415.526	997.53
415.734	999.58
415.943	993.44
416.151	1187.99
416.359	1108.12
416.567	1108.12
416.776	1224.86
416.984	1317.01
417.192	1327.25
417.4	1296.53
417.608	1390.74
417.817	1540.24
418.025	1433.75
418.233	1556.63
418.441	1525.91
418.649	1575.06
418.857	1687.7
419.065	1788.05
419.273	1722.51
419.481	1841.29
419.689	1960.08
419.897	1986.7
420.105	2130.06
420.313	2076.81
420.521	2078.86
420.729	2156.68
420.937	2287.75
421.145	2242.7
421.353	2562.18
421.561	2515.08
421.769	2549.89
421.977	2848.9
422.185	2711.68
422.393	2877.57
422.601	3129.47
422.809	3096.7
423.017	3176.57
423.224	3201.15
423.432	3397.75
423.64	3440.76
423.848	3557.49
424.056	3647.6
424.263	3864.69
424.471	3711.09
424.679	4112.49
424.887	4051.05
425.094	4388.97
425.302	4364.39
425.51	4483.17
425.718	4612.2
425.925	4591.72
426.133	4892.77
426.341	5052.51
426.548	5283.93
426.756	5341.27
426.964	5480.54
427.171	5726.29
427.379	5853.27
427.586	5949.52
427.794	6187.08
428.001	6682.69
428.209	6799.43
428.417	6578.25
428.624	7120.96
428.832	7010.37
429.039	7014.46
429.247	7006.27
429.454	7706.68
429.662	8198.19
429.869	7706.68
430.076	8405.03
430.284	7940.15
430.491	8243.24
430.699	8796.2
430.906	8874.02
431.114	8857.64
431.321	9164.83
431.528	9359.39
431.736	10199.06
431.943	10526.73
432.15	10270.73
432.358	10467.34
432.565	10801.16
432.772	10762.25
432.979	11411.45
433.187	11554.81
433.394	11593.72
433.601	12525.55
433.808	12595.18
434.016	12394.48
434.223	12849.13
434.43	13619.16
434.637	13500.38
434.844	14323.66
435.052	14452.69
435.259	14499.79
435.466	14493.65
435.673	14497.74
435.88	15304.64
436.087	16043.96
436.294	16488.37
436.501	15794.11
436.708	16242.61
436.915	16818.09
437.122	17418.14
437.329	17285.03
437.537	17983.38
437.743	18059.16
437.95	18200.47
438.157	19056.52
438.364	19513.22
438.571	19728.25
438.778	19605.38
438.985	21428.07
439.192	20795.25
439.399	21395.3
439.606	20838.25
439.813	21743.45
440.02	23301.96
440.227	22949.71
440.433	22882.13
440.64	23557.96
440.847	23476.04
441.054	24287.03
441.261	25542.44
441.467	25020.2
441.674	25804.58
441.881	26818.32
442.088	26642.2
442.294	26115.87
442.501	26949.39
442.708	27647.75
442.914	28651.25
443.121	30191.33
443.328	29191.92
443.534	30951.12
443.741	30260.96
443.948	29931.23
444.154	32114.37
444.361	31532.75
444.568	32120.51
444.774	31950.53
444.981	32444.09
445.187	33111.73
445.394	34733.72
445.6	34215.58
445.807	37336.69
446.013	35884.68
446.22	36828.79
446.426	37711.47
446.633	38076.01
446.839	39341.65
447.046	38024.81
447.252	39743.05
447.459	39937.61
447.665	39794.25
447.871	41387.57
448.078	43210.26
448.284	41567.79
448.491	42030.63
448.697	43626
448.903	44365.32
449.11	44744.19
449.316	43912.72
449.522	44535.3
449.728	45843.95
449.935	46015.98
450.141	46214.63
450.347	46880.22
450.553	45694.45
450.76	46147.05
450.966	47042.01
451.172	47035.87
451.378	47961.55
451.584	47205.85
451.791	48074.19
451.997	48186.83
452.203	48541.13
452.409	48649.67
452.615	48391.62
452.821	46736.87
453.027	46325.22
453.233	48872.9
453.44	46491.11
453.646	47361.5
453.852	47306.2
454.058	48125.39
454.264	46685.67
454.47	47597.01
454.676	46960.09
454.882	47885.78
455.088	43617.81
455.294	44488.2
455.5	44707.33
455.705	45792.75
455.911	43795.98
456.117	42890.78
456.323	41969.19
456.529	39992.9
456.735	41659.95
456.941	40676.93
457.147	40296
457.352	38706.78
457.558	38710.88
457.764	38495.84
457.97	37625.45
458.176	36966.01
458.381	37031.54
458.587	34887.32
458.793	34811.54
458.999	33062.58
459.204	35937.93
459.41	34588.31
459.616	32239.29
459.821	32046.79
460.027	32337.6
460.233	31395.53
460.438	29871.84
460.644	30410.46
460.85	29091.57
461.055	28561.14
461.261	28235.52
461.466	26398.49
461.672	25874.21
461.878	27731.72
462.083	25900.83
462.289	25061.16
462.494	24753.97
462.7	24069.95
462.905	23557.96
463.111	24014.65
463.316	23934.78
463.522	23359.3
463.727	23670.59
463.932	23377.73
464.138	23416.65
464.343	23435.08
464.549	22601.55
464.754	23818.05
464.959	23252.81
465.165	22962
465.37	22693.71
465.575	21669.73
465.781	22206.3
465.986	22847.31
466.191	21804.89
466.397	21442.4
466.602	20225.91
466.807	21028.71
467.012	20979.56
467.218	21100.39
467.423	20709.23
467.628	21184.36
467.833	21927.77
468.038	21049.19
468.244	20113.27
468.449	21430.12
468.654	20486
468.859	20252.53
469.064	20133.75
469.269	19500.93
469.474	19652.48
469.679	20033.4
469.885	19236.74
470.09	19742.59
470.295	19419.01
470.5	19134.34
470.705	19265.41
470.91	18845.58
471.115	18403.22
471.32	18825.1
471.525	18827.15
471.73	18120.6
471.935	17897.37
472.139	17477.54
472.344	17715.1
472.549	17538.98
472.754	17399.71
472.959	16990.12
473.164	16598.96
473.369	16730.03
473.574	17098.66
473.778	16992.17
473.983	16590.77
474.188	16617.39
474.393	16054.2
474.598	15994.81
474.802	15665.08
475.007	15767.48
475.212	15837.11
475.417	15189.95
475.621	15214.53
475.826	15316.93
476.031	14849.99
476.235	14718.92
476.44	14956.49
476.645	14407.63
476.849	14532.56
477.054	14299.09
477.259	13969.37
477.463	13881.3
477.668	13776.86
477.872	14122.96
478.077	13696.99
478.282	13512.67
478.486	13430.75
478.691	13512.67
478.895	13203.43
479.1	13215.71
479.304	13207.52
479.509	12804.07
479.713	13010.92
479.918	12812.26
480.122	12638.19
480.326	12826.6
480.531	12808.17
480.735	12689.39
480.94	12457.96
481.144	13029.35
481.348	12234.74
481.553	12466.16
481.757	12382.19
481.961	12439.53
482.166	12498.92
482.37	12417.01
482.574	12099.57
482.778	12267.5
482.983	12419.05
483.187	12300.27
483.391	12386.29
483.595	12208.11
483.8	12081.14
484.004	12204.02
484.208	12251.12
484.412	12089.33
484.616	12005.36
484.821	12322.8
485.025	12017.65
485.229	12339.18
485.433	12109.81
485.637	12304.37
485.841	12189.68
486.045	12214.26
486.249	12232.69
486.453	12142.58
486.657	12060.66
486.861	12437.48
487.065	11771.9
487.269	12222.45
487.473	12058.61
487.677	12330.99
487.881	12300.27
488.085	12130.29
488.289	12107.76
488.493	12081.14
488.697	12359.66
488.901	12177.39
489.105	12113.91
489.309	12353.52
489.512	12392.43
489.716	12302.32
489.92	12269.55
490.124	12201.97
490.328	12705.77
490.531	12316.65
490.735	12529.64
490.939	12687.34
491.143	12312.56
491.346	12519.4
491.55	12728.3
491.754	12603.37
491.958	12773.35
492.161	12736.49
492.365	12765.16
492.569	12974.05
492.772	12705.77
492.976	13066.21
493.18	12957.67
493.383	13152.23
493.587	13262.82
493.79	13234.14
493.994	13209.57
494.197	13338.59
494.401	13547.48
494.605	13367.26
494.808	13944.79
495.012	13703.13
495.215	13914.07
495.419	13854.68
495.622	13871.06
495.825	14286.8
496.029	14251.99
496.232	14667.72
496.436	14450.64
496.639	14849.99
496.843	14579.66
497.046	14985.16
497.249	15071.17
497.453	15308.74
497.656	15374.27
497.859	15218.63
498.063	15585.21
498.266	15691.71
498.469	16035.77
498.673	15755.19
498.876	16029.62
499.079	16426.93
499.282	16375.73
499.485	16736.17
499.689	17166.24
499.892	16961.45
500.095	17069.99
500.298	17471.39
500.501	17262.5
500.705	17633.18
500.908	18141.08
501.111	18179.99
501.314	18218.9
501.517	18552.72
501.72	18626.45
501.923	18653.07
502.126	19242.89
502.329	19228.55
502.532	19402.63
502.735	19474.31
502.938	20090.74
503.141	20191.09
503.344	20383.6
503.547	20115.32
503.75	20721.52
503.953	21194.6
504.156	21104.49
504.359	21544.8
504.562	21368.68
504.765	21866.33
504.968	22136.66
505.17	22335.32
505.373	22615.89
505.576	22749.01
505.779	23054.15
505.982	23281.48
506.185	23621.44
506.387	23625.54
506.59	23705.41
506.793	24282.94
506.996	24600.37
507.198	24954.67
507.401	25227.05
507.604	25313.06
507.807	25917.22
508.009	25874.21
508.212	26072.86
508.415	26330.9
508.617	26693.4
508.82	26869.52
509.022	26466.07
509.225	27285.26
509.428	27404.04
509.63	28018.43
509.833	28014.34
510.035	28753.65
510.238	28583.67
510.44	29023.98
510.643	29169.39
510.845	29570.79
511.048	28954.35
511.25	30109.41
511.453	29814.5
511.655	31416.01
511.858	30602.97
512.06	31051.47
512.262	31321.8
512.465	31495.88
512.667	31753.93
512.87	32192.19
513.072	31901.38
513.274	32722.62
513.477	33025.71
513.679	33439.4
513.881	33705.64
514.084	34451.1
514.286	33832.61
514.488	34436.77
514.69	35432.08
514.893	35169.94
515.095	35225.23
515.297	35663.5
515.499	35841.67
515.701	36359.81
515.904	36775.55
516.106	36783.74
516.308	37043.83
516.51	37568.11
516.712	37774.95
516.914	38147.68
517.116	38858.33
517.318	38895.19
517.52	39065.17
517.722	39190.1
517.925	39568.97
518.127	40484.42
518.329	40189.51
518.531	40083.02
518.733	40986.17
518.935	41469.49
519.136	41641.52
519.338	42106.41
519.54	42204.71
519.742	42692.13
519.944	42800.67
520.146	43116.06
520.348	43496.98
520.55	43499.03
520.752	43816.46
520.954	44615.17
521.155	44342.79
521.357	45252.09
521.559	45368.82
521.761	45970.93
521.963	46065.13
522.164	46104.04
522.366	46151.15
522.568	46659.04
522.77	46599.65
522.971	47322.58
523.173	47388.12
523.375	47906.26
523.576	47881.68
523.778	47869.39
523.98	48432.58
524.181	49108.41
524.383	48858.56
524.584	49241.53
524.786	49472.95
524.988	49145.28
525.189	49898.93
525.391	49943.98
525.592	50585
525.794	50470.31
525.995	50302.38
526.197	50679.21
526.398	50828.71
526.6	51072.42
526.801	51133.85
527.003	51551.64
527.204	51709.33
527.406	52090.26
527.607	52100.5
527.808	52583.82
528.01	51273.12
528.211	52297.1
528.412	52888.96
528.614	52848
528.815	53218.69
529.016	53519.74
529.218	52819.33
529.419	53169.54
529.62	53173.63
529.822	53183.87
530.023	53632.38
530.224	53325.18
530.425	53462.39
530.626	53276.03
530.828	53204.35
531.029	54021.49
531.23	53276.03
531.431	53362.04
531.632	54140.27
531.833	54193.52
532.035	54013.3
532.236	54164.85
532.437	54267.25
532.638	54222.19
532.839	54054.26
533.04	54885.73
533.241	53931.38
533.442	54818.15
533.643	54175.09
533.844	54508.91
534.045	54383.98
534.246	54033.78
534.447	54990.18
534.648	54443.37
534.849	54711.66
535.05	54328.69
535.251	54611.31
535.451	53738.87
535.652	54529.39
535.853	54414.7
536.054	55049.57
536.255	55074.15
536.456	54193.52
536.657	55051.62
536.857	54080.88
537.058	54721.9
537.259	54887.78
537.46	54537.58
537.66	54705.51
537.861	54818.15
538.062	54785.38
538.263	54857.06
538.463	54455.66
538.664	54541.67
538.865	54773.09
539.065	54775.14
539.266	53962.1
539.466	54930.79
539.667	53976.44
539.868	54832.49
540.068	54381.93
540.269	54463.85
540.469	54754.66
540.67	53968.24
540.87	54226.29
541.071	54498.67
541.271	54273.39
541.472	54267.25
541.672	54093.17
541.873	54140.27
542.073	53661.05
542.274	54580.59
542.474	54457.71
542.675	53781.88
542.875	54902.12
543.075	54312.3
543.276	53476.73
543.476	54531.43
543.676	54007.15
543.877	54599.02
544.077	54435.18
544.277	54152.56
544.478	54111.6
544.678	54140.27
544.878	54046.07
545.078	53886.32
545.279	53589.37
545.479	53890.42
545.679	53943.67
545.879	54021.49
546.079	53773.69
546.28	53759.35
546.48	53767.54
546.68	54087.03
546.88	54011.25
547.08	54187.38
547.28	53865.84
547.48	53239.17
547.68	53376.38
547.88	53302.65
548.081	54234.48
548.281	53736.82
548.481	53560.7
548.681	53980.53
548.881	53765.49
549.081	53857.65
549.28	53398.91
549.48	53898.61
549.68	53005.7
549.88	54291.82
550.08	53427.58
550.28	53677.43
550.48	53411.2
550.68	53550.46
550.88	53489.02
551.08	53935.48
551.279	53720.44
551.479	53202.3
551.679	53144.96
551.879	53038.47
552.079	53562.75
552.278	52923.78
552.478	53341.56
552.678	53194.11
552.878	53392.76
553.077	53380.48
553.277	53149.06
553.477	53681.53
553.676	53206.4
553.876	53165.44
554.076	53030.27
554.275	53060.99
554.475	52483.47
554.674	53245.31
554.874	53357.95
555.074	52622.73
555.273	52981.12
555.473	53321.09
555.672	52901.25
555.872	53130.62
556.071	52745.61
556.271	52501.9
556.47	52753.8
556.67	51869.08
556.869	52415.88
557.068	52391.31
557.268	52223.37
557.467	52479.37
557.667	52311.44
557.866	52395.4
558.065	52227.47
558.265	51918.23
558.464	52069.78
558.663	52225.42
558.863	51455.39
559.062	52655.5
559.261	51391.9
559.461	51834.26
559.66	50965.92
559.859	51549.59
560.058	51383.71
560.258	51580.31
560.457	51451.29
560.656	51580.31
560.855	51252.64
561.054	51432.86
561.253	51166.62
561.453	50965.92
561.652	51416.47
561.851	51203.49
562.05	50472.36
562.249	50380.2
562.448	50875.81
562.647	50740.64
562.846	50777.51
563.045	50640.29
563.244	50388.39
563.443	50599.33
563.642	49829.3
563.841	50570.66
564.04	50017.71
564.239	50611.62
564.438	50015.66
564.637	50392.49
564.836	49982.9
565.035	49307.07
565.234	49526.2
565.432	49714.61
565.631	49182.14
565.83	49581.49
566.029	49081.79
566.228	49010.11
566.427	48649.67
566.625	48938.43
566.824	48879.04
567.023	48997.82
567.222	48053.71
567.42	49167.8
567.619	48381.38
567.818	48170.44
568.016	48293.32
568.215	48424.39
568.414	48197.07
568.612	48707.01
568.811	47984.08
569.01	47969.74
569.208	47259.1
569.407	47982.03
569.605	47244.76
569.804	47570.39
570.002	47017.44
570.201	47273.43
570.4	47300.06
570.598	46601.7
570.797	46839.26
570.995	47103.45
571.193	46497.25
571.392	47363.54
571.59	46224.87
571.789	46403.05
571.987	46038.51
572.186	46525.92
572.384	46011.88
572.582	46177.77
572.781	46185.96
572.979	45512.18
573.177	45921.77
573.376	45913.58
573.574	44899.84
573.772	45616.63
573.971	45239.8
574.169	45221.37
574.367	44566.02
574.565	45094.39
574.763	44938.75
574.962	45045.24
575.16	44480
575.358	44649.99
575.556	44211.72
575.754	44774.91
575.952	43787.79
576.151	44846.59
576.349	43836.94
576.547	43890.19
576.745	43705.87
576.943	44215.82
577.141	43621.91
577.339	43515.41
577.537	43189.78
577.735	43812.37
577.933	42855.96
578.131	43611.67
578.329	42905.12
578.527	42716.7
578.725	43279.89
578.923	43210.26
579.121	42520.1
579.319	42790.43
579.516	42630.69
579.714	42376.74
579.912	42237.48
580.11	42036.78
580.308	41918
580.506	42094.12
580.704	41242.17
580.901	42004.01
581.099	42204.71
581.297	41127.48
581.495	41354.8
581.692	41643.57
581.89	40928.83
582.088	41455.15
582.285	41088.57
582.483	41297.46
582.681	40650.3
582.878	40676.93
583.076	40332.87
583.274	40963.64
583.471	40097.35
583.669	40734.27
583.866	39779.92
584.064	40455.75
584.262	39990.86
584.459	40130.12
584.657	40007.24
584.854	39601.74
585.052	39319.12
585.249	39714.38
585.447	39761.48
585.644	39398.99
585.841	39202.39
586.039	39607.89
586.236	38899.29
586.434	39128.66
586.631	38874.71
586.828	38565.47
587.026	38745.69
587.223	38420.06
587.42	38321.76
587.618	38690.4
587.815	37940.84
588.012	37863.02
588.21	37848.68
588.407	38172.26
588.604	37729.9
588.801	37705.32
588.999	38092.39
589.196	37502.57
589.393	37287.54
589.59	37133.94
589.787	37195.38
589.984	37035.64
590.182	36523.65
590.379	37244.53
590.576	36490.88
590.773	36986.49
590.97	36503.17
591.167	36650.62
591.364	36177.54
591.561	36585.08
591.758	36105.86
591.955	36132.48
592.152	36257.41
592.349	35888.78
592.546	35866.25
592.743	35974.79
592.94	35561.1
593.137	35565.2
593.334	35661.45
593.531	35196.56
593.727	35493.52
593.924	35333.78
594.121	34909.85
594.318	35049.11
594.515	34115.23
594.712	34911.89
594.908	34438.81
595.105	34614.94
595.302	34330.27
595.499	34508.44
595.696	34250.4
595.892	34162.34
596.089	34010.79
596.286	34256.54
596.482	33945.25
596.679	34068.13
596.876	34039.46
597.072	33740.46
597.269	33410.73
597.466	33312.43
597.662	33291.95
597.859	32962.23
598.055	33539.75
598.252	32753.33
598.448	33001.14
598.645	32822.97
598.841	32241.34
599.038	32712.38
599.234	32642.74
599.431	32167.62
599.627	32310.97
599.824	32546.49
600.02	32181.95
600.217	32118.46
600.413	32446.14
600.609	31860.42
600.806	31825.61
601.002	31667.91
601.198	31448.78
601.395	31434.44
601.591	31364.81
601.787	31653.58
601.984	31278.8
602.18	31416.01
602.376	30873.3
602.572	30719.7
602.769	31051.47
602.965	30594.78
603.161	30641.88
603.357	30332.64
603.553	30422.75
603.75	30269.15
603.946	30365.4
604.142	30187.23
604.338	30050.02
604.534	30220
604.73	30070.5
604.926	29695.72
605.122	29753.06
605.318	29761.25
605.514	29288.17
605.71	29370.09
605.906	29413.1
606.102	29490.92
606.298	29464.3
606.494	29388.52
606.69	29173.49
606.886	29105.9
607.082	28833.52
607.278	29105.9
607.474	28262.14
607.67	29013.74
607.866	28585.72
608.062	28647.16
608.257	28632.82
608.453	28653.3
608.649	28694.26
608.845	27995.9
609.041	28511.99
609.236	28387.07
609.432	28339.96
609.628	28176.12
609.824	28479.22
610.019	27821.83
610.215	27981.57
610.411	27852.55
610.606	27811.59
610.802	28126.97
610.998	27815.68
611.193	27895.55
611.389	27666.18
611.584	27598.6
611.78	27483.91
611.976	27842.31
612.171	27709.19
612.367	27713.28
612.562	27397.9
612.758	27193.1
612.953	27268.87
613.149	27559.69
613.344	26898.19
613.539	27447.05
613.735	27109.13
613.93	27182.86
614.126	27043.6
614.321	27375.37
614.517	27258.63
614.712	27014.93
614.907	26791.7
615.103	26869.52
615.298	26537.75
615.493	26799.89
615.688	26310.43
615.884	26914.58
616.079	26554.13
616.274	26545.94
616.47	26513.17
616.665	26341.14
616.86	26212.12
617.055	26259.23
617.25	26007.33
617.445	26287.9
617.641	25765.67
617.836	26175.26
618.031	25741.09
618.226	26150.68
618.421	25653.03
618.616	26109.72
618.811	25546.53
619.006	26093.34
619.201	25560.87
619.396	25607.97
619.591	25210.67
619.786	25247.53
619.981	25284.39
620.176	25519.91
620.371	25120.56
620.566	25167.66
620.761	24852.27
620.956	24905.52
621.151	24549.17
621.346	24674.1
621.541	23916.35
621.735	24610.61
621.93	23897.92
622.125	24137.53
622.32	23502.66
622.515	23625.54
622.709	23744.32
622.904	23572.29
623.099	23308.1
623.294	23285.58
623.488	23131.98
623.683	22996.81
623.878	22839.12
624.072	23099.21
624.267	22880.08
624.462	22800.21
624.656	22163.29
624.851	22464.34
625.046	22189.91
625.24	22271.83
625.435	21731.17
625.629	22024.03
625.824	21792.61
626.018	21933.92
626.213	21428.07
626.407	21815.13
626.602	21096.3
626.796	21442.4
626.991	21479.27
627.185	21258.09
627.38	20866.92
627.574	20653.94
627.768	20510.58
627.963	20680.56
628.157	20473.71
628.352	20438.9
628.546	20221.81
628.74	20330.36
628.935	20283.25
629.129	19935.1
629.323	19861.37
629.517	19785.6
629.712	19867.52
629.906	19740.54
630.1	19277.7
630.294	19474.31
630.489	19330.95
630.683	19333
630.877	18999.18
631.071	18837.39
631.265	18841.48
631.459	18816.91
631.653	18685.84
631.848	18614.16
632.042	18370.45
632.236	18392.98
632.43	18073.49
632.624	18325.4
632.818	18132.89
633.012	17911.71
633.206	17991.58
633.4	17856.41
633.594	17457.06
633.788	17668
633.982	17633.18
634.176	17446.82
634.369	17287.07
634.563	17596.32
634.757	17373.09
634.951	17246.12
635.145	17162.15
635.339	17094.57
635.533	16789.42
635.726	16842.67
635.92	16504.75
636.114	16598.96
636.308	16660.4
636.501	16611.25
636.695	16682.92
636.889	16312.24
637.083	16285.62
637.276	16187.32
637.47	16107.44
637.664	16103.35
637.857	16103.35
638.051	16146.36
638.244	15718.33
638.438	15878.07
638.632	15804.35
638.825	15634.36
639.019	15370.18
639.212	15286.21
639.406	15357.89
639.599	15275.97
639.793	15232.96
639.986	15130.56
640.18	14755.79
640.373	14653.39
640.567	14718.92
640.76	14909.38
640.954	14516.17
641.147	14409.68
641.34	14591.95
641.534	14594
641.727	14491.6
641.92	14264.27
642.114	14174.16
642.307	14122.96
642.5	14131.16
642.694	13873.11
642.887	13758.42
643.08	13991.89
643.273	13989.85
643.467	13670.36
643.66	13502.43
643.853	13637.59
644.046	13252.58
644.239	13692.89
644.432	13357.02
644.626	13506.52
644.819	13008.87
645.012	13049.83
645.205	13068.26
645.398	13137.89
645.591	12836.84
645.784	12670.95
645.977	12834.79
646.17	12664.81
646.363	12632.04
646.556	12842.98
646.749	12670.95
646.942	12675.05
647.135	12478.44
647.328	12507.12
647.521	12093.43
647.714	12173.3
647.907	12306.41
648.099	12029.94
648.292	12132.34
648.485	11991.03
648.678	11816.95
648.871	11939.83
649.064	11757.56
649.256	11853.81
649.449	11991.03
649.642	11503.61
649.835	11581.43
650.027	11323.39
650.22	11401.21
650.413	11304.96
650.605	11204.61
650.798	11370.49
650.991	11298.81
651.183	11134.98
651.376	11175.94
651.568	11071.49
651.761	10915.84
651.954	11001.86
652.146	10725.38
652.339	10700.81
652.531	10768.39
652.724	10684.42
652.916	10534.92
653.109	10645.51
653.301	10592.27
653.494	10373.13
653.686	10385.42
653.879	10567.69
654.071	10436.62
654.263	10297.36
654.456	10248.21
654.648	10399.76
654.84	10020.88
655.033	10065.94
655.225	10065.94
655.417	9930.77
655.61	10143.76
655.802	9762.84
655.994	9902.1
656.186	9859.09
656.379	9783.32
656.571	9654.3
656.763	9642.01
656.955	9553.94
657.148	9521.18
657.34	9420.83
657.532	9300
657.724	9502.75
657.916	9494.55
658.108	9224.22
658.3	9154.59
658.492	9476.12
658.684	9033.76
658.876	9066.53
659.068	8962.08
659.26	9007.14
659.452	9242.65
659.644	9222.17
659.836	8792.1
660.028	8966.18
660.22	8646.69
660.412	8695.85
660.604	8771.62
660.796	8640.55
660.988	8618.02
661.18	8433.71
661.372	8765.48
661.563	8448.04
661.755	8327.21
661.947	8603.69
662.139	8327.21
662.331	8222.77
662.522	8075.31
662.714	8329.26
662.906	8224.81
663.097	7974.96
663.289	8093.74
663.481	7915.57
663.673	8177.71
663.864	7983.15
664.056	7743.54
664.247	7931.95
664.439	7747.64
664.631	7893.04
664.822	7944.24
665.014	7825.46
665.205	7784.5
665.397	7698.49
665.588	7626.81
665.78	7563.32
665.971	7616.57
666.163	7526.46
666.354	7430.2
666.546	7469.11
666.737	7415.87
666.929	7424.06
667.12	7329.85
667.311	7301.18
667.503	7362.62
667.694	7188.54
667.885	7075.9
668.077	7180.35
668.268	6926.4
668.459	6850.63
668.651	7000.13
668.842	7067.71
669.033	6867.01
669.224	6824
669.416	6938.69
669.607	6912.07
669.798	6746.18
669.989	6996.03
670.18	6735.94
670.371	6688.84
670.563	6787.14
670.754	6692.93
670.945	6692.93
671.136	6481.99
671.327	6711.36
671.518	6367.31
671.709	6498.38
671.9	6563.91
672.091	6451.27
672.282	6406.22
672.473	6359.11
672.664	6279.24
672.855	6412.36
673.046	6432.84
673.237	6324.3
673.428	6441.03
673.619	6309.96
673.809	6303.82
674	6133.84
674.191	6291.53
674.382	6232.14
674.573	6289.48
674.764	5970
674.954	6119.5
675.145	5947.47
675.336	5980.24
675.527	5992.53
675.717	5957.71
675.908	5920.85
676.099	5988.43
676.289	5961.81
676.48	5703.76
676.671	5953.62
676.861	5740.63
677.052	5824.59
677.243	5826.64
677.433	5740.63
677.624	5714
677.814	5771.35
678.005	5568.6
678.195	5664.85
678.386	5634.13
678.576	5621.84
678.767	5580.89
678.957	5498.97
679.148	5757.01
679.338	5613.65
679.529	5468.25
679.719	5396.57
679.909	5582.93
680.1	5302.36
680.29	5576.79
680.481	5443.67
680.671	5521.49
680.861	5488.73
681.052	5400.66
681.242	5199.96
681.432	5410.9
681.622	5355.61
681.813	5283.93
682.003	5310.55
682.193	5146.72
682.383	5453.91
682.573	5484.63
682.764	5335.13
682.954	5234.78
683.144	5230.68
683.334	5085.28
683.524	5232.73
683.714	5220.44
683.904	5236.83
684.094	5066.85
684.284	5163.1
684.474	5271.64
684.664	4898.91
684.854	5128.28
685.044	4976.73
685.234	5109.85
685.424	4886.62
685.614	4874.34
685.804	4989.02
685.994	4841.57
686.184	5038.17
686.374	5079.13
686.564	4796.51
686.753	5038.17
686.943	4816.99
687.133	4950.11
687.323	4755.55
687.513	4730.98
687.702	4737.12
687.892	4696.16
688.082	4773.99
688.272	4679.78
688.461	4696.16
688.651	4532.33
688.841	4714.59
689.03	4722.79
689.22	4526.18
689.41	4587.62
689.599	4642.92
689.789	4704.35
689.979	4499.56
690.168	4583.52
690.358	4436.07
690.547	4503.65
690.737	4546.66
690.926	4505.7
691.116	4413.54
691.305	4511.85
691.495	4415.59
691.684	4323.43
691.874	4311.14
692.063	4296.81
692.252	4370.54
692.442	4300.91
692.631	4266.09
692.82	4206.7
693.01	4266.09
693.199	4247.66
693.388	4116.59
693.578	4329.58
693.767	4239.47
693.956	4325.48
694.146	4069.48
694.335	4106.35
694.524	4212.84
694.713	4194.41
694.902	4102.25
695.092	4083.82
695.281	4135.02
695.47	4145.26
695.659	4059.24
695.848	3973.23
696.037	4081.77
696.226	4079.72
696.415	3905.65
696.604	4089.96
696.793	4063.34
696.982	4102.25
697.171	3950.7
697.36	4079.72
697.549	3913.84
697.738	4026.48
697.927	3934.32
698.116	3934.32
698.305	3868.78
698.494	3897.46
698.683	4003.95
698.872	4071.53
699.061	3958.89
699.25	3840.11
699.438	3905.65
699.627	3985.52
699.816	3885.17
700.005	3772.53
700.193	3928.17
700.382	3866.74
700.571	3811.44
700.76	3848.3
700.948	3909.74
701.137	3756.15
701.326	3926.13
701.514	3879.02
701.703	3940.46
701.892	3854.45
702.08	3862.64
702.269	3860.59
702.457	3747.95
702.646	3860.59
702.834	3727.47
703.023	3731.57
703.212	3770.48
703.4	3641.46
703.589	3766.39
703.777	3682.42
703.965	3735.67
704.154	3764.34
704.342	3780.72
704.531	3715.19
704.719	3776.63
704.907	3930.22
705.096	3711.09
705.284	3717.23
705.472	3635.32
705.661	3573.88
705.849	3676.27
706.037	3635.32
706.226	3637.36
706.414	3754.1
706.602	3559.54
706.79	3754.1
706.979	3641.46
707.167	3704.95
707.355	3643.51
707.543	3584.12
707.731	3700.85
707.919	3614.84
708.107	3633.27
708.296	3551.35
708.484	3575.92
708.672	3643.51
708.86	3532.92
709.048	3711.09
709.236	3657.84
709.424	3659.89
709.612	3545.2
709.8	3635.32
709.988	3565.68
710.176	3463.29
710.364	3616.88
710.551	3555.44
710.739	3508.34
710.927	3616.88
711.115	3373.18
711.303	3463.29
711.491	3426.42
711.679	3494.01
711.866	3522.68
712.054	3573.88
712.242	3352.7
712.43	3367.03
712.617	3313.78
712.805	3317.88
712.993	3434.61
713.181	3469.43
713.368	3367.03
713.556	3530.87
713.744	3397.75
713.931	3459.19
714.119	3385.46
714.306	3321.98
714.494	3524.72
714.682	3418.23
714.869	3463.29
715.057	3432.57
715.244	3360.89
715.432	3410.04
715.619	3371.13
715.807	3364.98
715.994	3270.78
716.182	3401.85
716.369	3387.51
716.556	3387.51
716.744	3346.55
716.931	3215.48
717.119	3330.17
717.306	3393.65
717.493	3373.18
717.681	3387.51
717.868	3293.3
718.055	3278.97
718.242	3217.53
718.43	3379.32
718.617	3264.63
718.804	3270.78
718.991	3321.98
719.179	3393.65
719.366	3145.85
719.553	3338.36
719.74	3235.96
719.927	3268.73
720.114	3299.45
720.301	3166.33
720.488	3141.75
720.676	3211.39
720.863	3190.91
721.05	3299.45
721.237	3272.82
721.424	3250.3
721.611	3231.87
721.798	3199.1
721.985	3229.82
722.172	3139.71
722.358	3233.91
722.545	3240.06
722.732	3151.99
722.919	3184.76
723.106	3168.38
723.293	3154.04
723.48	3129.47
723.667	3199.1
723.853	3156.09
724.04	3162.23
724.227	3070.08
724.414	3215.48
724.6	3033.21
724.787	3143.8
724.974	3029.12
725.161	3145.85
725.347	3012.73
725.534	3092.6
725.72	3098.75
725.907	3008.64
726.094	3035.26
726.28	3014.78
726.467	3141.75
726.653	2996.35
726.84	3088.51
727.027	3137.66
727.213	2977.92
727.4	3022.97
727.586	3094.65
727.773	3070.08
727.959	3053.69
728.145	2967.68
728.332	2977.92
728.518	3014.78
728.705	3084.41
728.891	3033.21
729.077	2977.92
729.264	2975.87
729.45	2990.21
729.636	2908.29
729.823	2918.53
730.009	2986.11
730.195	3061.88
730.382	2998.4
730.568	2867.33
730.754	2949.25
730.94	3061.88
731.126	3059.84
731.313	2967.68
731.499	3029.12
731.685	2947.2
731.871	2889.85
732.057	3016.83
732.243	2959.49
732.429	2949.25
732.615	2910.33
732.801	3008.64
732.987	3047.55
733.173	3037.31
733.359	2932.86
733.545	2957.44
733.731	2906.24
733.917	3029.12
734.103	2859.14
734.289	2932.86
734.475	2957.44
734.661	2883.71
734.847	2758.78
735.033	2863.23
735.219	2703.49
735.404	2834.56
735.59	2902.14
735.776	2805.89
735.962	2936.96
736.148	2902.14
736.333	2963.58
736.519	2836.61
736.705	2867.33
736.89	2797.7
737.076	2877.57
737.262	2764.93
737.447	2836.61
737.633	2893.95
737.819	2771.07
738.004	2736.26
738.19	2865.28
738.375	2826.37
738.561	2844.8
738.747	2709.63
738.932	2674.82
739.118	2865.28
739.303	2750.59
739.489	2795.65
739.674	2685.06
739.859	2646.15
740.045	2744.45
740.23	2715.78
740.416	2701.44
740.601	2803.84
740.786	2740.35
740.972	2562.18
741.157	2644.1
741.342	2613.38
741.528	2756.74
741.713	2658.43
741.898	2613.38
742.084	2683.01
742.269	2599.04
742.454	2539.65
742.639	2498.69
742.824	2494.6
743.01	2568.32
743.195	2658.43
743.38	2439.3
743.565	2619.52
743.75	2504.84
743.935	2480.26
744.12	2547.84
744.305	2406.53
744.49	2502.79
744.675	2390.15
744.86	2369.67
745.045	2510.98
745.23	2449.54
745.415	2480.26
745.6	2447.49
745.785	2451.59
745.97	2369.67
746.155	2320.52
746.34	2447.49
746.525	2322.57
746.71	2384.01
746.895	2293.9
747.079	2371.72
747.264	2203.79
747.449	2369.67
747.634	2334.86
747.819	2302.09
748.003	2236.55
748.188	2300.04
748.373	2254.98
748.557	2293.9
748.742	2285.7
748.927	2189.45
749.111	2189.45
749.296	2209.93
749.481	2062.48
749.665	2109.58
749.85	2187.4
750.034	2074.76
750.219	2074.76
750.404	1949.84
750.588	2019.47
750.773	2199.69
750.957	1998.99
751.141	1915.02
751.326	1912.97
751.51	2093.19
751.695	2019.47
751.879	1951.88
752.064	2042
752.248	1958.03
752.432	1939.6
752.617	1974.41
752.801	1955.98
752.985	1843.34
753.17	1884.3
753.354	1888.4
753.538	1800.34
753.722	1800.34
753.907	1874.06
754.091	1781.9
754.275	1704.08
754.459	1699.98
754.643	1845.39
754.828	1806.48
755.012	1759.38
755.196	1724.56
755.38	1755.28
755.564	1800.34
755.748	1730.7
755.932	1712.27
756.116	1673.36
756.3	1609.87
756.484	1644.69
756.668	1605.78
756.852	1626.26
757.036	1661.07
757.22	1699.98
757.404	1589.39
757.588	1601.68
757.772	1581.2
757.956	1630.35
758.14	1558.67
758.323	1437.84
758.507	1538.2
758.691	1552.53
758.875	1558.67
759.059	1476.76
759.242	1560.72
759.426	1491.09
759.61	1441.94
759.794	1443.99
759.977	1443.99
760.161	1568.91
760.345	1511.57
760.528	1464.47
760.712	1480.85
760.895	1448.08
761.079	1425.56
761.263	1368.21
761.446	1411.22
761.63	1419.41
761.813	1370.26
761.997	1419.41
762.18	1341.59
762.364	1374.36
762.547	1355.93
762.731	1362.07
762.914	1310.87
763.098	1327.25
763.281	1241.24
763.464	1274.01
763.648	1271.96
763.831	1349.78
764.015	1298.58
764.198	1329.3
764.381	1138.84
764.564	1321.11
764.748	1319.06
764.931	1288.34
765.114	1249.43
765.297	1235.1
765.481	1304.73
765.664	1312.92
765.847	1224.86
766.03	1124.51
766.213	1218.71
766.397	1210.52
766.58	1210.52
766.763	1292.44
766.946	1271.96
767.129	1231
767.312	1226.9
767.495	1231
767.678	1161.37
767.861	1149.08
768.044	1151.13
768.227	1278.1
768.41	1128.6
768.593	1091.74
768.776	1202.33
768.959	1231
769.142	1122.46
769.324	1085.59
769.507	1067.16
769.69	1099.93
769.873	1181.85
770.056	1165.46
770.239	1058.97
770.421	1157.27
770.604	1120.41
770.787	1054.87
770.97	1091.74
771.152	1046.68
771.335	1079.45
771.518	1005.72
771.7	1020.06
771.883	1099.93
772.066	1044.63
772.248	1095.83
772.431	989.34
772.613	1063.07
772.796	1095.83
772.978	1079.45
773.161	1026.2
773.343	1038.49
773.526	972.96
773.708	1063.07
773.891	993.44
774.073	946.33
774.256	903.32
774.438	1061.02
774.621	993.44
774.803	968.86
774.985	938.14
775.168	950.43
775.35	958.62
775.532	868.51
775.715	845.98
775.897	921.76
776.079	936.09
776.261	891.04
776.444	829.6
776.626	907.42
776.808	940.19
776.99	866.46
777.173	903.32
777.355	868.51
777.537	884.89
777.719	796.83
777.901	833.69
778.083	874.65
778.265	786.59
778.447	798.88
778.629	823.45
778.811	762.02
778.993	829.6
779.175	716.96
779.357	796.83
779.539	749.73
779.721	829.6
779.903	768.16
780.085	798.88
780.267	733.34
780.449	723.1
780.631	719.01
780.812	688.29
780.994	862.37
781.176	694.43
781.358	706.72
781.54	802.97
781.721	704.67
781.903	716.96
782.085	759.97
782.267	710.82
782.448	657.57
782.63	673.95
782.812	676
782.993	592.03
783.175	669.86
783.357	641.18
783.538	596.13
783.72	649.38
783.901	606.37
784.083	575.65
784.264	632.99
784.446	655.52
784.627	596.13
784.809	669.86
784.99	688.29
785.172	622.75
785.353	641.18
785.535	606.37
785.716	596.13
785.897	538.79
786.079	610.47
786.26	577.7
786.441	526.5
786.623	585.89
786.804	495.78
786.985	583.84
787.167	592.03
787.348	620.71
787.529	573.6
787.71	573.6
787.891	538.79
788.073	501.92
788.254	532.64
788.435	487.59
788.616	499.88
788.797	479.4
788.978	573.6
789.159	442.53
789.34	526.5
789.522	469.16
789.703	555.17
789.884	420
790.065	540.83
790.246	483.49
790.427	479.4
790.607	485.54
790.788	485.54
790.969	395.43
791.15	442.53
791.331	403.62
791.512	401.57
791.693	467.11
791.874	442.53
792.054	542.88
792.235	516.26
792.416	417.96
792.597	387.24
792.778	481.44
792.958	467.11
793.139	399.52
793.32	385.19
793.5	436.39
793.681	454.82
793.862	432.29
794.042	442.53
794.223	327.85
794.404	364.71
794.584	424.1
794.765	374.95
794.945	399.52
795.126	413.86
795.306	440.48
795.487	411.81
795.667	385.19
795.848	465.06
796.028	387.24
796.209	401.57
796.389	344.23
796.57	374.95
796.75	340.13
796.93	321.7
797.111	393.38
797.291	471.2
797.471	350.37
797.652	393.38
797.832	387.24
798.012	372.9
798.192	344.23
798.373	346.28
798.553	305.32
798.733	313.51
798.913	313.51
799.093	297.13
799.274	348.33
799.454	321.7
799.634	364.71
799.814	340.13
799.994	440.48
800.174	299.17
800.354	348.33
800.534	405.67
800.714	313.51
800.894	288.93
801.074	288.93
801.254	256.17
801.434	340.13
801.614	278.69
801.794	323.75
801.974	628.9
802.154	252.07
802.334	313.51
802.514	362.66
802.693	286.89
802.873	241.83
803.053	338.09
803.233	313.51
803.413	284.84
803.592	313.51
803.772	282.79
803.952	256.17
804.131	268.45
804.311	329.89
804.491	303.27
804.67	239.78
804.85	295.08
805.03	235.69
805.209	282.79
805.389	280.74
805.568	223.4
805.748	233.64
805.928	295.08
806.107	247.97
806.287	286.89
806.466	305.32
806.646	293.03
806.825	202.92
807.004	200.87
807.184	338.09
807.363	317.61
807.543	284.84
807.722	262.31
807.901	293.03
808.081	272.55
808.26	215.21
808.439	235.69
808.619	239.78
808.798	295.08
808.977	194.73
809.156	239.78
809.336	250.02
809.515	272.55
809.694	231.59
809.873	159.91
810.052	182.44
810.231	207.02
810.411	207.02
810.59	202.92
810.769	258.21
810.948	241.83
811.127	252.07
811.306	305.32
811.485	202.92
811.664	276.65
811.843	211.11
812.022	290.98
812.201	219.3
812.38	262.31
812.559	217.26
812.737	252.07
812.916	164.01
813.095	211.11
813.274	266.41
813.453	213.16
813.632	245.93
813.811	157.86
813.989	153.77
814.168	186.54
814.347	133.29
814.526	202.92
814.704	260.26
814.883	219.3
815.062	149.67
815.24	200.87
815.419	207.02
815.598	170.15
815.776	229.54
815.955	223.4
816.133	176.3
816.312	180.39
816.49	178.34
816.669	215.21
816.847	174.25
817.026	161.96
817.204	168.1
817.383	141.48
817.561	182.44
817.74	102.57
817.918	182.44
818.097	106.67
818.275	155.82
818.453	202.92
818.632	237.74
818.81	141.48
818.988	149.67
819.167	153.77
819.345	170.15
819.523	176.3
819.701	159.91
819.879	192.68
820.058	147.62
820.236	166.06
820.414	176.3
820.592	147.62
820.77	217.26
820.948	213.16
821.127	116.9
821.305	151.72
821.483	123.05
821.661	133.29
821.839	149.67
822.017	141.48
822.195	135.34
822.373	125.1
822.551	84.14
822.729	110.76
822.907	112.81
823.085	268.45
823.262	159.91
823.44	170.15
823.618	192.68
823.796	141.48
823.974	190.63
824.152	129.19
824.329	118.95
824.507	202.92
824.685	104.62
824.863	75.95
825.04	127.14
825.218	266.41
825.396	96.43
825.574	118.95
825.751	102.57
825.929	151.72
826.107	139.43
826.284	157.86
826.462	137.38
826.639	121
826.817	102.57
826.994	145.58
827.172	63.66
827.349	182.44
827.527	77.99
827.704	139.43
827.882	118.95
828.059	157.86
828.237	172.2
828.414	135.34
828.591	108.71
828.769	141.48
828.946	67.75
829.124	164.01
829.301	100.52
829.478	129.19
829.655	176.3
829.833	141.48
830.01	170.15
830.187	149.67
830.364	186.54
830.542	118.95
830.719	77.99
830.896	121
831.073	137.38
831.25	176.3
831.427	164.01
831.604	143.53
831.782	47.27
831.959	143.53
832.136	170.15
832.313	121
832.49	47.27
832.667	88.23
832.844	155.82
833.021	94.38
833.198	188.58
833.374	88.23
833.551	80.04
833.728	178.34
833.905	77.99
834.082	80.04
834.259	71.85
834.436	157.86
834.612	110.76
834.789	129.19
834.966	141.48
835.143	75.95
835.319	174.25
835.496	96.43
835.673	92.33
835.85	168.1
836.026	108.71
836.203	194.73
836.38	110.76
836.556	157.86
836.733	110.76
836.909	172.2
837.086	59.56
837.262	100.52
837.439	73.9
837.616	100.52
837.792	82.09
837.968	77.99
838.145	69.8
838.321	73.9
838.498	59.56
838.674	121
838.851	63.66
839.027	12.46
839.203	82.09
839.38	84.14
839.556	96.43
839.732	104.62
839.909	149.67
840.085	86.19
840.261	47.27
840.437	104.62
840.614	106.67
840.79	159.91
840.966	73.9
841.142	84.14
841.318	65.71
841.494	80.04
841.671	166.06
841.847	63.66
842.023	30.89
842.199	133.29
842.375	100.52
842.551	10.41
842.727	47.27
842.903	112.81
843.079	51.37
843.255	149.67
843.431	28.84
843.607	47.27
843.783	-12.12
843.959	22.7
844.134	88.23
844.31	61.61
844.486	55.47
844.662	90.28
844.838	75.95
845.013	108.71
845.189	123.05
845.365	49.32
845.541	30.89
845.716	133.29
845.892	114.86
846.068	2.22
846.244	2.22
846.419	55.47
846.595	22.7
846.77	88.23
846.946	98.47
847.122	127.14
847.297	10.41
847.473	127.14
847.648	-18.26
847.824	96.43
847.999	59.56
848.175	94.38
848.35	28.84
848.526	118.95
848.701	84.14
848.876	63.66
849.052	67.75
849.227	49.32
849.403	16.55
849.578	102.57
849.753	88.23
849.929	47.27
850.104	51.37
850.279	84.14
850.454	57.51
850.63	43.18
850.805	24.75
850.98	67.75
851.155	84.14
851.33	49.32
851.505	-30.55
851.681	69.8
851.856	41.13
852.031	86.19
852.206	49.32
852.381	8.36
852.556	118.95
852.731	49.32
852.906	123.05
853.081	55.47
853.256	121
853.431	82.09
853.606	-14.17
853.781	-16.21
853.956	77.99
854.131	139.43
854.305	86.19
854.48	71.85
854.655	-42.84
854.83	34.99
855.005	59.56
855.18	51.37
855.354	16.55
855.529	59.56
855.704	24.75
855.879	53.42
856.053	55.47
856.228	86.19
856.403	92.33
856.577	69.8
856.752	65.71
856.926	51.37
857.101	73.9
857.276	86.19
857.45	47.27
857.625	30.89
857.799	82.09
857.974	80.04
858.148	-3.93
858.323	71.85
858.497	-20.31
858.672	108.71
858.846	45.23
859.02	22.7
859.195	4.27
859.369	16.55
859.543	10.41
859.718	49.32
859.892	77.99
860.066	6.31
860.241	164.01
860.415	6.31
860.589	96.43
860.763	39.08
860.938	16.55
861.112	96.43
861.286	73.9
861.46	34.99
861.634	10.41
861.808	8.36
861.982	4.27
862.157	96.43
862.331	51.37
862.505	-30.55
862.679	43.18
862.853	57.51
863.027	26.79
863.201	77.99
863.375	34.99
863.549	20.65
863.722	18.6
863.896	92.33
864.07	65.71
864.244	0.17
864.418	133.29
864.592	22.7
864.766	67.75
864.939	-5.97
865.113	-34.64
865.287	61.61
865.461	-1.88
865.634	67.75
865.808	86.19
865.982	18.6
866.156	84.14
866.329	34.99
866.503	18.6
866.676	73.9
866.85	24.75
867.024	8.36
867.197	59.56
867.371	80.04
867.544	84.14
867.718	-3.93
867.891	22.7
868.065	0.17
868.238	86.19
868.412	96.43
868.585	63.66
868.759	-48.98
868.932	14.51
869.105	0.17
869.279	-18.26
869.452	30.89
869.625	63.66
869.799	-42.84
869.972	12.46
870.145	32.94
870.319	92.33
870.492	67.75
870.665	53.42
870.838	39.08
871.011	24.75
871.185	118.95
871.358	2.22
871.531	41.13
871.704	98.47
871.877	4.27
872.05	-8.02
872.223	39.08
872.396	14.51
872.569	16.55
872.742	-26.45
872.915	30.89
873.088	16.55
873.261	75.95
873.434	37.03
873.607	10.41
873.78	43.18
873.953	-59.22
874.126	-40.79
874.299	41.13
874.471	34.99
874.644	-38.74
874.817	16.55
874.99	100.52
875.163	-18.26
875.335	22.7
875.508	18.6
875.681	39.08
875.853	59.56
876.026	39.08
876.199	51.37
876.371	-3.93
876.544	18.6
876.717	24.75
876.889	69.8
877.062	88.23
877.234	-36.69
877.407	-22.36
877.579	-1.88
877.752	65.71
877.924	0.17
878.097	24.75
878.269	16.55
878.442	16.55
878.614	0.17
878.786	-26.45
878.959	20.65
879.131	43.18
879.303	32.94
879.476	34.99
879.648	12.46
879.82	69.8
879.993	49.32
880.165	80.04
880.337	0.17
880.509	51.37
880.681	0.17
880.854	24.75
881.026	47.27
881.198	10.41
881.37	14.51
881.542	28.84
881.714	30.89
881.886	49.32
882.058	47.27
882.23	39.08
882.402	43.18
882.574	30.89
882.746	10.41
882.918	71.85
883.09	106.67
883.262	82.09
883.434	16.55
883.606	67.75
883.778	41.13
883.95	41.13
884.122	84.14
884.293	39.08
884.465	100.52
884.637	63.66
884.809	22.7
884.98	-22.36
885.152	-40.79
885.324	77.99
885.496	-5.97
885.667	53.42
885.839	47.27
886.011	67.75
886.182	75.95
886.354	34.99
886.525	-36.69
886.697	67.75
886.869	59.56
887.04	0.17
887.212	-34.64
887.383	20.65
887.555	-14.17
887.726	24.75
887.897	14.51
888.069	98.47
888.24	-1.88
888.412	26.79
888.583	59.56
888.754	75.95
888.926	-22.36
889.097	28.84
889.268	71.85
889.44	98.47
889.611	28.84
889.782	10.41
889.953	-1.88
890.125	20.65
890.296	30.89
890.467	-1.88
890.638	16.55
890.809	12.46
890.98	51.37
891.151	-28.5
891.323	98.47
891.494	49.32
891.665	55.47
891.836	26.79
892.007	84.14
892.178	0.17
892.349	-3.93
892.52	-22.36
892.691	45.23
892.862	45.23
893.032	24.75
893.203	8.36
893.374	-30.55
893.545	30.89
893.716	-24.4
893.887	22.7
894.057	77.99
894.228	98.47
894.399	8.36
894.57	14.51
894.74	22.7
894.911	39.08
895.082	55.47
895.253	55.47
895.423	28.84
895.594	20.65
895.764	0.17
895.935	30.89
896.106	14.51
896.276	90.28
896.447	47.27
896.617	32.94
896.788	18.6
896.958	75.95
897.129	8.36
897.299	-10.07
897.47	49.32
897.64	55.47
897.81	18.6
897.981	26.79
898.151	-53.08
898.322	34.99
898.492	28.84
898.662	47.27
898.832	6.31
899.003	88.23
899.173	43.18
899.343	0.17
899.513	39.08
