Data from USB4F104151__180__11-09-31-403.txt Node

Date: Wed Mar 12 11:09:31 EDT 2025
User: louis
Spectrometer: USB4F10415
Trigger mode: 4
Integration Time (sec): 2.000000E-2
Scans to average: 1
Electric dark correction enabled: true
Nonlinearity correction enabled: false
Boxcar width: 0
XAxis mode: Wavelengths
Number of Pixels in Spectrum: 3648
>>>>>Begin Spectral Data<<<<<
178.204	-57.34
178.424	-57.34
178.644	-57.34
178.864	-100.35
179.084	-67.58
179.304	-88.06
179.524	-36.86
179.744	16.38
179.964	10.24
180.184	-12.29
180.404	86.01
180.624	-12.29
180.844	59.39
181.064	-34.82
181.283	36.86
181.503	22.53
181.723	-47.1
181.943	-71.68
182.163	-14.34
182.383	-63.49
182.602	-14.34
182.822	20.48
183.042	20.48
183.262	-55.3
183.482	12.29
183.701	22.53
183.921	18.43
184.141	-38.91
184.361	30.72
184.58	28.67
184.8	-30.72
185.02	-32.77
185.239	-18.43
185.459	32.77
185.679	12.29
185.898	-24.58
186.118	-14.34
186.338	-16.38
186.557	-2.05
186.777	-34.82
186.997	49.15
187.216	-14.34
187.436	32.77
187.655	-18.43
187.875	-6.14
188.095	57.34
188.314	-10.24
188.534	73.73
188.753	-4.1
188.973	-65.53
189.192	51.2
189.412	10.24
189.631	26.62
189.851	24.58
190.07	0
190.29	67.58
190.509	-55.3
190.729	-32.77
190.948	28.67
191.168	100.35
191.387	28.67
191.607	-6.14
191.826	26.62
192.045	-10.24
192.265	6.14
192.484	-49.15
192.704	-45.06
192.923	-67.58
193.142	2.05
193.362	-49.15
193.581	90.11
193.8	-12.29
194.02	100.35
194.239	-16.38
194.458	-67.58
194.678	47.1
194.897	4.1
195.116	12.29
195.335	-59.39
195.555	-77.82
195.774	-38.91
195.993	-26.62
196.212	18.43
196.432	-75.77
196.651	-24.58
196.87	-49.15
197.089	86.01
197.308	20.48
197.528	26.62
197.747	-45.06
197.966	-32.77
198.185	-16.38
198.404	-34.82
198.623	-8.19
198.842	-10.24
199.062	-36.86
199.281	-14.34
199.5	-55.3
199.719	-2.05
199.938	8.19
200.157	20.48
200.376	-16.38
200.595	-6.14
200.814	-98.3
201.033	-86.01
201.252	12.29
201.471	28.67
201.69	2.05
201.909	-28.67
202.128	4.1
202.347	53.25
202.566	-34.82
202.785	10.24
203.004	-16.38
203.223	57.34
203.442	12.29
203.661	-69.63
203.879	24.58
204.098	-14.34
204.317	0
204.536	-6.14
204.755	4.1
204.974	-22.53
205.193	-26.62
205.411	71.68
205.63	-45.06
205.849	-18.43
206.068	10.24
206.287	-45.06
206.505	6.14
206.724	0
206.943	16.38
207.162	-26.62
207.381	2.05
207.599	-43.01
207.818	-6.14
208.037	36.86
208.255	-63.49
208.474	-61.44
208.693	8.19
208.911	24.58
209.13	90.11
209.349	-14.34
209.567	32.77
209.786	69.63
210.005	-18.43
210.223	-4.1
210.442	6.14
210.661	-10.24
210.879	4.1
211.098	12.29
211.316	24.58
211.535	-4.1
211.753	-12.29
211.972	-20.48
212.191	57.34
212.409	34.82
212.628	53.25
212.846	-20.48
213.065	-38.91
213.283	18.43
213.502	-43.01
213.72	0
213.938	20.48
214.157	-28.67
214.375	-32.77
214.594	-6.14
214.812	-4.1
215.031	20.48
215.249	-67.58
215.467	-6.14
215.686	8.19
215.904	0
216.122	-18.43
216.341	20.48
216.559	-49.15
216.778	26.62
216.996	-28.67
217.214	-4.1
217.432	-83.97
217.651	34.82
217.869	-69.63
218.087	-40.96
218.306	-36.86
218.524	-24.58
218.742	73.73
218.96	38.91
219.179	-8.19
219.397	-71.68
219.615	26.62
219.833	8.19
220.051	-34.82
220.27	6.14
220.488	-40.96
220.706	30.72
220.924	16.38
221.142	10.24
221.36	-20.48
221.578	8.19
221.796	-67.58
222.015	14.34
222.233	40.96
222.451	-8.19
222.669	-53.25
222.887	-8.19
223.105	-36.86
223.323	6.14
223.541	-26.62
223.759	12.29
223.977	-65.53
224.195	81.92
224.413	-28.67
224.631	36.86
224.849	-30.72
225.067	57.34
225.285	43.01
225.503	-24.58
225.721	-94.21
225.939	-28.67
226.157	-98.3
226.375	49.15
226.592	-28.67
226.81	57.34
227.028	-16.38
227.246	-6.14
227.464	-24.58
227.682	28.67
227.9	47.1
228.117	-6.14
228.335	36.86
228.553	20.48
228.771	-30.72
228.989	53.25
229.206	-6.14
229.424	4.1
229.642	-36.86
229.86	32.77
230.077	-24.58
230.295	32.77
230.513	47.1
230.731	67.58
230.948	61.44
231.166	-2.05
231.384	-57.34
231.601	-18.43
231.819	51.2
232.037	28.67
232.254	-36.86
232.472	-16.38
232.689	-22.53
232.907	30.72
233.125	-8.19
233.342	-14.34
233.56	14.34
233.777	16.38
233.995	-2.05
234.213	-6.14
234.43	-10.24
234.648	20.48
234.865	-43.01
235.083	6.14
235.3	-10.24
235.518	22.53
235.735	-8.19
235.953	24.58
236.17	-8.19
236.388	-4.1
236.605	-16.38
236.822	26.62
237.04	16.38
237.257	14.34
237.475	-61.44
237.692	10.24
237.909	-69.63
238.127	26.62
238.344	24.58
238.562	38.91
238.779	-2.05
238.996	0
239.214	2.05
239.431	16.38
239.648	-24.58
239.865	-22.53
240.083	8.19
240.3	-18.43
240.517	-12.29
240.735	-55.3
240.952	-12.29
241.169	10.24
241.386	12.29
241.603	-67.58
241.821	75.77
242.038	10.24
242.255	47.1
242.472	-55.3
242.689	-30.72
242.907	4.1
243.124	49.15
243.341	-51.2
243.558	-22.53
243.775	-2.05
243.992	-61.44
244.209	-28.67
244.426	-34.82
244.643	-26.62
244.86	-47.1
245.078	26.62
245.295	-73.73
245.512	61.44
245.729	-40.96
245.946	-57.34
246.163	-8.19
246.38	-20.48
246.597	73.73
246.814	6.14
247.031	-36.86
247.248	18.43
247.464	-24.58
247.681	45.06
247.898	-63.49
248.115	0
248.332	-57.34
248.549	30.72
248.766	8.19
248.983	4.1
249.2	30.72
249.417	16.38
249.633	-45.06
249.85	36.86
250.067	59.39
250.284	-22.53
250.501	-12.29
250.717	77.82
250.934	-79.87
251.151	-96.25
251.368	-51.2
251.585	57.34
251.801	43.01
252.018	4.1
252.235	-38.91
252.451	0
252.668	32.77
252.885	2.05
253.102	18.43
253.318	55.3
253.535	16.38
253.752	-4.1
253.968	-28.67
254.185	-30.72
254.401	-24.58
254.618	59.39
254.835	40.96
255.051	30.72
255.268	6.14
255.484	-32.77
255.701	-6.14
255.917	-14.34
256.134	-4.1
256.351	-18.43
256.567	-45.06
256.784	12.29
257	8.19
257.217	51.2
257.433	102.4
257.65	30.72
257.866	34.82
258.082	-45.06
258.299	-47.1
258.515	28.67
258.732	8.19
258.948	-65.53
259.165	-83.97
259.381	-77.82
259.597	-18.43
259.814	-30.72
260.03	24.58
260.246	-28.67
260.463	24.58
260.679	8.19
260.895	-34.82
261.112	-45.06
261.328	8.19
261.544	-49.15
261.761	51.2
261.977	20.48
262.193	-2.05
262.409	-20.48
262.626	120.83
262.842	20.48
263.058	-45.06
263.274	40.96
263.49	-43.01
263.707	26.62
263.923	45.06
264.139	-59.39
264.355	6.14
264.571	26.62
264.787	65.54
265.004	40.96
265.22	16.38
265.436	-12.29
265.652	-26.62
265.868	49.15
266.084	-36.86
266.3	-59.39
266.516	22.53
266.732	-26.62
266.948	-16.38
267.164	-51.2
267.38	-45.06
267.596	36.86
267.812	112.64
268.028	16.38
268.244	-24.58
268.46	-16.38
268.676	-65.53
268.892	-40.96
269.108	-8.19
269.324	-28.67
269.54	45.06
269.756	61.44
269.972	0
270.188	0
270.403	-47.1
270.619	18.43
270.835	43.01
271.051	-77.82
271.267	-49.15
271.483	-26.62
271.698	26.62
271.914	-49.15
272.13	28.67
272.346	-6.14
272.562	-20.48
272.777	-10.24
272.993	-14.34
273.209	40.96
273.425	-16.38
273.64	-30.72
273.856	20.48
274.072	14.34
274.287	-2.05
274.503	-36.86
274.719	22.53
274.934	20.48
275.15	-45.06
275.366	-2.05
275.581	-49.15
275.797	4.1
276.012	-20.48
276.228	4.1
276.444	-28.67
276.659	24.58
276.875	-36.86
277.09	20.48
277.306	-8.19
277.521	8.19
277.737	47.1
277.952	-22.53
278.168	-53.25
278.383	43.01
278.599	45.06
278.814	-24.58
279.03	55.3
279.245	34.82
279.461	-65.53
279.676	-28.67
279.892	-4.1
280.107	-34.82
280.322	-26.62
280.538	18.43
280.753	-120.83
280.969	61.44
281.184	-38.91
281.399	34.82
281.615	-2.05
281.83	-28.67
282.045	-24.58
282.26	-32.77
282.476	-73.73
282.691	-90.11
282.906	2.05
283.122	-20.48
283.337	-49.15
283.552	0
283.767	-22.53
283.983	38.91
284.198	-18.43
284.413	2.05
284.628	-57.34
284.843	-20.48
285.058	8.19
285.274	61.44
285.489	-55.3
285.704	55.3
285.919	4.1
286.134	40.96
286.349	0
286.564	8.19
286.779	16.38
286.995	4.1
287.21	32.77
287.425	12.29
287.64	8.19
287.855	34.82
288.07	10.24
288.285	22.53
288.5	-14.34
288.715	-20.48
288.93	-8.19
289.145	-32.77
289.36	-53.25
289.575	14.34
289.79	20.48
290.004	20.48
290.219	-28.67
290.434	-10.24
290.649	-122.88
290.864	-49.15
291.079	26.62
291.294	45.06
291.509	-45.06
291.724	-22.53
291.938	16.38
292.153	-8.19
292.368	14.34
292.583	-28.67
292.798	0
293.012	-36.86
293.227	32.77
293.442	-26.62
293.657	-12.29
293.871	-8.19
294.086	18.43
294.301	-10.24
294.516	22.53
294.73	-79.87
294.945	-45.06
295.16	6.14
295.374	28.67
295.589	0
295.804	12.29
296.018	4.1
296.233	47.1
296.447	57.34
296.662	-8.19
296.877	43.01
297.091	-4.1
297.306	-63.49
297.52	-26.62
297.735	-6.14
297.949	-49.15
298.164	45.06
298.378	16.38
298.593	-14.34
298.807	-20.48
299.022	10.24
299.236	0
299.451	-40.96
299.665	-8.19
299.88	-90.11
300.094	0
300.309	-10.24
300.523	45.06
300.737	-36.86
300.952	-24.58
301.166	12.29
301.381	22.53
301.595	-10.24
301.809	-20.48
302.024	-16.38
302.238	-22.53
302.452	24.58
302.667	-49.15
302.881	6.14
303.095	-4.1
303.309	32.77
303.524	8.19
303.738	20.48
303.952	4.1
304.166	-12.29
304.381	-36.86
304.595	57.34
304.809	-40.96
305.023	20.48
305.237	12.29
305.452	18.43
305.666	-77.82
305.88	43.01
306.094	36.86
306.308	2.05
306.522	61.44
306.736	34.82
306.95	49.15
307.164	-86.01
307.379	-47.1
307.593	53.25
307.807	4.1
308.021	0
308.235	30.72
308.449	-43.01
308.663	53.25
308.877	20.48
309.091	-4.1
309.305	-51.2
309.519	-10.24
309.733	22.53
309.947	-38.91
310.161	-12.29
310.374	-49.15
310.588	32.77
310.802	-20.48
311.016	4.1
311.23	34.82
311.444	26.62
311.658	-30.72
311.872	-22.53
312.085	43.01
312.299	20.48
312.513	6.14
312.727	-8.19
312.941	-32.77
313.154	-2.05
313.368	30.72
313.582	-4.1
313.796	45.06
314.009	-2.05
314.223	-47.1
314.437	-16.38
314.651	-4.1
314.864	-10.24
315.078	0
315.292	-67.58
315.505	-53.25
315.719	98.3
315.933	12.29
316.146	36.86
316.36	10.24
316.573	22.53
316.787	4.1
317.001	-16.38
317.214	-88.06
317.428	81.92
317.641	-12.29
317.855	24.58
318.068	-2.05
318.282	24.58
318.495	67.58
318.709	83.97
318.922	20.48
319.136	53.25
319.349	12.29
319.563	0
319.776	20.48
319.99	4.1
320.203	6.14
320.417	-69.63
320.63	-12.29
320.843	61.44
321.057	-32.77
321.27	-18.43
321.483	4.1
321.697	47.1
321.91	40.96
322.124	-90.11
322.337	-32.77
322.55	22.53
322.763	16.38
322.977	-20.48
323.19	-36.86
323.403	-20.48
323.617	-16.38
323.83	38.91
324.043	-28.67
324.256	40.96
324.469	28.67
324.683	4.1
324.896	-4.1
325.109	0
325.322	40.96
325.535	-32.77
325.748	-61.44
325.962	24.58
326.175	14.34
326.388	-40.96
326.601	65.54
326.814	-49.15
327.027	-18.43
327.24	0
327.453	-57.34
327.666	38.91
327.879	24.58
328.092	45.06
328.305	-40.96
328.518	51.2
328.731	14.34
328.944	63.49
329.157	2.05
329.37	24.58
329.583	71.68
329.796	-12.29
330.009	12.29
330.222	-79.87
330.435	8.19
330.648	14.34
330.861	-92.16
331.073	10.24
331.286	53.25
331.499	-43.01
331.712	-4.1
331.925	-8.19
332.138	-28.67
332.35	36.86
332.563	-65.53
332.776	-14.34
332.989	-10.24
333.202	-16.38
333.414	-92.16
333.627	12.29
333.84	8.19
334.053	57.34
334.265	14.34
334.478	-59.39
334.691	-12.29
334.903	-34.82
335.116	-79.87
335.329	20.48
335.541	12.29
335.754	-30.72
335.966	-73.73
336.179	-14.34
336.392	4.1
336.604	40.96
336.817	-2.05
337.029	14.34
337.242	0
337.454	-47.1
337.667	65.54
337.88	28.67
338.092	-14.34
338.305	49.15
338.517	14.34
338.729	36.86
338.942	-18.43
339.154	-18.43
339.367	10.24
339.579	-6.14
339.792	34.82
340.004	49.15
340.217	-22.53
340.429	-45.06
340.641	59.39
340.854	-34.82
341.066	67.58
341.278	-69.63
341.491	0
341.703	-28.67
341.915	20.48
342.128	-32.77
342.34	14.34
342.552	22.53
342.764	10.24
342.977	18.43
343.189	10.24
343.401	-10.24
343.613	-49.15
343.826	-20.48
344.038	-59.39
344.25	-28.67
344.462	-88.06
344.674	-4.1
344.886	-49.15
345.099	10.24
345.311	28.67
345.523	14.34
345.735	-10.24
345.947	12.29
346.159	4.1
346.371	-10.24
346.583	-10.24
346.795	59.39
347.007	32.77
347.219	26.62
347.431	4.1
347.643	59.39
347.855	-32.77
348.067	28.67
348.279	-18.43
348.491	18.43
348.703	8.19
348.915	14.34
349.127	-61.44
349.339	8.19
349.551	-20.48
349.763	47.1
349.975	4.1
350.187	2.05
350.399	-51.2
350.61	-51.2
350.822	40.96
351.034	12.29
351.246	-57.34
351.458	-10.24
351.669	-18.43
351.881	16.38
352.093	40.96
352.305	2.05
352.517	12.29
352.728	63.49
352.94	-6.14
353.152	8.19
353.363	12.29
353.575	-32.77
353.787	61.44
353.999	16.38
354.21	24.58
354.422	16.38
354.633	-36.86
354.845	26.62
355.057	28.67
355.268	-32.77
355.48	47.1
355.692	-34.82
355.903	98.3
356.115	-8.19
356.326	-59.39
356.538	-18.43
356.749	32.77
356.961	12.29
357.172	-51.2
357.384	38.91
357.595	32.77
357.807	22.53
358.018	-8.19
358.23	-22.53
358.441	6.14
358.653	-38.91
358.864	0
359.075	0
359.287	96.25
359.498	63.49
359.709	-16.38
359.921	-14.34
360.132	-45.06
360.344	-14.34
360.555	71.68
360.766	6.14
360.977	14.34
361.189	38.91
361.4	-36.86
361.611	63.49
361.823	-12.29
362.034	4.1
362.245	-49.15
362.456	-36.86
362.667	18.43
362.879	-30.72
363.09	-8.19
363.301	-16.38
363.512	10.24
363.723	14.34
363.935	102.4
364.146	30.72
364.357	45.06
364.568	-73.73
364.779	-24.58
364.99	59.39
365.201	36.86
365.412	34.82
365.623	-36.86
365.834	-4.1
366.045	-67.58
366.256	40.96
366.467	10.24
366.678	-18.43
366.889	-28.67
367.1	2.05
367.311	-2.05
367.522	51.2
367.733	28.67
367.944	36.86
368.155	-55.3
368.366	-2.05
368.577	-20.48
368.788	40.96
368.999	-67.58
369.209	-92.16
369.42	-18.43
369.631	2.05
369.842	4.1
370.053	-22.53
370.264	-12.29
370.474	49.15
370.685	55.3
370.896	94.21
371.107	-4.1
371.317	53.25
371.528	40.96
371.739	22.53
371.95	18.43
372.16	-30.72
372.371	4.1
372.582	4.1
372.792	-57.34
373.003	10.24
373.214	28.67
373.424	-45.06
373.635	-71.68
373.846	69.63
374.056	22.53
374.267	22.53
374.477	20.48
374.688	-55.3
374.898	-34.82
375.109	12.29
375.319	-69.63
375.53	8.19
375.74	45.06
375.951	45.06
376.161	43.01
376.372	-32.77
376.582	-22.53
376.793	24.58
377.003	-30.72
377.214	12.29
377.424	-18.43
377.635	-10.24
377.845	-59.39
378.055	-20.48
378.266	-45.06
378.476	0
378.686	26.62
378.897	-28.67
379.107	45.06
379.317	-32.77
379.528	-45.06
379.738	-12.29
379.948	49.15
380.158	71.68
380.369	8.19
380.579	30.72
380.789	32.77
380.999	-24.58
381.21	16.38
381.42	43.01
381.63	65.54
381.84	-10.24
382.05	-8.19
382.261	10.24
382.471	79.87
382.681	-38.91
382.891	32.77
383.101	0
383.311	-20.48
383.521	4.1
383.731	12.29
383.941	69.63
384.151	43.01
384.361	-45.06
384.571	-10.24
384.781	-22.53
384.991	96.25
385.201	-26.62
385.411	-40.96
385.621	-24.58
385.831	2.05
386.041	8.19
386.251	-4.1
386.461	49.15
386.671	-6.14
386.881	-55.3
387.091	-59.39
387.301	-43.01
387.511	65.54
387.72	24.58
387.93	-28.67
388.14	-45.06
388.35	-24.58
388.56	43.01
388.769	114.69
388.979	36.86
389.189	-40.96
389.399	-53.25
389.609	6.14
389.818	-47.1
390.028	-45.06
390.238	40.96
390.447	-26.62
390.657	43.01
390.867	61.44
391.076	-32.77
391.286	24.58
391.496	-12.29
391.705	-10.24
391.915	43.01
392.125	10.24
392.334	-12.29
392.544	-32.77
392.753	57.34
392.963	34.82
393.172	16.38
393.382	14.34
393.591	51.2
393.801	2.05
394.01	73.73
394.22	65.54
394.429	57.34
394.639	-61.44
394.848	53.25
395.058	-12.29
395.267	28.67
395.477	61.44
395.686	79.87
395.895	55.3
396.105	24.58
396.314	-36.86
396.524	-34.82
396.733	106.49
396.942	57.34
397.152	69.63
397.361	65.54
397.57	98.3
397.78	77.82
397.989	77.82
398.198	32.77
398.407	8.19
398.617	32.77
398.826	65.54
399.035	24.58
399.244	12.29
399.453	90.11
399.663	-14.34
399.872	67.58
400.081	38.91
400.29	96.25
400.499	20.48
400.708	18.43
400.917	32.77
401.127	14.34
401.336	0
401.545	100.35
401.754	24.58
401.963	67.58
402.172	0
402.381	-47.1
402.59	-14.34
402.799	81.92
403.008	-18.43
403.217	88.06
403.426	55.3
403.635	55.3
403.844	53.25
404.053	55.3
404.262	38.91
404.471	77.82
404.68	65.54
404.888	112.64
405.097	63.49
405.306	-45.06
405.515	110.59
405.724	100.35
405.933	102.4
406.142	61.44
406.35	90.11
406.559	88.06
406.768	143.36
406.977	118.78
407.185	108.54
407.394	81.92
407.603	96.25
407.812	98.3
408.02	190.46
408.229	178.17
408.438	102.4
408.646	116.73
408.855	194.56
409.064	116.73
409.272	172.03
409.481	129.02
409.69	98.3
409.898	104.45
410.107	141.31
410.315	167.93
410.524	96.25
410.733	237.56
410.941	112.64
411.15	219.13
411.358	172.03
411.567	202.75
411.775	178.17
411.984	256
412.192	237.56
412.401	192.51
412.609	262.14
412.818	268.28
413.026	282.62
413.234	288.76
413.443	221.18
413.651	331.77
413.86	241.66
414.068	333.82
414.276	292.86
414.485	346.11
414.693	354.3
414.901	380.92
415.11	432.12
415.318	368.63
415.526	344.06
415.734	393.21
415.943	417.79
416.151	522.23
416.359	475.13
416.567	446.46
416.776	518.14
416.984	612.34
417.192	516.09
417.4	542.71
417.608	532.47
417.817	501.75
418.025	641.01
418.233	645.11
418.441	634.87
418.649	700.41
418.857	696.31
419.065	622.58
419.273	837.62
419.481	788.47
419.689	911.35
419.897	796.66
420.105	825.33
420.313	897.01
420.521	835.57
420.729	974.83
420.937	880.63
421.145	1021.94
421.353	1081.33
421.561	1132.53
421.769	1148.91
421.977	1150.96
422.185	1157.1
422.393	1187.82
422.601	1294.32
422.809	1409
423.017	1275.88
423.224	1415.15
423.432	1402.86
423.64	1411.05
423.848	1495.02
424.056	1531.88
424.263	1685.48
424.471	1636.33
424.679	1730.53
424.887	1720.29
425.094	1808.36
425.302	1783.78
425.51	1880.04
425.718	2058.21
425.925	1941.47
426.133	2050.02
426.341	2144.22
426.548	2334.68
426.756	2191.33
426.964	2275.29
427.171	2445.27
427.379	2369.5
427.586	2570.2
427.794	2566.1
428.001	2674.65
428.209	2738.13
428.417	2799.57
428.624	2987.99
428.832	2973.65
429.039	2910.16
429.247	3053.52
429.454	3321.81
429.662	3444.68
429.869	3323.85
430.076	3473.35
430.284	3370.96
430.491	3489.74
430.699	3796.93
430.906	3839.94
431.114	3688.39
431.321	3991.49
431.528	4001.73
431.736	4059.07
431.943	4343.74
432.15	4313.02
432.358	4233.15
432.565	4671.42
432.772	4503.48
432.979	4685.75
433.187	4882.36
433.394	4962.23
433.601	5187.5
433.808	5140.4
434.016	5210.03
434.223	5523.37
434.43	5781.42
434.637	5826.47
434.844	5984.16
435.052	6191.01
435.259	6139.81
435.466	6193.06
435.673	6215.59
435.88	6459.29
436.087	6950.81
436.294	6684.57
436.501	6713.24
436.708	6762.39
436.915	7083.92
437.122	7352.21
437.329	7262.1
437.537	7557
437.743	7810.95
437.95	7614.35
438.157	7980.93
438.364	8290.18
438.571	8322.94
438.778	8245.12
438.985	9170.8
439.192	8744.83
439.399	8929.14
439.606	8615.8
439.813	9359.22
440.02	9897.83
440.227	9600.88
440.433	9629.55
440.64	10061.67
440.847	9813.87
441.054	10217.32
441.261	10633.05
441.467	10864.47
441.674	10721.12
441.881	11169.62
442.088	11104.09
442.294	10991.45
442.501	11575.12
442.708	11446.1
442.914	12056.39
443.121	12525.38
443.328	12230.47
443.534	12992.31
443.741	12756.8
443.948	12769.09
444.154	13506.35
444.361	13381.43
444.568	13602.61
444.774	13637.42
444.981	13633.33
445.187	14198.57
445.394	14587.68
445.6	14239.53
445.807	15763.22
446.013	14999.32
446.22	15546.13
446.426	15998.73
446.633	16203.53
446.839	16439.05
447.046	15871.76
447.252	16940.8
447.459	16846.59
447.665	16760.58
447.871	17383.16
448.078	18448.1
448.284	17233.66
448.491	17731.31
448.697	18521.83
448.903	18761.44
449.11	19013.34
449.316	18618.08
449.522	19197.66
449.728	19683.03
449.935	19355.35
450.141	19762.9
450.347	19914.45
450.553	19478.23
450.76	19644.12
450.966	20211.4
451.172	20119.24
451.378	20348.62
451.584	20139.72
451.791	20661.96
451.997	20494.02
452.203	20897.47
452.409	20813.51
452.615	20799.17
452.821	19916.5
453.027	19857.1
453.233	20790.98
453.44	19883.73
453.646	20135.63
453.852	20377.29
454.058	20729.54
454.264	19881.68
454.47	20270.79
454.676	19830.48
454.882	20618.95
455.088	18925.28
455.294	18675.43
455.5	19322.59
455.705	19709.65
455.911	18411.24
456.117	18278.12
456.323	18028.27
456.529	17383.16
456.735	17934.06
456.941	17254.14
457.147	16967.42
457.352	16662.27
457.558	16477.96
457.764	16348.93
457.97	15894.29
458.176	15824.65
458.381	15777.55
458.587	15017.75
458.793	14870.3
458.999	14051.11
459.204	15175.45
459.41	14944.03
459.616	13858.6
459.821	13743.92
460.027	13682.48
460.233	13332.28
460.438	12742.46
460.644	13100.86
460.85	12287.81
461.055	12212.04
461.261	12183.37
461.466	11155.29
461.672	10825.56
461.878	11665.23
462.083	11059.03
462.289	10958.68
462.494	10420.07
462.7	10157.93
462.905	10010.47
463.111	10282.85
463.316	10284.9
463.522	10159.97
463.727	9938.79
463.932	10145.64
464.138	9746.28
464.343	9953.13
464.549	9717.61
464.754	9926.5
464.959	9875.31
465.165	9895.78
465.37	9639.79
465.575	9160.56
465.781	9443.18
465.986	9748.33
466.191	9217.91
466.397	9158.52
466.602	8597.37
466.807	8865.66
467.012	9078.65
467.218	8755.07
467.423	8796.03
467.628	8937.34
467.833	9142.13
468.038	8820.6
468.244	8566.65
468.449	8787.83
468.654	8667
468.859	8570.75
469.064	8574.85
469.269	8273.79
469.474	8408.96
469.679	8392.58
469.885	8142.72
470.09	8249.22
470.295	8306.56
470.5	8069
470.705	8128.39
470.91	7821.19
471.115	7884.68
471.32	7966.6
471.525	8095.62
471.73	7696.27
471.935	7737.23
472.139	7372.69
472.344	7647.12
472.549	7528.33
472.754	7516.05
472.959	7251.86
473.164	6918.04
473.369	7083.92
473.574	7333.78
473.778	7063.44
473.983	7038.87
474.188	6926.23
474.393	6809.5
474.598	6727.58
474.802	6707.1
475.007	6680.47
475.212	6582.17
475.417	6342.56
475.621	6414.24
475.826	6434.72
476.031	6320.03
476.235	6225.82
476.44	6528.92
476.645	6234.02
476.849	6217.63
477.054	6008.74
477.259	5961.64
477.463	6133.67
477.668	5943.21
477.872	5863.33
478.077	5826.47
478.282	5705.64
478.486	5666.73
478.691	5666.73
478.895	5529.52
479.1	5631.91
479.304	5527.47
479.509	5441.45
479.713	5588.91
479.918	5558.19
480.122	5365.68
480.326	5429.17
480.531	5500.84
480.735	5388.21
480.94	5169.07
481.144	5347.25
481.348	5314.48
481.553	5296.05
481.757	5134.26
481.961	5396.4
482.166	5291.95
482.37	5236.66
482.574	5003.19
482.778	5218.22
482.983	5224.37
483.187	5259.18
483.391	5181.36
483.595	5109.68
483.8	5103.54
484.004	5218.22
484.208	5349.29
484.412	5207.98
484.616	5095.35
484.821	5345.2
485.025	5078.96
485.229	5111.73
485.433	5124.02
485.637	5164.98
485.841	5132.21
486.045	5074.87
486.249	5248.94
486.453	5117.87
486.657	5261.23
486.861	5173.17
487.065	4956.08
487.269	5136.31
487.473	5128.11
487.677	5128.11
487.881	5248.94
488.085	5177.26
488.289	5267.38
488.493	5199.79
488.697	5310.38
488.901	5185.46
489.105	5210.03
489.309	5369.77
489.512	5167.03
489.716	5240.75
489.92	5289.9
490.124	5214.13
490.328	5136.31
490.531	5255.09
490.735	5242.8
490.939	5263.28
491.143	5359.53
491.346	5189.55
491.55	5433.26
491.754	5552.04
491.958	5373.87
492.161	5377.97
492.365	5521.32
492.569	5513.13
492.772	5425.07
492.976	5441.45
493.18	5539.76
493.383	5791.66
493.587	5564.33
493.79	5740.46
493.994	5531.56
494.197	5715.88
494.401	5699.5
494.605	5805.99
494.808	5902.25
495.012	5973.92
495.215	5808.04
495.419	5873.57
495.622	5959.59
495.825	5955.49
496.029	5814.18
496.232	6203.3
496.436	6027.17
496.639	6234.02
496.843	6305.7
497.046	6238.11
497.249	6393.76
497.453	6619.03
497.656	6459.29
497.859	6594.46
498.063	6688.67
498.266	6729.63
498.469	6682.52
498.673	6854.55
498.876	6875.03
499.079	6967.19
499.282	6948.76
499.485	7102.36
499.689	7026.58
499.892	7325.58
500.095	7417.74
500.298	7223.19
500.501	7286.67
500.705	7446.41
500.908	7718.79
501.111	7753.61
501.314	7759.75
501.517	7917.45
501.72	7960.45
501.923	7823.24
502.126	8140.68
502.329	8331.14
502.532	8257.41
502.735	8376.19
502.938	8441.73
503.141	8722.3
503.344	8884.09
503.547	8736.63
503.75	8925.05
503.953	8726.39
504.156	9232.24
504.359	9158.52
504.562	9189.24
504.765	9480.05
504.968	9510.77
505.17	9715.56
505.373	9586.54
505.576	9889.64
505.779	9901.93
505.982	9721.71
506.185	10178.4
506.387	10254.18
506.59	10370.91
506.793	10551.14
506.996	10344.29
507.198	10737.5
507.401	10616.67
507.604	10852.19
507.807	11030.36
508.009	11188.05
508.212	11099.99
508.415	11460.43
508.617	11437.91
508.82	11632.46
509.022	11464.53
509.225	11685.71
509.428	12025.67
509.63	12029.77
509.833	12025.67
510.035	12246.85
510.238	12226.37
510.44	12713.79
510.643	12605.25
510.845	12963.64
511.048	12779.33
511.25	13160.25
511.453	13100.86
511.655	13614.9
511.858	13313.84
512.06	13502.26
512.262	13766.45
512.465	13659.95
512.667	13831.98
512.87	13809.45
513.072	14061.35
513.274	14427.94
513.477	14665.5
513.679	14710.56
513.881	14638.88
514.084	14935.84
514.286	15093.53
514.488	15038.23
514.69	15392.53
514.893	15951.63
515.095	15759.12
515.297	15855.37
515.499	15824.65
515.701	16080.65
515.904	16258.82
516.106	16154.38
516.308	16805.63
516.51	16916.22
516.712	16957.18
516.914	16989.95
517.116	17325.82
517.318	17133.31
517.52	17135.35
517.722	17604.34
517.925	18015.98
518.127	17989.36
518.329	18288.36
518.531	18063.08
518.733	18474.73
518.935	18597.6
519.136	18759.39
519.338	19076.83
519.54	18847.46
519.742	19343.06
519.944	19209.95
520.146	19633.88
520.348	19816.15
520.55	20051.66
520.752	19842.77
520.954	20571.85
521.155	20068.05
521.357	20496.07
521.559	20539.08
521.761	20848.32
521.963	21124.8
522.164	21145.28
522.366	21339.83
522.568	21563.06
522.77	21415.61
522.971	21884.59
523.173	21505.72
523.375	21786.29
523.576	22126.25
523.778	22394.54
523.98	22619.81
524.181	22886.05
524.383	22720.17
524.584	23117.47
524.786	22873.76
524.988	23045.79
525.189	23203.49
525.391	23469.72
525.592	23502.49
525.794	23938.71
525.995	23703.19
526.197	23846.55
526.398	23991.95
526.6	24002.19
526.801	24405.64
527.003	24317.58
527.204	24456.84
527.406	24684.17
527.607	24698.5
527.808	24819.33
528.01	24651.4
528.211	24862.34
528.412	25114.24
528.614	25480.83
528.815	25056.9
529.016	25558.65
529.218	25360
529.419	25218.69
529.62	25478.78
529.822	25575.03
530.023	25337.47
530.224	25575.03
530.425	25788.02
530.626	25538.17
530.828	25687.67
531.029	26541.67
531.23	26052.21
531.431	26027.63
531.632	26068.59
531.833	25919.09
532.035	26082.93
532.236	26160.75
532.437	26293.87
532.638	26351.21
532.839	26496.62
533.04	26246.77
533.241	26216.05
533.442	26515.05
533.643	26355.31
533.844	26435.18
534.045	26680.94
534.246	26138.23
534.447	26461.8
534.648	26578.54
534.849	26635.88
535.05	26728.04
535.251	26517.1
535.451	26660.46
535.652	26633.83
535.853	26619.5
536.054	26828.39
536.255	26732.14
536.456	26115.7
536.657	27051.62
536.857	26531.44
537.058	26504.81
537.259	26850.92
537.46	26738.28
537.66	26553.96
537.861	26590.83
538.062	26517.1
538.263	26691.18
538.463	26433.13
538.664	26658.41
538.865	27022.95
539.065	26793.58
539.266	26572.39
539.466	27268.7
539.667	26494.57
539.868	26990.18
540.068	26816.1
540.269	26725.99
540.469	26863.21
540.67	26664.55
540.87	26691.18
541.071	26576.49
541.271	26701.42
541.472	26908.26
541.672	26349.17
541.873	26650.22
542.073	26267.25
542.274	27035.24
542.474	26715.75
542.675	26353.26
542.875	26842.73
543.075	26680.94
543.276	26398.32
543.476	26881.64
543.676	26566.25
543.877	26934.88
544.077	26496.62
544.277	26723.94
544.478	26486.38
544.678	27240.03
544.878	26529.39
545.078	26613.35
545.279	26605.16
545.479	26347.12
545.679	26642.03
545.879	26701.42
546.079	26891.88
546.28	26533.48
546.48	26578.54
546.68	26740.33
546.88	26594.92
547.08	26347.12
547.28	26568.3
547.48	26240.62
547.68	26504.81
547.88	26412.65
548.081	26730.09
548.281	26334.83
548.481	26416.75
548.681	26781.29
548.881	26500.72
549.081	26357.36
549.28	26195.57
549.48	26728.04
549.68	26621.55
549.88	27057.76
550.08	26111.6
550.28	26494.57
550.48	26400.37
550.68	26635.88
550.88	26314.35
551.08	26179.18
551.279	26596.97
551.479	26420.84
551.679	26433.13
551.879	26396.27
552.079	26500.72
552.278	26377.84
552.478	26480.24
552.678	26480.24
552.878	26312.3
553.077	26168.94
553.277	26113.65
553.477	26340.97
553.676	26197.62
553.876	26187.38
554.076	26105.46
554.275	26248.82
554.475	26013.3
554.674	26050.16
554.874	26216.05
555.074	26093.17
555.273	26252.91
555.473	26142.32
555.672	25896.56
555.872	26119.79
556.071	25964.15
556.271	26328.69
556.47	25753.21
556.67	25601.66
556.869	25642.62
557.068	25851.51
557.268	25468.54
557.467	25730.68
557.667	25648.76
557.866	25855.61
558.065	25742.97
558.265	25458.3
558.464	25468.54
558.663	25605.75
558.863	25161.34
559.062	25800.31
559.261	25411.2
559.461	25556.6
559.66	25210.5
559.859	25181.82
560.058	24972.93
560.258	25183.87
560.457	25054.85
560.656	25321.09
560.855	25067.14
561.054	25042.56
561.253	24759.94
561.453	25175.68
561.652	24833.67
561.851	25142.91
562.05	24508.04
562.249	24495.75
562.448	24925.83
562.647	24864.39
562.846	24632.97
563.045	24505.99
563.244	24290.96
563.443	24645.26
563.642	23916.18
563.841	24323.72
564.04	24028.82
564.239	24227.47
564.438	24049.3
564.637	23969.43
564.836	23928.47
565.035	23649.94
565.234	23940.75
565.432	23719.57
565.631	23703.19
565.83	23854.74
566.029	23735.96
566.228	23664.28
566.427	23692.95
566.625	23187.1
566.824	23352.99
567.023	23525.02
567.222	23092.9
567.42	23424.67
567.619	23330.46
567.818	23144.09
568.016	23183.01
568.215	23441.05
568.414	23176.86
568.612	23125.66
568.811	22847.14
569.01	22939.3
569.208	22353.58
569.407	22984.35
569.605	22314.67
569.804	22652.58
570.002	22144.69
570.201	22458.03
570.4	22245.04
570.598	22089.39
570.797	21837.49
570.995	22058.67
571.193	21651.13
571.392	22101.68
571.59	21675.7
571.789	22242.99
571.987	21407.42
572.186	21823.15
572.384	21802.68
572.582	21804.72
572.781	21544.63
572.979	21198.52
573.177	21292.73
573.376	21415.61
573.574	21231.29
573.772	21214.91
573.971	21108.41
574.169	21065.41
574.367	20784.83
574.565	21003.97
574.763	20651.72
574.962	20758.21
575.16	20432.58
575.358	20833.99
575.556	20410.06
575.754	20752.07
575.952	20377.29
576.151	20616.9
576.349	20246.22
576.547	20414.15
576.745	20494.02
576.943	20354.76
577.141	20244.17
577.339	20043.47
577.537	20276.94
577.735	19914.45
577.933	19893.97
578.131	20008.65
578.329	19529.43
578.527	19758.8
578.725	19650.26
578.923	19691.22
579.121	19818.19
579.319	19683.03
579.516	19392.22
579.714	19431.13
579.912	19193.56
580.11	19166.94
580.308	19324.63
580.506	19085.02
580.704	19039.97
580.901	18749.15
581.099	19152.6
581.297	18974.43
581.495	18837.22
581.692	18947.81
581.89	18745.06
582.088	18724.58
582.285	18790.11
582.483	18826.98
582.681	18515.69
582.878	18501.35
583.076	18542.31
583.274	18284.26
583.471	18616.04
583.669	18177.77
583.866	18271.98
584.064	18417.38
584.262	17925.87
584.459	18386.66
584.657	17778.42
584.854	18202.35
585.052	17815.28
585.249	17950.45
585.447	17895.15
585.644	17733.36
585.841	17594.1
586.039	17610.48
586.236	17684.21
586.434	17458.93
586.631	17549.04
586.828	17360.63
587.026	17381.11
587.223	17393.4
587.42	17403.64
587.618	17379.06
587.815	17188.6
588.012	17420.02
588.21	17256.18
588.407	17463.03
588.604	17073.92
588.801	17024.76
588.999	16959.23
589.196	16852.73
589.393	16684.8
589.59	16662.27
589.787	16748.29
589.984	16727.81
590.182	16506.63
590.379	16688.9
590.576	16449.28
590.773	16643.84
590.97	16467.72
591.167	16441.09
591.364	16264.97
591.561	16332.55
591.758	16113.42
591.955	16355.08
592.152	16535.3
592.349	16041.74
592.546	16197.38
592.743	15838.99
592.94	15691.54
593.137	16084.75
593.334	16049.93
593.531	15922.96
593.727	15703.82
593.924	15730.45
594.121	15746.83
594.318	15709.97
594.515	15327
594.712	15451.92
594.908	15435.54
595.105	15488.79
595.302	15224.6
595.499	15433.49
595.696	15283.99
595.892	15273.75
596.089	15474.45
596.286	15124.25
596.482	15197.98
596.679	15107.87
596.876	14984.99
597.072	15005.47
597.269	14954.27
597.466	14632.74
597.662	14649.12
597.859	14884.64
598.055	14878.49
598.252	14681.89
598.448	14939.93
598.645	14681.89
598.841	14186.28
599.038	14597.92
599.234	14450.47
599.431	14497.57
599.627	14489.38
599.824	14565.15
600.02	14384.93
600.217	14208.81
600.413	14032.68
600.609	14137.13
600.806	14346.02
601.002	14004.01
601.198	14036.78
601.395	13971.24
601.591	13795.12
601.787	13881.13
601.984	13840.17
602.18	14047.02
602.376	13776.69
602.572	13481.78
602.769	13752.11
602.965	13614.9
603.161	13666.1
603.357	13623.09
603.553	13733.68
603.75	13317.94
603.946	13451.06
604.142	13598.51
604.338	12992.31
604.534	13330.23
604.73	13104.95
604.926	13166.39
605.122	13162.3
605.318	13076.28
605.514	13027.13
605.71	13066.04
605.906	12877.63
606.102	12795.71
606.298	12916.54
606.494	12828.48
606.69	12953.4
606.886	12967.74
607.082	12810.04
607.278	12721.98
607.474	12529.47
607.67	12615.49
607.866	12427.07
608.062	12691.26
608.257	12779.33
608.453	12435.27
608.649	12609.34
608.845	12545.86
609.041	12646.21
609.236	12431.17
609.432	12578.62
609.628	12388.16
609.824	12142.41
610.019	12064.58
610.215	12328.77
610.411	12255.05
610.606	12087.11
610.802	12087.11
610.998	12099.4
611.193	12072.78
611.389	12091.21
611.584	12146.5
611.78	11968.33
611.976	11986.76
612.171	11986.76
612.367	11857.74
612.562	12044.1
612.758	11741
612.953	11937.61
613.149	11876.17
613.344	11855.69
613.539	12027.72
613.735	11667.28
613.93	11839.31
614.126	11476.82
614.321	11796.3
614.517	11712.33
614.712	11648.85
614.907	11616.08
615.103	11747.15
615.298	11589.46
615.493	11624.27
615.688	11267.92
615.884	11478.86
616.079	11165.53
616.274	11550.54
616.47	11685.71
616.665	11525.97
616.86	11368.27
617.055	11413.33
617.25	11450.19
617.445	11454.29
617.641	11173.72
617.836	11308.88
618.031	11118.42
618.226	11091.8
618.421	11247.44
618.616	11173.72
618.811	11018.07
619.006	11206.49
619.201	10803.04
619.396	10930.01
619.591	10866.52
619.786	10690.4
619.981	10745.69
620.176	10805.08
620.371	10483.55
620.566	10559.33
620.761	10565.47
620.956	10741.6
621.151	10592.09
621.346	10637.15
621.541	10469.22
621.735	10358.63
621.93	10133.35
622.125	10293.09
622.32	10114.92
622.515	10254.18
622.709	9961.32
622.904	10194.79
623.099	9887.59
623.294	10026.85
623.488	9838.44
623.683	9736.04
623.878	9699.18
624.072	9711.47
624.267	9977.7
624.462	9695.08
624.656	9541.49
624.851	9752.43
625.046	9480.05
625.24	9600.88
625.435	9387.89
625.629	9547.63
625.824	9396.08
626.018	9193.33
626.213	9250.67
626.407	9269.11
626.602	8994.68
626.796	9092.98
626.991	9047.93
627.185	8902.52
627.38	8875.9
627.574	8998.77
627.768	8912.76
627.963	8734.59
628.157	8849.27
628.352	8863.61
628.546	8566.65
628.74	8857.46
628.935	8550.27
629.129	8456.06
629.323	8423.3
629.517	8408.96
629.712	8441.73
629.906	8279.94
630.1	8245.12
630.294	8263.55
630.489	8288.13
630.683	8345.47
630.877	7974.79
631.071	8060.8
631.265	7964.55
631.459	7892.87
631.653	7778.19
631.848	8011.65
632.042	8044.42
632.236	7917.45
632.43	7659.4
632.624	7827.34
632.818	7726.99
633.012	7509.9
633.206	7710.6
633.4	7657.36
633.594	7503.76
633.788	7536.52
633.982	7335.82
634.176	7708.55
634.369	7399.31
634.563	7360.4
634.757	7194.51
634.951	7487.37
635.145	7088.02
635.339	7067.54
635.533	7174.03
635.726	7387.02
635.92	7118.74
636.114	7204.75
636.308	7055.25
636.501	6981.53
636.695	6936.47
636.889	6901.65
637.083	6965.14
637.276	6868.89
637.47	6776.73
637.664	6883.22
637.857	6811.54
638.051	6662.04
638.244	6522.78
638.438	6672.28
638.632	6551.45
638.825	6416.29
639.019	6502.3
639.212	6338.46
639.406	6473.63
639.599	6320.03
639.793	6242.21
639.986	6330.27
640.18	6293.41
640.373	6260.64
640.567	6115.23
640.76	6234.02
640.954	6021.03
641.147	6049.7
641.34	6094.75
641.534	5928.87
641.727	6127.52
641.92	6037.41
642.114	5951.4
642.307	5844.9
642.5	5924.77
642.694	5869.48
642.887	5699.5
643.08	5715.88
643.273	5808.04
643.467	5783.46
643.66	5564.33
643.853	5789.61
644.046	5607.34
644.239	5603.24
644.432	5412.78
644.626	5519.28
644.819	5560.24
645.012	5449.64
645.205	5492.65
645.398	5302.19
645.591	5388.21
645.784	5369.77
645.977	5279.66
646.17	5201.84
646.363	5287.86
646.556	5183.41
646.749	5367.73
646.942	5314.48
647.135	5142.45
647.328	5357.49
647.521	5068.72
647.714	5085.11
647.907	5072.82
648.099	4962.23
648.292	5087.15
648.485	4951.99
648.678	4779.96
648.871	5021.62
649.064	4872.12
649.256	4810.68
649.449	4827.06
649.642	4857.78
649.835	4716.47
650.027	4708.28
650.22	4698.04
650.413	4734.9
650.605	4542.39
650.798	4650.94
650.991	4689.85
651.183	4581.31
651.376	4450.24
651.568	4636.6
651.761	4413.37
651.954	4558.78
652.146	4485.05
652.339	4315.07
652.531	4493.24
652.724	4321.21
652.916	4386.75
653.109	4321.21
653.301	4392.89
653.494	4353.98
653.686	4247.49
653.879	4263.87
654.071	4167.62
654.263	4214.72
654.456	4196.29
654.648	4233.15
654.84	4016.07
655.033	4063.17
655.225	4227.01
655.417	4026.31
655.61	4163.52
655.802	4163.52
655.994	4063.17
656.186	4140.99
656.379	3971.01
656.571	3956.68
656.763	3964.87
656.955	3907.52
657.148	3948.48
657.34	3841.99
657.532	3829.7
657.724	3762.12
657.916	3885
658.108	3702.73
658.3	3766.21
658.492	3784.65
658.684	3753.93
658.876	3925.96
659.068	3692.49
659.26	3692.49
659.452	3551.18
659.644	3651.53
659.836	3542.99
660.028	3688.39
660.22	3467.21
660.412	3530.7
660.604	3559.37
660.796	3616.71
660.988	3604.42
661.18	3465.16
661.372	3436.49
661.563	3411.92
661.755	3499.98
661.947	3393.48
662.139	3497.93
662.331	3469.26
662.522	3420.11
662.714	3317.71
662.906	3391.44
663.097	3362.76
663.289	3323.85
663.481	3231.69
663.673	3379.15
663.864	3272.65
664.056	3276.75
664.247	3366.86
664.439	3291.09
664.631	3307.47
664.822	3143.63
665.014	3135.44
665.205	3170.26
665.397	3151.82
665.588	3200.98
665.78	3098.58
665.971	3074
666.163	3094.48
666.354	3125.2
666.546	3084.24
666.737	3102.67
666.929	3047.38
667.12	3178.45
667.311	3123.15
667.503	3069.91
667.694	2975.7
667.885	3018.71
668.077	2897.88
668.268	2992.08
668.459	2826.2
668.651	2836.44
668.842	2850.77
669.033	2947.03
669.224	2842.58
669.416	2873.3
669.607	2793.43
669.798	2813.91
669.989	2981.84
670.18	2828.24
670.371	2734.04
670.563	2703.32
670.754	2801.62
670.945	2678.74
671.136	2877.4
671.327	2869.2
671.518	2707.41
671.709	2648.02
671.9	2639.83
672.091	2824.15
672.282	2686.93
672.473	2652.12
672.664	2672.6
672.855	2678.74
673.046	2731.99
673.237	2697.17
673.428	2580.44
673.619	2666.46
673.809	2666.46
674	2633.69
674.191	2680.79
674.382	2592.73
674.573	2568.15
674.764	2625.5
674.954	2605.02
675.145	2549.72
675.336	2504.67
675.527	2533.34
675.717	2605.02
675.908	2619.35
676.099	2504.67
676.289	2594.78
676.48	2482.14
676.671	2496.47
676.861	2480.09
677.052	2547.67
677.243	2471.9
677.433	2512.86
677.624	2478.04
677.814	2502.62
678.005	2519
678.195	2557.91
678.386	2510.81
678.576	2549.72
678.767	2365.4
678.957	2392.03
679.148	2539.48
679.338	2416.6
679.529	2412.51
679.719	2547.67
679.909	2467.8
680.1	2430.94
680.29	2314.2
680.481	2426.84
680.671	2437.08
680.861	2342.88
681.052	2383.84
681.242	2408.41
681.432	2383.84
681.622	2322.4
681.813	2287.58
682.003	2338.78
682.193	2318.3
682.383	2379.74
682.573	2428.89
682.764	2377.69
682.954	2254.81
683.144	2254.81
683.334	2373.6
683.524	2287.58
683.714	2422.75
683.904	2277.34
684.094	2203.61
684.284	2463.71
684.474	2428.89
684.664	2344.92
684.854	2301.92
685.044	2414.56
685.234	2220
685.424	2185.18
685.614	2303.96
685.804	2260.96
685.994	2191.33
686.184	2248.67
686.374	2303.96
686.564	2260.96
686.753	2156.51
686.943	2117.6
687.133	2265.05
687.323	2146.27
687.513	2236.38
687.702	2146.27
687.892	2138.08
688.082	2035.68
688.272	2248.67
688.461	2174.94
688.651	2283.49
688.841	2160.61
689.03	2045.92
689.22	2117.6
689.41	1976.29
689.599	2103.26
689.789	1986.53
689.979	2099.17
690.168	2101.22
690.358	2150.37
690.547	2127.84
690.737	2084.83
690.926	2039.78
691.116	1968.1
691.305	2090.98
691.495	1994.72
691.684	2072.54
691.874	2101.22
692.063	2084.83
692.252	1980.39
692.442	2021.35
692.631	1964
692.82	1949.67
693.01	1927.14
693.199	1976.29
693.388	1925.09
693.578	1933.28
693.767	1871.84
693.956	1912.8
694.146	1867.75
694.335	1900.52
694.524	1912.8
694.713	1966.05
694.902	1820.64
695.092	1828.84
695.281	1808.36
695.47	1847.27
695.659	1914.85
695.848	1896.42
696.037	1845.22
696.226	1923.04
696.415	1902.56
696.604	1890.28
696.793	1785.83
696.982	1859.56
697.171	1863.65
697.36	1861.6
697.549	1890.28
697.738	1931.23
697.927	1802.21
698.116	1890.28
698.305	1845.22
698.494	1935.33
698.683	1898.47
698.872	1863.65
699.061	1851.36
699.25	1841.12
699.438	1814.5
699.627	1744.87
699.816	1916.9
700.005	1880.04
700.193	1867.75
700.382	1877.99
700.571	1820.64
700.76	1968.1
700.948	1834.98
701.137	1855.46
701.326	1957.86
701.514	1824.74
701.703	1916.9
701.892	1785.83
702.08	1900.52
702.269	1931.23
702.457	1830.88
702.646	1779.68
702.834	1798.12
703.023	1855.46
703.212	1867.75
703.4	1945.57
703.589	1855.46
703.777	1810.4
703.965	1941.47
704.154	1863.65
704.342	1794.02
704.531	1863.65
704.719	1783.78
704.907	1837.03
705.096	1902.56
705.284	1818.6
705.472	1863.65
705.661	1898.47
705.849	1896.42
706.037	1826.79
706.226	1892.32
706.414	1718.25
706.602	1779.68
706.79	1927.14
706.979	1855.46
707.167	1849.32
707.355	1857.51
707.543	1896.42
707.731	1914.85
707.919	1900.52
708.107	1853.41
708.296	1820.64
708.484	1927.14
708.672	1824.74
708.86	1931.23
709.048	1740.77
709.236	1824.74
709.424	1849.32
709.612	1841.12
709.8	1886.18
709.988	1896.42
710.176	1964
710.364	1841.12
710.551	1806.31
710.739	1828.84
710.927	1947.62
711.115	1826.79
711.303	1918.95
711.491	1896.42
711.679	1818.6
711.866	1710.05
712.054	1820.64
712.242	1873.89
712.43	1908.71
712.617	1769.44
712.805	1890.28
712.993	1781.73
713.181	1810.4
713.368	1701.86
713.556	1880.04
713.744	1753.06
713.931	1914.85
714.119	1843.17
714.306	1937.38
714.494	1908.71
714.682	1812.45
714.869	1783.78
715.057	1853.41
715.244	1841.12
715.432	1941.47
715.619	1875.94
715.807	1775.59
715.994	1923.04
716.182	1812.45
716.369	1781.73
716.556	1796.07
716.744	1785.83
716.931	1808.36
717.119	1832.93
717.306	1945.57
717.493	1920.99
717.681	1845.22
717.868	1871.84
718.055	1810.4
718.242	1824.74
718.43	1777.64
718.617	1896.42
718.804	1949.67
718.991	1875.94
719.179	1902.56
719.366	1959.91
719.553	1863.65
719.74	1820.64
719.927	1867.75
720.114	1857.51
720.301	1794.02
720.488	1890.28
720.676	1877.99
720.863	1820.64
721.05	1789.92
721.237	1925.09
721.424	1849.32
721.611	1812.45
721.798	1902.56
721.985	1828.84
722.172	1904.61
722.358	1847.27
722.545	1834.98
722.732	1779.68
722.919	1828.84
723.106	1869.8
723.293	1857.51
723.48	1816.55
723.667	1812.45
723.853	1800.16
724.04	1769.44
724.227	1918.95
724.414	1763.3
724.6	1796.07
724.787	1751.01
724.974	1781.73
725.161	1814.5
725.347	1826.79
725.534	1820.64
725.72	1857.51
725.907	1916.9
726.094	1853.41
726.28	1787.88
726.467	1884.13
726.653	1861.6
726.84	1830.88
727.027	1880.04
727.213	1800.16
727.4	1769.44
727.586	1738.73
727.773	1857.51
727.959	1785.83
728.145	1804.26
728.332	1904.61
728.518	1920.99
728.705	1910.75
728.891	1777.64
729.077	1886.18
729.264	1861.6
729.45	1845.22
729.636	1867.75
729.823	1929.19
730.009	1863.65
730.195	1906.66
730.382	1824.74
730.568	1900.52
730.754	1951.71
730.94	1796.07
731.126	1865.7
731.313	1775.59
731.499	1847.27
731.685	1863.65
731.871	1849.32
732.057	1900.52
732.243	1845.22
732.429	1800.16
732.615	1859.56
732.801	1720.29
732.987	1875.94
733.173	1671.14
733.359	1767.4
733.545	1818.6
733.731	1771.49
733.917	1822.69
734.103	1839.08
734.289	1855.46
734.475	1761.25
734.661	1937.38
734.847	1802.21
735.033	1837.03
735.219	1843.17
735.404	1794.02
735.59	1896.42
735.776	1871.84
735.962	1783.78
736.148	1761.25
736.333	1830.88
736.519	1722.34
736.705	1806.31
736.89	1867.75
737.076	1765.35
737.262	1736.68
737.447	1701.86
737.633	1701.86
737.819	1804.26
738.004	1839.08
738.19	1812.45
738.375	1755.11
738.561	1863.65
738.747	1738.73
738.932	1654.76
739.118	1744.87
739.303	1759.21
739.489	1847.27
739.674	1804.26
739.859	1791.97
740.045	1744.87
740.23	1701.86
740.416	1648.61
740.601	1849.32
740.786	1728.49
740.972	1705.96
741.157	1652.71
741.342	1728.49
741.528	1642.47
741.713	1830.88
741.898	1716.2
742.084	1720.29
742.269	1683.43
742.454	1671.14
742.639	1728.49
742.824	1726.44
743.01	1677.29
743.195	1656.81
743.38	1675.24
743.565	1675.24
743.75	1660.9
743.935	1587.18
744.12	1617.9
744.305	1523.69
744.49	1564.65
744.675	1556.46
744.86	1589.22
745.045	1619.94
745.23	1482.73
745.415	1628.14
745.6	1628.14
745.785	1503.21
745.97	1636.33
746.155	1593.32
746.34	1503.21
746.525	1574.89
746.71	1628.14
746.895	1505.26
747.079	1447.91
747.264	1535.98
747.449	1546.22
747.634	1531.88
747.819	1419.24
748.003	1468.39
748.188	1454.06
748.373	1452.01
748.557	1445.87
748.742	1380.33
748.927	1359.85
749.111	1359.85
749.296	1384.43
749.481	1259.5
749.665	1325.04
749.85	1406.95
750.034	1322.99
750.219	1372.14
750.404	1413.1
750.588	1263.6
750.773	1322.99
750.957	1277.93
751.141	1273.84
751.326	1335.28
751.51	1239.02
751.695	1353.71
751.879	1130.48
752.064	1339.37
752.248	1263.6
752.432	1290.22
752.617	1314.8
752.801	1265.64
752.985	1198.06
753.17	1208.3
753.354	1224.69
753.538	1222.64
753.722	1236.97
753.907	1142.77
754.091	1200.11
754.275	1185.77
754.459	1159.15
754.643	1148.91
754.828	1163.25
755.012	1110
755.196	1103.86
755.38	1114.1
755.564	1026.03
755.748	1122.29
755.932	1095.66
756.116	1126.38
756.3	1130.48
756.484	1005.55
756.668	1114.1
756.852	1091.57
757.036	894.96
757.22	1032.18
757.404	1034.22
757.588	1021.94
757.772	1021.94
757.956	1015.79
758.14	1019.89
758.323	974.83
758.507	1056.75
758.691	997.36
758.875	978.93
759.059	942.07
759.242	980.98
759.426	1085.42
759.61	978.93
759.794	954.35
759.977	968.69
760.161	960.5
760.345	944.11
760.528	909.3
760.712	933.87
760.895	952.31
761.079	892.91
761.263	753.65
761.446	845.81
761.63	913.39
761.813	972.79
761.997	862.19
762.18	839.67
762.364	835.57
762.547	899.06
762.731	876.53
762.914	790.52
763.098	819.19
763.281	833.52
763.464	843.76
763.648	886.77
763.831	761.84
764.015	839.67
764.198	827.38
764.381	794.61
764.564	827.38
764.748	753.65
764.931	804.85
765.114	776.18
765.297	909.3
765.481	780.28
765.664	831.48
765.847	737.27
766.03	819.19
766.213	819.19
766.397	784.37
766.58	800.76
766.763	813.04
766.946	774.13
767.129	731.12
767.312	714.74
767.495	753.65
767.678	743.41
767.861	831.48
768.044	786.42
768.227	716.79
768.41	757.75
768.593	790.52
768.776	811
768.959	700.41
769.142	780.28
769.324	774.13
769.507	804.85
769.69	718.84
769.873	751.6
770.056	684.02
770.239	692.21
770.421	735.22
770.604	735.22
770.787	630.77
770.97	628.73
771.152	655.35
771.335	634.87
771.518	624.63
771.7	704.5
771.883	720.88
772.066	808.95
772.248	724.98
772.431	641.01
772.613	675.83
772.796	675.83
772.978	655.35
773.161	675.83
773.343	659.45
773.526	647.16
773.708	628.73
773.891	589.82
774.073	677.88
774.256	643.06
774.438	622.58
774.621	548.86
774.803	606.2
774.985	604.15
775.168	681.97
775.35	602.1
775.532	589.82
775.715	610.29
775.897	538.62
776.079	546.81
776.261	540.66
776.444	555
776.626	583.67
776.808	507.9
776.99	487.42
777.173	636.92
777.355	573.43
777.537	536.57
777.719	413.69
777.901	526.33
778.083	458.75
778.265	538.62
778.447	468.98
778.629	450.55
778.811	522.23
778.993	534.52
779.175	491.51
779.357	526.33
779.539	532.47
779.721	505.85
779.903	538.62
780.085	458.75
780.267	491.51
780.449	448.51
780.631	483.32
780.812	538.62
780.994	493.56
781.176	489.46
781.358	434.17
781.54	405.5
781.721	448.51
781.903	460.79
782.085	468.98
782.267	516.09
782.448	475.13
782.63	454.65
782.812	421.88
782.993	380.92
783.175	442.36
783.357	477.18
783.538	417.79
783.72	403.45
783.901	356.35
784.083	325.63
784.264	428.03
784.446	348.15
784.627	331.77
784.809	397.31
784.99	372.73
785.172	360.44
785.353	403.45
785.535	309.24
785.716	307.2
785.897	344.06
786.079	329.72
786.26	368.63
786.441	385.02
786.623	366.59
786.804	272.38
786.985	321.53
787.167	333.82
787.348	360.44
787.529	325.63
787.71	319.48
787.891	389.11
788.073	204.8
788.254	356.35
788.435	253.95
788.616	358.39
788.797	262.14
788.978	294.91
789.159	327.68
789.34	350.2
789.522	317.44
789.703	284.67
789.884	270.33
790.065	323.58
790.246	303.1
790.427	249.85
790.607	288.76
790.788	278.52
790.969	233.47
791.15	258.04
791.331	172.03
791.512	299
791.693	305.15
791.874	294.91
792.054	286.72
792.235	235.52
792.416	290.81
792.597	249.85
792.778	165.89
792.958	284.67
793.139	198.65
793.32	268.28
793.5	188.41
793.681	292.86
793.862	210.94
794.042	266.24
794.223	167.93
794.404	227.32
794.584	165.89
794.765	296.96
794.945	237.56
795.126	276.48
795.306	247.8
795.487	184.32
795.667	266.24
795.848	176.13
796.028	274.43
796.209	233.47
796.389	217.08
796.57	92.16
796.75	159.74
796.93	208.89
797.111	188.41
797.291	202.75
797.471	233.47
797.652	188.41
797.832	217.08
798.012	167.93
798.192	184.32
798.373	157.69
798.553	153.6
798.733	169.98
798.913	139.26
799.093	180.22
799.274	100.35
799.454	223.23
799.634	176.13
799.814	253.95
799.994	247.8
800.174	210.94
800.354	231.42
800.534	102.4
800.714	247.8
800.894	131.07
801.074	219.13
801.254	151.55
801.434	194.56
801.614	167.93
801.794	221.18
801.974	538.62
802.154	116.73
802.334	217.08
802.514	212.99
802.693	165.89
802.873	139.26
803.053	182.27
803.233	208.89
803.413	182.27
803.592	188.41
803.772	143.36
803.952	108.54
804.131	161.79
804.311	198.65
804.491	178.17
804.67	172.03
804.85	139.26
805.03	149.5
805.209	225.28
805.389	147.45
805.568	163.84
805.748	110.59
805.928	161.79
806.107	186.37
806.287	153.6
806.466	129.02
806.646	147.45
806.825	169.98
807.004	126.97
807.184	129.02
807.363	116.73
807.543	122.88
807.722	163.84
807.901	133.12
808.081	137.21
808.26	90.11
808.439	131.07
808.619	157.69
808.798	131.07
808.977	133.12
809.156	163.84
809.336	133.12
809.515	184.32
809.694	118.78
809.873	114.69
810.052	176.13
810.231	161.79
810.411	198.65
810.59	129.02
810.769	100.35
810.948	139.26
811.127	26.62
811.306	100.35
811.485	73.73
811.664	165.89
811.843	53.25
812.022	122.88
812.201	63.49
812.38	110.59
812.559	100.35
812.737	169.98
812.916	102.4
813.095	61.44
813.274	98.3
813.453	104.45
813.632	104.45
813.811	116.73
813.989	133.12
814.168	81.92
814.347	16.38
814.526	77.82
814.704	159.74
814.883	114.69
815.062	131.07
815.24	63.49
815.419	61.44
815.598	90.11
815.776	40.96
815.955	108.54
816.133	-43.01
816.312	65.54
816.49	65.54
816.669	71.68
816.847	143.36
817.026	108.54
817.204	135.17
817.383	45.06
817.561	100.35
817.74	100.35
817.918	73.73
818.097	69.63
818.275	38.91
818.453	40.96
818.632	90.11
818.81	51.2
818.988	120.83
819.167	12.29
819.345	79.87
819.523	51.2
819.701	43.01
819.879	108.54
820.058	135.17
820.236	36.86
820.414	90.11
820.592	40.96
820.77	61.44
820.948	124.93
821.127	36.86
821.305	79.87
821.483	57.34
821.661	172.03
821.839	71.68
822.017	51.2
822.195	49.15
822.373	32.77
822.551	55.3
822.729	110.59
822.907	71.68
823.085	51.2
823.262	75.77
823.44	55.3
823.618	69.63
823.796	55.3
823.974	61.44
824.152	106.49
824.329	167.93
824.507	118.78
824.685	65.54
824.863	49.15
825.04	34.82
825.218	81.92
825.396	71.68
825.574	16.38
825.751	40.96
825.929	114.69
826.107	77.82
826.284	55.3
826.462	104.45
826.639	28.67
826.817	16.38
826.994	67.58
827.172	79.87
827.349	65.54
827.527	24.58
827.704	75.77
827.882	49.15
828.059	61.44
828.237	36.86
828.414	83.97
828.591	-8.19
828.769	59.39
828.946	-45.06
829.124	47.1
829.301	16.38
829.478	63.49
829.655	-10.24
829.833	106.49
830.01	81.92
830.187	75.77
830.364	159.74
830.542	65.54
830.719	26.62
830.896	34.82
831.073	59.39
831.25	86.01
831.427	-2.05
831.604	38.91
831.782	16.38
831.959	22.53
832.136	24.58
832.313	71.68
832.49	28.67
832.667	8.19
832.844	30.72
833.021	6.14
833.198	49.15
833.374	28.67
833.551	-67.58
833.728	6.14
833.905	92.16
834.082	-14.34
834.259	63.49
834.436	65.54
834.612	73.73
834.789	63.49
834.966	61.44
835.143	24.58
835.319	-28.67
835.496	83.97
835.673	75.77
835.85	34.82
836.026	-26.62
836.203	34.82
836.38	77.82
836.556	32.77
836.733	55.3
836.909	63.49
837.086	4.1
837.262	-55.3
837.439	-30.72
837.616	-20.48
837.792	16.38
837.968	53.25
838.145	-49.15
838.321	63.49
838.498	81.92
838.674	-16.38
838.851	43.01
839.027	40.96
839.203	53.25
839.38	34.82
839.556	24.58
839.732	20.48
839.909	98.3
840.085	43.01
840.261	-16.38
840.437	63.49
840.614	-59.39
840.79	14.34
840.966	2.05
841.142	47.1
841.318	55.3
841.494	34.82
841.671	32.77
841.847	2.05
842.023	-14.34
842.199	69.63
842.375	53.25
842.551	-16.38
842.727	57.34
842.903	38.91
843.079	16.38
843.255	8.19
843.431	-61.44
843.607	-14.34
843.783	-49.15
843.959	102.4
844.134	-10.24
844.31	51.2
844.486	77.82
844.662	-36.86
844.838	57.34
845.013	-38.91
845.189	22.53
845.365	6.14
845.541	-38.91
845.716	55.3
845.892	-30.72
846.068	79.87
846.244	-51.2
846.419	55.3
846.595	43.01
846.77	-51.2
846.946	-24.58
847.122	-49.15
847.297	-24.58
847.473	34.82
847.648	20.48
847.824	67.58
847.999	34.82
848.175	73.73
848.35	43.01
848.526	12.29
848.701	22.53
848.876	14.34
849.052	61.44
849.227	-24.58
849.403	34.82
849.578	12.29
849.753	-22.53
849.929	38.91
850.104	4.1
850.279	63.49
850.454	-20.48
850.63	77.82
850.805	-8.19
850.98	22.53
851.155	49.15
851.33	20.48
851.505	16.38
851.681	114.69
851.856	6.14
852.031	0
852.206	-53.25
852.381	-47.1
852.556	18.43
852.731	-2.05
852.906	61.44
853.081	4.1
853.256	20.48
853.431	-43.01
853.606	12.29
853.781	20.48
853.956	-73.73
854.131	-36.86
854.305	-57.34
854.48	-32.77
854.655	-14.34
854.83	86.01
855.005	32.77
855.18	-4.1
855.354	-67.58
855.529	8.19
855.704	8.19
855.879	96.25
856.053	-43.01
856.228	28.67
856.403	0
856.577	24.58
856.752	-24.58
856.926	-8.19
857.101	-20.48
857.276	4.1
857.45	-4.1
857.625	43.01
857.799	-32.77
857.974	-12.29
858.148	-65.53
858.323	0
858.497	6.14
858.672	12.29
858.846	-12.29
859.02	34.82
859.195	20.48
859.369	-32.77
859.543	16.38
859.718	-45.06
859.892	10.24
860.066	77.82
860.241	-45.06
860.415	-28.67
860.589	4.1
860.763	0
860.938	-75.77
861.112	63.49
861.286	-26.62
861.46	-36.86
861.634	-28.67
861.808	8.19
861.982	-32.77
862.157	12.29
862.331	-4.1
862.505	-30.72
862.679	-47.1
862.853	-14.34
863.027	-73.73
863.201	57.34
863.375	-26.62
863.549	-32.77
863.722	-22.53
863.896	47.1
864.07	-53.25
864.244	-8.19
864.418	14.34
864.592	-24.58
864.766	32.77
864.939	-8.19
865.113	24.58
865.287	71.68
865.461	-61.44
865.634	20.48
865.808	16.38
865.982	-20.48
866.156	24.58
866.329	-61.44
866.503	-14.34
866.676	45.06
866.85	71.68
867.024	-14.34
867.197	22.53
867.371	-14.34
867.544	-110.59
867.718	-12.29
867.891	18.43
868.065	-36.86
868.238	-2.05
868.412	94.21
868.585	-18.43
868.759	-71.68
868.932	-30.72
869.105	-71.68
869.279	-24.58
869.452	-61.44
869.625	-55.3
869.799	10.24
869.972	-40.96
870.145	-47.1
870.319	-43.01
870.492	-10.24
870.665	-30.72
870.838	-36.86
871.011	-61.44
871.185	24.58
871.358	12.29
871.531	18.43
871.704	-55.3
871.877	24.58
872.05	-49.15
872.223	26.62
872.396	-36.86
872.569	-24.58
872.742	-6.14
872.915	20.48
873.088	-2.05
873.261	6.14
873.434	-26.62
873.607	-16.38
873.78	-2.05
873.953	-26.62
874.126	-36.86
874.299	22.53
874.471	-49.15
874.644	12.29
874.817	6.14
874.99	-4.1
875.163	24.58
875.335	-28.67
875.508	16.38
875.681	-10.24
875.853	-28.67
876.026	-77.82
876.199	-65.53
876.371	-8.19
876.544	-12.29
876.717	-47.1
876.889	-75.77
877.062	-34.82
877.234	-4.1
877.407	-40.96
877.579	28.67
877.752	4.1
877.924	0
878.097	-36.86
878.269	-16.38
878.442	24.58
878.614	24.58
878.786	81.92
878.959	40.96
879.131	16.38
879.303	-36.86
879.476	-94.21
879.648	28.67
879.82	-51.2
879.993	-32.77
880.165	0
880.337	-53.25
880.509	47.1
880.681	-106.49
880.854	-16.38
881.026	28.67
881.198	-12.29
881.37	-65.53
881.542	-49.15
881.714	-69.63
881.886	-32.77
882.058	43.01
882.23	24.58
882.402	57.34
882.574	-100.35
882.746	6.14
882.918	-28.67
883.09	-55.3
883.262	-67.58
883.434	-98.3
883.606	-40.96
883.778	-24.58
883.95	-38.91
884.122	30.72
884.293	0
884.465	55.3
884.637	8.19
884.809	-24.58
884.98	-67.58
885.152	-32.77
885.324	-61.44
885.496	59.39
885.667	-20.48
885.839	10.24
886.011	16.38
886.182	30.72
886.354	34.82
886.525	-22.53
886.697	45.06
886.869	43.01
887.04	-59.39
887.212	-12.29
887.383	53.25
887.555	-18.43
887.726	-73.73
887.897	-53.25
888.069	-28.67
888.24	-20.48
888.412	12.29
888.583	-14.34
888.754	75.77
888.926	14.34
889.097	-12.29
889.268	-38.91
889.44	-2.05
889.611	20.48
889.782	20.48
889.953	-28.67
890.125	-20.48
890.296	-59.39
890.467	-36.86
890.638	-51.2
890.809	-96.25
890.98	-24.58
891.151	65.54
891.323	40.96
891.494	69.63
891.665	-12.29
891.836	-16.38
892.007	24.58
892.178	0
892.349	-45.06
892.52	-38.91
892.691	4.1
892.862	-43.01
893.032	-53.25
893.203	-8.19
893.374	-51.2
893.545	22.53
893.716	-43.01
893.887	-65.53
894.057	-69.63
894.228	-2.05
894.399	-38.91
894.57	16.38
894.74	-6.14
894.911	40.96
895.082	0
895.253	-43.01
895.423	30.72
895.594	0
895.764	43.01
895.935	-88.06
896.106	-106.49
896.276	-30.72
896.447	-45.06
896.617	-36.86
896.788	-2.05
896.958	-32.77
897.129	18.43
897.299	-71.68
897.47	-24.58
897.64	38.91
897.81	-108.54
897.981	57.34
898.151	26.62
898.322	-55.3
898.492	-53.25
898.662	-73.73
898.832	-71.68
899.003	6.14
899.173	-12.29
899.343	22.53
899.513	47.1
