Data from USB4F104151__33__11-05-15-451.txt Node

Date: Wed Mar 12 11:05:15 EDT 2025
User: louis
Spectrometer: USB4F10415
Trigger mode: 4
Integration Time (sec): 2.000000E-2
Scans to average: 1
Electric dark correction enabled: true
Nonlinearity correction enabled: false
Boxcar width: 0
XAxis mode: Wavelengths
Number of Pixels in Spectrum: 3648
>>>>>Begin Spectral Data<<<<<
178.204	-62.8
178.424	-62.8
178.644	-62.8
178.864	-111.96
179.084	-30.04
179.304	25.26
179.524	-21.85
179.744	29.35
179.964	-42.32
180.184	17.07
180.404	49.83
180.624	6.83
180.844	-25.94
181.064	25.26
181.283	-62.8
181.503	-34.13
181.723	33.45
181.943	-9.56
182.163	43.69
182.383	47.79
182.602	-1.37
182.822	4.78
183.042	62.12
183.262	55.98
183.482	21.16
183.701	-7.51
183.921	96.94
184.141	-17.75
184.361	58.03
184.58	80.55
184.8	-1.37
185.02	0.68
185.239	15.02
185.459	51.88
185.679	25.26
185.898	60.07
186.118	8.87
186.338	21.16
186.557	33.45
186.777	31.4
186.997	4.78
187.216	-13.65
187.436	78.51
187.655	51.88
187.875	53.93
188.095	27.31
188.314	72.36
188.534	25.26
188.753	58.03
188.973	6.83
189.192	15.02
189.412	27.31
189.631	-9.56
189.851	10.92
190.07	25.26
190.29	47.79
190.509	-75.09
190.729	27.31
190.948	68.27
191.168	172.71
191.387	64.17
191.607	-38.23
191.826	64.17
192.045	45.74
192.265	47.79
192.484	47.79
192.704	-11.61
192.923	66.22
193.142	35.5
193.362	60.07
193.581	49.83
193.8	-50.52
194.02	58.03
194.239	17.07
194.458	10.92
194.678	66.22
194.897	2.73
195.116	43.69
195.335	6.83
195.555	8.87
195.774	62.12
195.993	37.55
196.212	39.59
196.432	53.93
196.651	47.79
196.87	-3.41
197.089	35.5
197.308	21.16
197.528	31.4
197.747	4.78
197.966	78.51
198.185	17.07
198.404	-7.51
198.623	10.92
198.842	35.5
199.062	-3.41
199.281	10.92
199.5	-5.46
199.719	17.07
199.938	17.07
200.157	29.35
200.376	6.83
200.595	6.83
200.814	111.27
201.033	39.59
201.252	49.83
201.471	4.78
201.69	49.83
201.909	64.17
202.128	17.07
202.347	82.6
202.566	86.7
202.785	41.64
203.004	53.93
203.223	72.36
203.442	31.4
203.661	15.02
203.879	76.46
204.098	78.51
204.317	6.83
204.536	70.31
204.755	37.55
204.974	64.17
205.193	-54.61
205.411	-9.56
205.63	-27.99
205.849	64.17
206.068	12.97
206.287	68.27
206.505	55.98
206.724	12.97
206.943	70.31
207.162	-15.7
207.381	-68.95
207.599	45.74
207.818	31.4
208.037	-44.37
208.255	10.92
208.474	23.21
208.693	45.74
208.911	33.45
209.13	39.59
209.349	72.36
209.567	80.55
209.786	43.69
210.005	33.45
210.223	19.11
210.442	31.4
210.661	-58.71
210.879	39.59
211.098	90.79
211.316	-3.41
211.535	53.93
211.753	21.16
211.972	70.31
212.191	-7.51
212.409	39.59
212.628	96.94
212.846	45.74
213.065	39.59
213.283	62.12
213.502	-38.23
213.72	39.59
213.938	51.88
214.157	-3.41
214.375	64.17
214.594	-40.28
214.812	-5.46
215.031	6.83
215.249	23.21
215.467	35.5
215.686	21.16
215.904	12.97
216.122	43.69
216.341	19.11
216.559	-5.46
216.778	27.31
216.996	17.07
217.214	-21.85
217.432	-25.94
217.651	12.97
217.869	58.03
218.087	15.02
218.306	45.74
218.524	-30.04
218.742	15.02
218.96	86.7
219.179	6.83
219.397	2.73
219.615	86.7
219.833	-27.99
220.051	-9.56
220.27	98.99
220.488	43.69
220.706	-48.47
220.924	-21.85
221.142	-7.51
221.36	10.92
221.578	-17.75
221.796	45.74
222.015	15.02
222.233	31.4
222.451	98.99
222.669	-38.23
222.887	68.27
223.105	-56.66
223.323	-5.46
223.541	2.73
223.759	76.46
223.977	6.83
224.195	23.21
224.413	45.74
224.631	17.07
224.849	58.03
225.067	31.4
225.285	47.79
225.503	35.5
225.721	68.27
225.939	62.12
226.157	55.98
226.375	78.51
226.592	19.11
226.81	15.02
227.028	-62.8
227.246	84.65
227.464	45.74
227.682	47.79
227.9	-7.51
228.117	15.02
228.335	55.98
228.553	-21.85
228.771	43.69
228.989	15.02
229.206	51.88
229.424	72.36
229.642	101.03
229.86	-5.46
230.077	-9.56
230.295	2.73
230.513	64.17
230.731	72.36
230.948	-3.41
231.166	74.41
231.384	62.12
231.601	21.16
231.819	53.93
232.037	6.83
232.254	37.55
232.472	43.69
232.689	-103.76
232.907	55.98
233.125	-30.04
233.342	86.7
233.56	12.97
233.777	41.64
233.995	19.11
234.213	76.46
234.43	33.45
234.648	68.27
234.865	6.83
235.083	105.13
235.3	27.31
235.518	84.65
235.735	80.55
235.953	19.11
236.17	101.03
236.388	17.07
236.605	41.64
236.822	70.31
237.04	60.07
237.257	45.74
237.475	-13.65
237.692	10.92
237.909	64.17
238.127	12.97
238.344	62.12
238.562	72.36
238.779	-15.7
238.996	39.59
239.214	-3.41
239.431	66.22
239.648	12.97
239.865	19.11
240.083	-13.65
240.3	-25.94
240.517	101.03
240.735	-3.41
240.952	84.65
241.169	90.79
241.386	2.73
241.603	84.65
241.821	-25.94
242.038	68.27
242.255	53.93
242.472	2.73
242.689	51.88
242.907	55.98
243.124	74.41
243.341	-7.51
243.558	33.45
243.775	25.26
243.992	21.16
244.209	29.35
244.426	90.79
244.643	19.11
244.86	-17.75
245.078	-56.66
245.295	33.45
245.512	121.51
245.729	-21.85
245.946	10.92
246.163	41.64
246.38	49.83
246.597	0.68
246.814	37.55
247.031	80.55
247.248	51.88
247.464	47.79
247.681	121.51
247.898	80.55
248.115	72.36
248.332	23.21
248.549	121.51
248.766	94.89
248.983	125.61
249.2	33.45
249.417	2.73
249.633	43.69
249.85	39.59
250.067	15.02
250.284	31.4
250.501	2.73
250.717	8.87
250.934	78.51
251.151	58.03
251.368	21.16
251.585	-9.56
251.801	45.74
252.018	-5.46
252.235	90.79
252.451	31.4
252.668	6.83
252.885	0.68
253.102	70.31
253.318	49.83
253.535	31.4
253.752	31.4
253.968	103.08
254.185	29.35
254.401	35.5
254.618	45.74
254.835	60.07
255.051	88.75
255.268	84.65
255.484	43.69
255.701	35.5
255.917	27.31
256.134	55.98
256.351	41.64
256.567	15.02
256.784	-7.51
257	23.21
257.217	17.07
257.433	96.94
257.65	80.55
257.866	47.79
258.082	-11.61
258.299	-30.04
258.515	53.93
258.732	-27.99
258.948	12.97
259.165	60.07
259.381	-3.41
259.597	33.45
259.814	15.02
260.03	-11.61
260.246	8.87
260.463	88.75
260.679	53.93
260.895	10.92
261.112	64.17
261.328	35.5
261.544	41.64
261.761	123.56
261.977	6.83
262.193	-27.99
262.409	76.46
262.626	21.16
262.842	-42.32
263.058	-46.42
263.274	111.27
263.49	-36.18
263.707	70.31
263.923	123.56
264.139	47.79
264.355	27.31
264.571	43.69
264.787	51.88
265.004	92.84
265.22	2.73
265.436	-25.94
265.652	8.87
265.868	-19.8
266.084	2.73
266.3	45.74
266.516	-25.94
266.732	74.41
266.948	31.4
267.164	64.17
267.38	39.59
267.596	64.17
267.812	88.75
268.028	27.31
268.244	-50.52
268.46	49.83
268.676	62.12
268.892	51.88
269.108	-3.41
269.324	39.59
269.54	21.16
269.756	68.27
269.972	-9.56
270.188	92.84
270.403	-21.85
270.619	2.73
270.835	-11.61
271.051	49.83
271.267	58.03
271.483	33.45
271.698	23.21
271.914	6.83
272.13	47.79
272.346	25.26
272.562	27.31
272.777	37.55
272.993	-36.18
273.209	15.02
273.425	45.74
273.64	8.87
273.856	0.68
274.072	-15.7
274.287	41.64
274.503	47.79
274.719	66.22
274.934	68.27
275.15	-19.8
275.366	33.45
275.581	-19.8
275.797	62.12
276.012	-1.37
276.228	0.68
276.444	-56.66
276.659	27.31
276.875	55.98
277.09	146.09
277.306	31.4
277.521	66.22
277.737	4.78
277.952	92.84
278.168	37.55
278.383	70.31
278.599	15.02
278.814	60.07
279.03	-9.56
279.245	47.79
279.461	92.84
279.676	64.17
279.892	62.12
280.107	90.79
280.322	33.45
280.538	66.22
280.753	33.45
280.969	60.07
281.184	72.36
281.399	88.75
281.615	-56.66
281.83	31.4
282.045	-38.23
282.26	-5.46
282.476	23.21
282.691	-3.41
282.906	92.84
283.122	33.45
283.337	33.45
283.552	51.88
283.767	-11.61
283.983	-17.75
284.198	39.59
284.413	-3.41
284.628	53.93
284.843	41.64
285.058	49.83
285.274	90.79
285.489	70.31
285.704	84.65
285.919	17.07
286.134	17.07
286.349	60.07
286.564	66.22
286.779	2.73
286.995	47.79
287.21	-17.75
287.425	35.5
287.64	25.26
287.855	72.36
288.07	23.21
288.285	60.07
288.5	66.22
288.715	29.35
288.93	-3.41
289.145	35.5
289.36	8.87
289.575	107.18
289.79	64.17
290.004	19.11
290.219	27.31
290.434	78.51
290.649	58.03
290.864	49.83
291.079	60.07
291.294	80.55
291.509	33.45
291.724	-7.51
291.938	45.74
292.153	2.73
292.368	23.21
292.583	94.89
292.798	94.89
293.012	80.55
293.227	-32.08
293.442	39.59
293.657	70.31
293.871	101.03
294.086	-11.61
294.301	152.23
294.516	78.51
294.73	78.51
294.945	86.7
295.16	15.02
295.374	78.51
295.589	6.83
295.804	-9.56
296.018	53.93
296.233	64.17
296.447	72.36
296.662	47.79
296.877	39.59
297.091	141.99
297.306	51.88
297.52	25.26
297.735	-9.56
297.949	45.74
298.164	84.65
298.378	25.26
298.593	-9.56
298.807	51.88
299.022	-21.85
299.236	19.11
299.451	6.83
299.665	6.83
299.88	70.31
300.094	39.59
300.309	53.93
300.523	-23.89
300.737	109.22
300.952	55.98
301.166	58.03
301.381	-40.28
301.595	25.26
301.809	17.07
302.024	-1.37
302.238	-9.56
302.452	-3.41
302.667	37.55
302.881	84.65
303.095	47.79
303.309	21.16
303.524	-15.7
303.738	35.5
303.952	-13.65
304.166	47.79
304.381	-27.99
304.595	109.22
304.809	0.68
305.023	86.7
305.237	35.5
305.452	72.36
305.666	51.88
305.88	84.65
306.094	21.16
306.308	64.17
306.522	62.12
306.736	64.17
306.95	-27.99
307.164	6.83
307.379	-1.37
307.593	31.4
307.807	47.79
308.021	35.5
308.235	43.69
308.449	-32.08
308.663	41.64
308.877	23.21
309.091	78.51
309.305	-32.08
309.519	-42.32
309.733	39.59
309.947	-66.9
310.161	49.83
310.374	29.35
310.588	39.59
310.802	55.98
311.016	21.16
311.23	90.79
311.444	68.27
311.658	39.59
311.872	86.7
312.085	53.93
312.299	90.79
312.513	47.79
312.727	-34.13
312.941	82.6
313.154	6.83
313.368	49.83
313.582	33.45
313.796	80.55
314.009	80.55
314.223	21.16
314.437	33.45
314.651	-19.8
314.864	94.89
315.078	6.83
315.292	37.55
315.505	12.97
315.719	-38.23
315.933	23.21
316.146	6.83
316.36	64.17
316.573	35.5
316.787	51.88
317.001	49.83
317.214	25.26
317.428	19.11
317.641	82.6
317.855	43.69
318.068	55.98
318.282	76.46
318.495	-23.89
318.709	43.69
318.922	6.83
319.136	58.03
319.349	86.7
319.563	49.83
319.776	-9.56
319.99	33.45
320.203	78.51
320.417	12.97
320.63	156.33
320.843	62.12
321.057	55.98
321.27	39.59
321.483	35.5
321.697	53.93
321.91	70.31
322.124	78.51
322.337	47.79
322.55	31.4
322.763	10.92
322.977	92.84
323.19	10.92
323.403	62.12
323.617	10.92
323.83	113.32
324.043	33.45
324.256	76.46
324.469	62.12
324.683	66.22
324.896	41.64
325.109	29.35
325.322	8.87
325.535	82.6
325.748	27.31
325.962	37.55
326.175	23.21
326.388	115.37
326.601	70.31
326.814	82.6
327.027	-17.75
327.24	43.69
327.453	27.31
327.666	10.92
327.879	92.84
328.092	49.83
328.305	39.59
328.518	45.74
328.731	98.99
328.944	33.45
329.157	60.07
329.37	55.98
329.583	64.17
329.796	84.65
330.009	-40.28
330.222	92.84
330.435	21.16
330.648	125.61
330.861	107.18
331.073	72.36
331.286	-3.41
331.499	15.02
331.712	-17.75
331.925	12.97
332.138	41.64
332.35	86.7
332.563	66.22
332.776	45.74
332.989	-52.56
333.202	15.02
333.414	31.4
333.627	-46.42
333.84	29.35
334.053	164.52
334.265	-38.23
334.478	33.45
334.691	51.88
334.903	33.45
335.116	6.83
335.329	15.02
335.541	66.22
335.754	68.27
335.966	23.21
336.179	148.14
336.392	-19.8
336.604	33.45
336.817	90.79
337.029	78.51
337.242	119.46
337.454	86.7
337.667	6.83
337.88	37.55
338.092	29.35
338.305	33.45
338.517	27.31
338.729	21.16
338.942	80.55
339.154	105.13
339.367	27.31
339.579	55.98
339.792	37.55
340.004	94.89
340.217	37.55
340.429	-11.61
340.641	-25.94
340.854	6.83
341.066	53.93
341.278	80.55
341.491	105.13
341.703	98.99
341.915	96.94
342.128	98.99
342.34	2.73
342.552	49.83
342.764	23.21
342.977	33.45
343.189	78.51
343.401	58.03
343.613	8.87
343.826	-3.41
344.038	62.12
344.25	92.84
344.462	70.31
344.674	41.64
344.886	-30.04
345.099	53.93
345.311	51.88
345.523	86.7
345.735	-17.75
345.947	-3.41
346.159	47.79
346.371	43.69
346.583	60.07
346.795	-13.65
347.007	49.83
347.219	37.55
347.431	64.17
347.643	37.55
347.855	62.12
348.067	88.75
348.279	-91.48
348.491	-21.85
348.703	45.74
348.915	78.51
349.127	21.16
349.339	15.02
349.551	-7.51
349.763	35.5
349.975	17.07
350.187	98.99
350.399	78.51
350.61	72.36
350.822	-1.37
351.034	15.02
351.246	60.07
351.458	62.12
351.669	60.07
351.881	33.45
352.093	37.55
352.305	86.7
352.517	-30.04
352.728	6.83
352.94	55.98
353.152	21.16
353.363	43.69
353.575	76.46
353.787	84.65
353.999	98.99
354.21	-5.46
354.422	31.4
354.633	25.26
354.845	62.12
355.057	43.69
355.268	72.36
355.48	45.74
355.692	78.51
355.903	-7.51
356.115	107.18
356.326	-3.41
356.538	33.45
356.749	131.75
356.961	55.98
357.172	-17.75
357.384	15.02
357.595	88.75
357.807	41.64
358.018	0.68
358.23	58.03
358.441	29.35
358.653	55.98
358.864	64.17
359.075	-23.89
359.287	4.78
359.498	94.89
359.709	31.4
359.921	-5.46
360.132	2.73
360.344	76.46
360.555	66.22
360.766	113.32
360.977	64.17
361.189	66.22
361.4	35.5
361.611	127.66
361.823	19.11
362.034	55.98
362.245	-11.61
362.456	-1.37
362.667	60.07
362.879	41.64
363.09	45.74
363.301	-13.65
363.512	70.31
363.723	27.31
363.935	86.7
364.146	121.51
364.357	10.92
364.568	49.83
364.779	33.45
364.99	76.46
365.201	-11.61
365.412	72.36
365.623	-1.37
365.834	53.93
366.045	-30.04
366.256	25.26
366.467	53.93
366.678	62.12
366.889	37.55
367.1	43.69
367.311	47.79
367.522	45.74
367.733	131.75
367.944	78.51
368.155	55.98
368.366	58.03
368.577	29.35
368.788	29.35
368.999	51.88
369.209	-1.37
369.42	86.7
369.631	141.99
369.842	8.87
370.053	-3.41
370.264	47.79
370.474	72.36
370.685	23.21
370.896	-3.41
371.107	64.17
371.317	150.18
371.528	23.21
371.739	103.08
371.95	0.68
372.16	62.12
372.371	39.59
372.582	51.88
372.792	8.87
373.003	92.84
373.214	74.41
373.424	25.26
373.635	70.31
373.846	-13.65
374.056	31.4
374.267	-13.65
374.477	72.36
374.688	62.12
374.898	41.64
375.109	19.11
375.319	76.46
375.53	29.35
375.74	-5.46
375.951	74.41
376.161	27.31
376.372	49.83
376.582	31.4
376.793	76.46
377.003	66.22
377.214	72.36
377.424	68.27
377.635	62.12
377.845	19.11
378.055	105.13
378.266	8.87
378.476	72.36
378.686	176.81
378.897	47.79
379.107	21.16
379.317	25.26
379.528	25.26
379.738	101.03
379.948	72.36
380.158	68.27
380.369	60.07
380.579	49.83
380.789	66.22
380.999	43.69
381.21	129.7
381.42	82.6
381.63	15.02
381.84	117.42
382.05	96.94
382.261	68.27
382.471	127.66
382.681	43.69
382.891	96.94
383.101	109.22
383.311	-15.7
383.521	45.74
383.731	60.07
383.941	35.5
384.151	60.07
384.361	127.66
384.571	76.46
384.781	64.17
384.991	137.9
385.201	80.55
385.411	35.5
385.621	2.73
385.831	45.74
386.041	107.18
386.251	92.84
386.461	6.83
386.671	10.92
386.881	12.97
387.091	125.61
387.301	45.74
387.511	82.6
387.72	86.7
387.93	68.27
388.14	10.92
388.35	47.79
388.56	86.7
388.769	172.71
388.979	103.08
389.189	35.5
389.399	88.75
389.609	70.31
389.818	64.17
390.028	98.99
390.238	31.4
390.447	-5.46
390.657	35.5
390.867	6.83
391.076	27.31
391.286	31.4
391.496	105.13
391.705	96.94
391.915	6.83
392.125	76.46
392.334	90.79
392.544	86.7
392.753	94.89
392.963	105.13
393.172	72.36
393.382	37.55
393.591	86.7
393.801	64.17
394.01	96.94
394.22	119.46
394.429	66.22
394.639	8.87
394.848	15.02
395.058	37.55
395.267	101.03
395.477	105.13
395.686	121.51
395.895	131.75
396.105	86.7
396.314	78.51
396.524	41.64
396.733	98.99
396.942	117.42
397.152	53.93
397.361	88.75
397.57	70.31
397.78	103.08
397.989	90.79
398.198	72.36
398.407	86.7
398.617	123.56
398.826	92.84
399.035	84.65
399.244	88.75
399.453	47.79
399.663	58.03
399.872	76.46
400.081	35.5
400.29	96.94
400.499	84.65
400.708	148.14
400.917	105.13
401.127	49.83
401.336	76.46
401.545	119.46
401.754	135.85
401.963	141.99
402.172	115.37
402.381	137.9
402.59	27.31
402.799	39.59
403.008	154.28
403.217	117.42
403.426	131.75
403.635	105.13
403.844	105.13
404.053	78.51
404.262	107.18
404.471	107.18
404.68	103.08
404.888	172.71
405.097	62.12
405.306	228.01
405.515	51.88
405.724	137.9
405.933	144.04
406.142	162.47
406.35	203.43
406.559	92.84
406.768	92.84
406.977	201.38
407.185	154.28
407.394	156.33
407.603	86.7
407.812	189.1
408.02	242.34
408.229	148.14
408.438	178.86
408.646	185
408.855	221.86
409.064	254.63
409.272	217.77
409.481	252.58
409.69	217.77
409.898	182.95
410.107	252.58
410.315	248.49
410.524	260.77
410.733	258.73
410.941	244.39
411.15	277.16
411.358	307.88
411.567	275.11
411.775	299.69
411.984	307.88
412.192	250.53
412.401	332.45
412.609	438.95
412.818	416.42
413.026	309.93
413.234	328.36
413.443	389.8
413.651	381.6
413.86	375.46
414.068	494.24
414.276	481.96
414.485	402.08
414.693	580.26
414.901	514.72
415.11	486.05
415.318	594.59
415.526	563.87
415.734	604.83
415.943	670.37
416.151	651.94
416.359	545.44
416.567	744.1
416.776	748.19
416.984	737.95
417.192	815.77
417.4	651.94
417.608	715.42
417.817	846.49
418.025	860.83
418.233	963.23
418.441	817.82
418.649	873.12
418.857	967.32
419.065	1014.43
419.273	985.76
419.481	1100.44
419.689	1090.2
419.897	1120.92
420.105	1192.6
420.313	1260.18
420.521	1206.94
420.729	1276.57
420.937	1280.66
421.145	1354.39
421.353	1436.31
421.561	1512.08
421.769	1434.26
421.977	1608.34
422.185	1594
422.393	1546.9
422.601	1837.71
422.809	1663.63
423.017	1780.37
423.224	1802.9
423.432	1878.67
423.64	1968.78
423.848	2138.76
424.056	2120.33
424.263	2220.68
424.471	2210.44
424.679	2339.46
424.887	2431.62
425.094	2478.72
425.302	2562.69
425.51	2568.84
425.718	2636.42
425.925	2654.85
426.133	2757.25
426.341	2927.23
426.548	2998.91
426.756	3168.89
426.964	3037.82
427.171	3242.62
427.379	3404.41
427.586	3349.11
427.794	3564.15
428.001	3680.88
428.209	3842.67
428.417	3746.42
428.624	3883.63
428.832	4160.11
429.039	4090.48
429.247	4106.86
429.454	4387.43
429.662	4784.74
429.869	4409.96
430.076	4688.48
430.284	4538.98
430.491	4786.79
430.699	5022.3
430.906	4979.29
431.114	5083.74
431.321	5280.35
431.528	5376.6
431.736	5726.8
431.943	5947.98
432.15	5806.67
432.358	5954.13
432.565	6294.09
432.772	6287.95
432.979	6476.36
433.187	6591.05
433.394	6715.97
433.601	7121.47
433.808	7211.58
434.016	6965.82
434.223	7371.32
434.43	7877.17
434.637	7746.1
434.844	8241.71
435.052	8208.94
435.259	8219.18
435.466	8348.2
435.673	8241.71
435.88	8960.55
436.087	9339.42
436.294	9335.32
436.501	9052.7
436.708	9146.91
436.915	9503.26
437.122	9910.8
437.329	9757.21
437.537	10183.18
437.743	10340.88
437.95	10441.23
438.157	10824.2
438.364	11127.3
438.571	11366.91
438.778	11381.24
438.985	12347.89
439.192	11731.45
439.399	12382.7
439.606	11909.62
439.813	12325.36
440.02	13492.7
440.227	12984.8
440.433	13017.57
440.64	13711.83
440.847	13375.97
441.054	13730.27
441.261	14504.4
441.467	14408.14
441.674	14729.67
441.881	15278.53
442.088	15172.04
442.294	15110.6
442.501	15186.37
442.708	15821.24
442.914	16259.51
443.121	17142.18
443.328	16380.34
443.534	17691.04
443.741	17256.87
443.948	17019.3
444.154	18332.05
444.361	18123.16
444.568	18395.54
444.774	18493.84
444.981	18856.33
445.187	19227.01
445.394	19687.81
445.6	19872.12
445.807	21719.39
446.013	20502.9
446.22	20975.98
446.426	21623.14
446.633	22315.35
446.839	22399.32
447.046	21997.92
447.252	23048.52
447.459	22927.69
447.665	22864.21
447.871	23767.36
448.078	24756.53
448.284	23871.81
448.491	24478.01
448.697	25245.99
448.903	25305.38
449.11	25819.42
449.316	25250.09
449.522	25993.5
449.728	26507.54
449.935	26452.25
450.141	26812.69
450.347	27076.88
450.553	26087.71
450.76	26652.95
450.966	27234.57
451.172	27171.08
451.378	27578.63
451.584	27156.75
451.791	27617.54
451.997	27783.43
452.203	28479.74
452.409	28373.24
452.615	27875.59
452.821	26632.47
453.027	26607.89
453.233	28184.83
453.44	26667.28
453.646	27099.41
453.852	27113.74
454.058	27228.43
454.264	26655
454.47	27412.74
454.676	26681.62
454.882	27396.36
455.088	25008.43
455.294	25037.1
455.5	25583.91
455.705	26173.72
455.911	24895.79
456.117	24310.07
456.323	24049.98
456.529	22434.13
456.735	23511.36
456.941	22931.79
457.147	22712.66
457.352	21936.48
457.558	21905.76
457.764	21805.41
457.97	21328.23
458.176	20853.1
458.381	20652.4
458.587	19673.47
458.793	19831.16
458.999	18749.84
459.204	19958.14
459.41	19513.73
459.616	18346.39
459.821	18227.6
460.027	17969.56
460.233	17271.2
460.438	16890.28
460.644	17080.74
460.85	16097.72
461.055	15995.32
461.261	15925.69
461.466	14920.13
461.672	14426.57
461.878	15401.41
462.083	14246.35
462.289	13924.82
462.494	14156.24
462.7	13285.86
462.905	13044.2
463.111	13386.21
463.316	13494.75
463.522	13205.99
463.727	13402.59
463.932	13048.29
464.138	13111.78
464.343	12956.13
464.549	12921.32
464.754	13146.59
464.959	13081.06
465.165	12888.55
465.37	12638.7
465.575	12085.75
465.781	12515.82
465.986	12528.11
466.191	12378.61
466.397	12118.51
466.602	11401.72
466.807	11905.52
467.012	11815.41
467.218	11944.44
467.423	11803.13
467.628	11784.69
467.833	12024.31
468.038	11868.66
468.244	11403.77
468.449	11942.39
468.654	11579.9
468.859	11409.92
469.064	11399.68
469.269	10963.46
469.474	10856.96
469.679	11223.55
469.885	10764.81
470.09	11069.95
470.295	10725.89
470.5	10621.45
470.705	10738.18
470.91	10301.97
471.115	10504.71
471.32	10482.19
471.525	10525.19
471.73	10177.04
471.935	10025.49
472.139	9978.39
472.344	10074.64
472.549	9830.93
472.754	9744.92
472.959	9603.61
473.164	9284.12
473.369	9290.27
473.574	9667.1
473.778	9443.87
473.983	9364
474.188	9271.84
474.393	8833.57
474.598	8954.4
474.802	8952.35
475.007	8913.44
475.212	8929.83
475.417	8456.75
475.621	8452.65
475.826	8440.36
476.031	8260.14
476.235	8210.99
476.44	8380.97
476.645	8217.13
476.849	8231.47
477.054	7993.9
477.259	8122.93
477.463	8069.68
477.668	7637.56
477.872	7756.34
478.077	7684.66
478.282	7526.97
478.486	7526.97
478.691	7576.12
478.895	7432.76
479.1	7385.66
479.304	7498.3
479.509	7289.4
479.713	7094.85
479.918	7141.95
480.122	7068.22
480.326	7307.84
480.531	7127.61
480.735	7131.71
480.94	7010.88
481.144	7275.07
481.348	6881.86
481.553	7027.26
481.757	7006.78
481.961	7031.36
482.166	7029.31
482.37	6935.1
482.574	6834.75
482.778	6775.36
482.983	6959.68
483.187	6785.6
483.391	7045.7
483.595	6931.01
483.8	6879.81
484.004	6838.85
484.208	6775.36
484.412	6636.1
484.616	6881.86
484.821	6871.62
485.025	6931.01
485.229	6904.39
485.433	6935.1
485.637	6898.24
485.841	6804.03
486.045	6636.1
486.249	6736.45
486.453	6967.87
486.657	6679.11
486.861	6926.91
487.065	6746.69
487.269	6912.58
487.473	6629.96
487.677	6818.37
487.881	6916.67
488.085	6951.49
488.289	6953.54
488.493	6990.4
488.697	7066.17
488.901	6892.1
489.105	6879.81
489.309	7033.41
489.512	6933.06
489.716	7049.79
489.92	6847.04
490.124	6978.11
490.328	6978.11
490.531	6974.02
490.735	7072.32
490.939	7129.66
491.143	6967.87
491.346	7109.18
491.55	7236.16
491.754	7240.25
491.958	7215.68
492.161	7060.03
492.365	7301.69
492.569	7213.63
492.772	7283.26
492.976	7340.6
493.18	7399.99
493.383	7549.5
493.587	7537.21
493.79	7604.79
493.994	7430.71
494.197	7662.13
494.401	7782.96
494.605	7612.98
494.808	7766.58
495.012	7932.47
495.215	7744.05
495.419	7946.8
495.622	7932.47
495.825	8034.86
496.029	8129.07
496.232	8327.72
496.436	8170.03
496.639	8329.77
496.843	8254
497.046	8391.21
497.249	8561.19
497.453	8763.94
497.656	8772.13
497.859	8913.44
498.063	8827.43
498.266	8921.63
498.469	8964.64
498.673	9046.56
498.876	9376.28
499.079	9413.15
499.282	9495.07
499.485	9619.99
499.689	9634.33
499.892	9746.97
500.095	9894.42
500.298	10005.01
500.501	9916.95
500.705	10301.97
500.908	10365.45
501.111	10310.16
501.314	10355.21
501.517	10859.01
501.72	10906.12
501.923	10816.01
502.126	11094.53
502.329	11278.85
502.532	11299.33
502.735	11328
502.938	11428.35
503.141	11540.99
503.344	11729.4
503.547	11801.08
503.75	12046.83
503.953	12173.81
504.156	12188.14
504.359	12376.56
504.562	12454.38
504.765	12808.68
504.968	12788.2
505.17	12835.3
505.373	12964.32
505.576	13326.82
505.779	13341.15
505.982	13414.88
506.185	13623.77
506.387	13816.28
506.59	13654.49
506.793	14152.15
506.996	14250.45
507.198	14668.23
507.401	14399.95
507.604	14608.84
507.807	14748.11
508.009	14838.22
508.212	15112.64
508.415	15387.07
508.617	15589.82
508.82	15471.04
509.022	15780.28
509.225	16064.95
509.428	15985.08
509.63	16157.11
509.833	16390.58
510.035	16789.93
510.238	16765.35
510.44	16826.79
510.643	17263.01
510.845	17291.68
511.048	17082.79
511.25	17631.65
511.453	17578.4
511.655	18287
511.858	18059.67
512.06	18160.02
512.262	18829.71
512.465	18393.49
512.667	18942.35
512.87	19067.27
513.072	19020.17
513.274	19446.15
513.477	19890.56
513.679	19542.4
513.881	20068.73
514.084	19976.57
514.286	20099.45
514.488	20556.15
514.69	21135.72
514.893	21096.81
515.095	21021.03
515.297	21453.16
515.499	21573.99
515.701	21952.86
515.904	22104.41
516.106	22098.27
516.308	22471
516.51	22714.7
516.712	22864.21
516.914	23046.47
517.116	23116.11
517.318	23548.23
517.52	23755.07
517.722	23386.44
517.925	24422.71
518.127	24641.84
518.329	24459.57
518.531	24389.94
518.733	24547.64
518.935	25485.61
519.136	24981.81
519.338	25682.21
519.54	25678.11
519.742	26149.15
519.944	26083.61
520.146	26542.36
520.348	26994.96
520.55	26878.22
520.752	27050.25
520.954	27459.85
521.155	27238.67
521.357	27754.76
521.559	28184.83
521.761	28608.76
521.963	28657.91
522.164	28621.05
522.366	28938.48
522.568	29057.26
522.77	29128.94
522.971	29696.23
523.173	29405.42
523.375	30062.82
523.576	30003.42
523.778	30023.9
523.98	30580.95
524.181	31066.32
524.383	30505.18
524.584	31361.23
524.786	30974.16
524.988	30968.02
525.189	31666.38
525.391	31252.69
525.592	31834.31
525.794	32075.97
525.995	32256.19
526.197	32358.59
526.398	32432.32
526.6	32762.04
526.801	32907.44
527.003	33073.33
527.204	32805.05
527.406	33409.2
527.607	33048.75
527.808	33841.32
528.01	33265.84
528.211	33532.07
528.412	33964.2
528.614	33921.19
528.815	34121.89
529.016	34363.55
529.218	34101.41
529.419	34302.11
529.62	34574.49
529.822	34402.46
530.023	34427.04
530.224	34914.45
530.425	34687.13
530.626	34470.04
530.828	34390.17
531.029	35428.49
531.23	34523.29
531.431	34943.13
531.632	34810.01
531.833	35362.96
532.035	35430.54
532.236	35156.11
532.437	35674.25
532.638	35330.19
532.839	35442.83
533.04	35586.19
533.241	35033.24
533.442	35698.83
533.643	35707.02
533.844	35344.53
534.045	35604.62
534.246	35131.54
534.447	36139.14
534.648	35375.25
534.849	35872.9
535.05	35696.78
535.251	36085.89
535.451	35872.9
535.652	35580.04
535.853	35766.41
536.054	35958.92
536.255	36386.94
536.456	35498.12
536.657	36286.59
536.857	36067.46
537.058	35788.94
537.259	36120.71
537.46	36284.54
537.66	36196.48
537.861	36483.2
538.062	36169.86
538.263	35905.67
538.463	35641.48
538.664	35817.61
538.865	36010.12
539.065	36307.07
539.266	36012.17
539.466	36055.17
539.667	35594.38
539.868	35856.52
540.068	36229.25
540.269	35850.38
540.469	36323.46
540.67	36096.13
540.87	35780.74
541.071	36169.86
541.271	36102.28
541.472	36438.14
541.672	35723.4
541.873	36126.85
542.073	35405.97
542.274	36192.39
542.474	35756.17
542.675	35635.34
542.875	35991.69
543.075	36040.84
543.276	35897.48
543.476	36192.39
543.676	35965.06
543.877	35762.31
544.077	35684.49
544.277	35854.47
544.478	35727.5
544.678	36006.02
544.878	36081.8
545.078	35750.03
545.279	35547.28
545.479	35885.19
545.679	35877
545.879	35899.53
546.079	35883.14
546.28	35899.53
546.48	35278.99
546.68	36014.21
546.88	35860.62
547.08	35590.28
547.28	35756.17
547.48	35754.12
547.68	35428.49
547.88	35506.32
548.081	35664.01
548.281	35422.35
548.481	35725.45
548.681	35823.75
548.881	35893.38
549.081	35737.74
549.28	35137.68
549.48	35940.49
549.68	35637.39
549.88	35856.52
550.08	35715.21
550.28	35762.31
550.48	35555.47
550.68	35885.19
550.88	35729.55
551.08	35729.55
551.279	35477.65
551.479	35192.98
551.679	35940.49
551.879	35590.28
552.079	35438.73
552.278	35563.66
552.478	35506.32
552.678	35672.2
552.878	35606.67
553.077	35567.76
553.277	35389.58
553.477	35596.43
553.676	35414.16
553.876	35311.76
554.076	35285.14
554.275	35432.59
554.475	34863.25
554.674	35508.36
554.874	35074.2
555.074	35004.56
555.273	35121.3
555.473	35156.11
555.672	34840.73
555.872	35213.46
556.071	35016.85
556.271	35164.31
556.47	34779.29
556.67	34680.99
556.869	34693.27
557.068	34812.06
557.268	34646.17
557.467	34500.76
557.667	34541.72
557.866	34513.05
558.065	34898.07
558.265	34476.19
558.464	33923.24
558.663	34828.44
558.863	34029.73
559.062	34627.74
559.261	34234.53
559.461	34277.54
559.66	33790.12
559.859	34078.88
560.058	34082.98
560.258	34087.07
560.457	33927.33
560.656	34044.07
560.855	33429.68
561.054	33976.48
561.253	33720.49
561.453	33956
561.652	33747.11
561.851	33945.76
562.05	33685.67
562.249	33282.22
562.448	33368.24
562.647	33196.21
562.846	33206.45
563.045	33171.63
563.244	33087.67
563.443	33204.4
563.642	32612.54
563.841	33161.39
564.04	32350.4
564.239	33214.64
564.438	32489.66
564.637	32690.36
564.836	33046.71
565.035	32024.77
565.234	32358.59
565.432	32293.05
565.631	32219.33
565.83	31932.61
566.029	31989.95
566.228	32131.26
566.427	32108.74
566.625	31887.56
566.824	31461.58
567.023	31779.01
567.222	31056.08
567.42	31785.16
567.619	31500.49
567.818	31357.13
568.016	31434.96
568.215	31387.85
568.414	30843.09
568.612	31375.56
568.811	31031.51
569.01	30982.35
569.208	30494.94
569.407	30666.97
569.605	30154.97
569.804	31008.98
570.002	30247.13
570.201	30865.62
570.4	30357.72
570.598	29855.97
570.797	29948.13
570.995	29997.28
571.193	29362.41
571.392	30255.33
571.59	29696.23
571.789	29544.68
571.987	29554.92
572.186	28989.68
572.384	29536.49
572.582	29743.33
572.781	29380.84
572.979	28932.34
573.177	29327.6
573.376	29182.19
573.574	28805.36
573.772	29239.53
573.971	28823.79
574.169	28963.06
574.367	28592.37
574.565	28375.29
574.763	28778.74
574.962	28373.24
575.16	27967.74
575.358	28438.78
575.556	27777.28
575.754	28076.29
575.952	27543.81
576.151	28064
576.349	27457.8
576.547	27834.63
576.745	27738.37
576.943	27605.25
577.141	27134.22
577.339	27416.84
577.537	27220.24
577.735	27590.92
577.933	27312.39
578.131	27281.67
578.329	26796.31
578.527	26552.6
578.725	26640.66
578.923	26824.98
579.121	26464.53
579.319	26859.79
579.516	26663.19
579.714	26718.48
579.912	26329.37
580.11	26245.4
580.308	26272.03
580.506	26493.21
580.704	25987.36
580.901	26233.11
581.099	26102.04
581.297	25729.31
581.495	25657.64
581.692	26272.03
581.89	25162.03
582.088	25778.47
582.285	25448.74
582.483	25727.27
582.681	25293.1
582.878	25309.48
583.076	24885.55
583.274	26036.51
583.471	24789.3
583.669	25137.45
583.866	24686.9
584.064	24987.95
584.262	24652.08
584.459	24889.65
584.657	24680.75
584.854	25000.24
585.052	24439.09
585.249	24715.57
585.447	24146.23
585.644	24072.51
585.841	24287.54
586.039	24445.24
586.236	23826.75
586.434	24222.01
586.631	24027.45
586.828	24076.6
587.026	23675.2
587.223	23574.85
587.42	23730.5
587.618	23779.65
587.815	23388.49
588.012	23302.47
588.21	23480.64
588.407	23724.35
588.604	23234.89
588.801	23230.79
588.999	23116.11
589.196	23013.71
589.393	23310.66
589.59	23142.73
589.787	22999.37
589.984	22593.87
590.182	22579.54
590.379	22786.38
590.576	22573.39
590.773	22446.42
590.97	22053.21
591.167	22499.67
591.364	22270.29
591.561	22335.83
591.758	22073.69
591.955	21879.13
592.152	22313.3
592.349	21987.68
592.546	22178.14
592.743	22034.78
592.94	21565.79
593.137	21657.95
593.334	21862.75
593.531	21590.37
593.727	21758.3
593.924	21616.99
594.121	21387.62
594.318	21690.72
594.515	21152.1
594.712	21453.16
594.908	20842.86
595.105	21350.76
595.302	20959.59
595.499	21215.59
595.696	20826.48
595.892	20781.42
596.089	20947.31
596.286	20961.64
596.482	20631.92
596.679	20377.97
596.876	20539.76
597.072	20275.57
597.269	20484.47
597.466	20330.87
597.662	20142.46
597.859	20457.84
598.055	20310.39
598.252	20033.91
598.448	19960.19
598.645	19771.77
598.841	19818.88
599.038	20017.53
599.234	19761.53
599.431	19671.42
599.627	19546.5
599.824	19947.9
600.02	19857.79
600.217	19263.88
600.413	19294.6
600.609	19407.23
600.806	19175.81
601.002	19409.28
601.198	19095.94
601.395	18878.86
601.591	19095.94
601.787	19190.15
601.984	18878.86
602.18	18874.76
602.376	18825.61
602.572	18864.52
602.769	18811.28
602.965	18512.27
603.161	18629.01
603.357	18837.9
603.553	18590.1
603.75	18395.54
603.946	18227.6
604.142	18217.36
604.338	18174.36
604.534	18436.5
604.73	18282.9
604.926	18235.8
605.122	18008.47
605.318	18082.2
605.514	17873.31
605.71	17996.18
605.906	18051.48
606.102	17785.24
606.298	17766.81
606.494	17713.56
606.69	17805.72
606.886	17660.32
607.082	17435.04
607.278	17602.97
607.474	17445.28
607.67	17627.55
607.866	17476
608.062	17547.68
608.257	17279.4
608.453	17230.24
608.649	17334.69
608.845	17076.65
609.041	17297.83
609.236	17068.45
609.432	17039.78
609.628	16888.23
609.824	16931.24
610.019	17080.74
610.215	16628.14
610.411	16667.05
610.606	16761.26
610.802	16992.68
610.998	16843.18
611.193	17009.06
611.389	16689.58
611.584	16511.41
611.78	16701.87
611.976	16576.94
612.171	16560.56
612.367	16533.93
612.562	16220.6
612.758	16286.13
612.953	16271.79
613.149	16466.35
613.344	16224.69
613.539	16249.27
613.735	16355.76
613.93	16218.55
614.126	15937.98
614.321	16353.71
614.517	16099.76
614.712	15999.41
614.907	16130.48
615.103	16003.51
615.298	15905.21
615.493	16316.85
615.688	16073.14
615.884	16126.39
616.079	15636.92
616.274	15821.24
616.47	15587.77
616.665	15735.23
616.86	15690.17
617.055	15792.57
617.25	15546.81
617.445	15804.86
617.641	15397.31
617.836	15829.43
618.031	15421.89
618.226	15520.19
618.421	15292.87
618.616	15432.13
618.811	15323.58
619.006	15317.44
619.201	14873.03
619.396	15122.88
619.591	14766.54
619.786	14975.43
619.981	14766.54
620.176	14862.79
620.371	14516.69
620.566	14850.5
620.761	14844.36
620.956	14899.66
621.151	14395.85
621.346	14334.42
621.541	14463.44
621.735	14717.39
621.93	14047.7
622.125	14342.61
622.32	14092.76
622.515	13859.29
622.709	13803.99
622.904	14049.75
623.099	14070.23
623.294	13875.67
623.488	13588.96
623.683	13801.94
623.878	13715.93
624.072	13515.23
624.267	13398.49
624.462	13640.15
624.656	13275.62
624.851	13537.76
625.046	13140.45
625.24	13287.9
625.435	13029.86
625.629	13214.18
625.824	12786.15
626.018	12855.78
626.213	12454.38
626.407	12847.59
626.602	12630.51
626.796	12509.68
626.991	12708.33
627.185	12278.26
627.38	12351.98
627.574	12276.21
627.768	12128.75
627.963	12188.14
628.157	12165.62
628.352	12036.59
628.546	11930.1
628.74	11977.2
628.935	11807.22
629.129	11723.26
629.323	11524.6
629.517	11733.5
629.712	11569.66
629.906	11639.29
630.1	11483.64
630.294	11444.73
630.489	11395.58
630.683	11461.12
630.877	11119.1
631.071	11182.59
631.265	11209.22
631.459	11047.43
631.653	11026.95
631.848	10873.35
632.042	10824.2
632.236	10750.47
632.43	10703.37
632.624	11016.71
632.818	10621.45
633.012	10613.26
633.206	10572.3
633.4	10473.99
633.594	10322.45
633.788	10519.05
633.982	10256.91
634.176	10359.31
634.369	10301.97
634.563	10129.94
634.757	10306.06
634.951	10189.33
635.145	10023.44
635.339	10140.18
635.533	10005.01
635.726	9945.62
635.92	9849.36
636.114	9832.98
636.308	9628.18
636.501	9658.9
636.695	9593.37
636.889	9644.57
637.083	9536.03
637.276	9587.22
637.47	9312.8
637.664	9470.49
637.857	9316.89
638.051	9308.7
638.244	9329.18
638.438	9255.45
638.632	9060.9
638.825	8923.68
639.019	8956.45
639.212	8915.49
639.406	9046.56
639.599	9048.61
639.793	8868.39
639.986	8657.45
640.18	8673.83
640.373	8722.98
640.567	8581.67
640.76	8509.99
640.954	8661.54
641.147	8426.03
641.34	8583.72
641.534	8333.87
641.727	8366.63
641.92	8305.2
642.114	8526.38
642.307	8256.04
642.5	8215.09
642.694	8014.38
642.887	8124.97
643.08	8145.45
643.273	7901.75
643.467	7971.38
643.66	7805.49
643.853	7979.57
644.046	7780.92
644.239	7688.76
644.432	7662.13
644.626	7758.39
644.819	7836.21
645.012	7631.41
645.205	7666.23
645.398	7518.78
645.591	7455.29
645.784	7299.64
645.977	7504.44
646.17	7438.91
646.363	7344.7
646.556	7195.2
646.749	7522.87
646.942	7244.35
647.135	7127.61
647.328	7187.01
647.521	7035.46
647.714	6974.02
647.907	7080.51
648.099	6826.56
648.292	6920.77
648.485	6890.05
648.678	7043.65
648.871	6707.78
649.064	6662.72
649.256	6711.88
649.449	6943.3
649.642	6632.01
649.835	6601.29
650.027	6541.89
650.22	6564.42
650.413	6541.89
650.605	6642.25
650.798	6419.02
650.991	6341.19
651.183	6502.98
651.376	6347.34
651.568	6333
651.761	6349.39
651.954	6312.52
652.146	6220.36
652.339	6251.08
652.531	6220.36
652.724	6289.99
652.916	5982.8
653.109	6240.84
653.301	6244.94
653.494	6130.25
653.686	5884.5
653.879	5984.85
654.071	5900.88
654.263	5759.57
654.456	6074.96
654.648	5995.09
654.84	5614.16
655.033	5878.35
655.225	5782.1
655.417	5509.72
655.61	5771.86
655.802	5671.51
655.994	5562.97
656.186	5790.29
656.379	5579.35
656.571	5491.29
656.763	5454.42
656.955	5485.14
657.148	5501.53
657.34	5460.57
657.532	5448.28
657.724	5390.94
657.916	5302.87
658.108	5345.88
658.3	5134.94
658.492	5227.1
658.684	5288.54
658.876	5329.5
659.068	5210.72
659.26	5182.04
659.452	5055.07
659.644	4985.44
659.836	5048.93
660.028	5081.69
660.22	4952.67
660.412	5040.73
660.604	5001.82
660.796	4921.95
660.988	5057.12
661.18	4942.43
661.372	4696.68
661.563	4862.56
661.755	4967.01
661.947	4774.5
662.139	4809.31
662.331	4698.72
662.522	4706.91
662.714	4819.55
662.906	4723.3
663.097	4629.09
663.289	4641.38
663.481	4661.86
663.673	4526.69
663.864	4596.32
664.056	4579.94
664.247	4657.76
664.439	4475.49
664.631	4524.65
664.822	4436.58
665.014	4330.09
665.205	4471.4
665.397	4416.1
665.588	4383.34
665.78	4416.1
665.971	4280.94
666.163	4285.03
666.354	4272.75
666.546	4348.52
666.737	4194.92
666.929	4287.08
667.12	4262.51
667.311	4301.42
667.503	4026.99
667.694	4168.3
667.885	4188.78
668.077	4053.61
668.268	4072.04
668.459	4047.47
668.651	4016.75
668.842	4018.8
669.033	4162.16
669.224	4033.13
669.416	3994.22
669.607	3893.87
669.798	3881.58
669.989	3992.17
670.18	3873.39
670.371	3908.21
670.563	4008.56
670.754	3938.93
670.945	3875.44
671.136	3918.45
671.327	3838.58
671.518	3842.67
671.709	3803.76
671.9	3760.75
672.091	3705.46
672.282	3742.32
672.473	3678.83
672.664	3832.43
672.855	3785.33
673.046	3721.84
673.237	3838.58
673.428	3691.12
673.619	3658.35
673.809	3627.64
674	3535.48
674.191	3648.11
674.382	3644.02
674.573	3605.11
674.764	3625.59
674.954	3639.92
675.145	3623.54
675.336	3762.8
675.527	3568.24
675.717	3527.28
675.908	3553.91
676.099	3535.48
676.289	3400.31
676.48	3525.24
676.671	3523.19
676.861	3490.42
677.052	3523.19
677.243	3510.9
677.433	3375.74
677.624	3433.08
677.814	3324.54
678.005	3476.09
678.195	3302.01
678.386	3416.69
678.576	3471.99
678.767	3488.37
678.957	3410.55
679.148	3492.47
679.338	3385.98
679.529	3345.02
679.719	3291.77
679.909	3500.66
680.1	3426.93
680.29	3410.55
680.481	3379.83
680.671	3353.21
680.861	3394.17
681.052	3271.29
681.242	3293.82
681.432	3353.21
681.622	3050.11
681.813	3273.34
682.003	3203.71
682.193	3191.42
682.383	3342.97
682.573	3269.24
682.764	3230.33
682.954	3136.12
683.144	3250.81
683.334	3199.61
683.524	3230.33
683.714	3158.65
683.904	3107.45
684.094	3338.87
684.284	3318.39
684.474	3164.79
684.664	3179.13
684.854	3101.31
685.044	3238.52
685.234	3291.77
685.424	3166.84
685.614	3201.66
685.804	3179.13
685.994	3076.73
686.184	3271.29
686.374	3138.17
686.564	3093.12
686.753	3172.99
686.943	3037.82
687.133	3046.01
687.323	3072.64
687.513	3078.78
687.702	3025.53
687.892	3029.63
688.082	3168.89
688.272	2966.14
688.461	3000.96
688.651	3025.53
688.841	2982.53
689.03	2810.5
689.22	2820.74
689.41	2927.23
689.599	2812.54
689.789	2884.22
689.979	2921.09
690.168	2898.56
690.358	2923.13
690.547	2861.69
690.737	2839.17
690.926	2943.61
691.116	2867.84
691.305	2933.37
691.495	2882.17
691.684	2796.16
691.874	2861.69
692.063	2734.72
692.252	2785.92
692.442	2816.64
692.631	2771.58
692.82	2722.43
693.01	2736.77
693.199	2790.02
693.388	2747.01
693.578	2732.67
693.767	2597.51
693.956	2740.86
694.146	2710.15
694.335	2671.23
694.524	2773.63
694.713	2622.08
694.902	2628.23
695.092	2642.56
695.281	2681.47
695.47	2765.44
695.659	2579.08
695.848	2595.46
696.037	2660.99
696.226	2757.25
696.415	2534.02
696.604	2615.94
696.793	2566.79
696.982	2744.96
697.171	2787.97
697.36	2693.76
697.549	2566.79
697.738	2538.12
697.927	2560.64
698.116	2704
698.305	2568.84
698.494	2681.47
698.683	2552.45
698.872	2615.94
699.061	2570.88
699.25	2591.36
699.438	2640.51
699.627	2474.63
699.816	2544.26
700.005	2603.65
700.193	2577.03
700.382	2534.02
700.571	2583.17
700.76	2620.03
700.948	2552.45
701.137	2624.13
701.326	2564.74
701.514	2574.98
701.703	2579.08
701.892	2603.65
702.08	2509.44
702.269	2591.36
702.457	2511.49
702.646	2540.16
702.834	2554.5
703.023	2538.12
703.212	2650.75
703.4	2599.55
703.589	2595.46
703.777	2570.88
703.965	2476.68
704.154	2617.99
704.342	2425.48
704.531	2585.22
704.719	2558.6
704.907	2665.09
705.096	2558.6
705.284	2529.92
705.472	2534.02
705.661	2669.19
705.849	2554.5
706.037	2630.27
706.226	2704
706.414	2495.11
706.602	2536.07
706.79	2620.03
706.979	2515.59
707.167	2574.98
707.355	2620.03
707.543	2581.12
707.731	2718.34
707.919	2511.49
708.107	2542.21
708.296	2617.99
708.484	2464.39
708.672	2558.6
708.86	2570.88
709.048	2638.47
709.236	2652.8
709.424	2683.52
709.612	2517.64
709.8	2677.38
709.988	2577.03
710.176	2505.35
710.364	2560.64
710.551	2589.32
710.739	2579.08
710.927	2681.47
711.115	2583.17
711.303	2562.69
711.491	2523.78
711.679	2675.33
711.866	2587.27
712.054	2687.62
712.242	2429.57
712.43	2583.17
712.617	2527.88
712.805	2583.17
712.993	2554.5
713.181	2501.25
713.368	2523.78
713.556	2624.13
713.744	2464.39
713.931	2517.64
714.119	2585.22
714.306	2572.93
714.494	2581.12
714.682	2509.44
714.869	2452.1
715.057	2587.27
715.244	2417.29
715.432	2503.3
715.619	2482.82
715.807	2540.16
715.994	2568.84
716.182	2441.86
716.369	2574.98
716.556	2534.02
716.744	2525.83
716.931	2579.08
717.119	2572.93
717.306	2634.37
717.493	2564.74
717.681	2511.49
717.868	2542.21
718.055	2445.96
718.242	2464.39
718.43	2544.26
718.617	2654.85
718.804	2581.12
718.991	2632.32
719.179	2613.89
719.366	2511.49
719.553	2593.41
719.74	2466.44
719.927	2523.78
720.114	2531.97
720.301	2472.58
720.488	2470.53
720.676	2642.56
720.863	2515.59
721.05	2486.92
721.237	2574.98
721.424	2611.84
721.611	2632.32
721.798	2550.4
721.985	2591.36
722.172	2548.36
722.358	2581.12
722.545	2577.03
722.732	2577.03
722.919	2501.25
723.106	2546.31
723.293	2501.25
723.48	2605.7
723.667	2437.77
723.853	2519.68
724.04	2488.96
724.227	2493.06
724.414	2437.77
724.6	2523.78
724.787	2570.88
724.974	2597.51
725.161	2509.44
725.347	2484.87
725.534	2538.12
725.72	2521.73
725.907	2484.87
726.094	2595.46
726.28	2589.32
726.467	2513.54
726.653	2402.95
726.84	2636.42
727.027	2566.79
727.213	2431.62
727.4	2456.2
727.586	2507.4
727.773	2429.57
727.959	2560.64
728.145	2509.44
728.332	2480.77
728.518	2546.31
728.705	2398.85
728.891	2380.42
729.077	2419.33
729.264	2388.61
729.45	2380.42
729.636	2577.03
729.823	2423.43
730.009	2470.53
730.195	2429.57
730.382	2488.96
730.568	2521.73
730.754	2525.83
730.94	2450.05
731.126	2509.44
731.313	2570.88
731.499	2534.02
731.685	2478.72
731.871	2579.08
732.057	2409.09
732.243	2527.88
732.429	2511.49
732.615	2521.73
732.801	2400.9
732.987	2405
733.173	2517.64
733.359	2525.83
733.545	2468.48
733.731	2351.75
733.917	2546.31
734.103	2443.91
734.289	2501.25
734.475	2470.53
734.661	2478.72
734.847	2456.2
735.033	2396.81
735.219	2464.39
735.404	2415.24
735.59	2390.66
735.776	2405
735.962	2388.61
736.148	2443.91
736.333	2321.03
736.519	2433.67
736.705	2405
736.89	2445.96
737.076	2351.75
737.262	2378.37
737.447	2384.52
737.633	2423.43
737.819	2415.24
738.004	2370.18
738.19	2239.11
738.375	2329.22
738.561	2361.99
738.747	2331.27
738.932	2304.65
739.118	2355.85
739.303	2265.74
739.489	2374.28
739.674	2419.33
739.859	2267.78
740.045	2349.7
740.23	2296.46
740.416	2208.39
740.601	2288.26
740.786	2357.89
740.972	2167.43
741.157	2345.61
741.342	2103.95
741.528	2284.17
741.713	2288.26
741.898	2255.5
742.084	2149
742.269	2183.82
742.454	2171.53
742.639	2239.11
742.824	2212.49
743.01	2194.06
743.195	2179.72
743.38	2071.18
743.565	2267.78
743.75	2112.14
743.935	2192.01
744.12	2167.43
744.305	2177.67
744.49	2046.6
744.675	2114.19
744.86	2128.52
745.045	2126.47
745.23	2136.71
745.415	2052.75
745.6	2093.71
745.785	2087.56
745.97	2071.18
746.155	2062.99
746.34	2146.95
746.525	2079.37
746.71	2058.89
746.895	2040.46
747.079	1927.82
747.264	2005.64
747.449	1999.5
747.634	1985.16
747.819	2011.79
748.003	1868.43
748.188	1989.26
748.373	1882.77
748.557	1929.87
748.742	1888.91
748.927	1829.52
749.111	1780.37
749.296	1938.06
749.481	1809.04
749.665	1751.7
749.85	1714.83
750.034	1763.98
750.219	1833.61
750.404	1761.94
750.588	1788.56
750.773	1778.32
750.957	1800.85
751.141	1745.55
751.326	1768.08
751.51	1733.26
751.695	1669.78
751.879	1665.68
752.064	1694.35
752.248	1643.15
752.432	1667.73
752.617	1651.35
752.801	1589.91
752.985	1575.57
753.17	1632.91
753.354	1645.2
753.538	1589.91
753.722	1553.04
753.907	1497.75
754.091	1473.17
754.275	1501.84
754.459	1618.58
754.643	1532.56
754.828	1546.9
755.012	1442.45
755.196	1458.84
755.38	1469.08
755.564	1475.22
755.748	1460.88
755.932	1411.73
756.116	1460.88
756.3	1426.07
756.484	1387.16
756.668	1456.79
756.852	1448.6
757.036	1325.72
757.22	1338.01
757.404	1411.73
757.588	1309.33
757.772	1376.92
757.956	1340.05
758.14	1340.05
758.323	1299.09
758.507	1374.87
758.691	1292.95
758.875	1282.71
759.059	1362.58
759.242	1399.45
759.426	1321.62
759.61	1305.24
759.794	1274.52
759.977	1217.18
760.161	1338.01
760.345	1235.61
760.528	1352.34
760.712	1211.03
760.895	1276.57
761.079	1204.89
761.263	1251.99
761.446	1235.61
761.63	1168.02
761.813	1208.98
761.997	1178.26
762.18	1233.56
762.364	1223.32
762.547	1137.31
762.731	1102.49
762.914	1297.05
763.098	1200.79
763.281	1067.67
763.464	1133.21
763.648	1098.39
763.831	1163.93
764.015	1217.18
764.198	1120.92
764.381	1073.82
764.564	1131.16
764.748	983.71
764.931	1098.39
765.114	1116.83
765.297	1086.11
765.481	1057.43
765.664	1082.01
765.847	1137.31
766.03	1086.11
766.213	1018.52
766.397	981.66
766.58	1063.58
766.763	1047.19
766.946	916.12
767.129	993.95
767.312	998.04
767.495	1020.57
767.678	1110.68
767.861	1104.54
768.044	998.04
768.227	998.04
768.41	1065.63
768.593	1086.11
768.776	1010.33
768.959	901.79
769.142	1014.43
769.324	971.42
769.507	879.26
769.69	955.04
769.873	1036.95
770.056	1024.67
770.239	922.27
770.421	944.8
770.604	922.27
770.787	996
770.97	957.08
771.152	979.61
771.335	996
771.518	991.9
771.7	907.93
771.883	926.36
772.066	928.41
772.248	918.17
772.431	864.93
772.613	858.78
772.796	848.54
772.978	811.68
773.161	864.93
773.343	893.6
773.526	932.51
773.708	823.97
773.891	883.36
774.073	969.37
774.256	860.83
774.438	918.17
774.621	877.21
774.803	819.87
774.985	828.06
775.168	869.02
775.35	742.05
775.532	842.4
775.715	809.63
775.897	834.21
776.079	850.59
776.261	748.19
776.444	748.19
776.626	719.52
776.808	744.1
776.99	717.47
777.173	815.77
777.355	727.71
777.537	707.23
777.719	793.25
777.901	760.48
778.083	770.72
778.265	813.73
778.447	635.55
778.629	715.42
778.811	744.1
778.993	719.52
779.175	651.94
779.357	740
779.539	678.56
779.721	666.27
779.903	737.95
780.085	664.22
780.267	635.55
780.449	672.42
780.631	641.7
780.812	707.23
780.994	674.46
781.176	590.5
781.358	567.97
781.54	535.2
781.721	649.89
781.903	576.16
782.085	670.37
782.267	610.98
782.448	598.69
782.63	594.59
782.812	613.03
782.993	545.44
783.175	598.69
783.357	580.26
783.538	613.03
783.72	555.68
783.901	496.29
784.083	475.81
784.264	559.78
784.446	565.92
784.627	473.76
784.809	514.72
784.99	504.48
785.172	615.07
785.353	494.24
785.535	537.25
785.716	457.38
785.897	539.3
786.079	469.67
786.26	531.11
786.441	498.34
786.623	490.15
786.804	465.57
786.985	531.11
787.167	469.67
787.348	465.57
787.529	553.63
787.71	504.48
787.891	389.8
788.073	426.66
788.254	436.9
788.435	453.28
788.616	484
788.797	383.65
788.978	424.61
789.159	418.47
789.34	459.43
789.522	357.03
789.703	436.9
789.884	377.51
790.065	397.99
790.246	381.6
790.427	430.76
790.607	434.85
790.788	424.61
790.969	377.51
791.15	387.75
791.331	441
791.512	346.79
791.693	377.51
791.874	320.17
792.054	455.33
792.235	445.09
792.416	340.65
792.597	418.47
792.778	359.08
792.958	334.5
793.139	430.76
793.32	395.94
793.5	418.47
793.681	400.04
793.862	395.94
794.042	338.6
794.223	311.97
794.404	309.93
794.584	328.36
794.765	307.88
794.945	234.15
795.126	322.21
795.306	379.56
795.487	385.7
795.667	361.13
795.848	303.78
796.028	287.4
796.209	330.41
796.389	363.17
796.57	371.37
796.75	283.3
796.93	338.6
797.111	369.32
797.291	305.83
797.471	389.8
797.652	252.58
797.832	305.83
798.012	342.69
798.192	258.73
798.373	328.36
798.553	248.49
798.733	363.17
798.913	244.39
799.093	285.35
799.274	318.12
799.454	311.97
799.634	350.89
799.814	307.88
799.994	211.62
800.174	219.82
800.354	301.73
800.534	254.63
800.714	279.21
800.894	287.4
801.074	316.07
801.254	348.84
801.434	316.07
801.614	295.59
801.794	197.29
801.974	629.41
802.154	232.1
802.334	311.97
802.514	301.73
802.693	273.06
802.873	238.25
803.053	271.01
803.233	262.82
803.413	250.53
803.592	213.67
803.772	174.76
803.952	289.45
804.131	305.83
804.311	197.29
804.491	223.91
804.67	211.62
804.85	252.58
805.03	287.4
805.209	236.2
805.389	195.24
805.568	182.95
805.748	264.87
805.928	162.47
806.107	185
806.287	195.24
806.466	254.63
806.646	223.91
806.825	275.11
807.004	262.82
807.184	293.54
807.363	219.82
807.543	213.67
807.722	191.14
807.901	217.77
808.081	248.49
808.26	137.9
808.439	141.99
808.619	209.58
808.798	223.91
808.977	258.73
809.156	223.91
809.336	166.57
809.515	262.82
809.694	105.13
809.873	166.57
810.052	213.67
810.231	180.9
810.411	199.34
810.59	244.39
810.769	154.28
810.948	156.33
811.127	199.34
811.306	154.28
811.485	144.04
811.664	260.77
811.843	215.72
812.022	191.14
812.201	201.38
812.38	211.62
812.559	166.57
812.737	219.82
812.916	207.53
813.095	201.38
813.274	178.86
813.453	185
813.632	162.47
813.811	219.82
813.989	129.7
814.168	135.85
814.347	105.13
814.526	162.47
814.704	152.23
814.883	240.29
815.062	131.75
815.24	215.72
815.419	152.23
815.598	162.47
815.776	176.81
815.955	258.73
816.133	152.23
816.312	178.86
816.49	258.73
816.669	105.13
816.847	176.81
817.026	176.81
817.204	113.32
817.383	189.1
817.561	80.55
817.74	148.14
817.918	117.42
818.097	101.03
818.275	180.9
818.453	98.99
818.632	168.62
818.81	141.99
818.988	185
819.167	168.62
819.345	125.61
819.523	172.71
819.701	146.09
819.879	129.7
820.058	121.51
820.236	148.14
820.414	131.75
820.592	146.09
820.77	162.47
820.948	150.18
821.127	98.99
821.305	144.04
821.483	123.56
821.661	133.8
821.839	109.22
822.017	148.14
822.195	174.76
822.373	144.04
822.551	84.65
822.729	154.28
822.907	172.71
823.085	150.18
823.262	117.42
823.44	101.03
823.618	66.22
823.796	150.18
823.974	82.6
824.152	172.71
824.329	141.99
824.507	137.9
824.685	90.79
824.863	170.66
825.04	135.85
825.218	51.88
825.396	176.81
825.574	86.7
825.751	107.18
825.929	119.46
826.107	150.18
826.284	141.99
826.462	217.77
826.639	137.9
826.817	70.31
826.994	78.51
827.172	133.8
827.349	92.84
827.527	74.41
827.704	133.8
827.882	82.6
828.059	78.51
828.237	121.51
828.414	127.66
828.591	109.22
828.769	41.64
828.946	121.51
829.124	133.8
829.301	76.46
829.478	80.55
829.655	148.14
829.833	105.13
830.01	98.99
830.187	180.9
830.364	113.32
830.542	94.89
830.719	96.94
830.896	90.79
831.073	101.03
831.25	98.99
831.427	123.56
831.604	72.36
831.782	96.94
831.959	141.99
832.136	43.69
832.313	139.94
832.49	119.46
832.667	119.46
832.844	115.37
833.021	133.8
833.198	84.65
833.374	127.66
833.551	139.94
833.728	84.65
833.905	51.88
834.082	96.94
834.259	131.75
834.436	146.09
834.612	78.51
834.789	117.42
834.966	45.74
835.143	21.16
835.319	72.36
835.496	92.84
835.673	49.83
835.85	47.79
836.026	88.75
836.203	51.88
836.38	98.99
836.556	66.22
836.733	23.21
836.909	41.64
837.086	150.18
837.262	88.75
837.439	82.6
837.616	111.27
837.792	27.31
837.968	62.12
838.145	-5.46
838.321	33.45
838.498	15.02
838.674	45.74
838.851	6.83
839.027	4.78
839.203	88.75
839.38	72.36
839.556	70.31
839.732	27.31
839.909	88.75
840.085	62.12
840.261	123.56
840.437	94.89
840.614	29.35
840.79	125.61
840.966	135.85
841.142	117.42
841.318	80.55
841.494	115.37
841.671	74.41
841.847	62.12
842.023	-15.7
842.199	53.93
842.375	82.6
842.551	68.27
842.727	88.75
842.903	72.36
843.079	148.14
843.255	111.27
843.431	49.83
843.607	47.79
843.783	-50.52
843.959	94.89
844.134	96.94
844.31	131.75
844.486	115.37
844.662	125.61
844.838	92.84
845.013	88.75
845.189	115.37
845.365	21.16
845.541	144.04
845.716	86.7
845.892	15.02
846.068	90.79
846.244	84.65
846.419	60.07
846.595	70.31
846.77	105.13
846.946	64.17
847.122	68.27
847.297	29.35
847.473	68.27
847.648	72.36
847.824	80.55
847.999	19.11
848.175	66.22
848.35	74.41
848.526	76.46
848.701	129.7
848.876	68.27
849.052	74.41
849.227	98.99
849.403	55.98
849.578	60.07
849.753	129.7
849.929	58.03
850.104	31.4
850.279	80.55
850.454	53.93
850.63	117.42
850.805	35.5
850.98	94.89
851.155	125.61
851.33	113.32
851.505	74.41
851.681	78.51
851.856	72.36
852.031	41.64
852.206	-9.56
852.381	10.92
852.556	21.16
852.731	45.74
852.906	-17.75
853.081	19.11
853.256	39.59
853.431	64.17
853.606	53.93
853.781	51.88
853.956	53.93
854.131	66.22
854.305	4.78
854.48	51.88
854.655	25.26
854.83	51.88
855.005	17.07
855.18	58.03
855.354	53.93
855.529	47.79
855.704	80.55
855.879	137.9
856.053	-5.46
856.228	31.4
856.403	23.21
856.577	76.46
856.752	29.35
856.926	78.51
857.101	21.16
857.276	-11.61
857.45	72.36
857.625	31.4
857.799	88.75
857.974	-1.37
858.148	23.21
858.323	78.51
858.497	10.92
858.672	88.75
858.846	-21.85
859.02	31.4
859.195	62.12
859.369	29.35
859.543	58.03
859.718	76.46
859.892	37.55
860.066	39.59
860.241	60.07
860.415	84.65
860.589	2.73
860.763	41.64
860.938	35.5
861.112	60.07
861.286	80.55
861.46	33.45
861.634	74.41
861.808	76.46
861.982	60.07
862.157	-38.23
862.331	-46.42
862.505	55.98
862.679	-17.75
862.853	47.79
863.027	-19.8
863.201	41.64
863.375	43.69
863.549	35.5
863.722	-19.8
863.896	55.98
864.07	43.69
864.244	27.31
864.418	31.4
864.592	21.16
864.766	39.59
864.939	21.16
865.113	0.68
865.287	60.07
865.461	80.55
865.634	68.27
865.808	-54.61
865.982	6.83
866.156	78.51
866.329	39.59
866.503	47.79
866.676	88.75
866.85	15.02
867.024	10.92
867.197	66.22
867.371	51.88
867.544	-38.23
867.718	58.03
867.891	49.83
868.065	6.83
868.238	-3.41
868.412	80.55
868.585	29.35
868.759	-5.46
868.932	39.59
869.105	17.07
869.279	23.21
869.452	33.45
869.625	-11.61
869.799	60.07
869.972	21.16
870.145	84.65
870.319	31.4
870.492	-21.85
870.665	39.59
870.838	27.31
871.011	19.11
871.185	6.83
871.358	-3.41
871.531	60.07
871.704	29.35
871.877	43.69
872.05	-50.52
872.223	39.59
872.396	39.59
872.569	49.83
872.742	6.83
872.915	94.89
873.088	31.4
873.261	29.35
873.434	15.02
873.607	-13.65
873.78	10.92
873.953	62.12
874.126	47.79
874.299	101.03
874.471	41.64
874.644	2.73
874.817	64.17
874.99	74.41
875.163	-15.7
875.335	115.37
875.508	39.59
875.681	176.81
875.853	-56.66
876.026	-5.46
876.199	53.93
876.371	6.83
876.544	62.12
876.717	15.02
876.889	12.97
877.062	21.16
877.234	55.98
877.407	105.13
877.579	-17.75
877.752	31.4
877.924	47.79
878.097	19.11
878.269	31.4
878.442	60.07
878.614	-38.23
878.786	92.84
878.959	-7.51
879.131	-30.04
879.303	29.35
879.476	17.07
879.648	96.94
879.82	-19.8
879.993	19.11
880.165	43.69
880.337	0.68
880.509	0.68
880.681	60.07
880.854	31.4
881.026	-13.65
881.198	23.21
881.37	-23.89
881.542	21.16
881.714	-30.04
881.886	17.07
882.058	29.35
882.23	98.99
882.402	12.97
882.574	39.59
882.746	49.83
882.918	-5.46
883.09	80.55
883.262	68.27
883.434	60.07
883.606	-5.46
883.778	49.83
883.95	-23.89
884.122	55.98
884.293	-5.46
884.465	2.73
884.637	84.65
884.809	25.26
884.98	45.74
885.152	23.21
885.324	29.35
885.496	15.02
885.667	6.83
885.839	-42.32
886.011	86.7
886.182	60.07
886.354	92.84
886.525	27.31
886.697	15.02
886.869	-11.61
887.04	23.21
887.212	4.78
887.383	33.45
887.555	31.4
887.726	-5.46
887.897	-56.66
888.069	8.87
888.24	66.22
888.412	37.55
888.583	70.31
888.754	58.03
888.926	-36.18
889.097	47.79
889.268	-38.23
889.44	90.79
889.611	-34.13
889.782	72.36
889.953	-25.94
890.125	53.93
890.296	19.11
890.467	-1.37
890.638	0.68
890.809	55.98
890.98	-11.61
891.151	-5.46
891.323	0.68
891.494	4.78
891.665	45.74
891.836	31.4
892.007	23.21
892.178	58.03
892.349	72.36
892.52	35.5
892.691	-30.04
892.862	12.97
893.032	12.97
893.203	33.45
893.374	-7.51
893.545	88.75
893.716	-42.32
893.887	-42.32
894.057	6.83
894.228	6.83
894.399	-36.18
894.57	-5.46
894.74	47.79
894.911	86.7
895.082	-73.04
895.253	-1.37
895.423	-15.7
895.594	107.18
895.764	21.16
895.935	17.07
896.106	64.17
896.276	64.17
896.447	19.11
896.617	-1.37
896.788	58.03
896.958	4.78
897.129	41.64
897.299	74.41
897.47	6.83
897.64	37.55
897.81	-23.89
897.981	84.65
898.151	-48.47
898.322	86.7
898.492	37.55
898.662	29.35
898.832	23.21
899.003	-62.8
899.173	-17.75
899.343	74.41
899.513	6.83
