Data from USB4F104151__281__11-12-53-500.txt Node

Date: Wed Mar 12 11:12:53 EDT 2025
User: louis
Spectrometer: USB4F10415
Trigger mode: 4
Integration Time (sec): 2.000000E-2
Scans to average: 1
Electric dark correction enabled: true
Nonlinearity correction enabled: false
Boxcar width: 0
XAxis mode: Wavelengths
Number of Pixels in Spectrum: 3648
>>>>>Begin Spectral Data<<<<<
178.204	-144.89
178.424	-144.89
178.644	-144.89
178.864	-67.07
179.084	-77.31
179.304	-3.58
179.524	-40.45
179.744	-46.59
179.964	8.7
180.184	-48.64
180.404	10.75
180.624	41.47
180.844	53.76
181.064	2.56
181.283	49.66
181.503	-3.58
181.723	-24.06
181.943	10.75
182.163	20.99
182.383	37.38
182.602	76.29
182.822	-30.21
183.042	-46.59
183.262	47.62
183.482	-9.73
183.701	41.47
183.921	94.72
184.141	-22.02
184.361	12.8
184.58	41.47
184.8	-32.26
185.02	8.7
185.239	35.33
185.459	-40.45
185.679	10.75
185.898	-1.54
186.118	-1.54
186.338	33.28
186.557	33.28
186.777	0.51
186.997	39.42
187.216	-24.06
187.436	80.38
187.655	51.71
187.875	2.56
188.095	33.28
188.314	41.47
188.534	29.18
188.753	47.62
188.973	-30.21
189.192	57.86
189.412	72.19
189.631	12.8
189.851	41.47
190.07	14.85
190.29	16.9
190.509	0.51
190.729	-9.73
190.948	45.57
191.168	109.05
191.387	66.05
191.607	-19.97
191.826	-11.78
192.045	-9.73
192.265	94.72
192.484	6.66
192.704	55.81
192.923	31.23
193.142	41.47
193.362	-3.58
193.581	53.76
193.8	35.33
194.02	51.71
194.239	33.28
194.458	8.7
194.678	80.38
194.897	18.94
195.116	-19.97
195.335	27.14
195.555	-26.11
195.774	68.09
195.993	-34.3
196.212	-15.87
196.432	-34.3
196.651	43.52
196.87	-5.63
197.089	41.47
197.308	-26.11
197.528	33.28
197.747	-38.4
197.966	-60.93
198.185	70.14
198.404	78.33
198.623	35.33
198.842	-5.63
199.062	47.62
199.281	39.42
199.5	23.04
199.719	23.04
199.938	31.23
200.157	18.94
200.376	23.04
200.595	53.76
200.814	66.05
201.033	-5.63
201.252	23.04
201.471	45.57
201.69	80.38
201.909	27.14
202.128	27.14
202.347	43.52
202.566	27.14
202.785	-38.4
203.004	10.75
203.223	39.42
203.442	6.66
203.661	12.8
203.879	53.76
204.098	16.9
204.317	-87.55
204.536	39.42
204.755	-13.82
204.974	51.71
205.193	18.94
205.411	47.62
205.63	84.48
205.849	-15.87
206.068	39.42
206.287	51.71
206.505	-24.06
206.724	0.51
206.943	8.7
207.162	14.85
207.381	6.66
207.599	29.18
207.818	-1.54
208.037	55.81
208.255	43.52
208.474	59.9
208.693	12.8
208.911	12.8
209.13	4.61
209.349	53.76
209.567	37.38
209.786	59.9
210.005	39.42
210.223	55.81
210.442	14.85
210.661	35.33
210.879	-95.74
211.098	-1.54
211.316	76.29
211.535	39.42
211.753	37.38
211.972	2.56
212.191	-28.16
212.409	23.04
212.628	109.05
212.846	23.04
213.065	41.47
213.283	55.81
213.502	-52.74
213.72	27.14
213.938	61.95
214.157	10.75
214.375	84.48
214.594	18.94
214.812	20.99
215.031	-62.98
215.249	2.56
215.467	31.23
215.686	-7.68
215.904	-5.63
216.122	-24.06
216.341	82.43
216.559	96.77
216.778	-30.21
216.996	43.52
217.214	-34.3
217.432	10.75
217.651	-5.63
217.869	29.18
218.087	92.67
218.306	27.14
218.524	109.05
218.742	-13.82
218.96	47.62
219.179	70.14
219.397	25.09
219.615	53.76
219.833	76.29
220.051	-34.3
220.27	-5.63
220.488	20.99
220.706	12.8
220.924	4.61
221.142	-50.69
221.36	6.66
221.578	-24.06
221.796	-42.5
222.015	74.24
222.233	82.43
222.451	33.28
222.669	-46.59
222.887	66.05
223.105	18.94
223.323	0.51
223.541	-26.11
223.759	25.09
223.977	-3.58
224.195	57.86
224.413	78.33
224.631	43.52
224.849	-5.63
225.067	70.14
225.285	-11.78
225.503	115.2
225.721	35.33
225.939	45.57
226.157	31.23
226.375	100.86
226.592	8.7
226.81	45.57
227.028	51.71
227.246	39.42
227.464	55.81
227.682	25.09
227.9	92.67
228.117	47.62
228.335	59.9
228.553	39.42
228.771	2.56
228.989	92.67
229.206	6.66
229.424	27.14
229.642	20.99
229.86	55.81
230.077	-3.58
230.295	4.61
230.513	12.8
230.731	37.38
230.948	68.09
231.166	39.42
231.384	41.47
231.601	53.76
231.819	70.14
232.037	-32.26
232.254	59.9
232.472	16.9
232.689	31.23
232.907	43.52
233.125	31.23
233.342	35.33
233.56	-3.58
233.777	18.94
233.995	29.18
234.213	8.7
234.43	53.76
234.648	6.66
234.865	64
235.083	-9.73
235.3	-5.63
235.518	14.85
235.735	35.33
235.953	82.43
236.17	64
236.388	8.7
236.605	35.33
236.822	80.38
237.04	-22.02
237.257	16.9
237.475	-42.5
237.692	-7.68
237.909	6.66
238.127	33.28
238.344	47.62
238.562	2.56
238.779	-11.78
238.996	33.28
239.214	-26.11
239.431	53.76
239.648	18.94
239.865	88.57
240.083	-34.3
240.3	8.7
240.517	39.42
240.735	16.9
240.952	107.01
241.169	27.14
241.386	37.38
241.603	23.04
241.821	37.38
242.038	53.76
242.255	51.71
242.472	8.7
242.689	78.33
242.907	33.28
243.124	-73.21
243.341	14.85
243.558	8.7
243.775	20.99
243.992	23.04
244.209	49.66
244.426	8.7
244.643	47.62
244.86	35.33
245.078	6.66
245.295	-17.92
245.512	72.19
245.729	-11.78
245.946	2.56
246.163	-36.35
246.38	-32.26
246.597	39.42
246.814	14.85
247.031	10.75
247.248	31.23
247.464	35.33
247.681	10.75
247.898	29.18
248.115	84.48
248.332	-46.59
248.549	53.76
248.766	-17.92
248.983	76.29
249.2	102.91
249.417	8.7
249.633	-17.92
249.85	31.23
250.067	72.19
250.284	100.86
250.501	18.94
250.717	25.09
250.934	51.71
251.151	-52.74
251.368	78.33
251.585	43.52
251.801	-30.21
252.018	18.94
252.235	45.57
252.451	6.66
252.668	41.47
252.885	6.66
253.102	2.56
253.318	76.29
253.535	-32.26
253.752	12.8
253.968	80.38
254.185	33.28
254.401	6.66
254.618	102.91
254.835	68.09
255.051	41.47
255.268	98.81
255.484	12.8
255.701	41.47
255.917	-15.87
256.134	113.15
256.351	-1.54
256.567	43.52
256.784	47.62
257	14.85
257.217	8.7
257.433	109.05
257.65	92.67
257.866	33.28
258.082	6.66
258.299	-15.87
258.515	57.86
258.732	-60.93
258.948	-1.54
259.165	4.61
259.381	55.81
259.597	49.66
259.814	31.23
260.03	88.57
260.246	-36.35
260.463	145.92
260.679	55.81
260.895	59.9
261.112	31.23
261.328	88.57
261.544	14.85
261.761	64
261.977	12.8
262.193	-26.11
262.409	-5.63
262.626	14.85
262.842	59.9
263.058	-42.5
263.274	23.04
263.49	-13.82
263.707	10.75
263.923	-42.5
264.139	29.18
264.355	31.23
264.571	6.66
264.787	-3.58
265.004	31.23
265.22	4.61
265.436	16.9
265.652	20.99
265.868	18.94
266.084	35.33
266.3	66.05
266.516	-52.74
266.732	2.56
266.948	59.9
267.164	70.14
267.38	94.72
267.596	29.18
267.812	80.38
268.028	-22.02
268.244	31.23
268.46	4.61
268.676	113.15
268.892	61.95
269.108	33.28
269.324	8.7
269.54	-11.78
269.756	-9.73
269.972	80.38
270.188	47.62
270.403	8.7
270.619	2.56
270.835	23.04
271.051	45.57
271.267	80.38
271.483	37.38
271.698	68.09
271.914	76.29
272.13	-32.26
272.346	49.66
272.562	43.52
272.777	27.14
272.993	45.57
273.209	6.66
273.425	4.61
273.64	35.33
273.856	43.52
274.072	-3.58
274.287	12.8
274.503	29.18
274.719	115.2
274.934	-3.58
275.15	47.62
275.366	-15.87
275.581	29.18
275.797	82.43
276.012	47.62
276.228	23.04
276.444	23.04
276.659	16.9
276.875	-30.21
277.09	-46.59
277.306	-56.83
277.521	10.75
277.737	-13.82
277.952	-1.54
278.168	-17.92
278.383	25.09
278.599	45.57
278.814	12.8
279.03	43.52
279.245	117.25
279.461	-30.21
279.676	39.42
279.892	18.94
280.107	25.09
280.322	8.7
280.538	47.62
280.753	18.94
280.969	14.85
281.184	43.52
281.399	66.05
281.615	23.04
281.83	61.95
282.045	53.76
282.26	18.94
282.476	-1.54
282.691	53.76
282.906	96.77
283.122	45.57
283.337	74.24
283.552	31.23
283.767	-5.63
283.983	39.42
284.198	92.67
284.413	25.09
284.628	23.04
284.843	-34.3
285.058	29.18
285.274	25.09
285.489	-19.97
285.704	45.57
285.919	20.99
286.134	-5.63
286.349	6.66
286.564	55.81
286.779	72.19
286.995	53.76
287.21	-13.82
287.425	64
287.64	-22.02
287.855	49.66
288.07	-30.21
288.285	59.9
288.5	74.24
288.715	102.91
288.93	37.38
289.145	-7.68
289.36	10.75
289.575	8.7
289.79	55.81
290.004	10.75
290.219	80.38
290.434	-1.54
290.649	-24.06
290.864	2.56
291.079	61.95
291.294	10.75
291.509	10.75
291.724	180.73
291.938	-36.35
292.153	27.14
292.368	45.57
292.583	-13.82
292.798	-5.63
293.012	68.09
293.227	66.05
293.442	49.66
293.657	51.71
293.871	14.85
294.086	31.23
294.301	64
294.516	39.42
294.73	20.99
294.945	14.85
295.16	51.71
295.374	76.29
295.589	51.71
295.804	12.8
296.018	43.52
296.233	94.72
296.447	-5.63
296.662	57.86
296.877	43.52
297.091	33.28
297.306	12.8
297.52	10.75
297.735	94.72
297.949	47.62
298.164	-11.78
298.378	55.81
298.593	10.75
298.807	74.24
299.022	102.91
299.236	37.38
299.451	-9.73
299.665	29.18
299.88	-52.74
300.094	-7.68
300.309	78.33
300.523	6.66
300.737	12.8
300.952	-26.11
301.166	-3.58
301.381	47.62
301.595	27.14
301.809	80.38
302.024	2.56
302.238	-5.63
302.452	119.29
302.667	41.47
302.881	66.05
303.095	-1.54
303.309	20.99
303.524	29.18
303.738	66.05
303.952	-17.92
304.166	51.71
304.381	-13.82
304.595	66.05
304.809	-34.3
305.023	2.56
305.237	16.9
305.452	23.04
305.666	61.95
305.88	35.33
306.094	104.96
306.308	29.18
306.522	35.33
306.736	27.14
306.95	43.52
307.164	-17.92
307.379	41.47
307.593	86.53
307.807	37.38
308.021	47.62
308.235	31.23
308.449	68.09
308.663	27.14
308.877	123.39
309.091	-5.63
309.305	-30.21
309.519	-58.88
309.733	47.62
309.947	8.7
310.161	55.81
310.374	-3.58
310.588	49.66
310.802	37.38
311.016	16.9
311.23	8.7
311.444	-40.45
311.658	-28.16
311.872	16.9
312.085	35.33
312.299	98.81
312.513	70.14
312.727	10.75
312.941	-69.12
313.154	47.62
313.368	104.96
313.582	68.09
313.796	59.9
314.009	72.19
314.223	139.77
314.437	14.85
314.651	8.7
314.864	-11.78
315.078	-1.54
315.292	6.66
315.505	-1.54
315.719	0.51
315.933	70.14
316.146	113.15
316.36	35.33
316.573	18.94
316.787	88.57
317.001	16.9
317.214	47.62
317.428	39.42
317.641	74.24
317.855	66.05
318.068	-5.63
318.282	14.85
318.495	78.33
318.709	94.72
318.922	-5.63
319.136	55.81
319.349	61.95
319.563	-11.78
319.776	16.9
319.99	14.85
320.203	39.42
320.417	70.14
320.63	86.53
320.843	90.62
321.057	25.09
321.27	14.85
321.483	43.52
321.697	82.43
321.91	10.75
322.124	-5.63
322.337	-9.73
322.55	-36.35
322.763	100.86
322.977	53.76
323.19	66.05
323.403	57.86
323.617	51.71
323.83	66.05
324.043	-24.06
324.256	12.8
324.469	43.52
324.683	16.9
324.896	23.04
325.109	45.57
325.322	-17.92
325.535	29.18
325.748	43.52
325.962	96.77
326.175	-1.54
326.388	29.18
326.601	47.62
326.814	23.04
327.027	72.19
327.24	61.95
327.453	-50.69
327.666	55.81
327.879	53.76
328.092	57.86
328.305	23.04
328.518	-50.69
328.731	43.52
328.944	66.05
329.157	31.23
329.37	18.94
329.583	12.8
329.796	45.57
330.009	-11.78
330.222	35.33
330.435	64
330.648	64
330.861	45.57
331.073	41.47
331.286	78.33
331.499	53.76
331.712	2.56
331.925	43.52
332.138	74.24
332.35	125.44
332.563	51.71
332.776	61.95
332.989	53.76
333.202	-24.06
333.414	12.8
333.627	72.19
333.84	74.24
334.053	6.66
334.265	31.23
334.478	49.66
334.691	-32.26
334.903	59.9
335.116	-13.82
335.329	31.23
335.541	35.33
335.754	94.72
335.966	-11.78
336.179	70.14
336.392	-26.11
336.604	109.05
336.817	-5.63
337.029	-9.73
337.242	57.86
337.454	70.14
337.667	8.7
337.88	82.43
338.092	18.94
338.305	55.81
338.517	16.9
338.729	94.72
338.942	0.51
339.154	64
339.367	23.04
339.579	72.19
339.792	88.57
340.004	100.86
340.217	-1.54
340.429	109.05
340.641	-22.02
340.854	45.57
341.066	-56.83
341.278	-5.63
341.491	90.62
341.703	31.23
341.915	78.33
342.128	20.99
342.34	4.61
342.552	6.66
342.764	23.04
342.977	-67.07
343.189	68.09
343.401	43.52
343.613	25.09
343.826	-1.54
344.038	74.24
344.25	6.66
344.462	-32.26
344.674	70.14
344.886	129.53
345.099	-26.11
345.311	0.51
345.523	68.09
345.735	-36.35
345.947	-22.02
346.159	35.33
346.371	-19.97
346.583	29.18
346.795	70.14
347.007	-38.4
347.219	37.38
347.431	31.23
347.643	33.28
347.855	55.81
348.067	47.62
348.279	23.04
348.491	-19.97
348.703	12.8
348.915	25.09
349.127	68.09
349.339	45.57
349.551	72.19
349.763	41.47
349.975	119.29
350.187	82.43
350.399	61.95
350.61	39.42
350.822	74.24
351.034	-3.58
351.246	66.05
351.458	104.96
351.669	18.94
351.881	12.8
352.093	-40.45
352.305	64
352.517	31.23
352.728	55.81
352.94	80.38
353.152	35.33
353.363	-1.54
353.575	47.62
353.787	82.43
353.999	43.52
354.21	88.57
354.422	-3.58
354.633	-1.54
354.845	49.66
355.057	51.71
355.268	59.9
355.48	76.29
355.692	-1.54
355.903	14.85
356.115	35.33
356.326	35.33
356.538	100.86
356.749	0.51
356.961	115.2
357.172	33.28
357.384	-11.78
357.595	141.82
357.807	35.33
358.018	78.33
358.23	109.05
358.441	16.9
358.653	152.06
358.864	2.56
359.075	31.23
359.287	20.99
359.498	104.96
359.709	80.38
359.921	92.67
360.132	27.14
360.344	76.29
360.555	55.81
360.766	61.95
360.977	23.04
361.189	100.86
361.4	14.85
361.611	98.81
361.823	68.09
362.034	68.09
362.245	20.99
362.456	37.38
362.667	37.38
362.879	119.29
363.09	12.8
363.301	6.66
363.512	90.62
363.723	-11.78
363.935	6.66
364.146	49.66
364.357	39.42
364.568	96.77
364.779	31.23
364.99	76.29
365.201	14.85
365.412	55.81
365.623	-3.58
365.834	96.77
366.045	6.66
366.256	115.2
366.467	72.19
366.678	113.15
366.889	49.66
367.1	55.81
367.311	27.14
367.522	76.29
367.733	39.42
367.944	14.85
368.155	59.9
368.366	113.15
368.577	107.01
368.788	49.66
368.999	43.52
369.209	33.28
369.42	137.73
369.631	98.81
369.842	25.09
370.053	74.24
370.264	8.7
370.474	72.19
370.685	-15.87
370.896	68.09
371.107	31.23
371.317	80.38
371.528	-1.54
371.739	18.94
371.95	43.52
372.16	70.14
372.371	8.7
372.582	27.14
372.792	102.91
373.003	74.24
373.214	47.62
373.424	47.62
373.635	104.96
373.846	88.57
374.056	-40.45
374.267	8.7
374.477	-13.82
374.688	35.33
374.898	-9.73
375.109	78.33
375.319	61.95
375.53	86.53
375.74	14.85
375.951	12.8
376.161	8.7
376.372	117.25
376.582	25.09
376.793	55.81
377.003	12.8
377.214	29.18
377.424	45.57
377.635	37.38
377.845	80.38
378.055	14.85
378.266	23.04
378.476	96.77
378.686	37.38
378.897	33.28
379.107	76.29
379.317	64
379.528	20.99
379.738	92.67
379.948	31.23
380.158	64
380.369	51.71
380.579	27.14
380.789	31.23
380.999	88.57
381.21	-17.92
381.42	74.24
381.63	78.33
381.84	72.19
382.05	84.48
382.261	109.05
382.471	78.33
382.681	115.2
382.891	29.18
383.101	53.76
383.311	82.43
383.521	61.95
383.731	80.38
383.941	133.63
384.151	59.9
384.361	10.75
384.571	98.81
384.781	94.72
384.991	147.97
385.201	137.73
385.411	84.48
385.621	78.33
385.831	111.1
386.041	86.53
386.251	-9.73
386.461	104.96
386.671	35.33
386.881	35.33
387.091	-22.02
387.301	104.96
387.511	72.19
387.72	125.44
387.93	59.9
388.14	39.42
388.35	109.05
388.56	80.38
388.769	53.76
388.979	59.9
389.189	47.62
389.399	121.34
389.609	35.33
389.818	55.81
390.028	41.47
390.238	84.48
390.447	86.53
390.657	70.14
390.867	43.52
391.076	39.42
391.286	115.2
391.496	66.05
391.705	64
391.915	121.34
392.125	102.91
392.334	92.67
392.544	55.81
392.753	23.04
392.963	115.2
393.172	96.77
393.382	70.14
393.591	86.53
393.801	-7.68
394.01	49.66
394.22	66.05
394.429	123.39
394.639	59.9
394.848	51.71
395.058	82.43
395.267	35.33
395.477	55.81
395.686	76.29
395.895	84.48
396.105	90.62
396.314	64
396.524	70.14
396.733	76.29
396.942	127.49
397.152	45.57
397.361	197.12
397.57	88.57
397.78	104.96
397.989	86.53
398.198	166.4
398.407	143.87
398.617	55.81
398.826	135.68
399.035	74.24
399.244	84.48
399.453	121.34
399.663	88.57
399.872	125.44
400.081	49.66
400.29	90.62
400.499	82.43
400.708	29.18
400.917	109.05
401.127	109.05
401.336	47.62
401.545	174.59
401.754	76.29
401.963	141.82
402.172	156.16
402.381	156.16
402.59	92.67
402.799	80.38
403.008	72.19
403.217	109.05
403.426	115.2
403.635	141.82
403.844	113.15
404.053	98.81
404.262	201.21
404.471	166.4
404.68	240.12
404.888	113.15
405.097	98.81
405.306	178.69
405.515	107.01
405.724	137.73
405.933	150.01
406.142	248.32
406.35	227.84
406.559	264.7
406.768	229.88
406.977	215.55
407.185	246.27
407.394	158.21
407.603	207.36
407.812	211.45
408.02	324.09
408.229	223.74
408.438	307.71
408.646	160.25
408.855	252.41
409.064	256.51
409.272	274.94
409.481	299.52
409.69	309.76
409.898	322.04
410.107	299.52
410.315	305.66
410.524	322.04
410.733	336.38
410.941	299.52
411.15	432.63
411.358	385.53
411.567	375.29
411.775	406.01
411.984	406.01
412.192	430.59
412.401	467.45
412.609	504.31
412.818	516.6
413.026	547.32
413.234	535.03
413.443	569.85
413.651	594.42
413.86	604.66
414.068	623.09
414.276	678.39
414.485	690.68
414.693	655.86
414.901	680.44
415.11	737.78
415.318	619
415.526	745.97
415.734	801.27
415.943	815.6
416.151	891.38
416.359	922.1
416.567	922.1
416.776	936.43
416.984	1077.74
417.192	997.87
417.4	1014.26
417.608	991.73
417.817	1036.78
418.025	1118.7
418.233	1268.2
418.441	1233.39
418.649	1253.87
418.857	1239.53
419.065	1360.36
419.273	1395.18
419.481	1362.41
419.689	1536.49
419.897	1550.82
420.105	1520.1
420.313	1565.16
420.521	1630.7
420.729	1593.83
420.937	1798.63
421.145	1839.59
421.353	1819.11
421.561	1931.75
421.769	1960.42
421.977	2056.67
422.185	1995.23
422.393	2251.23
422.601	2271.71
422.809	2240.99
423.017	2392.54
423.224	2472.41
423.432	2496.99
423.64	2576.86
423.848	2800.09
424.056	2734.55
424.263	2965.97
424.471	2871.76
424.679	3058.13
424.887	3209.68
425.094	3258.83
425.302	3279.31
425.51	3336.65
425.718	3523.02
425.925	3611.08
426.133	3699.14
426.341	3930.56
426.548	4043.2
426.756	3985.86
426.964	4178.37
427.171	4319.68
427.379	4407.74
427.586	4479.42
427.794	4659.64
428.001	4925.88
428.209	5007.8
428.417	4954.55
428.624	5462.44
428.832	5398.96
429.039	5300.66
429.247	5482.92
429.454	5921.19
429.662	6363.55
429.869	5898.66
430.076	6148.51
430.284	6062.5
430.491	6252.96
430.699	6588.83
430.906	6728.09
431.114	6740.38
431.321	7029.14
431.528	7252.37
431.736	7485.84
431.943	7924.1
432.15	7838.09
432.358	7678.35
432.565	8108.42
432.772	8235.39
432.979	8612.22
433.187	8874.36
433.394	8802.68
433.601	9527.66
433.808	9546.09
434.016	9384.3
434.223	9884.01
434.43	10494.3
434.637	10324.32
434.844	10852.7
435.052	11145.56
435.259	11057.5
435.466	11082.07
435.673	11116.89
435.88	11870.54
436.087	12142.92
436.294	12366.15
436.501	12106.06
436.708	12343.62
436.915	12570.94
437.122	13343.03
437.329	13437.23
437.537	13613.36
437.743	13744.43
437.95	13809.97
438.157	14160.17
438.364	15151.38
438.571	14823.71
438.778	15214.87
438.985	16294.15
439.192	15769.87
439.399	16249.1
439.606	15909.13
439.813	16679.17
440.02	17998.06
440.227	17330.42
440.433	17436.92
440.64	17682.67
440.847	17604.85
441.054	18276.59
441.261	19439.83
441.467	18981.09
441.674	19810.51
441.881	20232.4
442.088	20234.44
442.294	19890.38
442.501	20744.39
442.708	21117.12
442.914	21731.51
443.121	22800.55
443.328	22100.14
443.534	23685.27
443.741	23077.02
443.948	22618.28
444.154	24309.9
444.361	24139.92
444.568	24205.45
444.774	24385.68
444.981	24613
445.187	25180.29
445.394	26370.16
445.6	25940.08
445.807	28557.39
446.013	27539.55
446.22	27981.91
446.426	28954.69
446.633	29263.94
446.839	30117.94
447.046	29053
447.252	30097.46
447.459	30574.64
447.665	30257.2
447.871	31561.76
448.078	33251.33
448.284	31473.7
448.491	32133.14
448.697	33345.54
448.903	33953.79
449.11	34187.25
449.316	33382.4
449.522	34172.92
449.728	35190.76
449.935	35520.48
450.141	35260.39
450.347	36134.87
450.553	34863.08
450.76	35803.1
450.966	36085.72
451.172	36229.08
451.378	36997.07
451.584	36470.74
451.791	37222.34
451.997	37468.1
452.203	37580.74
452.409	37343.17
452.615	37392.33
452.821	35989.47
453.027	35719.13
453.233	37777.34
453.44	35745.76
453.646	36540.37
453.852	36620.24
454.058	37345.22
454.264	35962.84
454.47	36523.99
454.676	35688.42
454.882	37236.68
455.088	33576.96
455.294	34179.06
455.5	34719.73
455.705	35428.32
455.911	33439.75
456.117	33132.55
456.323	32682
456.529	30838.83
456.735	32006.17
456.941	31531.04
457.147	30887.98
457.352	29915.19
457.558	29818.94
457.764	29546.56
457.97	28952.65
458.176	28590.16
458.381	28645.45
458.587	26916.97
458.793	27357.28
458.999	25690.23
459.204	27383.9
459.41	26816.61
459.616	25227.39
459.821	24864.9
460.027	25038.98
460.233	24621.19
460.438	23013.54
460.644	23400.6
460.85	22208.69
461.055	22165.68
461.261	21973.17
461.466	20312.27
461.672	19755.22
461.878	21242.04
462.083	20005.07
462.289	19747.03
462.494	19333.34
462.7	18591.97
462.905	17965.29
463.111	18497.77
463.316	18555.11
463.522	18147.56
463.727	18192.62
463.932	18141.42
464.138	18184.43
464.343	18323.69
464.549	17670.39
464.754	18206.95
464.959	17875.18
465.165	18079.98
465.37	17297.66
465.575	16693.51
465.781	17375.48
465.986	17742.07
466.191	16900.35
466.397	16468.23
466.602	15685.9
466.807	16290.06
467.012	16451.84
467.218	16343.3
467.423	16023.82
467.628	16128.27
467.833	16795.9
468.038	16019.72
468.244	15835.41
468.449	16560.39
468.654	15857.93
468.859	15548.69
469.064	15663.38
469.269	15081.75
469.474	15229.21
469.679	15427.86
469.885	14981.4
470.09	15225.11
470.295	15274.26
470.5	14866.72
470.705	14674.21
470.91	14205.22
471.115	14270.76
471.32	14522.66
471.525	14231.85
471.73	13930.8
471.935	13990.19
472.139	13383.99
472.344	13936.94
472.549	13590.83
472.754	13519.15
472.959	13365.56
473.164	12931.39
473.369	12892.48
473.574	13402.42
473.778	13070.65
473.983	13019.45
474.188	12882.24
474.393	12360
474.598	12310.85
474.802	12128.58
475.007	12175.69
475.212	12155.21
475.417	11948.36
475.621	11790.67
475.826	12036.42
476.031	11518.29
476.235	11460.95
476.44	11786.57
476.645	11362.64
476.849	11313.49
477.054	11139.41
477.259	11045.21
477.463	11104.6
477.668	10869.08
477.872	10975.58
478.077	10846.55
478.282	10588.51
478.486	10680.67
478.691	10387.81
478.895	10250.6
479.1	10344.8
479.304	10168.68
479.509	10037.61
479.713	10068.33
479.918	9873.77
480.122	9699.69
480.326	10119.53
480.531	9797.99
480.735	9771.37
480.94	9617.77
481.144	9980.26
481.348	9542
481.553	9562.48
481.757	9427.31
481.961	9634.16
482.166	9787.75
482.37	9767.27
482.574	9349.49
482.778	9625.97
482.983	9652.59
483.187	9501.04
483.391	9615.73
483.595	9304.43
483.8	9439.6
484.004	9365.87
484.208	9630.06
484.412	9535.85
484.616	9533.81
484.821	9544.05
485.025	9476.46
485.229	9695.6
485.433	9492.85
485.637	9337.2
485.841	9460.08
486.045	9474.42
486.249	9306.48
486.453	9333.11
486.657	9460.08
486.861	9576.81
487.065	9339.25
487.269	9337.2
487.473	9271.67
487.677	9363.83
487.881	9523.57
488.085	9685.36
488.289	9537.9
488.493	9505.13
488.697	9517.42
488.901	9703.79
489.105	9453.94
489.309	9562.48
489.512	9621.87
489.716	9476.46
489.92	9607.53
490.124	9789.8
490.328	9900.39
490.531	9439.6
490.735	9623.92
490.939	9912.68
491.143	9636.2
491.346	9867.63
491.55	9836.91
491.754	9677.16
491.958	9910.63
492.161	10017.13
492.365	9996.65
492.569	9953.64
492.772	10078.57
492.976	10090.85
493.18	10226.02
493.383	10283.36
493.587	10305.89
493.79	10660.19
493.994	10176.87
494.197	10367.33
494.401	10572.13
494.605	10682.72
494.808	10684.76
495.012	10844.51
495.215	10652
495.419	10826.07
495.622	10889.56
495.825	11069.78
496.029	11114.84
496.232	11153.75
496.436	11159.89
496.639	11723.09
496.843	11487.57
497.046	11532.62
497.249	11931.98
497.453	11848.01
497.656	11770.19
497.859	12151.11
498.063	12087.62
498.266	12441.92
498.469	12228.93
498.673	12372.29
498.876	12480.83
499.079	12671.29
499.282	12695.87
499.485	13060.41
499.689	13123.9
499.892	13259.06
500.095	13306.16
500.298	13621.55
500.501	13650.22
500.705	14035.24
500.908	14053.67
501.111	14219.56
501.314	14336.29
501.517	14487.84
501.72	14604.58
501.923	14596.39
502.126	14924.06
502.329	15302.93
502.532	15157.53
502.735	15341.85
502.938	15423.76
503.141	15673.62
503.344	15982.86
503.547	15821.07
503.75	16032.01
503.953	16476.42
504.156	16636.16
504.359	16859.39
504.562	16828.67
504.765	17107.19
504.968	17334.52
505.17	17588.47
505.373	17672.43
505.576	17737.97
505.779	17873.14
505.982	18086.12
506.185	18712.8
506.387	18288.87
506.59	18630.88
506.793	18880.74
506.996	18919.65
507.198	19595.48
507.401	19566.81
507.604	19577.05
507.807	20080.85
508.009	20191.44
508.212	20197.58
508.415	20267.21
508.617	20416.71
508.82	20781.25
509.022	20981.95
509.225	21287.1
509.428	21661.88
509.63	21471.42
509.833	21612.73
510.035	22216.88
510.238	22180.01
510.44	22296.75
510.643	22917.28
510.845	22775.97
511.048	22898.85
511.25	22941.86
511.453	23199.9
511.655	24195.21
511.858	23869.59
512.06	24301.71
512.262	24266.89
512.465	24072.34
512.667	24955.01
512.87	25084.03
513.072	25165.95
513.274	25897.08
513.477	25983.09
513.679	25911.41
513.881	26228.85
514.084	26409.07
514.286	26472.56
514.488	26591.34
514.69	27406.43
514.893	27592.79
515.095	27687
515.297	27781.21
515.499	28010.58
515.701	28133.46
515.904	28751.95
516.106	28688.46
516.308	28880.97
516.51	29233.22
516.712	29028.42
516.914	29634.62
517.116	29829.18
517.318	30091.32
517.52	29990.97
517.722	30433.33
517.925	30709.8
518.127	31078.44
518.329	31361.06
518.531	31535.13
518.733	31981.59
518.935	31891.48
519.136	32165.91
519.338	32675.85
519.54	32505.87
519.742	33038.34
519.944	33433.6
520.146	33558.53
520.348	33562.62
520.55	33943.55
520.752	33818.62
520.954	34555.89
521.155	34510.83
521.357	34625.52
521.559	35315.69
521.761	35549.15
521.963	35360.74
522.164	35616.74
522.366	35799.01
522.568	36059.1
522.77	36292.57
522.971	36444.12
523.173	36433.88
523.375	37126.09
523.576	36919.24
523.778	36913.1
523.98	37171.14
524.181	37969.85
524.383	37662.66
524.584	38242.23
524.786	37982.14
524.988	37844.93
525.189	38633.39
525.391	38850.48
525.592	39208.87
525.794	39067.56
525.995	39493.54
526.197	39393.19
526.398	39341.99
526.6	39477.16
526.801	39655.33
527.003	39831.46
527.204	40044.44
527.406	39841.7
527.607	40148.89
527.808	40554.39
528.01	39935.9
528.211	39896.99
528.412	40931.22
528.614	41219.98
528.815	40587.16
529.016	41355.14
529.218	40943.5
529.419	40992.65
529.62	41160.59
529.822	41461.64
530.023	41453.45
530.224	41234.31
530.425	41181.07
530.626	40738.71
530.828	41172.88
531.029	42016.64
531.23	41525.13
531.431	41547.65
531.632	41467.78
531.833	41492.36
532.035	41713.54
532.236	41920.38
532.437	42059.65
532.638	41443.21
532.839	42121.09
533.04	42194.81
533.241	41512.84
533.442	42420.09
533.643	42243.96
533.844	42262.4
534.045	41725.83
534.246	42053.5
534.447	42276.73
534.648	41844.61
534.849	42448.76
535.05	42352.51
535.251	42041.21
535.451	42004.35
535.652	42389.37
535.853	42033.02
536.054	42180.48
536.255	42612.6
536.456	41949.06
536.657	42473.34
536.857	41672.58
537.058	42024.83
537.259	42461.05
537.46	42358.65
537.66	41916.29
537.861	42534.77
538.062	42180.48
538.263	42510.2
538.463	41912.19
538.664	42260.35
538.865	42434.42
539.065	42717.04
539.266	41650.05
539.466	42205.05
539.667	41820.03
539.868	42268.54
540.068	41885.57
540.269	41944.96
540.469	42516.34
540.67	42233.72
540.87	42555.25
541.071	42004.35
541.271	42186.62
541.472	42110.85
541.672	41713.54
541.873	41967.49
542.073	41539.46
542.274	42370.94
542.474	41828.23
542.675	41594.76
542.875	42008.45
543.075	41906.05
543.276	41518.98
543.476	42121.09
543.676	41576.33
543.877	42182.52
544.077	41715.59
544.277	41549.7
544.478	41750.4
544.678	42258.3
544.878	42278.78
545.078	41953.15
545.279	41627.52
545.479	41492.36
545.679	42147.71
545.879	42178.43
546.079	42024.83
546.28	41594.76
546.48	41297.8
546.68	41697.16
546.88	41811.84
547.08	42033.02
547.28	41613.19
547.48	41355.14
547.68	41957.25
547.88	41154.44
548.081	41977.73
548.281	41914.24
548.481	41533.32
548.681	42051.45
548.881	41770.88
549.081	41744.26
549.28	41349
549.48	41881.47
549.68	41709.44
549.88	42237.82
550.08	41359.24
550.28	41650.05
550.48	41346.95
550.68	41969.54
550.88	41576.33
551.08	41402.25
551.279	41740.16
551.479	41176.97
551.679	41320.33
551.879	41234.31
552.079	41473.93
552.278	41469.83
552.478	41236.36
552.678	41402.25
552.878	41238.41
553.077	41238.41
553.277	41398.15
553.477	41924.48
553.676	41308.04
553.876	41480.07
554.076	41131.92
554.275	41246.6
554.475	40941.46
554.674	41340.81
554.874	40906.64
555.074	41187.21
555.273	40724.37
555.473	41113.48
555.672	41113.48
555.872	41213.84
556.071	41074.57
556.271	41363.34
556.47	40787.86
556.67	40826.77
556.869	40906.64
557.068	40822.67
557.268	40476.57
557.467	40791.95
557.667	40820.63
557.866	40757.14
558.065	40804.24
558.265	40378.26
558.464	40345.5
558.663	40507.29
558.863	40085.4
559.062	40634.26
559.261	40040.35
559.461	40603.54
559.66	40253.34
559.859	40499.09
560.058	40122.27
560.258	39907.23
560.457	39718.82
560.656	40476.57
560.855	39890.85
561.054	40222.62
561.253	39767.97
561.453	39772.07
561.652	40157.08
561.851	39851.94
562.05	39458.73
562.249	39505.83
562.448	39792.54
562.647	39649.19
562.846	39616.42
563.045	39729.06
563.244	39014.32
563.443	39716.77
563.642	38920.11
563.841	39401.38
564.04	38959.02
564.239	39673.76
564.438	39069.61
564.637	39354.28
564.836	38995.88
565.035	38404.02
565.234	38899.63
565.432	38436.79
565.631	38500.28
565.83	38844.34
566.029	38657.97
566.228	38469.56
566.427	38627.25
566.625	38064.06
566.824	37654.47
567.023	38330.3
567.222	37519.3
567.42	38662.07
567.619	38074.3
567.818	37863.36
568.016	37980.09
568.215	38225.85
568.414	37844.93
568.612	37873.6
568.811	37767.1
569.01	37791.68
569.208	37347.27
569.407	37633.99
569.605	37105.61
569.804	38014.91
570.002	37013.45
570.201	37593.03
570.4	36835.28
570.598	36693.97
570.797	36528.08
570.995	37355.46
571.193	36577.23
571.392	37140.43
571.59	36593.62
571.789	36966.35
571.987	36386.77
572.186	36638.67
572.384	36284.37
572.582	36884.43
572.781	36446.16
572.979	36036.57
573.177	36153.3
573.376	36458.45
573.574	35557.35
573.772	35971.04
573.971	35874.78
574.169	35665.89
574.367	35723.23
574.565	35712.99
574.763	35661.79
574.962	35364.84
575.16	35092.46
575.358	35364.84
575.556	34996.2
575.754	35794.91
575.952	34983.91
576.151	35340.26
576.349	34850.8
576.547	34686.96
576.745	34742.25
576.943	34717.68
577.141	34836.46
577.339	34766.83
577.537	34166.77
577.735	34430.96
577.933	34684.91
578.131	34328.56
578.329	34029.56
578.527	34125.82
578.725	33654.78
578.923	33857.53
579.121	34181.11
579.319	33634.3
579.516	33966.07
579.714	33675.26
579.912	33519.62
580.11	34058.23
580.308	33677.31
580.506	33337.35
580.704	33130.5
580.901	33402.88
581.099	33314.82
581.297	33173.51
581.495	33112.07
581.692	33265.67
581.89	32636.94
582.088	32954.38
582.285	32653.33
582.483	32993.29
582.681	32770.06
582.878	32948.23
583.076	32145.43
583.274	32874.51
583.471	31893.53
583.669	32182.29
583.866	32137.24
584.064	31963.16
584.262	31946.78
584.459	32423.95
584.657	31901.72
584.854	32333.84
585.052	31563.81
585.249	31735.84
585.447	31647.77
585.644	31272.99
585.841	31420.45
586.039	31516.7
586.236	31143.97
586.434	31043.62
586.631	31246.37
586.828	31215.65
587.026	30930.98
587.223	30912.55
587.42	31014.95
587.618	31037.48
587.815	30400.56
588.012	30431.28
588.21	30369.84
588.407	30847.02
588.604	30281.78
588.801	30062.65
588.999	30011.45
589.196	30091.32
589.393	29941.82
589.59	29732.92
589.787	29534.27
589.984	29808.7
590.182	29265.99
590.379	29665.34
590.576	29345.86
590.773	29548.61
590.97	29274.18
591.167	29487.17
591.364	29114.44
591.561	29118.53
591.758	28813.38
591.955	29118.53
592.152	29122.63
592.349	28903.49
592.546	28725.32
592.743	28723.27
592.94	27850.84
593.137	28653.64
593.334	28723.27
593.531	28256.34
593.727	28258.38
593.924	28194.9
594.121	27971.67
594.318	28266.58
594.515	27709.53
594.712	28045.4
594.908	27537.5
595.105	27992.15
595.302	27476.06
595.499	27615.32
595.696	27451.49
595.892	27295.84
596.089	27228.26
596.286	27656.28
596.482	27195.49
596.679	27275.36
596.876	27445.34
597.072	27082.85
597.269	26906.73
597.466	26671.21
597.662	26804.33
597.859	26939.49
598.055	26984.55
598.252	26581.1
598.448	26378.35
598.645	26314.86
598.841	26331.25
599.038	26071.15
599.234	26040.43
599.431	25942.13
599.627	25792.63
599.824	26128.5
600.02	26079.35
600.217	26017.91
600.413	25829.49
600.609	25720.95
600.806	25477.24
601.002	25532.54
601.198	25305.21
601.395	25387.13
601.591	25131.14
601.787	25628.79
601.984	25294.97
602.18	25235.58
602.376	25233.53
602.572	25170.05
602.769	24879.24
602.965	24725.64
603.161	24799.37
603.357	24651.91
603.553	24631.43
603.75	24918.15
603.946	24277.13
604.142	24500.36
604.338	24129.68
604.534	24514.7
604.73	24240.27
604.926	24092.82
605.122	24029.33
605.318	23738.52
605.514	23879.83
605.71	23890.07
605.906	23812.24
606.102	23593.11
606.298	23564.44
606.494	23898.26
606.69	23652.5
606.886	23568.54
607.082	23333.02
607.278	23414.94
607.474	23195.81
607.67	23220.38
607.866	22945.95
608.062	23462.04
608.257	22986.91
608.453	23208.09
608.649	23259.29
608.845	22890.66
609.041	22907.04
609.236	22839.46
609.432	23031.97
609.628	22839.46
609.824	22675.62
610.019	22671.53
610.215	22753.44
610.411	22843.56
610.606	22626.47
610.802	23083.17
610.998	22423.72
611.193	22493.35
611.389	22368.43
611.584	22694.05
611.78	22124.72
611.976	22239.4
612.171	22290.6
612.367	22223.02
612.562	22214.83
612.758	22083.76
612.953	21850.29
613.149	22055.09
613.344	21930.16
613.539	22280.36
613.735	21995.7
613.93	22298.8
614.126	21868.72
614.321	21983.41
614.517	21657.78
614.712	21670.07
614.907	21805.24
615.103	21907.63
615.298	21672.12
615.493	21838
615.688	21348.54
615.884	21844.15
616.079	21250.24
616.274	21674.17
616.47	21366.97
616.665	21717.17
616.86	21317.82
617.055	21328.06
617.25	21188.8
617.445	21561.53
617.641	20814.02
617.836	21180.6
618.031	20766.92
618.226	20891.84
618.421	20605.13
618.616	20984
618.811	20474.06
619.006	21209.28
619.201	20517.06
619.396	20564.17
619.591	20283.59
619.786	20496.58
619.981	20048.08
620.176	20216.01
620.371	20197.58
620.566	20222.16
620.761	20146.38
620.956	20189.39
621.151	19769.55
621.346	20164.81
621.541	19613.91
621.735	19945.68
621.93	19355.86
622.125	19656.92
622.32	19144.92
622.515	19437.78
622.709	19132.64
622.904	19157.21
623.099	19212.51
623.294	18942.17
623.488	18753.76
623.683	18503.91
623.878	18360.55
624.072	18663.65
624.267	18149.61
624.462	18536.68
624.656	18118.89
624.851	17864.94
625.046	18053.36
625.24	17897.71
625.435	17572.08
625.629	17768.69
625.824	17662.19
626.018	17527.03
626.213	17176.83
626.407	17598.71
626.602	17117.43
626.796	17441.01
626.991	17283.32
627.185	17088.76
627.38	17205.5
627.574	16660.74
627.768	16695.55
627.963	16533.76
628.157	16582.91
628.352	16587.01
628.546	16185.61
628.74	16552.2
628.935	16191.75
629.129	15995.15
629.323	15876.37
629.517	15702.29
629.712	15831.31
629.906	15788.3
630.1	15552.79
630.294	15825.17
630.489	15534.35
630.683	15716.62
630.877	15343.89
631.071	15237.4
631.265	15431.96
631.459	15366.42
631.653	15024.41
631.848	15147.29
632.042	14823.71
632.236	14932.25
632.43	14561.57
632.624	14659.87
632.818	14414.12
633.012	14543.14
633.206	14450.98
633.4	14493.99
633.594	14276.9
633.788	14317.86
633.982	14362.92
634.176	14184.74
634.369	14051.63
634.563	14190.89
634.757	13799.73
634.951	13910.32
635.145	13750.57
635.339	13736.24
635.533	13580.59
635.726	13609.26
635.92	13631.79
636.114	13721.9
636.308	13484.34
636.501	13400.37
636.695	13259.06
636.889	13035.83
637.083	13160.76
637.276	13050.17
637.47	12996.92
637.664	12947.77
637.857	12749.12
638.051	12745.02
638.244	12781.88
638.438	12652.86
638.632	12652.86
638.825	12534.08
639.019	12423.49
639.212	12409.15
639.406	12441.92
639.599	12398.91
639.793	12273.99
639.986	12147.01
640.18	11983.18
640.373	12093.77
640.567	12099.91
640.76	11837.77
640.954	11594.06
641.147	11884.87
641.34	11577.68
641.534	11669.84
641.727	11551.06
641.92	11637.07
642.114	11608.4
642.307	11592.02
642.5	11305.3
642.694	11110.74
642.887	11290.96
643.08	11141.46
643.273	11327.83
643.467	11135.32
643.66	11149.65
643.853	10985.82
644.046	10828.12
644.239	10746.2
644.432	10815.83
644.626	10774.88
644.819	10682.72
645.012	10692.96
645.205	10594.65
645.398	10729.82
645.591	10275.17
645.784	10406.24
645.977	10365.28
646.17	10467.68
646.363	10434.91
646.556	10156.39
646.749	10180.96
646.942	10207.59
647.135	9992.55
647.328	9961.83
647.521	9720.17
647.714	9845.1
647.907	9861.48
648.099	9744.75
648.292	9791.85
648.485	9679.21
648.678	9595.25
648.871	9572.72
649.064	9423.22
649.256	9687.4
649.449	9511.28
649.642	9353.59
649.835	9464.18
650.027	9435.5
650.22	9294.19
650.413	9140.6
650.605	9128.31
650.798	9042.29
650.991	9052.53
651.183	8984.95
651.376	9070.97
651.568	8948.09
651.761	8880.5
651.954	8843.64
652.146	8792.44
652.339	8849.78
652.531	8608.12
652.724	8688
652.916	8489.34
653.109	8546.69
653.301	8518.01
653.494	8507.77
653.686	8360.32
653.879	8472.96
654.071	8577.41
654.263	8247.68
654.456	8528.25
654.648	8432
654.84	8204.67
655.033	8085.89
655.225	8204.67
655.417	8049.03
655.61	8210.82
655.802	7924.1
655.994	8040.84
656.186	7991.69
656.379	7856.52
656.571	7995.78
656.763	7692.68
656.955	7666.06
657.148	7813.51
657.34	7672.2
657.532	7442.83
657.724	7735.69
657.916	7584.14
658.108	7465.36
658.3	7539.08
658.492	7475.6
658.684	7475.6
658.876	7293.33
659.068	7385.49
659.26	7285.14
659.452	7252.37
659.644	7084.44
659.836	7070.1
660.028	7195.03
660.22	6973.85
660.412	7061.91
660.604	6885.78
660.796	7121.3
660.988	7098.77
661.18	6742.43
661.372	6871.45
661.563	7043.48
661.755	6828.44
661.947	6656.41
662.139	6742.43
662.331	6613.4
662.522	6490.52
662.714	6668.7
662.906	6535.58
663.097	6545.82
663.289	6623.64
663.481	6549.92
663.673	6541.72
663.864	6531.48
664.056	6359.45
664.247	6318.5
664.439	6199.71
664.631	6461.85
664.822	6351.26
665.014	6363.55
665.205	6240.67
665.397	6302.11
665.588	6158.75
665.78	6218.15
665.971	6027.68
666.163	6085.03
666.354	5931.43
666.546	6021.54
666.737	5843.37
666.929	5968.29
667.12	5968.29
667.311	5792.17
667.503	5642.67
667.694	5849.51
667.885	5863.85
668.077	5693.87
668.268	5767.59
668.459	5749.16
668.651	5616.04
668.842	5753.26
669.033	5597.61
669.224	5513.64
669.416	5767.59
669.607	5605.8
669.798	5611.95
669.989	5566.89
670.18	5427.63
670.371	5542.32
670.563	5581.23
670.754	5476.78
670.945	5355.95
671.136	5452.2
671.327	5306.8
671.518	5519.79
671.709	5480.88
671.9	5355.95
672.091	5220.78
672.282	5255.6
672.473	5282.22
672.664	5196.21
672.855	5167.54
673.046	5163.44
673.237	5206.45
673.428	5192.11
673.619	5132.72
673.809	5190.06
674	4995.51
674.191	5118.39
674.382	4870.58
674.573	4991.41
674.764	5065.14
674.954	5276.08
675.145	4886.97
675.336	4903.35
675.527	4788.66
675.717	4925.88
675.908	4800.95
676.099	5007.8
676.289	4917.68
676.48	4835.77
676.671	4884.92
676.861	4950.45
677.052	4907.45
677.243	4837.81
677.433	4800.95
677.624	4807.09
677.814	4602.3
678.005	4712.89
678.195	4671.93
678.386	4856.25
678.576	4626.87
678.767	4669.88
678.957	4698.55
679.148	4590.01
679.338	4649.4
679.529	4553.15
679.719	4680.12
679.909	4721.08
680.1	4663.74
680.29	4544.95
680.481	4544.95
680.671	4616.63
680.861	4551.1
681.052	4508.09
681.242	4397.5
681.432	4467.13
681.622	4430.27
681.813	4391.36
682.003	4438.46
682.193	4360.64
682.383	4434.36
682.573	4463.04
682.764	4477.37
682.954	4364.73
683.144	4417.98
683.334	4458.94
683.524	4231.62
683.714	4450.75
683.904	4483.52
684.094	4446.65
684.284	4303.29
684.474	4331.97
684.664	4135.36
684.854	4381.12
685.044	4309.44
685.234	4188.61
685.424	4334.01
685.614	4139.46
685.804	4057.54
685.994	4260.29
686.184	4082.11
686.374	4217.28
686.564	4155.84
686.753	4258.24
686.943	4129.22
687.133	4114.88
687.323	4086.21
687.513	4082.11
687.702	4102.59
687.892	3920.32
688.082	4020.67
688.272	4082.11
688.461	4061.63
688.651	3983.81
688.841	3963.33
689.03	3942.85
689.22	3897.8
689.41	3977.67
689.599	3783.11
689.789	3840.45
689.979	3815.88
690.168	3809.73
690.358	3824.07
690.547	3658.18
690.737	3625.42
690.926	3789.25
691.116	3721.67
691.305	3668.42
691.495	3701.19
691.684	3625.42
691.874	3631.56
692.063	3660.23
692.252	3561.93
692.442	3641.8
692.631	3586.51
692.82	3699.14
693.01	3574.22
693.199	3500.49
693.388	3391.95
693.578	3467.72
693.767	3467.72
693.956	3451.34
694.146	3394
694.335	3357.13
694.524	3367.37
694.713	3367.37
694.902	3275.21
695.092	3365.32
695.281	3381.71
695.47	3338.7
695.659	3328.46
695.848	3275.21
696.037	3353.04
696.226	3402.19
696.415	3258.83
696.604	3277.26
696.793	3238.35
696.982	3172.82
697.171	3279.31
697.36	3185.1
697.549	3146.19
697.738	3191.25
697.927	3174.86
698.116	3174.86
698.305	3133.9
698.494	3320.27
698.683	3119.57
698.872	3154.38
699.061	3127.76
699.25	3070.42
699.438	2968.02
699.627	3049.94
699.816	3074.51
700.005	3107.28
700.193	2941.4
700.382	3097.04
700.571	3054.03
700.76	2929.11
700.948	3211.73
701.137	2937.3
701.326	3066.32
701.514	3006.93
701.703	2937.3
701.892	3006.93
702.08	3021.27
702.269	2892.24
702.457	2898.39
702.646	2861.52
702.834	2816.47
703.023	2943.44
703.212	2943.44
703.4	2953.68
703.589	2927.06
703.777	2857.43
703.965	2898.39
704.154	2922.96
704.342	2834.9
704.531	2867.67
704.719	2918.87
704.907	2722.26
705.096	2873.81
705.284	2904.53
705.472	2845.14
705.661	2861.52
705.849	2783.7
706.037	2787.8
706.226	2783.7
706.414	2804.18
706.602	2859.48
706.79	2853.33
706.979	2806.23
707.167	2779.61
707.355	2707.93
707.543	2765.27
707.731	2812.37
707.919	2855.38
708.107	2750.93
708.296	2742.74
708.484	2691.54
708.672	2789.85
708.86	2693.59
709.048	2646.49
709.236	2644.44
709.424	2800.09
709.612	2660.82
709.8	2658.78
709.988	2703.83
710.176	2619.86
710.364	2677.21
710.551	2705.88
710.739	2628.06
710.927	2738.65
711.115	2718.17
711.303	2628.06
711.491	2673.11
711.679	2660.82
711.866	2705.88
712.054	2763.22
712.242	2806.23
712.43	2699.73
712.617	2666.97
712.805	2699.73
712.993	2636.25
713.181	2558.42
713.368	2707.93
713.556	2623.96
713.744	2701.78
713.931	2714.07
714.119	2707.93
714.306	2703.83
714.494	2824.66
714.682	2644.44
714.869	2587.1
715.057	2714.07
715.244	2687.45
715.432	2693.59
715.619	2615.77
715.807	2619.86
715.994	2574.81
716.182	2685.4
716.369	2517.47
716.556	2617.82
716.744	2593.24
716.931	2587.1
717.119	2554.33
717.306	2683.35
717.493	2593.24
717.681	2595.29
717.868	2671.06
718.055	2558.42
718.242	2599.38
718.43	2609.62
718.617	2597.34
718.804	2548.19
718.991	2679.26
719.179	2644.44
719.366	2685.4
719.553	2707.93
719.74	2583
719.927	2705.88
720.114	2546.14
720.301	2544.09
720.488	2583
720.676	2644.44
720.863	2585.05
721.05	2644.44
721.237	2662.87
721.424	2646.49
721.611	2658.78
721.798	2441.69
721.985	2693.59
722.172	2619.86
722.358	2597.34
722.545	2658.78
722.732	2589.14
722.919	2677.21
723.106	2566.62
723.293	2640.34
723.48	2601.43
723.667	2671.06
723.853	2531.8
724.04	2511.32
724.227	2613.72
724.414	2628.06
724.6	2591.19
724.787	2591.19
724.974	2656.73
725.161	2566.62
725.347	2662.87
725.534	2578.9
725.72	2580.95
725.907	2560.47
726.094	2470.36
726.28	2621.91
726.467	2628.06
726.653	2623.96
726.84	2458.07
727.027	2648.54
727.213	2630.1
727.4	2523.61
727.586	2689.49
727.773	2642.39
727.959	2681.3
728.145	2456.03
728.332	2634.2
728.518	2724.31
728.705	2750.93
728.891	2636.25
729.077	2650.58
729.264	2562.52
729.45	2644.44
729.636	2722.26
729.823	2613.72
730.009	2560.47
730.195	2726.36
730.382	2673.11
730.568	2703.83
730.754	2603.48
730.94	2630.1
731.126	2605.53
731.313	2554.33
731.499	2583
731.685	2714.07
731.871	2619.86
732.057	2722.26
732.243	2687.45
732.429	2687.45
732.615	2761.17
732.801	2783.7
732.987	2611.67
733.173	2681.3
733.359	2705.88
733.545	2642.39
733.731	2709.97
733.917	2789.85
734.103	2644.44
734.289	2763.22
734.475	2650.58
734.661	2507.23
734.847	2607.58
735.033	2626.01
735.219	2630.1
735.404	2685.4
735.59	2669.02
735.776	2634.2
735.962	2701.78
736.148	2609.62
736.333	2593.24
736.519	2650.58
736.705	2712.02
736.89	2652.63
737.076	2566.62
737.262	2556.38
737.447	2587.1
737.633	2533.85
737.819	2650.58
738.004	2560.47
738.19	2687.45
738.375	2568.66
738.561	2714.07
738.747	2578.9
738.932	2607.58
739.118	2634.2
739.303	2597.34
739.489	2611.67
739.674	2634.2
739.859	2595.29
740.045	2642.39
740.23	2615.77
740.416	2466.27
740.601	2593.24
740.786	2599.38
740.972	2537.95
741.157	2599.38
741.342	2490.84
741.528	2576.86
741.713	2474.46
741.898	2533.85
742.084	2445.79
742.269	2523.61
742.454	2525.66
742.639	2550.23
742.824	2542.04
743.01	2542.04
743.195	2447.83
743.38	2423.26
743.565	2509.27
743.75	2496.99
743.935	2390.49
744.12	2478.55
744.305	2521.56
744.49	2390.49
744.675	2382.3
744.86	2275.81
745.045	2458.07
745.23	2322.91
745.415	2410.97
745.6	2343.39
745.785	2216.41
745.97	2384.35
746.155	2392.54
746.34	2298.33
746.525	2267.61
746.71	2359.77
746.895	2396.64
747.079	2273.76
747.264	2339.29
747.449	2234.85
747.634	2185.69
747.819	2161.12
748.003	2318.81
748.188	2277.85
748.373	2249.18
748.557	2189.79
748.742	2144.74
748.927	2202.08
749.111	2169.31
749.296	2116.06
749.481	2171.36
749.665	2142.69
749.85	2071.01
750.034	2089.44
750.219	2114.02
750.404	2036.19
750.588	2105.82
750.773	1974.75
750.957	2060.77
751.141	2060.77
751.326	2005.47
751.51	2025.95
751.695	1958.37
751.879	1944.03
752.064	1933.79
752.248	2021.86
752.432	1907.17
752.617	1921.51
752.801	2003.43
752.985	1710.57
753.17	1804.77
753.354	1925.6
753.538	1919.46
753.722	1800.68
753.907	1806.82
754.091	1835.49
754.275	1780.2
754.459	1755.62
754.643	1767.91
754.828	1884.64
755.012	1886.69
755.196	1786.34
755.38	1688.04
755.564	1673.7
755.748	1716.71
755.932	1743.33
756.116	1706.47
756.3	1673.7
756.484	1610.22
756.668	1640.93
756.852	1663.46
757.036	1585.64
757.22	1642.98
757.404	1638.89
757.588	1671.65
757.772	1546.73
757.956	1581.54
758.14	1575.4
758.323	1583.59
758.507	1583.59
758.691	1602.02
758.875	1507.82
759.059	1495.53
759.242	1534.44
759.426	1540.58
759.61	1552.87
759.794	1425.9
759.977	1446.38
760.161	1534.44
760.345	1509.86
760.528	1468.91
760.712	1427.95
760.895	1458.67
761.079	1491.43
761.263	1475.05
761.446	1382.89
761.63	1475.05
761.813	1440.23
761.997	1360.36
762.18	1348.08
762.364	1425.9
762.547	1335.79
762.731	1405.42
762.914	1253.87
763.098	1423.85
763.281	1425.9
763.464	1446.38
763.648	1421.8
763.831	1329.64
764.015	1309.16
764.198	1391.08
764.381	1290.73
764.564	1303.02
764.748	1210.86
764.931	1346.03
765.114	1300.97
765.297	1288.68
765.481	1313.26
765.664	1280.49
765.847	1298.92
766.03	1280.49
766.213	1290.73
766.397	1268.2
766.58	1227.25
766.763	1264.11
766.946	1225.2
767.129	1237.49
767.312	1208.81
767.495	1198.57
767.678	1282.54
767.861	1102.32
768.044	1190.38
768.227	1204.72
768.41	1157.61
768.593	1298.92
768.776	1219.05
768.959	1126.89
769.142	1204.72
769.324	1169.9
769.507	1155.57
769.69	1063.41
769.873	1110.51
770.056	1190.38
770.239	1153.52
770.421	1159.66
770.604	1155.57
770.787	1114.61
770.97	1139.18
771.152	1102.32
771.335	1112.56
771.518	1133.04
771.7	1114.61
771.883	1118.7
772.066	1128.94
772.248	1032.69
772.431	1161.71
772.613	1049.07
772.796	1047.02
772.978	1038.83
773.161	1051.12
773.343	1001.97
773.526	1069.55
773.708	971.25
773.891	1006.06
774.073	997.87
774.256	944.63
774.438	1004.02
774.621	997.87
774.803	1020.4
774.985	975.35
775.168	958.96
775.35	907.76
775.532	879.09
775.715	969.2
775.897	881.14
776.079	1026.54
776.261	889.33
776.444	868.85
776.626	930.29
776.808	932.34
776.99	993.78
777.173	811.51
777.355	786.93
777.537	895.47
777.719	797.17
777.901	852.47
778.083	793.08
778.265	793.08
778.447	889.33
778.629	866.8
778.811	768.5
778.993	932.34
779.175	770.55
779.357	834.04
779.539	770.55
779.721	762.36
779.903	713.21
780.085	766.45
780.267	760.31
780.449	686.58
780.631	727.54
780.812	725.49
780.994	762.36
781.176	766.45
781.358	686.58
781.54	698.87
781.721	612.85
781.903	780.79
782.085	645.62
782.267	698.87
782.448	684.53
782.63	616.95
782.812	774.64
782.993	715.25
783.175	723.44
783.357	668.15
783.538	647.67
783.72	735.73
783.901	702.97
784.083	653.81
784.264	717.3
784.446	676.34
784.627	662.01
784.809	649.72
784.99	578.04
785.172	551.42
785.353	612.85
785.535	608.76
785.716	563.7
785.897	596.47
786.079	649.72
786.26	590.33
786.441	647.67
786.623	553.46
786.804	520.7
786.985	549.37
787.167	563.7
787.348	539.13
787.529	571.9
787.71	530.94
787.891	557.56
788.073	541.18
788.254	516.6
788.435	604.66
788.616	461.3
788.797	494.07
788.978	596.47
789.159	494.07
789.34	473.59
789.522	537.08
789.703	504.31
789.884	619
790.065	444.92
790.246	473.59
790.427	526.84
790.607	504.31
790.788	594.42
790.969	420.35
791.15	440.83
791.331	500.22
791.512	500.22
791.693	432.63
791.874	487.93
792.054	442.87
792.235	430.59
792.416	403.96
792.597	391.67
792.778	430.59
792.958	412.15
793.139	369.15
793.32	430.59
793.5	383.48
793.681	393.72
793.862	426.49
794.042	430.59
794.223	389.63
794.404	387.58
794.584	467.45
794.765	340.47
794.945	416.25
795.126	348.67
795.306	432.63
795.487	365.05
795.667	381.43
795.848	389.63
796.028	360.95
796.209	438.78
796.389	485.88
796.57	240.12
796.75	475.64
796.93	350.71
797.111	352.76
797.291	272.89
797.471	305.66
797.652	313.85
797.832	342.52
798.012	373.24
798.192	342.52
798.373	379.39
798.553	256.51
798.733	369.15
798.913	336.38
799.093	365.05
799.274	281.08
799.454	270.84
799.634	223.74
799.814	399.87
799.994	334.33
800.174	334.33
800.354	330.23
800.534	344.57
800.714	344.57
800.894	291.32
801.074	338.43
801.254	299.52
801.434	350.71
801.614	336.38
801.794	236.03
801.974	563.7
802.154	262.65
802.334	303.61
802.514	303.61
802.693	264.7
802.873	279.04
803.053	326.14
803.233	338.43
803.413	342.52
803.592	324.09
803.772	215.55
803.952	315.9
804.131	268.8
804.311	307.71
804.491	299.52
804.67	242.17
804.85	221.69
805.03	322.04
805.209	285.18
805.389	236.03
805.568	238.08
805.748	336.38
805.928	260.6
806.107	283.13
806.287	256.51
806.466	227.84
806.646	219.64
806.825	252.41
807.004	219.64
807.184	272.89
807.363	330.23
807.543	252.41
807.722	186.88
807.901	268.8
808.081	285.18
808.26	225.79
808.439	272.89
808.619	231.93
808.798	240.12
808.977	303.61
809.156	199.16
809.336	299.52
809.515	225.79
809.694	266.75
809.873	225.79
810.052	233.98
810.231	268.8
810.411	225.79
810.59	254.46
810.769	139.77
810.948	195.07
811.127	147.97
811.306	195.07
811.485	213.5
811.664	217.6
811.843	184.83
812.022	223.74
812.201	238.08
812.38	164.35
812.559	195.07
812.737	221.69
812.916	203.26
813.095	227.84
813.274	190.97
813.453	182.78
813.632	174.59
813.811	256.51
813.989	174.59
814.168	244.22
814.347	86.53
814.526	190.97
814.704	203.26
814.883	213.5
815.062	123.39
815.24	213.5
815.419	113.15
815.598	252.41
815.776	176.64
815.955	221.69
816.133	139.77
816.312	201.21
816.49	102.91
816.669	113.15
816.847	150.01
817.026	176.64
817.204	199.16
817.383	184.83
817.561	190.97
817.74	205.31
817.918	221.69
818.097	172.54
818.275	193.02
818.453	164.35
818.632	186.88
818.81	166.4
818.988	111.1
819.167	186.88
819.345	80.38
819.523	176.64
819.701	197.12
819.879	229.88
820.058	160.25
820.236	240.12
820.414	180.73
820.592	150.01
820.77	143.87
820.948	158.21
821.127	201.21
821.305	170.49
821.483	143.87
821.661	166.4
821.839	121.34
822.017	135.68
822.195	123.39
822.373	166.4
822.551	170.49
822.729	66.05
822.907	182.78
823.085	170.49
823.262	147.97
823.44	111.1
823.618	174.59
823.796	137.73
823.974	176.64
824.152	137.73
824.329	170.49
824.507	147.97
824.685	162.3
824.863	84.48
825.04	141.82
825.218	201.21
825.396	156.16
825.574	133.63
825.751	121.34
825.929	152.06
826.107	127.49
826.284	123.39
826.462	111.1
826.639	145.92
826.817	76.29
826.994	104.96
827.172	135.68
827.349	160.25
827.527	147.97
827.704	178.69
827.882	156.16
828.059	129.53
828.237	133.63
828.414	162.3
828.591	47.62
828.769	33.28
828.946	111.1
829.124	100.86
829.301	182.78
829.478	82.43
829.655	70.14
829.833	96.77
830.01	64
830.187	92.67
830.364	137.73
830.542	125.44
830.719	152.06
830.896	107.01
831.073	94.72
831.25	107.01
831.427	109.05
831.604	111.1
831.782	49.66
831.959	121.34
832.136	168.45
832.313	135.68
832.49	43.52
832.667	10.75
832.844	74.24
833.021	100.86
833.198	115.2
833.374	115.2
833.551	193.02
833.728	121.34
833.905	102.91
834.082	37.38
834.259	59.9
834.436	47.62
834.612	94.72
834.789	55.81
834.966	45.57
835.143	113.15
835.319	59.9
835.496	59.9
835.673	100.86
835.85	115.2
836.026	113.15
836.203	39.42
836.38	129.53
836.556	94.72
836.733	113.15
836.909	82.43
837.086	186.88
837.262	96.77
837.439	141.82
837.616	104.96
837.792	137.73
837.968	96.77
838.145	64
838.321	150.01
838.498	68.09
838.674	76.29
838.851	176.64
839.027	145.92
839.203	84.48
839.38	51.71
839.556	80.38
839.732	98.81
839.909	80.38
840.085	160.25
840.261	96.77
840.437	111.1
840.614	33.28
840.79	135.68
840.966	14.85
841.142	78.33
841.318	145.92
841.494	82.43
841.671	119.29
841.847	92.67
842.023	33.28
842.199	55.81
842.375	127.49
842.551	25.09
842.727	84.48
842.903	84.48
843.079	113.15
843.255	98.81
843.431	64
843.607	84.48
843.783	64
843.959	102.91
844.134	76.29
844.31	82.43
844.486	47.62
844.662	-3.58
844.838	59.9
845.013	137.73
845.189	59.9
845.365	88.57
845.541	-3.58
845.716	117.25
845.892	76.29
846.068	31.23
846.244	39.42
846.419	88.57
846.595	18.94
846.77	37.38
846.946	57.86
847.122	12.8
847.297	55.81
847.473	117.25
847.648	90.62
847.824	12.8
847.999	10.75
848.175	135.68
848.35	-22.02
848.526	47.62
848.701	94.72
848.876	145.92
849.052	90.62
849.227	33.28
849.403	72.19
849.578	47.62
849.753	109.05
849.929	111.1
850.104	51.71
850.279	43.52
850.454	25.09
850.63	74.24
850.805	16.9
850.98	25.09
851.155	92.67
851.33	8.7
851.505	66.05
851.681	90.62
851.856	51.71
852.031	94.72
852.206	49.66
852.381	39.42
852.556	23.04
852.731	121.34
852.906	39.42
853.081	53.76
853.256	80.38
853.431	49.66
853.606	47.62
853.781	41.47
853.956	29.18
854.131	92.67
854.305	18.94
854.48	51.71
854.655	47.62
854.83	-46.59
855.005	66.05
855.18	27.14
855.354	4.61
855.529	135.68
855.704	-13.82
855.879	123.39
856.053	-5.63
856.228	109.05
856.403	4.61
856.577	92.67
856.752	18.94
856.926	82.43
857.101	45.57
857.276	6.66
857.45	98.81
857.625	96.77
857.799	78.33
857.974	2.56
858.148	-3.58
858.323	37.38
858.497	23.04
858.672	2.56
858.846	31.23
859.02	61.95
859.195	0.51
859.369	-26.11
859.543	76.29
859.718	72.19
859.892	23.04
860.066	20.99
860.241	41.47
860.415	47.62
860.589	6.66
860.763	6.66
860.938	16.9
861.112	72.19
861.286	119.29
861.46	-32.26
861.634	41.47
861.808	59.9
861.982	-17.92
862.157	82.43
862.331	-19.97
862.505	51.71
862.679	-11.78
862.853	27.14
863.027	31.23
863.201	55.81
863.375	55.81
863.549	84.48
863.722	84.48
863.896	43.52
864.07	6.66
864.244	-19.97
864.418	35.33
864.592	16.9
864.766	68.09
864.939	-60.93
865.113	16.9
865.287	47.62
865.461	14.85
865.634	16.9
865.808	20.99
865.982	2.56
866.156	8.7
866.329	35.33
866.503	64
866.676	12.8
866.85	-89.6
867.024	115.2
867.197	66.05
867.371	-9.73
867.544	-3.58
867.718	23.04
867.891	94.72
868.065	27.14
868.238	35.33
868.412	33.28
868.585	-28.16
868.759	37.38
868.932	64
869.105	12.8
869.279	8.7
869.452	123.39
869.625	49.66
869.799	74.24
869.972	2.56
870.145	94.72
870.319	90.62
870.492	37.38
870.665	29.18
870.838	59.9
871.011	-36.35
871.185	6.66
871.358	16.9
871.531	55.81
871.704	-13.82
871.877	-11.78
872.05	47.62
872.223	-11.78
872.396	-1.54
872.569	-52.74
872.742	2.56
872.915	43.52
873.088	-5.63
873.261	14.85
873.434	53.76
873.607	27.14
873.78	23.04
873.953	-1.54
874.126	55.81
874.299	-3.58
874.471	-116.22
874.644	27.14
874.817	-28.16
874.99	-1.54
875.163	-3.58
875.335	-58.88
875.508	57.86
875.681	96.77
875.853	-32.26
876.026	27.14
876.199	45.57
876.371	2.56
876.544	-13.82
876.717	-5.63
876.889	-28.16
877.062	18.94
877.234	4.61
877.407	43.52
877.579	-89.6
877.752	51.71
877.924	51.71
878.097	-32.26
878.269	37.38
878.442	-3.58
878.614	12.8
878.786	51.71
878.959	-24.06
879.131	49.66
879.303	-40.45
879.476	61.95
879.648	25.09
879.82	29.18
879.993	-19.97
880.165	27.14
880.337	-101.89
880.509	35.33
880.681	14.85
880.854	-24.06
881.026	-44.54
881.198	139.77
881.37	51.71
881.542	39.42
881.714	10.75
881.886	-9.73
882.058	94.72
882.23	23.04
882.402	16.9
882.574	-65.02
882.746	27.14
882.918	16.9
883.09	100.86
883.262	-26.11
883.434	2.56
883.606	18.94
883.778	-19.97
883.95	39.42
884.122	-50.69
884.293	25.09
884.465	53.76
884.637	-7.68
884.809	-85.5
884.98	86.53
885.152	45.57
885.324	53.76
885.496	-13.82
885.667	-44.54
885.839	0.51
886.011	29.18
886.182	33.28
886.354	14.85
886.525	72.19
886.697	64
886.869	-11.78
887.04	-19.97
887.212	68.09
887.383	0.51
887.555	10.75
887.726	76.29
887.897	-9.73
888.069	20.99
888.24	18.94
888.412	37.38
888.583	53.76
888.754	61.95
888.926	2.56
889.097	45.57
889.268	-13.82
889.44	14.85
889.611	-71.17
889.782	45.57
889.953	-1.54
890.125	88.57
890.296	45.57
890.467	-40.45
890.638	-13.82
890.809	-9.73
890.98	39.42
891.151	20.99
891.323	78.33
891.494	27.14
891.665	39.42
891.836	8.7
892.007	33.28
892.178	12.8
892.349	35.33
892.52	-28.16
892.691	35.33
892.862	53.76
893.032	-3.58
893.203	-73.21
893.374	-69.12
893.545	109.05
893.716	-3.58
893.887	37.38
894.057	-46.59
894.228	94.72
894.399	-11.78
894.57	-11.78
894.74	90.62
894.911	80.38
895.082	-5.63
895.253	16.9
895.423	37.38
895.594	49.66
895.764	76.29
895.935	66.05
896.106	-5.63
896.276	-19.97
896.447	-26.11
896.617	-17.92
896.788	-11.78
896.958	57.86
897.129	-56.83
897.299	-44.54
897.47	23.04
897.64	33.28
897.81	-54.78
897.981	43.52
898.151	23.04
898.322	57.86
898.492	16.9
898.662	39.42
898.832	12.8
899.003	25.09
899.173	66.05
899.343	35.33
899.513	-24.06
