Data from USB4F104151__88__11-06-42-328.txt Node

Date: Wed Mar 12 11:06:42 EDT 2025
User: louis
Spectrometer: USB4F10415
Trigger mode: 4
Integration Time (sec): 2.000000E-2
Scans to average: 1
Electric dark correction enabled: true
Nonlinearity correction enabled: false
Boxcar width: 0
XAxis mode: Wavelengths
Number of Pixels in Spectrum: 3648
>>>>>Begin Spectral Data<<<<<
178.204	-108.37
178.424	-108.37
178.644	-108.37
178.864	-42.84
179.084	-96.08
179.304	6.31
179.524	-40.79
179.744	69.8
179.964	55.47
180.184	-20.31
180.404	24.75
180.624	-75.6
180.844	4.27
181.064	28.84
181.283	-3.93
181.503	-14.17
181.723	-34.64
181.943	-48.98
182.163	47.27
182.383	24.75
182.602	2.22
182.822	34.99
183.042	39.08
183.262	-14.17
183.482	71.85
183.701	55.47
183.921	24.75
184.141	34.99
184.361	12.46
184.58	41.13
184.8	20.65
185.02	-32.6
185.239	196.78
185.459	84.14
185.679	24.75
185.898	-18.26
186.118	75.95
186.338	73.9
186.557	51.37
186.777	-16.21
186.997	61.61
187.216	-3.93
187.436	82.09
187.655	131.24
187.875	37.03
188.095	84.14
188.314	57.51
188.534	69.8
188.753	20.65
188.973	32.94
189.192	59.56
189.412	22.7
189.631	114.86
189.851	16.55
190.07	63.66
190.29	12.46
190.509	28.84
190.729	67.75
190.948	28.84
191.168	86.19
191.387	24.75
191.607	-20.31
191.826	14.51
192.045	30.89
192.265	-3.93
192.484	82.09
192.704	-5.97
192.923	-10.07
193.142	188.58
193.362	41.13
193.581	57.51
193.8	51.37
194.02	57.51
194.239	12.46
194.458	73.9
194.678	127.14
194.897	41.13
195.116	-42.84
195.335	86.19
195.555	118.95
195.774	71.85
195.993	53.42
196.212	63.66
196.432	45.23
196.651	80.04
196.87	-14.17
197.089	49.32
197.308	0.17
197.528	96.43
197.747	-16.21
197.966	-12.12
198.185	8.36
198.404	65.71
198.623	69.8
198.842	77.99
199.062	100.52
199.281	49.32
199.5	8.36
199.719	45.23
199.938	57.51
200.157	18.6
200.376	73.9
200.595	51.37
200.814	-8.02
201.033	-5.97
201.252	118.95
201.471	20.65
201.69	45.23
201.909	71.85
202.128	12.46
202.347	-24.4
202.566	-8.02
202.785	-16.21
203.004	-32.6
203.223	71.85
203.442	8.36
203.661	77.99
203.879	26.79
204.098	55.47
204.317	-55.12
204.536	8.36
204.755	-26.45
204.974	12.46
205.193	71.85
205.411	8.36
205.63	-8.02
205.849	57.51
206.068	-3.93
206.287	34.99
206.505	73.9
206.724	-26.45
206.943	45.23
207.162	18.6
207.381	45.23
207.599	16.55
207.818	41.13
208.037	59.56
208.255	-26.45
208.474	82.09
208.693	-3.93
208.911	71.85
209.13	16.55
209.349	55.47
209.567	57.51
209.786	86.19
210.005	22.7
210.223	43.18
210.442	24.75
210.661	34.99
210.879	0.17
211.098	-24.4
211.316	106.67
211.535	45.23
211.753	71.85
211.972	94.38
212.191	104.62
212.409	123.05
212.628	30.89
212.846	2.22
213.065	82.09
213.283	43.18
213.502	14.51
213.72	18.6
213.938	4.27
214.157	24.75
214.375	49.32
214.594	37.03
214.812	49.32
215.031	32.94
215.249	-18.26
215.467	-34.64
215.686	108.71
215.904	16.55
216.122	26.79
216.341	47.27
216.559	20.65
216.778	108.71
216.996	-16.21
217.214	-26.45
217.432	63.66
217.651	2.22
217.869	100.52
218.087	88.23
218.306	24.75
218.524	104.62
218.742	24.75
218.96	14.51
219.179	82.09
219.397	47.27
219.615	114.86
219.833	37.03
220.051	80.04
220.27	102.57
220.488	-32.6
220.706	34.99
220.924	4.27
221.142	49.32
221.36	-8.02
221.578	106.67
221.796	34.99
222.015	61.61
222.233	39.08
222.451	69.8
222.669	16.55
222.887	67.75
223.105	32.94
223.323	0.17
223.541	28.84
223.759	45.23
223.977	80.04
224.195	67.75
224.413	-3.93
224.631	37.03
224.849	98.47
225.067	51.37
225.285	41.13
225.503	-22.36
225.721	-36.69
225.939	-12.12
226.157	41.13
226.375	108.71
226.592	8.36
226.81	24.75
227.028	104.62
227.246	82.09
227.464	24.75
227.682	-32.6
227.9	57.51
228.117	82.09
228.335	55.47
228.553	8.36
228.771	45.23
228.989	88.23
229.206	34.99
229.424	51.37
229.642	-18.26
229.86	-22.36
230.077	41.13
230.295	90.28
230.513	30.89
230.731	49.32
230.948	94.38
231.166	90.28
231.384	8.36
231.601	57.51
231.819	112.81
232.037	18.6
232.254	55.47
232.472	24.75
232.689	-16.21
232.907	69.8
233.125	45.23
233.342	26.79
233.56	16.55
233.777	16.55
233.995	-10.07
234.213	80.04
234.43	6.31
234.648	24.75
234.865	84.14
235.083	61.61
235.3	73.9
235.518	22.7
235.735	80.04
235.953	63.66
236.17	34.99
236.388	49.32
236.605	55.47
236.822	49.32
237.04	32.94
237.257	22.7
237.475	121
237.692	77.99
237.909	71.85
238.127	86.19
238.344	4.27
238.562	86.19
238.779	-16.21
238.996	43.18
239.214	37.03
239.431	22.7
239.648	49.32
239.865	45.23
240.083	49.32
240.3	47.27
240.517	41.13
240.735	49.32
240.952	57.51
241.169	92.33
241.386	77.99
241.603	-38.74
241.821	4.27
242.038	114.86
242.255	24.75
242.472	-5.97
242.689	88.23
242.907	80.04
243.124	41.13
243.341	-28.5
243.558	75.95
243.775	41.13
243.992	30.89
244.209	104.62
244.426	82.09
244.643	8.36
244.86	55.47
245.078	61.61
245.295	37.03
245.512	94.38
245.729	18.6
245.946	-18.26
246.163	73.9
246.38	12.46
246.597	57.51
246.814	20.65
247.031	-3.93
247.248	86.19
247.464	16.55
247.681	63.66
247.898	14.51
248.115	80.04
248.332	-42.84
248.549	6.31
248.766	22.7
248.983	100.52
249.2	96.43
249.417	-14.17
249.633	18.6
249.85	90.28
250.067	6.31
250.284	26.79
250.501	55.47
250.717	67.75
250.934	-38.74
251.151	8.36
251.368	39.08
251.585	41.13
251.801	49.32
252.018	-26.45
252.235	24.75
252.451	0.17
252.668	0.17
252.885	82.09
253.102	4.27
253.318	32.94
253.535	73.9
253.752	16.55
253.968	67.75
254.185	94.38
254.401	57.51
254.618	37.03
254.835	47.27
255.051	12.46
255.268	86.19
255.484	20.65
255.701	49.32
255.917	94.38
256.134	26.79
256.351	71.85
256.567	45.23
256.784	24.75
257	94.38
257.217	129.19
257.433	92.33
257.65	24.75
257.866	102.57
258.082	-1.88
258.299	34.99
258.515	69.8
258.732	18.6
258.948	12.46
259.165	43.18
259.381	26.79
259.597	-34.64
259.814	94.38
260.03	112.81
260.246	61.61
260.463	55.47
260.679	-8.02
260.895	77.99
261.112	8.36
261.328	47.27
261.544	8.36
261.761	65.71
261.977	77.99
262.193	77.99
262.409	88.23
262.626	34.99
262.842	32.94
263.058	43.18
263.274	65.71
263.49	45.23
263.707	45.23
263.923	65.71
264.139	61.61
264.355	67.75
264.571	82.09
264.787	127.14
265.004	18.6
265.22	10.41
265.436	77.99
265.652	-3.93
265.868	4.27
266.084	8.36
266.3	28.84
266.516	32.94
266.732	0.17
266.948	49.32
267.164	37.03
267.38	49.32
267.596	-30.55
267.812	45.23
268.028	18.6
268.244	102.57
268.46	69.8
268.676	0.17
268.892	53.42
269.108	4.27
269.324	34.99
269.54	2.22
269.756	41.13
269.972	10.41
270.188	-8.02
270.403	32.94
270.619	32.94
270.835	22.7
271.051	-3.93
271.267	71.85
271.483	86.19
271.698	84.14
271.914	82.09
272.13	63.66
272.346	47.27
272.562	67.75
272.777	55.47
272.993	2.22
273.209	127.14
273.425	108.71
273.64	18.6
273.856	20.65
274.072	96.43
274.287	65.71
274.503	102.57
274.719	67.75
274.934	-10.07
275.15	65.71
275.366	41.13
275.581	55.47
275.797	59.56
276.012	32.94
276.228	47.27
276.444	164.01
276.659	28.84
276.875	65.71
277.09	82.09
277.306	71.85
277.521	92.33
277.737	86.19
277.952	45.23
278.168	69.8
278.383	32.94
278.599	57.51
278.814	110.76
279.03	14.51
279.245	61.61
279.461	118.95
279.676	80.04
279.892	18.6
280.107	84.14
280.322	41.13
280.538	80.04
280.753	57.51
280.969	84.14
281.184	6.31
281.399	39.08
281.615	26.79
281.83	53.42
282.045	4.27
282.26	4.27
282.476	24.75
282.691	77.99
282.906	86.19
283.122	43.18
283.337	22.7
283.552	53.42
283.767	65.71
283.983	12.46
284.198	12.46
284.413	123.05
284.628	-26.45
284.843	-8.02
285.058	129.19
285.274	-3.93
285.489	41.13
285.704	84.14
285.919	75.95
286.134	-46.93
286.349	12.46
286.564	80.04
286.779	90.28
286.995	-8.02
287.21	-53.08
287.425	82.09
287.64	-3.93
287.855	82.09
288.07	47.27
288.285	14.51
288.5	14.51
288.715	37.03
288.93	114.86
289.145	49.32
289.36	6.31
289.575	57.51
289.79	26.79
290.004	53.42
290.219	41.13
290.434	61.61
290.649	65.71
290.864	26.79
291.079	20.65
291.294	26.79
291.509	18.6
291.724	41.13
291.938	6.31
292.153	37.03
292.368	49.32
292.583	121
292.798	10.41
293.012	20.65
293.227	41.13
293.442	61.61
293.657	18.6
293.871	90.28
294.086	39.08
294.301	143.53
294.516	94.38
294.73	39.08
294.945	-3.93
295.16	-8.02
295.374	20.65
295.589	-18.26
295.804	28.84
296.018	59.56
296.233	16.55
296.447	8.36
296.662	28.84
296.877	63.66
297.091	-3.93
297.306	88.23
297.52	82.09
297.735	102.57
297.949	24.75
298.164	-3.93
298.378	51.37
298.593	63.66
298.807	12.46
299.022	20.65
299.236	77.99
299.451	94.38
299.665	6.31
299.88	30.89
300.094	67.75
300.309	75.95
300.523	88.23
300.737	82.09
300.952	39.08
301.166	53.42
301.381	55.47
301.595	63.66
301.809	30.89
302.024	75.95
302.238	28.84
302.452	30.89
302.667	28.84
302.881	-12.12
303.095	57.51
303.309	75.95
303.524	57.51
303.738	51.37
303.952	26.79
304.166	94.38
304.381	86.19
304.595	82.09
304.809	18.6
305.023	102.57
305.237	51.37
305.452	32.94
305.666	53.42
305.88	73.9
306.094	82.09
306.308	4.27
306.522	43.18
306.736	-12.12
306.95	88.23
307.164	55.47
307.379	-16.21
307.593	55.47
307.807	82.09
308.021	80.04
308.235	100.52
308.449	32.94
308.663	-1.88
308.877	55.47
309.091	41.13
309.305	57.51
309.519	22.7
309.733	28.84
309.947	20.65
310.161	6.31
310.374	80.04
310.588	32.94
310.802	61.61
311.016	-18.26
311.23	94.38
311.444	6.31
311.658	-22.36
311.872	69.8
312.085	106.67
312.299	86.19
312.513	90.28
312.727	30.89
312.941	55.47
313.154	82.09
313.368	47.27
313.582	90.28
313.796	24.75
314.009	37.03
314.223	82.09
314.437	63.66
314.651	73.9
314.864	32.94
315.078	59.56
315.292	47.27
315.505	16.55
315.719	34.99
315.933	20.65
316.146	16.55
316.36	65.71
316.573	53.42
316.787	30.89
317.001	108.71
317.214	121
317.428	0.17
317.641	49.32
317.855	55.47
318.068	43.18
318.282	59.56
318.495	65.71
318.709	63.66
318.922	59.56
319.136	67.75
319.349	84.14
319.563	84.14
319.776	121
319.99	-10.07
320.203	55.47
320.417	6.31
320.63	41.13
320.843	43.18
321.057	84.14
321.27	6.31
321.483	63.66
321.697	45.23
321.91	61.61
322.124	49.32
322.337	63.66
322.55	-8.02
322.763	55.47
322.977	22.7
323.19	39.08
323.403	61.61
323.617	75.95
323.83	2.22
324.043	69.8
324.256	20.65
324.469	41.13
324.683	59.56
324.896	55.47
325.109	80.04
325.322	32.94
325.535	55.47
325.748	-16.21
325.962	22.7
326.175	37.03
326.388	18.6
326.601	61.61
326.814	57.51
327.027	65.71
327.24	34.99
327.453	-42.84
327.666	37.03
327.879	100.52
328.092	37.03
328.305	86.19
328.518	90.28
328.731	45.23
328.944	96.43
329.157	67.75
329.37	4.27
329.583	131.24
329.796	90.28
330.009	55.47
330.222	-8.02
330.435	-3.93
330.648	47.27
330.861	20.65
331.073	55.47
331.286	-5.97
331.499	-24.4
331.712	53.42
331.925	22.7
332.138	63.66
332.35	63.66
332.563	24.75
332.776	0.17
332.989	90.28
333.202	4.27
333.414	75.95
333.627	57.51
333.84	80.04
334.053	34.99
334.265	30.89
334.478	37.03
334.691	20.65
334.903	63.66
335.116	26.79
335.329	55.47
335.541	51.37
335.754	45.23
335.966	41.13
336.179	55.47
336.392	73.9
336.604	47.27
336.817	100.52
337.029	30.89
337.242	34.99
337.454	75.95
337.667	0.17
337.88	32.94
338.092	69.8
338.305	-3.93
338.517	77.99
338.729	104.62
338.942	94.38
339.154	55.47
339.367	32.94
339.579	69.8
339.792	8.36
340.004	57.51
340.217	61.61
340.429	43.18
340.641	94.38
340.854	39.08
341.066	-28.5
341.278	24.75
341.491	90.28
341.703	96.43
341.915	47.27
342.128	53.42
342.34	82.09
342.552	53.42
342.764	88.23
342.977	82.09
343.189	49.32
343.401	98.47
343.613	51.37
343.826	59.56
344.038	39.08
344.25	32.94
344.462	-26.45
344.674	45.23
344.886	32.94
345.099	106.67
345.311	47.27
345.523	102.57
345.735	82.09
345.947	82.09
346.159	-16.21
346.371	55.47
346.583	12.46
346.795	86.19
347.007	16.55
347.219	98.47
347.431	94.38
347.643	32.94
347.855	14.51
348.067	61.61
348.279	104.62
348.491	71.85
348.703	61.61
348.915	43.18
349.127	63.66
349.339	123.05
349.551	67.75
349.763	71.85
349.975	88.23
350.187	145.58
350.399	112.81
350.61	98.47
350.822	16.55
351.034	0.17
351.246	92.33
351.458	20.65
351.669	30.89
351.881	10.41
352.093	106.67
352.305	143.53
352.517	82.09
352.728	118.95
352.94	6.31
353.152	125.1
353.363	49.32
353.575	94.38
353.787	80.04
353.999	98.47
354.21	30.89
354.422	67.75
354.633	73.9
354.845	88.23
355.057	51.37
355.268	63.66
355.48	90.28
355.692	24.75
355.903	96.43
356.115	32.94
356.326	90.28
356.538	180.39
356.749	37.03
356.961	47.27
357.172	-14.17
357.384	41.13
357.595	112.81
357.807	88.23
358.018	98.47
358.23	53.42
358.441	47.27
358.653	34.99
358.864	77.99
359.075	28.84
359.287	32.94
359.498	65.71
359.709	59.56
359.921	90.28
360.132	104.62
360.344	82.09
360.555	32.94
360.766	65.71
360.977	12.46
361.189	39.08
361.4	57.51
361.611	22.7
361.823	34.99
362.034	51.37
362.245	32.94
362.456	28.84
362.667	24.75
362.879	65.71
363.09	32.94
363.301	41.13
363.512	-30.55
363.723	106.67
363.935	67.75
364.146	118.95
364.357	34.99
364.568	80.04
364.779	28.84
364.99	118.95
365.201	30.89
365.412	2.22
365.623	45.23
365.834	32.94
366.045	147.62
366.256	45.23
366.467	20.65
366.678	65.71
366.889	18.6
367.1	8.36
367.311	125.1
367.522	16.55
367.733	108.71
367.944	207.02
368.155	-75.6
368.366	131.24
368.577	65.71
368.788	71.85
368.999	49.32
369.209	80.04
369.42	61.61
369.631	86.19
369.842	55.47
370.053	71.85
370.264	94.38
370.474	39.08
370.685	108.71
370.896	125.1
371.107	88.23
371.317	45.23
371.528	-14.17
371.739	61.61
371.95	88.23
372.16	106.67
372.371	12.46
372.582	116.9
372.792	86.19
373.003	71.85
373.214	77.99
373.424	49.32
373.635	63.66
373.846	88.23
374.056	-34.64
374.267	80.04
374.477	51.37
374.688	80.04
374.898	88.23
375.109	112.81
375.319	127.14
375.53	28.84
375.74	96.43
375.951	94.38
376.161	32.94
376.372	98.47
376.582	6.31
376.793	102.57
377.003	28.84
377.214	30.89
377.424	133.29
377.635	-10.07
377.845	61.61
378.055	106.67
378.266	6.31
378.476	98.47
378.686	51.37
378.897	96.43
379.107	65.71
379.317	41.13
379.528	32.94
379.738	65.71
379.948	-5.97
380.158	28.84
380.369	159.91
380.579	26.79
380.789	121
380.999	28.84
381.21	59.56
381.42	135.34
381.63	47.27
381.84	82.09
382.05	77.99
382.261	94.38
382.471	112.81
382.681	10.41
382.891	147.62
383.101	112.81
383.311	75.95
383.521	88.23
383.731	80.04
383.941	82.09
384.151	102.57
384.361	65.71
384.571	106.67
384.781	39.08
384.991	37.03
385.201	116.9
385.411	71.85
385.621	118.95
385.831	30.89
386.041	94.38
386.251	34.99
386.461	110.76
386.671	139.43
386.881	110.76
387.091	61.61
387.301	61.61
387.511	71.85
387.72	67.75
387.93	63.66
388.14	51.37
388.35	114.86
388.56	63.66
388.769	108.71
388.979	51.37
389.189	104.62
389.399	63.66
389.609	22.7
389.818	104.62
390.028	47.27
390.238	26.79
390.447	28.84
390.657	28.84
390.867	123.05
391.076	94.38
391.286	34.99
391.496	129.19
391.705	61.61
391.915	121
392.125	161.96
392.334	14.51
392.544	18.6
392.753	63.66
392.963	80.04
393.172	49.32
393.382	43.18
393.591	110.76
393.801	110.76
394.01	106.67
394.22	155.82
394.429	125.1
394.639	12.46
394.848	59.56
395.058	133.29
395.267	20.65
395.477	96.43
395.686	22.7
395.895	116.9
396.105	92.33
396.314	100.52
396.524	92.33
396.733	82.09
396.942	94.38
397.152	90.28
397.361	80.04
397.57	121
397.78	77.99
397.989	63.66
398.198	182.44
398.407	82.09
398.617	116.9
398.826	233.64
399.035	108.71
399.244	32.94
399.453	176.3
399.663	114.86
399.872	137.38
400.081	123.05
400.29	143.53
400.499	75.95
400.708	73.9
400.917	131.24
401.127	86.19
401.336	96.43
401.545	174.25
401.754	180.39
401.963	184.49
402.172	180.39
402.381	153.77
402.59	96.43
402.799	77.99
403.008	164.01
403.217	86.19
403.426	116.9
403.635	176.3
403.844	121
404.053	118.95
404.262	168.1
404.471	170.15
404.68	190.63
404.888	135.34
405.097	106.67
405.306	143.53
405.515	133.29
405.724	178.34
405.933	157.86
406.142	223.4
406.35	204.97
406.559	227.5
406.768	141.48
406.977	262.31
407.185	194.73
407.394	196.78
407.603	202.92
407.812	207.02
408.02	250.02
408.229	200.87
408.438	237.74
408.646	268.45
408.855	325.8
409.064	262.31
409.272	260.26
409.481	327.85
409.69	293.03
409.898	323.75
410.107	280.74
410.315	303.27
410.524	278.69
410.733	405.67
410.941	385.19
411.15	405.67
411.358	473.25
411.567	489.64
411.775	446.63
411.984	415.91
412.192	358.57
412.401	481.44
412.609	520.35
412.818	413.86
413.026	516.26
413.234	438.44
413.443	542.88
413.651	585.89
413.86	589.99
414.068	630.95
414.276	594.08
414.485	667.81
414.693	645.28
414.901	768.16
415.11	655.52
415.318	684.19
415.526	714.91
415.734	762.02
415.943	753.82
416.151	807.07
416.359	841.89
416.567	923.8
416.776	997.53
416.984	827.55
417.192	979.1
417.4	1020.06
417.608	977.05
417.817	1020.06
418.025	1130.65
418.233	1161.37
418.441	1202.33
418.649	1231
418.857	1314.97
419.065	1353.88
419.273	1388.69
419.481	1345.69
419.689	1388.69
419.897	1487
420.105	1433.75
420.313	1575.06
420.521	1665.17
420.729	1540.24
420.937	1638.55
421.145	1747.09
421.353	1683.6
421.561	1931.41
421.769	1953.93
421.977	2044.04
422.185	2093.19
422.393	2175.11
422.601	2334.86
422.809	2336.9
423.017	2334.86
423.224	2398.34
423.432	2367.62
423.64	2416.77
423.848	2691.2
424.056	2662.53
424.263	2775.17
424.471	2799.74
424.679	2852.99
424.887	3022.97
425.094	3229.82
425.302	3102.84
425.51	3145.85
425.718	3428.47
425.925	3358.84
426.133	3555.44
426.341	3715.19
426.548	3981.42
426.756	4008.05
426.964	3934.32
427.171	4186.22
427.379	4200.55
427.586	4315.24
427.794	4552.81
428.001	4735.07
428.209	5007.45
428.417	4923.49
428.624	5124.19
428.832	5281.88
429.039	5064.8
429.247	5226.59
429.454	5732.44
429.662	5992.53
429.869	5587.03
430.076	5970
430.284	5771.35
430.491	6197.32
430.699	6471.75
430.906	6428.74
431.114	6488.14
431.321	6918.21
431.528	6918.21
431.736	7299.13
431.943	7559.22
432.15	7434.3
432.358	7688.25
432.565	8024.11
432.772	7948.34
432.979	8181.81
433.187	8314.92
433.394	8583.21
433.601	9091.1
433.808	9117.73
434.016	9003.04
434.223	9605.14
434.43	10139.66
434.637	9895.96
434.844	10489.87
435.052	10698.76
435.259	10397.71
435.466	10532.87
435.673	10469.39
435.88	11399.16
436.087	12007.41
436.294	11984.88
436.501	11632.63
436.708	11864.05
436.915	12351.47
437.122	12832.74
437.329	12765.16
437.537	12937.19
437.743	13395.93
437.95	13320.16
438.157	13959.13
438.364	14471.12
438.571	14464.97
438.778	14720.97
438.985	16072.63
439.192	15187.91
439.399	15648.7
439.606	15427.52
439.813	16289.71
440.02	17266.6
440.227	16906.15
440.433	16799.66
440.64	17536.93
440.847	17502.11
441.054	17668
441.261	18835.34
441.467	18730.89
441.674	19083.14
441.881	19386.24
442.088	19363.72
442.294	19304.32
442.501	19935.1
442.708	20459.38
442.914	21262.18
443.121	21841.76
443.328	21575.52
443.534	23199.56
443.741	21864.29
443.948	22314.84
444.154	23813.95
444.361	23672.64
444.568	23531.33
444.774	23691.07
444.981	24012.6
445.187	24581.94
445.394	25499.43
445.6	25431.85
445.807	27875.07
446.013	26666.77
446.22	27395.85
446.426	28362.49
446.633	28473.08
446.839	29257.45
447.046	27995.9
447.252	29691.62
447.459	29777.64
447.665	29404.91
447.871	30750.42
448.078	32075.46
448.284	30346.97
448.491	31733.45
448.697	32716.47
448.903	33652.39
449.11	33035.95
449.316	32683.7
449.522	33400.49
449.728	34094.75
449.935	34735.77
450.141	34008.74
450.347	35280.53
450.553	34188.96
450.76	34424.48
450.966	35284.62
451.172	35045.01
451.378	35569.29
451.584	35192.47
451.791	35835.53
451.997	35690.12
452.203	36474.49
452.409	36222.59
452.615	35845.77
452.821	34913.94
453.027	34449.05
453.233	36351.62
453.44	34803.35
453.646	35481.23
453.852	35427.98
454.058	35815.05
454.264	34918.04
454.47	35346.06
454.676	34653.85
454.882	35745.42
455.088	32077.51
455.294	32845.49
455.5	33339.05
455.705	33943.2
455.911	32437.95
456.117	31749.83
456.323	31215.31
456.529	29740.77
456.735	30775
456.941	30140.13
457.147	29349.61
457.352	28522.23
457.558	28180.22
457.764	28288.76
457.97	27739.91
458.176	27178.76
458.381	27291.4
458.587	25730.85
458.793	26036
458.999	24526.64
459.204	26611.48
459.41	25458.47
459.616	23805.76
459.821	24153.91
460.027	23662.4
460.233	23373.64
460.438	22011.74
460.644	22427.48
460.85	21389.16
461.055	21333.86
461.261	20873.07
461.466	19111.82
461.672	18829.2
461.878	20361.08
462.083	19083.14
462.289	18790.28
462.494	18599.82
462.7	17473.44
462.905	17119.14
463.111	17803.16
463.316	17717.15
463.522	17559.45
463.727	17313.7
463.932	17395.62
464.138	17520.54
464.343	17278.88
464.549	16641.96
464.754	17350.56
464.959	17256.36
465.165	17004.46
465.37	16115.64
465.575	16193.46
465.781	16545.71
465.986	16746.41
466.191	16181.17
466.397	15722.43
466.602	15206.34
466.807	15638.46
467.012	15685.56
467.218	15663.04
467.423	15259.59
467.628	15431.62
467.833	16072.63
468.038	15669.18
468.244	15071.17
468.449	15798.2
468.654	15026.12
468.859	15116.23
469.064	14854.09
469.269	14501.84
469.474	14450.64
469.679	14725.07
469.885	14262.23
470.09	14729.16
470.295	14235.6
470.5	14186.45
470.705	14297.04
470.91	13952.98
471.115	13694.94
471.32	14028.76
471.525	13768.66
471.73	13477.85
471.935	13461.47
472.139	12818.41
472.344	13268.96
472.549	13033.44
472.754	12767.21
472.959	12367.85
473.164	12263.41
473.369	12275.7
473.574	12763.11
473.778	12562.41
473.983	12267.5
474.188	12345.33
474.393	11890.68
474.598	12052.47
474.802	11558.91
475.007	11765.75
475.212	11628.54
475.417	11157.5
475.621	11190.27
475.826	11112.45
476.031	11186.18
476.235	11212.8
476.44	10870.79
476.645	10694.66
476.849	10778.63
477.054	10969.09
477.259	10555.4
477.463	10536.97
477.668	10344.46
477.872	10575.88
478.077	10096.66
478.282	9930.77
478.486	9959.44
478.691	9990.16
478.895	9664.54
479.1	9875.48
479.304	9687.06
479.509	9512.99
479.713	9703.45
479.918	9424.92
480.122	9521.18
480.326	9627.67
480.531	9660.44
480.735	9347.1
480.94	9248.8
481.144	9388.06
481.348	9183.26
481.553	9285.66
481.757	8837.16
481.961	9052.19
482.166	9408.54
482.37	9293.85
482.574	9097.25
482.778	9099.3
482.983	9261.09
483.187	9314.33
483.391	8925.22
483.595	8966.18
483.8	9025.57
484.004	9025.57
484.208	9254.94
484.412	9103.39
484.616	9156.64
484.821	9177.12
485.025	8982.56
485.229	9195.55
485.433	8841.25
485.637	9048.1
485.841	9216.03
486.045	9076.77
486.249	9076.77
486.453	9101.34
486.657	9144.35
486.861	9269.28
487.065	9009.19
487.269	9285.66
487.473	8867.88
487.677	9179.17
487.881	9009.19
488.085	9019.43
488.289	9181.21
488.493	9074.72
488.697	9072.67
488.901	9197.6
489.105	9084.96
489.309	9285.66
489.512	9273.37
489.716	9119.78
489.92	9312.28
490.124	9345.05
490.328	9297.95
490.531	8980.51
490.735	9273.37
490.939	9435.16
491.143	9367.58
491.346	9388.06
491.55	9558.04
491.754	9576.47
491.958	9494.55
492.161	9517.08
492.365	9748.5
492.569	9568.28
492.772	9594.9
492.976	9508.89
493.18	9721.88
493.383	9855
493.587	9814.04
493.79	10182.67
493.994	9928.72
494.197	10250.25
494.401	9902.1
494.605	10127.38
494.808	10321.93
495.012	10270.73
495.215	10526.73
495.419	10459.15
495.622	10375.18
495.825	10754.05
496.029	10536.97
496.232	10815.49
496.436	10786.82
496.639	11083.78
496.843	11089.92
497.046	11253.76
497.249	11364.35
497.453	11313.15
497.656	11597.82
497.859	11657.21
498.063	11577.34
498.266	11857.91
498.469	11763.7
498.673	12060.66
498.876	12249.07
499.079	12369.9
499.282	12058.61
499.485	12746.73
499.689	12648.43
499.892	12869.61
500.095	12826.6
500.298	13295.58
500.501	12734.44
500.705	13479.9
500.908	13639.64
501.111	13735.9
501.314	13787.1
501.517	13948.89
501.72	14028.76
501.923	14194.64
502.126	14682.06
502.329	14587.85
502.532	14634.96
502.735	14770.12
502.938	15099.84
503.141	15144.9
503.344	15466.43
503.547	15333.31
503.75	15738.81
503.953	15800.25
504.156	15869.88
504.359	16089.01
504.562	16187.32
504.765	16779.18
504.968	16576.43
505.17	17061.8
505.373	16838.57
505.576	17133.48
505.779	17356.71
505.982	17364.9
506.185	17698.72
506.387	17741.72
506.59	17899.42
506.793	18241.43
506.996	18358.16
507.198	18831.24
507.401	18605.97
507.604	18943.88
507.807	19433.35
508.009	19333
508.212	19642.24
508.415	19859.32
508.617	20078.46
508.82	20342.64
509.022	20223.86
509.225	20758.38
509.428	20840.3
509.63	21041
509.833	21098.34
510.035	21503.84
510.238	21188.46
510.44	21788.51
510.643	22179.67
510.845	22423.38
511.048	22226.78
511.25	22370.13
511.453	22660.94
511.655	23897.92
511.858	23043.92
512.06	23482.18
512.262	23940.93
512.465	23449.41
512.667	24381.24
512.87	24444.73
513.072	24461.11
513.274	24956.72
513.477	25282.34
513.679	25368.36
513.881	25474.85
514.084	26062.62
514.286	26052.38
514.488	26335
514.69	27004.69
514.893	26898.19
515.095	27037.45
515.297	27270.92
515.499	27397.9
515.701	28274.43
515.904	27979.52
516.106	28069.63
516.308	28610.29
516.51	28876.53
516.712	29220.59
516.914	29341.42
517.116	29638.37
517.318	30060.26
517.52	29652.71
517.722	29959.91
517.925	30971.6
518.127	31030.99
518.329	31182.54
518.531	31063.76
518.733	31452.87
518.935	31749.83
519.136	32102.08
519.338	32384.7
519.54	32722.62
519.742	32888.5
519.944	33193.65
520.146	33543.85
520.348	33535.66
520.55	33908.39
520.752	34117.28
520.954	34737.82
521.155	34322.08
521.357	35085.97
521.559	35305.1
521.761	35876.49
521.963	35663.5
522.164	35681.93
522.366	36273.79
522.568	36294.27
522.77	36738.68
522.971	37250.67
523.173	36454.01
523.375	37508.72
523.576	37459.57
523.778	37705.32
523.98	37797.48
524.181	38471.26
524.383	38477.41
524.584	38655.58
524.786	38463.07
524.988	38688.35
525.189	39222.87
525.391	39298.64
525.592	39302.74
525.794	39462.48
525.995	39765.58
526.197	40076.87
526.398	40187.46
526.6	40359.49
526.801	40506.94
527.003	40486.46
527.204	41154.1
527.406	40914.49
527.607	40947.26
527.808	41614.9
528.01	40832.57
528.211	40994.36
528.412	41911.85
528.614	41287.22
528.815	41793.07
529.016	42501.67
529.218	41688.62
529.419	42393.12
529.62	42036.78
529.822	42337.83
530.023	41924.14
530.224	42386.98
530.425	42350.12
530.626	41756.21
530.828	41997.87
531.029	43361.81
531.23	42335.78
531.431	42669.6
531.632	42804.77
531.833	43193.88
532.035	42894.88
532.236	43271.7
532.437	43361.81
532.638	43159.06
532.839	43224.6
533.04	43425.3
533.241	42690.08
533.442	43425.3
533.643	43238.93
533.844	43275.8
534.045	43363.86
534.246	43228.7
534.447	43832.85
534.648	43089.43
534.849	43984.4
535.05	43181.59
535.251	43781.65
535.451	43546.13
535.652	43638.29
535.853	43910.67
536.054	43218.46
536.255	43982.35
536.456	43114.01
536.657	43998.73
536.857	43257.37
537.058	43464.21
537.259	43527.7
537.46	43640.34
537.66	43486.74
537.861	43929.1
538.062	43798.03
538.263	44076.55
538.463	43527.7
538.664	43507.22
538.865	43912.72
539.065	43795.98
539.266	43093.53
539.466	44013.07
539.667	43159.06
539.868	44062.22
540.068	43478.55
540.269	43628.05
540.469	43767.31
540.67	43470.36
540.87	43683.34
541.071	43472.4
541.271	43570.71
541.472	43742.74
541.672	43439.64
541.873	43671.06
542.073	42569.25
542.274	43865.61
542.474	43331.09
542.675	43048.47
542.875	43861.52
543.075	43408.92
543.276	43034.14
543.476	43671.06
543.676	43017.75
543.877	43707.92
544.077	43623.95
544.277	43243.03
544.478	43701.78
544.678	43812.37
544.878	43390.48
545.078	43546.13
545.279	42878.49
545.479	43380.24
545.679	43046.43
545.879	43382.29
546.079	43259.41
546.28	43413.01
546.48	43101.72
546.68	43597.33
546.88	43318.81
547.08	43331.09
547.28	43327
547.48	42724.89
547.68	43656.72
547.88	43281.94
548.081	43384.34
548.281	43169.3
548.481	43218.46
548.681	43695.63
548.881	43359.77
549.081	43185.69
549.28	43275.8
549.48	43587.09
549.68	43036.19
549.88	43408.92
550.08	42993.18
550.28	43040.28
550.48	42954.27
550.68	43423.25
550.88	42812.96
551.08	43255.32
551.279	43247.13
551.479	42507.81
551.679	42935.84
551.879	42839.58
552.079	43189.78
552.278	42921.5
552.478	42935.84
552.678	43322.9
552.878	43152.92
553.077	43111.96
553.277	42468.9
553.477	43550.23
553.676	42567.2
553.876	42950.17
554.076	42870.3
554.275	42661.41
554.475	42092.07
554.674	42903.07
554.874	42907.16
555.074	42563.11
555.273	42878.49
555.473	43204.12
555.672	42579.49
555.872	42692.13
556.071	42612.26
556.271	42769.95
556.47	42364.45
556.67	42305.06
556.869	42341.92
557.068	42206.76
557.268	42061.35
557.467	42290.73
557.667	42014.25
557.866	42063.4
558.065	42047.02
558.265	41831.98
558.464	41739.82
558.663	42446.37
558.863	41434.67
559.062	42284.58
559.261	41758.25
559.461	41797.16
559.66	41422.39
559.859	41575.98
560.058	41481.78
560.258	41643.57
560.457	40896.06
560.656	41739.82
560.855	41365.04
561.054	41217.59
561.253	41166.39
561.453	41506.35
561.652	41154.1
561.851	41186.87
562.05	40769.08
562.249	40771.13
562.448	41199.16
562.647	40982.07
562.846	40832.57
563.045	40961.59
563.244	40246.85
563.443	40914.49
563.642	40298.05
563.841	40488.51
564.04	40011.34
564.239	40808
564.438	40115.78
564.637	40441.41
564.836	39837.26
565.035	39910.99
565.234	40011.34
565.432	39732.81
565.631	39626.32
565.83	39732.81
566.029	39745.1
566.228	39562.83
566.427	39706.19
566.625	39427.67
566.824	38682.2
567.023	39605.84
567.222	38647.39
567.42	38819.42
567.619	39112.28
567.818	38905.43
568.016	38774.36
568.215	38970.97
568.414	38245.99
568.612	39110.23
568.811	38282.85
569.01	38579.81
569.208	37822.06
569.407	38596.19
569.605	38278.75
569.804	38135.4
570.002	38008.42
570.201	38456.93
570.4	37602.92
570.598	37490.29
570.797	37488.24
570.995	37641.84
571.193	37279.35
571.392	37586.54
571.59	37193.33
571.789	37107.32
571.987	37234.29
572.186	37367.41
572.384	36998.77
572.582	36951.67
572.781	36789.88
572.979	36529.79
573.177	36537.98
573.376	36703.87
573.574	36294.27
573.772	36574.84
573.971	36402.82
574.169	36038.28
574.367	35640.97
574.565	36445.82
574.763	35827.34
574.962	36073.09
575.16	35288.72
575.358	35952.26
575.556	35038.87
575.754	35493.52
575.952	35169.94
576.151	35260.05
576.349	34983.57
576.547	35157.65
576.745	35231.38
576.943	35157.65
577.141	34827.93
577.339	35192.47
577.537	34573.98
577.735	34842.26
577.933	34490.01
578.131	34539.16
578.329	34551.45
578.527	34447.01
578.725	34377.37
578.923	33988.26
579.121	33746.6
579.319	34461.34
579.516	34203.3
579.714	33978.02
579.912	33640.11
580.11	33881.77
580.308	33601.19
580.506	33689.26
580.704	33056.43
580.901	33676.97
581.099	33715.88
581.297	33017.52
581.495	33085.11
581.692	33404.59
581.89	33117.87
582.088	33269.42
582.285	32624.31
582.483	33097.39
582.681	32827.06
582.878	32435.9
583.076	32067.27
583.274	32755.38
583.471	32509.63
583.669	32706.23
583.866	32108.22
584.064	32202.43
584.262	31962.82
584.459	32220.86
584.657	31690.44
584.854	31915.72
585.052	31561.42
585.249	31852.23
585.447	31860.42
585.644	31536.84
585.841	31688.39
586.039	31583.94
586.236	31409.87
586.434	31381.2
586.631	31092.43
586.828	30893.78
587.026	31000.27
587.223	30926.55
587.42	30828.24
587.618	30930.64
587.815	30551.77
588.012	30559.96
588.21	30181.09
588.407	30701.27
588.604	30086.88
588.801	30197.47
588.999	29947.62
589.196	30123.74
589.393	29931.23
589.59	29957.86
589.787	29734.63
589.984	29802.21
590.182	29527.78
590.379	29763.3
590.576	29816.55
590.773	29365.99
590.97	28845.81
591.167	29026.03
591.364	28985.07
591.561	29402.86
591.758	29021.94
591.955	29112.05
592.152	28862.19
592.349	28729.08
592.546	28882.67
592.743	28731.12
592.94	28161.79
593.137	28542.71
593.334	28540.66
593.531	28352.25
593.727	28391.16
593.924	28262.14
594.121	27774.72
594.318	28323.58
594.515	27561.73
594.712	28260.09
594.908	27590.41
595.105	27856.64
595.302	27717.38
595.499	27526.92
595.696	27414.28
595.892	27029.26
596.089	27701
596.286	27580.17
596.482	27158.28
596.679	27207.44
596.876	27219.72
597.072	26832.66
597.269	26910.48
597.466	26715.92
597.662	26511.13
597.859	26859.28
598.055	26859.28
598.252	26603.28
598.448	26470.17
598.645	26316.57
598.841	26076.96
599.038	26402.58
599.234	26464.02
599.431	26038.05
599.627	25638.69
599.824	26273.56
600.02	25741.09
600.217	26165.02
600.413	25960.22
600.609	25585.44
600.806	25585.44
601.002	25792.29
601.198	25804.58
601.395	25265.96
601.591	25372.46
601.787	25413.41
601.984	24751.92
602.18	25413.41
602.376	24975.15
602.572	24641.33
602.769	24837.94
602.965	24905.52
603.161	24733.49
603.357	24665.91
603.553	24880.94
603.75	24768.3
603.946	24389.43
604.142	24545.08
604.338	23934.78
604.534	24610.61
604.73	24248.12
604.926	24026.94
605.122	24219.45
605.318	23715.65
605.514	23684.93
605.71	23652.16
605.906	23912.25
606.102	23891.77
606.298	23377.73
606.494	23674.69
606.69	23418.69
606.886	23670.59
607.082	23103.31
607.278	23656.26
607.474	23017.29
607.67	23467.84
607.866	22665.04
608.062	23299.91
608.257	23304.01
608.453	23428.93
608.649	23291.72
608.845	22949.71
609.041	22863.69
609.236	22988.62
609.432	22603.6
609.628	22974.28
609.824	22841.17
610.019	22945.61
610.215	22511.44
610.411	22845.26
610.606	22579.03
610.802	22806.35
610.998	22593.36
611.193	22415.19
611.389	22398.8
611.584	22431.57
611.78	22077.27
611.976	22273.88
612.171	22523.73
612.367	22079.32
612.562	22171.48
612.758	21710.69
612.953	21858.14
613.149	22290.26
613.344	21886.81
613.539	22087.51
613.735	21935.96
613.93	21948.25
614.126	21911.39
614.321	21835.61
614.517	21639.01
614.712	21919.58
614.907	21454.69
615.103	21860.19
615.298	21933.92
615.493	21765.98
615.688	21165.93
615.884	21639.01
616.079	21337.96
616.274	21194.6
616.47	21641.06
616.665	21413.73
616.86	21143.4
617.055	21245.8
617.25	21041
617.445	21626.72
617.641	20981.61
617.836	21176.17
618.031	20705.13
618.226	21116.78
618.421	21118.82
618.616	21063.53
618.811	20901.74
619.006	20789.1
619.201	20696.94
619.396	20623.22
619.591	20092.79
619.786	20424.56
619.981	20148.09
620.176	20404.08
620.371	19847.04
620.566	20074.36
620.761	19615.62
620.956	20027.26
621.151	19572.61
621.346	19756.93
621.541	19384.19
621.735	19660.67
621.93	19384.19
622.125	19644.29
622.32	19027.85
622.515	19019.66
622.709	19183.49
622.904	19226.5
623.099	18843.53
623.294	18864.01
623.488	18788.24
623.683	18780.04
623.878	18421.65
624.072	18491.28
624.267	18599.82
624.462	18077.59
624.656	18098.07
624.851	18251.67
625.046	17983.38
625.24	18223
625.435	17780.64
625.629	17545.12
625.824	17668
626.018	17530.78
626.213	17164.2
626.407	17330.08
626.602	16998.31
626.796	17512.35
626.991	17199.01
627.185	17016.74
627.38	16791.47
627.574	16732.08
627.768	16592.81
627.963	16445.36
628.157	16461.74
628.352	16658.35
628.546	16306.1
628.74	16334.77
628.935	16082.87
629.129	16142.26
629.323	16107.44
629.517	15830.97
629.712	15957.94
629.906	15728.57
630.1	15667.13
630.294	15544.25
630.489	15626.17
630.683	15790.01
630.877	15325.12
631.071	15431.62
631.265	15462.33
631.459	15103.94
631.653	15071.17
631.848	14909.38
632.042	15024.07
632.236	15040.45
632.43	14653.39
632.624	14817.22
632.818	14538.7
633.012	14571.47
633.206	14405.58
633.4	14532.56
633.594	14321.62
633.788	14286.8
633.982	14292.94
634.176	14120.92
634.369	14075.86
634.563	14073.81
634.757	14159.83
634.951	13971.41
635.145	13651.93
635.339	13639.64
635.533	13762.52
635.726	13815.77
635.92	13389.79
636.114	13490.14
636.308	13307.87
636.501	13475.81
636.695	13217.76
636.889	13144.03
637.083	13191.14
637.276	12896.23
637.47	12943.33
637.664	12974.05
637.857	12885.99
638.051	12881.89
638.244	12859.37
638.438	12681.19
638.632	12494.83
638.825	12343.28
639.019	12148.72
639.212	12429.29
639.406	12181.49
639.599	12292.08
639.793	12062.71
639.986	12068.85
640.18	11997.17
640.373	11974.64
640.567	11849.72
640.76	11878.39
640.954	11575.29
641.147	11501.56
641.34	11661.3
641.534	11542.52
641.727	11573.24
641.92	11536.38
642.114	11384.83
642.307	11444.22
642.5	11069.44
642.694	10987.52
642.887	11143.17
643.08	11280.38
643.273	11177.98
643.467	10625.03
643.66	10915.84
643.853	10926.08
644.046	10709
644.239	10682.38
644.432	10874.88
644.626	10706.95
644.819	10594.31
645.012	10637.32
645.205	10741.77
645.398	10326.03
645.591	10258.45
645.784	10321.93
645.977	10117.14
646.17	10342.41
646.363	10303.5
646.556	10065.94
646.749	10041.36
646.942	10315.79
647.135	9846.8
647.328	9979.92
647.521	9668.63
647.714	9725.97
647.907	9762.84
648.099	9672.73
648.292	9699.35
648.485	9545.75
648.678	9318.43
648.871	9400.35
649.064	9308.19
649.256	9406.49
649.449	9377.82
649.642	9310.24
649.835	9101.34
650.027	9244.7
650.22	9021.47
650.413	9039.9
650.605	9072.67
650.798	8765.48
650.991	8792.1
651.183	8841.25
651.376	8882.21
651.568	8941.6
651.761	8572.97
651.954	8679.46
652.146	8710.18
652.339	8540.2
652.531	8620.07
652.724	8445.99
652.916	8314.92
653.109	8386.6
653.301	8347.69
653.494	8392.75
653.686	8157.23
653.879	8396.84
654.071	8298.54
654.263	8116.27
654.456	8038.45
654.648	8079.41
654.84	7948.34
655.033	7948.34
655.225	8003.63
655.417	7878.71
655.61	7897.14
655.802	7981.1
655.994	7784.5
656.186	7907.38
656.379	7659.57
656.571	7585.85
656.763	7647.29
656.955	7364.67
657.148	7555.13
657.34	7536.7
657.532	7389.24
657.724	7471.16
657.916	7393.34
658.108	7526.46
658.3	7301.18
658.492	7348.28
658.684	7200.83
658.876	7135.29
659.068	7241.79
659.26	7139.39
659.452	7143.49
659.644	7174.21
659.836	6961.22
660.028	7039.04
660.22	6977.6
660.412	6963.26
660.604	6803.52
660.796	6758.47
660.988	6914.11
661.18	6617.16
661.372	6590.53
661.563	6715.46
661.755	6758.47
661.947	6828.1
662.139	6535.24
662.331	6459.46
662.522	6662.21
662.714	6475.85
662.906	6602.82
663.097	6346.83
663.289	6264.91
663.481	6207.56
663.673	6441.03
663.864	6334.54
664.056	6150.22
664.247	6262.86
664.439	6094.93
664.631	6144.08
664.822	6350.92
665.014	6064.21
665.205	6162.51
665.397	6070.35
665.588	6193.23
665.78	6158.41
665.971	5791.83
666.163	5984.34
666.354	5929.04
666.546	5892.18
666.737	5871.7
666.929	5820.5
667.12	5812.31
667.311	5820.5
667.503	5759.06
667.694	5777.49
667.885	5707.86
668.077	5679.19
668.268	5625.94
668.459	5511.25
668.651	5689.43
668.842	5587.03
669.033	5478.49
669.224	5417.05
669.416	5419.1
669.607	5501.01
669.798	5412.95
669.989	5421.14
670.18	5400.66
670.371	5484.63
670.563	5144.67
670.754	5230.68
670.945	5273.69
671.136	5300.31
671.327	5124.19
671.518	5230.68
671.709	5181.53
671.9	5333.08
672.091	5107.8
672.282	5107.8
672.473	5193.82
672.664	5163.1
672.855	5027.93
673.046	5101.66
673.237	5156.96
673.428	5007.45
673.619	4968.54
673.809	4792.42
674	4968.54
674.191	4933.73
674.382	5038.17
674.573	5056.61
674.764	4886.62
674.954	4896.86
675.145	4579.43
675.336	4759.65
675.527	4790.37
675.717	4870.24
675.908	4657.25
676.099	4739.17
676.289	4810.85
676.48	4685.92
676.671	4651.11
676.861	4728.93
677.052	4524.13
677.243	4716.64
677.433	4503.65
677.624	4722.79
677.814	4497.51
678.005	4589.67
678.195	4558.95
678.386	4517.99
678.576	4544.61
678.767	4612.2
678.957	4526.18
679.148	4517.99
679.338	4550.76
679.529	4434.02
679.719	4333.67
679.909	4599.91
680.1	4327.53
680.29	4380.78
680.481	4397.16
680.671	4464.74
680.861	4243.56
681.052	4319.34
681.242	4321.38
681.432	4468.84
681.622	4192.36
681.813	4309.1
682.003	4264.04
682.193	4296.81
682.383	4235.37
682.573	4348.01
682.764	4395.11
682.954	4362.34
683.144	4261.99
683.334	4184.17
683.524	4241.51
683.714	4278.38
683.904	4214.89
684.094	4184.17
684.284	4094.06
684.474	4137.07
684.664	4139.12
684.854	4120.68
685.044	4065.39
685.234	4120.68
685.424	4046.96
685.614	4073.58
685.804	4175.98
685.994	4210.79
686.184	4130.92
686.374	3993.71
686.564	3852.4
686.753	3999.85
686.943	3993.71
687.133	3887.22
687.323	3960.94
687.513	3948.65
687.702	3922.03
687.892	3956.85
688.082	3788.91
688.272	3971.18
688.461	3901.55
688.651	3903.6
688.841	3811.44
689.03	3922.03
689.22	3764.34
689.41	3801.2
689.599	3799.15
689.789	3862.64
689.979	3815.54
690.168	3672.18
690.358	3706.99
690.547	3823.73
690.737	3788.91
690.926	3741.81
691.116	3590.26
691.305	3606.64
691.495	3666.03
691.684	3498.1
691.874	3651.7
692.063	3549.3
692.252	3684.47
692.442	3620.98
692.631	3401.85
692.82	3461.24
693.01	3475.57
693.199	3627.12
693.388	3461.24
693.578	3502.2
693.767	3573.88
693.956	3489.91
694.146	3481.72
694.335	3391.61
694.524	3502.2
694.713	3473.53
694.902	3541.11
695.092	3487.86
695.281	3401.85
695.47	3414.13
695.659	3256.44
695.848	3293.3
696.037	3539.06
696.226	3328.12
696.415	3369.08
696.604	3268.73
696.793	3319.93
696.982	3258.49
697.171	3256.44
697.36	3217.53
697.549	3233.91
697.738	3229.82
697.927	3227.77
698.116	3293.3
698.305	3260.54
698.494	3248.25
698.683	3367.03
698.872	3254.39
699.061	3297.4
699.25	3338.36
699.438	3219.58
699.627	3215.48
699.816	3360.89
700.005	3145.85
700.193	3285.11
700.382	3324.02
700.571	3186.81
700.76	3258.49
700.948	3231.87
701.137	3178.62
701.326	3256.44
701.514	3262.58
701.703	3068.03
701.892	3192.95
702.08	3108.99
702.269	3145.85
702.457	3182.71
702.646	3154.04
702.834	3139.71
703.023	3221.63
703.212	3096.7
703.4	3098.75
703.589	3154.04
703.777	3074.17
703.965	3121.28
704.154	3192.95
704.342	3164.28
704.531	3250.3
704.719	3027.07
704.907	3108.99
705.096	3139.71
705.284	3049.6
705.472	3141.75
705.661	3080.32
705.849	3047.55
706.037	3051.64
706.226	3016.83
706.414	3070.08
706.602	3162.23
706.79	3174.52
706.979	3102.84
707.167	3000.44
707.355	3172.47
707.543	3092.6
707.731	3078.27
707.919	3182.71
708.107	3074.17
708.296	3131.51
708.484	2992.25
708.672	3074.17
708.86	3059.84
709.048	3063.93
709.236	3035.26
709.424	3192.95
709.612	2924.67
709.8	3053.69
709.988	2973.82
710.176	3014.78
710.364	3012.73
710.551	2898.05
710.739	3031.16
710.927	3158.14
711.115	2988.16
711.303	3137.66
711.491	2957.44
711.679	3098.75
711.866	3086.46
712.054	3059.84
712.242	2977.92
712.43	2953.34
712.617	2953.34
712.805	2887.81
712.993	3000.44
713.181	2859.14
713.368	2941.05
713.556	3049.6
713.744	2906.24
713.931	2982.01
714.119	2947.2
714.306	3018.88
714.494	2961.53
714.682	3006.59
714.869	2898.05
715.057	2951.29
715.244	2857.09
715.432	2977.92
715.619	3074.17
715.807	2793.6
715.994	2771.07
716.182	3029.12
716.369	2947.2
716.556	2852.99
716.744	2965.63
716.931	2887.81
717.119	2924.67
717.306	3004.54
717.493	2896
717.681	3053.69
717.868	3008.64
718.055	2855.04
718.242	2846.85
718.43	2926.72
718.617	2906.24
718.804	2867.33
718.991	2799.74
719.179	2947.2
719.366	2822.27
719.553	2807.94
719.74	2799.74
719.927	2891.9
720.114	2879.61
720.301	2885.76
720.488	2842.75
720.676	2832.51
720.863	2879.61
721.05	2846.85
721.237	2852.99
721.424	2758.78
721.611	2865.28
721.798	2809.98
721.985	2777.22
722.172	2822.27
722.358	2816.13
722.545	2662.53
722.732	2945.15
722.919	2812.03
723.106	2736.26
723.293	2707.59
723.48	2721.92
723.667	2762.88
723.853	2738.3
724.04	2832.51
724.227	2799.74
724.414	2781.31
724.6	2687.11
724.787	2726.02
724.974	2805.89
725.161	2760.83
725.347	2728.07
725.534	2769.02
725.72	2713.73
725.907	2758.78
726.094	2787.46
726.28	2781.31
726.467	2793.6
726.653	2719.87
726.84	2840.7
727.027	2834.56
727.213	2799.74
727.4	2740.35
727.586	2795.65
727.773	2709.63
727.959	2826.37
728.145	2762.88
728.332	2588.8
728.518	2779.26
728.705	2728.07
728.891	2730.11
729.077	2812.03
729.264	2707.59
729.45	2592.9
729.636	2820.22
729.823	2668.67
730.009	2695.3
730.195	2730.11
730.382	2693.25
730.568	2732.16
730.754	2648.19
730.94	2656.39
731.126	2717.83
731.313	2705.54
731.499	2723.97
731.685	2723.97
731.871	2717.83
732.057	2633.86
732.243	2619.52
732.429	2640
732.615	2683.01
732.801	2775.17
732.987	2660.48
733.173	2650.24
733.359	2676.87
733.545	2717.83
733.731	2719.87
733.917	2715.78
734.103	2646.15
734.289	2732.16
734.475	2617.47
734.661	2666.63
734.847	2664.58
735.033	2695.3
735.219	2650.24
735.404	2703.49
735.59	2617.47
735.776	2576.52
735.962	2623.62
736.148	2715.78
736.333	2611.33
736.519	2701.44
736.705	2646.15
736.89	2570.37
737.076	2617.47
737.262	2545.8
737.447	2556.04
737.633	2646.15
737.819	2562.18
738.004	2535.56
738.19	2537.6
738.375	2500.74
738.561	2656.39
738.747	2424.97
738.932	2498.69
739.118	2531.46
739.303	2586.76
739.489	2551.94
739.674	2513.03
739.859	2535.56
740.045	2508.93
740.23	2580.61
740.416	2408.58
740.601	2463.88
740.786	2484.36
740.972	2492.55
741.157	2402.44
741.342	2459.78
741.528	2494.6
741.713	2394.25
741.898	2486.4
742.084	2332.81
742.269	2259.08
742.454	2476.16
742.639	2463.88
742.824	2357.38
743.01	2486.4
743.195	2336.9
743.38	2422.92
743.565	2424.97
743.75	2345.09
743.935	2300.04
744.12	2236.55
744.305	2388.1
744.49	2345.09
744.675	2281.61
744.86	2349.19
745.045	2168.97
745.23	2302.09
745.415	2324.62
745.6	2283.66
745.785	2293.9
745.97	2236.55
746.155	2324.62
746.34	2230.41
746.525	2179.21
746.71	2228.36
746.895	2101.39
747.079	2105.48
747.264	2089.1
747.449	2146.44
747.634	2056.33
747.819	2097.29
748.003	2093.19
748.188	1996.94
748.373	2244.74
748.557	2005.13
748.742	2046.09
748.927	1990.8
749.111	2048.14
749.296	2044.04
749.481	2066.57
749.665	1908.88
749.85	1874.06
750.034	1951.88
750.219	1833.1
750.404	1925.26
750.588	1939.6
750.773	2017.42
750.957	1892.49
751.141	1933.45
751.326	1814.67
751.51	1929.36
751.695	1872.01
751.879	1859.73
752.064	1777.81
752.248	1779.86
752.432	1712.27
752.617	1867.92
752.801	1704.08
752.985	1843.34
753.17	1812.62
753.354	1777.81
753.538	1712.27
753.722	1661.07
753.907	1675.41
754.091	1691.79
754.275	1628.31
754.459	1732.75
754.643	1638.55
754.828	1587.35
755.012	1611.92
755.196	1593.49
755.38	1646.74
755.564	1532.05
755.748	1583.25
755.932	1599.63
756.116	1595.54
756.3	1521.81
756.484	1534.1
756.668	1616.02
756.852	1466.52
757.036	1566.87
757.22	1480.85
757.404	1505.43
757.588	1396.89
757.772	1433.75
757.956	1439.89
758.14	1538.2
758.323	1454.23
758.507	1474.71
758.691	1390.74
758.875	1431.7
759.059	1462.42
759.242	1347.73
759.426	1327.25
759.61	1448.08
759.794	1323.16
759.977	1464.47
760.161	1431.7
760.345	1421.46
760.528	1357.97
760.712	1267.86
760.895	1366.17
761.079	1386.65
761.263	1298.58
761.446	1228.95
761.63	1310.87
761.813	1286.3
761.997	1274.01
762.18	1286.3
762.364	1372.31
762.547	1200.28
762.731	1249.43
762.914	1269.91
763.098	1319.06
763.281	1187.99
763.464	1169.56
763.648	1187.99
763.831	1228.95
764.015	1235.1
764.198	1128.6
764.381	1243.29
764.564	1263.77
764.748	1226.9
764.931	1271.96
765.114	1144.99
765.297	1163.42
765.481	1187.99
765.664	1144.99
765.847	1134.75
766.03	1204.38
766.213	1192.09
766.397	1220.76
766.58	1136.79
766.763	1224.86
766.946	1007.77
767.129	1089.69
767.312	1042.59
767.495	1106.07
767.678	1099.93
767.861	1140.89
768.044	1112.22
768.227	1126.55
768.41	1185.94
768.593	1140.89
768.776	1013.92
768.959	954.52
769.142	1104.03
769.324	1052.83
769.507	1097.88
769.69	1032.35
769.873	1030.3
770.056	1067.16
770.239	1126.55
770.421	989.34
770.604	985.24
770.787	956.57
770.97	1015.96
771.152	1024.16
771.335	989.34
771.518	929.95
771.7	981.15
771.883	975
772.066	987.29
772.248	1003.68
772.431	893.09
772.613	960.67
772.796	956.57
772.978	985.24
773.161	917.66
773.343	891.04
773.526	876.7
773.708	970.91
773.891	823.45
774.073	1007.77
774.256	929.95
774.438	964.76
774.621	927.9
774.803	956.57
774.985	884.89
775.168	807.07
775.35	880.8
775.532	778.4
775.715	854.17
775.897	936.09
776.079	821.41
776.261	809.12
776.444	786.59
776.626	858.27
776.808	762.02
776.99	731.3
777.173	813.21
777.355	794.78
777.537	757.92
777.719	766.11
777.901	733.34
778.083	768.16
778.265	721.06
778.447	762.02
778.629	731.3
778.811	727.2
778.993	719.01
779.175	731.3
779.357	723.1
779.539	772.25
779.721	673.95
779.903	704.67
780.085	721.06
780.267	620.71
780.449	719.01
780.631	751.78
780.812	661.66
780.994	632.99
781.176	723.1
781.358	712.86
781.54	669.86
781.721	604.32
781.903	647.33
782.085	676
782.267	614.56
782.448	635.04
782.63	622.75
782.812	645.28
782.993	614.56
783.175	637.09
783.357	577.7
783.538	608.42
783.72	620.71
783.901	600.23
784.083	630.95
784.264	645.28
784.446	534.69
784.627	528.55
784.809	598.18
784.99	532.64
785.172	630.95
785.353	549.03
785.535	483.49
785.716	473.25
785.897	497.83
786.079	544.93
786.26	475.3
786.441	542.88
786.623	506.02
786.804	477.35
786.985	565.41
787.167	510.11
787.348	512.16
787.529	600.23
787.71	583.84
787.891	491.68
788.073	473.25
788.254	454.82
788.435	497.83
788.616	503.97
788.797	473.25
788.978	444.58
789.159	483.49
789.34	503.97
789.522	356.52
789.703	385.19
789.884	520.35
790.065	465.06
790.246	362.66
790.427	448.68
790.607	503.97
790.788	528.55
790.969	362.66
791.15	434.34
791.331	430.24
791.512	446.63
791.693	452.77
791.874	358.57
792.054	430.24
792.235	442.53
792.416	442.53
792.597	401.57
792.778	446.63
792.958	458.92
793.139	448.68
793.32	444.58
793.5	444.58
793.681	391.33
793.862	323.75
794.042	364.71
794.223	299.17
794.404	348.33
794.584	323.75
794.765	370.85
794.945	366.76
795.126	463.01
795.306	422.05
795.487	350.37
795.667	393.38
795.848	360.61
796.028	327.85
796.209	379.04
796.389	387.24
796.57	305.32
796.75	340.13
796.93	377
797.111	317.61
797.291	389.28
797.471	297.13
797.652	415.91
797.832	325.8
798.012	395.43
798.192	293.03
798.373	309.41
798.553	311.46
798.733	352.42
798.913	350.37
799.093	319.65
799.274	331.94
799.454	344.23
799.634	325.8
799.814	329.89
799.994	333.99
800.174	319.65
800.354	301.22
800.534	227.5
800.714	354.47
800.894	252.07
801.074	286.89
801.254	325.8
801.434	387.24
801.614	317.61
801.794	256.17
801.974	608.42
802.154	209.06
802.334	266.41
802.514	286.89
802.693	301.22
802.873	256.17
803.053	336.04
803.233	331.94
803.413	223.4
803.592	299.17
803.772	254.12
803.952	233.64
804.131	233.64
804.311	276.65
804.491	250.02
804.67	303.27
804.85	338.09
805.03	340.13
805.209	276.65
805.389	174.25
805.568	198.82
805.748	299.17
805.928	290.98
806.107	229.54
806.287	254.12
806.466	252.07
806.646	264.36
806.825	221.35
807.004	250.02
807.184	333.99
807.363	235.69
807.543	186.54
807.722	219.3
807.901	258.21
808.081	303.27
808.26	221.35
808.439	264.36
808.619	264.36
808.798	297.13
808.977	211.11
809.156	186.54
809.336	196.78
809.515	223.4
809.694	231.59
809.873	247.97
810.052	180.39
810.231	194.73
810.411	184.49
810.59	231.59
810.769	219.3
810.948	233.64
811.127	268.45
811.306	153.77
811.485	207.02
811.664	227.5
811.843	258.21
812.022	243.88
812.201	178.34
812.38	196.78
812.559	125.1
812.737	231.59
812.916	186.54
813.095	174.25
813.274	164.01
813.453	278.69
813.632	250.02
813.811	186.54
813.989	155.82
814.168	202.92
814.347	241.83
814.526	153.77
814.704	204.97
814.883	250.02
815.062	192.68
815.24	196.78
815.419	121
815.598	147.62
815.776	137.38
815.955	207.02
816.133	180.39
816.312	182.44
816.49	170.15
816.669	184.49
816.847	80.04
817.026	180.39
817.204	121
817.383	213.16
817.561	121
817.74	174.25
817.918	196.78
818.097	217.26
818.275	155.82
818.453	129.19
818.632	200.87
818.81	159.91
818.988	180.39
819.167	164.01
819.345	188.58
819.523	239.78
819.701	71.85
819.879	209.06
820.058	215.21
820.236	159.91
820.414	147.62
820.592	172.2
820.77	135.34
820.948	127.14
821.127	114.86
821.305	157.86
821.483	133.29
821.661	168.1
821.839	159.91
822.017	170.15
822.195	123.05
822.373	178.34
822.551	131.24
822.729	184.49
822.907	161.96
823.085	164.01
823.262	135.34
823.44	127.14
823.618	149.67
823.796	131.24
823.974	104.62
824.152	196.78
824.329	51.37
824.507	182.44
824.685	176.3
824.863	176.3
825.04	118.95
825.218	182.44
825.396	127.14
825.574	174.25
825.751	178.34
825.929	127.14
826.107	147.62
826.284	57.51
826.462	145.58
826.639	149.67
826.817	145.58
826.994	129.19
827.172	143.53
827.349	176.3
827.527	80.04
827.704	121
827.882	88.23
828.059	112.81
828.237	92.33
828.414	164.01
828.591	90.28
828.769	137.38
828.946	145.58
829.124	114.86
829.301	174.25
829.478	166.06
829.655	73.9
829.833	92.33
830.01	118.95
830.187	166.06
830.364	182.44
830.542	108.71
830.719	106.67
830.896	118.95
831.073	75.95
831.25	123.05
831.427	139.43
831.604	69.8
831.782	65.71
831.959	141.48
832.136	104.62
832.313	102.57
832.49	45.23
832.667	102.57
832.844	0.17
833.021	86.19
833.198	180.39
833.374	73.9
833.551	98.47
833.728	139.43
833.905	123.05
834.082	145.58
834.259	55.47
834.436	184.49
834.612	80.04
834.789	118.95
834.966	-12.12
835.143	114.86
835.319	137.38
835.496	129.19
835.673	108.71
835.85	73.9
836.026	114.86
836.203	170.15
836.38	114.86
836.556	135.34
836.733	90.28
836.909	180.39
837.086	112.81
837.262	67.75
837.439	164.01
837.616	108.71
837.792	65.71
837.968	43.18
838.145	49.32
838.321	75.95
838.498	77.99
838.674	63.66
838.851	24.75
839.027	164.01
839.203	59.56
839.38	86.19
839.556	106.67
839.732	84.14
839.909	49.32
840.085	129.19
840.261	145.58
840.437	43.18
840.614	71.85
840.79	147.62
840.966	73.9
841.142	34.99
841.318	75.95
841.494	94.38
841.671	104.62
841.847	121
842.023	108.71
842.199	110.76
842.375	47.27
842.551	16.55
842.727	94.38
842.903	108.71
843.079	108.71
843.255	73.9
843.431	59.56
843.607	94.38
843.783	49.32
843.959	106.67
844.134	-32.6
844.31	112.81
844.486	102.57
844.662	137.38
844.838	82.09
845.013	80.04
845.189	106.67
845.365	104.62
845.541	116.9
845.716	147.62
845.892	55.47
846.068	32.94
846.244	73.9
846.419	114.86
846.595	32.94
846.77	63.66
846.946	80.04
847.122	22.7
847.297	63.66
847.473	61.61
847.648	39.08
847.824	2.22
847.999	-69.46
848.175	166.06
848.35	28.84
848.526	86.19
848.701	63.66
848.876	69.8
849.052	73.9
849.227	88.23
849.403	71.85
849.578	84.14
849.753	55.47
849.929	90.28
850.104	2.22
850.279	63.66
850.454	118.95
850.63	61.61
850.805	20.65
850.98	127.14
851.155	41.13
851.33	51.37
851.505	-40.79
851.681	84.14
851.856	26.79
852.031	49.32
852.206	118.95
852.381	121
852.556	24.75
852.731	51.37
852.906	0.17
853.081	45.23
853.256	106.67
853.431	123.05
853.606	41.13
853.781	61.61
853.956	45.23
854.131	55.47
854.305	18.6
854.48	22.7
854.655	88.23
854.83	30.89
855.005	41.13
855.18	135.34
855.354	-24.4
855.529	77.99
855.704	-18.26
855.879	6.31
856.053	94.38
856.228	69.8
856.403	-12.12
856.577	71.85
856.752	39.08
856.926	32.94
857.101	65.71
857.276	57.51
857.45	-8.02
857.625	57.51
857.799	49.32
857.974	82.09
858.148	41.13
858.323	20.65
858.497	-14.17
858.672	104.62
858.846	-69.46
859.02	80.04
859.195	51.37
859.369	67.75
859.543	2.22
859.718	4.27
859.892	28.84
860.066	75.95
860.241	32.94
860.415	77.99
860.589	45.23
860.763	30.89
860.938	65.71
861.112	106.67
861.286	92.33
861.46	110.76
861.634	22.7
861.808	32.94
861.982	28.84
862.157	47.27
862.331	30.89
862.505	22.7
862.679	71.85
862.853	20.65
863.027	-8.02
863.201	-18.26
863.375	-5.97
863.549	73.9
863.722	63.66
863.896	16.55
864.07	34.99
864.244	96.43
864.418	65.71
864.592	2.22
864.766	-18.26
864.939	30.89
865.113	37.03
865.287	14.51
865.461	49.32
865.634	67.75
865.808	8.36
865.982	-32.6
866.156	-8.02
866.329	-12.12
866.503	80.04
866.676	-18.26
866.85	28.84
867.024	45.23
867.197	-16.21
867.371	14.51
867.544	51.37
867.718	34.99
867.891	47.27
868.065	24.75
868.238	22.7
868.412	67.75
868.585	53.42
868.759	-36.69
868.932	39.08
869.105	12.46
869.279	45.23
869.452	43.18
869.625	-1.88
869.799	82.09
869.972	26.79
870.145	37.03
870.319	32.94
870.492	73.9
870.665	-5.97
870.838	86.19
871.011	-28.5
871.185	24.75
871.358	-8.02
871.531	98.47
871.704	34.99
871.877	77.99
872.05	37.03
872.223	-18.26
872.396	135.34
872.569	30.89
872.742	16.55
872.915	92.33
873.088	82.09
873.261	14.51
873.434	63.66
873.607	65.71
873.78	24.75
873.953	39.08
874.126	30.89
874.299	-38.74
874.471	-20.31
874.644	-20.31
874.817	47.27
874.99	69.8
875.163	8.36
875.335	12.46
875.508	57.51
875.681	65.71
875.853	12.46
876.026	-14.17
876.199	55.47
876.371	2.22
876.544	67.75
876.717	80.04
876.889	102.57
877.062	41.13
877.234	26.79
877.407	32.94
877.579	20.65
877.752	-3.93
877.924	88.23
878.097	90.28
878.269	92.33
878.442	30.89
878.614	-8.02
878.786	164.01
878.959	37.03
879.131	32.94
879.303	14.51
879.476	41.13
879.648	30.89
879.82	45.23
879.993	49.32
880.165	-8.02
880.337	16.55
880.509	12.46
880.681	-61.27
880.854	47.27
881.026	-3.93
881.198	43.18
881.37	53.42
881.542	67.75
881.714	-5.97
881.886	22.7
882.058	-22.36
882.23	51.37
882.402	10.41
882.574	10.41
882.746	123.05
882.918	92.33
883.09	63.66
883.262	18.6
883.434	18.6
883.606	0.17
883.778	45.23
883.95	39.08
884.122	26.79
884.293	82.09
884.465	90.28
884.637	20.65
884.809	20.65
884.98	96.43
885.152	45.23
885.324	53.42
885.496	49.32
885.667	-16.21
885.839	8.36
886.011	8.36
886.182	8.36
886.354	6.31
886.525	-32.6
886.697	69.8
886.869	49.32
887.04	28.84
887.212	88.23
887.383	69.8
887.555	24.75
887.726	92.33
887.897	30.89
888.069	94.38
888.24	80.04
888.412	-28.5
888.583	77.99
888.754	57.51
888.926	16.55
889.097	16.55
889.268	-3.93
889.44	39.08
889.611	45.23
889.782	47.27
889.953	24.75
890.125	24.75
890.296	4.27
890.467	2.22
890.638	-1.88
890.809	65.71
890.98	-26.45
891.151	-40.79
891.323	28.84
891.494	18.6
891.665	41.13
891.836	32.94
892.007	20.65
892.178	-12.12
892.349	51.37
892.52	-8.02
892.691	41.13
892.862	28.84
893.032	24.75
893.203	26.79
893.374	-24.4
893.545	14.51
893.716	14.51
893.887	32.94
894.057	55.47
894.228	22.7
894.399	41.13
894.57	49.32
894.74	-3.93
894.911	71.85
895.082	47.27
895.253	-22.36
895.423	28.84
895.594	-36.69
895.764	-20.31
895.935	30.89
896.106	26.79
896.276	16.55
896.447	10.41
896.617	10.41
896.788	57.51
896.958	59.56
897.129	0.17
897.299	-3.93
897.47	-48.98
897.64	75.95
897.81	8.36
897.981	12.46
898.151	24.75
898.322	18.6
898.492	65.71
898.662	18.6
898.832	-73.56
899.003	51.37
899.173	22.7
899.343	59.56
899.513	47.27
