Data from USB4F104151__271__11-12-07-445.txt Node

Date: Wed Mar 12 11:12:07 EDT 2025
User: louis
Spectrometer: USB4F10415
Trigger mode: 4
Integration Time (sec): 2.000000E-2
Scans to average: 1
Electric dark correction enabled: true
Nonlinearity correction enabled: false
Boxcar width: 0
XAxis mode: Wavelengths
Number of Pixels in Spectrum: 3648
>>>>>Begin Spectral Data<<<<<
178.204	-69.8
178.424	-69.8
178.644	-69.8
178.864	-94.38
179.084	-73.9
179.304	-59.56
179.524	-28.84
179.744	-10.41
179.964	16.21
180.184	8.02
180.404	-71.85
180.624	24.4
180.844	36.69
181.064	57.17
181.283	-14.51
181.503	-41.13
181.723	83.8
181.943	-4.27
182.163	57.17
182.383	-14.51
182.602	22.36
182.822	20.31
183.042	-6.31
183.262	22.36
183.482	10.07
183.701	-24.75
183.921	10.07
184.141	-41.13
184.361	65.36
184.58	28.5
184.8	16.21
185.02	1.88
185.239	34.64
185.459	14.17
185.679	83.8
185.898	-39.08
186.118	46.93
186.338	-24.75
186.557	-43.18
186.777	-2.22
186.997	40.79
187.216	-20.65
187.436	28.5
187.655	5.97
187.875	18.26
188.095	32.6
188.314	83.8
188.534	32.6
188.753	51.03
188.973	24.4
189.192	-26.79
189.412	24.4
189.631	20.31
189.851	-10.41
190.07	44.88
190.29	-75.95
190.509	-2.22
190.729	-28.84
190.948	71.51
191.168	112.47
191.387	5.97
191.607	5.97
191.826	40.79
192.045	48.98
192.265	40.79
192.484	-47.27
192.704	34.64
192.923	-41.13
193.142	69.46
193.362	42.84
193.581	51.03
193.8	34.64
194.02	12.12
194.239	10.07
194.458	12.12
194.678	48.98
194.897	38.74
195.116	18.26
195.335	-34.99
195.555	5.97
195.774	22.36
195.993	-0.17
196.212	-51.37
196.432	1.88
196.651	12.12
196.87	-114.86
197.089	79.7
197.308	-0.17
197.528	38.74
197.747	48.98
197.966	5.97
198.185	5.97
198.404	-10.41
198.623	34.64
198.842	10.07
199.062	48.98
199.281	36.69
199.5	8.02
199.719	53.08
199.938	36.69
200.157	40.79
200.376	57.17
200.595	-34.99
200.814	34.64
201.033	-14.51
201.252	20.31
201.471	-8.36
201.69	81.75
201.909	40.79
202.128	-10.41
202.347	-2.22
202.566	22.36
202.785	71.51
203.004	34.64
203.223	81.75
203.442	91.99
203.661	3.93
203.879	57.17
204.098	59.22
204.317	-30.89
204.536	65.36
204.755	36.69
204.974	55.12
205.193	8.02
205.411	1.88
205.63	106.32
205.849	18.26
206.068	-24.75
206.287	46.93
206.505	65.36
206.724	63.32
206.943	8.02
207.162	20.31
207.381	3.93
207.599	-10.41
207.818	24.4
208.037	3.93
208.255	-14.51
208.474	38.74
208.693	-0.17
208.911	-4.27
209.13	-26.79
209.349	8.02
209.567	34.64
209.786	112.47
210.005	61.27
210.223	3.93
210.442	-0.17
210.661	-28.84
210.879	55.12
211.098	20.31
211.316	-28.84
211.535	85.84
211.753	12.12
211.972	-63.66
212.191	59.22
212.409	-20.65
212.628	44.88
212.846	5.97
213.065	-4.27
213.283	135
213.502	16.21
213.72	-32.94
213.938	55.12
214.157	-4.27
214.375	38.74
214.594	-43.18
214.812	85.84
215.031	40.79
215.249	36.69
215.467	-24.75
215.686	-14.51
215.904	40.79
216.122	51.03
216.341	5.97
216.559	44.88
216.778	32.6
216.996	73.56
217.214	55.12
217.432	-2.22
217.651	-0.17
217.869	-12.46
218.087	22.36
218.306	-22.7
218.524	36.69
218.742	65.36
218.96	5.97
219.179	24.4
219.397	-45.23
219.615	10.07
219.833	98.13
220.051	16.21
220.27	42.84
220.488	73.56
220.706	44.88
220.924	3.93
221.142	16.21
221.36	5.97
221.578	34.64
221.796	20.31
222.015	16.21
222.233	-6.31
222.451	-0.17
222.669	3.93
222.887	1.88
223.105	-26.79
223.323	-51.37
223.541	16.21
223.759	5.97
223.977	-20.65
224.195	94.04
224.413	63.32
224.631	20.31
224.849	22.36
225.067	40.79
225.285	48.98
225.503	75.6
225.721	1.88
225.939	-4.27
226.157	65.36
226.375	75.6
226.592	5.97
226.81	12.12
227.028	42.84
227.246	28.5
227.464	-4.27
227.682	16.21
227.9	57.17
228.117	-30.89
228.335	5.97
228.553	-28.84
228.771	63.32
228.989	32.6
229.206	-22.7
229.424	8.02
229.642	12.12
229.86	-30.89
230.077	-65.71
230.295	71.51
230.513	77.65
230.731	26.45
230.948	40.79
231.166	34.64
231.384	-2.22
231.601	51.03
231.819	-18.6
232.037	-43.18
232.254	-2.22
232.472	69.46
232.689	30.55
232.907	63.32
233.125	26.45
233.342	69.46
233.56	24.4
233.777	1.88
233.995	-18.6
234.213	28.5
234.43	-16.55
234.648	104.28
234.865	-45.23
235.083	42.84
235.3	18.26
235.518	22.36
235.735	14.17
235.953	10.07
236.17	32.6
236.388	24.4
236.605	-49.32
236.822	38.74
237.04	-39.08
237.257	59.22
237.475	16.21
237.692	89.94
237.909	5.97
238.127	-0.17
238.344	-2.22
238.562	8.02
238.779	-41.13
238.996	-28.84
239.214	22.36
239.431	38.74
239.648	1.88
239.865	28.5
240.083	32.6
240.3	77.65
240.517	14.17
240.735	24.4
240.952	-20.65
241.169	63.32
241.386	34.64
241.603	5.97
241.821	-30.89
242.038	55.12
242.255	55.12
242.472	48.98
242.689	-34.99
242.907	59.22
243.124	-49.32
243.341	26.45
243.558	102.23
243.775	-2.22
243.992	32.6
244.209	59.22
244.426	51.03
244.643	67.41
244.86	48.98
245.078	53.08
245.295	-16.55
245.512	55.12
245.729	-16.55
245.946	-16.55
246.163	14.17
246.38	-30.89
246.597	75.6
246.814	36.69
247.031	73.56
247.248	67.41
247.464	26.45
247.681	-18.6
247.898	-16.55
248.115	-49.32
248.332	3.93
248.549	91.99
248.766	69.46
248.983	83.8
249.2	26.45
249.417	137.04
249.633	75.6
249.85	67.41
250.067	30.55
250.284	87.89
250.501	12.12
250.717	40.79
250.934	-12.46
251.151	10.07
251.368	-49.32
251.585	22.36
251.801	77.65
252.018	59.22
252.235	-18.6
252.451	5.97
252.668	-30.89
252.885	48.98
253.102	-30.89
253.318	20.31
253.535	65.36
253.752	12.12
253.968	-16.55
254.185	-55.47
254.401	34.64
254.618	-20.65
254.835	3.93
255.051	48.98
255.268	75.6
255.484	18.26
255.701	24.4
255.917	16.21
256.134	28.5
256.351	46.93
256.567	36.69
256.784	91.99
257	-18.6
257.217	-6.31
257.433	-10.41
257.65	-16.55
257.866	12.12
258.082	81.75
258.299	-32.94
258.515	100.18
258.732	-45.23
258.948	20.31
259.165	34.64
259.381	-2.22
259.597	24.4
259.814	-14.51
260.03	16.21
260.246	53.08
260.463	32.6
260.679	65.36
260.895	55.12
261.112	69.46
261.328	24.4
261.544	8.02
261.761	-0.17
261.977	36.69
262.193	-10.41
262.409	48.98
262.626	24.4
262.842	8.02
263.058	-2.22
263.274	-2.22
263.49	-0.17
263.707	69.46
263.923	44.88
264.139	51.03
264.355	46.93
264.571	63.32
264.787	-14.51
265.004	24.4
265.22	-26.79
265.436	32.6
265.652	-20.65
265.868	32.6
266.084	-0.17
266.3	42.84
266.516	22.36
266.732	-26.79
266.948	-24.75
267.164	26.45
267.38	-0.17
267.596	44.88
267.812	61.27
268.028	32.6
268.244	-8.36
268.46	-0.17
268.676	-30.89
268.892	32.6
269.108	3.93
269.324	26.45
269.54	1.88
269.756	20.31
269.972	30.55
270.188	28.5
270.403	79.7
270.619	16.21
270.835	14.17
271.051	48.98
271.267	3.93
271.483	51.03
271.698	20.31
271.914	1.88
272.13	-16.55
272.346	-45.23
272.562	87.89
272.777	55.12
272.993	-30.89
273.209	18.26
273.425	16.21
273.64	-16.55
273.856	32.6
274.072	48.98
274.287	-53.42
274.503	5.97
274.719	77.65
274.934	61.27
275.15	-59.56
275.366	24.4
275.581	-16.55
275.797	71.51
276.012	-6.31
276.228	59.22
276.444	-24.75
276.659	38.74
276.875	48.98
277.09	16.21
277.306	34.64
277.521	61.27
277.737	-4.27
277.952	112.47
278.168	10.07
278.383	-0.17
278.599	36.69
278.814	65.36
279.03	-8.36
279.245	20.31
279.461	-59.56
279.676	55.12
279.892	32.6
280.107	36.69
280.322	8.02
280.538	26.45
280.753	-26.79
280.969	10.07
281.184	-6.31
281.399	20.31
281.615	-32.94
281.83	18.26
282.045	-30.89
282.26	87.89
282.476	-20.65
282.691	100.18
282.906	10.07
283.122	-0.17
283.337	8.02
283.552	28.5
283.767	61.27
283.983	-18.6
284.198	5.97
284.413	89.94
284.628	-4.27
284.843	8.02
285.058	-10.41
285.274	102.23
285.489	20.31
285.704	36.69
285.919	-43.18
286.134	-4.27
286.349	32.6
286.564	5.97
286.779	87.89
286.995	28.5
287.21	36.69
287.425	12.12
287.64	-12.46
287.855	36.69
288.07	53.08
288.285	14.17
288.5	40.79
288.715	-41.13
288.93	24.4
289.145	42.84
289.36	3.93
289.575	51.03
289.79	-14.51
290.004	-2.22
290.219	53.08
290.434	1.88
290.649	36.69
290.864	42.84
291.079	8.02
291.294	38.74
291.509	53.08
291.724	-47.27
291.938	61.27
292.153	59.22
292.368	57.17
292.583	51.03
292.798	-6.31
293.012	55.12
293.227	28.5
293.442	5.97
293.657	110.42
293.871	83.8
294.086	61.27
294.301	-2.22
294.516	63.32
294.73	1.88
294.945	32.6
295.16	8.02
295.374	3.93
295.589	40.79
295.804	34.64
296.018	104.28
296.233	24.4
296.447	79.7
296.662	34.64
296.877	57.17
297.091	-12.46
297.306	73.56
297.52	10.07
297.735	53.08
297.949	40.79
298.164	40.79
298.378	-10.41
298.593	30.55
298.807	-8.36
299.022	10.07
299.236	28.5
299.451	-10.41
299.665	100.18
299.88	94.04
300.094	83.8
300.309	-8.36
300.523	24.4
300.737	28.5
300.952	69.46
301.166	51.03
301.381	-2.22
301.595	22.36
301.809	32.6
302.024	32.6
302.238	57.17
302.452	12.12
302.667	-41.13
302.881	16.21
303.095	24.4
303.309	22.36
303.524	24.4
303.738	106.32
303.952	40.79
304.166	42.84
304.381	-20.65
304.595	32.6
304.809	-10.41
305.023	100.18
305.237	-12.46
305.452	77.65
305.666	-53.42
305.88	65.36
306.094	40.79
306.308	36.69
306.522	55.12
306.736	48.98
306.95	38.74
307.164	40.79
307.379	59.22
307.593	8.02
307.807	-28.84
308.021	-4.27
308.235	69.46
308.449	26.45
308.663	22.36
308.877	81.75
309.091	-18.6
309.305	55.12
309.519	-14.51
309.733	55.12
309.947	34.64
310.161	38.74
310.374	24.4
310.588	124.76
310.802	73.56
311.016	46.93
311.23	1.88
311.444	53.08
311.658	26.45
311.872	100.18
312.085	24.4
312.299	94.04
312.513	-6.31
312.727	-10.41
312.941	-8.36
313.154	85.84
313.368	20.31
313.582	8.02
313.796	26.45
314.009	28.5
314.223	61.27
314.437	24.4
314.651	-34.99
314.864	16.21
315.078	-16.55
315.292	16.21
315.505	38.74
315.719	14.17
315.933	-32.94
316.146	55.12
316.36	89.94
316.573	22.36
316.787	14.17
317.001	40.79
317.214	8.02
317.428	26.45
317.641	16.21
317.855	20.31
318.068	71.51
318.282	48.98
318.495	63.32
318.709	98.13
318.922	67.41
319.136	59.22
319.349	34.64
319.563	22.36
319.776	98.13
319.99	-4.27
320.203	98.13
320.417	32.6
320.63	67.41
320.843	55.12
321.057	-6.31
321.27	40.79
321.483	-12.46
321.697	61.27
321.91	24.4
322.124	38.74
322.337	12.12
322.55	61.27
322.763	-18.6
322.977	61.27
323.19	-43.18
323.403	16.21
323.617	-8.36
323.83	112.47
324.043	-8.36
324.256	40.79
324.469	-30.89
324.683	55.12
324.896	26.45
325.109	55.12
325.322	-10.41
325.535	44.88
325.748	34.64
325.962	79.7
326.175	63.32
326.388	106.32
326.601	44.88
326.814	65.36
327.027	42.84
327.24	61.27
327.453	-43.18
327.666	28.5
327.879	155.47
328.092	53.08
328.305	-0.17
328.518	14.17
328.731	16.21
328.944	102.23
329.157	-12.46
329.37	24.4
329.583	67.41
329.796	20.31
330.009	61.27
330.222	-22.7
330.435	16.21
330.648	102.23
330.861	1.88
331.073	53.08
331.286	61.27
331.499	16.21
331.712	63.32
331.925	-0.17
332.138	120.66
332.35	69.46
332.563	63.32
332.776	16.21
332.989	24.4
333.202	-2.22
333.414	32.6
333.627	-30.89
333.84	91.99
334.053	12.12
334.265	61.27
334.478	46.93
334.691	38.74
334.903	5.97
335.116	100.18
335.329	34.64
335.541	10.07
335.754	91.99
335.966	1.88
336.179	69.46
336.392	57.17
336.604	57.17
336.817	36.69
337.029	44.88
337.242	30.55
337.454	69.46
337.667	3.93
337.88	-4.27
338.092	16.21
338.305	38.74
338.517	26.45
338.729	-30.89
338.942	59.22
339.154	36.69
339.367	36.69
339.579	-0.17
339.792	10.07
340.004	42.84
340.217	36.69
340.429	22.36
340.641	3.93
340.854	12.12
341.066	1.88
341.278	40.79
341.491	77.65
341.703	38.74
341.915	34.64
342.128	3.93
342.34	42.84
342.552	10.07
342.764	-2.22
342.977	-0.17
343.189	51.03
343.401	18.26
343.613	42.84
343.826	77.65
344.038	-20.65
344.25	24.4
344.462	8.02
344.674	79.7
344.886	8.02
345.099	-2.22
345.311	44.88
345.523	14.17
345.735	10.07
345.947	71.51
346.159	18.26
346.371	61.27
346.583	98.13
346.795	89.94
347.007	8.02
347.219	81.75
347.431	-14.51
347.643	18.26
347.855	14.17
348.067	155.47
348.279	44.88
348.491	34.64
348.703	48.98
348.915	-18.6
349.127	38.74
349.339	48.98
349.551	3.93
349.763	36.69
349.975	36.69
350.187	65.36
350.399	34.64
350.61	48.98
350.822	91.99
351.034	51.03
351.246	-37.03
351.458	10.07
351.669	87.89
351.881	-0.17
352.093	48.98
352.305	57.17
352.517	-16.55
352.728	53.08
352.94	57.17
353.152	36.69
353.363	71.51
353.575	8.02
353.787	28.5
353.999	71.51
354.21	42.84
354.422	77.65
354.633	83.8
354.845	63.32
355.057	36.69
355.268	65.36
355.48	77.65
355.692	32.6
355.903	32.6
356.115	55.12
356.326	-0.17
356.538	28.5
356.749	73.56
356.961	69.46
357.172	22.36
357.384	26.45
357.595	118.61
357.807	1.88
358.018	57.17
358.23	24.4
358.441	104.28
358.653	36.69
358.864	42.84
359.075	67.41
359.287	65.36
359.498	55.12
359.709	30.55
359.921	3.93
360.132	114.52
360.344	40.79
360.555	57.17
360.766	48.98
360.977	-4.27
361.189	26.45
361.4	-47.27
361.611	18.26
361.823	71.51
362.034	65.36
362.245	-26.79
362.456	36.69
362.667	77.65
362.879	26.45
363.09	40.79
363.301	-0.17
363.512	63.32
363.723	14.17
363.935	89.94
364.146	69.46
364.357	22.36
364.568	73.56
364.779	87.89
364.99	75.6
365.201	106.32
365.412	124.76
365.623	61.27
365.834	57.17
366.045	26.45
366.256	46.93
366.467	48.98
366.678	91.99
366.889	3.93
367.1	77.65
367.311	38.74
367.522	1.88
367.733	57.17
367.944	32.6
368.155	-4.27
368.366	1.88
368.577	118.61
368.788	32.6
368.999	32.6
369.209	48.98
369.42	77.65
369.631	42.84
369.842	24.4
370.053	1.88
370.264	38.74
370.474	106.32
370.685	81.75
370.896	22.36
371.107	34.64
371.317	28.5
371.528	-39.08
371.739	77.65
371.95	-8.36
372.16	48.98
372.371	-43.18
372.582	18.26
372.792	77.65
373.003	24.4
373.214	114.52
373.424	91.99
373.635	104.28
373.846	20.31
374.056	-0.17
374.267	67.41
374.477	63.32
374.688	42.84
374.898	55.12
375.109	55.12
375.319	5.97
375.53	-14.51
375.74	14.17
375.951	-43.18
376.161	98.13
376.372	-6.31
376.582	-26.79
376.793	-14.51
377.003	75.6
377.214	16.21
377.424	20.31
377.635	79.7
377.845	-0.17
378.055	46.93
378.266	30.55
378.476	-6.31
378.686	48.98
378.897	-16.55
379.107	-4.27
379.317	89.94
379.528	38.74
379.738	53.08
379.948	65.36
380.158	65.36
380.369	44.88
380.579	38.74
380.789	61.27
380.999	63.32
381.21	16.21
381.42	96.08
381.63	28.5
381.84	91.99
382.05	51.03
382.261	12.12
382.471	51.03
382.681	-4.27
382.891	98.13
383.101	38.74
383.311	36.69
383.521	44.88
383.731	18.26
383.941	-0.17
384.151	20.31
384.361	3.93
384.571	24.4
384.781	48.98
384.991	106.32
385.201	12.12
385.411	26.45
385.621	59.22
385.831	48.98
386.041	61.27
386.251	24.4
386.461	16.21
386.671	53.08
386.881	135
387.091	-37.03
387.301	5.97
387.511	94.04
387.72	-10.41
387.93	65.36
388.14	69.46
388.35	83.8
388.56	102.23
388.769	83.8
388.979	20.31
389.189	65.36
389.399	36.69
389.609	71.51
389.818	22.36
390.028	20.31
390.238	57.17
390.447	24.4
390.657	94.04
390.867	34.64
391.076	53.08
391.286	65.36
391.496	91.99
391.705	10.07
391.915	32.6
392.125	65.36
392.334	22.36
392.544	122.71
392.753	153.43
392.963	51.03
393.172	87.89
393.382	91.99
393.591	114.52
393.801	28.5
394.01	130.9
394.22	106.32
394.429	38.74
394.639	18.26
394.848	53.08
395.058	106.32
395.267	102.23
395.477	28.5
395.686	8.02
395.895	151.38
396.105	161.62
396.314	94.04
396.524	122.71
396.733	22.36
396.942	96.08
397.152	44.88
397.361	44.88
397.57	91.99
397.78	102.23
397.989	96.08
398.198	110.42
398.407	67.41
398.617	81.75
398.826	208.72
399.035	128.85
399.244	5.97
399.453	73.56
399.663	48.98
399.872	159.57
400.081	128.85
400.29	28.5
400.499	34.64
400.708	173.91
400.917	61.27
401.127	51.03
401.336	46.93
401.545	114.52
401.754	137.04
401.963	77.65
402.172	85.84
402.381	104.28
402.59	114.52
402.799	87.89
403.008	106.32
403.217	141.14
403.426	116.56
403.635	28.5
403.844	40.79
404.053	159.57
404.262	57.17
404.471	137.04
404.68	100.18
404.888	91.99
405.097	100.18
405.306	112.47
405.515	188.24
405.724	169.81
405.933	180.05
406.142	102.23
406.35	198.48
406.559	194.39
406.768	180.05
406.977	245.59
407.185	171.86
407.394	192.34
407.603	135
407.812	233.3
408.02	171.86
408.229	151.38
408.438	208.72
408.646	223.06
408.855	171.86
409.064	223.06
409.272	175.95
409.481	270.16
409.69	165.71
409.898	257.87
410.107	280.4
410.315	288.59
410.524	221.01
410.733	331.6
410.941	298.83
411.15	311.12
411.358	292.69
411.567	335.7
411.775	296.78
411.984	323.41
412.192	388.94
412.401	462.67
412.609	462.67
412.818	397.14
413.026	448.33
413.234	366.42
413.443	423.76
413.651	595.79
413.86	448.33
414.068	462.67
414.276	497.49
414.485	513.87
414.693	595.79
414.901	522.06
415.11	710.47
415.318	558.92
415.526	608.08
415.734	665.42
415.943	679.75
416.151	677.71
416.359	714.57
416.567	739.15
416.776	800.59
416.984	776.01
417.192	923.46
417.4	702.28
417.608	821.06
417.817	911.18
418.025	956.23
418.233	1044.29
418.441	958.28
418.649	1062.73
418.857	1120.07
419.065	1154.88
419.273	1095.49
419.481	1183.56
419.689	1177.41
419.897	1273.67
420.105	1290.05
420.313	1269.57
420.521	1441.6
420.729	1394.5
420.937	1369.92
421.145	1476.41
421.353	1650.49
421.561	1568.57
421.769	1709.88
421.977	1697.6
422.185	1734.46
422.393	1847.1
422.601	1898.3
422.809	1904.44
423.017	1992.5
423.224	2012.98
423.432	2164.53
423.64	2205.49
423.848	2414.38
424.056	2238.26
424.263	2430.77
424.471	2586.41
424.679	2510.64
424.887	2699.05
425.094	2668.33
425.302	2772.78
425.51	2770.73
425.718	2858.79
425.925	2922.28
426.133	3014.44
426.341	3147.56
426.548	3264.29
426.756	3338.02
426.964	3358.5
427.171	3612.45
427.379	3686.17
427.586	3757.85
427.794	3843.87
428.001	4075.29
428.209	4171.54
428.417	4106.01
428.624	4572.94
428.832	4331.28
429.039	4445.97
429.247	4521.74
429.454	4773.64
429.662	5117.7
429.869	4853.52
430.076	5185.29
430.284	4949.77
430.491	5074.7
430.699	5560.06
430.906	5377.8
431.114	5627.65
431.321	5801.72
431.528	5854.97
431.736	6242.04
431.943	6739.69
432.15	6295.29
432.358	6360.82
432.565	6815.47
432.772	6792.94
432.979	7124.71
433.187	7356.13
433.394	7407.33
433.601	7907.04
433.808	7909.08
434.016	7653.09
434.223	8007.39
434.43	8486.61
434.637	8359.64
434.844	8838.86
435.052	9236.17
435.259	8883.92
435.466	9189.07
435.673	8957.64
435.88	9504.45
436.087	10055.36
436.294	10026.68
436.501	9764.54
436.708	10071.74
436.915	10344.12
437.122	10909.36
437.329	10802.86
437.537	11144.88
437.743	11372.2
437.95	11110.06
438.157	11787.94
438.364	12261.02
438.571	12269.21
438.778	12289.69
438.985	13346.44
439.192	12859.03
439.399	13348.49
439.606	12762.77
439.813	13676.16
440.02	14337.66
440.227	14091.9
440.433	14120.57
440.64	14780.02
440.847	14515.83
441.054	15072.88
441.261	15818.34
441.467	15797.86
441.674	15996.51
441.881	16440.92
442.088	16336.48
442.294	16320.09
442.501	17116.75
442.708	17112.66
442.914	17710.66
443.121	18564.67
443.328	18167.36
443.534	19471.92
443.741	18773.56
443.948	18693.69
444.154	19992.1
444.361	19861.03
444.568	19918.37
444.774	19848.74
444.981	20084.26
445.187	20653.59
445.394	21464.59
445.6	21288.46
445.807	23309.81
446.013	22177.28
446.22	22713.85
446.426	23604.72
446.633	23719.4
446.839	24565.21
447.046	23358.96
447.252	24985.05
447.459	24964.57
447.665	24647.13
447.871	26013.13
448.078	27102.65
448.284	25560.53
448.491	26637.76
448.697	27643.31
448.903	27604.4
449.11	28106.15
449.316	27252.15
449.522	28050.86
449.728	28589.47
449.935	28962.2
450.141	28958.11
450.347	29517.2
450.553	28419.49
450.76	28718.5
450.966	29762.96
451.172	29576.59
451.378	30242.18
451.584	29466
451.791	30408.07
451.997	30248.33
452.203	30827.9
452.409	30655.87
452.615	30518.66
452.821	29123.99
453.027	29228.44
453.233	30489.99
453.44	29089.18
453.646	29619.6
453.852	29724.05
454.058	30582.15
454.264	29427.09
454.47	30098.83
454.676	29304.21
454.882	30014.86
455.088	27526.58
455.294	27964.84
455.5	28456.36
455.705	28681.63
455.911	27463.09
456.117	26992.06
456.323	26691.01
456.529	25114.07
456.735	26246.6
456.941	25773.52
457.147	25241.04
457.352	24536.54
457.558	24270.31
457.764	24022.5
457.97	23885.29
458.176	23053.81
458.381	23090.68
458.587	22152.71
458.793	21868.04
458.999	20960.79
459.204	22404.61
459.41	21771.79
459.616	20393.5
459.821	20137.51
460.027	20217.38
460.233	19932.71
460.438	18722.36
460.644	18941.49
460.85	18583.1
461.055	18026.05
461.261	17870.4
461.466	16535.13
461.672	16176.73
461.878	17215.05
462.083	16047.71
462.289	15912.55
462.494	15863.4
462.7	15148.65
462.905	14546.55
463.111	15097.45
463.316	15283.82
463.522	14937.71
463.727	14886.51
463.932	14902.9
464.138	14638.71
464.343	14671.48
464.549	14329.47
464.754	15070.83
464.959	14546.55
465.165	14544.5
465.37	13860.48
465.575	13610.63
465.781	14022.27
465.986	14245.5
466.191	13860.48
466.397	13434.5
466.602	12832.4
466.807	13158.03
467.012	13387.4
467.218	13280.91
467.423	13061.77
467.628	13346.44
467.833	13688.45
468.038	13278.86
468.244	12668.56
468.449	13295.24
468.654	12654.23
468.859	12879.5
469.064	12797.59
469.269	12132
469.474	12420.76
469.679	12639.89
469.885	12215.96
470.09	12301.98
470.295	12203.68
470.5	11921.06
470.705	12119.71
470.91	11873.95
471.115	11613.86
471.32	11896.48
471.525	11814.56
471.73	11349.67
471.935	11364.01
472.139	11038.38
472.344	11108.01
472.549	11251.37
472.754	11050.67
472.959	10692.27
473.164	10473.14
473.369	10397.37
473.574	10868.4
473.778	10651.31
473.983	10489.53
474.188	10669.75
474.393	10104.51
474.598	10049.21
474.802	9922.24
475.007	9696.96
475.212	9879.23
475.417	9447.11
475.621	9574.08
475.826	9658.05
476.031	9434.82
476.235	9295.56
476.44	9389.77
476.645	9150.15
476.849	9316.04
477.054	9107.15
477.259	9107.15
477.463	8976.08
477.668	8722.13
477.872	8705.74
478.077	8646.35
478.282	8519.38
478.486	8410.84
478.691	8580.82
478.895	8251.1
479.1	8156.89
479.304	8281.81
479.509	8156.89
479.713	8402.65
479.918	7857.89
480.122	7933.66
480.326	8181.46
480.531	8079.07
480.735	8072.92
480.94	7861.98
481.144	8079.07
481.348	7683.81
481.553	7829.21
481.757	7638.75
481.961	7739.1
482.166	8005.34
482.37	7679.71
482.574	7825.12
482.778	7630.56
482.983	7827.17
483.187	7880.41
483.391	7706.34
483.595	7692
483.8	7642.85
484.004	7773.92
484.208	7878.37
484.412	7728.86
484.616	7634.66
484.821	7935.71
485.025	7460.58
485.229	7716.58
485.433	7689.95
485.637	7657.18
485.841	7491.3
486.045	7575.27
486.249	7524.07
486.453	7562.98
486.657	7634.66
486.861	7476.96
487.065	7700.19
487.269	7683.81
487.473	7491.3
487.677	7573.22
487.881	7747.3
488.085	7773.92
488.289	7665.38
488.493	7540.45
488.697	7882.46
488.901	7747.3
489.105	7812.83
489.309	7907.04
489.512	7808.73
489.716	7710.43
489.92	7739.1
490.124	7585.51
490.328	7767.77
490.531	7620.32
490.735	7988.96
490.939	7945.95
491.143	7939.8
491.346	7718.62
491.55	7931.61
491.754	8009.44
491.958	8058.59
492.161	7818.97
492.365	7974.62
492.569	8072.92
492.772	8081.11
492.976	8306.39
493.18	8287.96
493.383	8320.73
493.587	8464.08
493.79	8277.72
493.994	8257.24
494.197	8558.29
494.401	8558.29
494.605	8507.09
494.808	8711.89
495.012	8728.27
495.215	8470.23
495.419	8982.22
495.622	8763.09
495.825	8834.77
496.029	8816.33
496.232	9047.76
496.436	9189.07
496.639	9285.32
496.843	9371.33
497.046	9240.26
497.249	9367.24
497.453	9443.01
497.656	9488.07
497.859	9699.01
498.063	9838.27
498.266	10030.78
498.469	9952.96
498.673	10196.67
498.876	10135.23
499.079	10165.95
499.282	10317.5
499.485	10604.21
499.689	10542.77
499.892	10682.03
500.095	10714.8
500.298	10962.61
500.501	10919.6
500.705	11306.66
500.908	11228.84
501.111	11329.19
501.314	11531.94
501.517	11603.62
501.72	11804.32
501.923	11554.47
502.126	12095.13
502.329	12218.01
502.532	12109.47
502.735	12443.29
502.938	12406.42
503.141	12455.58
503.344	12617.36
503.547	12689.04
503.75	12963.47
503.953	13143.69
504.156	13354.63
504.359	13422.22
504.562	13590.15
504.765	13891.2
504.968	13934.21
505.17	13786.75
505.373	13999.74
505.576	14143.1
505.779	14403.19
505.982	14648.95
506.185	14806.64
506.387	15085.17
506.59	15019.63
506.793	14988.91
506.996	15232.62
507.198	15875.68
507.401	15693.41
507.604	15625.83
507.807	15955.55
508.009	16170.59
508.212	16103.01
508.415	16508.51
508.617	16449.11
508.82	16696.92
509.022	16520.79
509.225	17210.96
509.428	17163.86
509.63	17587.78
509.833	17436.24
510.035	17878.6
510.238	17737.29
510.44	18069.06
510.643	18288.19
510.845	18505.27
511.048	18482.75
511.25	18605.63
511.453	18660.92
511.655	19373.61
511.858	19095.09
512.06	19109.43
512.262	19537.45
512.465	19379.76
512.667	19838.5
512.87	20022.82
513.072	20033.06
513.274	20653.59
513.477	20755.99
513.679	20805.14
513.881	21141.01
514.084	21444.11
514.286	21325.33
514.488	21573.13
514.69	22093.32
514.893	22142.47
515.095	22093.32
515.297	22093.32
515.499	22423.04
515.701	22785.53
515.904	23059.96
516.106	23137.78
516.308	23356.91
516.51	23741.93
516.712	23578.09
516.914	23739.88
517.116	24002.02
517.318	24567.26
517.52	24339.94
517.722	24874.46
517.925	25155.03
518.127	25347.54
518.329	25275.86
518.531	25140.69
518.733	25712.08
518.935	25978.31
519.136	25750.99
519.338	26459.59
519.54	26572.22
519.742	26766.78
519.944	26838.46
520.146	27248.05
520.348	27323.83
520.55	27393.46
520.752	27604.4
520.954	28315.05
521.155	27940.27
521.357	28482.98
521.559	28480.93
521.761	29035.93
521.963	28560.8
522.164	29357.46
522.366	29257.11
522.568	29588.88
522.77	29609.36
522.971	29857.17
523.173	29762.96
523.375	30176.65
523.576	30094.73
523.778	30354.82
523.98	31108.47
524.181	30995.84
524.383	31012.22
524.584	31339.9
524.786	31305.08
524.988	31315.32
525.189	31280.5
525.391	31729.01
525.592	31978.86
525.794	31966.57
525.995	32181.61
526.197	32220.52
526.398	32351.59
526.6	32367.98
526.801	32898.4
527.003	32683.36
527.204	32839.01
527.406	32994.65
527.607	33088.86
527.808	33183.07
528.01	32693.6
528.211	33451.35
528.412	33748.31
528.614	33346.9
528.815	33539.41
529.016	34049.36
529.218	33678.68
529.419	33711.44
529.62	33740.11
529.822	33924.43
530.023	33953.1
530.224	34082.13
530.425	34133.32
530.626	34143.56
530.828	33875.28
531.029	34825.54
531.23	34325.83
531.431	34315.59
531.632	34342.22
531.833	34719.04
532.035	34403.66
532.236	34579.78
532.437	34843.97
532.638	34446.66
532.839	35116.35
533.04	34760
533.241	34430.28
533.442	35140.93
533.643	35128.64
533.844	34917.7
534.045	35020.09
534.246	34362.7
534.447	35063.1
534.648	34563.4
534.849	35038.53
535.05	34833.73
535.251	34852.16
535.451	34805.06
535.652	35067.2
535.853	34999.62
536.054	34710.85
536.255	35237.18
536.456	34481.48
536.657	35251.52
536.857	34915.65
537.058	34735.43
537.259	35177.79
537.46	35368.25
537.66	35054.91
537.861	35214.65
538.062	34766.15
538.263	35372.35
538.463	34962.75
538.664	34792.77
538.865	35401.02
539.065	35605.81
539.266	34661.7
539.466	35122.49
539.667	34825.54
539.868	35278.14
540.068	35157.31
540.269	35233.08
540.469	35333.43
540.67	34772.29
540.87	34972.99
541.071	35259.71
541.271	35038.53
541.472	34743.62
541.672	34667.84
541.873	34925.89
542.073	34325.83
542.274	35140.93
542.474	35177.79
542.675	35011.9
542.875	35016
543.075	34956.61
543.276	34719.04
543.476	34829.63
543.676	34899.26
543.877	34698.56
544.077	34891.07
544.277	34882.88
544.478	34559.3
544.678	35161.4
544.878	34663.75
545.078	34696.52
545.279	34614.6
545.479	34286.92
545.679	34872.64
545.879	34585.93
546.079	34452.81
546.28	34786.63
546.48	34452.81
546.68	34846.02
546.88	34821.44
547.08	34710.85
547.28	34891.07
547.48	34565.45
547.68	34762.05
547.88	34438.47
548.081	34743.62
548.281	34657.6
548.481	34669.89
548.681	35081.53
548.881	34547.01
549.081	34682.18
549.28	34182.48
549.48	34676.04
549.68	34280.78
549.88	34874.69
550.08	34504.01
550.28	34620.74
550.48	34465.1
550.68	34649.41
550.88	34385.22
551.08	34346.31
551.279	34477.38
551.479	34162
551.679	34604.36
551.879	34366.79
552.079	34319.69
552.278	34260.3
552.478	34309.45
552.678	34481.48
552.878	34348.36
553.077	34317.64
553.277	34225.48
553.477	34594.12
553.676	34114.89
553.876	34252.11
554.076	34170.19
554.275	33830.23
554.475	33480.02
554.674	34071.89
554.874	34049.36
555.074	33875.28
555.273	34141.52
555.473	34301.26
555.672	33586.52
555.872	33815.89
556.071	34133.32
556.271	33998.16
556.47	33752.4
556.67	33402.2
556.869	33559.89
557.068	33717.59
557.268	33414.49
557.467	33504.6
557.667	33520.98
557.866	33291.61
558.065	33402.2
558.265	33240.41
558.464	33031.52
558.663	33895.76
558.863	33076.57
559.062	33547.61
559.261	32937.31
559.461	33473.88
559.66	32970.08
559.859	32830.82
560.058	32759.14
560.258	33092.96
560.457	32664.93
560.656	32773.47
560.855	32779.62
561.054	32900.45
561.253	32562.53
561.453	32791.9
561.652	33193.31
561.851	32793.95
562.05	32322.92
562.249	32470.37
562.448	32701.79
562.647	32777.57
562.846	32601.44
563.045	32501.09
563.244	32124.27
563.443	32435.56
563.642	31753.58
563.841	31890.8
564.04	31720.82
564.239	32097.64
564.438	31905.13
564.637	32238.95
564.836	32011.63
565.035	31589.75
565.234	31581.56
565.432	30965.12
565.631	31241.59
565.83	31714.67
566.029	31335.8
566.228	31114.62
566.427	31139.19
566.625	30688.64
566.824	30625.15
567.023	31262.07
567.222	30385.54
567.42	31081.85
567.619	30711.17
567.818	30649.73
568.016	30406.02
568.215	30913.92
568.414	30635.39
568.612	30965.12
568.811	30326.15
569.01	30399.88
569.208	29793.68
569.407	30412.17
569.605	30033.29
569.804	29965.71
570.002	29871.5
570.201	29742.48
570.4	29797.77
570.598	29394.32
570.797	29320.6
570.995	30002.57
571.193	29019.55
571.392	29836.69
571.59	29269.4
571.789	29001.11
571.987	29222.3
572.186	29099.42
572.384	29056.41
572.582	29017.5
572.781	29130.14
572.979	28824.99
573.177	28722.59
573.376	28702.11
573.574	28534.18
573.772	28732.83
573.971	28464.55
574.169	28585.38
574.367	28183.98
574.565	28356
574.763	28333.48
574.962	28325.29
575.16	27897.26
575.358	28257.7
575.556	27694.51
575.754	28114.34
575.952	27354.55
576.151	27866.54
576.349	27628.98
576.547	27491.76
576.745	27803.05
576.943	27422.13
577.141	27624.88
577.339	27332.02
577.537	27311.54
577.735	27145.66
577.933	26756.54
578.131	27190.71
578.329	27223.48
578.527	26807.74
578.725	27143.61
578.923	26928.57
579.121	26721.73
579.319	26523.07
579.516	26877.37
579.714	26564.03
579.912	26545.6
580.11	26498.5
580.308	26486.21
580.506	26410.43
580.704	26023.37
580.901	26113.48
581.099	26193.35
581.297	25976.26
581.495	25918.92
581.692	26351.04
581.89	25939.4
582.088	25742.8
582.285	25755.08
582.483	25998.79
582.681	25488.85
582.878	25423.31
583.076	25179.61
583.274	25714.12
583.471	25230.8
583.669	25466.32
583.866	25126.36
584.064	25431.51
584.262	24925.66
584.459	24970.71
584.657	24741.34
584.854	25118.17
585.052	24430.05
585.249	24686.04
585.447	25011.67
585.644	24561.12
585.841	24661.47
586.039	24591.84
586.236	24038.89
586.434	24307.17
586.631	23795.18
586.828	24315.36
587.026	24450.53
587.223	24065.51
587.42	23850.47
587.618	24071.65
587.815	23547.37
588.012	23545.33
588.21	23629.29
588.407	23561.71
588.604	23592.43
588.801	23272.95
588.999	23418.35
589.196	23346.67
589.393	23459.31
589.59	23307.76
589.787	23465.46
589.984	23059.96
590.182	22773.24
590.379	23088.63
590.576	22879.74
590.773	22840.82
590.97	22603.26
591.167	22695.42
591.364	22464
591.561	22808.06
591.758	22609.4
591.955	22238.72
592.152	22527.49
592.349	22277.63
592.546	22341.12
592.743	22420.99
592.94	21964.29
593.137	21999.11
593.334	22291.97
593.531	21702.15
593.727	22042.12
593.924	21812.74
594.121	21663.24
594.318	21775.88
594.515	21462.54
594.712	21493.26
594.908	21503.5
595.105	21702.15
595.302	21286.42
595.499	21636.62
595.696	21382.67
595.892	20848.15
596.089	21239.31
596.286	21175.83
596.482	20934.17
596.679	21067.28
596.876	21122.58
597.072	20831.77
597.269	21057.04
597.466	20704.79
597.662	20776.47
597.859	20493.85
598.055	20567.58
598.252	20473.37
598.448	20198.95
598.645	20436.51
598.841	20223.52
599.038	20186.66
599.234	20213.28
599.431	20045.35
599.627	20010.53
599.824	20149.79
600.02	20043.3
600.217	19959.33
600.413	19619.37
600.609	19385.9
600.806	19607.08
601.002	19889.7
601.198	19709.48
601.395	19459.63
601.591	19467.82
601.787	19371.57
601.984	19248.69
602.18	19598.89
602.376	19277.36
602.572	19279.41
602.769	19234.35
602.965	18918.96
603.161	19547.69
603.357	19072.56
603.553	18728.5
603.75	18947.64
603.946	18535.99
604.142	18828.85
604.338	18464.32
604.534	18714.17
604.73	18570.81
604.926	18333.25
605.122	18282.05
605.318	18443.84
605.514	18257.47
605.71	18331.2
605.906	18320.96
606.102	18200.13
606.298	18202.18
606.494	18193.98
606.69	18011.71
606.886	18128.45
607.082	17966.66
607.278	17980.99
607.474	17622.6
607.67	17872.45
607.866	17485.39
608.062	17958.47
608.257	17790.53
608.453	17782.34
608.649	17626.7
608.845	17501.77
609.041	17624.65
609.236	17563.21
609.432	17487.43
609.628	17536.59
609.824	17487.43
610.019	17466.95
610.215	17624.65
610.411	17239.63
610.606	17088.08
610.802	17081.94
610.998	16895.57
611.193	17182.29
611.389	16854.61
611.584	16914
611.78	16922.2
611.976	16864.85
612.171	16914
612.367	16875.09
612.562	16926.29
612.758	16756.31
612.953	16772.69
613.149	17028.69
613.344	16797.27
613.539	16969.3
613.735	16864.85
613.93	16825.94
614.126	16569.94
614.321	16784.98
614.517	16715.35
614.712	16367.2
614.907	16322.14
615.103	16610.9
615.298	16359
615.493	16365.15
615.688	16168.54
615.884	16531.03
616.079	16014.94
616.274	16402.01
616.47	16068.19
616.665	16219.74
616.86	16137.82
617.055	16148.06
617.25	15965.79
617.445	16430.68
617.641	15838.82
617.836	16199.26
618.031	15810.15
618.226	15998.56
618.421	15734.37
618.616	15949.41
618.811	15646.31
619.006	15894.11
619.201	15644.26
619.396	15761
619.591	15324.78
619.786	15769.19
619.981	15236.72
620.176	15648.36
620.371	15132.27
620.566	15271.53
620.761	15066.74
620.956	15296.11
621.151	14972.53
621.346	15015.54
621.541	14857.84
621.735	14960.24
621.93	14653.05
622.125	14607.99
622.32	14540.41
622.515	14534.26
622.709	14464.63
622.904	14206.59
623.099	14278.27
623.294	14339.71
623.488	14071.42
623.683	14130.81
623.878	14061.18
624.072	14110.33
624.267	13854.34
624.462	13928.06
624.656	13739.65
624.851	13844.1
625.046	13622.92
625.24	13678.21
625.435	13588.1
625.629	13461.13
625.824	13459.08
626.018	13205.13
626.213	12904.08
626.407	13045.39
626.602	12832.4
626.796	12983.95
626.991	12979.86
627.185	12803.73
627.38	12687
627.574	12623.51
627.768	12392.09
627.963	12752.53
628.157	12357.27
628.352	12390.04
628.546	12183.2
628.74	12607.12
628.935	12058.27
629.129	12175
629.323	12082.84
629.517	12015.26
629.712	11914.91
629.906	11806.37
630.1	11804.32
630.294	11871.9
630.489	11724.45
630.683	11675.3
630.877	11519.65
631.071	11435.69
631.265	11337.38
631.459	11736.74
631.653	11206.31
631.848	11435.69
632.042	11374.25
632.236	11316.9
632.43	11222.7
632.624	11321
632.818	11128.49
633.012	10919.6
633.206	10989.23
633.4	11019.95
633.594	10667.7
633.788	10954.41
633.982	10798.77
634.176	10813.1
634.369	10622.64
634.563	10616.5
634.757	10487.48
634.951	10305.21
635.145	10561.2
635.339	10376.89
635.533	10059.45
635.726	10000.06
635.92	10043.07
636.114	10223.29
636.308	9991.87
636.501	10028.73
636.695	9987.77
636.889	9854.65
637.083	9989.82
637.276	9713.35
637.47	9594.56
637.664	9547.46
637.857	9608.9
638.051	9670.34
638.244	9393.86
638.438	9522.88
638.632	9293.51
638.825	9402.05
639.019	9256.65
639.212	9184.97
639.406	9223.88
639.599	9154.25
639.793	9197.26
639.986	8980.17
640.18	8971.98
640.373	8984.27
640.567	8976.08
640.76	9035.47
640.954	8840.91
641.147	8789.71
641.34	8595.15
641.534	8769.23
641.727	8736.46
641.92	8888.01
642.114	8681.17
642.307	8584.91
642.5	8541.91
642.694	8441.56
642.887	8177.37
643.08	8543.95
643.273	8324.82
643.467	8234.71
643.66	8128.22
643.853	8091.35
644.046	8230.62
644.239	7960.28
644.432	7896.8
644.626	7917.28
644.819	7782.11
645.012	8083.16
645.205	7896.8
645.398	7870.17
645.591	7855.84
645.784	7843.55
645.977	7616.23
646.17	7694.05
646.363	7470.82
646.556	7601.89
646.749	7640.8
646.942	7493.35
647.135	7716.58
647.328	7368.42
647.521	7397.09
647.714	7331.56
647.907	7257.83
648.099	7378.66
648.292	7218.92
648.485	7288.55
648.678	7022.31
648.871	7096.04
649.064	7163.62
649.256	7188.2
649.449	6973.16
649.642	6936.3
649.835	6807.28
650.027	6801.13
650.22	6821.61
650.413	6874.86
650.605	6772.46
650.798	6848.24
650.991	6895.34
651.183	6768.37
651.376	6477.55
651.568	6762.22
651.761	6622.96
651.954	6604.53
652.146	6553.33
652.339	6455.03
652.531	6584.05
652.724	6547.19
652.916	6383.35
653.109	6414.07
653.301	6422.26
653.494	6350.58
653.686	6094.58
653.879	6182.65
654.071	6106.87
654.263	6051.58
654.456	6141.69
654.648	6315.76
654.84	6100.73
655.033	5922.55
655.225	5963.51
655.417	5910.27
655.61	6115.06
655.802	5947.13
655.994	5854.97
656.186	5838.59
656.379	5752.57
656.571	5623.55
656.763	5807.87
656.955	5654.27
657.148	5885.69
657.34	5713.66
657.532	5644.03
657.724	5517.06
657.916	5627.65
658.108	5576.45
658.3	5478.15
658.492	5547.78
658.684	5455.62
658.876	5500.67
659.068	5351.17
659.26	5347.08
659.452	5367.56
659.644	5480.19
659.836	5220.1
660.028	5406.47
660.22	5259.01
660.412	5105.42
660.604	5107.46
660.796	5146.37
660.988	5299.97
661.18	5064.46
661.372	5115.66
661.563	5158.66
661.755	5035.78
661.947	4972.3
662.139	5070.6
662.331	4876.04
662.522	4847.37
662.714	4929.29
662.906	4947.72
663.097	4835.08
663.289	4820.75
663.481	4771.6
663.673	4675.34
663.864	4669.2
664.056	4753.16
664.247	4673.29
664.439	4628.24
664.631	4699.92
664.822	4749.07
665.014	4599.57
665.205	4611.85
665.397	4691.73
665.588	4638.48
665.78	4515.6
665.971	4417.3
666.163	4534.03
666.354	4431.63
666.546	4390.67
666.737	4476.69
666.929	4278.04
667.12	4349.71
667.311	4419.35
667.503	4259.6
667.694	4302.61
667.885	4271.89
668.077	4194.07
668.268	4144.92
668.459	4120.34
668.651	4273.94
668.842	4210.45
669.033	4091.67
669.224	4097.81
669.416	3999.51
669.607	4034.33
669.798	3966.74
669.989	4198.17
670.18	3966.74
670.371	4138.77
670.563	3909.4
670.754	4079.38
670.945	3964.7
671.136	3997.46
671.327	3915.55
671.518	3927.83
671.709	3856.15
671.9	4019.99
672.091	3927.83
672.282	3905.31
672.473	3729.18
672.664	3905.31
672.855	3764
673.046	3772.19
673.237	3770.14
673.428	3727.13
673.619	3741.47
673.809	3712.8
674	3727.13
674.191	3649.31
674.382	3673.89
674.573	3567.39
674.764	3616.54
674.954	3647.26
675.145	3378.98
675.336	3610.4
675.527	3522.34
675.717	3520.29
675.908	3608.35
676.099	3671.84
676.289	3542.82
676.48	3518.24
676.671	3432.22
676.861	3424.03
677.052	3512.1
677.243	3508
677.433	3462.94
677.624	3481.38
677.814	3374.88
678.005	3479.33
678.195	3389.22
678.386	3409.7
678.576	3327.78
678.767	3258.15
678.957	3305.25
679.148	3374.88
679.338	3282.72
679.529	3462.94
679.719	3448.61
679.909	3268.39
680.1	3415.84
680.29	3305.25
680.481	3340.07
680.671	3211.04
680.861	3120.93
681.052	3178.28
681.242	3194.66
681.432	3131.17
681.622	3043.11
681.813	3120.93
682.003	3215.14
682.193	3161.89
682.383	3149.61
682.573	3059.49
682.764	3157.8
682.954	3114.79
683.144	3112.74
683.334	3092.26
683.524	3176.23
683.714	3186.47
683.904	3051.3
684.094	3094.31
684.284	3092.26
684.474	3053.35
684.664	2993.96
684.854	3098.41
685.044	3063.59
685.234	2842.41
685.424	2932.52
685.614	2975.53
685.804	3100.45
685.994	2973.48
686.184	3026.73
686.374	2973.48
686.564	2899.75
686.753	2936.62
686.943	2875.18
687.133	2946.86
687.323	2897.71
687.513	3014.44
687.702	2920.23
687.892	2809.64
688.082	2754.35
688.272	2948.9
688.461	2819.88
688.651	2760.49
688.841	2813.74
689.03	2799.4
689.22	2735.92
689.41	2717.48
689.599	2772.78
689.789	2748.2
689.979	2617.13
690.168	2699.05
690.358	2676.52
690.547	2684.72
690.737	2641.71
690.926	2723.63
691.116	2567.98
691.305	2676.52
691.495	2539.31
691.684	2541.36
691.874	2596.65
692.063	2559.79
692.252	2631.47
692.442	2502.45
692.631	2561.84
692.82	2447.15
693.01	2537.26
693.199	2510.64
693.388	2639.66
693.578	2449.2
693.767	2428.72
693.956	2434.86
694.146	2432.82
694.335	2408.24
694.524	2424.62
694.713	2490.16
694.902	2479.92
695.092	2592.56
695.281	2473.78
695.47	2412.34
695.659	2385.71
695.848	2404.14
696.037	2287.41
696.226	2406.19
696.415	2398
696.604	2412.34
696.793	2363.19
696.982	2369.33
697.171	2283.31
697.36	2393.9
697.549	2217.78
697.738	2414.38
697.927	2377.52
698.116	2340.66
698.305	2336.56
698.494	2322.23
698.683	2311.99
698.872	2393.9
699.061	2297.65
699.25	2234.16
699.438	2301.75
699.627	2340.66
699.816	2332.47
700.005	2324.27
700.193	2309.94
700.382	2361.14
700.571	2299.7
700.76	2295.6
700.948	2240.31
701.137	2219.83
701.326	2219.83
701.514	2303.79
701.703	2262.83
701.892	2234.16
702.08	2359.09
702.269	2254.64
702.457	2230.07
702.646	2219.83
702.834	2172.72
703.023	2117.43
703.212	2297.65
703.4	2258.74
703.589	2205.49
703.777	2264.88
703.965	2164.53
704.154	2230.07
704.342	2150.2
704.531	2127.67
704.719	2166.58
704.907	2252.59
705.096	2176.82
705.284	2193.2
705.472	2232.12
705.661	2258.74
705.849	2248.5
706.037	2307.89
706.226	2187.06
706.414	2187.06
706.602	2166.58
706.79	2219.83
706.979	2189.11
707.167	2088.76
707.355	2154.29
707.543	2209.59
707.731	2185.01
707.919	2168.63
708.107	2142
708.296	2117.43
708.484	2168.63
708.672	2105.14
708.86	2197.3
709.048	2182.96
709.236	2170.68
709.424	2113.33
709.612	2168.63
709.8	2219.83
709.988	2189.11
710.176	2172.72
710.364	2164.53
710.551	2195.25
710.739	2203.44
710.927	2176.82
711.115	2283.31
711.303	2158.39
711.491	2111.29
711.679	2127.67
711.866	2232.12
712.054	2221.88
712.242	2099
712.43	2256.69
712.617	2203.44
712.805	2162.48
712.993	2180.92
713.181	2101.05
713.368	2182.96
713.556	2154.29
713.744	2225.97
713.931	2172.72
714.119	2203.44
714.306	2260.79
714.494	2166.58
714.682	2182.96
714.869	2182.96
715.057	2152.24
715.244	2015.03
715.432	2027.32
715.619	2187.06
715.807	2006.84
715.994	2086.71
716.182	2107.19
716.369	2144.05
716.556	2096.95
716.744	2099
716.931	2021.17
717.119	2191.16
717.306	2236.21
717.493	2029.37
717.681	2156.34
717.868	2109.24
718.055	2074.42
718.242	2084.66
718.43	2086.71
718.617	2096.95
718.804	2123.57
718.991	2062.13
719.179	2121.52
719.366	2045.75
719.553	1986.36
719.74	2086.71
719.927	2080.57
720.114	2006.84
720.301	2127.67
720.488	2062.13
720.676	2070.33
720.863	2178.87
721.05	1990.45
721.237	2125.62
721.424	2041.65
721.611	2170.68
721.798	2051.89
721.985	2101.05
722.172	2139.96
722.358	2096.95
722.545	2074.42
722.732	2090.81
722.919	2088.76
723.106	2051.89
723.293	2080.57
723.48	1996.6
723.667	2060.09
723.853	2127.67
724.04	2086.71
724.227	2090.81
724.414	1982.26
724.6	2135.86
724.787	2135.86
724.974	2133.81
725.161	2111.29
725.347	2055.99
725.534	2180.92
725.72	2099
725.907	2129.72
726.094	2078.52
726.28	1992.5
726.467	2074.42
726.653	2049.85
726.84	2096.95
727.027	2006.84
727.213	2080.57
727.4	2125.62
727.586	2076.47
727.773	2086.71
727.959	1984.31
728.145	2021.17
728.332	2096.95
728.518	2109.24
728.705	2029.37
728.891	1951.54
729.077	2092.85
729.264	2082.61
729.45	2107.19
729.636	2045.75
729.823	2000.69
730.009	2080.57
730.195	2099
730.382	2121.52
730.568	2060.09
730.754	2045.75
730.94	1980.22
731.126	2055.99
731.313	1951.54
731.499	1929.02
731.685	1965.88
731.871	2099
732.057	2135.86
732.243	2004.79
732.429	2006.84
732.615	2119.48
732.801	2137.91
732.987	2029.37
733.173	2027.32
733.359	1957.69
733.545	2027.32
733.731	1933.11
733.917	1972.02
734.103	2019.13
734.289	2033.46
734.475	1994.55
734.661	2101.05
734.847	2084.66
735.033	2027.32
735.219	1978.17
735.404	1955.64
735.59	2029.37
735.776	1943.35
735.962	2121.52
736.148	1951.54
736.333	1992.5
736.519	1976.12
736.705	2019.13
736.89	2012.98
737.076	1924.92
737.262	1988.41
737.447	1851.19
737.633	2000.69
737.819	2029.37
738.004	1861.43
738.19	1982.26
738.375	1904.44
738.561	1840.95
738.747	1892.15
738.932	1937.21
739.118	1910.58
739.303	1875.77
739.489	1953.59
739.674	1881.91
739.859	1900.34
740.045	1935.16
740.23	1914.68
740.416	1810.23
740.601	1722.17
740.786	1900.34
740.972	1900.34
741.157	1769.27
741.342	1898.3
741.528	1855.29
741.713	1791.8
741.898	1845.05
742.084	1816.38
742.269	1773.37
742.454	1787.71
742.639	1859.38
742.824	1799.99
743.01	1761.08
743.195	1814.33
743.38	1806.14
743.565	1742.65
743.75	1775.42
743.935	1732.41
744.12	1806.14
744.305	1650.49
744.49	1683.26
744.675	1769.27
744.86	1625.92
745.045	1720.12
745.23	1646.4
745.415	1787.71
745.6	1820.47
745.785	1713.98
745.97	1689.4
746.155	1722.17
746.34	1732.41
746.525	1656.64
746.71	1695.55
746.895	1605.44
747.079	1603.39
747.264	1783.61
747.449	1496.89
747.634	1613.63
747.819	1574.72
748.003	1632.06
748.188	1572.67
748.373	1650.49
748.557	1574.72
748.742	1472.32
748.927	1640.25
749.111	1544
749.296	1521.47
749.481	1556.29
749.665	1564.48
749.85	1535.81
750.034	1513.28
750.219	1474.37
750.404	1492.8
750.588	1505.09
750.773	1511.23
750.957	1451.84
751.141	1402.69
751.326	1419.07
751.51	1351.49
751.695	1394.5
751.879	1392.45
752.064	1470.27
752.248	1304.39
752.432	1503.04
752.617	1433.41
752.801	1394.5
752.985	1316.67
753.17	1388.35
753.354	1363.78
753.538	1337.15
753.722	1271.62
753.907	1277.76
754.091	1302.34
754.275	1220.42
754.459	1320.77
754.643	1249.09
754.828	1283.91
755.012	1281.86
755.196	1152.84
755.38	1226.56
755.564	1288
755.748	1199.94
755.932	1204.03
756.116	1101.64
756.3	1187.65
756.484	1199.94
756.668	1089.35
756.852	1247.04
757.036	1083.2
757.22	1064.77
757.404	1083.2
757.588	1060.68
757.772	1175.36
757.956	1167.17
758.14	1120.07
758.323	1109.83
758.507	1019.72
758.691	1040.2
758.875	1169.22
759.059	1095.49
759.242	1036.1
759.426	1009.48
759.61	1005.38
759.794	1011.53
759.977	1128.26
760.161	1146.69
760.345	995.14
760.528	1087.3
760.712	997.19
760.895	999.24
761.079	1019.72
761.263	1083.2
761.446	984.9
761.63	933.7
761.813	1072.96
761.997	945.99
762.18	974.66
762.364	935.75
762.547	902.98
762.731	970.57
762.914	913.22
763.098	880.46
763.281	894.79
763.464	976.71
763.648	1009.48
763.831	1011.53
764.015	896.84
764.198	960.33
764.381	989
764.564	950.09
764.748	925.51
764.931	900.94
765.114	931.66
765.297	954.18
765.481	831.3
765.664	800.59
765.847	835.4
766.03	841.54
766.213	902.98
766.397	868.17
766.58	859.98
766.763	902.98
766.946	876.36
767.129	794.44
767.312	898.89
767.495	956.23
767.678	919.37
767.861	896.84
768.044	829.26
768.227	874.31
768.41	804.68
768.593	796.49
768.776	841.54
768.959	730.95
769.142	909.13
769.324	833.35
769.507	896.84
769.69	876.36
769.873	806.73
770.056	948.04
770.239	839.5
770.421	886.6
770.604	870.22
770.787	771.91
770.97	825.16
771.152	816.97
771.335	765.77
771.518	778.06
771.7	769.87
771.883	806.73
772.066	712.52
772.248	735.05
772.431	749.39
772.613	741.19
772.796	753.48
772.978	802.63
773.161	724.81
773.343	728.91
773.526	720.71
773.708	683.85
773.891	728.91
774.073	747.34
774.256	759.63
774.438	700.23
774.621	737.1
774.803	655.18
774.985	730.95
775.168	677.71
775.35	679.75
775.532	681.8
775.715	653.13
775.897	657.23
776.079	765.77
776.261	653.13
776.444	663.37
776.626	692.04
776.808	661.32
776.99	530.25
777.173	663.37
777.355	542.54
777.537	630.6
777.719	610.12
777.901	694.09
778.083	642.89
778.265	550.73
778.447	632.65
778.629	624.46
778.811	601.93
778.993	595.79
779.175	577.36
779.357	675.66
779.539	481.1
779.721	524.11
779.903	587.6
780.085	515.92
780.267	538.45
780.449	575.31
780.631	556.88
780.812	542.54
780.994	495.44
781.176	569.16
781.358	530.25
781.54	534.35
781.721	481.1
781.903	479.05
782.085	524.11
782.267	489.29
782.448	532.3
782.63	452.43
782.812	438.09
782.993	517.97
783.175	513.87
783.357	425.81
783.538	481.1
783.72	436.05
783.901	472.91
784.083	431.95
784.264	436.05
784.446	442.19
784.627	511.82
784.809	458.57
784.99	413.52
785.172	497.49
785.353	423.76
785.535	427.85
785.716	364.37
785.897	450.38
786.079	442.19
786.26	468.81
786.441	413.52
786.623	388.94
786.804	458.57
786.985	343.89
787.167	401.23
787.348	325.46
787.529	429.9
787.71	384.85
787.891	372.56
788.073	362.32
788.254	395.09
788.435	366.42
788.616	399.18
788.797	323.41
788.978	407.38
789.159	368.46
789.34	429.9
789.522	368.46
789.703	354.13
789.884	325.46
790.065	356.18
790.246	446.29
790.427	294.74
790.607	421.71
790.788	374.61
790.969	323.41
791.15	307.02
791.331	309.07
791.512	374.61
791.693	315.22
791.874	403.28
792.054	444.24
792.235	268.11
792.416	309.07
792.597	192.34
792.778	382.8
792.958	362.32
793.139	280.4
793.32	288.59
793.5	317.26
793.681	302.93
793.862	397.14
794.042	278.35
794.223	210.77
794.404	313.17
794.584	331.6
794.765	251.73
794.945	261.97
795.126	290.64
795.306	325.46
795.487	233.3
795.667	212.82
795.848	309.07
796.028	261.97
796.209	276.31
796.389	253.78
796.57	274.26
796.75	216.91
796.93	274.26
797.111	190.29
797.291	261.97
797.471	249.68
797.652	188.24
797.832	282.45
798.012	313.17
798.192	206.67
798.373	237.39
798.553	202.58
798.733	249.68
798.913	202.58
799.093	257.87
799.274	280.4
799.454	288.59
799.634	257.87
799.814	331.6
799.994	153.43
800.174	229.2
800.354	218.96
800.534	253.78
800.714	200.53
800.894	233.3
801.074	284.5
801.254	272.21
801.434	196.43
801.614	171.86
801.794	218.96
801.974	552.78
802.154	188.24
802.334	216.91
802.514	276.31
802.693	198.48
802.873	139.09
803.053	182.1
803.233	143.19
803.413	186.19
803.592	182.1
803.772	147.28
803.952	251.73
804.131	188.24
804.311	143.19
804.491	186.19
804.67	227.15
804.85	241.49
805.03	212.82
805.209	173.91
805.389	206.67
805.568	208.72
805.748	163.67
805.928	151.38
806.107	186.19
806.287	243.54
806.466	204.63
806.646	151.38
806.825	206.67
807.004	221.01
807.184	151.38
807.363	153.43
807.543	120.66
807.722	214.87
807.901	169.81
808.081	214.87
808.26	159.57
808.439	126.8
808.619	186.19
808.798	169.81
808.977	171.86
809.156	126.8
809.336	173.91
809.515	167.76
809.694	135
809.873	161.62
810.052	167.76
810.231	233.3
810.411	157.52
810.59	141.14
810.769	73.56
810.948	126.8
811.127	83.8
811.306	157.52
811.485	175.95
811.664	206.67
811.843	122.71
812.022	141.14
812.201	118.61
812.38	210.77
812.559	157.52
812.737	135
812.916	124.76
813.095	114.52
813.274	118.61
813.453	110.42
813.632	171.86
813.811	186.19
813.989	141.14
814.168	128.85
814.347	135
814.526	173.91
814.704	139.09
814.883	159.57
815.062	169.81
815.24	149.33
815.419	165.71
815.598	120.66
815.776	116.56
815.955	139.09
816.133	100.18
816.312	116.56
816.49	83.8
816.669	192.34
816.847	106.32
817.026	104.28
817.204	75.6
817.383	130.9
817.561	75.6
817.74	128.85
817.918	157.52
818.097	151.38
818.275	110.42
818.453	96.08
818.632	130.9
818.81	155.47
818.988	67.41
819.167	44.88
819.345	122.71
819.523	108.37
819.701	188.24
819.879	139.09
820.058	128.85
820.236	53.08
820.414	118.61
820.592	96.08
820.77	159.57
820.948	108.37
821.127	130.9
821.305	32.6
821.483	57.17
821.661	159.57
821.839	81.75
822.017	102.23
822.195	137.04
822.373	151.38
822.551	57.17
822.729	130.9
822.907	71.51
823.085	124.76
823.262	87.89
823.44	110.42
823.618	20.31
823.796	98.13
823.974	139.09
824.152	106.32
824.329	104.28
824.507	51.03
824.685	120.66
824.863	118.61
825.04	104.28
825.218	102.23
825.396	34.64
825.574	120.66
825.751	87.89
825.929	87.89
826.107	40.79
826.284	32.6
826.462	89.94
826.639	30.55
826.817	151.38
826.994	126.8
827.172	18.26
827.349	98.13
827.527	46.93
827.704	53.08
827.882	91.99
828.059	112.47
828.237	55.12
828.414	55.12
828.591	96.08
828.769	73.56
828.946	102.23
829.124	100.18
829.301	114.52
829.478	28.5
829.655	128.85
829.833	139.09
830.01	55.12
830.187	65.36
830.364	122.71
830.542	126.8
830.719	157.52
830.896	89.94
831.073	75.6
831.25	57.17
831.427	87.89
831.604	63.32
831.782	100.18
831.959	130.9
832.136	18.26
832.313	98.13
832.49	55.12
832.667	89.94
832.844	48.98
833.021	102.23
833.198	120.66
833.374	98.13
833.551	98.13
833.728	32.6
833.905	87.89
834.082	32.6
834.259	-20.65
834.436	63.32
834.612	98.13
834.789	147.28
834.966	8.02
835.143	100.18
835.319	10.07
835.496	65.36
835.673	22.36
835.85	63.32
836.026	75.6
836.203	89.94
836.38	20.31
836.556	42.84
836.733	-12.46
836.909	135
837.086	46.93
837.262	85.84
837.439	53.08
837.616	36.69
837.792	73.56
837.968	55.12
838.145	8.02
838.321	-18.6
838.498	116.56
838.674	85.84
838.851	8.02
839.027	91.99
839.203	87.89
839.38	57.17
839.556	79.7
839.732	24.4
839.909	69.46
840.085	38.74
840.261	51.03
840.437	40.79
840.614	-8.36
840.79	12.12
840.966	110.42
841.142	59.22
841.318	3.93
841.494	120.66
841.671	149.33
841.847	-20.65
842.023	12.12
842.199	100.18
842.375	67.41
842.551	94.04
842.727	34.64
842.903	159.57
843.079	32.6
843.255	159.57
843.431	38.74
843.607	124.76
843.783	8.02
843.959	8.02
844.134	36.69
844.31	83.8
844.486	1.88
844.662	59.22
844.838	16.21
845.013	139.09
845.189	-10.41
845.365	55.12
845.541	38.74
845.716	3.93
845.892	51.03
846.068	55.12
846.244	83.8
846.419	16.21
846.595	42.84
846.77	61.27
846.946	48.98
847.122	77.65
847.297	28.5
847.473	-24.75
847.648	-16.55
847.824	87.89
847.999	42.84
848.175	12.12
848.35	36.69
848.526	53.08
848.701	28.5
848.876	67.41
849.052	-8.36
849.227	26.45
849.403	16.21
849.578	-6.31
849.753	96.08
849.929	102.23
850.104	-28.84
850.279	20.31
850.454	135
850.63	126.8
850.805	69.46
850.98	42.84
851.155	51.03
851.33	40.79
851.505	-49.32
851.681	63.32
851.856	44.88
852.031	89.94
852.206	8.02
852.381	28.5
852.556	18.26
852.731	44.88
852.906	10.07
853.081	5.97
853.256	30.55
853.431	59.22
853.606	28.5
853.781	-8.36
853.956	44.88
854.131	73.56
854.305	69.46
854.48	-53.42
854.655	8.02
854.83	67.41
855.005	116.56
855.18	24.4
855.354	-8.36
855.529	91.99
855.704	-2.22
855.879	48.98
856.053	57.17
856.228	14.17
856.403	16.21
856.577	42.84
856.752	3.93
856.926	5.97
857.101	96.08
857.276	10.07
857.45	77.65
857.625	102.23
857.799	-37.03
857.974	91.99
858.148	10.07
858.323	24.4
858.497	28.5
858.672	-22.7
858.846	24.4
859.02	53.08
859.195	3.93
859.369	-2.22
859.543	38.74
859.718	57.17
859.892	48.98
860.066	42.84
860.241	-4.27
860.415	8.02
860.589	8.02
860.763	65.36
860.938	1.88
861.112	63.32
861.286	44.88
861.46	-24.75
861.634	-20.65
861.808	32.6
861.982	53.08
862.157	-28.84
862.331	18.26
862.505	28.5
862.679	-24.75
862.853	30.55
863.027	38.74
863.201	46.93
863.375	44.88
863.549	75.6
863.722	8.02
863.896	48.98
864.07	18.26
864.244	-4.27
864.418	-4.27
864.592	44.88
864.766	98.13
864.939	12.12
865.113	38.74
865.287	61.27
865.461	-30.89
865.634	-55.47
865.808	5.97
865.982	16.21
866.156	61.27
866.329	57.17
866.503	-12.46
866.676	-20.65
866.85	14.17
867.024	46.93
867.197	-34.99
867.371	61.27
867.544	-10.41
867.718	14.17
867.891	38.74
868.065	-32.94
868.238	-22.7
868.412	36.69
868.585	53.08
868.759	12.12
868.932	-14.51
869.105	-49.32
869.279	65.36
869.452	34.64
869.625	10.07
869.799	-6.31
869.972	-18.6
870.145	22.36
870.319	36.69
870.492	69.46
870.665	-26.79
870.838	8.02
871.011	34.64
871.185	16.21
871.358	-34.99
871.531	-32.94
871.704	-45.23
871.877	57.17
872.05	1.88
872.223	55.12
872.396	3.93
872.569	36.69
872.742	34.64
872.915	36.69
873.088	10.07
873.261	-26.79
873.434	-0.17
873.607	-24.75
873.78	32.6
873.953	-32.94
874.126	34.64
874.299	32.6
874.471	-61.61
874.644	44.88
874.817	-24.75
874.99	-0.17
875.163	55.12
875.335	63.32
875.508	65.36
875.681	94.04
875.853	-6.31
876.026	-30.89
876.199	55.12
876.371	40.79
876.544	-0.17
876.717	-34.99
876.889	77.65
877.062	-45.23
877.234	3.93
877.407	44.88
877.579	-26.79
877.752	24.4
877.924	-34.99
878.097	46.93
878.269	61.27
878.442	36.69
878.614	-0.17
878.786	24.4
878.959	32.6
879.131	12.12
879.303	132.95
879.476	53.08
879.648	5.97
879.82	40.79
879.993	-49.32
880.165	46.93
880.337	-41.13
880.509	-8.36
880.681	40.79
880.854	-69.8
881.026	69.46
881.198	38.74
881.37	30.55
881.542	-10.41
881.714	32.6
881.886	28.5
882.058	1.88
882.23	-8.36
882.402	-41.13
882.574	12.12
882.746	53.08
882.918	24.4
883.09	38.74
883.262	83.8
883.434	1.88
883.606	14.17
883.778	-49.32
883.95	38.74
884.122	3.93
884.293	87.89
884.465	-18.6
884.637	63.32
884.809	-14.51
884.98	-30.89
885.152	8.02
885.324	-18.6
885.496	5.97
885.667	59.22
885.839	-43.18
886.011	67.41
886.182	18.26
886.354	48.98
886.525	96.08
886.697	-47.27
886.869	18.26
887.04	10.07
887.212	87.89
887.383	26.45
887.555	-20.65
887.726	-0.17
887.897	18.26
888.069	-10.41
888.24	-8.36
888.412	-28.84
888.583	12.12
888.754	48.98
888.926	-2.22
889.097	53.08
889.268	-4.27
889.44	-28.84
889.611	-6.31
889.782	-41.13
889.953	-28.84
890.125	40.79
890.296	20.31
890.467	51.03
890.638	-8.36
890.809	-4.27
890.98	-65.71
891.151	79.7
891.323	-20.65
891.494	20.31
891.665	-28.84
891.836	14.17
892.007	10.07
892.178	-41.13
892.349	30.55
892.52	-45.23
892.691	20.31
892.862	20.31
893.032	22.36
893.203	69.46
893.374	65.36
893.545	53.08
893.716	-16.55
893.887	-30.89
894.057	-43.18
894.228	-14.51
894.399	16.21
894.57	32.6
894.74	-49.32
894.911	-20.65
895.082	-0.17
895.253	36.69
895.423	44.88
895.594	-16.55
895.764	-10.41
895.935	44.88
896.106	30.55
896.276	48.98
896.447	89.94
896.617	-16.55
896.788	-28.84
896.958	-4.27
897.129	-0.17
897.299	5.97
897.47	42.84
897.64	53.08
897.81	-6.31
897.981	20.31
898.151	16.21
898.322	16.21
898.492	-8.36
898.662	1.88
898.832	-2.22
899.003	-16.55
899.173	36.69
899.343	30.55
899.513	-28.84
