Data from USB4F104151__197__11-10-06-199.txt Node

Date: Wed Mar 12 11:10:06 EDT 2025
User: louis
Spectrometer: USB4F10415
Trigger mode: 4
Integration Time (sec): 2.000000E-2
Scans to average: 1
Electric dark correction enabled: true
Nonlinearity correction enabled: false
Boxcar width: 0
XAxis mode: Wavelengths
Number of Pixels in Spectrum: 3648
>>>>>Begin Spectral Data<<<<<
178.204	-67.75
178.424	-67.75
178.644	-67.75
178.864	-49.32
179.084	-67.75
179.304	34.64
179.524	1.88
179.744	42.84
179.964	32.6
180.184	16.21
180.404	-92.33
180.624	-30.89
180.844	61.27
181.064	-65.71
181.283	-65.71
181.503	28.5
181.723	36.69
181.943	65.36
182.163	59.22
182.383	44.88
182.602	48.98
182.822	12.12
183.042	10.07
183.262	-22.7
183.482	-16.55
183.701	5.97
183.921	8.02
184.141	18.26
184.361	26.45
184.58	34.64
184.8	-22.7
185.02	18.26
185.239	22.36
185.459	-14.51
185.679	34.64
185.898	40.79
186.118	63.32
186.338	40.79
186.557	79.7
186.777	-16.55
186.997	42.84
187.216	-12.46
187.436	16.21
187.655	77.65
187.875	73.56
188.095	8.02
188.314	65.36
188.534	48.98
188.753	40.79
188.973	34.64
189.192	130.9
189.412	16.21
189.631	-8.36
189.851	-45.23
190.07	22.36
190.29	57.17
190.509	63.32
190.729	36.69
190.948	-32.94
191.168	81.75
191.387	77.65
191.607	83.8
191.826	34.64
192.045	44.88
192.265	18.26
192.484	128.85
192.704	14.17
192.923	-4.27
193.142	32.6
193.362	65.36
193.581	5.97
193.8	34.64
194.02	22.36
194.239	91.99
194.458	26.45
194.678	16.21
194.897	44.88
195.116	-24.75
195.335	30.55
195.555	59.22
195.774	26.45
195.993	59.22
196.212	40.79
196.432	24.4
196.651	44.88
196.87	57.17
197.089	36.69
197.308	-24.75
197.528	-22.7
197.747	-26.79
197.966	-8.36
198.185	1.88
198.404	24.4
198.623	34.64
198.842	67.41
199.062	65.36
199.281	71.51
199.5	44.88
199.719	18.26
199.938	65.36
200.157	48.98
200.376	55.12
200.595	28.5
200.814	-12.46
201.033	-43.18
201.252	42.84
201.471	71.51
201.69	36.69
201.909	69.46
202.128	30.55
202.347	1.88
202.566	-26.79
202.785	-18.6
203.004	-88.23
203.223	-14.51
203.442	57.17
203.661	46.93
203.879	48.98
204.098	51.03
204.317	-4.27
204.536	85.84
204.755	91.99
204.974	46.93
205.193	8.02
205.411	63.32
205.63	34.64
205.849	5.97
206.068	20.31
206.287	59.22
206.505	44.88
206.724	79.7
206.943	63.32
207.162	20.31
207.381	1.88
207.599	-28.84
207.818	48.98
208.037	48.98
208.255	59.22
208.474	26.45
208.693	46.93
208.911	-2.22
209.13	-43.18
209.349	61.27
209.567	5.97
209.786	106.32
210.005	-10.41
210.223	8.02
210.442	122.71
210.661	71.51
210.879	-82.09
211.098	-4.27
211.316	-30.89
211.535	100.18
211.753	-8.36
211.972	22.36
212.191	8.02
212.409	83.8
212.628	51.03
212.846	-32.94
213.065	20.31
213.283	61.27
213.502	73.56
213.72	55.12
213.938	83.8
214.157	-2.22
214.375	44.88
214.594	59.22
214.812	-0.17
215.031	22.36
215.249	10.07
215.467	38.74
215.686	75.6
215.904	114.52
216.122	26.45
216.341	55.12
216.559	5.97
216.778	79.7
216.996	63.32
217.214	-37.03
217.432	-26.79
217.651	71.51
217.869	75.6
218.087	83.8
218.306	26.45
218.524	96.08
218.742	-16.55
218.96	-8.36
219.179	-20.65
219.397	14.17
219.615	44.88
219.833	38.74
220.051	63.32
220.27	71.51
220.488	59.22
220.706	-39.08
220.924	-41.13
221.142	-32.94
221.36	-2.22
221.578	18.26
221.796	38.74
222.015	5.97
222.233	-59.56
222.451	-18.6
222.669	14.17
222.887	104.28
223.105	-43.18
223.323	55.12
223.541	14.17
223.759	67.41
223.977	-12.46
224.195	12.12
224.413	40.79
224.631	59.22
224.849	-30.89
225.067	28.5
225.285	20.31
225.503	57.17
225.721	-6.31
225.939	89.94
226.157	96.08
226.375	61.27
226.592	10.07
226.81	-0.17
227.028	100.18
227.246	75.6
227.464	10.07
227.682	12.12
227.9	-34.99
228.117	24.4
228.335	-4.27
228.553	-14.51
228.771	30.55
228.989	51.03
229.206	79.7
229.424	65.36
229.642	-0.17
229.86	-26.79
230.077	10.07
230.295	38.74
230.513	51.03
230.731	51.03
230.948	22.36
231.166	81.75
231.384	30.55
231.601	71.51
231.819	36.69
232.037	55.12
232.254	18.26
232.472	67.41
232.689	10.07
232.907	51.03
233.125	36.69
233.342	-16.55
233.56	-41.13
233.777	36.69
233.995	14.17
234.213	1.88
234.43	55.12
234.648	32.6
234.865	157.52
235.083	-71.85
235.3	55.12
235.518	18.26
235.735	85.84
235.953	18.26
236.17	28.5
236.388	8.02
236.605	38.74
236.822	-10.41
237.04	40.79
237.257	65.36
237.475	28.5
237.692	61.27
237.909	59.22
238.127	20.31
238.344	65.36
238.562	28.5
238.779	12.12
238.996	36.69
239.214	-59.56
239.431	67.41
239.648	18.26
239.865	-34.99
240.083	28.5
240.3	1.88
240.517	34.64
240.735	59.22
240.952	81.75
241.169	12.12
241.386	67.41
241.603	-6.31
241.821	5.97
242.038	34.64
242.255	26.45
242.472	-0.17
242.689	38.74
242.907	67.41
243.124	42.84
243.341	55.12
243.558	75.6
243.775	83.8
243.992	-10.41
244.209	44.88
244.426	89.94
244.643	46.93
244.86	-10.41
245.078	53.08
245.295	61.27
245.512	57.17
245.729	-4.27
245.946	100.18
246.163	36.69
246.38	34.64
246.597	-18.6
246.814	87.89
247.031	38.74
247.248	104.28
247.464	22.36
247.681	110.42
247.898	-2.22
248.115	87.89
248.332	59.22
248.549	5.97
248.766	28.5
248.983	40.79
249.2	87.89
249.417	77.65
249.633	55.12
249.85	42.84
250.067	59.22
250.284	5.97
250.501	104.28
250.717	10.07
250.934	-39.08
251.151	-14.51
251.368	-63.66
251.585	-10.41
251.801	48.98
252.018	5.97
252.235	71.51
252.451	63.32
252.668	44.88
252.885	57.17
253.102	67.41
253.318	30.55
253.535	44.88
253.752	5.97
253.968	57.17
254.185	18.26
254.401	75.6
254.618	20.31
254.835	24.4
255.051	87.89
255.268	-18.6
255.484	36.69
255.701	3.93
255.917	100.18
256.134	79.7
256.351	48.98
256.567	-32.94
256.784	32.6
257	-10.41
257.217	36.69
257.433	79.7
257.65	1.88
257.866	16.21
258.082	1.88
258.299	18.26
258.515	-26.79
258.732	100.18
258.948	14.17
259.165	20.31
259.381	22.36
259.597	1.88
259.814	71.51
260.03	67.41
260.246	-2.22
260.463	40.79
260.679	108.37
260.895	-10.41
261.112	32.6
261.328	28.5
261.544	3.93
261.761	77.65
261.977	28.5
262.193	-6.31
262.409	-43.18
262.626	-14.51
262.842	63.32
263.058	55.12
263.274	3.93
263.49	10.07
263.707	20.31
263.923	8.02
264.139	63.32
264.355	42.84
264.571	71.51
264.787	-24.75
265.004	30.55
265.22	87.89
265.436	55.12
265.652	8.02
265.868	14.17
266.084	20.31
266.3	16.21
266.516	-6.31
266.732	-24.75
266.948	44.88
267.164	44.88
267.38	67.41
267.596	14.17
267.812	55.12
268.028	38.74
268.244	3.93
268.46	-8.36
268.676	32.6
268.892	79.7
269.108	24.4
269.324	28.5
269.54	-43.18
269.756	65.36
269.972	40.79
270.188	96.08
270.403	-10.41
270.619	65.36
270.835	57.17
271.051	42.84
271.267	38.74
271.483	77.65
271.698	14.17
271.914	40.79
272.13	-14.51
272.346	42.84
272.562	32.6
272.777	67.41
272.993	67.41
273.209	8.02
273.425	22.36
273.64	-41.13
273.856	81.75
274.072	63.32
274.287	36.69
274.503	81.75
274.719	122.71
274.934	46.93
275.15	91.99
275.366	116.56
275.581	34.64
275.797	-0.17
276.012	55.12
276.228	34.64
276.444	-61.61
276.659	85.84
276.875	20.31
277.09	46.93
277.306	-10.41
277.521	53.08
277.737	-0.17
277.952	20.31
278.168	1.88
278.383	14.17
278.599	40.79
278.814	26.45
279.03	36.69
279.245	61.27
279.461	36.69
279.676	8.02
279.892	-0.17
280.107	36.69
280.322	30.55
280.538	32.6
280.753	40.79
280.969	75.6
281.184	51.03
281.399	149.33
281.615	18.26
281.83	67.41
282.045	26.45
282.26	34.64
282.476	38.74
282.691	61.27
282.906	59.22
283.122	48.98
283.337	8.02
283.552	34.64
283.767	20.31
283.983	55.12
284.198	16.21
284.413	14.17
284.628	-12.46
284.843	77.65
285.058	-16.55
285.274	34.64
285.489	-37.03
285.704	55.12
285.919	10.07
286.134	53.08
286.349	48.98
286.564	40.79
286.779	14.17
286.995	67.41
287.21	-45.23
287.425	40.79
287.64	-28.84
287.855	75.6
288.07	-6.31
288.285	-20.65
288.5	20.31
288.715	42.84
288.93	85.84
289.145	14.17
289.36	114.52
289.575	65.36
289.79	75.6
290.004	1.88
290.219	40.79
290.434	22.36
290.649	-16.55
290.864	-18.6
291.079	-24.75
291.294	57.17
291.509	44.88
291.724	55.12
291.938	94.04
292.153	12.12
292.368	38.74
292.583	48.98
292.798	65.36
293.012	81.75
293.227	30.55
293.442	77.65
293.657	8.02
293.871	108.37
294.086	3.93
294.301	48.98
294.516	36.69
294.73	38.74
294.945	-39.08
295.16	57.17
295.374	20.31
295.589	-26.79
295.804	38.74
296.018	3.93
296.233	61.27
296.447	-39.08
296.662	51.03
296.877	85.84
297.091	32.6
297.306	14.17
297.52	-43.18
297.735	48.98
297.949	44.88
298.164	96.08
298.378	-18.6
298.593	8.02
298.807	-8.36
299.022	59.22
299.236	26.45
299.451	40.79
299.665	18.26
299.88	8.02
300.094	42.84
300.309	18.26
300.523	-2.22
300.737	-10.41
300.952	77.65
301.166	18.26
301.381	51.03
301.595	8.02
301.809	30.55
302.024	87.89
302.238	59.22
302.452	44.88
302.667	75.6
302.881	59.22
303.095	28.5
303.309	8.02
303.524	53.08
303.738	-8.36
303.952	18.26
304.166	83.8
304.381	-41.13
304.595	-30.89
304.809	46.93
305.023	38.74
305.237	71.51
305.452	34.64
305.666	14.17
305.88	30.55
306.094	38.74
306.308	63.32
306.522	1.88
306.736	83.8
306.95	63.32
307.164	67.41
307.379	75.6
307.593	10.07
307.807	57.17
308.021	38.74
308.235	-20.65
308.449	63.32
308.663	40.79
308.877	46.93
309.091	112.47
309.305	20.31
309.519	42.84
309.733	14.17
309.947	-6.31
310.161	22.36
310.374	104.28
310.588	85.84
310.802	14.17
311.016	48.98
311.23	36.69
311.444	8.02
311.658	-14.51
311.872	26.45
312.085	-10.41
312.299	14.17
312.513	108.37
312.727	110.42
312.941	-22.7
313.154	53.08
313.368	-0.17
313.582	83.8
313.796	79.7
314.009	14.17
314.223	73.56
314.437	10.07
314.651	48.98
314.864	94.04
315.078	-28.84
315.292	-39.08
315.505	-26.79
315.719	32.6
315.933	-10.41
316.146	51.03
316.36	-6.31
316.573	48.98
316.787	-24.75
317.001	87.89
317.214	12.12
317.428	104.28
317.641	18.26
317.855	26.45
318.068	38.74
318.282	102.23
318.495	44.88
318.709	57.17
318.922	-8.36
319.136	79.7
319.349	24.4
319.563	73.56
319.776	63.32
319.99	-0.17
320.203	55.12
320.417	51.03
320.63	-6.31
320.843	139.09
321.057	16.21
321.27	71.51
321.483	38.74
321.697	59.22
321.91	94.04
322.124	-63.66
322.337	22.36
322.55	22.36
322.763	-12.46
322.977	20.31
323.19	59.22
323.403	42.84
323.617	16.21
323.83	-10.41
324.043	51.03
324.256	46.93
324.469	16.21
324.683	-41.13
324.896	-53.42
325.109	100.18
325.322	-12.46
325.535	22.36
325.748	36.69
325.962	40.79
326.175	130.9
326.388	53.08
326.601	51.03
326.814	61.27
327.027	81.75
327.24	91.99
327.453	18.26
327.666	12.12
327.879	89.94
328.092	57.17
328.305	-2.22
328.518	1.88
328.731	8.02
328.944	94.04
329.157	75.6
329.37	-18.6
329.583	42.84
329.796	8.02
330.009	18.26
330.222	83.8
330.435	87.89
330.648	71.51
330.861	171.86
331.073	75.6
331.286	18.26
331.499	3.93
331.712	-37.03
331.925	87.89
332.138	1.88
332.35	79.7
332.563	-49.32
332.776	14.17
332.989	67.41
333.202	53.08
333.414	61.27
333.627	69.46
333.84	104.28
334.053	55.12
334.265	-22.7
334.478	26.45
334.691	14.17
334.903	42.84
335.116	79.7
335.329	24.4
335.541	18.26
335.754	126.8
335.966	12.12
336.179	116.56
336.392	20.31
336.604	-49.32
336.817	94.04
337.029	53.08
337.242	-2.22
337.454	38.74
337.667	18.26
337.88	34.64
338.092	118.61
338.305	87.89
338.517	112.47
338.729	83.8
338.942	120.66
339.154	28.5
339.367	-51.37
339.579	163.67
339.792	67.41
340.004	30.55
340.217	51.03
340.429	51.03
340.641	16.21
340.854	100.18
341.066	-32.94
341.278	59.22
341.491	61.27
341.703	20.31
341.915	98.13
342.128	24.4
342.34	114.52
342.552	69.46
342.764	61.27
342.977	-2.22
343.189	34.64
343.401	14.17
343.613	18.26
343.826	-22.7
344.038	-6.31
344.25	75.6
344.462	44.88
344.674	71.51
344.886	96.08
345.099	-20.65
345.311	67.41
345.523	59.22
345.735	-4.27
345.947	-2.22
346.159	22.36
346.371	36.69
346.583	-26.79
346.795	57.17
347.007	46.93
347.219	53.08
347.431	38.74
347.643	48.98
347.855	-28.84
348.067	51.03
348.279	-6.31
348.491	18.26
348.703	-4.27
348.915	-6.31
349.127	24.4
349.339	65.36
349.551	5.97
349.763	24.4
349.975	24.4
350.187	75.6
350.399	106.32
350.61	71.51
350.822	10.07
351.034	44.88
351.246	38.74
351.458	114.52
351.669	-4.27
351.881	83.8
352.093	1.88
352.305	26.45
352.517	51.03
352.728	110.42
352.94	112.47
353.152	24.4
353.363	-16.55
353.575	75.6
353.787	83.8
353.999	26.45
354.21	42.84
354.422	12.12
354.633	91.99
354.845	51.03
355.057	38.74
355.268	83.8
355.48	-39.08
355.692	67.41
355.903	48.98
356.115	75.6
356.326	16.21
356.538	20.31
356.749	10.07
356.961	87.89
357.172	24.4
357.384	26.45
357.595	104.28
357.807	51.03
358.018	-30.89
358.23	32.6
358.441	96.08
358.653	67.41
358.864	48.98
359.075	-16.55
359.287	22.36
359.498	55.12
359.709	24.4
359.921	51.03
360.132	38.74
360.344	34.64
360.555	36.69
360.766	69.46
360.977	94.04
361.189	40.79
361.4	75.6
361.611	135
361.823	96.08
362.034	10.07
362.245	42.84
362.456	-4.27
362.667	65.36
362.879	16.21
363.09	48.98
363.301	34.64
363.512	-34.99
363.723	51.03
363.935	55.12
364.146	26.45
364.357	91.99
364.568	98.13
364.779	53.08
364.99	75.6
365.201	16.21
365.412	65.36
365.623	53.08
365.834	98.13
366.045	46.93
366.256	-28.84
366.467	102.23
366.678	67.41
366.889	22.36
367.1	51.03
367.311	114.52
367.522	63.32
367.733	28.5
367.944	89.94
368.155	65.36
368.366	-2.22
368.577	116.56
368.788	122.71
368.999	24.4
369.209	132.95
369.42	67.41
369.631	112.47
369.842	126.8
370.053	48.98
370.264	36.69
370.474	44.88
370.685	163.67
370.896	38.74
371.107	34.64
371.317	61.27
371.528	30.55
371.739	94.04
371.95	61.27
372.16	22.36
372.371	118.61
372.582	30.55
372.792	24.4
373.003	40.79
373.214	44.88
373.424	-12.46
373.635	81.75
373.846	32.6
374.056	26.45
374.267	130.9
374.477	8.02
374.688	69.46
374.898	-22.7
375.109	12.12
375.319	36.69
375.53	73.56
375.74	40.79
375.951	1.88
376.161	14.17
376.372	87.89
376.582	26.45
376.793	1.88
377.003	14.17
377.214	57.17
377.424	40.79
377.635	106.32
377.845	-28.84
378.055	22.36
378.266	98.13
378.476	8.02
378.686	67.41
378.897	77.65
379.107	75.6
379.317	94.04
379.528	24.4
379.738	48.98
379.948	14.17
380.158	55.12
380.369	1.88
380.579	73.56
380.789	28.5
380.999	44.88
381.21	104.28
381.42	67.41
381.63	18.26
381.84	71.51
382.05	28.5
382.261	40.79
382.471	32.6
382.681	65.36
382.891	30.55
383.101	67.41
383.311	16.21
383.521	20.31
383.731	89.94
383.941	48.98
384.151	75.6
384.361	44.88
384.571	98.13
384.781	110.42
384.991	20.31
385.201	59.22
385.411	79.7
385.621	36.69
385.831	22.36
386.041	65.36
386.251	44.88
386.461	61.27
386.671	38.74
386.881	53.08
387.091	44.88
387.301	34.64
387.511	-26.79
387.72	42.84
387.93	81.75
388.14	89.94
388.35	46.93
388.56	59.22
388.769	67.41
388.979	46.93
389.189	71.51
389.399	81.75
389.609	57.17
389.818	73.56
390.028	20.31
390.238	34.64
390.447	98.13
390.657	87.89
390.867	14.17
391.076	94.04
391.286	22.36
391.496	79.7
391.705	42.84
391.915	91.99
392.125	65.36
392.334	61.27
392.544	81.75
392.753	57.17
392.963	46.93
393.172	83.8
393.382	137.04
393.591	128.85
393.801	83.8
394.01	85.84
394.22	132.95
394.429	85.84
394.639	-6.31
394.848	55.12
395.058	67.41
395.267	83.8
395.477	71.51
395.686	118.61
395.895	71.51
396.105	85.84
396.314	100.18
396.524	53.08
396.733	48.98
396.942	104.28
397.152	130.9
397.361	85.84
397.57	38.74
397.78	42.84
397.989	151.38
398.198	59.22
398.407	98.13
398.617	124.76
398.826	110.42
399.035	3.93
399.244	85.84
399.453	147.28
399.663	18.26
399.872	137.04
400.081	75.6
400.29	46.93
400.499	42.84
400.708	120.66
400.917	69.46
401.127	141.14
401.336	126.8
401.545	59.22
401.754	167.76
401.963	112.47
402.172	108.37
402.381	135
402.59	81.75
402.799	167.76
403.008	114.52
403.217	71.51
403.426	161.62
403.635	57.17
403.844	55.12
404.053	153.43
404.262	89.94
404.471	141.14
404.68	94.04
404.888	153.43
405.097	100.18
405.306	159.57
405.515	147.28
405.724	132.95
405.933	130.9
406.142	159.57
406.35	147.28
406.559	151.38
406.768	145.24
406.977	122.71
407.185	198.48
407.394	159.57
407.603	155.47
407.812	182.1
408.02	212.82
408.229	192.34
408.438	243.54
408.646	143.19
408.855	216.91
409.064	171.86
409.272	268.11
409.481	257.87
409.69	245.59
409.898	253.78
410.107	300.88
410.315	313.17
410.524	296.78
410.733	290.64
410.941	202.58
411.15	313.17
411.358	296.78
411.567	431.95
411.775	278.35
411.984	327.5
412.192	405.33
412.401	366.42
412.609	382.8
412.818	452.43
413.026	421.71
413.234	393.04
413.443	431.95
413.651	421.71
413.86	413.52
414.068	434
414.276	497.49
414.485	513.87
414.693	540.49
414.901	536.4
415.11	542.54
415.318	581.45
415.526	583.5
415.734	679.75
415.943	616.27
416.151	698.19
416.359	673.61
416.567	685.9
416.776	573.26
416.984	751.43
417.192	714.57
417.4	769.87
417.608	702.28
417.817	753.48
418.025	835.4
418.233	950.09
418.441	915.27
418.649	941.89
418.857	909.13
419.065	1027.91
419.273	1009.48
419.481	1048.39
419.689	1142.6
419.897	1103.68
420.105	1197.89
420.313	1296.19
420.521	1267.52
420.729	1269.57
420.937	1384.26
421.145	1349.44
421.353	1457.98
421.561	1402.69
421.769	1441.6
421.977	1644.35
422.185	1523.52
422.393	1560.38
422.601	1623.87
422.809	1787.71
423.017	1730.36
423.224	1873.72
423.432	1886.01
423.64	1863.48
423.848	2219.83
424.056	2070.33
424.263	2178.87
424.471	2172.72
424.679	2246.45
424.887	2289.46
425.094	2576.17
425.302	2432.82
425.51	2508.59
425.718	2670.38
425.925	2639.66
426.133	2707.24
426.341	2879.27
426.548	3073.83
426.756	3016.49
426.964	3008.3
427.171	3284.77
427.379	3235.62
427.586	3399.46
427.794	3436.32
428.001	3575.58
428.209	3761.95
428.417	3700.51
428.624	3966.74
428.832	3823.39
429.039	3843.87
429.247	4009.75
429.454	4312.85
429.662	4568.85
429.869	4202.26
430.076	4587.28
430.284	4435.73
430.491	4585.23
430.699	5009.16
430.906	4912.91
431.114	4865.8
431.321	5181.19
431.528	5277.44
431.736	5682.94
431.943	5842.68
432.15	5641.98
432.358	5822.2
432.565	6022.91
432.772	6061.82
432.979	6143.74
433.187	6481.65
433.394	6620.91
433.601	6878.96
433.808	7038.7
434.016	6821.61
434.223	7362.28
434.43	7546.59
434.637	7433.96
434.844	7995.1
435.052	8109.79
435.259	8199.9
435.466	8109.79
435.673	7878.37
435.88	8658.64
436.087	8949.45
436.294	9023.18
436.501	8945.36
436.708	8939.21
436.915	9344.71
437.122	9813.7
437.329	9586.37
437.537	10051.26
437.743	10045.12
437.95	10034.88
438.157	10663.6
438.364	11105.96
438.571	10895.02
438.778	11015.85
438.985	12138.14
439.192	11263.66
439.399	11857.57
439.606	11505.32
439.813	12404.38
440.02	13049.49
440.227	12781.2
440.433	12691.09
440.64	13219.47
440.847	13170.32
441.054	13217.42
441.261	14100.09
441.467	14276.22
441.674	14237.31
441.881	14788.21
442.088	14440.06
442.294	14489.21
442.501	14919.28
442.708	15371.88
442.914	15937.12
443.121	16694.87
443.328	15908.45
443.534	17423.95
443.741	16666.2
443.948	16434.78
444.154	17675.85
444.361	17745.48
444.568	17751.62
444.774	17589.83
444.981	17901.12
445.187	18396.73
445.394	19164.72
445.6	18740.79
445.807	20858.39
446.013	19764.78
446.22	20379.17
446.426	21190.16
446.633	21286.42
446.839	22015.49
447.046	20942.36
447.252	22078.98
447.459	21968.39
447.665	22033.93
447.871	23014.9
448.078	24169.96
448.284	23096.82
448.491	23723.5
448.697	24346.08
448.903	24860.12
449.11	24788.44
449.316	24403.42
449.522	24374.75
449.728	25239
449.935	25601.49
450.141	25431.51
450.347	26201.54
450.553	25310.68
450.76	25503.18
450.966	25980.36
451.172	26080.71
451.378	26475.97
451.584	26049.99
451.791	26926.52
451.997	26725.82
452.203	27458.99
452.409	27194.81
452.615	26990.01
452.821	25972.17
453.027	25333.2
453.233	27078.07
453.44	25865.67
453.646	25945.55
453.852	26541.5
454.058	26971.58
454.264	25710.03
454.47	26183.11
454.676	25662.93
454.882	26684.86
455.088	24049.13
455.294	24462.82
455.5	24839.64
455.705	25013.72
455.911	24010.21
456.117	23729.64
456.323	23389.68
456.529	21765.64
456.735	22738.43
456.941	22224.39
457.147	21872.14
457.352	21116.44
457.558	21005.84
457.764	21042.71
457.97	20704.79
458.176	20157.99
458.381	20381.21
458.587	19217.97
458.793	18908.72
458.999	18177.6
459.204	19682.86
459.41	18875.96
459.616	17690.18
459.821	17602.12
460.027	17555.02
460.233	17149.52
460.438	16461.4
460.644	16715.35
460.85	15595.11
461.055	15660.65
461.261	15466.09
461.466	14351.99
461.672	14028.42
461.878	15048.3
462.083	13852.29
462.289	13762.18
462.494	13506.18
462.7	13182.6
462.905	12519.06
463.111	13094.54
463.316	13131.4
463.522	12912.27
463.727	12996.24
463.932	12813.97
464.138	12541.59
464.343	12562.07
464.549	12449.43
464.754	12797.59
464.959	12746.39
465.165	12435.1
465.37	12125.85
465.575	11630.24
465.781	12441.24
465.986	12281.5
466.191	11916.96
466.397	11785.89
466.602	10913.45
466.807	11685.54
467.012	11550.37
467.218	11443.88
467.423	11392.68
467.628	11335.34
467.833	11740.83
468.038	11460.26
468.244	10862.26
468.449	11359.91
468.654	11167.4
468.859	10985.13
469.064	11032.24
469.269	10626.74
469.474	10448.57
469.679	10761.91
469.885	10438.33
470.09	10766
470.295	10677.94
470.5	10456.76
470.705	10354.36
470.91	10217.15
471.115	10303.16
471.32	10247.86
471.525	10198.71
471.73	9766.59
471.935	9703.11
472.139	9668.29
472.344	9711.3
472.549	9846.46
472.754	9389.77
472.959	9035.47
473.164	9195.21
473.369	8859.34
473.574	9361.09
473.778	9262.79
473.983	8910.54
474.188	9242.31
474.393	8525.52
474.598	8695.5
474.802	8718.03
475.007	8681.17
475.212	8595.15
475.417	8333.01
475.621	8214.23
475.826	8197.85
476.031	8089.31
476.235	7841.5
476.44	7984.86
476.645	7974.62
476.849	7792.35
477.054	7929.56
477.259	7669.47
477.463	7751.39
477.668	7626.46
477.872	7591.65
478.077	7489.25
478.282	7442.15
478.486	7505.63
478.691	7116.52
478.895	7462.63
479.1	7177.96
479.304	7366.37
479.509	6987.5
479.713	7169.77
479.918	6938.35
480.122	6833.9
480.326	6780.65
480.531	6969.07
480.735	6881
480.94	6901.48
481.144	6932.2
481.348	6807.28
481.553	6751.98
481.757	6457.07
481.961	6655.73
482.166	6645.49
482.37	6868.72
482.574	6588.14
482.778	6727.41
482.983	6936.3
483.187	6749.93
483.391	6743.79
483.595	6645.49
483.8	6645.49
484.004	6620.91
484.208	6717.17
484.412	6690.54
484.616	6729.45
484.821	6608.62
485.025	6686.45
485.229	6717.17
485.433	6573.81
485.637	6606.58
485.841	6631.15
486.045	6514.42
486.249	6713.07
486.453	6545.14
486.657	6524.66
486.861	6743.79
487.065	6493.94
487.269	6536.95
487.473	6627.06
487.677	6657.78
487.881	6713.07
488.085	6551.28
488.289	6637.3
488.493	6538.99
488.697	6721.26
488.901	6719.21
489.105	6524.66
489.309	6768.37
489.512	6715.12
489.716	6670.06
489.92	6919.92
490.124	6700.78
490.328	6883.05
490.531	6721.26
490.735	6860.52
490.939	7022.31
491.143	6754.03
491.346	6835.95
491.55	7016.17
491.754	6960.88
491.958	7005.93
492.161	6989.55
492.365	6977.26
492.569	6958.83
492.772	6991.59
492.976	7024.36
493.18	7141.1
493.383	7112.42
493.587	7407.33
493.79	7171.82
493.994	6995.69
494.197	7362.28
494.401	7556.83
494.605	7487.2
494.808	7562.98
495.012	7648.99
495.215	7509.73
495.419	7935.71
495.622	7620.32
495.825	7726.82
496.029	7739.1
496.232	7974.62
496.436	8003.29
496.639	7960.28
496.843	8048.35
497.046	8208.09
497.249	8111.83
497.453	8349.4
497.656	8412.88
497.859	8330.97
498.063	8494.8
498.266	8492.76
498.469	8746.7
498.673	8646.35
498.876	8754.9
499.079	9080.52
499.282	8883.92
499.485	9354.95
499.689	9342.66
499.892	9275.08
500.095	9400.01
500.298	9791.17
500.501	9582.28
500.705	9791.17
500.908	9825.98
501.111	9940.67
501.314	10118.84
501.517	10176.19
501.72	10434.23
501.923	10270.39
502.126	10532.53
502.329	10587.83
502.532	10659.51
502.735	10700.47
502.938	11077.29
503.141	11140.78
503.344	11060.91
503.547	11304.62
503.75	11384.49
503.953	11638.44
504.156	11847.33
504.359	11925.15
504.562	11896.48
504.765	12385.94
504.968	12412.57
505.17	12314.27
505.373	12367.51
505.576	12838.55
505.779	12611.22
505.982	12770.96
506.185	12945.04
506.387	12949.14
506.59	13270.67
506.793	13594.25
506.996	13516.42
507.198	13840
507.401	13768.32
507.604	14057.09
507.807	14161.53
508.009	14460.54
508.212	14493.3
508.415	14591.61
508.617	14558.84
508.82	14597.75
509.022	14812.79
509.225	15433.32
509.428	15357.55
509.63	15443.56
509.833	15662.69
510.035	15924.83
510.238	15900.26
510.44	16287.32
510.643	16365.15
510.845	16764.5
511.048	16336.48
511.25	16911.96
511.453	16784.98
511.655	17122.9
511.858	17071.7
512.06	17329.74
512.262	17354.32
512.465	17657.42
512.667	17884.74
512.87	18028.1
513.072	18230.85
513.274	18570.81
513.477	18527.8
513.679	18837.05
513.881	18918.96
514.084	19252.78
514.286	19287.6
514.488	19496.49
514.69	20016.68
514.893	19934.76
515.095	19793.45
515.297	20131.36
515.499	20172.32
515.701	20778.52
515.904	20844.06
516.106	21052.95
516.308	21171.73
516.51	21554.7
516.712	21636.62
516.914	21814.79
517.116	22062.6
517.318	22009.35
517.52	22398.46
517.722	22326.78
517.925	22773.24
518.127	23150.07
518.329	23205.36
518.531	22975.99
518.733	23600.62
518.935	23748.07
519.136	23846.38
519.338	24354.27
519.54	24370.66
519.742	24380.9
519.944	24602.08
520.146	25318.87
520.348	25499.09
520.55	25538
520.752	25656.78
520.954	26121.67
521.155	26009.03
521.357	26461.63
521.559	26529.22
521.761	26764.73
521.963	26953.15
522.164	26992.06
522.366	26977.72
522.568	27381.17
522.77	27211.19
522.971	28110.25
523.173	27958.7
523.375	28040.62
523.576	28087.72
523.778	28495.27
523.98	28521.89
524.181	28999.07
524.383	29334.93
524.584	29255.06
524.786	29244.82
524.988	29334.93
525.189	29670.8
525.391	29920.65
525.592	29930.89
525.794	30197.13
525.995	30068.11
526.197	30258.57
526.398	30182.79
526.6	30713.22
526.801	30686.59
527.003	31010.17
527.204	31087.99
527.406	31378.81
527.607	31229.3
527.808	31569.27
528.01	30872.96
528.211	31339.9
528.412	32116.08
528.614	31968.62
528.815	32044.4
529.016	32097.64
529.218	31958.38
529.419	32134.51
529.62	32118.12
529.822	32494.95
530.023	32140.65
530.224	32546.15
530.425	32212.33
530.626	32441.7
530.828	32474.47
531.029	33305.95
531.23	32646.5
531.431	32542.05
531.632	32789.86
531.833	33105.24
532.035	33082.72
532.236	33131.87
532.437	33260.89
532.638	33082.72
532.839	33320.28
533.04	33391.96
533.241	33209.69
533.442	33707.35
533.643	33738.07
533.844	33484.12
534.045	33475.93
534.246	33455.45
534.447	33334.62
534.648	33492.31
534.849	33619.28
535.05	33418.58
535.251	33561.94
535.451	33643.86
535.652	33787.22
535.853	33709.39
536.054	33906
536.255	33973.58
536.456	33410.39
536.657	34178.38
536.857	33690.96
537.058	33310.04
537.259	33742.16
537.46	33688.92
537.66	33930.58
537.861	33615.19
538.062	33844.56
538.263	33813.84
538.463	33793.36
538.664	33746.26
538.865	34041.17
539.065	34141.52
539.266	33627.48
539.466	34184.52
539.667	33510.74
539.868	34219.34
540.068	33791.31
540.269	33443.16
540.469	34448.71
540.67	33647.96
540.87	33906
541.071	34008.4
541.271	33965.39
541.472	33385.82
541.672	33707.35
541.873	33727.83
542.073	33205.59
542.274	33926.48
542.474	33568.09
542.675	33453.4
542.875	33944.91
543.075	33912.14
543.276	33168.73
543.476	33992.01
543.676	33561.94
543.877	33768.79
544.077	33838.42
544.277	33713.49
544.478	33674.58
544.678	34041.17
544.878	33594.71
545.078	33527.13
545.279	33217.88
545.479	33467.73
545.679	33625.43
545.879	33482.07
546.079	33586.52
546.28	33588.56
546.48	33275.23
546.68	33785.17
546.88	33643.86
547.08	33617.24
547.28	33523.03
547.48	33545.56
547.68	33664.34
547.88	33578.32
548.081	33924.43
548.281	33682.77
548.481	33484.12
548.681	34000.21
548.881	33477.97
549.081	33492.31
549.28	33578.32
549.48	33553.75
549.68	33324.38
549.88	33975.63
550.08	33496.41
550.28	33379.67
550.48	33125.72
550.68	33629.52
550.88	33170.78
551.08	33508.69
551.279	33332.57
551.479	33246.55
551.679	33162.59
551.879	33314.14
552.079	33520.98
552.278	33217.88
552.478	33275.23
552.678	33394.01
552.878	33455.45
553.077	33207.64
553.277	32804.19
553.477	33582.42
553.676	33394.01
553.876	33232.22
554.076	33254.75
554.275	33008.99
554.475	32560.48
554.674	33209.69
554.874	32826.72
555.074	33031.52
555.273	33138.01
555.473	33127.77
555.672	33121.63
555.872	32748.9
556.071	32556.39
556.271	33213.79
556.47	32882.02
556.67	32832.86
556.869	32488.81
557.068	32736.61
557.268	32484.71
557.467	32814.43
557.667	32429.41
557.866	32511.33
558.065	32341.35
558.265	32259.43
558.464	32075.12
558.663	32836.96
558.863	31972.72
559.062	32509.29
559.261	32025.96
559.461	32431.46
559.66	31518.07
559.859	32015.72
560.058	31956.33
560.258	32083.31
560.457	31616.37
560.656	31597.94
560.855	31542.64
561.054	31792.5
561.253	31135.1
561.453	31227.26
561.652	31489.4
561.851	31651.19
562.05	31333.75
562.249	30989.69
562.448	31276.41
562.647	31493.49
562.846	31028.6
563.045	31505.78
563.244	30438.79
563.443	31395.19
563.642	30471.56
563.841	30731.65
564.04	30739.84
564.239	30705.02
564.438	30463.36
564.637	31120.76
564.836	30614.91
565.035	30322.05
565.234	30449.03
565.432	30279.05
565.631	29930.89
565.83	30102.92
566.029	29969.8
566.228	30018.96
566.427	29707.66
566.625	29978
566.824	29253.01
567.023	29816.21
567.222	29085.08
567.42	29431.19
567.619	29468.05
567.818	29107.61
568.016	29072.79
568.215	29142.42
568.414	28868
568.612	29363.61
568.811	28917.15
569.01	28759.45
569.208	28937.63
569.407	28626.34
569.605	28411.3
569.804	29048.22
570.002	28415.4
570.201	28226.98
570.4	28210.6
570.598	28194.22
570.797	27749.81
570.995	28362.15
571.193	27850.16
571.392	28151.21
571.59	27981.23
571.789	27938.22
571.987	27827.63
572.186	27684.27
572.384	27674.03
572.582	27387.32
572.781	27405.75
572.979	27090.36
573.177	27022.78
573.376	27227.57
573.574	27051.45
573.772	26803.64
573.971	26944.95
574.169	26637.76
574.367	26740.16
574.565	26688.96
574.763	26543.55
574.962	26369.47
575.16	26115.53
575.358	26394.05
575.556	26021.32
575.754	26506.69
575.952	25920.97
576.151	25886.15
576.349	25488.85
576.547	25822.67
576.745	25449.94
576.943	25988.55
577.141	25767.37
577.339	25734.6
577.537	25503.18
577.735	25327.06
577.933	25251.28
578.131	25300.44
578.329	24966.62
578.527	24878.55
578.725	25286.1
578.923	25066.97
579.121	24763.87
579.319	24735.2
579.516	24866.27
579.714	24651.23
579.912	24632.8
580.11	24380.9
580.308	24563.17
580.506	24571.36
580.704	23752.17
580.901	24169.96
581.099	24397.28
581.297	23801.32
581.495	24002.02
581.692	24536.54
581.89	23813.61
582.088	23864.81
582.285	23817.71
582.483	23664.11
582.681	23627.24
582.878	23584.24
583.076	23463.41
583.274	23434.74
583.471	23285.23
583.669	23416.3
583.866	23264.75
584.064	23301.62
584.262	23002.61
584.459	23086.58
584.657	22941.18
584.854	23047.67
585.052	22707.71
585.249	22988.28
585.447	22644.22
585.644	22386.18
585.841	22615.55
586.039	22842.87
586.236	22400.51
586.434	22380.03
586.631	22363.65
586.828	22466.05
587.026	22224.39
587.223	22013.45
587.42	22142.47
587.618	22314.5
587.815	21933.57
588.012	21734.92
588.21	21708.3
588.407	22009.35
588.604	21550.6
588.801	21456.4
588.999	21691.91
589.196	21274.13
589.393	21245.46
589.59	21302.8
589.787	20991.51
589.984	21356.05
590.182	21085.72
590.379	21210.64
590.576	20938.26
590.773	20833.82
590.97	20721.18
591.167	20751.9
591.364	20373.02
591.561	20776.47
591.758	20473.37
591.955	20416.03
592.152	20803.1
592.349	20416.03
592.546	20276.77
592.743	20450.85
592.94	20074.02
593.137	20198.95
593.334	20100.64
593.531	19850.79
593.727	19973.67
593.924	19918.37
594.121	19609.13
594.318	19918.37
594.515	19637.8
594.712	20000.29
594.908	19852.84
595.105	19811.88
595.302	19240.5
595.499	19740.2
595.696	19473.96
595.892	19412.53
596.089	19230.26
596.286	19168.82
596.482	18961.97
596.679	19172.91
596.876	19111.47
597.072	18953.78
597.269	18820.66
597.466	18992.69
597.662	18624.06
597.859	18884.15
598.055	18857.53
598.252	18687.54
598.448	18636.34
598.645	18570.81
598.841	18075.2
599.038	18243.13
599.234	18552.38
599.431	18122.3
599.627	17817.16
599.824	18177.6
600.02	17989.19
600.217	17927.75
600.413	17978.95
600.609	17940.04
600.806	17997.38
601.002	17804.87
601.198	17823.3
601.395	17577.55
601.591	17720.9
601.787	17743.43
601.984	17526.35
602.18	17536.59
602.376	17399.37
602.572	17350.22
602.769	17157.71
602.965	17276.49
603.161	16942.67
603.357	17106.51
603.553	16965.2
603.75	16903.76
603.946	16637.53
604.142	17092.18
604.338	16533.08
604.534	17086.03
604.73	16469.59
604.926	16930.39
605.122	16971.35
605.318	16502.36
605.514	16490.07
605.71	16430.68
605.906	16359
606.102	16539.22
606.298	16180.83
606.494	16287.32
606.69	16129.63
606.886	16105.06
607.082	15865.44
607.278	16100.96
607.474	15750.76
607.67	15996.51
607.866	15871.59
608.062	16137.82
608.257	15902.31
608.453	15904.35
608.649	15773.28
608.845	15664.74
609.041	16072.29
609.236	15789.67
609.432	15754.85
609.628	15537.77
609.824	15418.99
610.019	15599.21
610.215	15421.03
610.411	15353.45
610.606	15228.52
610.802	15191.66
610.998	15285.87
611.193	15292.01
611.389	15263.34
611.584	15267.44
611.78	15199.85
611.976	15365.74
612.171	15052.4
612.367	15115.89
612.562	15232.62
612.758	14765.68
612.953	14796.4
613.149	15234.67
613.344	14841.46
613.539	15089.26
613.735	14814.84
613.93	14829.17
614.126	14812.79
614.321	14722.68
614.517	14712.44
614.712	14644.85
614.907	14579.32
615.103	14741.11
615.298	14618.23
615.493	14640.76
615.688	14192.25
615.884	14673.53
616.079	14257.79
616.274	14571.13
616.47	14360.19
616.665	14450.3
616.86	14476.92
617.055	14085.76
617.25	14382.71
617.445	14409.34
617.641	13893.25
617.836	14122.62
618.031	14098.05
618.226	14012.03
618.421	13899.39
618.616	14089.85
618.811	13811.33
619.006	14089.85
619.201	13780.61
619.396	13612.68
619.591	13647.49
619.786	13696.64
619.981	13438.6
620.176	13659.78
620.371	13471.37
620.566	13399.69
620.761	13414.02
620.956	13450.89
621.151	13168.27
621.346	13201.04
621.541	13031.05
621.735	13184.65
621.93	12971.66
622.125	13106.83
622.32	12699.28
622.515	12607.12
622.709	12875.41
622.904	12711.57
623.099	12598.93
623.294	12572.31
623.488	12422.81
623.683	12435.1
623.878	12387.99
624.072	12203.68
624.267	12265.11
624.462	11984.54
624.656	12062.37
624.851	12134.04
625.046	11943.58
625.24	11859.62
625.435	11789.99
625.629	11810.47
625.824	11667.11
626.018	11630.24
626.213	11617.96
626.407	11325.1
626.602	11189.93
626.796	11407.02
626.991	11312.81
627.185	11130.54
627.38	10985.13
627.574	11196.07
627.768	11052.72
627.963	11032.24
628.157	10895.02
628.352	10841.78
628.546	10704.56
628.74	10860.21
628.935	10890.93
629.129	10606.26
629.323	10393.27
629.517	10583.73
629.712	10419.89
629.906	10561.2
630.1	10415.8
630.294	10286.78
630.489	10256.06
630.683	10292.92
630.877	10172.09
631.071	10006.2
631.265	10036.92
631.459	10143.42
631.653	10018.49
631.848	10090.17
632.042	9817.79
632.236	9791.17
632.43	9711.3
632.624	9690.82
632.818	9752.26
633.012	9535.17
633.206	9598.66
633.4	9545.41
633.594	9422.53
633.788	9453.25
633.982	9379.53
634.176	9189.07
634.369	9242.31
634.563	9131.72
634.757	9174.73
634.951	9098.95
635.145	9242.31
635.339	9076.43
635.533	8849.1
635.726	8988.36
635.92	8857.29
636.114	8746.7
636.308	8662.74
636.501	8793.81
636.695	8914.64
636.889	8683.22
637.083	8597.2
637.276	8556.24
637.47	8476.37
637.664	8535.76
637.857	8423.12
638.051	8343.25
638.244	8214.23
638.438	8373.97
638.632	8259.29
638.825	8101.59
639.019	8040.15
639.212	8052.44
639.406	7886.56
639.599	8007.39
639.793	8054.49
639.986	7806.69
640.18	7741.15
640.373	7878.37
640.567	7925.47
640.76	7882.46
640.954	7720.67
641.147	7741.15
641.34	7399.14
641.534	7712.48
641.727	7618.27
641.92	7542.5
642.114	7517.92
642.307	7257.83
642.5	7341.8
642.694	7122.66
642.887	7253.73
643.08	7352.04
643.273	7208.68
643.467	7024.36
643.66	7063.27
643.853	7120.62
644.046	7036.65
644.239	6999.79
644.432	6954.73
644.626	6874.86
644.819	6801.13
645.012	6858.48
645.205	7007.98
645.398	6805.23
645.591	6780.65
645.784	6682.35
645.977	6510.32
646.17	6522.61
646.363	6637.3
646.556	6450.93
646.749	6536.95
646.942	6571.76
647.135	6481.65
647.328	6391.54
647.521	6266.61
647.714	6166.26
647.907	6326
648.099	6133.5
648.292	6174.46
648.485	6108.92
648.678	6346.48
648.871	6113.02
649.064	5930.75
649.256	6121.21
649.449	6014.71
649.642	5857.02
649.835	5969.66
650.027	5992.19
650.22	5807.87
650.413	5926.65
650.605	5852.92
650.798	5957.37
650.991	5875.45
651.183	5668.61
651.376	5619.46
651.568	5539.58
651.761	5609.22
651.954	5701.37
652.146	5512.96
652.339	5547.78
652.531	5494.53
652.724	5408.51
652.916	5420.8
653.109	5265.16
653.301	5527.3
653.494	5365.51
653.686	5226.25
653.879	5388.04
654.071	5312.26
654.263	5287.68
654.456	5195.53
654.648	5224.2
654.84	5121.8
655.033	5091.08
655.225	5218.05
655.417	5095.18
655.61	5181.19
655.802	5078.79
655.994	5043.98
656.186	5000.97
656.379	4884.23
656.571	4892.43
656.763	4968.2
656.955	4843.28
657.148	4931.34
657.34	4792.08
657.532	4802.32
657.724	4744.97
657.916	4716.3
658.108	4771.6
658.3	4581.14
658.492	4732.69
658.684	4587.28
658.876	4728.59
659.068	4523.79
659.26	4683.53
659.452	4574.99
659.644	4611.85
659.836	4431.63
660.028	4577.04
660.22	4491.02
660.412	4554.51
660.604	4445.97
660.796	4443.92
660.988	4259.6
661.18	4243.22
661.372	4402.96
661.563	4183.83
661.755	4187.93
661.947	4271.89
662.139	4349.71
662.331	4321.04
662.522	4161.3
662.714	4110.1
662.906	4118.29
663.097	4091.67
663.289	4028.18
663.481	4007.7
663.673	3999.51
663.864	4001.56
664.056	3919.64
664.247	3952.41
664.439	3989.27
664.631	3989.27
664.822	3946.27
665.014	3913.5
665.205	3884.83
665.397	3757.85
665.588	3850.01
665.78	3815.2
665.971	3809.05
666.163	3751.71
666.354	3677.98
666.546	3745.56
666.737	3710.75
666.929	3706.65
667.12	3733.28
667.311	3567.39
667.503	3524.38
667.694	3643.17
667.885	3704.6
668.077	3616.54
668.268	3688.22
668.459	3450.66
668.651	3460.9
668.842	3508
669.033	3485.47
669.224	3567.39
669.416	3600.16
669.607	3389.22
669.798	3325.73
669.989	3426.08
670.18	3389.22
670.371	3303.2
670.563	3413.79
670.754	3471.14
670.945	3401.51
671.136	3448.61
671.327	3254.05
671.518	3370.79
671.709	3319.59
671.9	3413.79
672.091	3231.52
672.282	3161.89
672.473	3198.76
672.664	3190.56
672.855	3102.5
673.046	3249.96
673.237	3127.08
673.428	3262.24
673.619	3114.79
673.809	3137.32
674	3178.28
674.191	3264.29
674.382	3295.01
674.573	3184.42
674.764	3086.12
674.954	3110.69
675.145	2926.38
675.336	3053.35
675.527	2930.47
675.717	3057.45
675.908	2963.24
676.099	3002.15
676.289	2930.47
676.48	2912.04
676.671	2883.37
676.861	2893.61
677.052	2969.38
677.243	2996.01
677.433	2842.41
677.624	2955.05
677.814	2985.77
678.005	2864.94
678.195	2932.52
678.386	2785.07
678.576	2930.47
678.767	2780.97
678.957	2893.61
679.148	2942.76
679.338	2819.88
679.529	2801.45
679.719	2907.94
679.909	2817.83
680.1	2735.92
680.29	2842.41
680.481	2762.54
680.671	2721.58
680.861	2709.29
681.052	2697
681.242	2697
681.432	2756.4
681.622	2713.39
681.813	2758.44
682.003	2694.96
682.193	2680.62
682.383	2699.05
682.573	2641.71
682.764	2527.02
682.954	2613.04
683.144	2533.17
683.334	2547.5
683.524	2610.99
683.714	2670.38
683.904	2656.04
684.094	2608.94
684.284	2586.41
684.474	2604.85
684.664	2565.93
684.854	2508.59
685.044	2672.43
685.234	2502.45
685.424	2633.52
685.614	2510.64
685.804	2740.01
685.994	2455.34
686.184	2426.67
686.374	2549.55
686.564	2610.99
686.753	2443.06
686.943	2395.95
687.133	2543.41
687.323	2572.08
687.513	2461.49
687.702	2430.77
687.892	2350.9
688.082	2340.66
688.272	2412.34
688.461	2455.34
688.651	2457.39
688.841	2328.37
689.03	2340.66
689.22	2283.31
689.41	2314.03
689.599	2365.23
689.789	2330.42
689.979	2289.46
690.168	2348.85
690.358	2230.07
690.547	2330.42
690.737	2463.54
690.926	2303.79
691.116	2309.94
691.305	2346.8
691.495	2295.6
691.684	2295.6
691.874	2316.08
692.063	2185.01
692.252	2230.07
692.442	2211.64
692.631	2156.34
692.82	2283.31
693.01	2191.16
693.199	2176.82
693.388	2142
693.578	2250.55
693.767	2275.12
693.956	2203.44
694.146	2172.72
694.335	2107.19
694.524	2189.11
694.713	2211.64
694.902	2148.15
695.092	2205.49
695.281	2166.58
695.47	2189.11
695.659	2137.91
695.848	2142
696.037	2135.86
696.226	2146.1
696.415	2113.33
696.604	2156.34
696.793	2096.95
696.982	2142
697.171	2191.16
697.36	2115.38
697.549	2162.48
697.738	2072.37
697.927	2068.28
698.116	2148.15
698.305	2213.68
698.494	2144.05
698.683	2109.24
698.872	2137.91
699.061	2146.1
699.25	2000.69
699.438	2180.92
699.627	2080.57
699.816	2123.57
700.005	2111.29
700.193	2176.82
700.382	2146.1
700.571	2139.96
700.76	2068.28
700.948	2058.04
701.137	2172.72
701.326	2025.27
701.514	2121.52
701.703	2101.05
701.892	2090.81
702.08	2107.19
702.269	2164.53
702.457	2074.42
702.646	2158.39
702.834	1986.36
703.023	2129.72
703.212	2035.51
703.4	2123.57
703.589	2109.24
703.777	2101.05
703.965	2043.7
704.154	2187.06
704.342	2068.28
704.531	2160.44
704.719	2025.27
704.907	2211.64
705.096	2004.79
705.284	2139.96
705.472	2162.48
705.661	2103.09
705.849	2211.64
706.037	2168.63
706.226	2230.07
706.414	2250.55
706.602	2064.18
706.79	2088.76
706.979	2076.47
707.167	2152.24
707.355	2099
707.543	2180.92
707.731	2146.1
707.919	2094.9
708.107	2066.23
708.296	2076.47
708.484	2185.01
708.672	2197.3
708.86	2072.37
709.048	2008.89
709.236	2039.61
709.424	2219.83
709.612	2094.9
709.8	2055.99
709.988	2109.24
710.176	1994.55
710.364	2055.99
710.551	2039.61
710.739	2031.41
710.927	2111.29
711.115	2150.2
711.303	2035.51
711.491	2010.93
711.679	2090.81
711.866	2086.71
712.054	2049.85
712.242	2156.34
712.43	2027.32
712.617	2146.1
712.805	2066.23
712.993	2096.95
713.181	2119.48
713.368	2101.05
713.556	2076.47
713.744	2090.81
713.931	2107.19
714.119	2082.61
714.306	2125.62
714.494	2047.8
714.682	2072.37
714.869	2055.99
715.057	2023.22
715.244	2115.38
715.432	2060.09
715.619	2055.99
715.807	2010.93
715.994	2039.61
716.182	2025.27
716.369	2021.17
716.556	2191.16
716.744	2144.05
716.931	2053.94
717.119	2088.76
717.306	2101.05
717.493	2148.15
717.681	1976.12
717.868	2019.13
718.055	2047.8
718.242	2082.61
718.43	2043.7
718.617	1955.64
718.804	2080.57
718.991	2029.37
719.179	1969.98
719.366	2017.08
719.553	2146.1
719.74	2125.62
719.927	2066.23
720.114	2031.41
720.301	2078.52
720.488	1955.64
720.676	2023.22
720.863	2027.32
721.05	2111.29
721.237	2021.17
721.424	1969.98
721.611	2002.74
721.798	1969.98
721.985	2094.9
722.172	2008.89
722.358	2101.05
722.545	1957.69
722.732	2047.8
722.919	1957.69
723.106	1943.35
723.293	2053.94
723.48	2051.89
723.667	1980.22
723.853	1922.87
724.04	2076.47
724.227	1974.07
724.414	2051.89
724.6	2017.08
724.787	2123.57
724.974	2015.03
725.161	1910.58
725.347	1961.78
725.534	2045.75
725.72	1967.93
725.907	2137.91
726.094	1894.2
726.28	1906.49
726.467	1974.07
726.653	2060.09
726.84	1972.02
727.027	1972.02
727.213	1910.58
727.4	2008.89
727.586	2000.69
727.773	2039.61
727.959	2027.32
728.145	1918.78
728.332	1924.92
728.518	1879.86
728.705	1900.34
728.891	1922.87
729.077	1951.54
729.264	1898.3
729.45	1873.72
729.636	1941.3
729.823	1943.35
730.009	2031.41
730.195	1806.14
730.382	1965.88
730.568	1939.26
730.754	1892.15
730.94	1972.02
731.126	1855.29
731.313	1959.74
731.499	1916.73
731.685	1849.15
731.871	1916.73
732.057	1912.63
732.243	1990.45
732.429	1847.1
732.615	1881.91
732.801	2031.41
732.987	1982.26
733.173	1933.11
733.359	1804.09
733.545	1781.56
733.731	1877.82
733.917	1906.49
734.103	1814.33
734.289	1877.82
734.475	1926.97
734.661	1799.99
734.847	1873.72
735.033	1808.19
735.219	1795.9
735.404	1849.15
735.59	1871.67
735.776	1916.73
735.962	1922.87
736.148	1812.28
736.333	1988.41
736.519	1855.29
736.705	1822.52
736.89	1916.73
737.076	1824.57
737.262	1931.06
737.447	1847.1
737.633	1816.38
737.819	1877.82
738.004	1881.91
738.19	1754.94
738.375	1890.1
738.561	1756.99
738.747	1701.69
738.932	1802.04
739.118	1693.5
739.303	1861.43
739.489	1750.84
739.674	1728.31
739.859	1779.51
740.045	1730.36
740.23	1611.58
740.416	1761.08
740.601	1836.86
740.786	1689.4
740.972	1716.03
741.157	1707.84
741.342	1666.88
741.528	1687.36
741.713	1746.75
741.898	1754.94
742.084	1750.84
742.269	1685.31
742.454	1732.41
742.639	1679.16
742.824	1621.82
743.01	1597.24
743.195	1740.6
743.38	1656.64
743.565	1691.45
743.75	1607.48
743.935	1611.58
744.12	1707.84
744.305	1781.56
744.49	1562.43
744.675	1670.97
744.86	1570.62
745.045	1441.6
745.23	1525.57
745.415	1642.3
745.6	1685.31
745.785	1621.82
745.97	1525.57
746.155	1562.43
746.34	1548.09
746.525	1449.79
746.71	1619.77
746.895	1517.37
747.079	1490.75
747.264	1447.74
747.449	1572.67
747.634	1437.5
747.819	1541.95
748.003	1513.28
748.188	1464.13
748.373	1478.46
748.557	1507.13
748.742	1453.89
748.927	1482.56
749.111	1439.55
749.296	1345.34
749.481	1390.4
749.665	1435.46
749.85	1498.94
750.034	1304.39
750.219	1380.16
750.404	1341.25
750.588	1365.82
750.773	1298.24
750.957	1283.91
751.141	1337.15
751.326	1345.34
751.51	1230.66
751.695	1191.75
751.879	1337.15
752.064	1335.1
752.248	1308.48
752.432	1355.58
752.617	1247.04
752.801	1259.33
752.985	1185.6
753.17	1199.94
753.354	1206.08
753.538	1195.84
753.722	1318.72
753.907	1187.65
754.091	1214.27
754.275	1154.88
754.459	1214.27
754.643	1132.36
754.828	1089.35
755.012	1081.16
755.196	1148.74
755.38	1156.93
755.564	1144.64
755.748	1118.02
755.932	1034.05
756.116	1079.11
756.3	1126.21
756.484	1191.75
756.668	1066.82
756.852	1038.15
757.036	1097.54
757.22	1017.67
757.404	1062.73
757.588	1046.34
757.772	1017.67
757.956	1122.12
758.14	1072.96
758.323	978.76
758.507	1099.59
758.691	984.9
758.875	929.61
759.059	956.23
759.242	954.18
759.426	902.98
759.61	915.27
759.794	890.7
759.977	1029.96
760.161	989
760.345	919.37
760.528	1009.48
760.712	958.28
760.895	986.95
761.079	997.19
761.263	972.61
761.446	859.98
761.63	892.74
761.813	894.79
761.997	872.26
762.18	964.42
762.364	931.66
762.547	915.27
762.731	921.42
762.914	945.99
763.098	880.46
763.281	876.36
763.464	819.02
763.648	870.22
763.831	814.92
764.015	849.74
764.198	898.89
764.381	806.73
764.564	935.75
764.748	835.4
764.931	876.36
765.114	843.59
765.297	790.35
765.481	810.82
765.664	839.5
765.847	810.82
766.03	878.41
766.213	927.56
766.397	915.27
766.58	900.94
766.763	853.83
766.946	769.87
767.129	692.04
767.312	808.78
767.495	814.92
767.678	780.11
767.861	884.55
768.044	831.3
768.227	759.63
768.41	841.54
768.593	759.63
768.776	788.3
768.959	665.42
769.142	790.35
769.324	771.91
769.507	839.5
769.69	870.22
769.873	681.8
770.056	816.97
770.239	767.82
770.421	759.63
770.604	714.57
770.787	743.24
770.97	722.76
771.152	847.69
771.335	712.52
771.518	702.28
771.7	751.43
771.883	677.71
772.066	778.06
772.248	763.72
772.431	726.86
772.613	712.52
772.796	761.67
772.978	733
773.161	702.28
773.343	632.65
773.526	851.78
773.708	755.53
773.891	575.31
774.073	683.85
774.256	677.71
774.438	636.75
774.621	741.19
774.803	716.62
774.985	683.85
775.168	714.57
775.35	632.65
775.532	634.7
775.715	718.67
775.897	739.15
776.079	606.03
776.261	616.27
776.444	601.93
776.626	657.23
776.808	669.52
776.99	591.69
777.173	642.89
777.355	601.93
777.537	649.04
777.719	575.31
777.901	610.12
778.083	552.78
778.265	526.16
778.447	624.46
778.629	520.01
778.811	593.74
778.993	577.36
779.175	618.32
779.357	563.02
779.539	577.36
779.721	417.61
779.903	542.54
780.085	456.53
780.267	573.26
780.449	575.31
780.631	554.83
780.812	591.69
780.994	593.74
781.176	603.98
781.358	485.2
781.54	509.77
781.721	485.2
781.903	563.02
782.085	483.15
782.267	513.87
782.448	505.68
782.63	511.82
782.812	497.49
782.993	513.87
783.175	538.45
783.357	458.57
783.538	429.9
783.72	419.66
783.901	522.06
784.083	483.15
784.264	495.44
784.446	401.23
784.627	419.66
784.809	483.15
784.99	419.66
785.172	411.47
785.353	436.05
785.535	466.77
785.716	489.29
785.897	372.56
786.079	458.57
786.26	386.9
786.441	411.47
786.623	395.09
786.804	380.75
786.985	397.14
787.167	413.52
787.348	390.99
787.529	423.76
787.71	403.28
787.891	466.77
788.073	362.32
788.254	347.98
788.435	372.56
788.616	388.94
788.797	403.28
788.978	329.55
789.159	307.02
789.34	397.14
789.522	427.85
789.703	384.85
789.884	343.89
790.065	370.51
790.246	311.12
790.427	339.79
790.607	347.98
790.788	335.7
790.969	358.22
791.15	368.46
791.331	235.35
791.512	350.03
791.693	307.02
791.874	255.83
792.054	366.42
792.235	294.74
792.416	350.03
792.597	350.03
792.778	366.42
792.958	292.69
793.139	311.12
793.32	378.7
793.5	329.55
793.681	350.03
793.862	276.31
794.042	331.6
794.223	272.21
794.404	354.13
794.584	274.26
794.765	300.88
794.945	313.17
795.126	216.91
795.306	352.08
795.487	261.97
795.667	239.44
795.848	411.47
796.028	198.48
796.209	333.65
796.389	231.25
796.57	317.26
796.75	247.63
796.93	208.72
797.111	153.43
797.291	233.3
797.471	255.83
797.652	235.35
797.832	255.83
798.012	186.19
798.192	241.49
798.373	245.59
798.553	237.39
798.733	241.49
798.913	204.63
799.093	231.25
799.274	270.16
799.454	282.45
799.634	188.24
799.814	249.68
799.994	255.83
800.174	274.26
800.354	225.11
800.534	204.63
800.714	239.44
800.894	204.63
801.074	159.57
801.254	261.97
801.434	300.88
801.614	233.3
801.794	284.5
801.974	507.73
802.154	270.16
802.334	161.62
802.514	106.32
802.693	180.05
802.873	210.77
803.053	186.19
803.233	231.25
803.413	261.97
803.592	221.01
803.772	153.43
803.952	196.43
804.131	243.54
804.311	257.87
804.491	221.01
804.67	141.14
804.85	225.11
805.03	210.77
805.209	214.87
805.389	145.24
805.568	186.19
805.748	180.05
805.928	143.19
806.107	192.34
806.287	233.3
806.466	221.01
806.646	204.63
806.825	202.58
807.004	155.47
807.184	182.1
807.363	178
807.543	112.47
807.722	145.24
807.901	212.82
808.081	212.82
808.26	81.75
808.439	210.77
808.619	173.91
808.798	155.47
808.977	223.06
809.156	186.19
809.336	157.52
809.515	202.58
809.694	159.57
809.873	167.76
810.052	202.58
810.231	161.62
810.411	204.63
810.59	239.44
810.769	159.57
810.948	270.16
811.127	135
811.306	145.24
811.485	155.47
811.664	110.42
811.843	192.34
812.022	204.63
812.201	175.95
812.38	112.47
812.559	204.63
812.737	186.19
812.916	104.28
813.095	96.08
813.274	182.1
813.453	149.33
813.632	153.43
813.811	145.24
813.989	71.51
814.168	116.56
814.347	231.25
814.526	151.38
814.704	184.15
814.883	192.34
815.062	126.8
815.24	190.29
815.419	155.47
815.598	139.09
815.776	85.84
815.955	118.61
816.133	163.67
816.312	151.38
816.49	30.55
816.669	163.67
816.847	141.14
817.026	106.32
817.204	139.09
817.383	196.43
817.561	112.47
817.74	114.52
817.918	98.13
818.097	79.7
818.275	63.32
818.453	159.57
818.632	196.43
818.81	135
818.988	106.32
819.167	118.61
819.345	128.85
819.523	122.71
819.701	61.27
819.879	141.14
820.058	91.99
820.236	73.56
820.414	165.71
820.592	130.9
820.77	147.28
820.948	128.85
821.127	165.71
821.305	157.52
821.483	75.6
821.661	163.67
821.839	108.37
822.017	71.51
822.195	155.47
822.373	184.15
822.551	55.12
822.729	132.95
822.907	124.76
823.085	171.86
823.262	94.04
823.44	194.39
823.618	132.95
823.796	32.6
823.974	77.65
824.152	89.94
824.329	104.28
824.507	132.95
824.685	112.47
824.863	104.28
825.04	151.38
825.218	42.84
825.396	124.76
825.574	118.61
825.751	96.08
825.929	65.36
826.107	114.52
826.284	69.46
826.462	87.89
826.639	3.93
826.817	147.28
826.994	147.28
827.172	157.52
827.349	114.52
827.527	100.18
827.704	157.52
827.882	83.8
828.059	91.99
828.237	53.08
828.414	120.66
828.591	22.36
828.769	135
828.946	98.13
829.124	145.24
829.301	122.71
829.478	75.6
829.655	143.19
829.833	32.6
830.01	48.98
830.187	100.18
830.364	65.36
830.542	120.66
830.719	106.32
830.896	61.27
831.073	173.91
831.25	110.42
831.427	171.86
831.604	-28.84
831.782	55.12
831.959	85.84
832.136	48.98
832.313	106.32
832.49	55.12
832.667	98.13
832.844	57.17
833.021	57.17
833.198	161.62
833.374	112.47
833.551	83.8
833.728	94.04
833.905	73.56
834.082	65.36
834.259	20.31
834.436	63.32
834.612	65.36
834.789	71.51
834.966	-24.75
835.143	59.22
835.319	143.19
835.496	14.17
835.673	20.31
835.85	51.03
836.026	83.8
836.203	-22.7
836.38	30.55
836.556	48.98
836.733	65.36
836.909	188.24
837.086	3.93
837.262	67.41
837.439	98.13
837.616	53.08
837.792	46.93
837.968	18.26
838.145	44.88
838.321	69.46
838.498	59.22
838.674	87.89
838.851	75.6
839.027	83.8
839.203	22.36
839.38	38.74
839.556	61.27
839.732	96.08
839.909	143.19
840.085	83.8
840.261	46.93
840.437	69.46
840.614	5.97
840.79	124.76
840.966	77.65
841.142	16.21
841.318	22.36
841.494	91.99
841.671	73.56
841.847	85.84
842.023	26.45
842.199	161.62
842.375	75.6
842.551	69.46
842.727	44.88
842.903	98.13
843.079	-32.94
843.255	57.17
843.431	-22.7
843.607	104.28
843.783	-0.17
843.959	100.18
844.134	46.93
844.31	87.89
844.486	98.13
844.662	81.75
844.838	67.41
845.013	73.56
845.189	69.46
845.365	24.4
845.541	14.17
845.716	34.64
845.892	114.52
846.068	34.64
846.244	65.36
846.419	34.64
846.595	-22.7
846.77	79.7
846.946	57.17
847.122	1.88
847.297	48.98
847.473	51.03
847.648	53.08
847.824	63.32
847.999	30.55
848.175	3.93
848.35	77.65
848.526	51.03
848.701	81.75
848.876	81.75
849.052	106.32
849.227	77.65
849.403	20.31
849.578	106.32
849.753	40.79
849.929	98.13
850.104	5.97
850.279	8.02
850.454	102.23
850.63	135
850.805	40.79
850.98	32.6
851.155	18.26
851.33	83.8
851.505	83.8
851.681	3.93
851.856	-30.89
852.031	98.13
852.206	1.88
852.381	-14.51
852.556	32.6
852.731	83.8
852.906	46.93
853.081	75.6
853.256	5.97
853.431	-20.65
853.606	34.64
853.781	-20.65
853.956	-55.47
854.131	65.36
854.305	61.27
854.48	24.4
854.655	16.21
854.83	14.17
855.005	57.17
855.18	63.32
855.354	79.7
855.529	98.13
855.704	3.93
855.879	79.7
856.053	8.02
856.228	38.74
856.403	46.93
856.577	100.18
856.752	20.31
856.926	75.6
857.101	57.17
857.276	-12.46
857.45	55.12
857.625	87.89
857.799	30.55
857.974	26.45
858.148	-39.08
858.323	24.4
858.497	98.13
858.672	40.79
858.846	22.36
859.02	40.79
859.195	44.88
859.369	38.74
859.543	85.84
859.718	38.74
859.892	30.55
860.066	42.84
860.241	24.4
860.415	26.45
860.589	-69.8
860.763	51.03
860.938	1.88
861.112	83.8
861.286	53.08
861.46	46.93
861.634	-2.22
861.808	71.51
861.982	1.88
862.157	14.17
862.331	75.6
862.505	75.6
862.679	-22.7
862.853	98.13
863.027	-22.7
863.201	24.4
863.375	10.07
863.549	-26.79
863.722	8.02
863.896	91.99
864.07	-24.75
864.244	24.4
864.418	28.5
864.592	46.93
864.766	26.45
864.939	32.6
865.113	36.69
865.287	42.84
865.461	-4.27
865.634	67.41
865.808	-59.56
865.982	-16.55
866.156	98.13
866.329	14.17
866.503	14.17
866.676	38.74
866.85	1.88
867.024	16.21
867.197	55.12
867.371	71.51
867.544	10.07
867.718	5.97
867.891	55.12
868.065	34.64
868.238	18.26
868.412	61.27
868.585	-104.62
868.759	-2.22
868.932	5.97
869.105	-18.6
869.279	-10.41
869.452	51.03
869.625	16.21
869.799	30.55
869.972	57.17
870.145	-6.31
870.319	63.32
870.492	89.94
870.665	44.88
870.838	32.6
871.011	59.22
871.185	59.22
871.358	-47.27
871.531	-24.75
871.704	26.45
871.877	42.84
872.05	1.88
872.223	44.88
872.396	-51.37
872.569	12.12
872.742	-4.27
872.915	81.75
873.088	36.69
873.261	-20.65
873.434	59.22
873.607	-10.41
873.78	73.56
873.953	24.4
874.126	48.98
874.299	81.75
874.471	-22.7
874.644	18.26
874.817	57.17
874.99	104.28
875.163	22.36
875.335	34.64
875.508	87.89
875.681	89.94
875.853	-2.22
876.026	14.17
876.199	69.46
876.371	8.02
876.544	-47.27
876.717	28.5
876.889	-0.17
877.062	46.93
877.234	55.12
877.407	106.32
877.579	28.5
877.752	22.36
877.924	98.13
878.097	22.36
878.269	-14.51
878.442	44.88
878.614	-59.56
878.786	61.27
878.959	20.31
879.131	3.93
879.303	24.4
879.476	34.64
879.648	-2.22
879.82	18.26
879.993	-49.32
880.165	-55.47
880.337	38.74
880.509	36.69
880.681	-57.51
880.854	-0.17
881.026	3.93
881.198	12.12
881.37	51.03
881.542	22.36
881.714	89.94
881.886	20.31
882.058	3.93
882.23	55.12
882.402	51.03
882.574	12.12
882.746	67.41
882.918	53.08
883.09	-49.32
883.262	16.21
883.434	16.21
883.606	-45.23
883.778	75.6
883.95	67.41
884.122	81.75
884.293	-28.84
884.465	63.32
884.637	81.75
884.809	34.64
884.98	67.41
885.152	5.97
885.324	57.17
885.496	-34.99
885.667	12.12
885.839	34.64
886.011	1.88
886.182	-41.13
886.354	-28.84
886.525	-32.94
886.697	16.21
886.869	-59.56
887.04	83.8
887.212	14.17
887.383	28.5
887.555	-16.55
887.726	36.69
887.897	5.97
888.069	-4.27
888.24	81.75
888.412	12.12
888.583	59.22
888.754	3.93
888.926	34.64
889.097	59.22
889.268	51.03
889.44	-12.46
889.611	-6.31
889.782	32.6
889.953	100.18
890.125	55.12
890.296	5.97
890.467	3.93
890.638	20.31
890.809	-16.55
890.98	-4.27
891.151	-0.17
891.323	28.5
891.494	28.5
891.665	-39.08
891.836	24.4
892.007	59.22
892.178	-12.46
892.349	-45.23
892.52	-30.89
892.691	51.03
892.862	-45.23
893.032	-59.56
893.203	42.84
893.374	-26.79
893.545	57.17
893.716	1.88
893.887	65.36
894.057	16.21
894.228	8.02
894.399	-8.36
894.57	55.12
894.74	32.6
894.911	3.93
895.082	-10.41
895.253	51.03
895.423	65.36
895.594	30.55
895.764	77.65
895.935	51.03
896.106	44.88
896.276	46.93
896.447	73.56
896.617	77.65
896.788	46.93
896.958	10.07
897.129	34.64
897.299	34.64
897.47	102.23
897.64	96.08
897.81	-45.23
897.981	-75.95
898.151	46.93
898.322	71.51
898.492	26.45
898.662	-43.18
898.832	1.88
899.003	61.27
899.173	1.88
899.343	34.64
899.513	-26.79
