Data from USB4F104151__112__11-07-18-678.txt Node

Date: Wed Mar 12 11:07:18 EDT 2025
User: louis
Spectrometer: USB4F10415
Trigger mode: 4
Integration Time (sec): 2.000000E-2
Scans to average: 1
Electric dark correction enabled: true
Nonlinearity correction enabled: false
Boxcar width: 0
XAxis mode: Wavelengths
Number of Pixels in Spectrum: 3648
>>>>>Begin Spectral Data<<<<<
178.204	-34.13
178.424	-34.13
178.644	-34.13
178.864	-109.91
179.084	-54.61
179.304	-83.28
179.524	2.73
179.744	-56.66
179.964	10.92
180.184	-1.37
180.404	-27.99
180.624	72.36
180.844	25.26
181.064	-27.99
181.283	68.27
181.503	4.78
181.723	12.97
181.943	-11.61
182.163	86.7
182.383	-15.7
182.602	103.08
182.822	86.7
183.042	19.11
183.262	-5.46
183.482	6.83
183.701	-32.08
183.921	113.32
184.141	72.36
184.361	117.42
184.58	49.83
184.8	33.45
185.02	-7.51
185.239	60.07
185.459	47.79
185.679	58.03
185.898	10.92
186.118	74.41
186.338	47.79
186.557	109.22
186.777	51.88
186.997	51.88
187.216	-52.56
187.436	55.98
187.655	88.75
187.875	-9.56
188.095	-19.8
188.314	60.07
188.534	76.46
188.753	82.6
188.973	66.22
189.192	74.41
189.412	74.41
189.631	12.97
189.851	66.22
190.07	84.65
190.29	21.16
190.509	4.78
190.729	66.22
190.948	127.66
191.168	131.75
191.387	78.51
191.607	35.5
191.826	-21.85
192.045	80.55
192.265	41.64
192.484	10.92
192.704	76.46
192.923	-30.04
193.142	141.99
193.362	109.22
193.581	45.74
193.8	35.5
194.02	41.64
194.239	8.87
194.458	62.12
194.678	27.31
194.897	23.21
195.116	47.79
195.335	92.84
195.555	82.6
195.774	72.36
195.993	58.03
196.212	62.12
196.432	-17.75
196.651	12.97
196.87	27.31
197.089	23.21
197.308	96.94
197.528	4.78
197.747	2.73
197.966	72.36
198.185	41.64
198.404	-48.47
198.623	31.4
198.842	41.64
199.062	66.22
199.281	47.79
199.5	78.51
199.719	15.02
199.938	88.75
200.157	86.7
200.376	0.68
200.595	21.16
200.814	94.89
201.033	-9.56
201.252	39.59
201.471	84.65
201.69	78.51
201.909	10.92
202.128	39.59
202.347	88.75
202.566	33.45
202.785	31.4
203.004	49.83
203.223	51.88
203.442	33.45
203.661	43.69
203.879	74.41
204.098	101.03
204.317	21.16
204.536	76.46
204.755	25.26
204.974	47.79
205.193	-9.56
205.411	25.26
205.63	119.46
205.849	113.32
206.068	-21.85
206.287	35.5
206.505	109.22
206.724	15.02
206.943	31.4
207.162	41.64
207.381	27.31
207.599	29.35
207.818	35.5
208.037	8.87
208.255	119.46
208.474	49.83
208.693	55.98
208.911	27.31
209.13	21.16
209.349	6.83
209.567	76.46
209.786	58.03
210.005	-5.46
210.223	4.78
210.442	-52.56
210.661	92.84
210.879	25.26
211.098	-1.37
211.316	-13.65
211.535	53.93
211.753	6.83
211.972	123.56
212.191	33.45
212.409	88.75
212.628	62.12
212.846	105.13
213.065	12.97
213.283	109.22
213.502	15.02
213.72	62.12
213.938	17.07
214.157	88.75
214.375	12.97
214.594	55.98
214.812	-21.85
215.031	55.98
215.249	0.68
215.467	12.97
215.686	-7.51
215.904	43.69
216.122	-19.8
216.341	121.51
216.559	129.7
216.778	29.35
216.996	10.92
217.214	60.07
217.432	51.88
217.651	6.83
217.869	47.79
218.087	12.97
218.306	43.69
218.524	55.98
218.742	-17.75
218.96	64.17
219.179	76.46
219.397	68.27
219.615	23.21
219.833	51.88
220.051	-11.61
220.27	90.79
220.488	-32.08
220.706	4.78
220.924	80.55
221.142	19.11
221.36	78.51
221.578	21.16
221.796	19.11
222.015	41.64
222.233	-9.56
222.451	55.98
222.669	64.17
222.887	49.83
223.105	103.08
223.323	64.17
223.541	74.41
223.759	35.5
223.977	39.59
224.195	51.88
224.413	78.51
224.631	31.4
224.849	2.73
225.067	103.08
225.285	10.92
225.503	117.42
225.721	6.83
225.939	58.03
226.157	23.21
226.375	123.56
226.592	84.65
226.81	31.4
227.028	78.51
227.246	64.17
227.464	62.12
227.682	109.22
227.9	29.35
228.117	58.03
228.335	41.64
228.553	58.03
228.771	35.5
228.989	84.65
229.206	23.21
229.424	25.26
229.642	-13.65
229.86	58.03
230.077	58.03
230.295	123.56
230.513	15.02
230.731	15.02
230.948	45.74
231.166	76.46
231.384	-32.08
231.601	33.45
231.819	86.7
232.037	-1.37
232.254	43.69
232.472	62.12
232.689	68.27
232.907	39.59
233.125	109.22
233.342	45.74
233.56	-5.46
233.777	58.03
233.995	25.26
234.213	39.59
234.43	51.88
234.648	-15.7
234.865	39.59
235.083	105.13
235.3	35.5
235.518	84.65
235.735	45.74
235.953	31.4
236.17	35.5
236.388	4.78
236.605	113.32
236.822	19.11
237.04	76.46
237.257	66.22
237.475	-11.61
237.692	72.36
237.909	76.46
238.127	62.12
238.344	66.22
238.562	12.97
238.779	-15.7
238.996	25.26
239.214	49.83
239.431	76.46
239.648	35.5
239.865	27.31
240.083	68.27
240.3	0.68
240.517	47.79
240.735	12.97
240.952	82.6
241.169	117.42
241.386	43.69
241.603	96.94
241.821	51.88
242.038	98.99
242.255	103.08
242.472	25.26
242.689	49.83
242.907	43.69
243.124	31.4
243.341	51.88
243.558	2.73
243.775	39.59
243.992	31.4
244.209	105.13
244.426	92.84
244.643	64.17
244.86	80.55
245.078	62.12
245.295	84.65
245.512	96.94
245.729	80.55
245.946	60.07
246.163	27.31
246.38	66.22
246.597	68.27
246.814	78.51
247.031	41.64
247.248	88.75
247.464	-9.56
247.681	37.55
247.898	41.64
248.115	21.16
248.332	49.83
248.549	29.35
248.766	78.51
248.983	47.79
249.2	66.22
249.417	43.69
249.633	6.83
249.85	90.79
250.067	15.02
250.284	105.13
250.501	35.5
250.717	-40.28
250.934	-5.46
251.151	39.59
251.368	137.9
251.585	62.12
251.801	66.22
252.018	25.26
252.235	-5.46
252.451	76.46
252.668	68.27
252.885	23.21
253.102	-15.7
253.318	39.59
253.535	64.17
253.752	74.41
253.968	39.59
254.185	10.92
254.401	-1.37
254.618	8.87
254.835	39.59
255.051	144.04
255.268	8.87
255.484	47.79
255.701	37.55
255.917	37.55
256.134	-7.51
256.351	12.97
256.567	60.07
256.784	15.02
257	15.02
257.217	15.02
257.433	62.12
257.65	66.22
257.866	64.17
258.082	25.26
258.299	41.64
258.515	19.11
258.732	80.55
258.948	-11.61
259.165	53.93
259.381	64.17
259.597	127.66
259.814	19.11
260.03	123.56
260.246	68.27
260.463	103.08
260.679	60.07
260.895	-5.46
261.112	64.17
261.328	-13.65
261.544	6.83
261.761	21.16
261.977	70.31
262.193	2.73
262.409	119.46
262.626	72.36
262.842	105.13
263.058	4.78
263.274	-3.41
263.49	70.31
263.707	74.41
263.923	68.27
264.139	105.13
264.355	23.21
264.571	53.93
264.787	-11.61
265.004	117.42
265.22	45.74
265.436	25.26
265.652	-1.37
265.868	23.21
266.084	35.5
266.3	70.31
266.516	60.07
266.732	178.86
266.948	41.64
267.164	58.03
267.38	98.99
267.596	72.36
267.812	92.84
268.028	62.12
268.244	-7.51
268.46	10.92
268.676	17.07
268.892	68.27
269.108	-32.08
269.324	-9.56
269.54	27.31
269.756	55.98
269.972	-13.65
270.188	-64.85
270.403	41.64
270.619	47.79
270.835	55.98
271.051	49.83
271.267	8.87
271.483	35.5
271.698	96.94
271.914	115.37
272.13	-17.75
272.346	19.11
272.562	137.9
272.777	37.55
272.993	31.4
273.209	12.97
273.425	62.12
273.64	31.4
273.856	47.79
274.072	47.79
274.287	-7.51
274.503	82.6
274.719	23.21
274.934	64.17
275.15	70.31
275.366	123.56
275.581	-23.89
275.797	17.07
276.012	103.08
276.228	10.92
276.444	-38.23
276.659	123.56
276.875	49.83
277.09	78.51
277.306	35.5
277.521	41.64
277.737	103.08
277.952	60.07
278.168	-3.41
278.383	33.45
278.599	129.7
278.814	49.83
279.03	80.55
279.245	62.12
279.461	86.7
279.676	76.46
279.892	-9.56
280.107	72.36
280.322	27.31
280.538	19.11
280.753	8.87
280.969	72.36
281.184	53.93
281.399	98.99
281.615	6.83
281.83	-44.37
282.045	58.03
282.26	103.08
282.476	27.31
282.691	53.93
282.906	88.75
283.122	62.12
283.337	49.83
283.552	23.21
283.767	33.45
283.983	82.6
284.198	76.46
284.413	33.45
284.628	60.07
284.843	92.84
285.058	47.79
285.274	51.88
285.489	8.87
285.704	15.02
285.919	23.21
286.134	51.88
286.349	35.5
286.564	74.41
286.779	125.61
286.995	21.16
287.21	15.02
287.425	15.02
287.64	29.35
287.855	92.84
288.07	35.5
288.285	33.45
288.5	125.61
288.715	133.8
288.93	72.36
289.145	64.17
289.36	25.26
289.575	-1.37
289.79	8.87
290.004	8.87
290.219	49.83
290.434	98.99
290.649	35.5
290.864	43.69
291.079	98.99
291.294	43.69
291.509	6.83
291.724	-19.8
291.938	47.79
292.153	35.5
292.368	51.88
292.583	80.55
292.798	53.93
293.012	47.79
293.227	17.07
293.442	64.17
293.657	68.27
293.871	39.59
294.086	58.03
294.301	76.46
294.516	105.13
294.73	70.31
294.945	-13.65
295.16	-5.46
295.374	51.88
295.589	74.41
295.804	66.22
296.018	47.79
296.233	86.7
296.447	51.88
296.662	45.74
296.877	76.46
297.091	76.46
297.306	33.45
297.52	-21.85
297.735	80.55
297.949	-1.37
298.164	55.98
298.378	33.45
298.593	-23.89
298.807	29.35
299.022	23.21
299.236	131.75
299.451	35.5
299.665	47.79
299.88	10.92
300.094	92.84
300.309	72.36
300.523	31.4
300.737	-7.51
300.952	80.55
301.166	78.51
301.381	43.69
301.595	60.07
301.809	17.07
302.024	43.69
302.238	84.65
302.452	98.99
302.667	64.17
302.881	72.36
303.095	25.26
303.309	-1.37
303.524	35.5
303.738	72.36
303.952	74.41
304.166	88.75
304.381	15.02
304.595	17.07
304.809	43.69
305.023	80.55
305.237	17.07
305.452	-21.85
305.666	19.11
305.88	98.99
306.094	4.78
306.308	23.21
306.522	60.07
306.736	119.46
306.95	64.17
307.164	41.64
307.379	60.07
307.593	49.83
307.807	39.59
308.021	98.99
308.235	84.65
308.449	64.17
308.663	88.75
308.877	43.69
309.091	70.31
309.305	-1.37
309.519	27.31
309.733	19.11
309.947	-21.85
310.161	68.27
310.374	84.65
310.588	70.31
310.802	92.84
311.016	-9.56
311.23	58.03
311.444	55.98
311.658	109.22
311.872	62.12
312.085	96.94
312.299	35.5
312.513	133.8
312.727	117.42
312.941	41.64
313.154	53.93
313.368	-17.75
313.582	82.6
313.796	49.83
314.009	33.45
314.223	80.55
314.437	62.12
314.651	-17.75
314.864	117.42
315.078	23.21
315.292	109.22
315.505	51.88
315.719	39.59
315.933	129.7
316.146	80.55
316.36	-30.04
316.573	-5.46
316.787	31.4
317.001	68.27
317.214	45.74
317.428	105.13
317.641	-5.46
317.855	-32.08
318.068	27.31
318.282	17.07
318.495	45.74
318.709	53.93
318.922	19.11
319.136	121.51
319.349	51.88
319.563	25.26
319.776	113.32
319.99	131.75
320.203	19.11
320.417	39.59
320.63	70.31
320.843	35.5
321.057	15.02
321.27	53.93
321.483	39.59
321.697	72.36
321.91	96.94
322.124	129.7
322.337	58.03
322.55	60.07
322.763	35.5
322.977	43.69
323.19	113.32
323.403	88.75
323.617	92.84
323.83	113.32
324.043	131.75
324.256	72.36
324.469	37.55
324.683	92.84
324.896	33.45
325.109	92.84
325.322	41.64
325.535	-7.51
325.748	51.88
325.962	25.26
326.175	96.94
326.388	121.51
326.601	94.89
326.814	6.83
327.027	49.83
327.24	78.51
327.453	19.11
327.666	41.64
327.879	84.65
328.092	19.11
328.305	31.4
328.518	15.02
328.731	80.55
328.944	31.4
329.157	27.31
329.37	-1.37
329.583	43.69
329.796	43.69
330.009	-34.13
330.222	43.69
330.435	74.41
330.648	144.04
330.861	78.51
331.073	119.46
331.286	113.32
331.499	74.41
331.712	17.07
331.925	8.87
332.138	49.83
332.35	105.13
332.563	80.55
332.776	103.08
332.989	-15.7
333.202	62.12
333.414	-3.41
333.627	84.65
333.84	49.83
334.053	10.92
334.265	15.02
334.478	51.88
334.691	-7.51
334.903	66.22
335.116	39.59
335.329	49.83
335.541	58.03
335.754	103.08
335.966	68.27
336.179	103.08
336.392	39.59
336.604	19.11
336.817	131.75
337.029	117.42
337.242	27.31
337.454	60.07
337.667	12.97
337.88	160.42
338.092	74.41
338.305	60.07
338.517	66.22
338.729	84.65
338.942	64.17
339.154	68.27
339.367	29.35
339.579	43.69
339.792	-15.7
340.004	144.04
340.217	70.31
340.429	49.83
340.641	25.26
340.854	76.46
341.066	10.92
341.278	129.7
341.491	19.11
341.703	21.16
341.915	68.27
342.128	-1.37
342.34	47.79
342.552	39.59
342.764	76.46
342.977	55.98
343.189	129.7
343.401	105.13
343.613	-1.37
343.826	55.98
344.038	41.64
344.25	70.31
344.462	62.12
344.674	123.56
344.886	133.8
345.099	76.46
345.311	8.87
345.523	60.07
345.735	-1.37
345.947	88.75
346.159	55.98
346.371	55.98
346.583	80.55
346.795	109.22
347.007	101.03
347.219	-17.75
347.431	25.26
347.643	84.65
347.855	4.78
348.067	94.89
348.279	47.79
348.491	-11.61
348.703	27.31
348.915	88.75
349.127	33.45
349.339	64.17
349.551	66.22
349.763	156.33
349.975	41.64
350.187	66.22
350.399	55.98
350.61	94.89
350.822	58.03
351.034	74.41
351.246	84.65
351.458	72.36
351.669	43.69
351.881	121.51
352.093	160.42
352.305	121.51
352.517	66.22
352.728	107.18
352.94	60.07
353.152	92.84
353.363	27.31
353.575	80.55
353.787	101.03
353.999	23.21
354.21	94.89
354.422	10.92
354.633	88.75
354.845	6.83
355.057	41.64
355.268	76.46
355.48	78.51
355.692	8.87
355.903	47.79
356.115	39.59
356.326	66.22
356.538	29.35
356.749	129.7
356.961	123.56
357.172	23.21
357.384	84.65
357.595	92.84
357.807	74.41
358.018	101.03
358.23	41.64
358.441	35.5
358.653	35.5
358.864	47.79
359.075	-44.37
359.287	133.8
359.498	8.87
359.709	47.79
359.921	135.85
360.132	119.46
360.344	60.07
360.555	64.17
360.766	117.42
360.977	29.35
361.189	68.27
361.4	21.16
361.611	53.93
361.823	62.12
362.034	76.46
362.245	105.13
362.456	39.59
362.667	68.27
362.879	25.26
363.09	-5.46
363.301	70.31
363.512	84.65
363.723	94.89
363.935	43.69
364.146	158.38
364.357	74.41
364.568	121.51
364.779	113.32
364.99	107.18
365.201	68.27
365.412	41.64
365.623	-5.46
365.834	101.03
366.045	45.74
366.256	137.9
366.467	8.87
366.678	94.89
366.889	90.79
367.1	66.22
367.311	-7.51
367.522	12.97
367.733	90.79
367.944	115.37
368.155	15.02
368.366	146.09
368.577	51.88
368.788	123.56
368.999	-3.41
369.209	98.99
369.42	80.55
369.631	174.76
369.842	80.55
370.053	90.79
370.264	55.98
370.474	31.4
370.685	27.31
370.896	15.02
371.107	8.87
371.317	41.64
371.528	101.03
371.739	41.64
371.95	103.08
372.16	84.65
372.371	17.07
372.582	103.08
372.792	43.69
373.003	47.79
373.214	115.37
373.424	66.22
373.635	-3.41
373.846	123.56
374.056	62.12
374.267	90.79
374.477	94.89
374.688	109.22
374.898	98.99
375.109	68.27
375.319	60.07
375.53	113.32
375.74	98.99
375.951	43.69
376.161	39.59
376.372	92.84
376.582	92.84
376.793	41.64
377.003	94.89
377.214	111.27
377.424	66.22
377.635	-7.51
377.845	23.21
378.055	29.35
378.266	49.83
378.476	62.12
378.686	23.21
378.897	-9.56
379.107	131.75
379.317	43.69
379.528	10.92
379.738	80.55
379.948	80.55
380.158	62.12
380.369	29.35
380.579	17.07
380.789	49.83
380.999	82.6
381.21	37.55
381.42	121.51
381.63	113.32
381.84	25.26
382.05	82.6
382.261	84.65
382.471	86.7
382.681	58.03
382.891	103.08
383.101	92.84
383.311	33.45
383.521	125.61
383.731	74.41
383.941	19.11
384.151	19.11
384.361	41.64
384.571	82.6
384.781	74.41
384.991	129.7
385.201	6.83
385.411	10.92
385.621	107.18
385.831	90.79
386.041	117.42
386.251	58.03
386.461	141.99
386.671	19.11
386.881	78.51
387.091	84.65
387.301	94.89
387.511	43.69
387.72	76.46
387.93	27.31
388.14	64.17
388.35	21.16
388.56	88.75
388.769	51.88
388.979	98.99
389.189	133.8
389.399	49.83
389.609	123.56
389.818	103.08
390.028	0.68
390.238	129.7
390.447	49.83
390.657	162.47
390.867	113.32
391.076	74.41
391.286	88.75
391.496	84.65
391.705	113.32
391.915	86.7
392.125	156.33
392.334	82.6
392.544	119.46
392.753	70.31
392.963	29.35
393.172	53.93
393.382	92.84
393.591	78.51
393.801	68.27
394.01	70.31
394.22	107.18
394.429	101.03
394.639	115.37
394.848	105.13
395.058	98.99
395.267	103.08
395.477	76.46
395.686	103.08
395.895	92.84
396.105	187.05
396.314	68.27
396.524	121.51
396.733	103.08
396.942	55.98
397.152	107.18
397.361	125.61
397.57	60.07
397.78	43.69
397.989	109.22
398.198	125.61
398.407	23.21
398.617	135.85
398.826	88.75
399.035	105.13
399.244	72.36
399.453	98.99
399.663	158.38
399.872	191.14
400.081	129.7
400.29	176.81
400.499	154.28
400.708	166.57
400.917	88.75
401.127	215.72
401.336	119.46
401.545	146.09
401.754	139.94
401.963	152.23
402.172	68.27
402.381	119.46
402.59	117.42
402.799	92.84
403.008	164.52
403.217	137.9
403.426	135.85
403.635	105.13
403.844	66.22
404.053	139.94
404.262	117.42
404.471	273.06
404.68	152.23
404.888	148.14
405.097	156.33
405.306	111.27
405.515	146.09
405.724	152.23
405.933	158.38
406.142	230.06
406.35	84.65
406.559	176.81
406.768	152.23
406.977	234.15
407.185	279.21
407.394	256.68
407.603	201.38
407.812	217.77
408.02	258.73
408.229	219.82
408.438	293.54
408.646	225.96
408.855	246.44
409.064	250.53
409.272	295.59
409.481	348.84
409.69	273.06
409.898	252.58
410.107	352.93
410.315	266.92
410.524	326.31
410.733	445.09
410.941	373.41
411.15	340.65
411.358	357.03
411.567	422.56
411.775	404.13
411.984	342.69
412.192	303.78
412.401	502.43
412.609	492.2
412.818	426.66
413.026	477.86
413.234	541.35
413.443	420.52
413.651	473.76
413.86	545.44
414.068	553.63
414.276	623.27
414.485	588.45
414.693	660.13
414.901	653.98
415.11	746.14
415.318	709.28
415.526	696.99
415.734	733.86
415.943	729.76
416.151	770.72
416.359	778.91
416.567	846.49
416.776	869.02
416.984	948.89
417.192	905.88
417.4	854.69
417.608	969.37
417.817	946.84
418.025	1020.57
418.233	1063.58
418.441	1047.19
418.649	1133.21
418.857	1180.31
419.065	1176.22
419.273	1157.78
419.481	1215.13
419.689	1338.01
419.897	1368.73
420.105	1374.87
420.313	1497.75
420.521	1505.94
420.729	1497.75
420.937	1585.81
421.145	1634.96
421.353	1761.94
421.561	1825.42
421.769	1876.62
421.977	1983.12
422.185	1929.87
422.393	2001.55
422.601	2110.09
422.809	2163.34
423.017	2218.63
423.224	2144.91
423.432	2402.95
423.64	2327.18
423.848	2599.55
424.056	2476.68
424.263	2693.76
424.471	2523.78
424.679	2777.73
424.887	2888.32
425.094	3041.92
425.302	2976.38
425.51	3168.89
425.718	3162.75
425.925	3115.64
426.133	3398.26
426.341	3453.56
426.548	3666.55
426.756	3660.4
426.964	3680.88
427.171	3979.89
427.379	4018.8
427.586	4076.14
427.794	4239.98
428.001	4512.36
428.209	4555.37
428.417	4672.1
428.624	4850.27
428.832	4749.92
429.039	4680.29
429.247	4866.66
429.454	5290.59
429.662	5667.41
429.869	5356.12
430.076	5694.04
430.284	5476.95
430.491	5810.77
430.699	5990.99
430.906	6124.11
431.114	6044.24
431.321	6369.87
431.528	6560.33
431.736	6746.69
431.943	7285.31
432.15	6984.26
432.358	7109.18
432.565	7406.14
432.772	7449.14
432.979	7789.11
433.187	8075.82
433.394	8106.54
433.601	8446.51
433.808	8475.18
434.016	8593.96
434.223	8774.18
434.43	9443.87
434.637	9181.73
434.844	9841.17
435.052	10160.66
435.259	9857.56
435.466	10138.13
435.673	10076.69
435.88	10766.85
436.087	11139.58
436.294	11108.87
436.501	10793.48
436.708	11047.43
436.915	11436.54
437.122	12179.95
437.329	12018.16
437.537	12323.31
437.743	12671.47
437.95	12517.87
438.157	13109.73
438.364	13519.32
438.571	13599.2
438.778	13588.96
438.985	14993.86
439.192	14213.59
439.399	14647.76
439.606	14275.02
439.813	15237.57
440.02	16200.12
440.227	16095.67
440.433	15724.99
440.64	16394.67
440.847	16320.95
441.054	16619.95
441.261	17742.24
441.467	17441.18
441.674	17850.78
441.881	18262.42
442.088	18524.56
442.294	18237.84
442.501	18567.57
442.708	19200.39
442.914	20033.91
443.121	20646.26
443.328	20052.34
443.534	21309.8
443.741	21105
443.948	20967.79
444.154	22202.71
444.361	22159.7
444.568	22188.38
444.774	22215
444.981	22432.08
445.187	23122.25
445.394	23978.3
445.6	23474.5
445.807	26042.65
446.013	24785.2
446.22	25461.03
446.426	26376.47
446.633	26419.48
446.839	27617.54
447.046	26347.8
447.252	27703.56
447.459	28152.06
447.665	27889.92
447.871	28772.6
448.078	29823.2
448.284	28680.44
448.491	29667.56
448.697	30644.44
448.903	31041.74
449.11	31148.24
449.316	30945.49
449.522	31039.7
449.728	32002.24
449.935	32487.61
450.141	31983.81
450.347	33013.94
450.553	31832.26
450.76	32467.13
450.966	33153.2
451.172	32936.12
451.378	33589.42
451.584	33362.09
451.791	34218.14
451.997	33530.03
452.203	34416.8
452.409	33779.88
452.615	34371.74
452.821	32794.81
453.027	32336.06
453.233	34119.84
453.44	32921.78
453.646	33458.35
453.852	33726.63
454.058	33843.37
454.264	32483.51
454.47	33405.1
454.676	32825.53
454.882	33775.78
455.088	30900.44
455.294	31324.36
455.5	31736.01
455.705	31865.03
455.911	30816.47
456.117	29851.88
456.323	30191.84
456.529	28143.87
456.735	29595.88
456.941	28645.62
457.147	28205.31
457.352	27271.43
457.558	26867.98
457.764	26941.71
457.97	26425.62
458.176	25970.97
458.381	26079.52
458.587	25039.15
458.793	24693.04
458.999	23599.43
459.204	25280.81
459.41	24478.01
459.616	22708.56
459.821	22964.56
460.027	22462.8
460.233	22266.2
460.438	21455.2
460.644	21309.8
460.85	20410.74
461.055	20382.07
461.261	20390.26
461.466	18741.64
461.672	18145.69
461.878	19448.19
462.083	18420.11
462.289	17838.49
462.494	17848.73
462.7	16804.27
462.905	16652.72
463.111	16894.38
463.316	17011.11
463.522	16648.62
463.727	16673.2
463.932	16521.65
464.138	16443.82
464.343	16538.03
464.549	16292.27
464.754	16710.06
464.959	16513.45
465.165	16337.33
465.37	15636.92
465.575	15352.26
465.781	15868.34
465.986	15999.41
466.191	15548.86
466.397	15137.22
466.602	14268.88
466.807	15028.68
467.012	14909.9
467.218	15008.2
467.423	14698.95
467.628	14875.08
467.833	15579.58
468.038	15194.56
468.244	14563.79
468.449	14870.98
468.654	14346.7
468.859	14479.82
469.064	14508.49
469.269	13924.82
469.474	13853.14
469.679	14223.83
469.885	13595.1
470.09	14113.24
470.295	13760.98
470.5	13584.86
470.705	13519.32
470.91	13208.03
471.115	13205.99
471.32	13341.15
471.525	13513.18
471.73	13156.83
471.935	12839.4
472.139	12425.71
472.344	12646.89
472.549	12587.5
472.754	12438
472.959	12397.04
473.164	11971.06
473.369	11942.39
473.574	12280.3
473.778	12161.52
473.983	12220.91
474.188	11809.27
474.393	11358.72
474.598	11450.88
474.802	11334.14
475.007	11184.64
475.212	11211.26
475.417	10766.85
475.621	10762.76
475.826	10879.49
476.031	10684.94
476.235	10394.12
476.44	10566.15
476.645	10453.52
476.849	10394.12
477.054	10185.23
477.259	10412.56
477.463	9972.24
477.668	9910.8
477.872	9953.81
478.077	9919
478.282	9513.5
478.486	9521.69
478.691	9626.14
478.895	9632.28
479.1	9658.9
479.304	9353.76
479.509	9208.35
479.713	9409.05
479.918	9224.73
480.122	8976.93
480.326	9017.89
480.531	9148.96
480.735	9015.84
480.94	9007.65
481.144	9165.34
481.348	8809
481.553	9048.61
481.757	8794.66
481.961	8737.32
482.166	9064.99
482.37	8972.83
482.574	8507.94
482.778	8763.94
482.983	8909.35
483.187	8823.33
483.391	9017.89
483.595	8675.88
483.8	8557.1
484.004	8708.65
484.208	8866.34
484.412	8634.92
484.616	8913.44
484.821	8772.13
485.025	8755.75
485.229	8806.95
485.433	8839.72
485.637	8792.61
485.841	8675.88
486.045	8796.71
486.249	8970.79
486.453	8583.72
486.657	8817.19
486.861	8895.01
487.065	8682.02
487.269	8675.88
487.473	8811.04
487.677	8694.31
487.881	8899.11
488.085	8768.04
488.289	8831.52
488.493	8700.45
488.697	8804.9
488.901	9038.37
489.105	8856.1
489.309	8954.4
489.512	8757.8
489.716	9028.13
489.92	9087.52
490.124	8964.64
490.328	8983.07
490.531	8833.57
490.735	9034.27
490.939	9169.44
491.143	8897.06
491.346	9062.94
491.55	9275.93
491.754	9544.22
491.958	9263.65
492.161	9454.11
492.365	9398.81
492.569	9212.45
492.772	9208.35
492.976	9441.82
493.18	9398.81
493.383	9632.28
493.587	9474.59
493.79	9822.74
493.994	9511.45
494.197	9724.44
494.401	9851.41
494.605	9654.81
494.808	10056.21
495.012	9931.28
495.215	10082.83
495.419	10250.77
495.622	10183.18
495.825	10156.56
496.029	10201.61
496.232	10500.62
496.436	10326.54
496.639	10791.43
496.843	10641.93
497.046	10723.85
497.249	10807.81
497.453	11076.1
497.656	11133.44
497.859	11131.39
498.063	11375.1
498.266	11733.5
498.469	11403.77
498.673	11665.91
498.876	11727.35
499.079	12073.46
499.282	11803.13
499.485	12300.78
499.689	12460.52
499.892	12429.8
500.095	12358.13
500.298	12648.94
500.501	12681.71
500.705	12984.8
500.908	13048.29
501.111	13236.7
501.314	13400.54
501.517	13519.32
501.72	13937.11
501.923	13722.07
502.126	14143.95
502.329	14311.89
502.532	14051.8
502.735	14318.03
502.938	14459.34
503.141	14813.64
503.344	15063.49
503.547	14817.74
503.75	15145.41
503.953	15428.03
504.156	15577.53
504.359	15706.56
504.562	15391.17
504.765	16034.23
504.968	16439.73
505.17	16320.95
505.373	16476.59
505.576	16800.17
505.779	16777.64
505.982	17088.93
506.185	17340.83
506.387	17668.51
506.59	17596.83
506.793	17670.56
506.996	17811.87
507.198	18659.73
507.401	18516.37
507.604	18483.6
507.807	18690.45
508.009	19151.24
508.212	19257.73
508.415	19155.33
508.617	19587.46
508.82	19753.34
509.022	19636.61
509.225	20177.27
509.428	20349.3
509.63	20484.47
509.833	20384.12
510.035	21037.42
510.238	21102.95
510.44	21326.18
510.643	21799.26
510.845	21692.77
511.048	21805.41
511.25	22294.87
511.453	22362.45
511.655	23038.28
511.858	22763.86
512.06	23214.41
512.262	23359.81
512.465	23425.35
512.667	23574.85
512.87	24095.03
513.072	24025.4
513.274	24803.63
513.477	24736.05
513.679	24801.58
513.881	25397.54
514.084	25583.91
514.286	25471.27
514.488	25600.29
514.69	26384.66
514.893	26538.26
515.095	26593.56
515.297	26855.7
515.499	27185.42
515.701	27207.95
515.904	27377.93
516.106	27980.03
516.308	27904.26
516.51	28334.33
516.712	28678.39
516.914	28791.03
517.116	29294.83
517.318	29290.73
517.52	29632.74
517.722	29786.34
517.925	30447.83
518.127	30484.7
518.329	30900.44
518.531	30583
518.733	31025.36
518.935	31285.45
519.136	31389.9
519.338	32043.2
519.54	32600.25
519.742	32399.55
519.944	32420.03
520.146	33501.36
520.348	33216.69
520.55	33435.82
520.752	33878.18
520.954	34580.64
521.155	33804.45
521.357	34646.17
521.559	34816.15
521.761	34910.36
521.963	35336.34
522.164	35588.24
522.366	35661.96
522.568	35860.62
522.77	36126.85
522.971	36585.6
523.173	36589.69
523.375	36776.06
523.576	36698.23
523.778	37269.62
523.98	37638.25
524.181	37914.73
524.383	37908.58
524.584	38441.06
524.786	38406.24
524.988	38414.43
525.189	38899.8
525.391	39123.03
525.592	39407.7
525.794	39694.41
525.995	39211.09
526.197	39680.08
526.398	39915.59
526.6	40388.67
526.801	40089.67
527.003	40638.53
527.204	40570.94
527.406	40839.23
527.607	40810.56
527.808	41291.83
528.01	40501.31
528.211	40853.56
528.412	41764.91
528.614	41756.72
528.815	41775.15
529.016	41902.12
529.218	41738.29
529.419	41979.95
529.62	42356.77
529.822	42170.41
530.023	42059.82
530.224	42360.87
530.425	42258.47
530.626	41981.99
530.828	41969.71
531.029	42924.06
531.23	42764.32
531.431	42303.53
531.632	42831.9
531.833	42913.82
532.035	42960.92
532.236	43028.51
532.437	43257.88
532.638	43077.66
532.839	43071.51
533.04	43315.22
533.241	42741.79
533.442	43851.79
533.643	43333.65
533.844	43393.04
534.045	43477.01
534.246	43288.6
534.447	43163.67
534.648	43130.9
534.849	43221.02
535.05	43302.93
535.251	43595.79
535.451	43141.14
535.652	43603.99
535.853	43309.08
536.054	43823.12
536.255	44386.31
536.456	43573.27
536.657	44376.07
536.857	43792.4
537.058	43298.84
537.259	43700.24
537.46	43837.45
537.66	43466.77
537.861	43747.34
538.062	43849.74
538.263	43814.93
538.463	43642.9
538.664	43814.93
538.865	43819.02
539.065	43857.93
539.266	43376.66
539.466	44058.63
539.667	42903.58
539.868	43837.45
540.068	43567.12
540.269	43522.07
540.469	43894.8
540.67	43620.37
540.87	43479.06
541.071	43577.36
541.271	43780.11
541.472	43907.08
541.672	43397.14
541.873	43421.72
542.073	42768.41
542.274	44480.52
542.474	43823.12
542.675	43479.06
542.875	43880.46
543.075	43583.51
543.276	43280.41
543.476	43825.17
543.676	43448.34
543.877	43831.31
544.077	43538.45
544.277	43683.86
544.478	43806.73
544.678	43827.21
544.878	43948.04
545.078	43438.1
545.279	43587.6
545.479	43472.92
545.679	43776.01
545.879	43266.07
546.079	43577.36
546.28	43589.65
546.48	43356.18
546.68	43624.47
546.88	43474.96
547.08	43692.05
547.28	43474.96
547.48	43382.8
547.68	43358.23
547.88	43261.97
548.081	43567.12
548.281	43487.25
548.481	43347.99
548.681	43687.95
548.881	43585.55
549.081	43663.38
549.28	43227.16
549.48	43470.87
549.68	43270.17
549.88	44253.19
550.08	43055.13
550.28	43319.32
550.48	43407.38
550.68	43544.59
550.88	43597.84
551.08	43167.77
551.279	43343.89
551.479	43196.44
551.679	43388.95
551.879	43391
552.079	43495.44
552.278	43155.48
552.478	43386.9
552.678	43356.18
552.878	43616.27
553.077	43304.98
553.277	42889.24
553.477	43317.27
553.676	42985.5
553.876	43323.41
554.076	43053.08
554.275	42594.34
554.475	42557.47
554.674	43485.2
554.874	43225.11
555.074	43188.25
555.273	43241.49
555.473	42874.91
555.672	42616.86
555.872	42932.25
556.071	42754.08
556.271	42840.09
556.47	42733.6
556.67	42405.92
556.869	42559.52
557.068	42768.41
557.268	42324
557.467	42442.79
557.667	42307.62
557.866	42479.65
558.065	42223.65
558.265	41771.05
558.464	41977.9
558.663	42618.91
558.863	41820.2
559.062	42756.13
559.261	41984.04
559.461	42162.22
559.66	41867.31
559.859	42143.78
560.058	41814.06
560.258	41869.36
560.457	41416.75
560.656	41922.6
560.855	41261.11
561.054	41531.44
561.253	41412.66
561.453	41482.29
561.652	41879.6
561.851	41549.87
562.05	41564.21
562.249	41060.41
562.448	41383.99
562.647	41103.42
562.846	41281.59
563.045	41238.58
563.244	40591.42
563.443	41287.73
563.642	40325.19
563.841	40808.51
564.04	40411.2
564.239	41158.71
564.438	40509.5
564.637	40472.64
564.836	40628.29
565.035	40235.08
565.234	40216.65
565.432	40319.04
565.631	39964.74
565.83	39940.17
566.029	39934.03
566.228	39577.68
566.427	39481.42
566.625	39211.09
566.824	39286.87
567.023	39430.22
567.222	39018.58
567.42	39284.82
567.619	39039.06
567.818	39155.8
568.016	39145.56
568.215	39209.04
568.414	39211.09
568.612	39028.82
568.811	38826.07
569.01	38791.26
569.208	38494.3
569.407	38426.72
569.605	37959.78
569.804	38451.3
570.002	38097
570.201	38414.43
570.4	37922.92
570.598	37597.29
570.797	37699.69
570.995	37924.97
571.193	37048.44
571.392	37511.28
571.59	37148.79
571.789	37683.31
571.987	37173.36
572.186	37478.51
572.384	37099.64
572.582	37242.99
572.781	36993.14
572.979	36520.06
573.177	36757.63
573.376	37097.59
573.574	36362.37
573.772	36886.65
573.971	36534.4
574.169	36329.6
574.367	36055.17
574.565	36427.9
574.763	36108.42
574.962	35866.76
575.16	35690.63
575.358	36141.19
575.556	35358.86
575.754	35821.7
575.952	35115.15
576.151	35795.08
576.349	35319.95
576.547	35463.31
576.745	35129.49
576.943	35278.99
577.141	35018.9
577.339	34680.99
577.537	34713.75
577.735	34746.52
577.933	34560.16
578.131	34936.98
578.329	34418.85
578.527	34431.13
578.725	34611.35
578.923	34320.54
579.121	34099.36
579.319	34275.49
579.516	34195.62
579.714	34283.68
579.912	33902.76
580.11	33845.41
580.308	33769.64
580.506	33605.8
580.704	33347.76
580.901	33237.17
581.099	33638.57
581.297	33106.1
581.495	33136.82
581.692	33323.18
581.89	32594.11
582.088	33095.86
582.285	32809.14
582.483	33073.33
582.681	32925.88
582.878	32612.54
583.076	32405.69
583.274	32852.15
583.471	32426.17
583.669	32561.34
583.866	31738.05
584.064	32497.85
584.262	31797.45
584.459	32338.11
584.657	32129.22
584.854	31977.67
585.052	31205.58
585.249	32194.75
585.447	31871.17
585.644	31326.41
585.841	31523.02
586.039	31807.69
586.236	31019.22
586.434	31111.38
586.631	31056.08
586.828	31062.22
587.026	31129.81
587.223	31033.55
587.42	30705.88
587.618	30867.67
587.815	30542.04
588.012	30456.03
588.21	30347.48
588.407	30806.23
588.604	29831.4
588.801	30034.14
588.999	29966.56
589.196	30040.29
589.393	30128.35
589.59	30132.45
589.787	29518.06
589.984	29604.07
590.182	29319.4
590.379	29393.13
590.576	29231.34
590.773	29384.94
590.97	29251.82
591.167	29366.51
591.364	28838.13
591.561	28997.87
591.758	28793.08
591.955	28690.68
592.152	29094.13
592.349	28592.37
592.546	28793.08
592.743	28575.99
592.94	28072.19
593.137	28459.26
593.334	28604.66
593.531	28039.42
593.727	28086.53
593.924	28002.56
594.121	27885.83
594.318	28135.68
594.515	27955.46
594.712	28031.23
594.908	27889.92
595.105	27629.83
595.302	27560.2
595.499	27492.62
595.696	27269.39
595.892	26837.27
596.089	27627.78
596.286	27226.38
596.482	27015.44
596.679	27056.4
596.876	27093.26
597.072	27175.18
597.269	26974.48
597.466	26638.61
597.662	26532.12
597.859	26611.99
598.055	26388.76
598.252	26636.56
598.448	26462.49
598.645	25997.6
598.841	26067.23
599.038	26079.52
599.234	26130.72
599.431	25921.82
599.627	25884.96
599.824	25954.59
600.02	25588
600.217	25547.04
600.413	25657.64
600.609	25188.65
600.806	25536.8
601.002	25381.16
601.198	25278.76
601.395	24918.32
601.591	25116.97
601.787	25196.84
601.984	24826.16
602.18	25368.87
602.376	24717.62
602.572	24795.44
602.769	24928.56
602.965	24359.22
603.161	24912.17
603.357	24668.47
603.553	24774.96
603.75	24525.11
603.946	23984.44
604.142	24152.38
604.338	23920.96
604.534	24355.13
604.73	23925.05
604.926	24062.27
605.122	24076.6
605.318	23904.57
605.514	23509.32
605.71	23703.87
605.906	23515.46
606.102	23685.44
606.298	23435.59
606.494	23384.39
606.69	23480.64
606.886	23195.98
607.082	23095.63
607.278	23386.44
607.474	23112.01
607.67	23132.49
607.866	22575.44
608.062	23333.19
608.257	22784.33
608.453	22516.05
608.649	22905.17
608.845	22657.36
609.041	22671.7
609.236	22784.33
609.432	22714.7
609.628	22526.29
609.824	22395.22
610.019	22409.56
610.215	22456.66
610.411	22210.9
610.606	22231.38
610.802	22380.89
610.998	22051.16
611.193	22106.46
611.389	22104.41
611.584	22159.7
611.78	21985.63
611.976	22151.51
612.171	21901.66
612.367	22100.31
612.562	21993.82
612.758	21305.7
612.953	21627.23
613.149	21987.68
613.344	21682.53
613.539	22065.5
613.735	21813.6
613.93	21647.71
614.126	21334.37
614.321	21713.25
614.517	21631.33
614.712	21672.29
614.907	21326.18
615.103	21565.79
615.298	21397.86
615.493	21549.41
615.688	21090.66
615.884	21590.37
616.079	21070.19
616.274	21322.09
616.47	21088.62
616.665	20959.59
616.86	20883.82
617.055	20900.2
617.25	20951.4
617.445	21035.37
617.641	20439.41
617.836	20842.86
618.031	20414.84
618.226	20908.4
618.421	20304.24
618.616	20883.82
618.811	20547.95
619.006	20920.68
619.201	20078.97
619.396	20406.64
619.591	19982.71
619.786	20107.64
619.981	19978.62
620.176	20255.09
620.371	19954.04
620.566	19825.02
620.761	19540.35
620.956	19880.32
621.151	19691.9
621.346	19773.82
621.541	19235.21
621.735	19560.83
621.93	19208.58
622.125	19235.21
622.32	18921.87
622.515	19399.04
622.709	18680.21
622.904	18827.66
623.099	18676.11
623.294	18655.63
623.488	18325.91
623.683	18309.52
623.878	18219.41
624.072	18432.4
624.267	18352.53
624.462	18086.29
624.656	18014.62
624.851	17910.17
625.046	17748.38
625.24	17678.75
625.435	17562.01
625.629	17678.75
625.824	17435.04
626.018	17463.71
626.213	16861.61
626.407	16994.73
626.602	16873.9
626.796	17246.63
626.991	17045.93
627.185	16966.06
627.38	16798.12
627.574	16650.67
627.768	16306.61
627.963	16296.37
628.157	16204.21
628.352	16671.15
628.546	15956.41
628.74	16286.13
628.935	16001.46
629.129	16144.82
629.323	15833.53
629.517	15962.55
629.712	15659.45
629.906	15745.47
630.1	15286.72
630.294	15366.59
630.489	15512
630.683	15665.6
630.877	15167.94
631.071	14920.13
631.265	15194.56
631.459	14997.96
631.653	15102.4
631.848	14852.55
632.042	14674.38
632.236	14653.9
632.43	14721.48
632.624	14602.7
632.818	14522.83
633.012	14371.28
633.206	14289.36
633.4	14303.7
633.594	14156.24
633.788	14178.77
633.982	14150.1
634.176	14002.64
634.369	13677.02
634.563	13834.71
634.757	13853.14
634.951	13832.66
635.145	13523.42
635.339	13517.28
635.533	13504.99
635.726	13777.37
635.92	13064.68
636.114	13427.17
636.308	12947.94
636.501	13005.28
636.695	13062.63
636.889	13171.17
637.083	12771.82
637.276	13054.44
637.47	12724.71
637.664	12595.69
637.857	12810.73
638.051	12712.42
638.244	12360.17
638.438	12507.63
638.632	12308.97
638.825	12319.21
639.019	12227.06
639.212	12462.57
639.406	11844.09
639.599	12128.75
639.793	12196.34
639.986	11866.61
640.18	12220.91
640.373	11946.48
640.567	11680.25
640.76	11497.98
640.954	11733.5
641.147	11694.58
641.34	11545.08
641.534	11616.76
641.727	11784.69
641.92	11446.78
642.114	11487.74
642.307	11442.68
642.5	11467.26
642.694	11192.83
642.887	11055.62
643.08	11106.82
643.273	11180.54
643.467	10750.47
643.66	10865.16
643.853	10607.11
644.046	10672.65
644.239	10678.79
644.432	10736.13
644.626	10695.18
644.819	10500.62
645.012	10494.47
645.205	10592.78
645.398	10531.34
645.591	10414.6
645.784	10261.01
645.977	10115.6
646.17	10295.82
646.363	10138.13
646.556	9990.67
646.749	9929.24
646.942	9855.51
647.135	10054.16
647.328	9779.73
647.521	9820.69
647.714	9595.42
647.907	9814.55
648.099	9718.29
648.292	9589.27
648.485	9755.16
648.678	9460.25
648.871	9296.41
649.064	9419.29
649.256	9327.13
649.449	9263.65
649.642	9210.4
649.835	9114.14
650.027	9155.1
650.22	8997.41
650.413	8985.12
650.605	9101.86
650.798	9099.81
650.991	8970.79
651.183	8940.07
651.376	8645.16
651.568	8878.63
651.761	8811.04
651.954	8706.6
652.146	8559.14
652.339	8747.56
652.531	8716.84
652.724	8542.76
652.916	8290.86
653.109	8583.72
653.301	8542.76
653.494	8372.78
653.686	8254
653.879	8444.46
654.071	8159.79
654.263	8202.8
654.456	8190.51
654.648	8243.76
654.84	8047.15
655.033	8167.98
655.225	7916.08
655.417	7932.47
655.61	7834.16
655.802	8116.78
655.994	8022.58
656.186	7916.08
656.379	7799.35
656.571	7961.14
656.763	7545.4
656.955	7770.68
657.148	7692.85
657.34	7551.54
657.532	7660.09
657.724	7320.12
657.916	7592.5
658.108	7467.58
658.3	7418.43
658.492	7424.57
658.684	7174.72
658.876	7467.58
659.068	7230.01
659.26	7293.5
659.452	7285.31
659.644	7348.79
659.836	7031.36
660.028	7268.92
660.22	6853.19
660.412	7098.94
660.604	6937.15
660.796	6967.87
660.988	6951.49
661.18	6732.36
661.372	6783.56
661.563	6855.23
661.755	6763.08
661.947	6703.68
662.139	6709.83
662.331	6623.81
662.522	6804.03
662.714	6431.3
662.906	6672.96
663.097	6435.4
663.289	6326.86
663.481	6359.63
663.673	6425.16
663.864	6382.15
664.056	6462.02
664.247	6376.01
664.439	6281.8
664.631	6451.78
664.822	6183.5
665.014	6115.92
665.205	6144.59
665.397	6240.84
665.588	6060.62
665.78	6068.81
665.971	6068.81
666.163	6130.25
666.354	6134.35
666.546	5945.94
666.737	5886.54
666.929	6029.9
667.12	5911.12
667.311	5925.46
667.503	5769.81
667.694	5657.17
667.885	5728.85
668.077	5823.06
668.268	5931.6
668.459	5745.23
668.651	5841.49
668.842	5573.21
669.033	5800.53
669.224	5646.93
669.416	5653.08
669.607	5458.52
669.798	5675.6
669.989	5499.48
670.18	5728.85
670.371	5415.51
670.563	5513.81
670.754	5378.65
670.945	5286.49
671.136	5509.72
671.327	5313.11
671.518	5403.22
671.709	5360.22
671.9	5341.79
672.091	5210.72
672.282	5290.59
672.473	5300.83
672.664	5448.28
672.855	5288.54
673.046	5118.56
673.237	5145.18
673.428	5044.83
673.619	5143.13
673.809	5136.99
674	5038.69
674.191	5055.07
674.382	5163.61
674.573	5159.52
674.764	5014.11
674.954	4946.53
675.145	4917.86
675.336	4858.46
675.527	4874.85
675.717	4967.01
675.908	4885.09
676.099	4842.08
676.289	4932.19
676.48	4876.9
676.671	4801.12
676.861	4764.26
677.052	4794.98
677.243	4823.65
677.433	4754.02
677.624	4854.37
677.814	4782.69
678.005	4723.3
678.195	4799.07
678.386	4545.13
678.576	4690.53
678.767	4762.21
678.957	4698.72
679.148	4606.56
679.338	4651.62
679.529	4579.94
679.719	4706.91
679.909	4633.19
680.1	4592.23
680.29	4727.39
680.481	4590.18
680.671	4635.24
680.861	4381.29
681.052	4391.53
681.242	4534.89
681.432	4416.1
681.622	4387.43
681.813	4485.73
682.003	4526.69
682.193	4473.45
682.383	4512.36
682.573	4436.58
682.764	4481.64
682.954	4479.59
683.144	4373.1
683.334	4465.25
683.524	4239.98
683.714	4250.22
683.904	4446.82
684.094	4399.72
684.284	4217.45
684.474	4364.9
684.664	4266.6
684.854	4207.21
685.044	4237.93
685.234	4248.17
685.424	4203.11
685.614	4248.17
685.804	4151.92
685.994	4119.15
686.184	4387.43
686.374	4139.63
686.564	4203.11
686.753	4188.78
686.943	4110.96
687.133	4076.14
687.323	4094.57
687.513	4180.59
687.702	4088.43
687.892	3910.25
688.082	3945.07
688.272	4100.72
688.461	3867.25
688.651	4029.04
688.841	3988.08
689.03	4002.41
689.22	3824.24
689.41	3932.78
689.599	3863.15
689.789	3932.78
689.979	3814
690.168	3951.21
690.358	3924.59
690.547	3777.14
690.737	3799.66
690.926	3820.14
691.116	3707.51
691.305	3803.76
691.495	3684.98
691.684	3727.99
691.874	3799.66
692.063	3791.47
692.252	3766.9
692.442	3730.03
692.631	3512.95
692.82	3764.85
693.01	3598.96
693.199	3693.17
693.388	3578.48
693.578	3697.27
693.767	3598.96
693.956	3678.83
694.146	3494.52
694.335	3424.89
694.524	3592.82
694.713	3582.58
694.902	3504.76
695.092	3560.05
695.281	3537.52
695.47	3652.21
695.659	3596.92
695.848	3361.4
696.037	3455.61
696.226	3545.72
696.415	3545.72
696.604	3519.09
696.793	3406.45
696.982	3517.04
697.171	3398.26
697.36	3467.89
697.549	3414.65
697.738	3506.81
697.927	3537.52
698.116	3603.06
698.305	3342.97
698.494	3457.65
698.683	3390.07
698.872	3402.36
699.061	3435.13
699.25	3418.74
699.438	3418.74
699.627	3449.46
699.816	3453.56
700.005	3299.96
700.193	3365.5
700.382	3433.08
700.571	3410.55
700.76	3465.85
700.948	3400.31
701.137	3302.01
701.326	3236.47
701.514	3363.45
701.703	3410.55
701.892	3281.53
702.08	3412.6
702.269	3392.12
702.457	3252.86
702.646	3431.03
702.834	3318.39
703.023	3359.35
703.212	3439.22
703.4	3312.25
703.589	3111.55
703.777	3404.41
703.965	3193.47
704.154	3355.26
704.342	3187.32
704.531	3371.64
704.719	3172.99
704.907	3267.19
705.096	3123.83
705.284	3256.95
705.472	3197.56
705.661	3187.32
705.849	3234.43
706.037	3279.48
706.226	3218.04
706.414	3377.78
706.602	3324.54
706.79	3181.18
706.979	3218.04
707.167	3226.23
707.355	3181.18
707.543	3316.34
707.731	3320.44
707.919	3203.71
708.107	3160.7
708.296	3195.51
708.484	3099.26
708.672	3283.58
708.86	3119.74
709.048	3177.08
709.236	3181.18
709.424	3289.72
709.612	3240.57
709.8	3129.98
709.988	3082.88
710.176	3158.65
710.364	3148.41
710.551	3041.92
710.739	3105.4
710.927	3240.57
711.115	3115.64
711.303	3275.38
711.491	3129.98
711.679	3236.47
711.866	3070.59
712.054	3068.54
712.242	3119.74
712.43	3160.7
712.617	3185.27
712.805	3099.26
712.993	3105.4
713.181	3082.88
713.368	3123.83
713.556	3031.68
713.744	3070.59
713.931	3107.45
714.119	3060.35
714.306	3179.13
714.494	3033.72
714.682	3050.11
714.869	3107.45
715.057	2957.95
715.244	3013.24
715.432	3052.16
715.619	3103.36
715.807	2970.24
715.994	3064.44
716.182	3125.88
716.369	3224.19
716.556	2910.85
716.744	3078.78
716.931	2982.53
717.119	3027.58
717.306	3080.83
717.493	3000.96
717.681	2966.14
717.868	2947.71
718.055	2898.56
718.242	3078.78
718.43	2919.04
718.617	2988.67
718.804	2970.24
718.991	2943.61
719.179	2966.14
719.366	3003
719.553	2830.98
719.74	2923.13
719.927	3003
720.114	2919.04
720.301	3027.58
720.488	2957.95
720.676	2833.02
720.863	2884.22
721.05	2968.19
721.237	2998.91
721.424	2923.13
721.611	2980.48
721.798	2976.38
721.985	2955.9
722.172	2957.95
722.358	2871.93
722.545	2945.66
722.732	2845.31
722.919	2867.84
723.106	2794.11
723.293	2941.57
723.48	2839.17
723.667	2894.46
723.853	2835.07
724.04	2914.94
724.227	2828.93
724.414	2826.88
724.6	2830.98
724.787	2859.65
724.974	2753.15
725.161	2818.69
725.347	2812.54
725.534	2855.55
725.72	2830.98
725.907	2867.84
726.094	2935.42
726.28	2843.26
726.467	2787.97
726.653	2957.95
726.84	2796.16
727.027	2923.13
727.213	2728.58
727.4	2853.5
727.586	2710.15
727.773	2792.06
727.959	2761.34
728.145	2753.15
728.332	2708.1
728.518	2742.91
728.705	2867.84
728.891	2818.69
729.077	2904.7
729.264	2712.19
729.45	2759.3
729.636	2960
729.823	2792.06
730.009	2656.9
730.195	2794.11
730.382	2734.72
730.568	2689.67
730.754	2714.24
730.94	2783.87
731.126	2673.28
731.313	2622.08
731.499	2755.2
731.685	2755.2
731.871	2740.86
732.057	2769.54
732.243	2673.28
732.429	2718.34
732.615	2695.81
732.801	2687.62
732.987	2749.06
733.173	2783.87
733.359	2749.06
733.545	2650.75
733.731	2710.15
733.917	2710.15
734.103	2665.09
734.289	2595.46
734.475	2697.86
734.661	2701.95
734.847	2660.99
735.033	2620.03
735.219	2624.13
735.404	2671.23
735.59	2650.75
735.776	2607.75
735.962	2521.73
736.148	2648.71
736.333	2708.1
736.519	2552.45
736.705	2634.37
736.89	2495.11
737.076	2607.75
737.262	2599.55
737.447	2652.8
737.633	2609.79
737.819	2595.46
738.004	2587.27
738.19	2458.25
738.375	2597.51
738.561	2646.66
738.747	2560.64
738.932	2585.22
739.118	2626.18
739.303	2665.09
739.489	2519.68
739.674	2630.27
739.859	2566.79
740.045	2570.88
740.23	2462.34
740.416	2493.06
740.601	2427.53
740.786	2431.62
740.972	2607.75
741.157	2525.83
741.342	2443.91
741.528	2435.72
741.713	2405
741.898	2339.46
742.084	2448.01
742.269	2560.64
742.454	2435.72
742.639	2394.76
742.824	2364.04
743.01	2361.99
743.195	2388.61
743.38	2394.76
743.565	2353.8
743.75	2302.6
743.935	2325.13
744.12	2439.81
744.305	2423.43
744.49	2429.57
744.675	2247.3
744.86	2323.08
745.045	2210.44
745.23	2228.87
745.415	2271.88
745.6	2245.26
745.785	2273.93
745.97	2167.43
746.155	2312.84
746.34	2288.26
746.525	2114.19
746.71	2218.63
746.895	2161.29
747.079	2069.13
747.264	2093.71
747.449	2132.62
747.634	2194.06
747.819	2095.75
748.003	2122.38
748.188	2224.78
748.373	2001.55
748.557	2044.56
748.742	1956.49
748.927	1991.31
749.111	2128.52
749.296	2077.32
749.481	1991.31
749.665	1993.36
749.85	1925.77
750.034	2093.71
750.219	1899.15
750.404	1895.05
750.588	1991.31
750.773	1901.2
750.957	1843.85
751.141	2003.6
751.326	1929.87
751.51	1815.18
751.695	1823.37
751.879	1874.57
752.064	1837.71
752.248	1751.7
752.432	1862.29
752.617	1716.88
752.801	1778.32
752.985	1612.43
753.17	1661.59
753.354	1718.93
753.538	1763.98
753.722	1761.94
753.907	1784.46
754.091	1665.68
754.275	1659.54
754.459	1704.59
754.643	1575.57
754.828	1557.14
755.012	1589.91
755.196	1569.43
755.38	1639.06
755.564	1534.61
755.748	1612.43
755.932	1645.2
756.116	1548.95
756.3	1550.99
756.484	1546.9
756.668	1548.95
756.852	1526.42
757.036	1567.38
757.22	1440.4
757.404	1469.08
757.588	1522.32
757.772	1485.46
757.956	1540.76
758.14	1411.73
758.323	1483.41
758.507	1383.06
758.691	1383.06
758.875	1424.02
759.059	1413.78
759.242	1430.16
759.426	1370.77
759.61	1258.14
759.794	1428.12
759.977	1366.68
760.161	1403.54
760.345	1403.54
760.528	1288.85
760.712	1350.29
760.895	1301.14
761.079	1276.57
761.263	1305.24
761.446	1329.81
761.63	1299.09
761.813	1311.38
761.997	1243.8
762.18	1200.79
762.364	1233.56
762.547	1329.81
762.731	1194.65
762.914	1217.18
763.098	1202.84
763.281	1262.23
763.464	1237.66
763.648	1264.28
763.831	1221.27
764.015	1290.9
764.198	1256.09
764.381	1153.69
764.564	1206.94
764.748	1178.26
764.931	1211.03
765.114	1221.27
765.297	1102.49
765.481	1168.02
765.664	1125.02
765.847	1237.66
766.03	1145.5
766.213	1100.44
766.397	1178.26
766.58	1125.02
766.763	1243.8
766.946	1165.98
767.129	1137.31
767.312	1012.38
767.495	1049.24
767.678	1094.3
767.861	1122.97
768.044	1137.31
768.227	1165.98
768.41	1131.16
768.593	1172.12
768.776	1034.91
768.959	1073.82
769.142	1051.29
769.324	1057.43
769.507	1112.73
769.69	1000.09
769.873	1090.2
770.056	1051.29
770.239	1010.33
770.421	1051.29
770.604	1100.44
770.787	1026.71
770.97	1041.05
771.152	979.61
771.335	1036.95
771.518	907.93
771.7	1008.28
771.883	989.85
772.066	916.12
772.248	1010.33
772.431	1012.38
772.613	996
772.796	934.56
772.978	932.51
773.161	1004.19
773.343	959.13
773.526	916.12
773.708	987.8
773.891	895.64
774.073	912.03
774.256	864.93
774.438	897.69
774.621	811.68
774.803	977.56
774.985	918.17
775.168	932.51
775.35	936.6
775.532	948.89
775.715	817.82
775.897	828.06
776.079	772.77
776.261	912.03
776.444	866.97
776.626	721.57
776.808	809.63
776.99	809.63
777.173	821.92
777.355	768.67
777.537	778.91
777.719	803.49
777.901	764.57
778.083	789.15
778.265	830.11
778.447	746.14
778.629	727.71
778.811	772.77
778.993	789.15
779.175	723.62
779.357	770.72
779.539	797.34
779.721	793.25
779.903	647.84
780.085	647.84
780.267	750.24
780.449	719.52
780.631	750.24
780.812	729.76
780.994	688.8
781.176	623.27
781.358	641.7
781.54	615.07
781.721	606.88
781.903	670.37
782.085	692.9
782.267	662.18
782.448	641.7
782.63	639.65
782.812	688.8
782.993	627.36
783.175	588.45
783.357	621.22
783.538	666.27
783.72	584.35
783.901	631.46
784.083	684.7
784.264	586.4
784.446	590.5
784.627	527.01
784.809	570.02
784.99	561.83
785.172	567.97
785.353	596.64
785.535	598.69
785.716	533.15
785.897	547.49
786.079	524.96
786.26	541.35
786.441	457.38
786.623	545.44
786.804	600.74
786.985	602.79
787.167	512.67
787.348	494.24
787.529	467.62
787.71	514.72
787.891	514.72
788.073	459.43
788.254	457.38
788.435	455.33
788.616	498.34
788.797	400.04
788.978	533.15
789.159	475.81
789.34	553.63
789.522	473.76
789.703	459.43
789.884	486.05
790.065	441
790.246	514.72
790.427	373.41
790.607	481.96
790.788	473.76
790.969	441
791.15	473.76
791.331	404.13
791.512	322.21
791.693	397.99
791.874	408.23
792.054	438.95
792.235	469.67
792.416	395.94
792.597	408.23
792.778	350.89
792.958	404.13
793.139	400.04
793.32	473.76
793.5	391.84
793.681	379.56
793.862	432.8
794.042	402.08
794.223	328.36
794.404	457.38
794.584	395.94
794.765	354.98
794.945	330.41
795.126	389.8
795.306	430.76
795.487	359.08
795.667	400.04
795.848	365.22
796.028	471.72
796.209	314.02
796.389	350.89
796.57	359.08
796.75	346.79
796.93	467.62
797.111	326.31
797.291	373.41
797.471	348.84
797.652	340.65
797.832	391.84
798.012	281.25
798.192	277.16
798.373	326.31
798.553	311.97
798.733	344.74
798.913	271.01
799.093	340.65
799.274	324.26
799.454	334.5
799.634	281.25
799.814	336.55
799.994	307.88
800.174	404.13
800.354	326.31
800.534	387.75
800.714	326.31
800.894	246.44
801.074	256.68
801.254	320.17
801.434	248.49
801.614	318.12
801.794	195.24
801.974	625.31
802.154	279.21
802.334	295.59
802.514	283.3
802.693	287.4
802.873	299.69
803.053	293.54
803.233	309.93
803.413	244.39
803.592	305.83
803.772	311.97
803.952	334.5
804.131	244.39
804.311	277.16
804.491	285.35
804.67	328.36
804.85	238.25
805.03	266.92
805.209	301.73
805.389	248.49
805.568	236.2
805.748	268.97
805.928	266.92
806.107	193.19
806.287	260.77
806.466	203.43
806.646	238.25
806.825	240.29
807.004	211.62
807.184	297.64
807.363	299.69
807.543	191.14
807.722	234.15
807.901	316.07
808.081	318.12
808.26	201.38
808.439	273.06
808.619	199.34
808.798	211.62
808.977	234.15
809.156	262.82
809.336	207.53
809.515	193.19
809.694	146.09
809.873	256.68
810.052	256.68
810.231	264.87
810.411	201.38
810.59	258.73
810.769	170.66
810.948	238.25
811.127	191.14
811.306	252.58
811.485	172.71
811.664	211.62
811.843	228.01
812.022	172.71
812.201	215.72
812.38	236.2
812.559	162.47
812.737	201.38
812.916	193.19
813.095	129.7
813.274	152.23
813.453	158.38
813.632	211.62
813.811	197.29
813.989	178.86
814.168	162.47
814.347	268.97
814.526	254.63
814.704	172.71
814.883	197.29
815.062	160.42
815.24	154.28
815.419	197.29
815.598	238.25
815.776	193.19
815.955	180.9
816.133	131.75
816.312	117.42
816.49	180.9
816.669	193.19
816.847	170.66
817.026	135.85
817.204	150.18
817.383	182.95
817.561	187.05
817.74	144.04
817.918	146.09
818.097	195.24
818.275	232.1
818.453	193.19
818.632	207.53
818.81	201.38
818.988	215.72
819.167	180.9
819.345	166.57
819.523	201.38
819.701	180.9
819.879	201.38
820.058	150.18
820.236	96.94
820.414	162.47
820.592	123.56
820.77	203.43
820.948	225.96
821.127	115.37
821.305	238.25
821.483	146.09
821.661	248.49
821.839	189.1
822.017	103.08
822.195	148.14
822.373	191.14
822.551	119.46
822.729	154.28
822.907	182.95
823.085	127.66
823.262	125.61
823.44	127.66
823.618	68.27
823.796	180.9
823.974	185
824.152	146.09
824.329	144.04
824.507	178.86
824.685	162.47
824.863	154.28
825.04	137.9
825.218	195.24
825.396	187.05
825.574	150.18
825.751	154.28
825.929	105.13
826.107	129.7
826.284	144.04
826.462	137.9
826.639	166.57
826.817	160.42
826.994	146.09
827.172	96.94
827.349	201.38
827.527	92.84
827.704	150.18
827.882	146.09
828.059	121.51
828.237	94.89
828.414	148.14
828.591	150.18
828.769	162.47
828.946	82.6
829.124	146.09
829.301	146.09
829.478	66.22
829.655	133.8
829.833	158.38
830.01	109.22
830.187	133.8
830.364	98.99
830.542	121.51
830.719	146.09
830.896	129.7
831.073	101.03
831.25	80.55
831.427	133.8
831.604	109.22
831.782	133.8
831.959	133.8
832.136	84.65
832.313	180.9
832.49	98.99
832.667	131.75
832.844	113.32
833.021	92.84
833.198	162.47
833.374	117.42
833.551	119.46
833.728	125.61
833.905	234.15
834.082	187.05
834.259	64.17
834.436	139.94
834.612	117.42
834.789	121.51
834.966	117.42
835.143	19.11
835.319	174.76
835.496	131.75
835.673	82.6
835.85	127.66
836.026	96.94
836.203	101.03
836.38	84.65
836.556	115.37
836.733	154.28
836.909	160.42
837.086	10.92
837.262	72.36
837.439	90.79
837.616	98.99
837.792	98.99
837.968	43.69
838.145	60.07
838.321	96.94
838.498	123.56
838.674	129.7
838.851	189.1
839.027	43.69
839.203	133.8
839.38	137.9
839.556	62.12
839.732	74.41
839.909	35.5
840.085	92.84
840.261	117.42
840.437	129.7
840.614	80.55
840.79	92.84
840.966	39.59
841.142	176.81
841.318	80.55
841.494	70.31
841.671	98.99
841.847	86.7
842.023	103.08
842.199	70.31
842.375	84.65
842.551	98.99
842.727	131.75
842.903	84.65
843.079	33.45
843.255	148.14
843.431	74.41
843.607	6.83
843.783	55.98
843.959	113.32
844.134	117.42
844.31	90.79
844.486	53.93
844.662	105.13
844.838	107.18
845.013	107.18
845.189	119.46
845.365	47.79
845.541	23.21
845.716	47.79
845.892	64.17
846.068	92.84
846.244	4.78
846.419	101.03
846.595	53.93
846.77	66.22
846.946	60.07
847.122	90.79
847.297	82.6
847.473	105.13
847.648	76.46
847.824	53.93
847.999	37.55
848.175	35.5
848.35	53.93
848.526	107.18
848.701	109.22
848.876	88.75
849.052	90.79
849.227	31.4
849.403	70.31
849.578	35.5
849.753	47.79
849.929	31.4
850.104	0.68
850.279	72.36
850.454	23.21
850.63	84.65
850.805	43.69
850.98	0.68
851.155	109.22
851.33	64.17
851.505	19.11
851.681	103.08
851.856	109.22
852.031	25.26
852.206	35.5
852.381	64.17
852.556	41.64
852.731	88.75
852.906	96.94
853.081	109.22
853.256	39.59
853.431	96.94
853.606	72.36
853.781	98.99
853.956	94.89
854.131	80.55
854.305	49.83
854.48	70.31
854.655	-30.04
854.83	96.94
855.005	68.27
855.18	133.8
855.354	35.5
855.529	123.56
855.704	103.08
855.879	68.27
856.053	6.83
856.228	64.17
856.403	47.79
856.577	-17.75
856.752	60.07
856.926	39.59
857.101	47.79
857.276	68.27
857.45	25.26
857.625	41.64
857.799	-5.46
857.974	82.6
858.148	8.87
858.323	29.35
858.497	80.55
858.672	27.31
858.846	39.59
859.02	74.41
859.195	15.02
859.369	47.79
859.543	80.55
859.718	101.03
859.892	43.69
860.066	123.56
860.241	84.65
860.415	66.22
860.589	154.28
860.763	80.55
860.938	-1.37
861.112	45.74
861.286	43.69
861.46	68.27
861.634	86.7
861.808	-11.61
861.982	68.27
862.157	25.26
862.331	31.4
862.505	51.88
862.679	47.79
862.853	33.45
863.027	10.92
863.201	60.07
863.375	51.88
863.549	19.11
863.722	53.93
863.896	123.56
864.07	-30.04
864.244	47.79
864.418	66.22
864.592	66.22
864.766	86.7
864.939	45.74
865.113	105.13
865.287	12.97
865.461	15.02
865.634	90.79
865.808	27.31
865.982	31.4
866.156	68.27
866.329	-19.8
866.503	43.69
866.676	94.89
866.85	15.02
867.024	19.11
867.197	15.02
867.371	109.22
867.544	72.36
867.718	51.88
867.891	90.79
868.065	88.75
868.238	17.07
868.412	121.51
868.585	-11.61
868.759	0.68
868.932	51.88
869.105	45.74
869.279	92.84
869.452	74.41
869.625	45.74
869.799	43.69
869.972	94.89
870.145	72.36
870.319	84.65
870.492	27.31
870.665	35.5
870.838	55.98
871.011	4.78
871.185	64.17
871.358	2.73
871.531	-27.99
871.704	17.07
871.877	-13.65
872.05	43.69
872.223	27.31
872.396	10.92
872.569	37.55
872.742	39.59
872.915	31.4
873.088	64.17
873.261	19.11
873.434	37.55
873.607	-5.46
873.78	82.6
873.953	29.35
874.126	39.59
874.299	53.93
874.471	66.22
874.644	43.69
874.817	6.83
874.99	70.31
875.163	27.31
875.335	-40.28
875.508	-48.47
875.681	76.46
875.853	64.17
876.026	78.51
876.199	111.27
876.371	15.02
876.544	64.17
876.717	2.73
876.889	-30.04
877.062	41.64
877.234	12.97
877.407	55.98
877.579	-15.7
877.752	-54.61
877.924	27.31
878.097	10.92
878.269	78.51
878.442	76.46
878.614	35.5
878.786	105.13
878.959	51.88
879.131	6.83
879.303	-7.51
879.476	6.83
879.648	4.78
879.82	80.55
879.993	45.74
880.165	8.87
880.337	21.16
880.509	6.83
880.681	37.55
880.854	45.74
881.026	60.07
881.198	55.98
881.37	25.26
881.542	41.64
881.714	27.31
881.886	27.31
882.058	-1.37
882.23	47.79
882.402	-23.89
882.574	-11.61
882.746	15.02
882.918	113.32
883.09	74.41
883.262	-17.75
883.434	8.87
883.606	39.59
883.778	29.35
883.95	-36.18
884.122	23.21
884.293	-32.08
884.465	19.11
884.637	33.45
884.809	21.16
884.98	62.12
885.152	33.45
885.324	82.6
885.496	8.87
885.667	12.97
885.839	-15.7
886.011	70.31
886.182	-15.7
886.354	41.64
886.525	60.07
886.697	82.6
886.869	2.73
887.04	-5.46
887.212	76.46
887.383	23.21
887.555	10.92
887.726	15.02
887.897	-30.04
888.069	37.55
888.24	82.6
888.412	15.02
888.583	17.07
888.754	27.31
888.926	43.69
889.097	55.98
889.268	31.4
889.44	33.45
889.611	19.11
889.782	-62.8
889.953	25.26
890.125	109.22
890.296	-19.8
890.467	-36.18
890.638	33.45
890.809	53.93
890.98	43.69
891.151	29.35
891.323	103.08
891.494	-42.32
891.665	-36.18
891.836	66.22
892.007	-27.99
892.178	23.21
892.349	-1.37
892.52	-9.56
892.691	45.74
892.862	76.46
893.032	-79.19
893.203	45.74
893.374	78.51
893.545	80.55
893.716	-5.46
893.887	29.35
894.057	68.27
894.228	15.02
894.399	6.83
894.57	68.27
894.74	17.07
894.911	47.79
895.082	19.11
895.253	4.78
895.423	58.03
895.594	55.98
895.764	-21.85
895.935	10.92
896.106	35.5
896.276	-40.28
896.447	-25.94
896.617	-27.99
896.788	-48.47
896.958	76.46
897.129	-38.23
897.299	62.12
897.47	6.83
897.64	19.11
897.81	74.41
897.981	96.94
898.151	39.59
898.322	-9.56
898.492	6.83
898.662	12.97
898.832	39.59
899.003	-7.51
899.173	19.11
899.343	-3.41
899.513	29.35
