Data from USB4F104151__44__11-05-29-710.txt Node

Date: Wed Mar 12 11:05:29 EDT 2025
User: louis
Spectrometer: USB4F10415
Trigger mode: 4
Integration Time (sec): 2.000000E-2
Scans to average: 1
Electric dark correction enabled: true
Nonlinearity correction enabled: false
Boxcar width: 0
XAxis mode: Wavelengths
Number of Pixels in Spectrum: 3648
>>>>>Begin Spectral Data<<<<<
178.204	-115.2
178.424	-115.2
178.644	-115.2
178.864	-43.52
179.084	-80.38
179.304	-4.61
179.524	26.11
179.744	9.73
179.964	34.3
180.184	-0.51
180.404	38.4
180.624	9.73
180.844	9.73
181.064	-43.52
181.283	-14.85
181.503	-25.09
181.723	-39.42
181.943	69.12
182.163	36.35
182.383	-43.52
182.602	32.26
182.822	54.78
183.042	73.21
183.262	13.82
183.482	105.98
183.701	30.21
183.921	69.12
184.141	-10.75
184.361	50.69
184.58	-0.51
184.8	3.58
185.02	75.26
185.239	-10.75
185.459	-4.61
185.679	50.69
185.898	9.73
186.118	44.54
186.338	3.58
186.557	24.06
186.777	-29.18
186.997	65.02
187.216	28.16
187.436	89.6
187.655	60.93
187.875	52.74
188.095	48.64
188.314	124.41
188.534	48.64
188.753	24.06
188.973	32.26
189.192	17.92
189.412	79.36
189.631	-23.04
189.851	60.93
190.07	87.55
190.29	-31.23
190.509	22.02
190.729	19.97
190.948	30.21
191.168	134.65
191.387	69.12
191.607	11.78
191.826	36.35
192.045	24.06
192.265	9.73
192.484	67.07
192.704	-8.7
192.923	69.12
193.142	48.64
193.362	13.82
193.581	34.3
193.8	48.64
194.02	15.87
194.239	-27.14
194.458	28.16
194.678	38.4
194.897	11.78
195.116	62.98
195.335	48.64
195.555	44.54
195.774	-18.94
195.993	40.45
196.212	-16.9
196.432	-16.9
196.651	50.69
196.87	22.02
197.089	118.27
197.308	17.92
197.528	83.45
197.747	-68.09
197.966	44.54
198.185	62.98
198.404	42.5
198.623	77.31
198.842	75.26
199.062	-10.75
199.281	-6.66
199.5	83.45
199.719	-8.7
199.938	79.36
200.157	54.78
200.376	79.36
200.595	46.59
200.814	81.41
201.033	-8.7
201.252	-14.85
201.471	44.54
201.69	-2.56
201.909	71.17
202.128	11.78
202.347	19.97
202.566	-0.51
202.785	9.73
203.004	22.02
203.223	65.02
203.442	58.88
203.661	-12.8
203.879	65.02
204.098	110.08
204.317	32.26
204.536	60.93
204.755	15.87
204.974	69.12
205.193	24.06
205.411	32.26
205.63	60.93
205.849	77.31
206.068	32.26
206.287	28.16
206.505	19.97
206.724	3.58
206.943	26.11
207.162	19.97
207.381	-0.51
207.599	36.35
207.818	24.06
208.037	7.68
208.255	42.5
208.474	67.07
208.693	52.74
208.911	26.11
209.13	-57.86
209.349	67.07
209.567	65.02
209.786	110.08
210.005	-10.75
210.223	36.35
210.442	-27.14
210.661	-70.14
210.879	-0.51
211.098	71.17
211.316	71.17
211.535	44.54
211.753	62.98
211.972	15.87
212.191	26.11
212.409	44.54
212.628	89.6
212.846	40.45
213.065	50.69
213.283	56.83
213.502	22.02
213.72	24.06
213.938	62.98
214.157	1.54
214.375	52.74
214.594	28.16
214.812	11.78
215.031	38.4
215.249	-37.38
215.467	30.21
215.686	7.68
215.904	87.55
216.122	95.74
216.341	56.83
216.559	46.59
216.778	28.16
216.996	3.58
217.214	-0.51
217.432	1.54
217.651	-10.75
217.869	-35.33
218.087	44.54
218.306	77.31
218.524	126.46
218.742	26.11
218.96	-8.7
219.179	-25.09
219.397	62.98
219.615	42.5
219.833	89.6
220.051	44.54
220.27	42.5
220.488	60.93
220.706	36.35
220.924	42.5
221.142	19.97
221.36	-8.7
221.578	71.17
221.796	83.45
222.015	32.26
222.233	-25.09
222.451	97.79
222.669	81.41
222.887	62.98
223.105	-12.8
223.323	44.54
223.541	54.78
223.759	60.93
223.977	-12.8
224.195	110.08
224.413	-23.04
224.631	62.98
224.849	77.31
225.067	11.78
225.285	46.59
225.503	50.69
225.721	22.02
225.939	17.92
226.157	93.69
226.375	54.78
226.592	32.26
226.81	-41.47
227.028	28.16
227.246	122.37
227.464	-39.42
227.682	40.45
227.9	22.02
228.117	56.83
228.335	38.4
228.553	52.74
228.771	19.97
228.989	30.21
229.206	24.06
229.424	28.16
229.642	-47.62
229.86	11.78
230.077	26.11
230.295	11.78
230.513	38.4
230.731	7.68
230.948	83.45
231.166	89.6
231.384	67.07
231.601	65.02
231.819	9.73
232.037	42.5
232.254	38.4
232.472	-31.23
232.689	5.63
232.907	77.31
233.125	52.74
233.342	60.93
233.56	44.54
233.777	-27.14
233.995	58.88
234.213	77.31
234.43	15.87
234.648	22.02
234.865	40.45
235.083	30.21
235.3	38.4
235.518	91.65
235.735	81.41
235.953	85.5
236.17	71.17
236.388	24.06
236.605	32.26
236.822	38.4
237.04	22.02
237.257	38.4
237.475	19.97
237.692	36.35
237.909	65.02
238.127	24.06
238.344	30.21
238.562	-31.23
238.779	7.68
238.996	-0.51
239.214	73.21
239.431	85.5
239.648	3.58
239.865	9.73
240.083	15.87
240.3	-14.85
240.517	-53.76
240.735	-4.61
240.952	69.12
241.169	9.73
241.386	65.02
241.603	67.07
241.821	69.12
242.038	11.78
242.255	46.59
242.472	-39.42
242.689	42.5
242.907	56.83
243.124	15.87
243.341	56.83
243.558	103.93
243.775	73.21
243.992	36.35
244.209	-18.94
244.426	110.08
244.643	65.02
244.86	-41.47
245.078	5.63
245.295	-49.66
245.512	-4.61
245.729	40.45
245.946	-6.66
246.163	91.65
246.38	71.17
246.597	-0.51
246.814	36.35
247.031	38.4
247.248	-82.43
247.464	138.75
247.681	1.54
247.898	11.78
248.115	34.3
248.332	-25.09
248.549	118.27
248.766	38.4
248.983	99.84
249.2	-27.14
249.417	99.84
249.633	54.78
249.85	52.74
250.067	-18.94
250.284	65.02
250.501	71.17
250.717	40.45
250.934	17.92
251.151	38.4
251.368	19.97
251.585	32.26
251.801	-6.66
252.018	40.45
252.235	34.3
252.451	38.4
252.668	7.68
252.885	26.11
253.102	30.21
253.318	40.45
253.535	85.5
253.752	7.68
253.968	151.04
254.185	-18.94
254.401	26.11
254.618	65.02
254.835	-16.9
255.051	-6.66
255.268	75.26
255.484	19.97
255.701	36.35
255.917	110.08
256.134	58.88
256.351	110.08
256.567	38.4
256.784	-0.51
257	-37.38
257.217	58.88
257.433	103.93
257.65	130.56
257.866	26.11
258.082	34.3
258.299	17.92
258.515	9.73
258.732	1.54
258.948	36.35
259.165	48.64
259.381	60.93
259.597	30.21
259.814	-4.61
260.03	79.36
260.246	24.06
260.463	75.26
260.679	95.74
260.895	22.02
261.112	83.45
261.328	77.31
261.544	5.63
261.761	130.56
261.977	-41.47
262.193	34.3
262.409	56.83
262.626	3.58
262.842	-0.51
263.058	-39.42
263.274	60.93
263.49	-8.7
263.707	50.69
263.923	60.93
264.139	105.98
264.355	13.82
264.571	42.5
264.787	13.82
265.004	144.89
265.22	-20.99
265.436	65.02
265.652	-10.75
265.868	13.82
266.084	54.78
266.3	30.21
266.516	11.78
266.732	54.78
266.948	60.93
267.164	28.16
267.38	15.87
267.596	54.78
267.812	28.16
268.028	17.92
268.244	36.35
268.46	56.83
268.676	65.02
268.892	38.4
269.108	1.54
269.324	-20.99
269.54	7.68
269.756	28.16
269.972	42.5
270.188	81.41
270.403	-25.09
270.619	93.69
270.835	97.79
271.051	67.07
271.267	7.68
271.483	-10.75
271.698	89.6
271.914	26.11
272.13	15.87
272.346	-51.71
272.562	50.69
272.777	48.64
272.993	79.36
273.209	13.82
273.425	-8.7
273.64	40.45
273.856	93.69
274.072	44.54
274.287	62.98
274.503	77.31
274.719	3.58
274.934	-0.51
275.15	22.02
275.366	52.74
275.581	-74.24
275.797	81.41
276.012	54.78
276.228	-8.7
276.444	11.78
276.659	62.98
276.875	40.45
277.09	89.6
277.306	110.08
277.521	30.21
277.737	40.45
277.952	71.17
278.168	13.82
278.383	83.45
278.599	30.21
278.814	97.79
279.03	108.03
279.245	15.87
279.461	26.11
279.676	36.35
279.892	7.68
280.107	24.06
280.322	101.89
280.538	54.78
280.753	40.45
280.969	93.69
281.184	28.16
281.399	130.56
281.615	36.35
281.83	36.35
282.045	87.55
282.26	52.74
282.476	-37.38
282.691	15.87
282.906	-39.42
283.122	81.41
283.337	124.41
283.552	28.16
283.767	32.26
283.983	116.22
284.198	56.83
284.413	79.36
284.628	24.06
284.843	40.45
285.058	56.83
285.274	50.69
285.489	38.4
285.704	11.78
285.919	52.74
286.134	60.93
286.349	71.17
286.564	101.89
286.779	15.87
286.995	19.97
287.21	11.78
287.425	50.69
287.64	19.97
287.855	108.03
288.07	9.73
288.285	73.21
288.5	77.31
288.715	1.54
288.93	24.06
289.145	126.46
289.36	11.78
289.575	-33.28
289.79	83.45
290.004	-10.75
290.219	42.5
290.434	15.87
290.649	-29.18
290.864	3.58
291.079	65.02
291.294	22.02
291.509	-4.61
291.724	73.21
291.938	28.16
292.153	62.98
292.368	7.68
292.583	77.31
292.798	77.31
293.012	54.78
293.227	-14.85
293.442	93.69
293.657	77.31
293.871	81.41
294.086	85.5
294.301	65.02
294.516	81.41
294.73	108.03
294.945	22.02
295.16	79.36
295.374	34.3
295.589	67.07
295.804	-35.33
296.018	19.97
296.233	65.02
296.447	93.69
296.662	13.82
296.877	110.08
297.091	62.98
297.306	9.73
297.52	56.83
297.735	114.17
297.949	19.97
298.164	40.45
298.378	40.45
298.593	-4.61
298.807	40.45
299.022	71.17
299.236	73.21
299.451	52.74
299.665	32.26
299.88	3.58
300.094	128.51
300.309	13.82
300.523	-0.51
300.737	46.59
300.952	50.69
301.166	-39.42
301.381	34.3
301.595	-14.85
301.809	36.35
302.024	11.78
302.238	19.97
302.452	58.88
302.667	65.02
302.881	83.45
303.095	32.26
303.309	62.98
303.524	7.68
303.738	71.17
303.952	24.06
304.166	44.54
304.381	69.12
304.595	69.12
304.809	40.45
305.023	79.36
305.237	-25.09
305.452	77.31
305.666	3.58
305.88	163.33
306.094	3.58
306.308	52.74
306.522	7.68
306.736	56.83
306.95	46.59
307.164	54.78
307.379	-41.47
307.593	-35.33
307.807	89.6
308.021	48.64
308.235	89.6
308.449	3.58
308.663	56.83
308.877	40.45
309.091	36.35
309.305	24.06
309.519	-23.04
309.733	81.41
309.947	-0.51
310.161	99.84
310.374	24.06
310.588	28.16
310.802	52.74
311.016	93.69
311.23	24.06
311.444	11.78
311.658	38.4
311.872	91.65
312.085	52.74
312.299	69.12
312.513	-2.56
312.727	15.87
312.941	54.78
313.154	85.5
313.368	79.36
313.582	91.65
313.796	34.3
314.009	77.31
314.223	13.82
314.437	48.64
314.651	136.7
314.864	15.87
315.078	17.92
315.292	1.54
315.505	32.26
315.719	73.21
315.933	-23.04
316.146	9.73
316.36	36.35
316.573	-39.42
316.787	5.63
317.001	171.52
317.214	62.98
317.428	44.54
317.641	-25.09
317.855	60.93
318.068	19.97
318.282	-4.61
318.495	32.26
318.709	93.69
318.922	13.82
319.136	142.85
319.349	69.12
319.563	79.36
319.776	91.65
319.99	60.93
320.203	40.45
320.417	46.59
320.63	17.92
320.843	69.12
321.057	81.41
321.27	56.83
321.483	44.54
321.697	81.41
321.91	89.6
322.124	75.26
322.337	9.73
322.55	-14.85
322.763	85.5
322.977	9.73
323.19	60.93
323.403	110.08
323.617	83.45
323.83	79.36
324.043	5.63
324.256	77.31
324.469	75.26
324.683	36.35
324.896	87.55
325.109	7.68
325.322	60.93
325.535	38.4
325.748	32.26
325.962	30.21
326.175	40.45
326.388	1.54
326.601	153.09
326.814	81.41
327.027	24.06
327.24	103.93
327.453	-10.75
327.666	15.87
327.879	97.79
328.092	60.93
328.305	36.35
328.518	52.74
328.731	60.93
328.944	-20.99
329.157	87.55
329.37	22.02
329.583	144.89
329.796	60.93
330.009	11.78
330.222	56.83
330.435	56.83
330.648	22.02
330.861	34.3
331.073	-0.51
331.286	24.06
331.499	60.93
331.712	-29.18
331.925	60.93
332.138	87.55
332.35	144.89
332.563	40.45
332.776	5.63
332.989	13.82
333.202	32.26
333.414	60.93
333.627	-6.66
333.84	24.06
334.053	-18.94
334.265	52.74
334.478	32.26
334.691	52.74
334.903	28.16
335.116	36.35
335.329	69.12
335.541	105.98
335.754	46.59
335.966	22.02
336.179	97.79
336.392	83.45
336.604	93.69
336.817	85.5
337.029	-20.99
337.242	-43.52
337.454	105.98
337.667	97.79
337.88	97.79
338.092	30.21
338.305	65.02
338.517	5.63
338.729	5.63
338.942	-18.94
339.154	93.69
339.367	11.78
339.579	28.16
339.792	-16.9
340.004	50.69
340.217	62.98
340.429	69.12
340.641	71.17
340.854	26.11
341.066	146.94
341.278	75.26
341.491	105.98
341.703	62.98
341.915	42.5
342.128	79.36
342.34	-12.8
342.552	42.5
342.764	54.78
342.977	-10.75
343.189	-8.7
343.401	50.69
343.613	34.3
343.826	91.65
344.038	22.02
344.25	67.07
344.462	32.26
344.674	11.78
344.886	1.54
345.099	83.45
345.311	13.82
345.523	56.83
345.735	32.26
345.947	24.06
346.159	85.5
346.371	28.16
346.583	69.12
346.795	44.54
347.007	32.26
347.219	44.54
347.431	95.74
347.643	15.87
347.855	-6.66
348.067	24.06
348.279	56.83
348.491	15.87
348.703	65.02
348.915	7.68
349.127	7.68
349.339	83.45
349.551	-78.33
349.763	116.22
349.975	56.83
350.187	44.54
350.399	36.35
350.61	71.17
350.822	38.4
351.034	89.6
351.246	42.5
351.458	42.5
351.669	65.02
351.881	73.21
352.093	32.26
352.305	22.02
352.517	54.78
352.728	81.41
352.94	91.65
353.152	-4.61
353.363	11.78
353.575	48.64
353.787	60.93
353.999	65.02
354.21	58.88
354.422	42.5
354.633	52.74
354.845	89.6
355.057	9.73
355.268	24.06
355.48	52.74
355.692	42.5
355.903	79.36
356.115	-14.85
356.326	-6.66
356.538	181.76
356.749	60.93
356.961	93.69
357.172	3.58
357.384	24.06
357.595	52.74
357.807	44.54
358.018	48.64
358.23	15.87
358.441	52.74
358.653	42.5
358.864	126.46
359.075	24.06
359.287	34.3
359.498	54.78
359.709	46.59
359.921	79.36
360.132	71.17
360.344	44.54
360.555	69.12
360.766	93.69
360.977	-18.94
361.189	95.74
361.4	28.16
361.611	50.69
361.823	114.17
362.034	42.5
362.245	-20.99
362.456	48.64
362.667	46.59
362.879	-4.61
363.09	36.35
363.301	67.07
363.512	36.35
363.723	-14.85
363.935	58.88
364.146	42.5
364.357	58.88
364.568	87.55
364.779	32.26
364.99	42.5
365.201	60.93
365.412	56.83
365.623	22.02
365.834	73.21
366.045	56.83
366.256	36.35
366.467	28.16
366.678	19.97
366.889	34.3
367.1	30.21
367.311	89.6
367.522	11.78
367.733	36.35
367.944	103.93
368.155	9.73
368.366	54.78
368.577	36.35
368.788	11.78
368.999	40.45
369.209	3.58
369.42	69.12
369.631	81.41
369.842	50.69
370.053	65.02
370.264	22.02
370.474	101.89
370.685	7.68
370.896	26.11
371.107	26.11
371.317	103.93
371.528	79.36
371.739	32.26
371.95	44.54
372.16	77.31
372.371	56.83
372.582	69.12
372.792	44.54
373.003	42.5
373.214	22.02
373.424	120.32
373.635	65.02
373.846	30.21
374.056	48.64
374.267	75.26
374.477	93.69
374.688	105.98
374.898	50.69
375.109	105.98
375.319	32.26
375.53	132.61
375.74	81.41
375.951	30.21
376.161	136.7
376.372	85.5
376.582	52.74
376.793	-29.18
377.003	89.6
377.214	34.3
377.424	30.21
377.635	65.02
377.845	151.04
378.055	81.41
378.266	110.08
378.476	-12.8
378.686	73.21
378.897	34.3
379.107	91.65
379.317	46.59
379.528	44.54
379.738	15.87
379.948	-61.95
380.158	52.74
380.369	-6.66
380.579	95.74
380.789	58.88
380.999	108.03
381.21	52.74
381.42	56.83
381.63	30.21
381.84	65.02
382.05	89.6
382.261	118.27
382.471	99.84
382.681	40.45
382.891	116.22
383.101	26.11
383.311	58.88
383.521	48.64
383.731	32.26
383.941	5.63
384.151	114.17
384.361	30.21
384.571	44.54
384.781	24.06
384.991	118.27
385.201	105.98
385.411	58.88
385.621	136.7
385.831	77.31
386.041	73.21
386.251	65.02
386.461	71.17
386.671	32.26
386.881	60.93
387.091	99.84
387.301	73.21
387.511	36.35
387.72	87.55
387.93	93.69
388.14	7.68
388.35	3.58
388.56	50.69
388.769	124.41
388.979	75.26
389.189	17.92
389.399	108.03
389.609	79.36
389.818	101.89
390.028	7.68
390.238	124.41
390.447	128.51
390.657	122.37
390.867	71.17
391.076	99.84
391.286	36.35
391.496	71.17
391.705	44.54
391.915	95.74
392.125	122.37
392.334	169.47
392.544	93.69
392.753	77.31
392.963	130.56
393.172	126.46
393.382	79.36
393.591	206.33
393.801	22.02
394.01	38.4
394.22	73.21
394.429	26.11
394.639	108.03
394.848	81.41
395.058	116.22
395.267	28.16
395.477	132.61
395.686	101.89
395.895	118.27
396.105	93.69
396.314	69.12
396.524	85.5
396.733	89.6
396.942	81.41
397.152	110.08
397.361	54.78
397.57	87.55
397.78	46.59
397.989	124.41
398.198	194.05
398.407	36.35
398.617	69.12
398.826	52.74
399.035	148.99
399.244	126.46
399.453	132.61
399.663	58.88
399.872	134.65
400.081	42.5
400.29	128.51
400.499	71.17
400.708	128.51
400.917	140.8
401.127	134.65
401.336	79.36
401.545	153.09
401.754	87.55
401.963	175.61
402.172	169.47
402.381	136.7
402.59	167.42
402.799	69.12
403.008	130.56
403.217	32.26
403.426	132.61
403.635	134.65
403.844	155.13
404.053	36.35
404.262	130.56
404.471	169.47
404.68	146.94
404.888	218.62
405.097	163.33
405.306	167.42
405.515	118.27
405.724	83.45
405.933	83.45
406.142	179.71
406.35	169.47
406.559	206.33
406.768	153.09
406.977	128.51
407.185	226.81
407.394	206.33
407.603	179.71
407.812	185.85
408.02	173.57
408.229	185.85
408.438	177.66
408.646	210.43
408.855	237.05
409.064	267.77
409.272	181.76
409.481	222.72
409.69	247.29
409.898	241.15
410.107	290.3
410.315	239.1
410.524	255.48
410.733	288.25
410.941	284.16
411.15	253.44
411.358	411.13
411.567	339.45
411.775	306.68
411.984	351.74
412.192	364.03
412.401	402.94
412.609	470.52
412.818	404.99
413.026	368.12
413.234	460.28
413.443	427.51
413.651	476.66
413.86	505.34
414.068	607.73
414.276	552.44
414.485	536.06
414.693	583.16
414.901	558.58
415.11	620.02
415.318	601.59
415.526	658.93
415.734	671.22
415.943	765.43
416.151	663.03
416.359	767.48
416.567	755.19
416.776	806.39
416.984	876.02
417.192	802.29
417.4	837.11
417.608	810.48
417.817	912.88
418.025	923.12
418.233	972.27
418.441	902.64
418.649	957.94
418.857	1129.97
419.065	1121.77
419.273	1183.21
419.481	1138.16
419.689	1279.47
419.897	1334.76
420.105	1351.15
420.313	1287.66
420.521	1435.11
420.729	1469.93
420.937	1476.07
421.145	1562.09
421.353	1670.63
421.561	1598.95
421.769	1744.36
421.977	1791.46
422.185	1813.99
422.393	1848.8
422.601	1990.11
422.809	1945.06
423.017	1920.48
423.224	1965.54
423.432	2151.9
423.64	2215.39
423.848	2391.52
424.056	2256.35
424.263	2473.43
424.471	2467.29
424.679	2553.31
424.887	2684.38
425.094	2674.14
425.302	2794.97
425.51	2895.32
425.718	2913.75
425.925	2977.23
426.133	3184.08
426.341	3300.81
426.548	3298.77
426.756	3495.37
426.964	3478.99
427.171	3644.87
427.379	3739.08
427.586	3900.87
427.794	3894.72
428.001	4220.35
428.209	4163.01
428.417	4150.72
428.624	4586.94
428.832	4494.78
429.039	4427.2
429.247	4365.76
429.454	4939.19
429.662	5291.44
429.869	4980.15
430.076	5227.95
430.284	5244.34
430.491	5348.78
430.699	5621.16
430.906	5598.63
431.114	5479.85
431.321	6000.04
431.528	6100.39
431.736	6409.63
431.943	6737.31
432.15	6587.8
432.358	6462.88
432.565	7011.73
432.772	6882.71
432.979	7335.31
433.187	7404.94
433.394	7474.57
433.601	8043.91
433.808	8138.12
434.016	8131.97
434.223	8285.57
434.43	8859
434.637	8807.8
434.844	9176.44
435.052	9260.4
435.259	9086.33
435.466	9420.14
435.673	9256.31
435.88	9936.23
436.087	10329.44
436.294	10622.3
436.501	10177.89
436.708	10407.27
436.915	10526.05
437.122	11423.06
437.329	11201.88
437.537	11500.88
437.743	11828.56
437.95	11734.35
438.157	12232.01
438.364	12723.52
438.571	12541.25
438.778	12827.96
438.985	14007.59
439.192	13503.79
439.399	13880.62
439.606	13608.24
439.813	14345.51
440.02	15140.12
440.227	14722.34
440.433	14638.37
440.64	15256.86
440.847	15113.5
441.054	15197.46
441.261	16669.95
441.467	16389.38
441.674	16471.3
441.881	17270.01
442.088	17118.46
442.294	17120.51
442.501	17325.3
442.708	17990.89
442.914	18547.94
443.121	19113.18
443.328	19061.98
443.534	20135.12
443.741	19291.35
443.948	19371.22
444.154	20526.28
444.361	20628.68
444.568	20780.23
444.774	20757.7
444.981	21144.77
445.187	21890.23
445.394	22459.56
445.6	22373.55
445.807	24358.03
446.013	23530.65
446.22	23788.69
446.426	24806.53
446.633	24652.94
446.839	25922.68
447.046	24571.02
447.252	25834.61
447.459	25971.83
447.665	25857.14
447.871	27223.14
448.078	27978.84
448.284	26901.61
448.491	27479.13
448.697	28812.36
448.903	29158.47
449.11	29049.92
449.316	28494.93
449.522	28906.57
449.728	29770.81
449.935	29869.11
450.141	30127.16
450.347	30977.06
450.553	29754.43
450.76	30258.23
450.966	30940.2
451.172	30745.64
451.378	31661.08
451.584	30845.99
451.791	31665.18
451.997	31368.23
452.203	31943.7
452.409	31978.52
452.615	31540.25
452.821	30237.75
453.027	30092.34
453.233	31482.91
453.44	30180.4
453.646	30620.72
453.852	30749.74
454.058	31292.45
454.264	30145.59
454.47	31028.26
454.676	30407.73
454.882	30940.2
455.088	28255.31
455.294	28912.71
455.5	29299.78
455.705	29334.59
455.911	28142.67
456.117	27923.54
456.323	27094.11
456.529	25973.88
456.735	27098.21
456.941	25879.67
457.147	25730.17
457.352	25126.02
457.558	24802.44
457.764	24718.47
457.97	24323.21
458.176	23741.59
458.381	23649.43
458.587	22260.91
458.793	22578.34
458.999	21413.05
459.204	22686.89
459.41	21988.53
459.616	20843.71
459.821	20802.75
460.027	20219.08
460.233	20092.11
460.438	19004.64
460.644	19322.07
460.85	18433.25
461.055	18105.58
461.261	18253.03
461.466	16817.41
461.672	16502.02
461.878	17632.5
462.083	16354.57
462.289	15838.48
462.494	15889.68
462.7	15197.46
462.905	14650.66
463.111	15639.83
463.316	15111.45
463.522	15019.29
463.727	14906.65
463.932	15263
464.138	14841.12
464.343	14871.84
464.549	14609.7
464.754	14837.02
464.959	14798.11
465.165	14595.36
465.37	14282.02
465.575	14095.66
465.781	14400.8
465.986	14386.47
466.191	14140.71
466.397	13659.44
466.602	13020.47
466.807	13681.97
467.012	13364.53
467.218	13581.62
467.423	13276.47
467.628	13374.77
467.833	14159.14
468.038	13294.9
468.244	13198.65
468.449	13458.74
468.654	13172.02
468.859	13002.04
469.064	12692.8
469.269	12420.42
469.474	12574.02
469.679	12789.05
469.885	12283.2
470.09	12590.4
470.295	12313.92
470.5	12014.92
470.705	12016.97
470.91	11902.28
471.115	11902.28
471.32	12100.94
471.525	12076.36
471.73	11775.31
471.935	11658.57
472.139	11156.82
472.344	11132.25
472.549	11021.66
472.754	10874.2
472.959	11021.66
473.164	10538.34
473.369	10718.56
473.574	10909.02
473.778	10628.45
473.983	10716.51
474.188	10628.45
474.393	10237.28
474.598	10360.16
474.802	10204.52
475.007	9999.72
475.212	9950.57
475.417	9758.06
475.621	9614.7
475.826	9710.96
476.031	9620.85
476.235	9497.97
476.44	9600.37
476.645	9129.33
476.849	9397.62
477.054	9112.95
477.259	8940.92
477.463	9063.8
477.668	8902.01
477.872	9190.77
478.077	8818.04
478.282	8732.03
478.486	8467.84
478.691	8502.65
478.895	8555.9
479.1	8549.76
479.304	8463.74
479.509	8027.53
479.713	8695.16
479.918	7943.56
480.122	8052.1
480.326	8017.29
480.531	8279.43
480.735	7968.13
480.94	7955.85
481.144	8117.64
481.348	7861.64
481.553	8158.6
481.757	7818.63
481.961	8017.29
482.166	8117.64
482.37	7927.18
482.574	7812.49
482.778	7957.89
482.983	8164.74
483.187	7927.18
483.391	7773.58
483.595	7841.16
483.8	7765.39
484.004	7955.85
484.208	7816.58
484.412	7900.55
484.616	7689.61
484.821	8045.96
485.025	7587.21
485.229	8023.43
485.433	7927.18
485.637	7724.43
485.841	7669.13
486.045	7904.65
486.249	7736.71
486.453	7859.59
486.657	7888.26
486.861	7818.63
487.065	7646.6
487.269	7882.12
487.473	7720.33
487.677	7716.23
487.881	7918.98
488.085	7904.65
488.289	8011.14
488.493	7783.82
488.697	7822.73
488.901	7976.33
489.105	7810.44
489.309	8027.53
489.512	8166.79
489.716	8035.72
489.92	7982.47
490.124	8091.01
490.328	8129.92
490.531	8136.07
490.735	7951.75
490.939	8195.46
491.143	8043.91
491.346	8228.23
491.55	8197.51
491.754	8232.32
491.958	8314.24
492.161	8166.79
492.365	8351.1
492.569	8187.27
492.772	8256.9
492.976	8447.36
493.18	8500.61
493.383	8512.89
493.587	8420.74
493.79	8697.21
493.994	8537.47
494.197	8654.2
494.401	8793.47
494.605	8717.69
494.808	9065.85
495.012	8973.69
495.215	8957.3
495.419	9137.52
495.622	9162.1
495.825	9205.11
496.029	9012.6
496.232	9448.82
496.436	9248.11
496.639	9459.06
496.843	9465.2
497.046	9696.62
497.249	9946.47
497.453	9874.79
497.656	9882.99
497.859	9819.5
498.063	10296.67
498.266	10272.1
498.469	10300.77
498.673	10485.09
498.876	10605.92
499.079	10769.76
499.282	10747.23
499.485	10876.25
499.689	10935.64
499.892	11136.34
500.095	11134.29
500.298	11476.3
500.501	11310.42
500.705	11449.68
500.908	11758.92
501.111	12082.5
501.314	11947.34
501.517	12119.37
501.72	12107.08
501.923	12234.05
502.126	12553.54
502.329	12670.27
502.532	12899.64
502.735	12823.87
502.938	13112.63
503.141	13147.45
503.344	13313.33
503.547	13458.74
503.75	13757.74
503.953	13851.95
504.156	14013.74
504.359	13894.96
504.562	14071.08
504.765	14474.53
504.968	14644.51
505.17	14871.84
505.373	14765.34
505.576	15017.24
505.779	15197.46
505.982	15287.57
506.185	15867.15
506.387	15662.35
506.59	15908.11
506.793	16231.69
506.996	16069.9
507.198	16481.54
507.401	16493.83
507.604	16581.89
507.807	16905.47
508.009	17052.92
508.212	17337.59
508.415	17560.82
508.617	17626.36
508.82	17704.18
509.022	17634.55
509.225	18183.4
509.428	18191.59
509.63	18236.65
509.833	18601.19
510.035	19014.88
510.238	18785.51
510.44	19041.5
510.643	19293.4
510.845	19973.33
511.048	19465.43
511.25	20092.11
511.453	19891.41
511.655	20630.73
511.858	20425.93
512.06	20784.32
512.262	20995.26
512.465	21089.47
512.667	21224.64
512.87	21320.89
513.072	21597.37
513.274	21941.43
513.477	22187.18
513.679	22627.49
513.881	22504.62
514.084	22871.2
514.286	22643.88
514.488	23256.22
514.69	23817.36
514.893	23587.99
515.095	23913.62
515.297	24263.82
515.499	24196.24
515.701	24544.39
515.904	24962.18
516.106	25103.49
516.308	25396.35
516.51	25625.72
516.712	25646.2
516.914	25896.05
517.116	26121.33
517.318	26207.34
517.52	26678.38
517.722	26676.33
517.925	26854.5
518.127	27516
518.329	27585.63
518.531	27710.55
518.733	28294.22
518.935	27980.89
519.136	28402.77
519.338	28963.91
519.54	28937.29
519.742	29230.15
519.944	29295.68
520.146	29942.84
520.348	29785.15
520.55	30303.28
520.752	30252.08
520.954	30956.58
521.155	30483.5
521.357	31349.79
521.559	31374.37
521.761	32142.36
521.963	31738.91
522.164	31648.8
522.366	32201.75
522.568	32545.81
522.77	32459.79
522.971	33010.7
523.173	32859.15
523.375	33135.62
523.576	32961.55
523.778	33643.52
523.98	34087.93
524.181	33903.61
524.383	34653.17
524.584	34810.86
524.786	34683.89
524.988	34851.82
525.189	35091.43
525.391	35277.8
525.592	35427.3
525.794	35515.36
525.995	35564.51
526.197	36303.83
526.398	36037.59
526.6	36299.73
526.801	36369.37
527.003	36672.46
527.204	36563.92
527.406	36920.27
527.607	36525.01
527.808	37086.15
528.01	36594.64
528.211	36971.47
528.412	37833.66
528.614	37583.81
528.815	37610.43
529.016	38462.39
529.218	37796.8
529.419	37655.49
529.62	38544.31
529.822	37919.68
530.023	37874.62
530.224	38312.89
530.425	38054.84
530.626	38036.41
530.828	38032.32
531.029	38978.48
531.23	38536.12
531.431	38638.51
531.632	38910.89
531.833	38802.35
532.035	38716.34
532.236	38861.74
532.437	38904.75
532.638	38978.48
532.839	38892.46
533.04	39398.31
533.241	39037.87
533.442	39771.04
533.643	39654.31
533.844	39271.34
534.045	39465.89
534.246	38906.8
534.447	39426.98
534.648	39441.32
534.849	40002.46
535.05	39283.62
535.251	39601.06
535.451	39381.93
535.652	39979.93
535.853	39967.65
536.054	39881.63
536.255	39852.96
536.456	39353.26
536.657	39875.49
536.857	39340.97
537.058	39234.47
537.259	39660.45
537.46	39617.44
537.66	39584.68
537.861	39629.73
538.062	39691.17
538.263	39596.96
538.463	39758.75
538.664	39957.41
538.865	39660.45
539.065	39846.82
539.266	39453.61
539.466	39826.34
539.667	39369.64
539.868	39898.02
540.068	39695.27
540.269	39506.85
540.469	39809.95
540.67	39762.85
540.87	39662.5
541.071	39713.7
541.271	39855.01
541.472	39676.83
541.672	39693.22
541.873	39601.06
542.073	39408.55
542.274	39564.2
542.474	39584.68
542.675	39556
542.875	40059.8
543.075	39617.44
543.276	38808.5
543.476	40033.18
543.676	39644.07
543.877	39408.55
544.077	39639.97
544.277	39445.41
544.478	39506.85
544.678	40033.18
544.878	39355.3
545.078	39379.88
545.279	39574.44
545.479	39568.29
545.679	40027.04
545.879	39603.11
546.079	39426.98
546.28	39639.97
546.48	39488.42
546.68	39488.42
546.88	39525.28
547.08	39568.29
547.28	39404.45
547.48	39244.71
547.68	39306.15
547.88	39222.19
548.081	39486.37
548.281	39513
548.481	39355.3
548.681	39857.06
548.881	39496.61
549.081	39506.85
549.28	39224.23
549.48	39484.33
549.68	39060.4
549.88	39824.29
550.08	39048.11
550.28	39805.86
550.48	39240.62
550.68	39510.95
550.88	39109.55
551.08	39252.91
551.279	38894.51
551.479	38759.34
551.679	39533.48
551.879	38876.08
552.079	39416.74
552.278	39052.2
552.478	39218.09
552.678	39261.1
552.878	39109.55
553.077	39170.99
553.277	38851.5
553.477	39379.88
553.676	38822.83
553.876	39181.23
554.076	38857.65
554.275	38992.81
554.475	38683.57
554.674	39066.54
554.874	39394.21
555.074	38822.83
555.273	38990.77
555.473	39302.06
555.672	38734.77
555.872	38513.59
556.071	38966.19
556.271	38871.98
556.47	38470.58
556.67	38161.34
556.869	38210.49
557.068	38568.88
557.268	38249.4
557.467	38372.28
557.667	38462.39
557.866	38497.2
558.065	38278.07
558.265	37995.45
558.464	38417.33
558.663	38298.55
558.863	37620.67
559.062	38564.79
559.261	37761.98
559.461	38615.99
559.66	37585.86
559.859	38013.88
560.058	37487.56
560.258	37829.57
560.457	37526.47
560.656	38443.96
560.855	37737.41
561.054	37649.35
561.253	37376.97
561.453	37571.52
561.652	37274.57
561.851	37288.9
562.05	37149.64
562.249	36629.46
562.448	37585.86
562.647	36746.19
562.846	36926.41
563.045	37159.88
563.244	36467.67
563.443	36864.97
563.642	36170.71
563.841	36615.12
564.04	36389.84
564.239	36584.4
564.438	36293.59
564.637	36273.11
564.836	36217.82
565.035	36013.02
565.234	35898.33
565.432	35722.21
565.631	35695.58
565.83	36135.9
566.029	35693.54
566.228	35754.97
566.427	35382.24
566.625	35417.06
566.824	34878.44
567.023	35425.25
567.222	34728.94
567.42	35335.14
567.619	35591.14
567.818	34946.03
568.016	35232.74
568.215	35161.06
568.414	34800.62
568.612	35081.19
568.811	34657.26
569.01	34378.74
569.208	33883.13
569.407	34702.32
569.605	34280.44
569.804	34741.23
570.002	33659.9
570.201	34096.12
570.4	33653.76
570.598	33678.33
570.797	33786.88
570.995	33657.85
571.193	33459.2
571.392	33805.31
571.59	33240.07
571.789	33457.15
571.987	33438.72
572.186	33014.79
572.384	32920.59
572.582	33489.92
572.781	33268.74
572.979	32142.36
573.177	32623.63
573.376	32766.99
573.574	32697.36
573.772	32867.34
573.971	32410.64
574.169	32013.34
574.367	31962.14
574.565	32005.14
574.763	32255
574.962	31775.77
575.16	31482.91
575.358	32064.53
575.556	31478.82
575.754	32046.1
575.952	31458.34
576.151	31751.2
576.349	31294.5
576.547	31095.85
576.745	31095.85
576.943	31398.94
577.141	30737.45
577.339	30999.59
577.537	30835.75
577.735	30733.36
577.933	30090.29
578.131	30762.03
578.329	30213.17
578.527	30069.81
578.725	30454.83
578.923	30340.15
579.121	30108.72
579.319	30526.51
579.516	30067.77
579.714	29779
579.912	29686.84
580.11	29971.51
580.308	29684.8
580.506	29746.23
580.704	28916.81
580.901	29625.4
581.099	29568.06
581.297	29082.69
581.495	29449.28
581.692	29500.48
581.89	29154.37
582.088	29400.13
582.285	29123.65
582.483	29123.65
582.681	29023.3
582.878	28832.84
583.076	28394.57
583.274	28804.17
583.471	28527.69
583.669	28535.88
583.866	28240.98
584.064	28572.75
584.262	27841.62
584.459	28468.3
584.657	28052.56
584.854	28114
585.052	27692.12
585.249	28331.09
585.447	27831.38
585.644	27540.57
585.841	27440.22
586.039	27751.51
586.236	27407.45
586.434	27401.31
586.631	27059.3
586.828	27182.18
587.026	27296.86
587.223	27128.93
587.42	27196.51
587.618	27423.84
587.815	26569.83
588.012	26733.67
588.21	26723.43
588.407	26799.21
588.604	26750.06
588.801	26528.88
588.999	26457.2
589.196	26279.02
589.393	26492.01
589.59	25947.25
589.787	26420.33
589.984	26207.34
590.182	25746.55
590.379	26170.48
590.576	26002.55
590.773	26018.93
590.97	25472.12
591.167	25762.93
591.364	25484.41
591.561	25760.89
591.758	25087.11
591.955	25353.34
592.152	25515.13
592.349	25451.64
592.546	25115.78
592.743	25228.42
592.94	24710.28
593.137	24970.37
593.334	24763.53
593.531	24343.69
593.727	24618.12
593.924	24683.66
594.121	24368.27
594.318	24827.01
594.515	24558.73
594.712	24413.32
594.908	24224.91
595.105	24298.64
595.302	23987.35
595.499	24267.92
595.696	24142.99
595.892	23731.35
596.089	23905.43
596.286	23901.33
596.482	23966.87
596.679	23598.23
596.876	23618.71
597.072	23569.56
597.269	23555.22
597.466	23151.77
597.662	23532.7
597.859	23377.05
598.055	23596.18
598.252	23127.2
598.448	23047.33
598.645	22899.87
598.841	22779.04
599.038	23209.12
599.234	23164.06
599.431	22500.52
599.627	22729.89
599.824	22639.78
600.02	22574.25
600.217	22512.81
600.413	22142.13
600.609	22262.96
600.806	22183.09
601.002	22410.41
601.198	22402.22
601.395	22148.27
601.591	22021.3
601.787	21951.67
601.984	22062.26
602.18	22201.52
602.376	21755.06
602.572	21570.74
602.769	21435.58
602.965	21576.89
603.161	21558.46
603.357	21402.81
603.553	20964.54
603.75	21388.47
603.946	21017.79
604.142	21081.28
604.338	21226.68
604.534	21167.29
604.73	20817.09
604.926	20624.58
605.122	20931.78
605.318	20747.46
605.514	20800.71
605.71	20790.47
605.906	20604.1
606.102	20427.98
606.298	20487.37
606.494	20554.95
606.69	20522.18
606.886	20470.98
607.082	20257.99
607.278	20235.47
607.474	20313.29
607.67	20432.07
607.866	19991.76
608.062	20479.18
608.257	19930.32
608.453	19987.66
608.649	19868.88
608.845	19664.08
609.041	19850.45
609.236	19936.46
609.432	19717.33
609.628	19782.87
609.824	19795.15
610.019	19471.57
610.215	19774.67
610.411	19815.63
610.606	19614.93
610.802	19569.88
610.998	19666.13
611.193	19168.48
611.389	19268.83
611.584	19266.78
611.78	19068.13
611.976	19096.8
612.171	19330.27
612.367	19211.48
612.562	19145.95
612.758	18717.92
612.953	18693.35
613.149	18861.28
613.344	18898.14
613.539	19133.66
613.735	18836.7
613.93	18873.57
614.126	18574.56
614.321	18920.67
614.517	18676.96
614.712	18703.59
614.907	18494.69
615.103	18791.65
615.298	18531.56
615.493	18814.18
615.688	18293.99
615.884	18648.29
616.079	18253.03
616.274	18402.54
616.47	18099.44
616.665	18564.32
616.86	18222.31
617.055	18087.15
617.25	18164.97
617.445	18162.92
617.641	17663.22
617.836	18236.65
618.031	17683.7
618.226	17902.83
618.421	18052.33
618.616	18058.48
618.811	17483
619.006	17990.89
619.201	17165.56
619.396	17808.62
619.591	17485.05
619.786	17700.08
619.981	17212.67
620.176	17347.83
620.371	16936.19
620.566	17411.32
620.761	17085.69
620.956	17124.6
621.151	16678.15
621.346	17147.13
621.541	16712.96
621.735	16930.05
621.93	16364.81
622.125	16469.25
622.32	16456.96
622.515	16348.42
622.709	16063.75
622.904	16571.65
623.099	16086.28
623.294	16123.15
623.488	15686.93
623.683	16207.11
623.878	15717.65
624.072	15949.07
624.267	15637.78
624.462	15736.08
624.656	15496.47
624.851	15740.18
625.046	15287.57
625.24	15297.81
625.435	15031.58
625.629	15246.62
625.824	15123.74
626.018	15103.26
626.213	14589.22
626.407	14816.54
626.602	14525.73
626.796	14656.8
626.991	14544.16
627.185	14613.79
627.38	14515.49
627.574	14097.7
627.768	13964.59
627.963	14103.85
628.157	14124.33
628.352	14200.1
628.546	13796.65
628.74	14058.79
628.935	13774.13
629.129	13882.67
629.323	13667.63
629.517	13831.47
629.712	13468.98
629.906	13309.24
630.1	13088.06
630.294	13321.52
630.489	13307.19
630.683	13362.48
630.877	13018.43
631.071	13092.15
631.265	12961.08
631.459	13047.1
631.653	13067.58
631.848	12801.34
632.042	12875.07
632.236	12711.23
632.43	12588.35
632.624	12641.6
632.818	12379.46
633.012	12330.31
633.206	12299.59
633.4	12514.63
633.594	12199.24
633.788	12266.82
633.982	12199.24
634.176	11908.43
634.369	11933
634.563	11990.35
634.757	11801.93
634.951	11943.24
635.145	11771.21
635.339	11679.05
635.533	11584.85
635.726	11844.94
635.92	11384.15
636.114	11367.76
636.308	11353.43
636.501	11335
636.695	11126.1
636.889	11070.81
637.083	11066.71
637.276	11205.97
637.47	11124.05
637.664	10857.82
637.857	11189.59
638.051	10900.83
638.244	10859.87
638.438	10814.81
638.632	10671.45
638.825	10739.04
639.019	10534.24
639.212	10521.95
639.406	10669.41
639.599	10480.99
639.793	10296.67
639.986	10274.15
640.18	10046.82
640.373	10343.78
640.567	10331.49
640.76	10130.79
640.954	9850.22
641.147	10014.06
641.34	9874.79
641.534	9880.94
641.727	9768.3
641.92	9854.31
642.114	9534.83
642.307	9563.5
642.5	9575.79
642.694	9385.33
642.887	9557.36
643.08	9508.21
643.273	9397.62
643.467	9448.82
643.66	9536.88
643.853	9174.39
644.046	9117.04
644.239	9141.62
644.432	9080.18
644.626	9045.37
644.819	9026.93
645.012	8977.78
645.205	8867.19
645.398	9033.08
645.591	8916.34
645.784	8795.51
645.977	8748.41
646.17	8668.54
646.363	8678.78
646.556	8566.14
646.749	8588.67
646.942	8482.17
647.135	8433.02
647.328	8367.49
647.521	8322.43
647.714	8285.57
647.907	8250.75
648.099	8414.59
648.292	8320.39
648.485	8136.07
648.678	8099.2
648.871	8017.29
649.064	7935.37
649.256	8111.49
649.449	7939.46
649.642	7888.26
649.835	7699.85
650.027	7820.68
650.22	7794.06
650.413	7667.08
650.605	7611.79
650.798	7789.96
650.991	7447.95
651.183	7794.06
651.376	7542.16
651.568	7638.41
651.761	7486.86
651.954	7402.9
652.146	7478.67
652.339	7548.3
652.531	7198.1
652.724	7429.52
652.916	7062.93
653.109	7316.88
653.301	7163.28
653.494	7165.33
653.686	7038.36
653.879	7179.67
654.071	7064.98
654.263	7046.55
654.456	7019.92
654.648	7153.04
654.84	6823.32
655.033	6970.77
655.225	6860.18
655.417	6751.64
655.61	6753.69
655.802	6657.43
655.994	6741.4
656.186	6731.16
656.379	6524.32
656.571	6753.69
656.763	6598.04
656.955	6671.77
657.148	6475.17
657.34	6407.58
657.532	6415.77
657.724	6368.67
657.916	6364.57
658.108	6411.68
658.3	6219.17
658.492	6096.29
658.684	6122.91
658.876	6380.96
659.068	6149.54
659.26	6235.55
659.452	6157.73
659.644	6204.83
659.836	6049.19
660.028	5977.51
660.22	5823.91
660.412	5901.73
660.604	5762.47
660.796	5791.14
660.988	5981.6
661.18	5787.05
661.372	5799.34
661.563	5920.17
661.755	5694.89
661.947	5684.65
662.139	5815.72
662.331	5590.44
662.522	5471.66
662.714	5629.35
662.906	5512.62
663.097	5498.28
663.289	5545.39
663.481	5438.89
663.673	5402.03
663.864	5373.36
664.056	5449.13
664.247	5473.71
664.439	5313.97
664.631	5240.24
664.822	5328.3
665.014	5457.32
665.205	5238.19
665.397	5258.67
665.588	5184.94
665.78	5246.38
665.971	5258.67
666.163	5111.22
666.354	5158.32
666.546	5088.69
666.737	4986.29
666.929	5176.75
667.12	5268.91
667.311	4922.8
667.503	5012.92
667.694	4943.28
667.885	4820.41
668.077	4941.24
668.268	4789.69
668.459	5006.77
668.651	4828.6
668.842	4734.39
669.033	4806.07
669.224	4736.44
669.416	4894.13
669.607	4718.01
669.798	4742.58
669.989	4859.32
670.18	4658.62
670.371	4773.3
670.563	4818.36
670.754	4660.66
670.945	4648.38
671.136	4488.64
671.327	4560.31
671.518	4396.48
671.709	4429.24
671.9	4517.31
672.091	4607.42
672.282	4500.92
672.473	4541.88
672.664	4517.31
672.855	4339.13
673.046	4545.98
673.237	4478.4
673.428	4476.35
673.619	4429.24
673.809	4277.69
674	4339.13
674.191	4369.85
674.382	4271.55
674.573	4363.71
674.764	4361.66
674.954	4326.85
675.145	4279.74
675.336	4206.02
675.527	4298.17
675.717	4036.03
675.908	4283.84
676.099	4109.76
676.289	4103.62
676.48	4277.69
676.671	4111.81
676.861	4238.78
677.052	4138.43
677.243	4001.22
677.433	4146.62
677.624	4128.19
677.814	4171.2
678.005	4187.58
678.195	4015.55
678.386	4021.7
678.576	3970.5
678.767	3956.16
678.957	4048.32
679.148	4093.38
679.338	3943.88
679.529	3976.64
679.719	4003.27
679.909	3990.98
680.1	3935.68
680.29	4019.65
680.481	3907.01
680.671	3882.44
680.861	3943.88
681.052	3929.54
681.242	3945.92
681.432	3976.64
681.622	3913.16
681.813	3788.23
682.003	3915.2
682.193	3761.61
682.383	3775.94
682.573	3849.67
682.764	3757.51
682.954	3796.42
683.144	3825.09
683.334	3700.17
683.524	3855.81
683.714	3792.33
683.904	3861.96
684.094	3696.07
684.284	3796.42
684.474	3872.2
684.664	3796.42
684.854	3884.48
685.044	3759.56
685.234	3622.34
685.424	3737.03
685.614	3667.4
685.804	3706.31
685.994	3702.22
686.184	3460.56
686.374	3667.4
686.564	3614.15
686.753	3671.5
686.943	3495.37
687.133	3544.52
687.323	3440.08
687.513	3548.62
687.702	3552.71
687.892	3495.37
688.082	3491.27
688.272	3521.99
688.461	3511.75
688.651	3397.07
688.841	3405.26
689.03	3497.42
689.22	3386.83
689.41	3519.95
689.599	3315.15
689.789	3487.18
689.979	3458.51
690.168	3339.73
690.358	3360.2
690.547	3366.35
690.737	3323.34
690.926	3323.34
691.116	3313.1
691.305	3337.68
691.495	3253.71
691.684	3276.24
691.874	3218.89
692.063	3266
692.252	3157.46
692.442	3247.57
692.631	3182.03
692.82	3282.38
693.01	3106.26
693.199	3163.6
693.388	3186.13
693.578	3282.38
693.767	3192.27
693.956	3366.35
694.146	3034.58
694.335	3216.85
694.524	3067.35
694.713	3122.64
694.902	3040.72
695.092	3061.2
695.281	3116.5
695.47	3257.81
695.659	3069.39
695.848	3059.15
696.037	3098.06
696.226	3048.91
696.415	2975.19
696.604	3110.35
696.793	2971.09
696.982	3016.15
697.171	2864.6
697.36	3134.93
697.549	3071.44
697.738	3079.63
697.927	3053.01
698.116	3063.25
698.305	2987.47
698.494	2987.47
698.683	2909.65
698.872	3032.53
699.061	2983.38
699.25	3038.67
699.438	3003.86
699.627	3005.91
699.816	2936.28
700.005	2938.32
700.193	2948.56
700.382	2938.32
700.571	2907.6
700.76	2985.43
700.948	2969.04
701.137	2966.99
701.326	2858.45
701.514	2891.22
701.703	2895.32
701.892	2950.61
702.08	2975.19
702.269	2928.08
702.457	2893.27
702.646	2995.67
702.834	2909.65
703.023	2885.08
703.212	2897.36
703.4	3001.81
703.589	2934.23
703.777	3012.05
703.965	3014.1
704.154	2831.83
704.342	2936.28
704.531	2995.67
704.719	2915.8
704.907	2926.04
705.096	2995.67
705.284	2833.88
705.472	2952.66
705.661	2946.52
705.849	2907.6
706.037	2852.31
706.226	2891.22
706.414	2905.56
706.602	2788.82
706.79	2958.8
706.979	2997.71
707.167	2878.93
707.355	2930.13
707.543	2829.78
707.731	3036.63
707.919	2821.59
708.107	2856.4
708.296	2905.56
708.484	2936.28
708.672	2923.99
708.86	2897.36
709.048	2893.27
709.236	3032.53
709.424	2969.04
709.612	2833.88
709.8	2919.89
709.988	2792.92
710.176	2846.16
710.364	2842.07
710.551	2932.18
710.739	2915.8
710.927	2958.8
711.115	2893.27
711.303	2923.99
711.491	2799.06
711.679	2866.64
711.866	2797.01
712.054	2874.84
712.242	2794.97
712.43	2852.31
712.617	2809.3
712.805	2840.02
712.993	2811.35
713.181	2876.88
713.368	2678.23
713.556	2856.4
713.744	2692.57
713.931	2973.14
714.119	2717.14
714.306	2940.37
714.494	2772.44
714.682	2856.4
714.869	2825.68
715.057	2885.08
715.244	2739.67
715.432	2919.89
715.619	2807.25
715.807	2782.68
715.994	2870.74
716.182	2797.01
716.369	2923.99
716.556	2870.74
716.744	2756.05
716.931	2823.64
717.119	2786.77
717.306	2741.72
717.493	2801.11
717.681	2811.35
717.868	2651.61
718.055	2760.15
718.242	2788.82
718.43	2786.77
718.617	2801.11
718.804	2823.64
718.991	2842.07
719.179	2813.4
719.366	2887.12
719.553	2729.43
719.74	2819.54
719.927	2788.82
720.114	2880.98
720.301	2729.43
720.488	2760.15
720.676	2817.49
720.863	2629.08
721.05	2751.96
721.237	2825.68
721.424	2883.03
721.611	2790.87
721.798	2754.01
721.985	2782.68
722.172	2719.19
722.358	2825.68
722.545	2725.33
722.732	2770.39
722.919	2825.68
723.106	2770.39
723.293	2649.56
723.48	2645.46
723.667	2860.5
723.853	2846.16
724.04	2797.01
724.227	2653.66
724.414	2813.4
724.6	2729.43
724.787	2797.01
724.974	2782.68
725.161	2829.78
725.347	2698.71
725.534	2702.81
725.72	2768.34
725.907	2719.19
726.094	2774.49
726.28	2799.06
726.467	2803.16
726.653	2751.96
726.84	2829.78
727.027	2811.35
727.213	2694.61
727.4	2768.34
727.586	2805.21
727.773	2721.24
727.959	2762.2
728.145	2721.24
728.332	2733.53
728.518	2790.87
728.705	2745.81
728.891	2706.9
729.077	2672.09
729.264	2713.05
729.45	2686.42
729.636	2833.88
729.823	2694.61
730.009	2633.18
730.195	2760.15
730.382	2731.48
730.568	2852.31
730.754	2641.37
730.94	2688.47
731.126	2670.04
731.313	2788.82
731.499	2694.61
731.685	2780.63
731.871	2727.38
732.057	2866.64
732.243	2592.22
732.429	2799.06
732.615	2676.18
732.801	2631.13
732.987	2684.38
733.173	2586.07
733.359	2708.95
733.545	2708.95
733.731	2579.93
733.917	2737.62
734.103	2657.75
734.289	2823.64
734.475	2627.03
734.661	2690.52
734.847	2608.6
735.033	2727.38
735.219	2745.81
735.404	2694.61
735.59	2696.66
735.776	2723.29
735.962	2702.81
736.148	2743.77
736.333	2653.66
736.519	2557.4
736.705	2577.88
736.89	2764.25
737.076	2508.25
737.262	2528.73
737.447	2579.93
737.633	2551.26
737.819	2534.87
738.004	2538.97
738.19	2700.76
738.375	2620.89
738.561	2512.35
738.747	2588.12
738.932	2645.46
739.118	2612.7
739.303	2731.48
739.489	2688.47
739.674	2541.02
739.859	2430.43
740.045	2471.39
740.23	2622.94
740.416	2581.98
740.601	2561.5
740.786	2551.26
740.972	2428.38
741.157	2452.95
741.342	2500.06
741.528	2487.77
741.713	2631.13
741.898	2401.76
742.084	2397.66
742.269	2485.72
742.454	2409.95
742.639	2444.76
742.824	2407.9
743.01	2379.23
743.195	2510.3
743.38	2428.38
743.565	2371.04
743.75	2528.73
743.935	2334.17
744.12	2432.47
744.305	2348.51
744.49	2209.25
744.675	2332.12
744.86	2315.74
745.045	2397.66
745.23	2260.45
745.415	2397.66
745.6	2217.44
745.785	2287.07
745.97	2219.49
746.155	2319.84
746.34	2256.35
746.525	2237.92
746.71	2309.6
746.895	2266.59
747.079	2094.56
747.264	2112.99
747.449	2162.14
747.634	2338.27
747.819	2180.57
748.003	2131.42
748.188	2141.66
748.373	2110.94
748.557	2156
748.742	2029.03
748.927	2049.5
749.111	2110.94
749.296	1959.39
749.481	2082.27
749.665	2057.7
749.85	1965.54
750.034	2031.07
750.219	1949.15
750.404	1994.21
750.588	1908.19
750.773	1965.54
750.957	2018.79
751.141	1957.35
751.326	1871.33
751.51	1885.67
751.695	1920.48
751.879	1895.91
752.064	1822.18
752.248	1965.54
752.432	1912.29
752.617	1918.43
752.801	1787.36
752.985	1883.62
753.17	1773.03
753.354	1752.55
753.538	1768.93
753.722	1709.54
753.907	1756.65
754.091	1766.89
754.275	1646.05
754.459	1760.74
754.643	1701.35
754.828	1752.55
755.012	1601
755.196	1670.63
755.38	1523.18
755.564	1650.15
755.748	1531.37
755.932	1639.91
756.116	1680.87
756.3	1543.66
756.484	1625.58
756.668	1541.61
756.852	1551.85
757.036	1535.46
757.22	1555.94
757.404	1447.4
757.588	1484.27
757.772	1441.26
757.956	1506.79
758.14	1488.36
758.323	1379.82
758.507	1488.36
758.691	1484.27
758.875	1510.89
759.059	1480.17
759.242	1531.37
759.426	1416.68
759.61	1465.83
759.794	1414.63
759.977	1394.15
760.161	1471.98
760.345	1375.72
760.528	1347.05
760.712	1379.82
760.895	1379.82
761.079	1437.16
761.263	1340.91
761.446	1361.39
761.63	1289.71
761.813	1279.47
761.997	1285.61
762.18	1359.34
762.364	1328.62
762.547	1318.38
762.731	1312.24
762.914	1318.38
763.098	1177.07
763.281	1258.99
763.464	1252.84
763.648	1293.8
763.831	1240.56
764.015	1144.3
764.198	1254.89
764.381	1218.03
764.564	1162.73
764.748	1172.97
764.931	1230.32
765.114	1222.13
765.297	1240.56
765.481	1166.83
765.664	1127.92
765.847	1101.3
766.03	1109.49
766.213	1172.97
766.397	1091.06
766.58	1109.49
766.763	1162.73
766.946	1177.07
767.129	1132.01
767.312	1195.5
767.495	1152.49
767.678	1076.72
767.861	1103.34
768.044	1158.64
768.227	1248.75
768.41	1048.05
768.593	1140.21
768.776	1029.62
768.959	1078.77
769.142	1078.77
769.324	1058.29
769.507	1134.06
769.69	1119.73
769.873	1043.95
770.056	1043.95
770.239	1089.01
770.421	1078.77
770.604	1113.58
770.787	1041.9
770.97	1097.2
771.152	1035.76
771.335	1060.34
771.518	988.66
771.7	966.13
771.883	1005.04
772.066	1031.66
772.248	1066.48
772.431	996.85
772.613	984.56
772.796	1027.57
772.978	990.7
773.161	1050.1
773.343	900.59
773.526	980.47
773.708	873.97
773.891	908.79
774.073	1023.47
774.256	908.79
774.438	919.03
774.621	876.02
774.803	947.7
774.985	908.79
775.168	859.63
775.35	900.59
775.532	988.66
775.715	935.41
775.897	884.21
776.079	857.59
776.261	835.06
776.444	800.24
776.626	845.3
776.808	785.91
776.99	785.91
777.173	794.1
777.355	806.39
777.537	878.07
777.719	757.24
777.901	783.86
778.083	744.95
778.265	699.89
778.447	761.33
778.629	781.81
778.811	904.69
778.993	722.42
779.175	726.52
779.357	816.63
779.539	744.95
779.721	755.19
779.903	753.14
780.085	740.85
780.267	769.52
780.449	630.26
780.631	679.41
780.812	761.33
780.994	663.03
781.176	624.12
781.358	632.31
781.54	660.98
781.721	622.07
781.903	644.6
782.085	681.46
782.267	710.13
782.448	677.37
782.63	732.66
782.812	640.5
782.993	703.99
783.175	636.41
783.357	609.78
783.538	581.11
783.72	540.15
783.901	572.92
784.083	587.26
784.264	517.62
784.446	587.26
784.627	585.21
784.809	595.45
784.99	644.6
785.172	603.64
785.353	617.97
785.535	515.58
785.716	583.16
785.897	478.71
786.079	577.02
786.26	564.73
786.441	581.11
786.623	609.78
786.804	540.15
786.985	544.25
787.167	513.53
787.348	499.19
787.529	556.54
787.71	493.05
787.891	427.51
788.073	441.85
788.254	511.48
788.435	521.72
788.616	507.38
788.797	497.14
788.978	466.42
789.159	495.1
789.34	609.78
789.522	421.37
789.703	460.28
789.884	388.6
790.065	409.08
790.246	450.04
790.427	466.42
790.607	466.42
790.788	474.62
790.969	421.37
791.15	443.9
791.331	493.05
791.512	425.47
791.693	415.23
791.874	398.84
792.054	359.93
792.235	495.1
792.416	437.75
792.597	413.18
792.778	431.61
792.958	390.65
793.139	398.84
793.32	435.71
793.5	423.42
793.681	355.83
793.862	392.7
794.042	419.32
794.223	308.73
794.404	431.61
794.584	359.93
794.765	419.32
794.945	314.88
795.126	380.41
795.306	349.69
795.487	337.4
795.667	337.4
795.848	370.17
796.028	370.17
796.209	390.65
796.389	392.7
796.57	339.45
796.75	359.93
796.93	296.44
797.111	386.55
797.291	331.26
797.471	261.63
797.652	284.16
797.832	284.16
798.012	384.51
798.192	263.68
798.373	351.74
798.553	327.16
798.733	333.31
798.913	282.11
799.093	349.69
799.274	409.08
799.454	302.59
799.634	310.78
799.814	259.58
799.994	310.78
800.174	359.93
800.354	237.05
800.534	368.12
800.714	341.5
800.894	302.59
801.074	304.64
801.254	316.92
801.434	318.97
801.614	284.16
801.794	247.29
801.974	738.8
802.154	286.2
802.334	306.68
802.514	265.72
802.693	245.24
802.873	308.73
803.053	261.63
803.233	275.96
803.413	308.73
803.592	302.59
803.772	357.88
803.952	226.81
804.131	273.92
804.311	275.96
804.491	255.48
804.67	337.4
804.85	228.86
805.03	269.82
805.209	235
805.389	261.63
805.568	247.29
805.748	226.81
805.928	275.96
806.107	282.11
806.287	251.39
806.466	278.01
806.646	278.01
806.825	243.2
807.004	280.06
807.184	194.05
807.363	175.61
807.543	286.2
807.722	196.09
807.901	224.76
808.081	200.19
808.26	226.81
808.439	200.19
808.619	159.23
808.798	267.77
808.977	294.4
809.156	230.91
809.336	214.52
809.515	278.01
809.694	243.2
809.873	275.96
810.052	192
810.231	216.57
810.411	212.48
810.59	173.57
810.769	173.57
810.948	202.24
811.127	179.71
811.306	148.99
811.485	216.57
811.664	241.15
811.843	116.22
812.022	232.96
812.201	163.33
812.38	173.57
812.559	245.24
812.737	222.72
812.916	204.28
813.095	249.34
813.274	183.81
813.453	269.82
813.632	171.52
813.811	140.8
813.989	185.85
814.168	134.65
814.347	165.37
814.526	237.05
814.704	118.27
814.883	218.62
815.062	214.52
815.24	237.05
815.419	194.05
815.598	251.39
815.776	144.89
815.955	235
816.133	140.8
816.312	228.86
816.49	155.13
816.669	140.8
816.847	142.85
817.026	171.52
817.204	159.23
817.383	196.09
817.561	140.8
817.74	173.57
817.918	216.57
818.097	136.7
818.275	146.94
818.453	105.98
818.632	159.23
818.81	126.46
818.988	232.96
819.167	110.08
819.345	138.75
819.523	216.57
819.701	103.93
819.879	167.42
820.058	153.09
820.236	161.28
820.414	142.85
820.592	120.32
820.77	167.42
820.948	112.13
821.127	132.61
821.305	187.9
821.483	126.46
821.661	130.56
821.839	124.41
822.017	101.89
822.195	95.74
822.373	126.46
822.551	173.57
822.729	146.94
822.907	132.61
823.085	163.33
823.262	159.23
823.44	165.37
823.618	19.97
823.796	185.85
823.974	54.78
824.152	153.09
824.329	110.08
824.507	155.13
824.685	97.79
824.863	120.32
825.04	122.37
825.218	116.22
825.396	48.64
825.574	157.18
825.751	167.42
825.929	171.52
826.107	103.93
826.284	128.51
826.462	128.51
826.639	112.13
826.817	52.74
826.994	69.12
827.172	93.69
827.349	99.84
827.527	173.57
827.704	183.81
827.882	175.61
828.059	185.85
828.237	87.55
828.414	134.65
828.591	134.65
828.769	126.46
828.946	103.93
829.124	163.33
829.301	122.37
829.478	103.93
829.655	118.27
829.833	146.94
830.01	81.41
830.187	77.31
830.364	22.02
830.542	136.7
830.719	128.51
830.896	151.04
831.073	67.07
831.25	185.85
831.427	103.93
831.604	56.83
831.782	130.56
831.959	198.14
832.136	159.23
832.313	159.23
832.49	69.12
832.667	134.65
832.844	155.13
833.021	73.21
833.198	99.84
833.374	83.45
833.551	62.98
833.728	108.03
833.905	93.69
834.082	183.81
834.259	91.65
834.436	163.33
834.612	91.65
834.789	144.89
834.966	99.84
835.143	116.22
835.319	95.74
835.496	124.41
835.673	97.79
835.85	103.93
836.026	130.56
836.203	108.03
836.38	26.11
836.556	101.89
836.733	110.08
836.909	28.16
837.086	95.74
837.262	7.68
837.439	54.78
837.616	15.87
837.792	138.75
837.968	65.02
838.145	103.93
838.321	146.94
838.498	95.74
838.674	132.61
838.851	128.51
839.027	101.89
839.203	99.84
839.38	118.27
839.556	101.89
839.732	85.5
839.909	75.26
840.085	132.61
840.261	81.41
840.437	134.65
840.614	44.54
840.79	118.27
840.966	120.32
841.142	124.41
841.318	69.12
841.494	134.65
841.671	126.46
841.847	132.61
842.023	15.87
842.199	85.5
842.375	130.56
842.551	44.54
842.727	93.69
842.903	91.65
843.079	62.98
843.255	75.26
843.431	58.88
843.607	105.98
843.783	13.82
843.959	153.09
844.134	85.5
844.31	36.35
844.486	5.63
844.662	60.93
844.838	79.36
845.013	69.12
845.189	34.3
845.365	40.45
845.541	118.27
845.716	105.98
845.892	105.98
846.068	7.68
846.244	50.69
846.419	34.3
846.595	71.17
846.77	36.35
846.946	110.08
847.122	42.5
847.297	36.35
847.473	93.69
847.648	40.45
847.824	42.5
847.999	7.68
848.175	56.83
848.35	50.69
848.526	44.54
848.701	97.79
848.876	13.82
849.052	58.88
849.227	77.31
849.403	77.31
849.578	50.69
849.753	67.07
849.929	77.31
850.104	73.21
850.279	93.69
850.454	60.93
850.63	97.79
850.805	56.83
850.98	7.68
851.155	60.93
851.33	34.3
851.505	-2.56
851.681	132.61
851.856	28.16
852.031	77.31
852.206	81.41
852.381	67.07
852.556	60.93
852.731	-14.85
852.906	56.83
853.081	120.32
853.256	163.33
853.431	58.88
853.606	42.5
853.781	26.11
853.956	3.58
854.131	91.65
854.305	28.16
854.48	32.26
854.655	30.21
854.83	71.17
855.005	93.69
855.18	56.83
855.354	1.54
855.529	89.6
855.704	-20.99
855.879	89.6
856.053	1.54
856.228	83.45
856.403	34.3
856.577	99.84
856.752	38.4
856.926	83.45
857.101	-0.51
857.276	-4.61
857.45	60.93
857.625	75.26
857.799	40.45
857.974	62.98
858.148	38.4
858.323	38.4
858.497	95.74
858.672	17.92
858.846	40.45
859.02	34.3
859.195	-0.51
859.369	54.78
859.543	73.21
859.718	19.97
859.892	24.06
860.066	32.26
860.241	77.31
860.415	36.35
860.589	81.41
860.763	26.11
860.938	52.74
861.112	44.54
861.286	62.98
861.46	54.78
861.634	46.59
861.808	56.83
861.982	-14.85
862.157	-8.7
862.331	-12.8
862.505	-6.66
862.679	24.06
862.853	56.83
863.027	26.11
863.201	114.17
863.375	9.73
863.549	71.17
863.722	83.45
863.896	-2.56
864.07	48.64
864.244	114.17
864.418	65.02
864.592	-27.14
864.766	32.26
864.939	56.83
865.113	13.82
865.287	24.06
865.461	56.83
865.634	22.02
865.808	7.68
865.982	1.54
866.156	19.97
866.329	-18.94
866.503	28.16
866.676	38.4
866.85	11.78
867.024	87.55
867.197	62.98
867.371	-10.75
867.544	32.26
867.718	62.98
867.891	-12.8
868.065	-25.09
868.238	3.58
868.412	85.5
868.585	19.97
868.759	28.16
868.932	48.64
869.105	-8.7
869.279	105.98
869.452	-29.18
869.625	-27.14
869.799	36.35
869.972	1.54
870.145	-12.8
870.319	71.17
870.492	58.88
870.665	-20.99
870.838	56.83
871.011	11.78
871.185	30.21
871.358	-16.9
871.531	17.92
871.704	50.69
871.877	7.68
872.05	3.58
872.223	11.78
872.396	108.03
872.569	42.5
872.742	3.58
872.915	38.4
873.088	-16.9
873.261	38.4
873.434	24.06
873.607	81.41
873.78	-25.09
873.953	-12.8
874.126	-25.09
874.299	89.6
874.471	36.35
874.644	36.35
874.817	5.63
874.99	93.69
875.163	65.02
875.335	40.45
875.508	28.16
875.681	69.12
875.853	28.16
876.026	-16.9
876.199	26.11
876.371	77.31
876.544	28.16
876.717	17.92
876.889	40.45
877.062	101.89
877.234	15.87
877.407	69.12
877.579	-18.94
877.752	81.41
877.924	73.21
878.097	-18.94
878.269	1.54
878.442	50.69
878.614	5.63
878.786	38.4
878.959	40.45
879.131	22.02
879.303	52.74
879.476	54.78
879.648	34.3
879.82	89.6
879.993	15.87
880.165	30.21
880.337	1.54
880.509	73.21
880.681	36.35
880.854	138.75
881.026	46.59
881.198	-2.56
881.37	-41.47
881.542	71.17
881.714	77.31
881.886	7.68
882.058	28.16
882.23	3.58
882.402	7.68
882.574	28.16
882.746	62.98
882.918	71.17
883.09	71.17
883.262	46.59
883.434	-18.94
883.606	32.26
883.778	-4.61
883.95	65.02
884.122	48.64
884.293	19.97
884.465	89.6
884.637	-57.86
884.809	112.13
884.98	-20.99
885.152	30.21
885.324	85.5
885.496	3.58
885.667	15.87
885.839	24.06
886.011	85.5
886.182	15.87
886.354	-12.8
886.525	50.69
886.697	22.02
886.869	17.92
887.04	1.54
887.212	17.92
887.383	56.83
887.555	50.69
887.726	44.54
887.897	9.73
888.069	40.45
888.24	142.85
888.412	19.97
888.583	58.88
888.754	34.3
888.926	46.59
889.097	36.35
889.268	13.82
889.44	-16.9
889.611	15.87
889.782	9.73
889.953	22.02
890.125	32.26
890.296	44.54
890.467	75.26
890.638	44.54
890.809	73.21
890.98	19.97
891.151	89.6
891.323	48.64
891.494	44.54
891.665	101.89
891.836	-2.56
892.007	36.35
892.178	1.54
892.349	73.21
892.52	28.16
892.691	26.11
892.862	36.35
893.032	-8.7
893.203	26.11
893.374	38.4
893.545	122.37
893.716	38.4
893.887	73.21
894.057	40.45
894.228	85.5
894.399	32.26
894.57	44.54
894.74	13.82
894.911	56.83
895.082	-14.85
895.253	15.87
895.423	5.63
895.594	3.58
895.764	22.02
895.935	3.58
896.106	40.45
896.276	32.26
896.447	58.88
896.617	132.61
896.788	-39.42
896.958	62.98
897.129	24.06
897.299	-37.38
897.47	103.93
897.64	73.21
897.81	-14.85
897.981	17.92
898.151	36.35
898.322	81.41
898.492	87.55
898.662	69.12
898.832	52.74
899.003	-51.71
899.173	36.35
899.343	26.11
899.513	-2.56
