Data from USB4F104151__110__11-07-15-078.txt Node

Date: Wed Mar 12 11:07:15 EDT 2025
User: louis
Spectrometer: USB4F10415
Trigger mode: 4
Integration Time (sec): 2.000000E-2
Scans to average: 1
Electric dark correction enabled: true
Nonlinearity correction enabled: false
Boxcar width: 0
XAxis mode: Wavelengths
Number of Pixels in Spectrum: 3648
>>>>>Begin Spectral Data<<<<<
178.204	-102.23
178.424	-102.23
178.644	-102.23
178.864	-124.76
179.084	-51.03
179.304	-34.64
179.524	-40.79
179.744	30.89
179.964	34.99
180.184	-26.45
180.404	-5.97
180.624	-18.26
180.844	65.71
181.064	-14.17
181.283	0.17
181.503	12.46
181.723	-3.93
181.943	-34.64
182.163	-20.31
182.383	-20.31
182.602	45.23
182.822	10.41
183.042	41.13
183.262	32.94
183.482	-12.12
183.701	86.19
183.921	39.08
184.141	24.75
184.361	67.75
184.58	-1.88
184.8	18.6
185.02	2.22
185.239	0.17
185.459	22.7
185.679	51.37
185.898	26.79
186.118	71.85
186.338	24.75
186.557	30.89
186.777	-28.5
186.997	2.22
187.216	16.55
187.436	2.22
187.655	34.99
187.875	30.89
188.095	30.89
188.314	-24.4
188.534	59.56
188.753	80.04
188.973	37.03
189.192	47.27
189.412	8.36
189.631	43.18
189.851	-28.5
190.07	47.27
190.29	-38.74
190.509	16.55
190.729	51.37
190.948	43.18
191.168	28.84
191.387	-14.17
191.607	-42.84
191.826	47.27
192.045	67.75
192.265	18.6
192.484	80.04
192.704	-8.02
192.923	-85.84
193.142	164.01
193.362	34.99
193.581	98.47
193.8	28.84
194.02	63.66
194.239	8.36
194.458	30.89
194.678	61.61
194.897	-5.97
195.116	22.7
195.335	98.47
195.555	110.76
195.774	12.46
195.993	26.79
196.212	45.23
196.432	-14.17
196.651	14.51
196.87	24.75
197.089	96.43
197.308	90.28
197.528	26.79
197.747	10.41
197.966	12.46
198.185	110.76
198.404	34.99
198.623	49.32
198.842	-18.26
199.062	41.13
199.281	24.75
199.5	59.56
199.719	121
199.938	22.7
200.157	90.28
200.376	-22.36
200.595	-3.93
200.814	-8.02
201.033	-14.17
201.252	90.28
201.471	-20.31
201.69	18.6
201.909	22.7
202.128	71.85
202.347	0.17
202.566	-18.26
202.785	-34.64
203.004	-3.93
203.223	34.99
203.442	34.99
203.661	96.43
203.879	10.41
204.098	96.43
204.317	49.32
204.536	80.04
204.755	6.31
204.974	102.57
205.193	-1.88
205.411	125.1
205.63	6.31
205.849	51.37
206.068	-3.93
206.287	26.79
206.505	65.71
206.724	-20.31
206.943	43.18
207.162	80.04
207.381	22.7
207.599	2.22
207.818	61.61
208.037	16.55
208.255	12.46
208.474	59.56
208.693	6.31
208.911	67.75
209.13	20.65
209.349	34.99
209.567	73.9
209.786	53.42
210.005	-22.36
210.223	37.03
210.442	-14.17
210.661	28.84
210.879	39.08
211.098	-1.88
211.316	49.32
211.535	59.56
211.753	34.99
211.972	6.31
212.191	8.36
212.409	55.47
212.628	22.7
212.846	26.79
213.065	63.66
213.283	4.27
213.502	6.31
213.72	73.9
213.938	-40.79
214.157	6.31
214.375	-18.26
214.594	-10.07
214.812	90.28
215.031	39.08
215.249	73.9
215.467	49.32
215.686	75.95
215.904	71.85
216.122	88.23
216.341	39.08
216.559	-3.93
216.778	149.67
216.996	63.66
217.214	26.79
217.432	49.32
217.651	55.47
217.869	-3.93
218.087	110.76
218.306	26.79
218.524	30.89
218.742	-73.56
218.96	6.31
219.179	49.32
219.397	84.14
219.615	65.71
219.833	39.08
220.051	-10.07
220.27	71.85
220.488	73.9
220.706	53.42
220.924	14.51
221.142	28.84
221.36	18.6
221.578	86.19
221.796	-16.21
222.015	45.23
222.233	10.41
222.451	47.27
222.669	-48.98
222.887	71.85
223.105	14.51
223.323	37.03
223.541	37.03
223.759	32.94
223.977	69.8
224.195	26.79
224.413	24.75
224.631	63.66
224.849	47.27
225.067	59.56
225.285	57.51
225.503	-59.22
225.721	-16.21
225.939	90.28
226.157	-32.6
226.375	26.79
226.592	24.75
226.81	34.99
227.028	37.03
227.246	63.66
227.464	43.18
227.682	53.42
227.9	92.33
228.117	12.46
228.335	-8.02
228.553	55.47
228.771	-57.17
228.989	-8.02
229.206	-1.88
229.424	10.41
229.642	45.23
229.86	34.99
230.077	102.57
230.295	75.95
230.513	14.51
230.731	16.55
230.948	51.37
231.166	18.6
231.384	4.27
231.601	34.99
231.819	-3.93
232.037	-22.36
232.254	2.22
232.472	77.99
232.689	22.7
232.907	106.67
233.125	-24.4
233.342	-20.31
233.56	-12.12
233.777	-3.93
233.995	-18.26
234.213	63.66
234.43	39.08
234.648	96.43
234.865	26.79
235.083	20.65
235.3	-1.88
235.518	18.6
235.735	34.99
235.953	55.47
236.17	114.86
236.388	34.99
236.605	34.99
236.822	47.27
237.04	37.03
237.257	37.03
237.475	-63.32
237.692	37.03
237.909	43.18
238.127	22.7
238.344	-10.07
238.562	24.75
238.779	-40.79
238.996	2.22
239.214	10.41
239.431	57.51
239.648	-38.74
239.865	0.17
240.083	86.19
240.3	59.56
240.517	55.47
240.735	14.51
240.952	98.47
241.169	63.66
241.386	34.99
241.603	8.36
241.821	28.84
242.038	94.38
242.255	37.03
242.472	30.89
242.689	4.27
242.907	53.42
243.124	12.46
243.341	41.13
243.558	41.13
243.775	73.9
243.992	-18.26
244.209	63.66
244.426	118.95
244.643	63.66
244.86	41.13
245.078	0.17
245.295	4.27
245.512	34.99
245.729	26.79
245.946	20.65
246.163	41.13
246.38	86.19
246.597	37.03
246.814	6.31
247.031	86.19
247.248	43.18
247.464	43.18
247.681	14.51
247.898	51.37
248.115	63.66
248.332	34.99
248.549	-5.97
248.766	18.6
248.983	26.79
249.2	51.37
249.417	92.33
249.633	77.99
249.85	65.71
250.067	65.71
250.284	100.52
250.501	84.14
250.717	80.04
250.934	-20.31
251.151	43.18
251.368	24.75
251.585	30.89
251.801	2.22
252.018	18.6
252.235	71.85
252.451	82.09
252.668	-81.75
252.885	47.27
253.102	43.18
253.318	43.18
253.535	84.14
253.752	47.27
253.968	57.51
254.185	26.79
254.401	-10.07
254.618	-26.45
254.835	0.17
255.051	49.32
255.268	37.03
255.484	47.27
255.701	59.56
255.917	37.03
256.134	43.18
256.351	65.71
256.567	65.71
256.784	55.47
257	8.36
257.217	-10.07
257.433	100.52
257.65	30.89
257.866	57.51
258.082	63.66
258.299	-46.93
258.515	41.13
258.732	14.51
258.948	10.41
259.165	65.71
259.381	77.99
259.597	24.75
259.814	20.65
260.03	0.17
260.246	53.42
260.463	61.61
260.679	82.09
260.895	-8.02
261.112	61.61
261.328	34.99
261.544	14.51
261.761	86.19
261.977	16.55
262.193	-38.74
262.409	63.66
262.626	28.84
262.842	0.17
263.058	45.23
263.274	24.75
263.49	102.57
263.707	71.85
263.923	4.27
264.139	41.13
264.355	37.03
264.571	75.95
264.787	10.41
265.004	102.57
265.22	-3.93
265.436	39.08
265.652	92.33
265.868	26.79
266.084	-14.17
266.3	75.95
266.516	-38.74
266.732	-32.6
266.948	59.56
267.164	24.75
267.38	59.56
267.596	80.04
267.812	71.85
268.028	-5.97
268.244	49.32
268.46	-12.12
268.676	51.37
268.892	55.47
269.108	-59.22
269.324	-5.97
269.54	-67.41
269.756	-1.88
269.972	14.51
270.188	22.7
270.403	-24.4
270.619	-18.26
270.835	73.9
271.051	-38.74
271.267	75.95
271.483	53.42
271.698	116.9
271.914	41.13
272.13	-3.93
272.346	-48.98
272.562	39.08
272.777	14.51
272.993	32.94
273.209	18.6
273.425	12.46
273.64	30.89
273.856	16.55
274.072	63.66
274.287	6.31
274.503	67.75
274.719	37.03
274.934	75.95
275.15	24.75
275.366	12.46
275.581	-16.21
275.797	43.18
276.012	125.1
276.228	30.89
276.444	84.14
276.659	12.46
276.875	-1.88
277.09	96.43
277.306	8.36
277.521	137.38
277.737	-26.45
277.952	98.47
278.168	-3.93
278.383	69.8
278.599	41.13
278.814	43.18
279.03	30.89
279.245	18.6
279.461	77.99
279.676	14.51
279.892	-32.6
280.107	86.19
280.322	-28.5
280.538	37.03
280.753	20.65
280.969	10.41
281.184	39.08
281.399	90.28
281.615	43.18
281.83	26.79
282.045	63.66
282.26	75.95
282.476	-55.12
282.691	71.85
282.906	63.66
283.122	73.9
283.337	41.13
283.552	26.79
283.767	34.99
283.983	32.94
284.198	86.19
284.413	73.9
284.628	-26.45
284.843	75.95
285.058	90.28
285.274	65.71
285.489	22.7
285.704	80.04
285.919	16.55
286.134	84.14
286.349	4.27
286.564	4.27
286.779	-1.88
286.995	84.14
287.21	37.03
287.425	59.56
287.64	22.7
287.855	55.47
288.07	-22.36
288.285	34.99
288.5	-14.17
288.715	63.66
288.93	41.13
289.145	-12.12
289.36	63.66
289.575	41.13
289.79	-16.21
290.004	43.18
290.219	10.41
290.434	18.6
290.649	53.42
290.864	22.7
291.079	69.8
291.294	18.6
291.509	10.41
291.724	39.08
291.938	10.41
292.153	108.71
292.368	-1.88
292.583	55.47
292.798	57.51
293.012	26.79
293.227	37.03
293.442	71.85
293.657	94.38
293.871	43.18
294.086	65.71
294.301	59.56
294.516	92.33
294.73	82.09
294.945	75.95
295.16	30.89
295.374	30.89
295.589	71.85
295.804	8.36
296.018	26.79
296.233	6.31
296.447	61.61
296.662	51.37
296.877	102.57
297.091	41.13
297.306	-1.88
297.52	71.85
297.735	14.51
297.949	22.7
298.164	41.13
298.378	34.99
298.593	-10.07
298.807	73.9
299.022	51.37
299.236	63.66
299.451	75.95
299.665	-22.36
299.88	80.04
300.094	47.27
300.309	41.13
300.523	82.09
300.737	65.71
300.952	-12.12
301.166	84.14
301.381	32.94
301.595	37.03
301.809	51.37
302.024	37.03
302.238	-1.88
302.452	77.99
302.667	4.27
302.881	116.9
303.095	-5.97
303.309	20.65
303.524	-1.88
303.738	57.51
303.952	43.18
304.166	75.95
304.381	39.08
304.595	94.38
304.809	34.99
305.023	0.17
305.237	67.75
305.452	47.27
305.666	71.85
305.88	10.41
306.094	30.89
306.308	59.56
306.522	28.84
306.736	30.89
306.95	-12.12
307.164	59.56
307.379	-8.02
307.593	96.43
307.807	92.33
308.021	2.22
308.235	2.22
308.449	37.03
308.663	94.38
308.877	110.76
309.091	116.9
309.305	51.37
309.519	14.51
309.733	61.61
309.947	20.65
310.161	30.89
310.374	24.75
310.588	34.99
310.802	47.27
311.016	86.19
311.23	8.36
311.444	90.28
311.658	20.65
311.872	135.34
312.085	75.95
312.299	69.8
312.513	63.66
312.727	59.56
312.941	41.13
313.154	28.84
313.368	22.7
313.582	47.27
313.796	22.7
314.009	14.51
314.223	82.09
314.437	63.66
314.651	22.7
314.864	106.67
315.078	0.17
315.292	90.28
315.505	-18.26
315.719	90.28
315.933	71.85
316.146	-30.55
316.36	41.13
316.573	84.14
316.787	73.9
317.001	69.8
317.214	12.46
317.428	57.51
317.641	75.95
317.855	92.33
318.068	30.89
318.282	30.89
318.495	39.08
318.709	51.37
318.922	121
319.136	22.7
319.349	112.81
319.563	59.56
319.776	45.23
319.99	16.55
320.203	82.09
320.417	34.99
320.63	88.23
320.843	98.47
321.057	22.7
321.27	24.75
321.483	47.27
321.697	2.22
321.91	82.09
322.124	127.14
322.337	4.27
322.55	49.32
322.763	28.84
322.977	20.65
323.19	57.51
323.403	-12.12
323.617	32.94
323.83	-48.98
324.043	20.65
324.256	28.84
324.469	80.04
324.683	63.66
324.896	26.79
325.109	20.65
325.322	16.55
325.535	90.28
325.748	22.7
325.962	22.7
326.175	14.51
326.388	-8.02
326.601	26.79
326.814	82.09
327.027	-1.88
327.24	24.75
327.453	16.55
327.666	129.19
327.879	77.99
328.092	-1.88
328.305	2.22
328.518	32.94
328.731	65.71
328.944	151.72
329.157	108.71
329.37	77.99
329.583	59.56
329.796	39.08
330.009	49.32
330.222	86.19
330.435	75.95
330.648	14.51
330.861	63.66
331.073	-3.93
331.286	114.86
331.499	-1.88
331.712	-10.07
331.925	30.89
332.138	43.18
332.35	90.28
332.563	55.47
332.776	47.27
332.989	2.22
333.202	47.27
333.414	39.08
333.627	49.32
333.84	73.9
334.053	51.37
334.265	63.66
334.478	-22.36
334.691	-5.97
334.903	49.32
335.116	6.31
335.329	24.75
335.541	77.99
335.754	16.55
335.966	10.41
336.179	75.95
336.392	75.95
336.604	34.99
336.817	51.37
337.029	-14.17
337.242	20.65
337.454	61.61
337.667	30.89
337.88	75.95
338.092	-1.88
338.305	22.7
338.517	10.41
338.729	12.46
338.942	41.13
339.154	84.14
339.367	20.65
339.579	43.18
339.792	32.94
340.004	16.55
340.217	73.9
340.429	-8.02
340.641	-8.02
340.854	43.18
341.066	12.46
341.278	174.25
341.491	106.67
341.703	-1.88
341.915	73.9
342.128	63.66
342.34	75.95
342.552	73.9
342.764	49.32
342.977	24.75
343.189	28.84
343.401	41.13
343.613	73.9
343.826	75.95
344.038	16.55
344.25	110.76
344.462	45.23
344.674	92.33
344.886	32.94
345.099	53.42
345.311	57.51
345.523	16.55
345.735	51.37
345.947	73.9
346.159	49.32
346.371	71.85
346.583	28.84
346.795	102.57
347.007	47.27
347.219	18.6
347.431	55.47
347.643	69.8
347.855	14.51
348.067	28.84
348.279	53.42
348.491	86.19
348.703	49.32
348.915	104.62
349.127	118.95
349.339	26.79
349.551	71.85
349.763	57.51
349.975	22.7
350.187	28.84
350.399	34.99
350.61	53.42
350.822	123.05
351.034	45.23
351.246	65.71
351.458	22.7
351.669	37.03
351.881	22.7
352.093	47.27
352.305	8.36
352.517	63.66
352.728	51.37
352.94	39.08
353.152	80.04
353.363	106.67
353.575	39.08
353.787	92.33
353.999	49.32
354.21	77.99
354.422	61.61
354.633	2.22
354.845	12.46
355.057	28.84
355.268	57.51
355.48	30.89
355.692	22.7
355.903	2.22
356.115	51.37
356.326	-8.02
356.538	90.28
356.749	77.99
356.961	82.09
357.172	59.56
357.384	51.37
357.595	88.23
357.807	-16.21
358.018	26.79
358.23	73.9
358.441	55.47
358.653	71.85
358.864	-3.93
359.075	26.79
359.287	59.56
359.498	88.23
359.709	34.99
359.921	43.18
360.132	45.23
360.344	12.46
360.555	-30.55
360.766	-12.12
360.977	92.33
361.189	77.99
361.4	127.14
361.611	86.19
361.823	82.09
362.034	73.9
362.245	0.17
362.456	57.51
362.667	30.89
362.879	30.89
363.09	53.42
363.301	12.46
363.512	47.27
363.723	8.36
363.935	80.04
364.146	37.03
364.357	2.22
364.568	28.84
364.779	86.19
364.99	110.76
365.201	43.18
365.412	75.95
365.623	102.57
365.834	63.66
366.045	61.61
366.256	30.89
366.467	67.75
366.678	51.37
366.889	59.56
367.1	26.79
367.311	43.18
367.522	47.27
367.733	75.95
367.944	86.19
368.155	65.71
368.366	39.08
368.577	77.99
368.788	131.24
368.999	34.99
369.209	59.56
369.42	59.56
369.631	88.23
369.842	110.76
370.053	43.18
370.264	6.31
370.474	77.99
370.685	96.43
370.896	96.43
371.107	133.29
371.317	77.99
371.528	80.04
371.739	77.99
371.95	41.13
372.16	88.23
372.371	82.09
372.582	22.7
372.792	90.28
373.003	30.89
373.214	77.99
373.424	96.43
373.635	34.99
373.846	86.19
374.056	-55.12
374.267	116.9
374.477	-5.97
374.688	59.56
374.898	100.52
375.109	32.94
375.319	63.66
375.53	90.28
375.74	73.9
375.951	51.37
376.161	53.42
376.372	67.75
376.582	2.22
376.793	22.7
377.003	94.38
377.214	20.65
377.424	90.28
377.635	71.85
377.845	-18.26
378.055	49.32
378.266	10.41
378.476	67.75
378.686	24.75
378.897	53.42
379.107	67.75
379.317	90.28
379.528	51.37
379.738	123.05
379.948	-14.17
380.158	57.51
380.369	90.28
380.579	59.56
380.789	59.56
380.999	77.99
381.21	26.79
381.42	92.33
381.63	67.75
381.84	121
382.05	88.23
382.261	4.27
382.471	80.04
382.681	43.18
382.891	86.19
383.101	102.57
383.311	51.37
383.521	53.42
383.731	57.51
383.941	96.43
384.151	-8.02
384.361	24.75
384.571	88.23
384.781	69.8
384.991	94.38
385.201	166.06
385.411	32.94
385.621	53.42
385.831	94.38
386.041	22.7
386.251	61.61
386.461	114.86
386.671	47.27
386.881	26.79
387.091	55.47
387.301	94.38
387.511	65.71
387.72	116.9
387.93	73.9
388.14	-18.26
388.35	30.89
388.56	86.19
388.769	41.13
388.979	139.43
389.189	71.85
389.399	71.85
389.609	127.14
389.818	106.67
390.028	47.27
390.238	71.85
390.447	92.33
390.657	125.1
390.867	106.67
391.076	-48.98
391.286	123.05
391.496	47.27
391.705	43.18
391.915	123.05
392.125	106.67
392.334	75.95
392.544	88.23
392.753	104.62
392.963	71.85
393.172	47.27
393.382	45.23
393.591	118.95
393.801	84.14
394.01	92.33
394.22	84.14
394.429	80.04
394.639	41.13
394.848	53.42
395.058	92.33
395.267	90.28
395.477	16.55
395.686	116.9
395.895	104.62
396.105	118.95
396.314	37.03
396.524	49.32
396.733	80.04
396.942	141.48
397.152	141.48
397.361	135.34
397.57	100.52
397.78	123.05
397.989	65.71
398.198	151.72
398.407	59.56
398.617	106.67
398.826	137.38
399.035	129.19
399.244	143.53
399.453	131.24
399.663	53.42
399.872	131.24
400.081	104.62
400.29	157.86
400.499	94.38
400.708	135.34
400.917	182.44
401.127	133.29
401.336	133.29
401.545	192.68
401.754	123.05
401.963	149.67
402.172	108.71
402.381	141.48
402.59	90.28
402.799	121
403.008	86.19
403.217	71.85
403.426	202.92
403.635	178.34
403.844	135.34
404.053	186.54
404.262	123.05
404.471	147.62
404.68	178.34
404.888	166.06
405.097	139.43
405.306	204.97
405.515	239.78
405.724	258.21
405.933	204.97
406.142	159.91
406.35	243.88
406.559	223.4
406.768	161.96
406.977	250.02
407.185	204.97
407.394	141.48
407.603	159.91
407.812	190.63
408.02	258.21
408.229	229.54
408.438	313.51
408.646	274.6
408.855	338.09
409.064	301.22
409.272	338.09
409.481	315.56
409.69	342.18
409.898	327.85
410.107	333.99
410.315	309.41
410.524	465.06
410.733	374.95
410.941	454.82
411.15	444.58
411.358	522.4
411.567	522.4
411.775	506.02
411.984	493.73
412.192	501.92
412.401	495.78
412.609	532.64
412.818	645.28
413.026	577.7
413.234	557.22
413.443	616.61
413.651	602.27
413.86	641.18
414.068	686.24
414.276	784.54
414.485	749.73
414.693	755.87
414.901	759.97
415.11	788.64
415.318	794.78
415.526	794.78
415.734	913.56
415.943	858.27
416.151	956.57
416.359	960.67
416.567	1020.06
416.776	938.14
416.984	1024.16
417.192	1104.03
417.4	1087.64
417.608	983.2
417.817	1120.41
418.025	1271.96
418.233	1378.45
418.441	1329.3
418.649	1421.46
418.857	1435.8
419.065	1530
419.273	1470.61
419.481	1562.77
419.689	1665.17
419.897	1685.65
420.105	1630.35
420.313	1652.88
420.521	1843.34
420.729	1912.97
420.937	1910.93
421.145	1964.17
421.353	2062.48
421.561	2099.34
421.769	2168.97
421.977	2326.66
422.185	2179.21
422.393	2373.77
422.601	2717.83
422.809	2732.16
423.017	2543.75
423.224	2726.02
423.432	2775.17
423.64	2785.41
423.848	3072.12
424.056	2930.81
424.263	3166.33
424.471	3156.09
424.679	3115.13
424.887	3364.98
425.094	3532.92
425.302	3686.51
425.51	3635.32
425.718	3803.25
425.925	3815.54
426.133	4114.54
426.341	4173.93
426.548	4429.93
426.756	4434.02
426.964	4530.28
427.171	4782.18
427.379	4950.11
427.586	5011.55
427.794	5027.93
428.001	5283.93
428.209	5447.77
428.417	5531.73
428.624	5916.75
428.832	5908.56
429.039	5773.39
429.247	5863.51
429.454	6414.41
429.662	6832.19
429.869	6438.98
430.076	6846.53
430.284	6559.81
430.491	7090.24
430.699	7292.99
430.906	7424.06
431.114	7413.82
431.321	7452.73
431.528	7907.38
431.736	8265.77
431.943	8745
432.15	8591.4
432.358	8476.71
432.565	9082.91
432.772	9078.82
432.979	9338.91
433.187	9678.87
433.394	9787.41
433.601	10510.35
433.808	10471.43
434.016	10295.31
434.223	10764.29
434.43	11542.52
434.637	11032.58
434.844	11792.37
435.052	12453.87
435.259	12050.42
435.466	12074.99
435.673	11806.71
435.88	12752.87
436.087	13350.88
436.294	13555.68
436.501	13205.47
436.708	13465.57
436.915	13952.98
437.122	14325.71
437.329	14477.26
437.537	14981.06
437.743	15292.35
437.95	14956.49
438.157	15912.89
438.364	16711.6
438.571	16197.56
438.778	16318.39
438.985	18134.93
439.192	17235.88
439.399	17672.09
439.606	17409.95
439.813	18016.15
440.02	19324.8
440.227	18902.92
440.433	18786.19
440.64	19646.33
440.847	19302.28
441.054	20205.43
441.261	21141.35
441.467	21325.67
441.674	21229.41
441.881	22339.41
442.088	22021.98
442.294	21933.92
442.501	22689.62
442.708	23043.92
442.914	23949.12
443.121	24655.67
443.328	24514.36
443.534	25921.31
443.741	25358.12
443.948	25198.38
444.154	27002.64
444.361	26634
444.568	26679.06
444.774	26664.72
444.981	27275.02
445.187	27899.65
445.394	28800.76
445.6	28653.3
445.807	31403.72
446.013	30031.58
446.22	30772.95
446.426	31870.66
446.633	32011.97
446.839	32845.49
447.046	31581.9
447.252	33257.14
447.459	33515.18
447.665	33193.65
447.871	34870.93
448.078	36146.82
448.284	34352.8
448.491	35315.34
448.697	36564.6
448.903	37627.5
449.11	37500.53
449.316	36691.58
449.522	37777
449.728	38450.78
449.935	38846.04
450.141	38749.79
450.347	39599.69
450.553	38280.8
450.76	38653.53
450.966	39833.16
451.172	39599.69
451.378	40334.92
451.584	39575.12
451.791	40744.51
451.997	40287.81
452.203	41018.94
452.409	40992.31
452.615	40986.17
452.821	39585.36
453.027	39054.93
453.233	41088.57
453.44	39611.98
453.646	39597.65
453.852	39747.15
454.058	40777.28
454.264	39245.4
454.47	39888.46
454.676	39380.56
454.882	40517.18
455.088	37070.45
455.294	37195.38
455.5	38086.25
455.705	38366.82
455.911	36990.58
456.117	35853.96
456.323	35663.5
456.529	33760.94
456.735	35186.32
456.941	34014.88
457.147	33762.98
457.352	32736.95
457.558	32249.53
457.764	32296.64
457.97	31665.86
458.176	30936.79
458.381	31186.64
458.587	29308.65
458.793	29394.67
458.999	28202.75
459.204	30052.06
459.41	29320.94
459.616	27223.82
459.821	27283.21
460.027	27102.99
460.233	26591
460.438	25372.46
460.644	25782.05
460.85	24416.05
461.055	24088.38
461.261	24205.11
461.466	22085.47
461.672	21575.52
461.878	23222.09
462.083	21772.13
462.289	21245.8
462.494	21030.76
462.7	20094.84
462.905	19457.92
463.111	20252.53
463.316	20356.98
463.522	20406.13
463.727	20062.07
463.932	19588.99
464.138	19703.68
464.343	19908.47
464.549	18970.51
464.754	19787.64
464.959	19773.31
465.165	19793.79
465.37	18870.15
465.575	18306.96
465.781	19177.35
465.986	19177.35
466.191	18276.24
466.397	18182.04
466.602	17012.65
466.807	17682.33
467.012	17762.2
467.218	17704.86
467.423	17465.25
467.628	17438.62
467.833	18059.16
468.038	17588.13
468.244	17108.9
468.449	17883.03
468.654	17301.41
468.859	17127.33
469.064	17166.24
469.269	16705.45
469.474	16480.18
469.679	16910.25
469.885	16519.09
470.09	16670.64
470.295	16496.56
470.5	16250.8
470.705	16377.78
470.91	15941.56
471.115	15400.9
471.32	15738.81
471.525	16009.14
471.73	15470.53
471.935	15058.88
472.139	14761.93
472.344	15069.12
472.549	14870.47
472.754	14700.49
472.959	14522.32
473.164	14047.19
473.369	13924.31
473.574	14344.14
473.778	14127.06
473.983	14223.31
474.188	14049.24
474.393	13490.14
474.598	13692.89
474.802	13363.17
475.007	13498.33
475.212	13318.11
475.417	12990.44
475.621	13199.33
475.826	12859.37
476.031	12621.8
476.235	12607.47
476.44	12427.25
476.645	12253.17
476.849	12287.98
477.054	12085.23
477.259	12038.13
477.463	12074.99
477.668	11853.81
477.872	11905.01
478.077	11792.37
478.282	11569.15
478.486	11241.47
478.691	11272.19
478.895	11261.95
479.1	11259.9
479.304	11241.47
479.509	10842.12
479.713	11091.97
479.918	10727.43
480.122	10698.76
480.326	11073.54
480.531	11040.77
480.735	10737.67
480.94	10659.85
481.144	10973.19
481.348	10379.28
481.553	10684.42
481.757	10440.72
481.961	10731.53
482.166	10686.47
482.37	10592.27
482.574	10389.52
482.778	10192.91
482.983	10532.87
483.187	10651.66
483.391	10647.56
483.595	10344.46
483.8	10168.34
484.004	10508.3
484.208	10614.79
484.412	10442.76
484.616	10477.58
484.821	10508.3
485.025	10455.05
485.229	10448.91
485.433	10348.56
485.637	10559.5
485.841	10448.91
486.045	10369.04
486.249	10328.08
486.453	10151.95
486.657	10332.17
486.861	10563.59
487.065	10053.65
487.269	10373.13
487.473	10336.27
487.677	10430.48
487.881	10610.7
488.085	10287.12
488.289	10315.79
488.493	10280.97
488.697	10487.82
488.901	10506.25
489.105	10643.46
489.309	10483.72
489.512	10510.35
489.716	10504.2
489.92	10592.27
490.124	10483.72
490.328	10620.94
490.531	10346.51
490.735	10901.51
490.939	10713.1
491.143	10598.41
491.346	10696.71
491.55	10911.75
491.754	10899.46
491.958	10743.81
492.161	10921.99
492.365	10819.59
492.569	10838.02
492.772	11022.34
492.976	11053.06
493.18	11079.68
493.383	11364.35
493.587	11415.55
493.79	11458.56
493.994	11546.62
494.197	11474.94
494.401	11474.94
494.605	11642.87
494.808	11681.78
495.012	11952.12
495.215	11812.85
495.419	12103.67
495.622	11939.83
495.825	12191.73
496.029	12154.87
496.232	12398.57
496.436	12421.1
496.639	12681.19
496.843	12584.94
497.046	12855.27
497.249	12830.69
497.453	12824.55
497.656	13264.86
497.859	13314.02
498.063	13176.8
498.266	13498.33
498.469	13524.96
498.673	13576.16
498.876	14030.8
499.079	14157.78
499.282	13887.45
499.485	14346.19
499.689	14241.75
499.892	14639.05
500.095	14747.59
500.298	15296.45
500.501	14936.01
500.705	15132.61
500.908	15656.89
501.111	15644.6
501.314	15499.2
501.517	15853.5
501.72	16129.97
501.923	15998.9
502.126	16357.3
502.329	16764.84
502.532	16650.16
502.735	16631.72
502.938	17057.7
503.141	17098.66
503.344	17379.23
503.547	17440.67
503.75	17590.17
503.953	18028.44
504.156	18149.27
504.359	18298.77
504.562	18524.05
504.765	19038.09
504.968	19203.97
505.17	19273.6
505.373	19132.29
505.576	20180.85
505.779	19629.95
505.982	20037.5
506.185	20516.72
506.387	20195.19
506.59	20588.4
506.793	21131.11
506.996	20744.05
507.198	21495.65
507.401	21403.49
507.604	21989.21
507.807	22144.86
508.009	22269.78
508.212	22208.34
508.415	22538.07
508.617	22742.86
508.82	23101.26
509.022	23095.11
509.225	23457.6
509.428	23910.21
509.63	23803.71
509.833	23996.22
510.035	24620.85
510.238	24432.44
510.44	24647.47
510.643	25153.32
510.845	25425.7
511.048	24991.53
511.25	25823.01
511.453	26081.05
511.655	26910.48
511.858	26431.26
512.06	26810.13
512.262	27164.43
512.465	27154.19
512.667	27180.81
512.87	27899.65
513.072	27901.7
513.274	28530.42
513.477	28567.29
513.679	28772.08
513.881	28995.31
514.084	28999.41
514.286	29431.53
514.488	29542.12
514.69	30402.27
514.893	30549.72
515.095	30557.91
515.297	30940.88
515.499	31293.13
515.701	31340.24
515.904	31776.45
516.106	31657.67
516.308	32286.4
516.51	32689.85
516.712	32493.24
516.914	33287.85
517.116	33832.61
517.318	33826.47
517.52	33869.48
517.722	34025.12
517.925	34322.08
518.127	34920.09
518.329	35098.26
518.531	34803.35
518.733	35450.51
518.935	35782.28
519.136	36089.48
519.338	36638.33
519.54	36198.02
519.742	37086.84
519.944	36994.68
520.146	38045.29
520.348	37822.06
520.55	37838.44
520.752	38276.71
520.954	39425.62
521.155	38387.3
521.357	39349.84
521.559	39335.51
521.761	40111.69
521.963	39652.94
522.164	40306.24
522.366	40146.5
522.568	41035.32
522.77	41168.44
522.971	41438.77
523.173	41233.97
523.375	41758.25
523.576	41803.31
523.778	41883.18
523.98	42589.73
524.181	42569.25
524.383	42946.08
524.584	43376.15
524.786	43216.41
524.988	43091.48
525.189	43728.4
525.391	44125.71
525.592	44144.14
525.794	44250.63
525.995	44580.35
526.197	44297.73
526.398	44568.07
526.6	44738.05
526.801	45276.66
527.003	45334.01
527.204	45043.2
527.406	45954.54
527.607	45665.78
527.808	46179.82
528.01	45540.85
528.211	45886.96
528.412	46745.06
528.614	46493.16
528.815	46530.02
529.016	46890.46
529.218	45923.82
529.419	46869.98
529.62	46835.17
529.822	46912.99
530.023	46855.65
530.224	46876.13
530.425	46810.59
530.626	46726.63
530.828	46626.28
531.029	48025.04
531.23	46919.13
531.431	46964.19
531.632	47666.64
531.833	47807.95
532.035	47459.8
532.236	47955.41
532.437	47615.44
532.638	47631.83
532.839	48123.34
533.04	47945.17
533.241	47465.94
533.442	48403.91
533.643	48053.71
533.844	48010.7
534.045	48315.85
534.246	47322.58
534.447	47834.58
534.648	48219.59
534.849	48158.16
535.05	47732.18
535.251	47908.3
535.451	47853.01
535.652	48129.48
535.853	48346.57
536.054	48401.86
536.255	48602.57
536.456	48106.96
536.657	48590.28
536.857	48074.19
537.058	48238.03
537.259	48479.69
537.46	48631.24
537.66	48352.71
537.861	48352.71
538.062	47855.06
538.263	48164.3
538.463	48072.14
538.664	48334.28
538.865	48174.54
539.065	49124.8
539.266	48285.13
539.466	48471.5
539.667	48051.66
539.868	48545.22
540.068	48143.82
540.269	48217.55
540.469	48604.61
540.67	48082.38
540.87	48283.08
541.071	47998.41
541.271	48471.5
541.472	48240.07
541.672	47906.26
541.873	47754.71
542.073	47891.92
542.274	48655.81
542.474	48254.41
542.675	47988.17
542.875	48465.35
543.075	48360.9
543.276	47908.3
543.476	48375.24
543.676	47576.53
543.877	48229.83
544.077	48127.44
544.277	48106.96
544.478	48246.22
544.678	48055.76
544.878	48195.02
545.078	48295.37
545.279	47723.99
545.479	47713.75
545.679	47824.34
545.879	47998.41
546.079	47969.74
546.28	47990.22
546.48	47893.97
546.68	47943.12
546.88	47867.34
547.08	47943.12
547.28	47879.63
547.48	47689.17
547.68	47896.02
547.88	47554.01
548.081	48270.79
548.281	47934.93
548.481	47619.54
548.681	47848.91
548.881	47705.55
549.081	48000.46
549.28	47906.26
549.48	48057.81
549.68	47613.4
549.88	48397.77
550.08	47711.7
550.28	48068.05
550.48	47494.61
550.68	48203.21
550.88	47314.39
551.08	47433.17
551.279	47627.73
551.479	47429.08
551.679	47316.44
551.879	47896.02
552.079	47736.27
552.278	47699.41
552.478	47482.33
552.678	47623.64
552.878	47701.46
553.077	47463.89
553.277	46697.95
553.477	48274.89
553.676	47332.82
553.876	47427.03
554.076	47320.54
554.275	47066.59
554.475	47381.98
554.674	47799.76
554.874	47422.94
555.074	46599.65
555.273	47453.65
555.473	47443.41
555.672	47207.9
555.872	46917.09
556.071	47027.68
556.271	47336.92
556.47	46693.86
556.67	46515.68
556.869	46945.76
557.068	47142.36
557.268	46575.08
557.467	46470.63
557.667	46970.33
557.866	46403.05
558.065	46525.92
558.265	46251.5
558.464	46065.13
558.663	46845.41
558.863	46181.87
559.062	47066.59
559.261	46247.4
559.461	46706.15
559.66	45700.59
559.859	46132.71
560.058	46011.88
560.258	46034.41
560.457	45325.82
560.656	46226.92
560.855	45583.86
561.054	45778.42
561.253	45454.84
561.453	45985.26
561.652	45409.78
561.851	45739.5
562.05	45573.62
562.249	45454.84
562.448	46102
562.647	45229.56
562.846	45454.84
563.045	45366.77
563.244	44699.14
563.443	45227.51
563.642	44166.66
563.841	44895.74
564.04	44574.21
564.239	45209.08
564.438	44277.26
564.637	44365.32
564.836	44686.85
565.035	44355.08
565.234	44768.77
565.432	44176.9
565.631	44494.34
565.83	44326.41
566.029	43963.92
566.228	43771.41
566.427	43818.51
566.625	43456.02
566.824	43304.47
567.023	44111.37
567.222	43175.45
567.42	43255.32
567.619	43097.63
567.818	43167.26
568.016	43157.02
568.215	43685.39
568.414	43075.1
568.612	43406.87
568.811	42706.46
569.01	42726.94
569.208	42049.07
569.407	43298.33
569.605	42407.46
569.804	42739.23
570.002	42176.04
570.201	42335.78
570.4	42024.49
570.598	41969.19
570.797	42014.25
570.995	42020.39
571.193	41344.56
571.392	42415.65
571.59	41432.63
571.789	41655.86
571.987	41590.32
572.186	41428.53
572.384	40832.57
572.582	41578.03
572.781	41385.52
572.979	40955.45
573.177	41063.99
573.376	41111.1
573.574	40308.29
573.772	40855.1
573.971	40947.26
574.169	40175.17
574.367	40312.39
574.565	40341.06
574.763	40101.45
574.962	40179.27
575.16	39583.31
575.358	40267.33
575.556	39294.55
575.754	39997
575.952	39374.42
576.151	39407.19
576.349	39403.09
576.547	39423.57
576.745	38944.34
576.943	39499.34
577.141	39355.99
577.339	39163.48
577.537	38913.62
577.735	38911.58
577.933	38985.3
578.131	38950.49
578.329	38317.67
578.527	38205.03
578.725	38622.81
578.923	38583.9
579.121	38327.91
579.319	38053.48
579.516	38340.19
579.714	37858.92
579.912	37924.46
580.11	38096.49
580.308	37996.13
580.506	37674.6
580.704	37187.19
580.901	37559.92
581.099	37744.23
581.297	37193.33
581.495	37039.73
581.692	37357.17
581.89	36828.79
582.088	36945.53
582.285	36836.98
582.483	36927.1
582.681	36806.27
582.878	36990.58
583.076	36540.03
583.274	36712.06
583.471	35976.84
583.669	36249.22
583.866	35501.71
584.064	36376.19
584.262	36097.67
584.459	36060.8
584.657	35735.18
584.854	36148.87
585.052	35169.94
585.249	35206.8
585.447	35288.72
585.644	35110.55
585.841	35337.87
586.039	35497.61
586.236	34807.45
586.434	34850.45
586.631	34348.7
586.828	34760.34
587.026	34829.98
587.223	34555.55
587.42	34469.53
587.618	34416.29
587.815	33894.05
588.012	34293.41
588.21	33730.22
588.407	34520.73
588.604	33732.26
588.801	33846.95
588.999	33959.59
589.196	33767.08
589.393	33828.52
589.59	33191.6
589.787	33382.06
589.984	33242.8
590.182	32886.45
590.379	33488.56
590.576	32982.71
590.773	33117.87
590.97	32980.66
591.167	33179.31
591.364	32243.39
591.561	32966.32
591.758	32497.34
591.955	32779.96
592.152	32374.46
592.349	32085.7
592.546	32366.27
592.743	32407.23
592.94	31555.27
593.137	31903.43
593.334	32315.07
593.531	31413.96
593.727	31905.48
593.924	31721.16
594.121	31301.33
594.318	31741.64
594.515	31317.71
594.712	31669.96
594.908	31117.01
595.105	31254.22
595.302	31305.42
595.499	30951.12
595.696	30953.17
595.892	30723.8
596.089	30707.41
596.286	30486.23
596.482	30492.38
596.679	30576.34
596.876	30586.58
597.072	30398.17
597.269	30158.56
597.466	29912.8
597.662	29947.62
597.859	29959.91
598.055	30033.63
598.252	29964
598.448	29470.44
598.645	29658.85
598.841	29386.47
599.038	29181.68
599.234	29433.58
599.431	29421.29
599.627	29220.59
599.824	28933.87
600.02	29120.24
600.217	28821.23
600.413	28788.47
600.609	28473.08
600.806	28360.44
601.002	28464.89
601.198	28307.19
601.395	28167.93
601.591	28215.04
601.787	28493.56
601.984	28169.98
602.18	28217.08
602.376	27793.15
602.572	27950.85
602.769	27651.84
602.965	27825.92
603.161	27696.9
603.357	27774.72
603.553	27686.66
603.75	27629.32
603.946	27133.71
604.142	27410.18
604.338	26846.99
604.534	27295.5
604.73	26656.53
604.926	26967.82
605.122	26531.61
605.318	26421.02
605.514	26521.37
605.71	26846.99
605.906	26210.07
606.102	26433.3
606.298	26466.07
606.494	26674.96
606.69	26310.43
606.886	26390.3
607.082	26015.52
607.278	26238.75
607.474	25917.22
607.67	26240.79
607.866	25579.3
608.062	25841.44
608.257	25851.68
608.453	26033.95
608.649	25550.63
608.845	25528.1
609.041	25605.92
609.236	25661.22
609.432	25505.57
609.628	25556.77
609.824	25505.57
610.019	25456.42
610.215	25448.23
610.411	25466.66
610.606	25288.49
610.802	25141.04
610.998	25141.04
611.193	25229.1
611.389	24919.85
611.584	24934.19
611.78	24903.47
611.976	25020.2
612.171	25126.7
612.367	24657.71
612.562	24575.8
612.758	24436.53
612.953	24287.03
613.149	24747.83
613.344	24092.48
613.539	24983.34
613.735	24502.07
613.93	24647.47
614.126	24559.41
614.321	24500.02
614.517	24489.78
614.712	24399.67
614.907	24045.37
615.103	24514.36
615.298	24295.22
615.493	24489.78
615.688	23965.5
615.884	24373.05
616.079	23703.36
616.274	24239.93
616.47	23764.8
616.665	23955.26
616.86	23899.97
617.055	23949.12
617.25	23779.14
617.445	23734.08
617.641	23435.08
617.836	23537.48
618.031	23338.82
618.226	23576.39
618.421	23148.36
618.616	23320.39
618.811	22962
619.006	23351.11
619.201	22800.21
619.396	22984.52
619.591	22396.76
619.786	22998.86
619.981	22720.34
620.176	22689.62
620.371	22404.95
620.566	22583.12
620.761	22415.19
620.956	22294.36
621.151	21897.05
621.346	22038.36
621.541	22005.59
621.735	21931.87
621.93	21573.47
622.125	21727.07
622.32	21321.57
622.515	21630.82
622.709	21507.94
622.904	21460.84
623.099	21270.37
623.294	21186.41
623.488	21069.67
623.683	21161.83
623.878	20549.49
624.072	20639.6
624.267	20768.62
624.462	20293.49
624.656	20451.19
624.851	20160.38
625.046	20014.97
625.24	20180.85
625.435	19928.95
625.629	19795.84
625.824	19574.66
626.018	19642.24
626.213	19384.19
626.407	19283.84
626.602	19117.96
626.796	19398.53
626.991	19091.34
627.185	19060.62
627.38	18988.94
627.574	18859.91
627.768	18892.68
627.963	18673.55
628.157	18685.84
628.352	18632.59
628.546	18110.36
628.74	18360.21
628.935	18161.56
629.129	18143.13
629.323	17872.79
629.517	17985.43
629.712	17657.76
629.906	17946.52
630.1	17342.37
630.294	17665.95
630.489	17368.99
630.683	17368.99
630.877	17321.89
631.071	17201.06
631.265	17170.34
631.459	16973.74
631.653	16994.22
631.848	16752.56
632.042	16691.12
632.236	16830.38
632.43	16416.69
632.624	16388.02
632.818	16428.98
633.012	16107.44
633.206	16238.51
633.4	16330.67
633.594	16136.12
633.788	15906.74
633.982	15970.23
634.176	15869.88
634.369	15892.41
634.563	15947.7
634.757	15529.92
634.951	15560.64
635.145	15472.57
635.339	15503.29
635.533	15400.9
635.726	15323.07
635.92	15083.46
636.114	14979.01
636.308	14880.71
636.501	15046.6
636.695	14876.62
636.889	14639.05
637.083	14528.46
637.276	14680.01
637.47	14415.82
637.664	14376.91
637.857	14608.33
638.051	14401.49
638.244	14116.82
638.438	14237.65
638.632	14190.55
638.825	13936.6
639.019	14051.28
639.212	13881.3
639.406	13905.88
639.599	13676.51
639.793	13610.97
639.986	13481.95
640.18	13688.79
640.373	13545.44
640.567	13203.43
640.76	13535.2
640.954	13203.43
641.147	13213.67
641.34	13123.55
641.534	13105.12
641.727	13017.06
641.92	12871.65
642.114	13058.02
642.307	12935.14
642.5	12644.33
642.694	12820.46
642.887	12673
643.08	12644.33
643.273	12537.84
643.467	12380.14
643.66	12365.81
643.853	12228.59
644.046	12191.73
644.239	12462.06
644.432	12199.92
644.626	12058.61
644.819	11972.6
645.012	11935.73
645.205	12093.43
645.398	11702.26
645.591	11757.56
645.784	11655.16
645.977	11450.36
646.17	11581.43
646.363	11659.26
646.556	11403.26
646.749	11251.71
646.942	11376.64
647.135	11124.74
647.328	11300.86
647.521	11122.69
647.714	11069.44
647.907	11040.77
648.099	10928.13
648.292	11024.39
648.485	10829.83
648.678	10645.51
648.871	10653.7
649.064	10463.24
649.256	10659.85
649.449	10651.66
649.642	10397.71
649.835	10459.15
650.027	10299.41
650.22	10414.09
650.413	10237.97
650.605	10444.81
650.798	10207.25
650.991	10262.54
651.183	10182.67
651.376	10082.32
651.568	9756.69
651.761	10059.79
651.954	9742.36
652.146	9979.92
652.339	9881.62
652.531	9791.51
652.724	9775.13
652.916	9644.06
653.109	9316.38
653.301	9682.97
653.494	9437.21
653.686	9455.64
653.879	9453.59
654.071	9506.84
654.263	9365.53
654.456	9234.46
654.648	9140.26
654.84	9261.09
655.033	9234.46
655.225	9044
655.417	8996.9
655.61	9123.87
655.802	9041.95
655.994	8798.24
656.186	8917.03
656.379	8910.88
656.571	8843.3
656.763	8728.61
656.955	8773.67
657.148	8716.33
657.34	8454.19
657.532	8343.6
657.724	8525.86
657.916	8536.1
658.108	8628.26
658.3	8575.02
658.492	8323.12
658.684	8376.36
658.876	8372.27
659.068	8267.82
659.26	8138.8
659.452	8171.57
659.644	8214.57
659.836	8001.58
660.028	8020.02
660.22	7925.81
660.412	7923.76
660.604	7776.31
660.796	7874.61
660.988	7786.55
661.18	7602.23
661.372	7508.02
661.563	7718.96
661.755	7546.94
661.947	7583.8
662.139	7694.39
662.331	7491.64
662.522	7487.54
662.714	7544.89
662.906	7239.74
663.097	7364.67
663.289	7387.19
663.481	7163.97
663.673	7194.68
663.864	7032.9
664.056	7149.63
664.247	6965.31
664.439	7098.43
664.631	7118.91
664.822	7163.97
665.014	7161.92
665.205	6940.74
665.397	6907.97
665.588	6907.97
665.78	7014.46
665.971	6824
666.163	6787.14
666.354	6791.24
666.546	6715.46
666.737	6621.25
666.929	6654.02
667.12	6756.42
667.311	6670.4
667.503	6514.76
667.694	6531.14
667.885	6510.66
668.077	6529.1
668.268	6318.15
668.459	6371.4
668.651	6391.88
668.842	6361.16
669.033	6363.21
669.224	6342.73
669.416	6305.87
669.607	6408.26
669.798	6191.18
669.989	6266.96
670.18	6051.92
670.371	6142.03
670.563	6043.73
670.754	6213.71
670.945	5994.58
671.136	6013.01
671.327	6010.96
671.518	5957.71
671.709	6058.06
671.9	5910.61
672.091	5859.41
672.282	5947.47
672.473	5902.42
672.664	5918.8
672.855	5871.7
673.046	5814.35
673.237	5869.65
673.428	5646.42
673.619	5615.7
673.809	5744.72
674	5705.81
674.191	5662.8
674.382	5472.34
674.573	5601.37
674.764	5683.28
674.954	5621.84
675.145	5570.65
675.336	5398.62
675.527	5572.69
675.717	5505.11
675.908	5363.8
676.099	5312.6
676.289	5380.18
676.48	5316.7
676.671	5384.28
676.861	5318.75
677.052	5132.38
677.243	5285.98
677.433	5199.96
677.624	5150.81
677.814	5257.31
678.005	5277.79
678.195	5138.52
678.386	5128.28
678.576	5054.56
678.767	4972.64
678.957	5072.99
679.148	5161.05
679.338	5185.63
679.529	5111.9
679.719	4946.02
679.909	4982.88
680.1	4958.3
680.29	5040.22
680.481	4964.45
680.671	4941.92
680.861	4995.17
681.052	5040.22
681.242	4847.71
681.432	4857.95
681.622	4870.24
681.813	4874.34
682.003	4853.86
682.193	4782.18
682.383	4796.51
682.573	4726.88
682.764	4690.02
682.954	4765.79
683.144	4601.96
683.334	4712.55
683.524	4632.68
683.714	4792.42
683.904	4630.63
684.094	4704.35
684.284	4524.13
684.474	4591.72
684.664	4542.57
684.854	4468.84
685.044	4655.2
685.234	4526.18
685.424	4460.65
685.614	4675.68
685.804	4558.95
685.994	4376.68
686.184	4470.89
686.374	4323.43
686.564	4350.06
686.753	4329.58
686.943	4411.5
687.133	4397.16
687.323	4288.62
687.513	4444.26
687.702	4321.38
687.892	4356.2
688.082	4368.49
688.272	4188.27
688.461	4354.15
688.651	4333.67
688.841	4130.92
689.03	4175.98
689.22	4198.51
689.41	4104.3
689.599	4069.48
689.789	4114.54
689.979	4137.07
690.168	3989.61
690.358	3954.8
690.547	4024.43
690.737	4155.5
690.926	3993.71
691.116	3870.83
691.305	4075.63
691.495	3866.74
691.684	3899.5
691.874	3897.46
692.063	3975.28
692.252	3811.44
692.442	3876.98
692.631	3813.49
692.82	3813.49
693.01	3874.93
693.199	3797.1
693.388	3741.81
693.578	3711.09
693.767	3971.18
693.956	3762.29
694.146	3676.27
694.335	3770.48
694.524	3876.98
694.713	3741.81
694.902	3653.75
695.092	3733.62
695.281	3692.66
695.47	3614.84
695.659	3567.73
695.848	3600.5
696.037	3698.8
696.226	3588.21
696.415	3700.85
696.604	3666.03
696.793	3457.14
696.982	3614.84
697.171	3663.99
697.36	3539.06
697.549	3614.84
697.738	3602.55
697.927	3577.97
698.116	3487.86
698.305	3465.33
698.494	3541.11
698.683	3453.05
698.872	3403.89
699.061	3573.88
699.25	3436.66
699.438	3498.1
699.627	3522.68
699.816	3451
700.005	3420.28
700.193	3471.48
700.382	3512.44
700.571	3434.61
700.76	3281.02
700.948	3399.8
701.137	3383.42
701.326	3305.59
701.514	3500.15
701.703	3500.15
701.892	3356.79
702.08	3463.29
702.269	3373.18
702.457	3160.19
702.646	3350.65
702.834	3252.35
703.023	3289.21
703.212	3428.47
703.4	3311.74
703.589	3424.37
703.777	3453.05
703.965	3244.15
704.154	3305.59
704.342	3303.54
704.531	3364.98
704.719	3227.77
704.907	3491.96
705.096	3266.68
705.284	3276.92
705.472	3238.01
705.661	3246.2
705.849	3207.29
706.037	3321.98
706.226	3176.57
706.414	3242.11
706.602	3276.92
706.79	3184.76
706.979	3127.42
707.167	3217.53
707.355	3209.34
707.543	3270.78
707.731	3129.47
707.919	3328.12
708.107	3088.51
708.296	3088.51
708.484	3192.95
708.672	3078.27
708.86	3158.14
709.048	3174.52
709.236	3063.93
709.424	3164.28
709.612	3104.89
709.8	3119.23
709.988	3113.08
710.176	3133.56
710.364	3147.9
710.551	3070.08
710.739	3141.75
710.927	3240.06
711.115	3065.98
711.303	3068.03
711.491	3102.84
711.679	3143.8
711.866	3037.31
712.054	3174.52
712.242	3049.6
712.43	3025.02
712.617	3074.17
712.805	3117.18
712.993	3012.73
713.181	2957.44
713.368	3121.28
713.556	3031.16
713.744	2930.81
713.931	3057.79
714.119	3031.16
714.306	3104.89
714.494	3022.97
714.682	2998.4
714.869	2922.62
715.057	3031.16
715.244	2977.92
715.432	3012.73
715.619	3000.44
715.807	2990.21
715.994	3002.49
716.182	2863.23
716.369	2971.77
716.556	2812.03
716.744	2967.68
716.931	2949.25
717.119	3039.36
717.306	2914.43
717.493	2953.34
717.681	2955.39
717.868	2898.05
718.055	2961.53
718.242	2885.76
718.43	2775.17
718.617	2959.49
718.804	2971.77
718.991	2848.9
719.179	2910.33
719.366	2891.9
719.553	2910.33
719.74	2775.17
719.927	2801.79
720.114	2844.8
720.301	2793.6
720.488	2785.41
720.676	2867.33
720.863	2730.11
721.05	2912.38
721.237	2850.94
721.424	2812.03
721.611	2748.54
721.798	2687.11
721.985	2891.9
722.172	2760.83
722.358	2789.5
722.545	2697.35
722.732	2662.53
722.919	2734.21
723.106	2658.43
723.293	2644.1
723.48	2812.03
723.667	2699.39
723.853	2699.39
724.04	2783.36
724.227	2773.12
724.414	2801.79
724.6	2553.99
724.787	2676.87
724.974	2723.97
725.161	2527.36
725.347	2654.34
725.534	2726.02
725.72	2635.91
725.907	2664.58
726.094	2672.77
726.28	2756.74
726.467	2652.29
726.653	2623.62
726.84	2631.81
727.027	2719.87
727.213	2619.52
727.4	2775.17
727.586	2701.44
727.773	2689.15
727.959	2568.32
728.145	2715.78
728.332	2568.32
728.518	2590.85
728.705	2707.59
728.891	2627.71
729.077	2592.9
729.264	2664.58
729.45	2586.76
729.636	2736.26
729.823	2562.18
730.009	2648.19
730.195	2547.84
730.382	2658.43
730.568	2504.84
730.754	2592.9
730.94	2510.98
731.126	2537.6
731.313	2623.62
731.499	2402.44
731.685	2447.49
731.871	2504.84
732.057	2607.23
732.243	2609.28
732.429	2625.67
732.615	2535.56
732.801	2529.41
732.987	2543.75
733.173	2480.26
733.359	2621.57
733.545	2523.27
733.731	2451.59
733.917	2527.36
734.103	2572.42
734.289	2558.08
734.475	2490.5
734.661	2545.8
734.847	2558.08
735.033	2410.63
735.219	2496.64
735.404	2443.4
735.59	2416.77
735.776	2515.08
735.962	2375.81
736.148	2523.27
736.333	2508.93
736.519	2381.96
736.705	2410.63
736.89	2322.57
737.076	2453.64
737.262	2402.44
737.447	2445.45
737.633	2355.33
737.819	2381.96
738.004	2291.85
738.19	2394.25
738.375	2279.56
738.561	2384.01
738.747	2336.9
738.932	2363.53
739.118	2314.38
739.303	2326.66
739.489	2291.85
739.674	2271.37
739.859	2293.9
740.045	2312.33
740.23	2285.7
740.416	2187.4
740.601	2365.57
740.786	2265.22
740.972	2236.55
741.157	2203.79
741.342	2209.93
741.528	2224.26
741.713	2171.02
741.898	2326.66
742.084	2144.39
742.269	2291.85
742.454	2293.9
742.639	2248.84
742.824	2130.06
743.01	2300.04
743.195	2201.74
743.38	2109.58
743.565	2140.3
743.75	2203.79
743.935	2168.97
744.12	2093.19
744.305	1978.51
744.49	2078.86
744.675	2123.91
744.86	2042
745.045	2095.24
745.23	1986.7
745.415	2050.19
745.6	2072.72
745.785	2062.48
745.97	2089.1
746.155	1994.89
746.34	2066.57
746.525	1960.08
746.71	2072.72
746.895	1900.69
747.079	1968.27
747.264	1980.56
747.449	2035.85
747.634	2001.04
747.819	1847.44
748.003	1962.12
748.188	1955.98
748.373	1888.4
748.557	1872.01
748.742	1816.72
748.927	1798.29
749.111	1853.58
749.296	1767.57
749.481	1876.11
749.665	1777.81
749.85	1777.81
750.034	1702.03
750.219	1792.14
750.404	1829.01
750.588	1759.38
750.773	1704.08
750.957	1697.94
751.141	1765.52
751.326	1722.51
751.51	1728.66
751.695	1742.99
751.879	1661.07
752.064	1753.23
752.248	1730.7
752.432	1611.92
752.617	1656.98
752.801	1626.26
752.985	1669.27
753.17	1675.41
753.354	1560.72
753.538	1568.91
753.722	1573.01
753.907	1624.21
754.091	1497.24
754.275	1487
754.459	1450.13
754.643	1446.04
754.828	1523.86
755.012	1517.72
755.196	1472.66
755.38	1388.69
755.564	1443.99
755.748	1468.56
755.932	1462.42
756.116	1466.52
756.3	1368.21
756.484	1370.26
756.668	1310.87
756.852	1423.51
757.036	1446.04
757.22	1317.01
757.404	1390.74
757.588	1443.99
757.772	1378.45
757.956	1345.69
758.14	1429.65
758.323	1274.01
758.507	1304.73
758.691	1276.06
758.875	1300.63
759.059	1298.58
759.242	1261.72
759.426	1282.2
759.61	1187.99
759.794	1239.19
759.977	1310.87
760.161	1329.3
760.345	1349.78
760.528	1251.48
760.712	1237.14
760.895	1220.76
761.079	1218.71
761.263	1237.14
761.446	1020.06
761.63	1171.61
761.813	1177.75
761.997	1142.94
762.18	1190.04
762.364	1245.34
762.547	1159.32
762.731	1169.56
762.914	1231
763.098	1044.63
763.281	1083.55
763.464	1212.57
763.648	1149.08
763.831	1061.02
764.015	1058.97
764.198	1261.72
764.381	1040.54
764.564	1245.34
764.748	1149.08
764.931	1126.55
765.114	1110.17
765.297	1140.89
765.481	1116.31
765.664	1112.22
765.847	1042.59
766.03	1190.04
766.213	1042.59
766.397	1087.64
766.58	1108.12
766.763	1005.72
766.946	1058.97
767.129	1042.59
767.312	1079.45
767.495	1077.4
767.678	972.96
767.861	1040.54
768.044	1140.89
768.227	1022.11
768.41	1040.54
768.593	1003.68
768.776	1009.82
768.959	944.28
769.142	1075.35
769.324	1018.01
769.507	1110.17
769.69	993.44
769.873	960.67
770.056	1022.11
770.239	964.76
770.421	1011.87
770.604	1038.49
770.787	915.61
770.97	993.44
771.152	866.46
771.335	989.34
771.518	880.8
771.7	891.04
771.883	950.43
772.066	917.66
772.248	915.61
772.431	948.38
772.613	882.85
772.796	934.04
772.978	884.89
773.161	940.19
773.343	886.94
773.526	837.79
773.708	882.85
773.891	823.45
774.073	850.08
774.256	870.56
774.438	856.22
774.621	884.89
774.803	753.82
774.985	753.82
775.168	944.28
775.35	827.55
775.532	794.78
775.715	768.16
775.897	815.26
776.079	747.68
776.261	831.65
776.444	852.13
776.626	805.02
776.808	727.2
776.99	682.14
777.173	753.82
777.355	770.21
777.537	757.92
777.719	850.08
777.901	743.58
778.083	731.3
778.265	745.63
778.447	716.96
778.629	727.2
778.811	753.82
778.993	698.53
779.175	723.1
779.357	747.68
779.539	714.91
779.721	598.18
779.903	641.18
780.085	729.25
780.267	655.52
780.449	696.48
780.631	757.92
780.812	643.23
780.994	678.05
781.176	702.62
781.358	637.09
781.54	626.85
781.721	628.9
781.903	678.05
782.085	585.89
782.267	540.83
782.448	549.03
782.63	661.66
782.812	618.66
782.993	622.75
783.175	632.99
783.357	493.73
783.538	604.32
783.72	565.41
783.901	579.75
784.083	473.25
784.264	518.31
784.446	555.17
784.627	567.46
784.809	532.64
784.99	589.99
785.172	473.25
785.353	555.17
785.535	508.07
785.716	534.69
785.897	579.75
786.079	458.92
786.26	542.88
786.441	573.6
786.623	430.24
786.804	489.64
786.985	440.48
787.167	518.31
787.348	467.11
787.529	534.69
787.71	526.5
787.891	516.26
788.073	499.88
788.254	411.81
788.435	499.88
788.616	467.11
788.797	485.54
788.978	489.64
789.159	481.44
789.34	487.59
789.522	493.73
789.703	426.15
789.884	463.01
790.065	403.62
790.246	454.82
790.427	493.73
790.607	467.11
790.788	397.48
790.969	383.14
791.15	452.77
791.331	420
791.512	460.96
791.693	358.57
791.874	415.91
792.054	481.44
792.235	415.91
792.416	370.85
792.597	362.66
792.778	385.19
792.958	352.42
793.139	342.18
793.32	383.14
793.5	391.33
793.681	389.28
793.862	389.28
794.042	389.28
794.223	268.45
794.404	329.89
794.584	381.09
794.765	342.18
794.945	282.79
795.126	362.66
795.306	346.28
795.487	366.76
795.667	338.09
795.848	305.32
796.028	323.75
796.209	364.71
796.389	364.71
796.57	325.8
796.75	379.04
796.93	456.87
797.111	274.6
797.291	303.27
797.471	411.81
797.652	325.8
797.832	319.65
798.012	413.86
798.192	286.89
798.373	301.22
798.553	346.28
798.733	278.69
798.913	282.79
799.093	307.37
799.274	387.24
799.454	387.24
799.634	295.08
799.814	288.93
799.994	245.93
800.174	278.69
800.354	325.8
800.534	237.74
800.714	282.79
800.894	272.55
801.074	356.52
801.254	284.84
801.434	370.85
801.614	254.12
801.794	280.74
801.974	575.65
802.154	247.97
802.334	286.89
802.514	243.88
802.693	284.84
802.873	221.35
803.053	319.65
803.233	325.8
803.413	270.5
803.592	268.45
803.772	280.74
803.952	284.84
804.131	219.3
804.311	250.02
804.491	215.21
804.67	239.78
804.85	260.26
805.03	243.88
805.209	231.59
805.389	231.59
805.568	235.69
805.748	252.07
805.928	252.07
806.107	229.54
806.287	250.02
806.466	219.3
806.646	209.06
806.825	258.21
807.004	268.45
807.184	225.45
807.363	333.99
807.543	252.07
807.722	209.06
807.901	237.74
808.081	200.87
808.26	176.3
808.439	276.65
808.619	231.59
808.798	235.69
808.977	194.73
809.156	211.11
809.336	202.92
809.515	190.63
809.694	194.73
809.873	217.26
810.052	229.54
810.231	297.13
810.411	184.49
810.59	245.93
810.769	237.74
810.948	182.44
811.127	170.15
811.306	180.39
811.485	186.54
811.664	268.45
811.843	90.28
812.022	104.62
812.201	223.4
812.38	237.74
812.559	180.39
812.737	147.62
812.916	176.3
813.095	194.73
813.274	153.77
813.453	256.17
813.632	243.88
813.811	217.26
813.989	200.87
814.168	145.58
814.347	123.05
814.526	153.77
814.704	194.73
814.883	155.82
815.062	166.06
815.24	223.4
815.419	170.15
815.598	125.1
815.776	114.86
815.955	174.25
816.133	116.9
816.312	149.67
816.49	116.9
816.669	116.9
816.847	184.49
817.026	186.54
817.204	129.19
817.383	176.3
817.561	125.1
817.74	151.72
817.918	174.25
818.097	159.91
818.275	112.81
818.453	182.44
818.632	239.78
818.81	145.58
818.988	82.09
819.167	141.48
819.345	57.51
819.523	100.52
819.701	145.58
819.879	123.05
820.058	182.44
820.236	129.19
820.414	80.04
820.592	202.92
820.77	166.06
820.948	147.62
821.127	110.76
821.305	118.95
821.483	67.75
821.661	161.96
821.839	133.29
822.017	59.56
822.195	141.48
822.373	133.29
822.551	137.38
822.729	184.49
822.907	137.38
823.085	149.67
823.262	133.29
823.44	98.47
823.618	139.43
823.796	63.66
823.974	106.67
824.152	108.71
824.329	77.99
824.507	118.95
824.685	96.43
824.863	110.76
825.04	133.29
825.218	145.58
825.396	82.09
825.574	98.47
825.751	65.71
825.929	243.88
826.107	96.43
826.284	71.85
826.462	67.75
826.639	108.71
826.817	129.19
826.994	129.19
827.172	145.58
827.349	94.38
827.527	59.56
827.704	129.19
827.882	123.05
828.059	116.9
828.237	110.76
828.414	110.76
828.591	67.75
828.769	143.53
828.946	129.19
829.124	157.86
829.301	63.66
829.478	92.33
829.655	71.85
829.833	84.14
830.01	75.95
830.187	118.95
830.364	184.49
830.542	143.53
830.719	184.49
830.896	194.73
831.073	141.48
831.25	88.23
831.427	90.28
831.604	155.82
831.782	94.38
831.959	51.37
832.136	47.27
832.313	114.86
832.49	98.47
832.667	71.85
832.844	135.34
833.021	147.62
833.198	59.56
833.374	77.99
833.551	116.9
833.728	63.66
833.905	145.58
834.082	102.57
834.259	86.19
834.436	157.86
834.612	22.7
834.789	121
834.966	20.65
835.143	127.14
835.319	-1.88
835.496	108.71
835.673	82.09
835.85	118.95
836.026	108.71
836.203	71.85
836.38	57.51
836.556	94.38
836.733	110.76
836.909	129.19
837.086	28.84
837.262	26.79
837.439	94.38
837.616	18.6
837.792	92.33
837.968	-3.93
838.145	61.61
838.321	73.9
838.498	65.71
838.674	59.56
838.851	90.28
839.027	71.85
839.203	67.75
839.38	43.18
839.556	34.99
839.732	98.47
839.909	94.38
840.085	88.23
840.261	26.79
840.437	32.94
840.614	57.51
840.79	41.13
840.966	88.23
841.142	137.38
841.318	73.9
841.494	61.61
841.671	84.14
841.847	71.85
842.023	30.89
842.199	80.04
842.375	104.62
842.551	14.51
842.727	100.52
842.903	84.14
843.079	84.14
843.255	69.8
843.431	53.42
843.607	-1.88
843.783	30.89
843.959	51.37
844.134	147.62
844.31	8.36
844.486	77.99
844.662	77.99
844.838	-8.02
845.013	98.47
845.189	49.32
845.365	63.66
845.541	63.66
845.716	75.95
845.892	18.6
846.068	102.57
846.244	32.94
846.419	51.37
846.595	65.71
846.77	123.05
846.946	-1.88
847.122	139.43
847.297	22.7
847.473	75.95
847.648	47.27
847.824	57.51
847.999	14.51
848.175	49.32
848.35	55.47
848.526	51.37
848.701	80.04
848.876	86.19
849.052	49.32
849.227	71.85
849.403	67.75
849.578	106.67
849.753	32.94
849.929	125.1
850.104	26.79
850.279	100.52
850.454	45.23
850.63	2.22
850.805	90.28
850.98	53.42
851.155	59.56
851.33	-16.21
851.505	34.99
851.681	84.14
851.856	18.6
852.031	55.47
852.206	61.61
852.381	77.99
852.556	24.75
852.731	88.23
852.906	86.19
853.081	26.79
853.256	34.99
853.431	34.99
853.606	34.99
853.781	8.36
853.956	47.27
854.131	26.79
854.305	82.09
854.48	30.89
854.655	10.41
854.83	39.08
855.005	80.04
855.18	24.75
855.354	69.8
855.529	53.42
855.704	-51.03
855.879	4.27
856.053	75.95
856.228	59.56
856.403	8.36
856.577	90.28
856.752	14.51
856.926	-34.64
857.101	61.61
857.276	61.61
857.45	0.17
857.625	84.14
857.799	49.32
857.974	-1.88
858.148	20.65
858.323	18.6
858.497	34.99
858.672	-40.79
858.846	26.79
859.02	34.99
859.195	-22.36
859.369	14.51
859.543	69.8
859.718	106.67
859.892	84.14
860.066	16.55
860.241	22.7
860.415	-42.84
860.589	45.23
860.763	-16.21
860.938	65.71
861.112	20.65
861.286	24.75
861.46	90.28
861.634	-1.88
861.808	55.47
861.982	-3.93
862.157	88.23
862.331	10.41
862.505	94.38
862.679	-24.4
862.853	-5.97
863.027	51.37
863.201	75.95
863.375	16.55
863.549	82.09
863.722	49.32
863.896	98.47
864.07	-1.88
864.244	49.32
864.418	59.56
864.592	63.66
864.766	96.43
864.939	108.71
865.113	12.46
865.287	8.36
865.461	14.51
865.634	106.67
865.808	63.66
865.982	6.31
866.156	-5.97
866.329	71.85
866.503	6.31
866.676	37.03
866.85	45.23
867.024	12.46
867.197	-8.02
867.371	90.28
867.544	18.6
867.718	30.89
867.891	51.37
868.065	20.65
868.238	16.55
868.412	73.9
868.585	16.55
868.759	-12.12
868.932	8.36
869.105	43.18
869.279	24.75
869.452	92.33
869.625	8.36
869.799	47.27
869.972	8.36
870.145	2.22
870.319	-46.93
870.492	73.9
870.665	67.75
870.838	-44.88
871.011	-55.12
871.185	12.46
871.358	8.36
871.531	49.32
871.704	-8.02
871.877	6.31
872.05	10.41
872.223	18.6
872.396	0.17
872.569	12.46
872.742	-14.17
872.915	80.04
873.088	-22.36
873.261	8.36
873.434	28.84
873.607	18.6
873.78	55.47
873.953	26.79
874.126	10.41
874.299	-1.88
874.471	63.66
874.644	37.03
874.817	-38.74
874.99	67.75
875.163	51.37
875.335	-16.21
875.508	26.79
875.681	80.04
875.853	0.17
876.026	-5.97
876.199	10.41
876.371	-8.02
876.544	-53.08
876.717	4.27
876.889	32.94
877.062	30.89
877.234	-38.74
877.407	-48.98
877.579	30.89
877.752	73.9
877.924	75.95
878.097	69.8
878.269	0.17
878.442	55.47
878.614	-10.07
878.786	-18.26
878.959	49.32
879.131	34.99
879.303	-36.69
879.476	53.42
879.648	20.65
879.82	57.51
879.993	-30.55
880.165	61.61
880.337	84.14
880.509	4.27
880.681	16.55
880.854	75.95
881.026	4.27
881.198	22.7
881.37	-67.41
881.542	104.62
881.714	-14.17
881.886	53.42
882.058	12.46
882.23	-14.17
882.402	-22.36
882.574	30.89
882.746	67.75
882.918	77.99
883.09	8.36
883.262	-24.4
883.434	16.55
883.606	-26.45
883.778	10.41
883.95	47.27
884.122	69.8
884.293	75.95
884.465	-26.45
884.637	-24.4
884.809	10.41
884.98	51.37
885.152	51.37
885.324	6.31
885.496	0.17
885.667	43.18
885.839	0.17
886.011	49.32
886.182	61.61
886.354	37.03
886.525	39.08
886.697	-36.69
886.869	-30.55
887.04	102.57
887.212	26.79
887.383	39.08
887.555	26.79
887.726	16.55
887.897	-5.97
888.069	84.14
888.24	26.79
888.412	-57.17
888.583	45.23
888.754	57.51
888.926	-20.31
889.097	51.37
889.268	51.37
889.44	41.13
889.611	75.95
889.782	-1.88
889.953	20.65
890.125	51.37
890.296	86.19
890.467	12.46
890.638	39.08
890.809	55.47
890.98	-10.07
891.151	-5.97
891.323	34.99
891.494	-1.88
891.665	-30.55
891.836	-40.79
892.007	61.61
892.178	61.61
892.349	51.37
892.52	-32.6
892.691	4.27
892.862	10.41
893.032	-38.74
893.203	-61.27
893.374	45.23
893.545	-1.88
893.716	75.95
893.887	-46.93
894.057	-20.31
894.228	28.84
894.399	49.32
894.57	16.55
894.74	34.99
894.911	51.37
895.082	53.42
895.253	8.36
895.423	34.99
895.594	12.46
895.764	18.6
895.935	67.75
896.106	73.9
896.276	-32.6
896.447	-1.88
896.617	-51.03
896.788	32.94
896.958	-30.55
897.129	61.61
897.299	12.46
897.47	-8.02
897.64	45.23
897.81	41.13
897.981	43.18
898.151	-24.4
898.322	43.18
898.492	18.6
898.662	-42.84
898.832	67.75
899.003	26.79
899.173	30.89
899.343	-18.26
899.513	37.03
