Data from USB4F104151__228__11-10-59-074.txt Node

Date: Wed Mar 12 11:10:59 EDT 2025
User: louis
Spectrometer: USB4F10415
Trigger mode: 4
Integration Time (sec): 2.000000E-2
Scans to average: 1
Electric dark correction enabled: true
Nonlinearity correction enabled: false
Boxcar width: 0
XAxis mode: Wavelengths
Number of Pixels in Spectrum: 3648
>>>>>Begin Spectral Data<<<<<
178.204	-43.18
178.424	-43.18
178.644	-43.18
178.864	-125.1
179.084	-71.85
179.304	-30.89
179.524	-2.22
179.744	28.5
179.964	-28.84
180.184	-8.36
180.404	40.79
180.624	85.84
180.844	3.93
181.064	-28.84
181.283	51.03
181.503	-67.75
181.723	-43.18
181.943	-22.7
182.163	24.4
182.383	-69.8
182.602	-41.13
182.822	-2.22
183.042	-20.65
183.262	16.21
183.482	-8.36
183.701	22.36
183.921	85.84
184.141	-61.61
184.361	53.08
184.58	26.45
184.8	1.88
185.02	-28.84
185.239	53.08
185.459	55.12
185.679	-24.75
185.898	-34.99
186.118	-10.41
186.338	65.36
186.557	-18.6
186.777	-22.7
186.997	77.65
187.216	44.88
187.436	77.65
187.655	18.26
187.875	44.88
188.095	-34.99
188.314	53.08
188.534	-18.6
188.753	38.74
188.973	12.12
189.192	-12.46
189.412	1.88
189.631	51.03
189.851	3.93
190.07	20.31
190.29	-24.75
190.509	46.93
190.729	63.32
190.948	104.28
191.168	65.36
191.387	65.36
191.607	63.32
191.826	-22.7
192.045	22.36
192.265	3.93
192.484	61.27
192.704	-10.41
192.923	-24.75
193.142	14.17
193.362	67.41
193.581	12.12
193.8	-0.17
194.02	20.31
194.239	36.69
194.458	96.08
194.678	55.12
194.897	61.27
195.116	57.17
195.335	55.12
195.555	12.12
195.774	28.5
195.993	30.55
196.212	24.4
196.432	46.93
196.651	24.4
196.87	1.88
197.089	34.64
197.308	-37.03
197.528	10.07
197.747	26.45
197.966	16.21
198.185	30.55
198.404	8.02
198.623	12.12
198.842	3.93
199.062	42.84
199.281	73.56
199.5	28.5
199.719	-4.27
199.938	59.22
200.157	73.56
200.376	-49.32
200.595	63.32
200.814	26.45
201.033	-10.41
201.252	-34.99
201.471	118.61
201.69	51.03
201.909	36.69
202.128	26.45
202.347	-51.37
202.566	-63.66
202.785	-26.79
203.004	-6.31
203.223	44.88
203.442	55.12
203.661	38.74
203.879	-61.61
204.098	8.02
204.317	-18.6
204.536	34.64
204.755	-20.65
204.974	-8.36
205.193	71.51
205.411	57.17
205.63	22.36
205.849	85.84
206.068	24.4
206.287	34.64
206.505	75.6
206.724	-20.65
206.943	59.22
207.162	8.02
207.381	48.98
207.599	65.36
207.818	-10.41
208.037	38.74
208.255	-4.27
208.474	67.41
208.693	22.36
208.911	59.22
209.13	14.17
209.349	44.88
209.567	-26.79
209.786	38.74
210.005	-24.75
210.223	-55.47
210.442	59.22
210.661	42.84
210.879	28.5
211.098	65.36
211.316	57.17
211.535	46.93
211.753	-30.89
211.972	40.79
212.191	10.07
212.409	14.17
212.628	-63.66
212.846	-12.46
213.065	12.12
213.283	30.55
213.502	110.42
213.72	-10.41
213.938	79.7
214.157	42.84
214.375	94.04
214.594	14.17
214.812	81.75
215.031	46.93
215.249	20.31
215.467	3.93
215.686	40.79
215.904	51.03
216.122	18.26
216.341	63.32
216.559	-4.27
216.778	89.94
216.996	-20.65
217.214	-20.65
217.432	-18.6
217.651	8.02
217.869	22.36
218.087	55.12
218.306	51.03
218.524	40.79
218.742	24.4
218.96	61.27
219.179	53.08
219.397	71.51
219.615	-20.65
219.833	98.13
220.051	14.17
220.27	5.97
220.488	-39.08
220.706	-51.37
220.924	42.84
221.142	79.7
221.36	-14.51
221.578	89.94
221.796	36.69
222.015	38.74
222.233	-30.89
222.451	-2.22
222.669	-4.27
222.887	8.02
223.105	-4.27
223.323	32.6
223.541	10.07
223.759	-4.27
223.977	-10.41
224.195	61.27
224.413	67.41
224.631	-10.41
224.849	48.98
225.067	-55.47
225.285	42.84
225.503	55.12
225.721	18.26
225.939	14.17
226.157	40.79
226.375	61.27
226.592	-20.65
226.81	91.99
227.028	3.93
227.246	91.99
227.464	-6.31
227.682	24.4
227.9	34.64
228.117	40.79
228.335	8.02
228.553	55.12
228.771	30.55
228.989	63.32
229.206	-26.79
229.424	36.69
229.642	3.93
229.86	-16.55
230.077	-24.75
230.295	32.6
230.513	59.22
230.731	110.42
230.948	28.5
231.166	32.6
231.384	1.88
231.601	-8.36
231.819	98.13
232.037	79.7
232.254	-80.04
232.472	63.32
232.689	42.84
232.907	28.5
233.125	38.74
233.342	61.27
233.56	26.45
233.777	-2.22
233.995	5.97
234.213	22.36
234.43	40.79
234.648	5.97
234.865	40.79
235.083	44.88
235.3	-10.41
235.518	83.8
235.735	-22.7
235.953	44.88
236.17	10.07
236.388	77.65
236.605	-10.41
236.822	55.12
237.04	44.88
237.257	22.36
237.475	8.02
237.692	40.79
237.909	59.22
238.127	53.08
238.344	-2.22
238.562	-69.8
238.779	61.27
238.996	-14.51
239.214	-0.17
239.431	20.31
239.648	-16.55
239.865	-14.51
240.083	57.17
240.3	96.08
240.517	-12.46
240.735	12.12
240.952	-28.84
241.169	48.98
241.386	44.88
241.603	26.45
241.821	40.79
242.038	12.12
242.255	5.97
242.472	-0.17
242.689	46.93
242.907	1.88
243.124	14.17
243.341	57.17
243.558	122.71
243.775	-43.18
243.992	-6.31
244.209	-0.17
244.426	14.17
244.643	28.5
244.86	63.32
245.078	57.17
245.295	32.6
245.512	20.31
245.729	-8.36
245.946	-55.47
246.163	30.55
246.38	67.41
246.597	44.88
246.814	8.02
247.031	51.03
247.248	38.74
247.464	14.17
247.681	-6.31
247.898	30.55
248.115	75.6
248.332	20.31
248.549	-14.51
248.766	14.17
248.983	-12.46
249.2	71.51
249.417	10.07
249.633	53.08
249.85	63.32
250.067	14.17
250.284	48.98
250.501	36.69
250.717	-16.55
250.934	44.88
251.151	-16.55
251.368	14.17
251.585	18.26
251.801	28.5
252.018	67.41
252.235	65.36
252.451	22.36
252.668	-6.31
252.885	-30.89
253.102	30.55
253.318	-69.8
253.535	-2.22
253.752	-26.79
253.968	34.64
254.185	1.88
254.401	-4.27
254.618	12.12
254.835	-30.89
255.051	34.64
255.268	30.55
255.484	59.22
255.701	61.27
255.917	89.94
256.134	36.69
256.351	-8.36
256.567	-14.51
256.784	55.12
257	22.36
257.217	63.32
257.433	16.21
257.65	53.08
257.866	57.17
258.082	53.08
258.299	8.02
258.515	-26.79
258.732	-2.22
258.948	-37.03
259.165	26.45
259.381	14.17
259.597	1.88
259.814	3.93
260.03	-4.27
260.246	34.64
260.463	5.97
260.679	55.12
260.895	42.84
261.112	38.74
261.328	30.55
261.544	26.45
261.761	108.37
261.977	18.26
262.193	-0.17
262.409	-2.22
262.626	-10.41
262.842	34.64
263.058	-2.22
263.274	8.02
263.49	51.03
263.707	-16.55
263.923	77.65
264.139	22.36
264.355	-67.75
264.571	-55.47
264.787	-47.27
265.004	28.5
265.22	36.69
265.436	94.04
265.652	-55.47
265.868	5.97
266.084	-24.75
266.3	-2.22
266.516	36.69
266.732	44.88
266.948	22.36
267.164	-4.27
267.38	-8.36
267.596	48.98
267.812	26.45
268.028	-71.85
268.244	-12.46
268.46	-26.79
268.676	-43.18
268.892	53.08
269.108	-8.36
269.324	75.6
269.54	-37.03
269.756	91.99
269.972	-2.22
270.188	-49.32
270.403	-59.56
270.619	71.51
270.835	30.55
271.051	59.22
271.267	46.93
271.483	-28.84
271.698	3.93
271.914	-39.08
272.13	10.07
272.346	63.32
272.562	-4.27
272.777	100.18
272.993	42.84
273.209	16.21
273.425	22.36
273.64	1.88
273.856	51.03
274.072	-73.9
274.287	30.55
274.503	48.98
274.719	42.84
274.934	30.55
275.15	20.31
275.366	57.17
275.581	18.26
275.797	14.17
276.012	12.12
276.228	69.46
276.444	5.97
276.659	81.75
276.875	10.07
277.09	44.88
277.306	-51.37
277.521	14.17
277.737	-49.32
277.952	1.88
278.168	10.07
278.383	-22.7
278.599	20.31
278.814	24.4
279.03	18.26
279.245	30.55
279.461	87.89
279.676	-12.46
279.892	8.02
280.107	102.23
280.322	-32.94
280.538	26.45
280.753	57.17
280.969	55.12
281.184	36.69
281.399	-10.41
281.615	22.36
281.83	98.13
282.045	-53.42
282.26	46.93
282.476	-0.17
282.691	59.22
282.906	22.36
283.122	42.84
283.337	-49.32
283.552	16.21
283.767	1.88
283.983	-8.36
284.198	-0.17
284.413	20.31
284.628	-30.89
284.843	44.88
285.058	34.64
285.274	-2.22
285.489	-8.36
285.704	46.93
285.919	81.75
286.134	-0.17
286.349	100.18
286.564	-67.75
286.779	18.26
286.995	24.4
287.21	5.97
287.425	42.84
287.64	48.98
287.855	-26.79
288.07	63.32
288.285	89.94
288.5	46.93
288.715	-34.99
288.93	34.64
289.145	10.07
289.36	48.98
289.575	67.41
289.79	8.02
290.004	-10.41
290.219	22.36
290.434	59.22
290.649	32.6
290.864	16.21
291.079	59.22
291.294	28.5
291.509	40.79
291.724	30.55
291.938	-14.51
292.153	-61.61
292.368	-12.46
292.583	38.74
292.798	59.22
293.012	22.36
293.227	3.93
293.442	-16.55
293.657	38.74
293.871	-4.27
294.086	77.65
294.301	5.97
294.516	38.74
294.73	51.03
294.945	32.6
295.16	57.17
295.374	10.07
295.589	59.22
295.804	3.93
296.018	5.97
296.233	22.36
296.447	40.79
296.662	24.4
296.877	-51.37
297.091	-6.31
297.306	-20.65
297.52	24.4
297.735	55.12
297.949	-43.18
298.164	10.07
298.378	1.88
298.593	-2.22
298.807	75.6
299.022	8.02
299.236	79.7
299.451	65.36
299.665	3.93
299.88	28.5
300.094	38.74
300.309	46.93
300.523	69.46
300.737	5.97
300.952	55.12
301.166	71.51
301.381	12.12
301.595	10.07
301.809	5.97
302.024	53.08
302.238	44.88
302.452	34.64
302.667	118.61
302.881	30.55
303.095	28.5
303.309	-14.51
303.524	46.93
303.738	-8.36
303.952	-22.7
304.166	55.12
304.381	-104.62
304.595	34.64
304.809	-30.89
305.023	-10.41
305.237	-2.22
305.452	38.74
305.666	59.22
305.88	28.5
306.094	81.75
306.308	-0.17
306.522	22.36
306.736	51.03
306.95	30.55
307.164	96.08
307.379	38.74
307.593	1.88
307.807	-2.22
308.021	96.08
308.235	-41.13
308.449	18.26
308.663	-20.65
308.877	94.04
309.091	-10.41
309.305	-39.08
309.519	-10.41
309.733	59.22
309.947	51.03
310.161	38.74
310.374	34.64
310.588	20.31
310.802	10.07
311.016	34.64
311.23	-2.22
311.444	12.12
311.658	-20.65
311.872	57.17
312.085	51.03
312.299	124.76
312.513	38.74
312.727	-16.55
312.941	-22.7
313.154	114.52
313.368	61.27
313.582	26.45
313.796	40.79
314.009	34.64
314.223	61.27
314.437	71.51
314.651	3.93
314.864	1.88
315.078	-2.22
315.292	-22.7
315.505	-51.37
315.719	81.75
315.933	18.26
316.146	91.99
316.36	30.55
316.573	67.41
316.787	18.26
317.001	40.79
317.214	-53.42
317.428	98.13
317.641	20.31
317.855	-53.42
318.068	-55.47
318.282	40.79
318.495	26.45
318.709	46.93
318.922	40.79
319.136	22.36
319.349	38.74
319.563	18.26
319.776	18.26
319.99	-18.6
320.203	22.36
320.417	51.03
320.63	20.31
320.843	65.36
321.057	59.22
321.27	34.64
321.483	-61.61
321.697	1.88
321.91	14.17
322.124	48.98
322.337	10.07
322.55	-10.41
322.763	20.31
322.977	38.74
323.19	20.31
323.403	22.36
323.617	51.03
323.83	30.55
324.043	24.4
324.256	91.99
324.469	-10.41
324.683	32.6
324.896	-20.65
325.109	20.31
325.322	10.07
325.535	106.32
325.748	10.07
325.962	-26.79
326.175	12.12
326.388	20.31
326.601	20.31
326.814	20.31
327.027	-6.31
327.24	-45.23
327.453	38.74
327.666	12.12
327.879	12.12
328.092	48.98
328.305	-2.22
328.518	16.21
328.731	30.55
328.944	22.36
329.157	38.74
329.37	-0.17
329.583	67.41
329.796	71.51
330.009	18.26
330.222	-32.94
330.435	-10.41
330.648	112.47
330.861	73.56
331.073	22.36
331.286	-0.17
331.499	20.31
331.712	14.17
331.925	28.5
332.138	8.02
332.35	-39.08
332.563	42.84
332.776	34.64
332.989	51.03
333.202	-24.75
333.414	12.12
333.627	1.88
333.84	-12.46
334.053	12.12
334.265	-22.7
334.478	-10.41
334.691	26.45
334.903	38.74
335.116	26.45
335.329	14.17
335.541	57.17
335.754	10.07
335.966	53.08
336.179	34.64
336.392	81.75
336.604	77.65
336.817	53.08
337.029	-10.41
337.242	12.12
337.454	73.56
337.667	5.97
337.88	42.84
338.092	44.88
338.305	55.12
338.517	40.79
338.729	67.41
338.942	10.07
339.154	-20.65
339.367	75.6
339.579	24.4
339.792	69.46
340.004	30.55
340.217	-53.42
340.429	42.84
340.641	32.6
340.854	14.17
341.066	10.07
341.278	145.24
341.491	61.27
341.703	30.55
341.915	-2.22
342.128	75.6
342.34	57.17
342.552	26.45
342.764	36.69
342.977	1.88
343.189	14.17
343.401	-20.65
343.613	-22.7
343.826	46.93
344.038	28.5
344.25	-2.22
344.462	5.97
344.674	75.6
344.886	20.31
345.099	12.12
345.311	69.46
345.523	16.21
345.735	-0.17
345.947	116.56
346.159	79.7
346.371	18.26
346.583	-8.36
346.795	91.99
347.007	5.97
347.219	63.32
347.431	26.45
347.643	26.45
347.855	26.45
348.067	87.89
348.279	36.69
348.491	40.79
348.703	44.88
348.915	55.12
349.127	-12.46
349.339	-2.22
349.551	61.27
349.763	75.6
349.975	-16.55
350.187	48.98
350.399	26.45
350.61	48.98
350.822	94.04
351.034	67.41
351.246	42.84
351.458	-8.36
351.669	-45.23
351.881	89.94
352.093	16.21
352.305	71.51
352.517	53.08
352.728	-10.41
352.94	-8.36
353.152	-26.79
353.363	3.93
353.575	79.7
353.787	87.89
353.999	34.64
354.21	118.61
354.422	32.6
354.633	-37.03
354.845	61.27
355.057	79.7
355.268	24.4
355.48	48.98
355.692	18.26
355.903	73.56
356.115	28.5
356.326	57.17
356.538	30.55
356.749	46.93
356.961	96.08
357.172	112.47
357.384	-6.31
357.595	-8.36
357.807	42.84
358.018	59.22
358.23	30.55
358.441	5.97
358.653	5.97
358.864	-18.6
359.075	98.13
359.287	75.6
359.498	69.46
359.709	18.26
359.921	55.12
360.132	18.26
360.344	3.93
360.555	8.02
360.766	26.45
360.977	96.08
361.189	40.79
361.4	44.88
361.611	135
361.823	32.6
362.034	100.18
362.245	108.37
362.456	28.5
362.667	67.41
362.879	20.31
363.09	46.93
363.301	44.88
363.512	14.17
363.723	-39.08
363.935	69.46
364.146	5.97
364.357	32.6
364.568	104.28
364.779	102.23
364.99	65.36
365.201	53.08
365.412	57.17
365.623	51.03
365.834	89.94
366.045	-20.65
366.256	-6.31
366.467	46.93
366.678	22.36
366.889	30.55
367.1	1.88
367.311	55.12
367.522	16.21
367.733	69.46
367.944	32.6
368.155	104.28
368.366	-0.17
368.577	44.88
368.788	1.88
368.999	-2.22
369.209	22.36
369.42	38.74
369.631	-0.17
369.842	24.4
370.053	-8.36
370.264	-34.99
370.474	-18.6
370.685	75.6
370.896	26.45
371.107	57.17
371.317	8.02
371.528	3.93
371.739	53.08
371.95	63.32
372.16	71.51
372.371	-16.55
372.582	-77.99
372.792	96.08
373.003	65.36
373.214	22.36
373.424	46.93
373.635	-16.55
373.846	147.28
374.056	46.93
374.267	44.88
374.477	53.08
374.688	14.17
374.898	-14.51
375.109	22.36
375.319	77.65
375.53	3.93
375.74	34.64
375.951	73.56
376.161	75.6
376.372	8.02
376.582	-32.94
376.793	75.6
377.003	71.51
377.214	5.97
377.424	100.18
377.635	30.55
377.845	48.98
378.055	81.75
378.266	-8.36
378.476	26.45
378.686	-10.41
378.897	55.12
379.107	61.27
379.317	77.65
379.528	14.17
379.738	-2.22
379.948	28.5
380.158	85.84
380.369	46.93
380.579	-4.27
380.789	46.93
380.999	139.09
381.21	51.03
381.42	59.22
381.63	42.84
381.84	42.84
382.05	67.41
382.261	83.8
382.471	-45.23
382.681	24.4
382.891	79.7
383.101	87.89
383.311	12.12
383.521	14.17
383.731	79.7
383.941	61.27
384.151	30.55
384.361	51.03
384.571	8.02
384.781	-14.51
384.991	57.17
385.201	71.51
385.411	14.17
385.621	-57.51
385.831	59.22
386.041	51.03
386.251	59.22
386.461	-39.08
386.671	55.12
386.881	73.56
387.091	28.5
387.301	59.22
387.511	55.12
387.72	132.95
387.93	22.36
388.14	83.8
388.35	108.37
388.56	69.46
388.769	106.32
388.979	36.69
389.189	20.31
389.399	20.31
389.609	102.23
389.818	61.27
390.028	89.94
390.238	108.37
390.447	-6.31
390.657	22.36
390.867	20.31
391.076	87.89
391.286	22.36
391.496	65.36
391.705	38.74
391.915	69.46
392.125	112.47
392.334	67.41
392.544	51.03
392.753	65.36
392.963	-2.22
393.172	94.04
393.382	24.4
393.591	118.61
393.801	51.03
394.01	114.52
394.22	53.08
394.429	122.71
394.639	-41.13
394.848	100.18
395.058	63.32
395.267	85.84
395.477	57.17
395.686	143.19
395.895	100.18
396.105	182.1
396.314	20.31
396.524	46.93
396.733	102.23
396.942	96.08
397.152	89.94
397.361	73.56
397.57	122.71
397.78	126.8
397.989	77.65
398.198	71.51
398.407	71.51
398.617	130.9
398.826	137.04
399.035	98.13
399.244	120.66
399.453	65.36
399.663	126.8
399.872	175.95
400.081	46.93
400.29	91.99
400.499	87.89
400.708	85.84
400.917	128.85
401.127	141.14
401.336	110.42
401.545	79.7
401.754	81.75
401.963	22.36
402.172	38.74
402.381	126.8
402.59	87.89
402.799	132.95
403.008	118.61
403.217	114.52
403.426	55.12
403.635	55.12
403.844	132.95
404.053	128.85
404.262	57.17
404.471	130.9
404.68	112.47
404.888	159.57
405.097	44.88
405.306	42.84
405.515	116.56
405.724	145.24
405.933	190.29
406.142	163.67
406.35	149.33
406.559	108.37
406.768	167.76
406.977	192.34
407.185	223.06
407.394	200.53
407.603	190.29
407.812	163.67
408.02	153.43
408.229	251.73
408.438	229.2
408.646	239.44
408.855	223.06
409.064	243.54
409.272	286.54
409.481	317.26
409.69	255.83
409.898	276.31
410.107	300.88
410.315	286.54
410.524	290.64
410.733	350.03
410.941	323.41
411.15	313.17
411.358	350.03
411.567	374.61
411.775	360.27
411.984	374.61
412.192	421.71
412.401	399.18
412.609	399.18
412.818	454.48
413.026	335.7
413.234	399.18
413.443	526.16
413.651	497.49
413.86	501.58
414.068	511.82
414.276	491.34
414.485	589.64
414.693	585.55
414.901	616.27
415.11	663.37
415.318	665.42
415.526	714.57
415.734	679.75
415.943	730.95
416.151	753.48
416.359	702.28
416.567	780.11
416.776	792.39
416.984	839.5
417.192	941.89
417.4	864.07
417.608	935.75
417.817	972.61
418.025	978.76
418.233	1072.96
418.441	1013.57
418.649	1075.01
418.857	1222.47
419.065	1208.13
419.273	1218.37
419.481	1249.09
419.689	1412.93
419.897	1412.93
420.105	1398.59
420.313	1343.3
420.521	1556.29
420.729	1541.95
420.937	1505.09
421.145	1652.54
421.353	1630.01
421.561	1761.08
421.769	1795.9
421.977	1898.3
422.185	1920.82
422.393	1861.43
422.601	2105.14
422.809	1955.64
423.017	2129.72
423.224	2219.83
423.432	2324.27
423.64	2301.75
423.848	2533.17
424.056	2406.19
424.263	2531.12
424.471	2539.31
424.679	2559.79
424.887	2729.77
425.094	2660.14
425.302	2909.99
425.51	3010.34
425.718	3039.01
425.925	3116.84
426.133	3299.11
426.341	3483.42
426.548	3663.65
426.756	3536.67
426.964	3544.86
427.171	3876.63
427.379	3995.42
427.586	4140.82
427.794	4046.62
428.001	4179.73
428.209	4476.69
428.417	4493.07
428.624	4767.5
428.832	4605.71
429.039	4708.11
429.247	4790.03
429.454	5173
429.662	5404.42
429.869	5138.18
430.076	5433.09
430.284	5250.82
430.491	5582.59
430.699	5988.09
430.906	5787.39
431.114	6002.43
431.321	6080.25
431.528	6182.65
431.736	6747.89
431.943	7065.32
432.15	6852.33
432.358	7012.07
432.565	7335.65
432.772	7272.17
432.979	7519.97
433.187	7784.16
433.394	7755.49
433.601	8265.43
433.808	8232.66
434.016	8171.22
434.223	8611.54
434.43	9207.5
434.637	8867.53
434.844	9551.56
435.052	9754.3
435.259	9518.79
435.466	9719.49
435.673	9463.49
435.88	10036.92
436.087	10954.41
436.294	10866.35
436.501	10489.53
436.708	10700.47
436.915	10974.89
437.122	11605.67
437.329	11626.15
437.537	11896.48
437.743	12095.13
437.95	12062.37
438.157	12660.37
438.364	13065.87
438.571	13020.81
438.778	13287.05
438.985	14411.39
439.192	13586.05
439.399	14405.24
439.606	13774.47
439.813	14595.7
440.02	15650.41
440.227	15400.55
440.433	15087.22
440.64	15779.43
440.847	15586.92
441.054	15857.25
441.261	16973.39
441.467	16543.32
441.674	17131.09
441.881	17856.07
442.088	17555.02
442.294	17516.11
442.501	18112.06
442.708	18196.03
442.914	19238.45
443.121	19764.78
443.328	19148.34
443.534	20794.9
443.741	19930.66
443.948	19717.67
444.154	21251.6
444.361	20799
444.568	21124.63
444.774	21020.18
444.981	21571.08
445.187	21990.92
445.394	22908.41
445.6	22853.11
445.807	24939.99
446.013	23766.51
446.22	24174.05
446.426	25290.2
446.633	25314.77
446.839	26090.95
447.046	24987.1
447.252	26676.67
447.459	26492.35
447.665	26133.96
447.871	27547.06
448.078	28618.14
448.284	26971.58
448.491	28233.13
448.697	29066.65
448.903	29482.39
449.11	29621.65
449.316	29021.59
449.522	29580.69
449.728	30367.11
449.935	30870.91
450.141	30549.38
450.347	31321.46
450.553	30041.48
450.76	30766.46
450.966	31769.97
451.172	31292.79
451.378	32220.52
451.584	31217.02
451.791	32200.04
451.997	32038.25
452.203	32738.66
452.409	32546.15
452.615	32224.62
452.821	30854.53
453.027	30858.62
453.233	32605.54
453.44	31026.56
453.646	31542.64
453.852	31632.75
454.058	32046.44
454.264	30983.55
454.47	31442.29
454.676	31079.8
454.882	31608.18
455.088	29361.56
455.294	29533.59
455.5	30012.81
455.705	30178.7
455.911	28937.63
456.117	28331.43
456.323	27950.51
456.529	26428.87
456.735	27461.04
456.941	27147.7
457.147	26627.52
457.352	25540.05
457.558	25425.36
457.764	25296.34
457.97	24487.39
458.176	24231.4
458.381	24272.35
458.587	23227.89
458.793	23076.34
458.999	21915.14
459.204	23453.17
459.41	22971.89
459.616	21550.6
459.821	21433.87
460.027	21321.23
460.233	20694.55
460.438	19811.88
460.644	20084.26
460.85	19250.74
461.055	18992.69
461.261	18837.05
461.466	17624.65
461.672	17004.11
461.878	18079.3
462.083	17018.45
462.289	16631.38
462.494	16455.26
462.7	15726.18
462.905	15167.09
463.111	15537.77
463.316	15720.04
463.522	15472.23
463.727	15580.78
463.932	15314.54
464.138	15341.16
464.343	15408.75
464.549	14968.43
464.754	15562.34
464.959	15525.48
465.165	15058.54
465.37	14827.12
465.575	14120.57
465.781	14767.73
465.986	14814.84
466.191	14319.23
466.397	14016.13
466.602	13211.28
466.807	13825.67
467.012	13792.9
467.218	13733.51
467.423	13708.93
467.628	13647.49
467.833	14225.02
468.038	13661.83
468.244	13301.39
468.449	13764.23
468.654	13336.2
468.859	13127.31
469.064	13258.38
469.269	12863.12
469.474	13084.3
469.679	13174.41
469.885	12560.02
470.09	12670.61
470.295	12787.35
470.5	12603.03
470.705	12484.25
470.91	12408.47
471.115	12191.39
471.32	12488.34
471.525	12179.1
471.73	11939.49
471.935	12115.61
472.139	11597.48
472.344	11740.83
472.549	11370.15
472.754	11542.18
472.959	11187.88
473.164	10841.78
473.369	11026.09
473.574	11239.08
473.778	11108.01
473.983	10921.65
474.188	10970.8
474.393	10284.73
474.598	10383.03
474.802	10387.13
475.007	10311.35
475.212	10311.35
475.417	9983.68
475.621	9979.58
475.826	10108.6
476.031	9764.54
476.235	9744.06
476.44	9805.5
476.645	9537.22
476.849	9612.99
477.054	9422.53
477.259	9318.09
477.463	9299.66
477.668	9006.8
477.872	9092.81
478.077	9027.28
478.282	8707.79
478.486	8914.64
478.691	8756.94
478.895	8752.85
479.1	8685.26
479.304	8740.56
479.509	8421.08
479.713	8494.8
479.918	8197.85
480.122	8144.6
480.326	8326.87
480.531	8206.04
480.735	8070.87
480.94	8310.49
481.144	8281.81
481.348	8134.36
481.553	8038.11
481.757	7984.86
481.961	8025.82
482.166	8349.4
482.37	7956.19
482.574	7808.73
482.778	8058.59
482.983	8247
483.187	7886.56
483.391	8031.96
483.595	8019.67
483.8	7904.99
484.004	7915.23
484.208	8167.13
484.412	7927.52
484.616	8062.68
484.821	8081.11
485.025	7767.77
485.229	8173.27
485.433	8003.29
485.637	7896.8
485.841	8101.59
486.045	7882.46
486.249	8027.87
486.453	7851.74
486.657	7952.09
486.861	7962.33
487.065	7595.75
487.269	7730.91
487.473	7857.89
487.677	7980.76
487.881	8122.07
488.085	7814.88
488.289	8150.74
488.493	7927.52
488.697	7986.91
488.901	8011.48
489.105	8013.53
489.309	8013.53
489.512	7888.6
489.716	8263.38
489.92	8036.06
490.124	7978.72
490.328	8267.48
490.531	8089.31
490.735	7970.52
490.939	8195.8
491.143	8091.35
491.346	8136.41
491.55	8267.48
491.754	8173.27
491.958	8361.69
492.161	8142.55
492.365	8333.01
492.569	8132.31
492.772	8335.06
492.976	8398.55
493.18	8474.32
493.383	8498.9
493.587	8783.57
493.79	8566.48
493.994	8611.54
494.197	8640.21
494.401	8859.34
494.605	8900.3
494.808	9021.13
495.012	8984.27
495.215	9074.38
495.419	9146.06
495.622	9027.28
495.825	9137.87
496.029	9238.22
496.232	9434.82
496.436	9178.83
496.639	9606.85
496.843	9690.82
497.046	9625.28
497.249	9760.45
497.453	9830.08
497.656	10079.93
497.859	10174.14
498.063	10299.06
498.266	10141.37
498.469	10430.13
498.673	10452.66
498.876	10415.8
499.079	10677.94
499.282	10624.69
499.485	10892.98
499.689	10938.03
499.892	11054.76
500.095	11003.57
500.298	11550.37
500.501	11349.67
500.705	11490.98
500.908	11892.38
501.111	11761.31
501.314	11941.54
501.517	11994.78
501.72	12177.05
501.923	12179.1
502.126	12451.48
502.329	12811.92
502.532	12836.5
502.735	12713.62
502.938	12764.82
503.141	12744.34
503.344	13268.62
503.547	13432.46
503.75	13371.02
503.953	13926.02
504.156	13751.94
504.359	13850.24
504.562	14112.38
504.765	14235.26
504.968	14407.29
505.17	14651
505.373	14528.12
505.576	14921.33
505.779	15158.89
505.982	15101.55
506.185	15294.06
506.387	15418.99
506.59	15390.31
506.793	15681.13
506.996	15924.83
507.198	16287.32
507.401	16037.47
507.604	16569.94
507.807	16619.1
508.009	16987.73
508.212	16895.57
508.415	17325.64
508.617	17360.46
508.82	17456.71
509.022	17411.66
509.225	18062.91
509.428	18075.2
509.63	17944.13
509.833	17933.89
510.035	18636.34
510.238	18439.74
510.44	18677.3
510.643	18955.83
510.845	18851.38
511.048	18806.33
511.25	19275.31
511.453	19379.76
511.655	20020.77
511.858	19838.5
512.06	20096.55
512.262	20487.71
512.465	19977.76
512.667	20770.33
512.87	21091.86
513.072	21089.81
513.274	21554.7
513.477	21704.2
513.679	21640.72
513.881	21812.74
514.084	21898.76
514.286	21802.5
514.488	22318.59
514.69	22801.91
514.893	22885.88
515.095	22801.91
515.297	23604.72
515.499	23477.74
515.701	23836.14
515.904	23756.27
516.106	24180.2
516.308	24194.53
516.51	24524.26
516.712	24628.7
516.914	24888.79
517.116	25499.09
517.318	25128.41
517.52	25501.14
517.722	25769.42
517.925	26160.58
518.127	26246.6
518.329	26426.82
518.531	26281.41
518.733	26836.41
518.935	27043.26
519.136	27303.35
519.338	27518.39
519.54	27440.56
519.742	28032.43
519.944	27766.19
520.146	28450.21
520.348	28583.33
520.55	29021.59
520.752	28816.8
520.954	29693.33
521.155	29271.45
521.357	29683.09
521.559	29957.52
521.761	30422.41
521.963	30168.46
522.164	30313.86
522.366	30391.69
522.568	30424.45
522.77	30922.11
522.971	31202.68
523.173	31368.57
523.375	31470.97
523.576	31575.41
523.778	31540.6
523.98	31855.98
524.181	32451.94
524.383	32335.21
524.584	32734.56
524.786	32662.88
524.988	32503.14
525.189	33109.34
525.391	33457.49
525.592	33441.11
525.794	33465.69
525.995	33955.15
526.197	33492.31
526.398	33680.72
526.6	33920.34
526.801	34192.72
527.003	34317.64
527.204	34358.6
527.406	34647.36
527.607	34604.36
527.808	34913.6
528.01	34231.63
528.211	34823.49
528.412	35380.54
528.614	35231.04
528.815	35267.9
529.016	35724.6
529.218	35296.57
529.419	35126.59
529.62	35712.31
529.822	35743.03
530.023	35618.1
530.224	36146.48
530.425	35859.76
530.626	35519.8
530.828	35519.8
531.029	36355.37
531.23	35716.4
531.431	36052.27
531.632	36304.17
531.833	36140.33
532.035	36353.32
532.236	36017.46
532.437	36365.61
532.638	36060.46
532.839	36699.43
533.04	36437.29
533.241	36113.71
533.442	37141.79
533.643	36560.17
533.844	36334.89
534.045	36697.38
534.246	36691.24
534.447	36695.33
534.648	36662.57
534.849	37008.67
535.05	36494.63
535.251	36789.54
535.451	36767.01
535.652	36406.57
535.853	36359.47
536.054	36863.27
536.255	36977.95
536.456	36472.1
536.657	37023.01
536.857	36605.22
537.058	36609.32
537.259	36637.99
537.46	36457.77
537.66	36779.3
537.861	36793.64
538.062	36566.31
538.263	36627.75
538.463	36449.58
538.664	36953.38
538.865	36920.61
539.065	36748.58
539.266	36586.79
539.466	36861.22
539.667	36336.94
539.868	37268.76
540.068	36584.74
540.269	36437.29
540.469	36650.28
540.67	36508.97
540.87	36914.47
541.071	36889.89
541.271	36865.31
541.472	36418.86
541.672	36506.92
541.873	36554.02
542.073	36232.49
542.274	36668.71
542.474	36455.72
542.675	36396.33
542.875	36965.67
543.075	36580.65
543.276	36056.37
543.476	36633.89
543.676	36416.81
543.877	36846.88
544.077	36617.51
544.277	36244.78
544.478	36498.73
544.678	36758.82
544.878	36324.65
545.078	36838.69
545.279	36130.09
545.479	36511.02
545.679	36336.94
545.879	36261.16
546.079	36560.17
546.28	36142.38
546.48	36136.24
546.68	36244.78
546.88	36439.34
547.08	36357.42
547.28	36410.67
547.48	35730.74
547.68	36242.73
547.88	36265.26
548.081	35941.68
548.281	36162.86
548.481	36162.86
548.681	36228.4
548.881	36582.7
549.081	36457.77
549.28	36107.57
549.48	36465.96
549.68	36291.88
549.88	36945.19
550.08	36005.17
550.28	35863.86
550.48	35788.08
550.68	36388.14
550.88	35700.02
551.08	36119.85
551.279	36242.73
551.479	35876.15
551.679	35882.29
551.879	36001.07
552.079	36199.72
552.278	35820.85
552.478	36007.22
552.678	35691.83
552.878	35814.71
553.077	35865.91
553.277	35495.22
553.477	36039.98
553.676	35513.66
553.876	35749.17
554.076	35919.15
554.275	35691.83
554.475	35376.44
554.674	35517.75
554.874	35542.33
555.074	35413.3
555.273	35644.73
555.473	35687.73
555.672	35290.43
555.872	35220.8
556.071	35470.65
556.271	35665.21
556.47	34985.28
556.67	34874.69
556.869	35390.78
557.068	35388.73
557.268	35171.64
557.467	34972.99
557.667	34760
557.866	35122.49
558.065	35202.36
558.265	34559.3
558.464	34653.51
558.663	35124.54
558.863	34438.47
559.062	34751.81
559.261	34266.44
559.461	34821.44
559.66	34358.6
559.859	34563.4
560.058	34032.97
560.258	34319.69
560.457	34162
560.656	34377.03
560.855	34374.98
561.054	34241.87
561.253	34065.74
561.453	33903.95
561.652	34274.63
561.851	34127.18
562.05	33813.84
562.249	33660.24
562.448	33736.02
562.647	33570.13
562.846	33410.39
563.045	33641.81
563.244	33287.51
563.443	33645.91
563.642	33281.37
563.841	33144.16
564.04	33377.62
564.239	33181.02
564.438	33064.28
564.637	33101.15
564.836	33277.27
565.035	32374.12
565.234	32828.77
565.432	32716.13
565.631	32834.91
565.83	32820.58
566.029	32492.9
566.228	32300.39
566.427	32243.05
566.625	32154.99
566.824	31962.48
567.023	32140.65
567.222	31767.92
567.42	32423.27
567.619	31704.43
567.818	31782.26
568.016	31714.67
568.215	32148.84
568.414	31403.38
568.612	31966.57
568.811	31407.48
569.01	31569.27
569.208	31141.24
569.407	31726.96
569.605	31049.08
569.804	31407.48
570.002	30778.75
570.201	31022.46
570.4	30678.4
570.598	30649.73
570.797	30592.39
570.995	30680.45
571.193	30127.5
571.392	30797.18
571.59	30344.58
571.789	30342.53
571.987	30172.55
572.186	30172.55
572.384	30229.9
572.582	30004.62
572.781	30141.83
572.979	29664.66
573.177	29554.07
573.376	29678.99
573.574	29238.68
573.772	29736.34
573.971	29324.69
574.169	29388.18
574.367	29205.91
574.565	29484.44
574.763	28859.8
574.962	28835.23
575.16	28642.72
575.358	28972.44
575.556	28568.99
575.754	29046.17
575.952	28327.33
576.151	28888.48
576.349	28298.66
576.547	28212.65
576.745	28554.66
576.943	28059.05
577.141	28026.28
577.339	28007.85
577.537	27893.16
577.735	27893.16
577.933	27784.62
578.131	28120.49
578.329	27624.88
578.527	27381.17
578.725	27616.69
578.923	27758
579.121	27301.3
579.319	27383.22
579.516	27424.18
579.714	27143.61
579.912	27180.47
580.11	26947
580.308	26963.39
580.506	26822.08
580.704	26959.29
580.901	26863.04
581.099	26881.47
581.297	26445.25
581.495	26131.91
581.692	26691.01
581.89	26383.81
582.088	26205.64
582.285	26242.5
582.483	26332.61
582.681	26342.85
582.878	26107.33
583.076	25791.95
583.274	25937.35
583.471	25744.84
583.669	25898.44
583.866	25753.04
584.064	25839.05
584.262	25705.93
584.459	25697.74
584.657	25509.33
584.854	25634.25
585.052	24999.38
585.249	25320.91
585.447	25304.53
585.644	24888.79
585.841	24899.03
586.039	25161.17
586.236	24620.51
586.434	24624.61
586.631	24761.82
586.828	24571.36
587.026	24903.13
587.223	24448.48
587.42	24479.2
587.618	24348.13
587.815	24350.18
588.012	24395.23
588.21	23793.13
588.407	24239.59
588.604	23963.11
588.801	23569.9
588.999	23688.68
589.196	23913.96
589.393	23829.99
589.59	23660.01
589.787	23504.37
589.984	23668.2
590.182	23260.66
590.379	23623.15
590.576	23154.16
590.773	23442.93
590.97	23143.92
591.167	23107.06
591.364	22887.93
591.561	23062.01
591.758	22672.89
591.955	23072.25
592.152	22646.27
592.349	22517.25
592.546	22789.63
592.743	22744.57
592.94	22177.28
593.137	22535.68
593.334	22388.22
593.531	22246.91
593.727	22367.74
593.924	22314.5
594.121	22023.69
594.318	22087.17
594.515	22015.49
594.712	21906.95
594.908	21741.07
595.105	21802.5
595.302	21685.77
595.499	21626.38
595.696	21657.1
595.892	21495.31
596.089	21278.22
596.286	21556.75
596.482	21165.59
596.679	21399.05
596.876	21521.93
597.072	21147.15
597.269	21112.34
597.466	20842.01
597.662	20915.73
597.859	21059.09
598.055	20842.01
598.252	20712.99
598.448	20536.86
598.645	20780.57
598.841	20330.02
599.038	20583.96
599.234	20430.37
599.431	20135.46
599.627	20157.99
599.824	20311.58
600.02	20192.8
600.217	20282.91
600.413	20063.78
600.609	19904.04
600.806	19877.41
601.002	19875.37
601.198	19930.66
601.395	19717.67
601.591	19539.5
601.787	19635.75
601.984	19410.48
602.18	19652.14
602.376	19430.96
602.572	19342.89
602.769	19453.48
602.965	19158.58
603.161	19086.9
603.357	19031.6
603.553	18908.72
603.75	19246.64
603.946	18810.42
604.142	18980.4
604.338	18583.1
604.534	18912.82
604.73	18681.4
604.926	18630.2
605.122	18787.89
605.318	18171.46
605.514	18630.2
605.71	18345.53
605.906	18607.67
606.102	18359.87
606.298	18163.26
606.494	18120.26
606.69	18161.22
606.886	18409.02
607.082	17974.85
607.278	18157.12
607.474	17698.38
607.67	18060.87
607.866	17937.99
608.062	18062.91
608.257	17661.51
608.453	17745.48
608.649	17942.08
608.845	17434.19
609.041	17731.14
609.236	17692.23
609.432	17378.89
609.628	17800.77
609.824	17487.43
610.019	17505.87
610.215	17253.97
610.411	17405.52
610.606	17102.42
610.802	17329.74
610.998	16881.24
611.193	17235.53
611.389	17194.57
611.584	17045.07
611.78	17061.46
611.976	17016.4
612.171	17141.33
612.367	17024.59
612.562	16928.34
612.758	16696.92
612.953	16655.96
613.149	17045.07
613.344	16666.2
613.539	17184.34
613.735	16817.75
613.93	16610.9
614.126	16719.45
614.321	16727.64
614.517	16539.22
614.712	16477.79
614.907	16440.92
615.103	16430.68
615.298	16193.12
615.493	16735.83
615.688	16215.65
615.884	16602.71
616.079	16156.25
616.274	16363.1
616.47	16105.06
616.665	16186.97
616.86	16021.09
617.055	15945.31
617.25	16178.78
617.445	16014.94
617.641	15732.33
617.836	15885.92
618.031	15773.28
618.226	15965.79
618.421	16000.61
618.616	15892.07
618.811	15631.97
619.006	16100.96
619.201	15441.51
619.396	15517.29
619.591	15224.43
619.786	15564.39
619.981	15193.71
620.176	15271.53
620.371	15326.83
620.566	15361.64
620.761	14880.37
620.956	15076.98
621.151	14495.35
621.346	14956.15
621.541	14755.44
621.735	14913.14
621.93	14587.51
622.125	14722.68
622.32	14296.7
622.515	14339.71
622.709	14382.71
622.904	14607.99
623.099	13971.07
623.294	14280.32
623.488	13977.22
623.683	13870.72
623.878	13745.8
624.072	13905.54
624.267	14093.95
624.462	13616.77
624.656	13581.96
624.851	13819.52
625.046	13651.59
625.24	13491.85
625.435	13170.32
625.629	13411.98
625.824	13196.94
626.018	13209.23
626.213	12928.66
626.407	13172.36
626.602	12787.35
626.796	12912.27
626.991	12844.69
627.185	12863.12
627.38	12668.56
627.574	12582.55
627.768	12412.57
627.963	12428.95
628.157	12226.2
628.352	12621.46
628.546	12183.2
628.74	12474.01
628.935	12205.72
629.129	12097.18
629.323	11886.24
629.517	11890.34
629.712	12091.04
629.906	11765.41
630.1	11603.62
630.294	11597.48
630.489	11613.86
630.683	11558.56
630.877	11609.76
631.071	11470.5
631.265	11527.85
631.459	11390.63
631.653	11329.19
631.848	11239.08
632.042	11128.49
632.236	11321
632.43	11120.3
632.624	11169.45
632.818	10821.3
633.012	10858.16
633.206	10952.37
633.4	10864.3
633.594	10579.64
633.788	10684.08
633.982	10510
634.176	10544.82
634.369	10477.24
634.563	10399.41
634.757	10409.65
634.951	10565.3
635.145	10344.12
635.339	10112.7
635.533	10286.78
635.726	10104.51
635.92	9684.67
636.114	10155.71
636.308	10090.17
636.501	9959.1
636.695	9885.37
636.889	9854.65
637.083	9725.63
637.276	9473.73
637.47	9610.95
637.664	9717.44
637.857	9717.44
638.051	9510.6
638.244	9451.21
638.438	9385.67
638.632	9326.28
638.825	9187.02
639.019	9189.07
639.212	9150.15
639.406	9031.37
639.599	8988.36
639.793	8933.07
639.986	8984.27
640.18	9084.62
640.373	8971.98
640.567	8701.65
640.76	8916.69
640.954	8818.38
641.147	8746.7
641.34	8535.76
641.534	8634.07
641.727	8521.43
641.92	8574.67
642.114	8318.68
642.307	8533.72
642.5	8427.22
642.694	8261.34
642.887	8384.21
643.08	8203.99
643.273	8312.53
643.467	8247
643.66	8062.68
643.853	8113.88
644.046	7874.27
644.239	8081.11
644.432	7888.6
644.626	7753.44
644.819	7730.91
645.012	7802.59
645.205	7890.65
645.398	7837.41
645.591	7624.42
645.784	7616.23
645.977	7567.07
646.17	7634.66
646.363	7456.48
646.556	7386.85
646.749	7399.14
646.942	7560.93
647.135	7446.24
647.328	7268.07
647.521	7153.38
647.714	7106.28
647.907	7214.82
648.099	7157.48
648.292	7225.06
648.485	7163.62
648.678	7044.84
648.871	7063.27
649.064	6794.99
649.256	6997.74
649.449	7024.36
649.642	6897.39
649.835	6801.13
650.027	6899.44
650.22	6717.17
650.413	6739.69
650.605	6776.56
650.798	6891.24
650.991	6577.9
651.183	6584.05
651.376	6530.8
651.568	6305.53
651.761	6530.8
651.954	6481.65
652.146	6346.48
652.339	6428.4
652.531	6541.04
652.724	6323.96
652.916	6145.78
653.109	6190.84
653.301	6291.19
653.494	6141.69
653.686	6016.76
653.879	6137.59
654.071	6113.02
654.263	5979.9
654.456	5895.93
654.648	5940.99
654.84	6020.86
655.033	5932.79
655.225	5760.77
655.417	5766.91
655.61	5885.69
655.802	5871.36
655.994	5732.09
656.186	5768.96
656.379	5785.34
656.571	5709.57
656.763	5627.65
656.955	5441.28
657.148	5560.06
657.34	5603.07
657.532	5394.18
657.724	5400.32
657.916	5449.47
658.108	5472
658.3	5504.77
658.492	5168.9
658.684	5457.67
658.876	5275.4
659.068	5287.68
659.26	5236.49
659.452	5367.56
659.644	5203.72
659.836	5105.42
660.028	5281.54
660.22	5058.31
660.412	5056.26
660.604	5015.3
660.796	4980.49
660.988	5050.12
661.18	4949.77
661.372	4833.04
661.563	4982.54
661.755	4996.87
661.947	4962.06
662.139	4810.51
662.331	4794.12
662.522	4777.74
662.714	4757.26
662.906	4855.56
663.097	4755.21
663.289	4673.29
663.481	4486.93
663.673	4574.99
663.864	4546.32
664.056	4599.57
664.247	4699.92
664.439	4519.7
664.631	4517.65
664.822	4458.26
665.014	4521.74
665.205	4521.74
665.397	4445.97
665.588	4458.26
665.78	4474.64
665.971	4333.33
666.163	4382.48
666.354	4273.94
666.546	4296.47
666.737	4237.08
666.929	4300.56
667.12	4372.24
667.311	4247.32
667.503	4157.21
667.694	4245.27
667.885	4249.36
668.077	4257.56
668.268	4030.23
668.459	4261.65
668.651	4124.44
668.842	4212.5
669.033	4058.9
669.224	4058.9
669.416	3997.46
669.607	4007.7
669.798	3970.84
669.989	3936.03
670.18	4060.95
670.371	3852.06
670.563	3901.21
670.754	3856.15
670.945	3743.52
671.136	3968.79
671.327	3792.67
671.518	3960.6
671.709	3895.07
671.9	3985.18
672.091	3915.55
672.282	3811.1
672.473	3655.45
672.664	3878.68
672.855	3751.71
673.046	3800.86
673.237	3753.76
673.428	3837.72
673.619	3634.97
673.809	3727.13
674	3684.13
674.191	3467.04
674.382	3647.26
674.573	3591.97
674.764	3626.78
674.954	3542.82
675.145	3481.38
675.336	3546.91
675.527	3632.93
675.717	3561.25
675.908	3487.52
676.099	3581.73
676.289	3458.85
676.48	3520.29
676.671	3508
676.861	3598.11
677.052	3370.79
677.243	3503.9
677.433	3467.04
677.624	3569.44
677.814	3512.1
678.005	3421.99
678.195	3514.14
678.386	3510.05
678.576	3335.97
678.767	3368.74
678.957	3356.45
679.148	3450.66
679.338	3362.59
679.529	3508
679.719	3286.82
679.909	3393.31
680.1	3407.65
680.29	3397.41
680.481	3335.97
680.671	3366.69
680.861	3290.92
681.052	3393.31
681.242	3307.3
681.432	3370.79
681.622	3247.91
681.813	3254.05
682.003	3241.76
682.193	3198.76
682.383	3249.96
682.573	3204.9
682.764	3378.98
682.954	3225.38
683.144	3372.83
683.334	3192.61
683.524	3249.96
683.714	3073.83
683.904	3215.14
684.094	3239.72
684.284	3211.04
684.474	3159.85
684.664	3149.61
684.854	3073.83
685.044	3008.3
685.234	3147.56
685.424	3127.08
685.614	3057.45
685.804	3075.88
685.994	2993.96
686.184	3020.58
686.374	3071.78
686.564	3034.92
686.753	2991.91
686.943	3065.64
687.133	3075.88
687.323	2985.77
687.513	3082.02
687.702	2963.24
687.892	3036.97
688.082	2864.94
688.272	2895.66
688.461	3067.69
688.651	2813.74
688.841	2893.61
689.03	2948.9
689.22	2740.01
689.41	2887.47
689.599	2783.02
689.789	2885.42
689.979	2842.41
690.168	2707.24
690.358	2844.46
690.547	2748.2
690.737	2846.51
690.926	2748.2
691.116	2733.87
691.305	2740.01
691.495	2656.04
691.684	2664.24
691.874	2697
692.063	2719.53
692.252	2774.83
692.442	2645.8
692.631	2590.51
692.82	2688.81
693.01	2598.7
693.199	2727.72
693.388	2649.9
693.578	2676.52
693.767	2754.35
693.956	2627.37
694.146	2619.18
694.335	2506.54
694.524	2586.41
694.713	2559.79
694.902	2596.65
695.092	2570.03
695.281	2508.59
695.47	2645.8
695.659	2514.73
695.848	2449.2
696.037	2547.5
696.226	2484.02
696.415	2504.5
696.604	2529.07
696.793	2418.48
696.982	2475.82
697.171	2475.82
697.36	2475.82
697.549	2389.81
697.738	2592.56
697.927	2363.19
698.116	2428.72
698.305	2527.02
698.494	2467.63
698.683	2475.82
698.872	2545.45
699.061	2414.38
699.25	2455.34
699.438	2430.77
699.627	2545.45
699.816	2492.21
700.005	2404.14
700.193	2344.75
700.382	2492.21
700.571	2467.63
700.76	2260.79
700.948	2488.11
701.137	2389.81
701.326	2412.34
701.514	2436.91
701.703	2414.38
701.892	2379.57
702.08	2441.01
702.269	2406.19
702.457	2430.77
702.646	2500.4
702.834	2457.39
703.023	2305.84
703.212	2416.43
703.4	2492.21
703.589	2352.95
703.777	2322.23
703.965	2463.54
704.154	2324.27
704.342	2412.34
704.531	2225.97
704.719	2408.24
704.907	2326.32
705.096	2357.04
705.284	2381.62
705.472	2346.8
705.661	2406.19
705.849	2389.81
706.037	2418.48
706.226	2316.08
706.414	2342.71
706.602	2373.43
706.79	2242.36
706.979	2338.61
707.167	2377.52
707.355	2373.43
707.543	2271.03
707.731	2469.68
707.919	2314.03
708.107	2195.25
708.296	2326.32
708.484	2328.37
708.672	2424.62
708.86	2328.37
709.048	2309.94
709.236	2357.04
709.424	2238.26
709.612	2273.07
709.8	2344.75
709.988	2234.16
710.176	2391.86
710.364	2377.52
710.551	2305.84
710.739	2273.07
710.927	2328.37
711.115	2367.28
711.303	2357.04
711.491	2287.41
711.679	2354.99
711.866	2344.75
712.054	2361.14
712.242	2217.78
712.43	2426.67
712.617	2412.34
712.805	2342.71
712.993	2389.81
713.181	2240.31
713.368	2352.95
713.556	2307.89
713.744	2271.03
713.931	2367.28
714.119	2254.64
714.306	2307.89
714.494	2332.47
714.682	2268.98
714.869	2250.55
715.057	2291.51
715.244	2203.44
715.432	2336.56
715.619	2400.05
715.807	2266.93
715.994	2228.02
716.182	2352.95
716.369	2342.71
716.556	2338.61
716.744	2301.75
716.931	2301.75
717.119	2287.41
717.306	2277.17
717.493	2301.75
717.681	2371.38
717.868	2176.82
718.055	2258.74
718.242	2336.56
718.43	2295.6
718.617	2453.3
718.804	2307.89
718.991	2230.07
719.179	2320.18
719.366	2266.93
719.553	2299.7
719.74	2350.9
719.927	2289.46
720.114	2334.51
720.301	2234.16
720.488	2234.16
720.676	2318.13
720.863	2180.92
721.05	2311.99
721.237	2281.27
721.424	2264.88
721.611	2246.45
721.798	2291.51
721.985	2303.79
722.172	2191.16
722.358	2156.34
722.545	2266.93
722.732	2215.73
722.919	2268.98
723.106	2426.67
723.293	2176.82
723.48	2262.83
723.667	2334.51
723.853	2240.31
724.04	2301.75
724.227	2271.03
724.414	2254.64
724.6	2256.69
724.787	2287.41
724.974	2205.49
725.161	2309.94
725.347	2258.74
725.534	2314.03
725.72	2195.25
725.907	2307.89
726.094	2131.76
726.28	2193.2
726.467	2254.64
726.653	2287.41
726.84	2172.72
727.027	2275.12
727.213	2182.96
727.4	2320.18
727.586	2125.62
727.773	2256.69
727.959	2176.82
728.145	2318.13
728.332	2142
728.518	2287.41
728.705	2230.07
728.891	2135.86
729.077	2305.84
729.264	2332.47
729.45	2260.79
729.636	2273.07
729.823	2295.6
730.009	2223.92
730.195	2228.02
730.382	2363.19
730.568	2273.07
730.754	2252.59
730.94	2228.02
731.126	2238.26
731.313	2262.83
731.499	2309.94
731.685	2180.92
731.871	2109.24
732.057	2285.36
732.243	2166.58
732.429	2217.78
732.615	2254.64
732.801	2299.7
732.987	2277.17
733.173	2131.76
733.359	2148.15
733.545	2228.02
733.731	2131.76
733.917	2117.43
734.103	2201.4
734.289	2248.5
734.475	2309.94
734.661	2301.75
734.847	2119.48
735.033	2080.57
735.219	2256.69
735.404	2250.55
735.59	2172.72
735.776	2230.07
735.962	2174.77
736.148	2178.87
736.333	2236.21
736.519	2252.59
736.705	2168.63
736.89	2209.59
737.076	2174.77
737.262	2142
737.447	2152.24
737.633	2154.29
737.819	2217.78
738.004	2150.2
738.19	2211.64
738.375	2144.05
738.561	2170.68
738.747	2185.01
738.932	2211.64
739.118	2133.81
739.303	2156.34
739.489	2121.52
739.674	2225.97
739.859	2137.91
740.045	2187.06
740.23	1998.65
740.416	2043.7
740.601	2090.81
740.786	2027.32
740.972	2025.27
741.157	2125.62
741.342	2049.85
741.528	2058.04
741.713	2060.09
741.898	2072.37
742.084	2010.93
742.269	2002.74
742.454	2094.9
742.639	2002.74
742.824	2004.79
743.01	1996.6
743.195	2072.37
743.38	1992.5
743.565	1980.22
743.75	1926.97
743.935	1965.88
744.12	1996.6
744.305	1947.45
744.49	1982.26
744.675	1943.35
744.86	1949.5
745.045	1908.54
745.23	1908.54
745.415	1937.21
745.6	2004.79
745.785	1947.45
745.97	1863.48
746.155	1918.78
746.34	1933.11
746.525	1918.78
746.71	1816.38
746.895	1828.67
747.079	1709.88
747.264	1941.3
747.449	1867.58
747.634	1916.73
747.819	1759.03
748.003	1822.52
748.188	1777.47
748.373	1709.88
748.557	1894.2
748.742	1726.27
748.927	1763.13
749.111	1730.36
749.296	1732.41
749.481	1718.08
749.665	1689.4
749.85	1695.55
750.034	1691.45
750.219	1730.36
750.404	1756.99
750.588	1648.44
750.773	1562.43
750.957	1640.25
751.141	1587.01
751.326	1447.74
751.51	1587.01
751.695	1597.24
751.879	1593.15
752.064	1589.05
752.248	1599.29
752.432	1593.15
752.617	1509.18
752.801	1630.01
752.985	1460.03
753.17	1548.09
753.354	1460.03
753.538	1544
753.722	1443.65
753.907	1468.22
754.091	1523.52
754.275	1437.5
754.459	1451.84
754.643	1453.89
754.828	1390.4
755.012	1361.73
755.196	1513.28
755.38	1429.31
755.564	1292.1
755.748	1400.64
755.932	1371.97
756.116	1335.1
756.3	1331.01
756.484	1326.91
756.668	1238.85
756.852	1283.91
757.036	1361.73
757.22	1349.44
757.404	1324.87
757.588	1181.51
757.772	1281.86
757.956	1283.91
758.14	1341.25
758.323	1218.37
758.507	1136.45
758.691	1136.45
758.875	1234.75
759.059	1285.95
759.242	1175.36
759.426	1142.6
759.61	1240.9
759.794	1163.08
759.977	1163.08
760.161	1165.12
760.345	1208.13
760.528	1140.55
760.712	1193.8
760.895	1161.03
761.079	1163.08
761.263	1142.6
761.446	1197.89
761.63	1161.03
761.813	1144.64
761.997	1075.01
762.18	1103.68
762.364	1056.58
762.547	1034.05
762.731	978.76
762.914	1136.45
763.098	1091.4
763.281	1011.53
763.464	1058.63
763.648	1058.63
763.831	978.76
764.015	1081.16
764.198	1048.39
764.381	995.14
764.564	997.19
764.748	1095.49
764.931	974.66
765.114	907.08
765.297	956.23
765.481	1013.57
765.664	1048.39
765.847	902.98
766.03	1042.25
766.213	1032.01
766.397	1058.63
766.58	995.14
766.763	956.23
766.946	997.19
767.129	976.71
767.312	964.42
767.495	982.85
767.678	1005.38
767.861	937.8
768.044	1025.86
768.227	933.7
768.41	898.89
768.593	927.56
768.776	909.13
768.959	939.85
769.142	982.85
769.324	827.21
769.507	870.22
769.69	927.56
769.873	814.92
770.056	921.42
770.239	902.98
770.421	925.51
770.604	794.44
770.787	890.7
770.97	911.18
771.152	855.88
771.335	878.41
771.518	886.6
771.7	798.54
771.883	890.7
772.066	859.98
772.248	821.06
772.431	851.78
772.613	927.56
772.796	788.3
772.978	855.88
773.161	847.69
773.343	802.63
773.526	757.58
773.708	814.92
773.891	757.58
774.073	755.53
774.256	677.71
774.438	800.59
774.621	767.82
774.803	788.3
774.985	689.99
775.168	763.72
775.35	747.34
775.532	788.3
775.715	706.38
775.897	706.38
776.079	755.53
776.261	718.67
776.444	702.28
776.626	753.48
776.808	708.43
776.99	759.63
777.173	710.47
777.355	687.95
777.537	759.63
777.719	687.95
777.901	702.28
778.083	655.18
778.265	661.32
778.447	710.47
778.629	610.12
778.811	606.03
778.993	651.08
779.175	667.47
779.357	620.36
779.539	589.64
779.721	530.25
779.903	585.55
780.085	651.08
780.267	644.94
780.449	597.84
780.631	644.94
780.812	700.23
780.994	554.83
781.176	589.64
781.358	565.07
781.54	575.31
781.721	470.86
781.903	538.45
782.085	552.78
782.267	565.07
782.448	505.68
782.63	493.39
782.812	575.31
782.993	468.81
783.175	503.63
783.357	491.34
783.538	536.4
783.72	517.97
783.901	464.72
784.083	444.24
784.264	540.49
784.446	444.24
784.627	440.14
784.809	446.29
784.99	497.49
785.172	542.54
785.353	479.05
785.535	421.71
785.716	454.48
785.897	460.62
786.079	434
786.26	382.8
786.441	380.75
786.623	460.62
786.804	456.53
786.985	444.24
787.167	462.67
787.348	497.49
787.529	450.38
787.71	409.42
787.891	460.62
788.073	364.37
788.254	421.71
788.435	288.59
788.616	321.36
788.797	470.86
788.978	374.61
789.159	376.66
789.34	362.32
789.522	409.42
789.703	431.95
789.884	390.99
790.065	321.36
790.246	434
790.427	399.18
790.607	425.81
790.788	358.22
790.969	323.41
791.15	403.28
791.331	409.42
791.512	399.18
791.693	337.74
791.874	411.47
792.054	341.84
792.235	304.98
792.416	327.5
792.597	313.17
792.778	360.27
792.958	331.6
793.139	288.59
793.32	366.42
793.5	331.6
793.681	331.6
793.862	298.83
794.042	270.16
794.223	376.66
794.404	266.07
794.584	286.54
794.765	282.45
794.945	284.5
795.126	325.46
795.306	360.27
795.487	216.91
795.667	288.59
795.848	362.32
796.028	374.61
796.209	321.36
796.389	362.32
796.57	255.83
796.75	298.83
796.93	294.74
797.111	268.11
797.291	298.83
797.471	364.37
797.652	278.35
797.832	261.97
798.012	204.63
798.192	243.54
798.373	298.83
798.553	255.83
798.733	257.87
798.913	196.43
799.093	266.07
799.274	284.5
799.454	264.02
799.634	309.07
799.814	184.15
799.994	282.45
800.174	186.19
800.354	218.96
800.534	182.1
800.714	278.35
800.894	304.98
801.074	190.29
801.254	235.35
801.434	214.87
801.614	243.54
801.794	259.92
801.974	577.36
802.154	171.86
802.334	272.21
802.514	210.77
802.693	218.96
802.873	259.92
803.053	274.26
803.233	180.05
803.413	178
803.592	202.58
803.772	237.39
803.952	204.63
804.131	249.68
804.311	233.3
804.491	243.54
804.67	182.1
804.85	216.91
805.03	294.74
805.209	235.35
805.389	122.71
805.568	216.91
805.748	145.24
805.928	266.07
806.107	255.83
806.287	202.58
806.466	212.82
806.646	206.67
806.825	251.73
807.004	202.58
807.184	182.1
807.363	159.57
807.543	184.15
807.722	149.33
807.901	249.68
808.081	204.63
808.26	173.91
808.439	167.76
808.619	229.2
808.798	206.67
808.977	128.85
809.156	214.87
809.336	261.97
809.515	175.95
809.694	143.19
809.873	139.09
810.052	180.05
810.231	202.58
810.411	171.86
810.59	208.72
810.769	155.47
810.948	153.43
811.127	98.13
811.306	75.6
811.485	227.15
811.664	159.57
811.843	128.85
812.022	194.39
812.201	149.33
812.38	163.67
812.559	210.77
812.737	151.38
812.916	182.1
813.095	163.67
813.274	139.09
813.453	171.86
813.632	141.14
813.811	200.53
813.989	153.43
814.168	114.52
814.347	112.47
814.526	216.91
814.704	141.14
814.883	116.56
815.062	180.05
815.24	102.23
815.419	83.8
815.598	124.76
815.776	163.67
815.955	192.34
816.133	77.65
816.312	227.15
816.49	147.28
816.669	227.15
816.847	135
817.026	135
817.204	182.1
817.383	98.13
817.561	147.28
817.74	98.13
817.918	192.34
818.097	118.61
818.275	153.43
818.453	145.24
818.632	145.24
818.81	194.39
818.988	122.71
819.167	137.04
819.345	151.38
819.523	153.43
819.701	75.6
819.879	120.66
820.058	145.24
820.236	151.38
820.414	178
820.592	85.84
820.77	106.32
820.948	132.95
821.127	46.93
821.305	94.04
821.483	126.8
821.661	182.1
821.839	65.36
822.017	102.23
822.195	130.9
822.373	147.28
822.551	94.04
822.729	188.24
822.907	98.13
823.085	122.71
823.262	44.88
823.44	141.14
823.618	63.32
823.796	194.39
823.974	167.76
824.152	34.64
824.329	87.89
824.507	143.19
824.685	124.76
824.863	126.8
825.04	110.42
825.218	157.52
825.396	38.74
825.574	108.37
825.751	71.51
825.929	79.7
826.107	69.46
826.284	118.61
826.462	96.08
826.639	75.6
826.817	30.55
826.994	91.99
827.172	53.08
827.349	71.51
827.527	79.7
827.704	40.79
827.882	159.57
828.059	132.95
828.237	91.99
828.414	81.75
828.591	-10.41
828.769	34.64
828.946	112.47
829.124	73.56
829.301	157.52
829.478	42.84
829.655	57.17
829.833	91.99
830.01	46.93
830.187	106.32
830.364	81.75
830.542	32.6
830.719	91.99
830.896	69.46
831.073	116.56
831.25	38.74
831.427	71.51
831.604	114.52
831.782	96.08
831.959	89.94
832.136	73.56
832.313	124.76
832.49	106.32
832.667	122.71
832.844	40.79
833.021	40.79
833.198	132.95
833.374	147.28
833.551	77.65
833.728	79.7
833.905	69.46
834.082	20.31
834.259	120.66
834.436	104.28
834.612	81.75
834.789	73.56
834.966	61.27
835.143	42.84
835.319	59.22
835.496	151.38
835.673	81.75
835.85	96.08
836.026	71.51
836.203	61.27
836.38	34.64
836.556	57.17
836.733	24.4
836.909	36.69
837.086	106.32
837.262	28.5
837.439	65.36
837.616	81.75
837.792	63.32
837.968	-0.17
838.145	20.31
838.321	55.12
838.498	104.28
838.674	55.12
838.851	57.17
839.027	-8.36
839.203	1.88
839.38	20.31
839.556	26.45
839.732	69.46
839.909	87.89
840.085	91.99
840.261	5.97
840.437	61.27
840.614	26.45
840.79	126.8
840.966	108.37
841.142	75.6
841.318	-53.42
841.494	32.6
841.671	28.5
841.847	87.89
842.023	108.37
842.199	104.28
842.375	143.19
842.551	5.97
842.727	87.89
842.903	24.4
843.079	36.69
843.255	143.19
843.431	42.84
843.607	65.36
843.783	30.55
843.959	98.13
844.134	-24.75
844.31	44.88
844.486	69.46
844.662	55.12
844.838	75.6
845.013	34.64
845.189	-14.51
845.365	16.21
845.541	112.47
845.716	34.64
845.892	67.41
846.068	46.93
846.244	96.08
846.419	5.97
846.595	-2.22
846.77	94.04
846.946	65.36
847.122	77.65
847.297	-14.51
847.473	42.84
847.648	-2.22
847.824	65.36
847.999	28.5
848.175	61.27
848.35	98.13
848.526	51.03
848.701	-14.51
848.876	100.18
849.052	130.9
849.227	42.84
849.403	18.26
849.578	53.08
849.753	34.64
849.929	59.22
850.104	22.36
850.279	-0.17
850.454	87.89
850.63	87.89
850.805	65.36
850.98	44.88
851.155	8.02
851.33	22.36
851.505	83.8
851.681	22.36
851.856	20.31
852.031	12.12
852.206	-45.23
852.381	42.84
852.556	-18.6
852.731	18.26
852.906	-22.7
853.081	28.5
853.256	8.02
853.431	22.36
853.606	-26.79
853.781	-45.23
853.956	87.89
854.131	12.12
854.305	59.22
854.48	-18.6
854.655	77.65
854.83	12.12
855.005	24.4
855.18	30.55
855.354	22.36
855.529	53.08
855.704	8.02
855.879	55.12
856.053	65.36
856.228	51.03
856.403	-10.41
856.577	-20.65
856.752	-12.46
856.926	14.17
857.101	24.4
857.276	87.89
857.45	-18.6
857.625	71.51
857.799	22.36
857.974	36.69
858.148	-2.22
858.323	53.08
858.497	32.6
858.672	-8.36
858.846	34.64
859.02	73.56
859.195	14.17
859.369	-6.31
859.543	46.93
859.718	61.27
859.892	71.51
860.066	-37.03
860.241	-30.89
860.415	22.36
860.589	-10.41
860.763	-4.27
860.938	36.69
861.112	-0.17
861.286	5.97
861.46	44.88
861.634	18.26
861.808	44.88
861.982	1.88
862.157	28.5
862.331	-4.27
862.505	-2.22
862.679	3.93
862.853	-12.46
863.027	-8.36
863.201	-0.17
863.375	51.03
863.549	3.93
863.722	40.79
863.896	81.75
864.07	32.6
864.244	10.07
864.418	30.55
864.592	14.17
864.766	-18.6
864.939	-28.84
865.113	-22.7
865.287	55.12
865.461	-20.65
865.634	1.88
865.808	42.84
865.982	28.5
866.156	3.93
866.329	38.74
866.503	30.55
866.676	-26.79
866.85	14.17
867.024	106.32
867.197	-30.89
867.371	22.36
867.544	18.26
867.718	26.45
867.891	30.55
868.065	-77.99
868.238	51.03
868.412	83.8
868.585	-2.22
868.759	-26.79
868.932	18.26
869.105	-6.31
869.279	-26.79
869.452	63.32
869.625	55.12
869.799	44.88
869.972	36.69
870.145	-4.27
870.319	-18.6
870.492	24.4
870.665	1.88
870.838	3.93
871.011	-28.84
871.185	57.17
871.358	-0.17
871.531	55.12
871.704	98.13
871.877	-2.22
872.05	-24.75
872.223	34.64
872.396	65.36
872.569	-28.84
872.742	3.93
872.915	87.89
873.088	10.07
873.261	-43.18
873.434	-10.41
873.607	-2.22
873.78	3.93
873.953	-4.27
874.126	38.74
874.299	34.64
874.471	-2.22
874.644	8.02
874.817	67.41
874.99	73.56
875.163	40.79
875.335	22.36
875.508	32.6
875.681	79.7
875.853	53.08
876.026	-10.41
876.199	-18.6
876.371	12.12
876.544	14.17
876.717	53.08
876.889	20.31
877.062	26.45
877.234	-14.51
877.407	8.02
877.579	46.93
877.752	75.6
877.924	22.36
878.097	-22.7
878.269	-49.32
878.442	26.45
878.614	3.93
878.786	38.74
878.959	40.79
879.131	3.93
879.303	8.02
879.476	79.7
879.648	16.21
879.82	-28.84
879.993	-8.36
880.165	-22.7
880.337	-34.99
880.509	3.93
880.681	-24.75
880.854	-2.22
881.026	-12.46
881.198	36.69
881.37	96.08
881.542	-22.7
881.714	-37.03
881.886	46.93
882.058	59.22
882.23	-8.36
882.402	40.79
882.574	83.8
882.746	-37.03
882.918	42.84
883.09	12.12
883.262	-0.17
883.434	-49.32
883.606	42.84
883.778	-47.27
883.95	-6.31
884.122	-8.36
884.293	65.36
884.465	-6.31
884.637	-12.46
884.809	-22.7
884.98	-4.27
885.152	59.22
885.324	55.12
885.496	30.55
885.667	-90.28
885.839	26.45
886.011	-6.31
886.182	-24.75
886.354	61.27
886.525	-22.7
886.697	-20.65
886.869	-32.94
887.04	-22.7
887.212	57.17
887.383	10.07
887.555	57.17
887.726	26.45
887.897	-28.84
888.069	38.74
888.24	104.28
888.412	18.26
888.583	-45.23
888.754	-47.27
888.926	-18.6
889.097	-43.18
889.268	-6.31
889.44	18.26
889.611	-14.51
889.782	-20.65
889.953	-20.65
890.125	87.89
890.296	-12.46
890.467	3.93
890.638	8.02
890.809	-34.99
890.98	-43.18
891.151	-22.7
891.323	20.31
891.494	-14.51
891.665	-22.7
891.836	-12.46
892.007	-24.75
892.178	-69.8
892.349	-14.51
892.52	-2.22
892.691	-6.31
892.862	75.6
893.032	5.97
893.203	12.12
893.374	18.26
893.545	20.31
893.716	-34.99
893.887	3.93
894.057	59.22
894.228	-34.99
894.399	16.21
894.57	40.79
894.74	30.55
894.911	46.93
895.082	-55.47
895.253	1.88
895.423	46.93
895.594	-71.85
895.764	-18.6
895.935	77.65
896.106	-28.84
896.276	-8.36
896.447	63.32
896.617	46.93
896.788	16.21
896.958	12.12
897.129	32.6
897.299	55.12
897.47	85.84
897.64	24.4
897.81	-18.6
897.981	26.45
898.151	1.88
898.322	-32.94
898.492	1.88
898.662	-43.18
898.832	8.02
899.003	38.74
899.173	12.12
899.343	36.69
899.513	89.94
