Data from USB4F104151__294__11-13-04-339.txt Node

Date: Wed Mar 12 11:13:04 EDT 2025
User: louis
Spectrometer: USB4F10415
Trigger mode: 4
Integration Time (sec): 2.000000E-2
Scans to average: 1
Electric dark correction enabled: true
Nonlinearity correction enabled: false
Boxcar width: 0
XAxis mode: Wavelengths
Number of Pixels in Spectrum: 3648
>>>>>Begin Spectral Data<<<<<
178.204	-96.08
178.424	-96.08
178.644	-96.08
178.864	-36.69
179.084	-89.94
179.304	-20.31
179.524	-46.93
179.744	-5.97
179.964	2.22
180.184	26.79
180.404	22.7
180.624	0.17
180.844	20.65
181.064	-51.03
181.283	-42.84
181.503	18.6
181.723	75.95
181.943	24.75
182.163	47.27
182.383	-1.88
182.602	37.03
182.822	-69.46
183.042	6.31
183.262	4.27
183.482	-77.65
183.701	47.27
183.921	51.37
184.141	30.89
184.361	127.14
184.58	-8.02
184.8	-8.02
185.02	-96.08
185.239	20.65
185.459	-8.02
185.679	-22.36
185.898	-46.93
186.118	116.9
186.338	12.46
186.557	-44.88
186.777	0.17
186.997	53.42
187.216	10.41
187.436	8.36
187.655	32.94
187.875	80.04
188.095	24.75
188.314	141.48
188.534	82.09
188.753	-10.07
188.973	-12.12
189.192	18.6
189.412	0.17
189.631	2.22
189.851	-1.88
190.07	47.27
190.29	-59.22
190.509	-22.36
190.729	47.27
190.948	37.03
191.168	77.99
191.387	24.75
191.607	0.17
191.826	-1.88
192.045	12.46
192.265	37.03
192.484	-28.5
192.704	-26.45
192.923	-26.45
193.142	75.95
193.362	-8.02
193.581	-10.07
193.8	-8.02
194.02	6.31
194.239	14.51
194.458	67.75
194.678	-34.64
194.897	-20.31
195.116	-63.32
195.335	-42.84
195.555	12.46
195.774	8.36
195.993	59.56
196.212	-98.13
196.432	51.37
196.651	18.6
196.87	-40.79
197.089	92.33
197.308	63.66
197.528	4.27
197.747	63.66
197.966	32.94
198.185	26.79
198.404	-55.12
198.623	6.31
198.842	16.55
199.062	47.27
199.281	39.08
199.5	-32.6
199.719	67.75
199.938	88.23
200.157	53.42
200.376	2.22
200.595	88.23
200.814	45.23
201.033	-14.17
201.252	20.65
201.471	20.65
201.69	0.17
201.909	49.32
202.128	84.14
202.347	51.37
202.566	10.41
202.785	49.32
203.004	-12.12
203.223	32.94
203.442	-18.26
203.661	34.99
203.879	-30.55
204.098	26.79
204.317	12.46
204.536	10.41
204.755	12.46
204.974	28.84
205.193	4.27
205.411	28.84
205.63	0.17
205.849	-40.79
206.068	30.89
206.287	-1.88
206.505	28.84
206.724	8.36
206.943	2.22
207.162	10.41
207.381	18.6
207.599	-3.93
207.818	43.18
208.037	22.7
208.255	61.61
208.474	-12.12
208.693	14.51
208.911	-5.97
209.13	14.51
209.349	-3.93
209.567	-5.97
209.786	8.36
210.005	45.23
210.223	41.13
210.442	-57.17
210.661	-42.84
210.879	2.22
211.098	28.84
211.316	118.95
211.535	45.23
211.753	37.03
211.972	32.94
212.191	39.08
212.409	2.22
212.628	32.94
212.846	-42.84
213.065	39.08
213.283	61.61
213.502	-3.93
213.72	-34.64
213.938	30.89
214.157	28.84
214.375	22.7
214.594	8.36
214.812	53.42
215.031	-40.79
215.249	-30.55
215.467	-1.88
215.686	-26.45
215.904	30.89
216.122	37.03
216.341	43.18
216.559	0.17
216.778	-8.02
216.996	28.84
217.214	24.75
217.432	47.27
217.651	-14.17
217.869	-18.26
218.087	-1.88
218.306	0.17
218.524	12.46
218.742	-3.93
218.96	-14.17
219.179	-20.31
219.397	4.27
219.615	16.55
219.833	-5.97
220.051	18.6
220.27	47.27
220.488	26.79
220.706	45.23
220.924	-1.88
221.142	16.55
221.36	-1.88
221.578	108.71
221.796	63.66
222.015	10.41
222.233	-10.07
222.451	6.31
222.669	-1.88
222.887	-14.17
223.105	-20.31
223.323	-40.79
223.541	43.18
223.759	84.14
223.977	49.32
224.195	10.41
224.413	39.08
224.631	37.03
224.849	0.17
225.067	20.65
225.285	-1.88
225.503	-14.17
225.721	-22.36
225.939	75.95
226.157	-18.26
226.375	65.71
226.592	-14.17
226.81	12.46
227.028	67.75
227.246	84.14
227.464	-12.12
227.682	20.65
227.9	24.75
228.117	-24.4
228.335	-30.55
228.553	-12.12
228.771	61.61
228.989	61.61
229.206	34.99
229.424	20.65
229.642	-18.26
229.86	-59.22
230.077	39.08
230.295	20.65
230.513	-22.36
230.731	80.04
230.948	37.03
231.166	-16.21
231.384	-36.69
231.601	-48.98
231.819	22.7
232.037	57.51
232.254	24.75
232.472	57.51
232.689	-20.31
232.907	147.62
233.125	14.51
233.342	6.31
233.56	63.66
233.777	-22.36
233.995	14.51
234.213	20.65
234.43	53.42
234.648	2.22
234.865	75.95
235.083	67.75
235.3	-5.97
235.518	88.23
235.735	2.22
235.953	67.75
236.17	-3.93
236.388	-26.45
236.605	75.95
236.822	92.33
237.04	22.7
237.257	6.31
237.475	20.65
237.692	-30.55
237.909	37.03
238.127	2.22
238.344	12.46
238.562	10.41
238.779	-22.36
238.996	59.56
239.214	-10.07
239.431	24.75
239.648	45.23
239.865	-20.31
240.083	49.32
240.3	43.18
240.517	-10.07
240.735	-18.26
240.952	-42.84
241.169	61.61
241.386	-3.93
241.603	6.31
241.821	43.18
242.038	34.99
242.255	-14.17
242.472	32.94
242.689	8.36
242.907	45.23
243.124	14.51
243.341	22.7
243.558	41.13
243.775	-22.36
243.992	-30.55
244.209	26.79
244.426	94.38
244.643	18.6
244.86	26.79
245.078	55.47
245.295	12.46
245.512	34.99
245.729	10.41
245.946	73.9
246.163	0.17
246.38	12.46
246.597	-59.22
246.814	53.42
247.031	-42.84
247.248	41.13
247.464	14.51
247.681	-20.31
247.898	14.51
248.115	65.71
248.332	-14.17
248.549	26.79
248.766	53.42
248.983	39.08
249.2	10.41
249.417	39.08
249.633	-26.45
249.85	0.17
250.067	32.94
250.284	14.51
250.501	-10.07
250.717	69.8
250.934	10.41
251.151	2.22
251.368	-24.4
251.585	65.71
251.801	92.33
252.018	53.42
252.235	34.99
252.451	39.08
252.668	18.6
252.885	18.6
253.102	16.55
253.318	18.6
253.535	-22.36
253.752	-46.93
253.968	110.76
254.185	-3.93
254.401	24.75
254.618	22.7
254.835	28.84
255.051	55.47
255.268	45.23
255.484	45.23
255.701	47.27
255.917	18.6
256.134	-10.07
256.351	8.36
256.567	16.55
256.784	39.08
257	-32.6
257.217	12.46
257.433	106.67
257.65	26.79
257.866	-22.36
258.082	59.56
258.299	-30.55
258.515	32.94
258.732	32.94
258.948	41.13
259.165	-1.88
259.381	75.95
259.597	26.79
259.814	30.89
260.03	92.33
260.246	45.23
260.463	65.71
260.679	-3.93
260.895	-3.93
261.112	69.8
261.328	0.17
261.544	28.84
261.761	84.14
261.977	28.84
262.193	28.84
262.409	30.89
262.626	0.17
262.842	8.36
263.058	-1.88
263.274	88.23
263.49	12.46
263.707	53.42
263.923	-1.88
264.139	-30.55
264.355	55.47
264.571	51.37
264.787	37.03
265.004	49.32
265.22	18.6
265.436	-20.31
265.652	-1.88
265.868	-1.88
266.084	22.7
266.3	-53.08
266.516	-30.55
266.732	16.55
266.948	34.99
267.164	14.51
267.38	49.32
267.596	22.7
267.812	77.99
268.028	-1.88
268.244	-14.17
268.46	-5.97
268.676	53.42
268.892	24.75
269.108	69.8
269.324	28.84
269.54	14.51
269.756	22.7
269.972	-32.6
270.188	63.66
270.403	61.61
270.619	-34.64
270.835	-1.88
271.051	65.71
271.267	16.55
271.483	55.47
271.698	-18.26
271.914	-8.02
272.13	55.47
272.346	20.65
272.562	26.79
272.777	4.27
272.993	84.14
273.209	20.65
273.425	30.89
273.64	-55.12
273.856	-5.97
274.072	59.56
274.287	18.6
274.503	47.27
274.719	55.47
274.934	-3.93
275.15	45.23
275.366	-10.07
275.581	18.6
275.797	94.38
276.012	2.22
276.228	67.75
276.444	-3.93
276.659	104.62
276.875	-51.03
277.09	-10.07
277.306	6.31
277.521	12.46
277.737	32.94
277.952	96.43
278.168	-5.97
278.383	-1.88
278.599	10.41
278.814	53.42
279.03	71.85
279.245	22.7
279.461	22.7
279.676	26.79
279.892	-8.02
280.107	6.31
280.322	-30.55
280.538	34.99
280.753	96.43
280.969	59.56
281.184	61.61
281.399	-5.97
281.615	-3.93
281.83	-28.5
282.045	-10.07
282.26	6.31
282.476	32.94
282.691	34.99
282.906	-1.88
283.122	67.75
283.337	-46.93
283.552	-1.88
283.767	69.8
283.983	14.51
284.198	-14.17
284.413	18.6
284.628	-26.45
284.843	-5.97
285.058	-8.02
285.274	28.84
285.489	16.55
285.704	137.38
285.919	6.31
286.134	30.89
286.349	34.99
286.564	51.37
286.779	-8.02
286.995	0.17
287.21	0.17
287.425	49.32
287.64	10.41
287.855	45.23
288.07	47.27
288.285	94.38
288.5	20.65
288.715	-18.26
288.93	-10.07
289.145	12.46
289.36	32.94
289.575	-24.4
289.79	22.7
290.004	-8.02
290.219	43.18
290.434	-5.97
290.649	16.55
290.864	84.14
291.079	71.85
291.294	61.61
291.509	30.89
291.724	37.03
291.938	16.55
292.153	135.34
292.368	39.08
292.583	-5.97
292.798	88.23
293.012	0.17
293.227	2.22
293.442	20.65
293.657	-30.55
293.871	45.23
294.086	2.22
294.301	80.04
294.516	100.52
294.73	18.6
294.945	-12.12
295.16	-24.4
295.374	34.99
295.589	45.23
295.804	-32.6
296.018	49.32
296.233	51.37
296.447	8.36
296.662	8.36
296.877	-12.12
297.091	49.32
297.306	61.61
297.52	34.99
297.735	45.23
297.949	53.42
298.164	-65.36
298.378	20.65
298.593	-22.36
298.807	-48.98
299.022	92.33
299.236	75.95
299.451	51.37
299.665	63.66
299.88	67.75
300.094	-12.12
300.309	41.13
300.523	96.43
300.737	45.23
300.952	-16.21
301.166	71.85
301.381	32.94
301.595	26.79
301.809	20.65
302.024	24.75
302.238	-18.26
302.452	65.71
302.667	24.75
302.881	20.65
303.095	4.27
303.309	30.89
303.524	49.32
303.738	-18.26
303.952	28.84
304.166	41.13
304.381	-18.26
304.595	2.22
304.809	10.41
305.023	32.94
305.237	-8.02
305.452	-38.74
305.666	28.84
305.88	-40.79
306.094	24.75
306.308	-14.17
306.522	53.42
306.736	22.7
306.95	75.95
307.164	37.03
307.379	-42.84
307.593	39.08
307.807	34.99
308.021	92.33
308.235	43.18
308.449	-5.97
308.663	-48.98
308.877	102.57
309.091	125.1
309.305	-40.79
309.519	-10.07
309.733	39.08
309.947	30.89
310.161	-24.4
310.374	2.22
310.588	4.27
310.802	-20.31
311.016	0.17
311.23	20.65
311.444	18.6
311.658	-10.07
311.872	67.75
312.085	-22.36
312.299	20.65
312.513	45.23
312.727	20.65
312.941	10.41
313.154	45.23
313.368	61.61
313.582	-18.26
313.796	-36.69
314.009	6.31
314.223	47.27
314.437	20.65
314.651	88.23
314.864	-10.07
315.078	41.13
315.292	86.19
315.505	-38.74
315.719	10.41
315.933	-53.08
316.146	34.99
316.36	28.84
316.573	63.66
316.787	0.17
317.001	4.27
317.214	47.27
317.428	47.27
317.641	32.94
317.855	14.51
318.068	-1.88
318.282	75.95
318.495	-1.88
318.709	63.66
318.922	12.46
319.136	49.32
319.349	104.62
319.563	26.79
319.776	30.89
319.99	-12.12
320.203	20.65
320.417	75.95
320.63	18.6
320.843	10.41
321.057	53.42
321.27	2.22
321.483	63.66
321.697	108.71
321.91	32.94
322.124	94.38
322.337	22.7
322.55	26.79
322.763	10.41
322.977	67.75
323.19	10.41
323.403	10.41
323.617	71.85
323.83	51.37
324.043	8.36
324.256	26.79
324.469	30.89
324.683	96.43
324.896	-14.17
325.109	30.89
325.322	71.85
325.535	69.8
325.748	77.99
325.962	32.94
326.175	82.09
326.388	30.89
326.601	69.8
326.814	12.46
327.027	61.61
327.24	53.42
327.453	6.31
327.666	143.53
327.879	84.14
328.092	12.46
328.305	-10.07
328.518	39.08
328.731	45.23
328.944	77.99
329.157	65.71
329.37	-10.07
329.583	82.09
329.796	69.8
330.009	-12.12
330.222	-8.02
330.435	47.27
330.648	-10.07
330.861	39.08
331.073	47.27
331.286	39.08
331.499	30.89
331.712	118.95
331.925	32.94
332.138	14.51
332.35	118.95
332.563	16.55
332.776	51.37
332.989	-8.02
333.202	53.42
333.414	59.56
333.627	57.51
333.84	71.85
334.053	45.23
334.265	24.75
334.478	-26.45
334.691	43.18
334.903	73.9
335.116	47.27
335.329	45.23
335.541	53.42
335.754	32.94
335.966	2.22
336.179	45.23
336.392	43.18
336.604	4.27
336.817	39.08
337.029	10.41
337.242	45.23
337.454	-5.97
337.667	22.7
337.88	63.66
338.092	-18.26
338.305	88.23
338.517	80.04
338.729	77.99
338.942	67.75
339.154	26.79
339.367	45.23
339.579	57.51
339.792	41.13
340.004	102.57
340.217	108.71
340.429	55.47
340.641	2.22
340.854	-22.36
341.066	-16.21
341.278	24.75
341.491	51.37
341.703	32.94
341.915	24.75
342.128	-32.6
342.34	49.32
342.552	2.22
342.764	43.18
342.977	-8.02
343.189	30.89
343.401	43.18
343.613	49.32
343.826	26.79
344.038	71.85
344.25	-10.07
344.462	49.32
344.674	94.38
344.886	-10.07
345.099	14.51
345.311	18.6
345.523	-20.31
345.735	-20.31
345.947	24.75
346.159	98.47
346.371	-1.88
346.583	-26.45
346.795	26.79
347.007	24.75
347.219	71.85
347.431	30.89
347.643	121
347.855	75.95
348.067	57.51
348.279	-30.55
348.491	47.27
348.703	-16.21
348.915	-5.97
349.127	55.47
349.339	39.08
349.551	-12.12
349.763	-5.97
349.975	34.99
350.187	71.85
350.399	41.13
350.61	73.9
350.822	55.47
351.034	63.66
351.246	-1.88
351.458	22.7
351.669	34.99
351.881	43.18
352.093	-12.12
352.305	12.46
352.517	43.18
352.728	94.38
352.94	47.27
353.152	8.36
353.363	67.75
353.575	53.42
353.787	139.43
353.999	24.75
354.21	98.47
354.422	-28.5
354.633	-22.36
354.845	61.61
355.057	59.56
355.268	45.23
355.48	14.51
355.692	-12.12
355.903	-20.31
356.115	-32.6
356.326	-8.02
356.538	-20.31
356.749	18.6
356.961	37.03
357.172	37.03
357.384	18.6
357.595	55.47
357.807	49.32
358.018	18.6
358.23	73.9
358.441	94.38
358.653	82.09
358.864	84.14
359.075	63.66
359.287	-5.97
359.498	49.32
359.709	92.33
359.921	28.84
360.132	4.27
360.344	14.51
360.555	65.71
360.766	131.24
360.977	10.41
361.189	34.99
361.4	80.04
361.611	47.27
361.823	10.41
362.034	28.84
362.245	28.84
362.456	-3.93
362.667	65.71
362.879	14.51
363.09	18.6
363.301	22.7
363.512	37.03
363.723	75.95
363.935	24.75
364.146	-1.88
364.357	2.22
364.568	34.99
364.779	-18.26
364.99	53.42
365.201	16.55
365.412	69.8
365.623	10.41
365.834	-20.31
366.045	65.71
366.256	88.23
366.467	75.95
366.678	51.37
366.889	82.09
367.1	37.03
367.311	77.99
367.522	2.22
367.733	55.47
367.944	75.95
368.155	20.65
368.366	-30.55
368.577	57.51
368.788	84.14
368.999	-36.69
369.209	-22.36
369.42	39.08
369.631	133.29
369.842	24.75
370.053	18.6
370.264	43.18
370.474	69.8
370.685	55.47
370.896	84.14
371.107	67.75
371.317	12.46
371.528	10.41
371.739	110.76
371.95	-14.17
372.16	90.28
372.371	-8.02
372.582	-22.36
372.792	0.17
373.003	159.91
373.214	73.9
373.424	-1.88
373.635	-34.64
373.846	100.52
374.056	6.31
374.267	57.51
374.477	67.75
374.688	55.47
374.898	6.31
375.109	53.42
375.319	98.47
375.53	55.47
375.74	86.19
375.951	43.18
376.161	129.19
376.372	53.42
376.582	-10.07
376.793	39.08
377.003	-12.12
377.214	82.09
377.424	45.23
377.635	47.27
377.845	-12.12
378.055	86.19
378.266	-28.5
378.476	63.66
378.686	12.46
378.897	116.9
379.107	80.04
379.317	69.8
379.528	116.9
379.738	51.37
379.948	2.22
380.158	43.18
380.369	47.27
380.579	73.9
380.789	61.61
380.999	49.32
381.21	26.79
381.42	-1.88
381.63	51.37
381.84	51.37
382.05	24.75
382.261	110.76
382.471	59.56
382.681	32.94
382.891	96.43
383.101	61.61
383.311	28.84
383.521	6.31
383.731	59.56
383.941	20.65
384.151	30.89
384.361	67.75
384.571	51.37
384.781	-14.17
384.991	-12.12
385.201	22.7
385.411	12.46
385.621	24.75
385.831	71.85
386.041	96.43
386.251	-22.36
386.461	94.38
386.671	-36.69
386.881	69.8
387.091	63.66
387.301	32.94
387.511	63.66
387.72	-3.93
387.93	0.17
388.14	86.19
388.35	80.04
388.56	94.38
388.769	47.27
388.979	65.71
389.189	57.51
389.399	73.9
389.609	71.85
389.818	55.47
390.028	34.99
390.238	92.33
390.447	37.03
390.657	32.94
390.867	41.13
391.076	18.6
391.286	67.75
391.496	4.27
391.705	51.37
391.915	71.85
392.125	55.47
392.334	28.84
392.544	137.38
392.753	32.94
392.963	98.47
393.172	57.51
393.382	121
393.591	65.71
393.801	71.85
394.01	67.75
394.22	10.41
394.429	55.47
394.639	57.51
394.848	61.61
395.058	20.65
395.267	114.86
395.477	102.57
395.686	43.18
395.895	65.71
396.105	137.38
396.314	104.62
396.524	59.56
396.733	53.42
396.942	137.38
397.152	137.38
397.361	88.23
397.57	190.63
397.78	84.14
397.989	96.43
398.198	209.06
398.407	59.56
398.617	90.28
398.826	49.32
399.035	100.52
399.244	94.38
399.453	133.29
399.663	63.66
399.872	67.75
400.081	20.65
400.29	84.14
400.499	96.43
400.708	135.34
400.917	22.7
401.127	75.95
401.336	161.96
401.545	141.48
401.754	88.23
401.963	168.1
402.172	65.71
402.381	121
402.59	86.19
402.799	145.58
403.008	108.71
403.217	129.19
403.426	131.24
403.635	53.42
403.844	135.34
404.053	104.62
404.262	112.81
404.471	172.2
404.68	153.77
404.888	129.19
405.097	168.1
405.306	196.78
405.515	147.62
405.724	215.21
405.933	147.62
406.142	164.01
406.35	186.54
406.559	194.73
406.768	196.78
406.977	151.72
407.185	151.72
407.394	211.11
407.603	235.69
407.812	223.4
408.02	200.87
408.229	192.68
408.438	207.02
408.646	221.35
408.855	276.65
409.064	192.68
409.272	184.49
409.481	360.61
409.69	278.69
409.898	323.75
410.107	250.02
410.315	364.71
410.524	352.42
410.733	325.8
410.941	354.47
411.15	323.75
411.358	383.14
411.567	471.2
411.775	444.58
411.984	424.1
412.192	405.67
412.401	458.92
412.609	420
412.818	553.12
413.026	483.49
413.234	575.65
413.443	575.65
413.651	632.99
413.86	577.7
414.068	616.61
414.276	563.36
414.485	698.53
414.693	694.43
414.901	716.96
415.11	723.1
415.318	702.62
415.526	802.97
415.734	782.49
415.943	796.83
416.151	925.85
416.359	856.22
416.567	891.04
416.776	979.1
416.984	1015.96
417.192	995.48
417.4	1069.21
417.608	1042.59
417.817	1030.3
418.025	1061.02
418.233	1360.02
418.441	1099.93
418.649	1306.77
418.857	1409.17
419.065	1384.6
419.273	1386.65
419.481	1431.7
419.689	1443.99
419.897	1550.48
420.105	1568.91
420.313	1562.77
420.521	1595.54
420.729	1720.46
420.937	1804.43
421.145	1839.25
421.353	1939.6
421.561	1988.75
421.769	2035.85
421.977	2209.93
422.185	2132.11
422.393	2183.31
422.601	2429.06
422.809	2330.76
423.017	2484.36
423.224	2533.51
423.432	2701.44
423.64	2615.43
423.848	2797.7
424.056	2902.14
424.263	3006.59
424.471	2918.53
424.679	3082.36
424.887	3285.11
425.094	3354.74
425.302	3321.98
425.51	3604.6
425.718	3457.14
425.925	3631.22
426.133	3852.4
426.341	3907.7
426.548	4092.01
426.756	4214.89
426.964	4208.75
427.171	4407.4
427.379	4456.55
427.586	4690.02
427.794	4739.17
428.001	4980.83
428.209	5179.48
428.417	5140.57
428.624	5466.2
428.832	5417.05
429.039	5580.89
429.247	5621.84
429.454	5912.66
429.662	6410.31
429.869	5951.57
430.076	6393.93
430.284	6338.63
430.491	6479.94
430.699	6862.91
430.906	6877.25
431.114	6912.07
431.321	7276.6
431.528	7426.11
431.736	7899.19
431.943	8165.42
432.15	8052.78
432.358	8038.45
432.565	8441.9
432.772	8456.23
432.979	8876.07
433.187	9166.88
433.394	9140.26
433.601	9695.25
433.808	9691.16
434.016	9809.94
434.223	10018.83
434.43	10639.37
434.637	10278.93
434.844	11108.35
435.052	11141.12
435.259	11315.2
435.466	11216.9
435.673	11175.94
435.88	12111.86
436.087	12605.42
436.294	12779.5
436.501	12134.39
436.708	12658.67
436.915	13060.07
437.122	13621.21
437.329	13703.13
437.537	13981.65
437.743	14307.28
437.95	14022.61
438.157	14649.29
438.364	15247.3
438.571	15286.21
438.778	15407.04
438.985	17121.19
439.192	16111.54
439.399	16768.94
439.606	16369.58
439.813	17248.16
440.02	18233.24
440.227	17995.67
440.433	17608.61
440.64	18694.03
440.847	18179.99
441.054	18704.27
441.261	19820.41
441.467	19580.8
441.674	20019.07
441.881	20596.59
442.088	20477.81
442.294	20379.51
442.501	21133.16
442.708	21399.4
442.914	22583.12
443.121	23357.25
443.328	22609.75
443.534	24293.18
443.741	23486.28
443.948	23363.4
444.154	24962.86
444.361	24715.06
444.568	25052.97
444.774	24846.13
444.981	25130.8
445.187	25913.12
445.394	27107.09
445.6	26566.42
445.807	28974.83
446.013	28079.87
446.22	28667.64
446.426	29474.54
446.633	29710.05
446.839	30742.23
447.046	29624.04
447.252	31076.05
447.459	31151.82
447.665	30897.88
447.871	32691.9
448.078	33892.01
448.284	32259.77
448.491	33017.52
448.697	34143.91
448.903	34717.34
449.11	34647.71
449.316	34631.32
449.522	34864.79
449.728	35952.26
449.935	36185.73
450.141	36343.42
450.347	36982.39
450.553	35557
450.76	36224.64
450.966	37482.09
451.172	36728.44
451.378	37613.16
451.584	37084.79
451.791	37680.75
451.997	37498.48
452.203	38757.98
452.409	38651.48
452.615	38520.41
452.821	36925.05
453.027	36392.58
453.233	38223.46
453.44	36884.09
453.646	37252.72
453.852	37488.24
454.058	38223.46
454.264	36757.11
454.47	37498.48
454.676	36585.08
454.882	37676.65
455.088	34086.56
455.294	35016.34
455.5	35270.29
455.705	35864.2
455.911	34877.08
456.117	33666.73
456.323	33234.61
456.529	31280.85
456.735	32757.43
456.941	32077.51
457.147	31340.24
457.352	30484.19
457.558	30318.3
457.764	30412.51
457.97	29800.16
458.176	28632.82
458.381	28757.75
458.587	27223.82
458.793	27393.8
458.999	26322.71
459.204	27815.68
459.41	27291.4
459.616	25116.46
459.821	25247.53
460.027	25573.16
460.233	24981.29
460.438	23430.98
460.644	23985.98
460.85	22720.34
461.055	22622.03
461.261	22308.69
461.466	20825.96
461.672	20248.44
461.878	21780.32
462.083	20356.98
462.289	20035.45
462.494	19511.17
462.7	18712.46
462.905	18227.09
463.111	18921.35
463.316	19257.22
463.522	18634.64
463.727	18655.12
463.932	18558.86
464.138	18419.6
464.343	18175.89
464.549	17932.19
464.754	18454.42
464.959	18399.12
465.165	18243.48
465.37	17588.13
465.575	16687.02
465.781	17631.13
465.986	17731.48
466.191	17205.16
466.397	17014.7
466.602	16123.83
466.807	16428.98
467.012	16678.83
467.218	16431.02
467.423	16242.61
467.628	16156.6
467.833	16885.67
468.038	16418.74
468.244	16222.13
468.449	16320.43
468.654	16091.06
468.859	15847.35
469.064	15871.93
469.269	15327.17
469.474	15511.49
469.679	15660.99
469.885	15019.97
470.09	15374.27
470.295	15353.79
470.5	14938.05
470.705	14950.34
470.91	14991.3
471.115	14557.13
471.32	14725.07
471.525	14561.23
471.73	14225.36
471.935	14284.75
472.139	13805.53
472.344	14084.05
472.549	13789.14
472.754	13725.66
472.959	13580.25
473.164	13303.78
473.369	13176.8
473.574	13561.82
473.778	13101.03
473.983	12984.29
474.188	13164.51
474.393	12586.99
474.598	12695.53
474.802	12673
475.007	12568.55
475.212	12560.36
475.417	11962.36
475.621	12042.23
475.826	12109.81
476.031	11913.2
476.235	11577.34
476.44	11632.63
476.645	11325.44
476.849	11612.15
477.054	11411.45
477.259	11149.31
477.463	11304.96
477.668	10735.62
477.872	10805.25
478.077	10825.73
478.282	10534.92
478.486	10582.03
478.691	10524.68
478.895	10336.27
479.1	10240.01
479.304	10180.62
479.509	10082.32
479.713	10242.06
479.918	9898
480.122	9955.35
480.326	10000.4
480.531	9951.25
480.735	10004.5
480.94	9908.24
481.144	10272.78
481.348	9691.16
481.553	9809.94
481.757	9689.11
481.961	9736.21
482.166	9701.4
482.37	9658.39
482.574	9426.97
482.778	9627.67
482.983	9902.1
483.187	9744.41
483.391	9680.92
483.595	9656.34
483.8	9654.3
484.004	9619.48
484.208	9947.15
484.412	9867.28
484.616	9535.51
484.821	9656.34
485.025	9406.49
485.229	9721.88
485.433	9224.22
485.637	9490.46
485.841	9476.12
486.045	9429.02
486.249	9553.94
486.453	9431.07
486.657	9496.6
486.861	9658.39
487.065	9404.44
487.269	9588.76
487.473	9269.28
487.677	9492.51
487.881	9717.78
488.085	9500.7
488.289	9687.06
488.493	9334.81
488.697	9580.57
488.901	9793.56
489.105	9844.76
489.309	9748.5
489.512	9539.61
489.716	9678.87
489.92	9646.1
490.124	9682.97
490.328	9906.2
490.531	9758.74
490.735	9922.58
490.939	9838.61
491.143	9777.17
491.346	9818.13
491.55	9783.32
491.754	9766.93
491.958	10037.27
492.161	10125.33
492.365	10123.28
492.569	9947.15
492.772	10016.79
492.976	10113.04
493.18	10166.29
493.383	10176.53
493.587	10385.42
493.79	10371.08
493.994	10219.53
494.197	10543.11
494.401	10506.25
494.605	10555.4
494.808	10786.82
495.012	10805.25
495.215	10747.91
495.419	10930.18
495.622	11001.86
495.825	11143.17
496.029	11028.48
496.232	11112.45
496.436	11143.17
496.639	11591.67
496.843	11464.7
497.046	11708.41
497.249	11603.96
497.453	12062.71
497.656	11917.3
497.859	12091.38
498.063	12134.39
498.266	12541.93
498.469	12058.61
498.673	12322.8
498.876	12716.01
499.079	12767.21
499.282	12750.82
499.485	13125.6
499.689	13197.28
499.892	13168.61
500.095	13418.46
500.298	13656.03
500.501	13725.66
500.705	13871.06
500.908	14030.8
501.111	14182.35
501.314	14491.6
501.517	14550.99
501.72	14782.41
501.923	14514.13
502.126	15087.56
502.329	15280.07
502.532	15353.79
502.735	15155.14
502.938	15550.4
503.141	15579.07
503.344	16019.38
503.547	16052.15
503.75	16201.65
503.953	16562.09
504.156	16689.07
504.359	16574.38
504.562	16709.55
504.765	17080.23
504.968	17217.44
505.17	17561.5
505.373	17637.28
505.576	17999.77
505.779	18038.68
505.982	18395.03
506.185	18356.11
506.387	18315.16
506.59	18530.19
506.793	19111.82
506.996	19062.66
507.198	19382.15
507.401	19609.47
507.604	19767.17
507.807	19978.11
508.009	20305.78
508.212	19795.84
508.415	20526.96
508.617	20764.53
508.82	20805.49
509.022	20604.78
509.225	21458.79
509.428	21380.96
509.63	21843.81
509.833	21800.8
510.035	22243.16
510.238	22159.19
510.44	22427.48
510.643	22749.01
510.845	22996.81
511.048	22851.41
511.25	23482.18
511.453	23621.44
511.655	24768.3
511.858	23725.89
512.06	24086.33
512.262	24332.09
512.465	24194.87
512.667	24743.73
512.87	25126.7
513.072	25376.55
513.274	25489.19
513.477	25894.69
513.679	25990.94
513.881	26330.9
514.084	26603.28
514.286	26441.5
514.488	26976.02
514.69	27385.61
514.893	27281.16
515.095	27272.97
515.297	27881.22
515.499	27600.65
515.701	28421.88
515.904	28598.01
516.106	28624.63
516.308	29015.79
516.51	29456.11
516.712	29572.84
516.914	29830.88
517.116	30140.13
517.318	30107.36
517.52	30234.33
517.722	30668.5
517.925	30818
518.127	31456.97
518.329	31117.01
518.531	31651.53
518.733	31858.37
518.935	32200.38
519.136	32313.02
519.338	32509.63
519.54	32906.93
519.742	32972.47
519.944	32982.71
520.146	33668.78
520.348	33824.42
520.55	33908.39
520.752	33984.16
520.954	34602.65
521.155	34406.05
521.357	34844.31
521.559	35362.45
521.761	35696.27
521.963	35638.92
522.164	35972.74
522.366	36146.82
522.568	36208.26
522.77	36202.11
522.971	36953.72
523.173	36615.8
523.375	37246.58
523.576	36966.01
523.778	37748.33
523.98	37682.8
524.181	37680.75
524.383	37824.11
524.584	38368.87
524.786	38315.62
524.988	38202.98
525.189	38698.59
525.391	39239.25
525.592	39169.62
525.794	39482.96
525.995	39249.49
526.197	39501.39
526.398	39427.67
526.6	39859.79
526.801	40050.25
527.003	40345.16
527.204	40103.49
527.406	40343.11
527.607	40203.85
527.808	40384.07
528.01	40042.06
528.211	40525.38
528.412	41100.86
528.614	40832.57
528.815	41184.82
529.016	41176.63
529.218	41346.61
529.419	41033.27
529.62	40951.35
529.822	40961.59
530.023	41315.89
530.224	41592.37
530.425	41451.06
530.626	41246.26
530.828	41131.58
531.029	42098.22
531.23	41227.83
531.431	41772.59
531.632	41684.53
531.833	42124.84
532.035	41635.38
532.236	42155.56
532.437	42192.42
532.638	41877.04
532.839	42223.14
533.04	41762.35
533.241	41823.79
533.442	42452.51
533.643	41823.79
533.844	42190.37
534.045	42032.68
534.246	41618.99
534.447	42364.45
534.648	41905.71
534.849	42786.33
535.05	42036.78
535.251	42395.17
535.451	42090.02
535.652	42178.09
535.853	42343.97
536.054	42384.93
536.255	42309.16
536.456	41702.96
536.657	42839.58
536.857	42094.12
537.058	42264.1
537.259	42360.36
537.46	42391.08
537.66	42141.22
537.861	42475.04
538.062	41731.63
538.263	42851.87
538.463	42028.59
538.664	42454.56
538.865	42262.05
539.065	42423.84
539.266	42184.23
539.466	42282.53
539.667	42008.11
539.868	42933.79
540.068	42176.04
540.269	42178.09
540.469	42264.1
540.67	41950.76
540.87	42208.81
541.071	42423.84
541.271	42384.93
541.472	41866.8
541.672	41879.08
541.873	41827.88
542.073	41573.94
542.274	42528.29
542.474	41870.89
542.675	42018.35
542.875	42245.67
543.075	42139.18
543.276	41350.71
543.476	42350.12
543.676	41756.21
543.877	41766.45
544.077	41930.28
544.277	42016.3
544.478	41815.6
544.678	41995.82
544.878	41795.12
545.078	41731.63
545.279	41844.27
545.479	41557.55
545.679	42051.11
545.879	41662
546.079	42292.77
546.28	41762.35
546.48	41354.8
546.68	42180.14
546.88	42124.84
547.08	41903.66
547.28	41426.48
547.48	41297.46
547.68	41926.19
547.88	41539.12
548.081	41907.76
548.281	41748.01
548.481	41270.84
548.681	41766.45
548.881	42073.64
549.081	41483.83
549.28	41950.76
549.48	41842.22
549.68	41809.45
549.88	42389.03
550.08	41358.9
550.28	41735.73
550.48	41729.58
550.68	42339.88
550.88	41156.15
551.08	41449.01
551.279	41762.35
551.479	41444.91
551.679	42083.88
551.879	41729.58
552.079	41752.11
552.278	41416.24
552.478	41410.1
552.678	41666.09
552.878	41485.87
553.077	41385.52
553.277	41059.9
553.477	41788.97
553.676	41233.97
553.876	41518.64
554.076	41279.03
554.275	40844.86
554.475	40967.74
554.674	41246.26
554.874	41213.49
555.074	41000.51
555.273	41371.19
555.473	41215.54
555.672	40808
555.872	41170.49
556.071	41090.62
556.271	41223.73
556.47	40967.74
556.67	40689.21
556.869	40943.16
557.068	40967.74
557.268	41080.38
557.467	40777.28
557.667	40404.55
557.866	40791.61
558.065	40674.88
558.265	40623.68
558.464	40222.28
558.663	40875.58
558.863	40283.72
559.062	41205.3
559.261	40119.88
559.461	40609.34
559.66	39698
559.859	40281.67
560.058	39941.71
560.258	40287.81
560.457	39501.39
560.656	40117.83
560.855	39915.08
561.054	40076.87
561.253	39777.87
561.453	39673.42
561.652	39923.27
561.851	39648.85
562.05	39816.78
562.249	39519.82
562.448	39867.98
562.647	39470.67
562.846	39192.15
563.045	39736.91
563.244	39120.47
563.443	39773.77
563.642	38878.81
563.841	38700.64
564.04	38534.75
564.239	39630.41
564.438	38600.29
564.637	39153.24
564.836	38970.97
565.035	38776.41
565.234	38985.3
565.432	38469.22
565.631	38440.54
565.83	38489.7
566.029	38454.88
566.228	38501.98
566.427	38356.58
566.625	38026.85
566.824	37783.15
567.023	38295.14
567.222	37957.22
567.42	38067.81
567.619	38035.05
567.818	37924.46
568.016	37977.7
568.215	38456.93
568.414	37334.64
568.612	37809.77
568.811	37375.6
569.01	37504.62
569.208	37117.56
569.407	37353.07
569.605	37109.36
569.804	37629.55
570.002	37135.99
570.201	36923
570.4	36818.55
570.598	36654.72
570.797	36613.76
570.995	36974.2
571.193	36259.46
571.392	36542.08
571.59	36279.94
571.789	36228.74
571.987	36202.11
572.186	36148.87
572.384	35927.69
572.582	36343.42
572.781	36337.28
572.979	35735.18
573.177	35751.56
573.376	35798.66
573.574	35712.65
573.772	36189.83
573.971	35563.15
574.169	35540.62
574.367	35462.8
574.565	35470.99
574.763	35253.9
574.962	34920.09
575.16	34852.5
575.358	35225.23
575.556	34586.27
575.754	34977.43
575.952	34956.95
576.151	34913.94
576.349	34467.48
576.547	34569.88
576.745	34789.02
576.943	34692.76
577.141	34205.34
577.339	34381.47
577.537	33722.02
577.735	34125.47
577.933	33719.98
578.131	34027.17
578.329	33779.37
578.527	34043.56
578.725	33425.07
578.923	33713.83
579.121	33400.49
579.319	33377.97
579.516	33660.59
579.714	33457.84
579.912	33339.05
580.11	33109.68
580.308	33343.15
580.506	33134.26
580.704	32446.14
580.901	32966.32
581.099	32888.5
581.297	32491.19
581.495	32558.78
581.692	32612.03
581.89	32317.12
582.088	32446.14
582.285	32128.7
582.483	32599.74
582.681	32566.97
582.878	32243.39
583.076	32022.21
583.274	32005.83
583.471	31489.74
583.669	31682.25
583.866	31354.57
584.064	32106.18
584.262	31309.52
584.459	31803.08
584.657	31477.45
584.854	31866.56
585.052	30881.49
585.249	31149.78
585.447	31286.99
585.644	30899.92
585.841	30916.31
586.039	31323.85
586.236	30516.95
586.434	30807.76
586.631	30721.75
586.828	30676.69
587.026	30699.22
587.223	30330.59
587.42	30289.63
587.618	30398.17
587.815	29884.13
588.012	30291.68
588.21	29802.21
588.407	30426.84
588.604	29509.35
588.801	29484.78
588.999	29853.41
589.196	29984.48
589.393	29429.48
589.59	29372.14
589.787	29107.95
589.984	29589.22
590.182	28972.78
590.379	29517.54
590.576	28821.23
590.773	29011.7
590.97	28851.95
591.167	28944.11
591.364	28491.51
591.561	28960.5
591.758	28092.16
591.955	28229.37
592.152	28530.42
592.349	28477.18
592.546	28299
592.743	28507.9
592.94	27651.84
593.137	28008.19
593.334	28122.88
593.531	27479.82
593.727	27850.5
593.924	27787.01
594.121	27459.34
594.318	27832.07
594.515	27367.18
594.712	27780.87
594.908	27449.1
595.105	27791.11
595.302	26906.38
595.499	27213.58
595.696	27260.68
595.892	26691.35
596.089	26918.67
596.286	26933.01
596.482	26826.51
596.679	26709.78
596.876	26855.18
597.072	26566.42
597.269	26441.5
597.466	26509.08
597.662	26380.06
597.859	26404.63
598.055	26347.29
598.252	26101.53
598.448	25962.27
598.645	25845.54
598.841	25605.92
599.038	26138.4
599.234	25853.73
599.431	25816.86
599.627	25407.27
599.824	25835.3
600.02	25380.65
600.217	25417.51
600.413	25345.83
600.609	25055.02
600.806	24909.61
601.002	25143.08
601.198	24880.94
601.395	24895.28
601.591	24784.69
601.787	24547.12
601.984	24338.23
602.18	24895.28
602.376	24387.38
602.572	24649.52
602.769	24446.77
602.965	24106.81
603.161	24477.49
603.357	24153.91
603.553	24178.49
603.75	24295.22
603.946	23906.11
604.142	24233.78
604.338	23654.21
604.534	23981.88
604.73	23492.42
604.926	23605.06
605.122	23650.11
605.318	23517
605.514	23404.36
605.71	23156.55
605.906	23543.62
606.102	23103.31
606.298	23361.35
606.494	22853.45
606.69	23220.04
606.886	23234.38
607.082	22706
607.278	22867.79
607.474	22601.55
607.67	22642.51
607.866	22710.1
608.062	23031.63
608.257	22472.53
608.453	22945.61
608.649	22794.06
608.845	22478.68
609.041	22603.6
609.236	22603.6
609.432	22419.28
609.628	22644.56
609.824	22353.75
610.019	22189.91
610.215	22351.7
610.411	22284.12
610.606	21999.45
610.802	22032.22
610.998	21981.02
611.193	22208.34
611.389	21935.96
611.584	21886.81
611.78	21628.77
611.976	21786.46
612.171	21958.49
612.367	21927.77
612.562	21856.09
612.758	21491.55
612.953	21374.82
613.149	21725.02
613.344	21069.67
613.539	21915.48
613.735	21552.99
613.93	21448.55
614.126	21260.13
614.321	21518.18
614.517	21159.78
614.712	21370.72
614.907	21489.51
615.103	21352.29
615.298	21086.06
615.493	21251.94
615.688	20924.27
615.884	21452.64
616.079	20944.75
616.274	21000.04
616.47	20828.01
616.665	20760.43
616.86	20557.68
617.055	20592.5
617.25	20819.82
617.445	20635.5
617.641	20461.43
617.836	20582.26
618.031	20254.58
618.226	20746.09
618.421	20232.05
618.616	20561.78
618.811	20027.26
619.006	20338.55
619.201	19939.19
619.396	20187
619.591	19842.94
619.786	19943.29
619.981	19537.79
620.176	19840.89
620.371	19414.91
620.566	19808.12
620.761	19402.63
620.956	19740.54
621.151	19226.5
621.346	19550.08
621.541	19120.01
621.735	19376
621.93	19197.83
622.125	18872.2
622.32	18870.15
622.515	18841.48
622.709	18792.33
622.904	18702.22
623.099	18624.4
623.294	18612.11
623.488	18216.85
623.683	18337.68
623.878	17995.67
624.072	18114.45
624.267	17870.75
624.462	18014.1
624.656	17541.02
624.851	17657.76
625.046	17567.65
625.24	17618.85
625.435	17325.99
625.629	17321.89
625.824	17448.86
626.018	17215.4
626.213	16840.62
626.407	16965.54
626.602	16619.44
626.796	16805.8
626.991	16760.75
627.185	16598.96
627.38	16504.75
627.574	16361.39
627.768	16420.78
627.963	16402.35
628.157	15984.57
628.352	16170.93
628.546	15810.49
628.74	16009.14
628.935	15796.15
629.129	15785.91
629.323	15503.29
629.517	15609.79
629.712	15382.46
629.906	15470.53
630.1	15183.81
630.294	15333.31
630.489	15044.55
630.683	15110.08
630.877	14897.1
631.071	14954.44
631.265	14862.28
631.459	14704.59
631.653	14739.4
631.848	14606.28
632.042	14589.9
632.236	14727.11
632.43	14419.92
632.624	14174.16
632.818	14288.85
633.012	14096.34
633.206	14149.59
633.4	14010.32
633.594	13995.99
633.788	13797.34
633.982	13834.2
634.176	13690.84
634.369	13504.48
634.563	13506.52
634.757	13268.96
634.951	13484
635.145	13410.27
635.339	13354.97
635.533	13498.33
635.726	13158.37
635.92	13101.03
636.114	13230.05
636.308	12859.37
636.501	13060.07
636.695	12867.56
636.889	12978.15
637.083	12494.83
637.276	12675.05
637.47	12548.08
637.664	12625.9
637.857	12566.51
638.051	12382.19
638.244	12132.34
638.438	12228.59
638.632	12206.06
638.825	12038.13
639.019	11999.22
639.212	12001.27
639.406	11831.29
639.599	12009.46
639.793	11894.77
639.986	11485.18
640.18	11958.26
640.373	11651.06
640.567	11556.86
640.76	11724.79
640.954	11358.21
641.147	11544.57
641.34	11474.94
641.534	11462.65
641.727	11415.55
641.92	11442.17
642.114	11231.23
642.307	11309.05
642.5	11276.29
642.694	10827.78
642.887	10735.62
643.08	10803.21
643.273	10930.18
643.467	10713.1
643.66	10709
643.853	10584.07
644.046	10356.75
644.239	10692.62
644.432	10498.06
644.626	10516.49
644.819	10434.57
645.012	10356.75
645.205	10336.27
645.398	10154
645.591	10217.49
645.784	10291.21
645.977	9889.81
646.17	10029.07
646.363	9957.39
646.556	9781.27
646.749	9768.98
646.942	9926.68
647.135	9832.47
647.328	9738.26
647.521	9664.54
647.714	9400.35
647.907	9599
648.099	9494.55
648.292	9543.71
648.485	9461.79
648.678	9238.56
648.871	9410.59
649.064	9254.94
649.256	9252.89
649.449	9230.37
649.642	8986.66
649.835	8982.56
650.027	9029.66
650.22	8878.12
650.413	8986.66
650.605	8953.89
650.798	8847.4
650.991	8845.35
651.183	8689.7
651.376	8603.69
651.568	8605.74
651.761	8753.19
651.954	8388.65
652.146	8230.96
652.339	8474.67
652.531	8380.46
652.724	8384.55
652.916	8323.12
653.109	8509.48
653.301	8476.71
653.494	8296.49
653.686	7878.71
653.879	8155.18
654.071	7958.58
654.263	8106.03
654.456	7985.2
654.648	8024.11
654.84	7850.03
655.033	7884.85
655.225	7782.45
655.417	7663.67
655.61	7807.03
655.802	7905.33
655.994	7620.66
656.186	7526.46
656.379	7548.98
656.571	7481.4
656.763	7530.55
656.955	7331.9
657.148	7555.13
657.34	7403.58
657.532	7383.1
657.724	7229.5
657.916	7215.16
658.108	7198.78
658.3	7235.64
658.492	7256.12
658.684	7073.85
658.876	7133.25
659.068	7249.98
659.26	6901.83
659.452	6965.31
659.644	6998.08
659.836	6963.26
660.028	6963.26
660.22	6903.87
660.412	6887.49
660.604	6754.37
660.796	6631.49
660.988	6525
661.18	6643.78
661.372	6680.64
661.563	6731.84
661.755	6611.01
661.947	6522.95
662.139	6441.03
662.331	6395.98
662.522	6320.2
662.714	6230.09
662.906	6318.15
663.097	6430.79
663.289	6260.81
663.481	6240.33
663.673	6236.24
663.864	6154.32
664.056	6191.18
664.247	6162.51
664.439	6068.3
664.631	6041.68
664.822	6039.63
665.014	5959.76
665.205	5894.22
665.397	6119.5
665.588	6017.1
665.78	5896.27
665.971	5623.89
666.163	5777.49
666.354	5845.07
666.546	5840.98
666.737	5658.71
666.929	5750.87
667.12	5711.96
667.311	5671
667.503	5582.93
667.694	5478.49
667.885	5615.7
668.077	5636.18
668.268	5550.17
668.459	5562.45
668.651	5458.01
668.842	5359.7
669.033	5326.94
669.224	5367.9
669.416	5449.82
669.607	5331.03
669.798	5175.39
669.989	5423.19
670.18	5277.79
670.371	5363.8
670.563	5257.31
670.754	5271.64
670.945	5232.73
671.136	5249.11
671.327	5283.93
671.518	5085.28
671.709	5288.03
671.9	5263.45
672.091	5097.56
672.282	4937.82
672.473	5062.75
672.664	5052.51
672.855	4976.73
673.046	5005.41
673.237	5023.84
673.428	4991.07
673.619	4905.06
673.809	4984.93
674	4962.4
674.191	4716.64
674.382	4837.47
674.573	4827.23
674.764	4694.12
674.954	4825.19
675.145	4812.9
675.336	4696.16
675.527	4755.55
675.717	4735.07
675.908	4687.97
676.099	4642.92
676.289	4515.94
676.48	4597.86
676.671	4501.61
676.861	4610.15
677.052	4515.94
677.243	4550.76
677.433	4472.93
677.624	4487.27
677.814	4427.88
678.005	4624.48
678.195	4477.03
678.386	4550.76
678.576	4470.89
678.767	4397.16
678.957	4431.98
679.148	4509.8
679.338	4419.69
679.529	4444.26
679.719	4413.54
679.909	4438.12
680.1	4376.68
680.29	4345.96
680.481	4458.6
680.671	4214.89
680.861	4321.38
681.052	4194.41
681.242	4180.07
681.432	4218.99
681.622	4231.27
681.813	4280.43
682.003	4257.9
682.193	4186.22
682.383	4167.79
682.573	4190.31
682.764	4169.84
682.954	4122.73
683.144	4178.03
683.334	4251.75
683.524	4206.7
683.714	4073.58
683.904	4010.09
684.094	4085.87
684.284	4014.19
684.474	3991.66
684.664	4083.82
684.854	4046.96
685.044	4008.05
685.234	3924.08
685.424	3872.88
685.614	3883.12
685.804	3934.32
685.994	3885.17
686.184	3999.85
686.374	3991.66
686.564	3879.02
686.753	3901.55
686.943	3823.73
687.133	3840.11
687.323	3926.13
687.513	3747.95
687.702	3817.58
687.892	3836.02
688.082	3741.81
688.272	3766.39
688.461	3702.9
688.651	3610.74
688.841	3676.27
689.03	3768.43
689.22	3702.9
689.41	3633.27
689.599	3668.08
689.789	3639.41
689.979	3674.23
690.168	3686.51
690.358	3629.17
690.547	3623.03
690.737	3520.63
690.926	3520.63
691.116	3530.87
691.305	3479.67
691.495	3379.32
691.684	3342.46
691.874	3410.04
692.063	3453.05
692.252	3403.89
692.442	3405.94
692.631	3342.46
692.82	3313.78
693.01	3416.18
693.199	3266.68
693.388	3151.99
693.578	3199.1
693.767	3332.22
693.956	3281.02
694.146	3321.98
694.335	3211.39
694.524	3223.67
694.713	3291.26
694.902	3207.29
695.092	3158.14
695.281	3244.15
695.47	3098.75
695.659	3180.67
695.848	3053.69
696.037	3106.94
696.226	3094.65
696.415	2979.97
696.604	3080.32
696.793	3111.04
696.982	2994.3
697.171	3033.21
697.36	3006.59
697.549	3102.84
697.738	2990.21
697.927	2990.21
698.116	3029.12
698.305	2863.23
698.494	2965.63
698.683	2926.72
698.872	3127.42
699.061	2900.09
699.25	2875.52
699.438	2842.75
699.627	2977.92
699.816	2758.78
700.005	2863.23
700.193	2855.04
700.382	2906.24
700.571	2906.24
700.76	2846.85
700.948	2875.52
701.137	2885.76
701.326	2902.14
701.514	2883.71
701.703	2896
701.892	2814.08
702.08	2822.27
702.269	2762.88
702.457	2861.18
702.646	2816.13
702.834	2828.42
703.023	2615.43
703.212	2730.11
703.4	2689.15
703.589	2736.26
703.777	2689.15
703.965	2711.68
704.154	2883.71
704.342	2662.53
704.531	2732.16
704.719	2738.3
704.907	2683.01
705.096	2754.69
705.284	2723.97
705.472	2752.64
705.661	2728.07
705.849	2572.42
706.037	2719.87
706.226	2705.54
706.414	2601.09
706.602	2629.76
706.79	2605.19
706.979	2623.62
707.167	2580.61
707.355	2623.62
707.543	2742.4
707.731	2662.53
707.919	2635.91
708.107	2637.95
708.296	2662.53
708.484	2719.87
708.672	2613.38
708.86	2660.48
709.048	2615.43
709.236	2662.53
709.424	2672.77
709.612	2691.2
709.8	2578.56
709.988	2580.61
710.176	2551.94
710.364	2654.34
710.551	2525.32
710.739	2662.53
710.927	2629.76
711.115	2517.12
711.303	2633.86
711.491	2693.25
711.679	2451.59
711.866	2578.56
712.054	2627.71
712.242	2683.01
712.43	2627.71
712.617	2586.76
712.805	2605.19
712.993	2586.76
713.181	2519.17
713.368	2506.88
713.556	2519.17
713.744	2472.07
713.931	2416.77
714.119	2553.99
714.306	2586.76
714.494	2521.22
714.682	2459.78
714.869	2635.91
715.057	2570.37
715.244	2568.32
715.432	2580.61
715.619	2529.41
715.807	2504.84
715.994	2582.66
716.182	2580.61
716.369	2527.36
716.556	2545.8
716.744	2398.34
716.931	2531.46
717.119	2498.69
717.306	2611.33
717.493	2703.49
717.681	2521.22
717.868	2467.97
718.055	2584.71
718.242	2508.93
718.43	2617.47
718.617	2695.3
718.804	2504.84
718.991	2508.93
719.179	2619.52
719.366	2396.29
719.553	2535.56
719.74	2496.64
719.927	2631.81
720.114	2517.12
720.301	2508.93
720.488	2480.26
720.676	2488.45
720.863	2517.12
721.05	2633.86
721.237	2386.05
721.424	2482.31
721.611	2515.08
721.798	2513.03
721.985	2476.16
722.172	2513.03
722.358	2576.52
722.545	2478.21
722.732	2490.5
722.919	2427.01
723.106	2494.6
723.293	2488.45
723.48	2439.3
723.667	2410.63
723.853	2549.89
724.04	2574.47
724.227	2371.72
724.414	2570.37
724.6	2424.97
724.787	2504.84
724.974	2476.16
725.161	2420.87
725.347	2480.26
725.534	2353.29
725.72	2498.69
725.907	2410.63
726.094	2459.78
726.28	2289.8
726.467	2472.07
726.653	2482.31
726.84	2519.17
727.027	2566.28
727.213	2470.02
727.4	2510.98
727.586	2541.7
727.773	2441.35
727.959	2547.84
728.145	2543.75
728.332	2332.81
728.518	2541.7
728.705	2529.41
728.891	2545.8
729.077	2461.83
729.264	2373.77
729.45	2504.84
729.636	2504.84
729.823	2394.25
730.009	2422.92
730.195	2445.45
730.382	2508.93
730.568	2560.13
730.754	2498.69
730.94	2416.77
731.126	2474.12
731.313	2513.03
731.499	2502.79
731.685	2508.93
731.871	2451.59
732.057	2560.13
732.243	2371.72
732.429	2433.16
732.615	2459.78
732.801	2519.17
732.987	2451.59
733.173	2490.5
733.359	2525.32
733.545	2384.01
733.731	2494.6
733.917	2572.42
734.103	2523.27
734.289	2541.7
734.475	2453.64
734.661	2521.22
734.847	2435.21
735.033	2494.6
735.219	2545.8
735.404	2478.21
735.59	2420.87
735.776	2406.53
735.962	2504.84
736.148	2504.84
736.333	2498.69
736.519	2443.4
736.705	2521.22
736.89	2498.69
737.076	2564.23
737.262	2343.05
737.447	2377.86
737.633	2447.49
737.819	2449.54
738.004	2418.82
738.19	2390.15
738.375	2326.66
738.561	2521.22
738.747	2549.89
738.932	2310.28
739.118	2447.49
739.303	2492.55
739.489	2328.71
739.674	2418.82
739.859	2406.53
740.045	2435.21
740.23	2402.44
740.416	2422.92
740.601	2455.69
740.786	2373.77
740.972	2332.81
741.157	2271.37
741.342	2300.04
741.528	2336.9
741.713	2226.31
741.898	2349.19
742.084	2234.5
742.269	2341
742.454	2445.45
742.639	2322.57
742.824	2277.51
743.01	2181.26
743.195	2326.66
743.38	2177.16
743.565	2302.09
743.75	2328.71
743.935	2173.07
744.12	2211.98
744.305	2136.2
744.49	2269.32
744.675	2214.02
744.86	2287.75
745.045	2214.02
745.23	2187.4
745.415	2209.93
745.6	2226.31
745.785	2023.56
745.97	2080.91
746.155	2113.67
746.34	2228.36
746.525	2044.04
746.71	2152.59
746.895	2197.64
747.079	2125.96
747.264	2035.85
747.449	2119.82
747.634	2142.35
747.819	2050.19
748.003	2035.85
748.188	1974.41
748.373	2001.04
748.557	2078.86
748.742	1941.65
748.927	1878.16
749.111	1923.21
749.296	1953.93
749.481	1841.29
749.665	1980.56
749.85	1841.29
750.034	1908.88
750.219	2009.23
750.404	1841.29
750.588	1910.93
750.773	1888.4
750.957	1874.06
751.141	1898.64
751.326	1816.72
751.51	1777.81
751.695	1783.95
751.879	1695.89
752.064	1804.43
752.248	1742.99
752.432	1935.5
752.617	1775.76
752.801	1667.22
752.985	1751.18
753.17	1628.31
753.354	1626.26
753.538	1669.27
753.722	1685.65
753.907	1734.8
754.091	1636.5
754.275	1591.44
754.459	1587.35
754.643	1575.06
754.828	1681.55
755.012	1517.72
755.196	1650.83
755.38	1532.05
755.564	1628.31
755.748	1601.68
755.932	1527.96
756.116	1495.19
756.3	1458.32
756.484	1458.32
756.668	1443.99
756.852	1460.37
757.036	1425.56
757.22	1487
757.404	1503.38
757.588	1370.26
757.772	1511.57
757.956	1382.55
758.14	1552.53
758.323	1419.41
758.507	1435.8
758.691	1419.41
758.875	1439.89
759.059	1341.59
759.242	1337.49
759.426	1341.59
759.61	1337.49
759.794	1341.59
759.977	1339.54
760.161	1415.32
760.345	1265.82
760.528	1355.93
760.712	1325.21
760.895	1376.41
761.079	1241.24
761.263	1165.46
761.446	1175.7
761.63	1312.92
761.813	1278.1
761.997	1259.67
762.18	1239.19
762.364	1228.95
762.547	1269.91
762.731	1222.81
762.914	1183.9
763.098	1308.82
763.281	1253.53
763.464	1153.18
763.648	1198.23
763.831	1163.42
764.015	1214.62
764.198	1216.66
764.381	1153.18
764.564	1185.94
764.748	1235.1
764.931	1165.46
765.114	1065.11
765.297	1245.34
765.481	1126.55
765.664	1179.8
765.847	1147.03
766.03	1124.51
766.213	1202.33
766.397	1173.66
766.58	1124.51
766.763	1108.12
766.946	1042.59
767.129	1185.94
767.312	1028.25
767.495	1149.08
767.678	1067.16
767.861	1091.74
768.044	1077.4
768.227	1104.03
768.41	1081.5
768.593	1099.93
768.776	1052.83
768.959	966.81
769.142	1142.94
769.324	1099.93
769.507	1034.39
769.69	1083.55
769.873	1007.77
770.056	1110.17
770.239	1032.35
770.421	1005.72
770.604	1114.27
770.787	968.86
770.97	987.29
771.152	1067.16
771.335	956.57
771.518	960.67
771.7	985.24
771.883	1015.96
772.066	929.95
772.248	1040.54
772.431	880.8
772.613	1005.72
772.796	850.08
772.978	944.28
773.161	872.61
773.343	942.24
773.526	934.04
773.708	884.89
773.891	864.41
774.073	895.13
774.256	813.21
774.438	845.98
774.621	899.23
774.803	839.84
774.985	897.18
775.168	979.1
775.35	796.83
775.532	872.61
775.715	839.84
775.897	821.41
776.079	833.69
776.261	845.98
776.444	809.12
776.626	878.75
776.808	821.41
776.99	802.97
777.173	774.3
777.355	792.73
777.537	757.92
777.719	780.45
777.901	714.91
778.083	788.64
778.265	753.82
778.447	796.83
778.629	637.09
778.811	776.35
778.993	751.78
779.175	788.64
779.357	741.54
779.539	661.66
779.721	692.38
779.903	665.76
780.085	651.42
780.267	684.19
780.449	608.42
780.631	649.38
780.812	700.58
780.994	661.66
781.176	637.09
781.358	692.38
781.54	690.34
781.721	684.19
781.903	604.32
782.085	643.23
782.267	643.23
782.448	645.28
782.63	592.03
782.812	637.09
782.993	626.85
783.175	626.85
783.357	592.03
783.538	676
783.72	510.11
783.901	624.8
784.083	522.4
784.264	575.65
784.446	647.33
784.627	536.74
784.809	551.07
784.99	587.94
785.172	510.11
785.353	553.12
785.535	487.59
785.716	538.79
785.897	530.59
786.079	592.03
786.26	542.88
786.441	544.93
786.623	428.2
786.804	489.64
786.985	460.96
787.167	444.58
787.348	436.39
787.529	489.64
787.71	569.51
787.891	477.35
788.073	424.1
788.254	512.16
788.435	508.07
788.616	422.05
788.797	444.58
788.978	446.63
789.159	413.86
789.34	497.83
789.522	481.44
789.703	436.39
789.884	389.28
790.065	362.66
790.246	469.16
790.427	452.77
790.607	424.1
790.788	403.62
790.969	385.19
791.15	413.86
791.331	407.72
791.512	389.28
791.693	395.43
791.874	422.05
792.054	428.2
792.235	448.68
792.416	411.81
792.597	391.33
792.778	383.14
792.958	354.47
793.139	417.96
793.32	383.14
793.5	293.03
793.681	397.48
793.862	354.47
794.042	284.84
794.223	366.76
794.404	329.89
794.584	327.85
794.765	393.38
794.945	321.7
795.126	297.13
795.306	360.61
795.487	331.94
795.667	340.13
795.848	309.41
796.028	301.22
796.209	340.13
796.389	352.42
796.57	321.7
796.75	338.09
796.93	379.04
797.111	360.61
797.291	290.98
797.471	329.89
797.652	290.98
797.832	272.55
798.012	282.79
798.192	231.59
798.373	286.89
798.553	338.09
798.733	293.03
798.913	321.7
799.093	295.08
799.274	333.99
799.454	262.31
799.634	256.17
799.814	340.13
799.994	270.5
800.174	260.26
800.354	215.21
800.534	362.66
800.714	309.41
800.894	268.45
801.074	333.99
801.254	233.64
801.434	268.45
801.614	280.74
801.794	239.78
801.974	673.95
802.154	233.64
802.334	333.99
802.514	272.55
802.693	329.89
802.873	239.78
803.053	346.28
803.233	260.26
803.413	219.3
803.592	239.78
803.772	254.12
803.952	260.26
804.131	284.84
804.311	239.78
804.491	282.79
804.67	233.64
804.85	297.13
805.03	231.59
805.209	278.69
805.389	200.87
805.568	229.54
805.748	215.21
805.928	229.54
806.107	315.56
806.287	256.17
806.466	250.02
806.646	116.9
806.825	118.95
807.004	209.06
807.184	170.15
807.363	196.78
807.543	198.82
807.722	204.97
807.901	237.74
808.081	164.01
808.26	223.4
808.439	307.37
808.619	174.25
808.798	164.01
808.977	270.5
809.156	202.92
809.336	174.25
809.515	198.82
809.694	153.77
809.873	264.36
810.052	243.88
810.231	258.21
810.411	252.07
810.59	207.02
810.769	182.44
810.948	215.21
811.127	125.1
811.306	137.38
811.485	133.29
811.664	258.21
811.843	170.15
812.022	184.49
812.201	137.38
812.38	168.1
812.559	143.53
812.737	190.63
812.916	151.72
813.095	145.58
813.274	194.73
813.453	143.53
813.632	137.38
813.811	231.59
813.989	118.95
814.168	98.47
814.347	168.1
814.526	131.24
814.704	186.54
814.883	219.3
815.062	202.92
815.24	221.35
815.419	159.91
815.598	174.25
815.776	221.35
815.955	174.25
816.133	202.92
816.312	151.72
816.49	114.86
816.669	114.86
816.847	202.92
817.026	231.59
817.204	135.34
817.383	106.67
817.561	118.95
817.74	174.25
817.918	204.97
818.097	149.67
818.275	118.95
818.453	186.54
818.632	198.82
818.81	168.1
818.988	225.45
819.167	63.66
819.345	254.12
819.523	94.38
819.701	174.25
819.879	147.62
820.058	106.67
820.236	141.48
820.414	159.91
820.592	133.29
820.77	129.19
820.948	204.97
821.127	145.58
821.305	92.33
821.483	135.34
821.661	80.04
821.839	77.99
822.017	153.77
822.195	118.95
822.373	170.15
822.551	92.33
822.729	178.34
822.907	88.23
823.085	92.33
823.262	61.61
823.44	104.62
823.618	147.62
823.796	57.51
823.974	108.71
824.152	43.18
824.329	34.99
824.507	110.76
824.685	114.86
824.863	88.23
825.04	147.62
825.218	180.39
825.396	159.91
825.574	164.01
825.751	133.29
825.929	137.38
826.107	61.61
826.284	219.3
826.462	178.34
826.639	170.15
826.817	106.67
826.994	139.43
827.172	10.41
827.349	121
827.527	100.52
827.704	114.86
827.882	82.09
828.059	114.86
828.237	112.81
828.414	121
828.591	22.7
828.769	135.34
828.946	108.71
829.124	178.34
829.301	26.79
829.478	104.62
829.655	178.34
829.833	149.67
830.01	43.18
830.187	166.06
830.364	106.67
830.542	69.8
830.719	67.75
830.896	116.9
831.073	110.76
831.25	94.38
831.427	172.2
831.604	67.75
831.782	57.51
831.959	106.67
832.136	94.38
832.313	176.3
832.49	98.47
832.667	88.23
832.844	174.25
833.021	92.33
833.198	108.71
833.374	92.33
833.551	59.56
833.728	55.47
833.905	69.8
834.082	28.84
834.259	84.14
834.436	80.04
834.612	73.9
834.789	30.89
834.966	45.23
835.143	47.27
835.319	104.62
835.496	82.09
835.673	59.56
835.85	100.52
836.026	127.14
836.203	102.57
836.38	67.75
836.556	135.34
836.733	51.37
836.909	47.27
837.086	82.09
837.262	67.75
837.439	106.67
837.616	67.75
837.792	43.18
837.968	153.77
838.145	65.71
838.321	88.23
838.498	71.85
838.674	94.38
838.851	73.9
839.027	100.52
839.203	61.61
839.38	114.86
839.556	6.31
839.732	92.33
839.909	100.52
840.085	59.56
840.261	39.08
840.437	55.47
840.614	114.86
840.79	90.28
840.966	104.62
841.142	34.99
841.318	39.08
841.494	102.57
841.671	8.36
841.847	125.1
842.023	88.23
842.199	30.89
842.375	34.99
842.551	61.61
842.727	106.67
842.903	55.47
843.079	-20.31
843.255	155.82
843.431	-44.88
843.607	129.19
843.783	45.23
843.959	80.04
844.134	39.08
844.31	75.95
844.486	22.7
844.662	18.6
844.838	-24.4
845.013	118.95
845.189	10.41
845.365	10.41
845.541	37.03
845.716	-1.88
845.892	10.41
846.068	-32.6
846.244	47.27
846.419	75.95
846.595	-14.17
846.77	-16.21
846.946	100.52
847.122	28.84
847.297	37.03
847.473	71.85
847.648	-3.93
847.824	28.84
847.999	-38.74
848.175	88.23
848.35	59.56
848.526	90.28
848.701	100.52
848.876	41.13
849.052	47.27
849.227	-73.56
849.403	153.77
849.578	75.95
849.753	-44.88
849.929	34.99
850.104	61.61
850.279	14.51
850.454	53.42
850.63	71.85
850.805	37.03
850.98	53.42
851.155	-46.93
851.33	-3.93
851.505	30.89
851.681	20.65
851.856	59.56
852.031	82.09
852.206	51.37
852.381	-3.93
852.556	57.51
852.731	0.17
852.906	-18.26
853.081	39.08
853.256	43.18
853.431	37.03
853.606	55.47
853.781	59.56
853.956	-55.12
854.131	39.08
854.305	0.17
854.48	53.42
854.655	45.23
854.83	69.8
855.005	-8.02
855.18	18.6
855.354	30.89
855.529	18.6
855.704	-34.64
855.879	47.27
856.053	-18.26
856.228	12.46
856.403	-61.27
856.577	8.36
856.752	80.04
856.926	-10.07
857.101	-10.07
857.276	32.94
857.45	55.47
857.625	55.47
857.799	22.7
857.974	20.65
858.148	8.36
858.323	47.27
858.497	-16.21
858.672	28.84
858.846	63.66
859.02	63.66
859.195	22.7
859.369	-38.74
859.543	67.75
859.718	18.6
859.892	39.08
860.066	59.56
860.241	-5.97
860.415	28.84
860.589	-44.88
860.763	-10.07
860.938	-12.12
861.112	24.75
861.286	80.04
861.46	-28.5
861.634	57.51
861.808	32.94
861.982	4.27
862.157	67.75
862.331	-44.88
862.505	2.22
862.679	41.13
862.853	43.18
863.027	-5.97
863.201	47.27
863.375	-28.5
863.549	59.56
863.722	-46.93
863.896	80.04
864.07	-24.4
864.244	39.08
864.418	-46.93
864.592	16.55
864.766	-26.45
864.939	41.13
865.113	39.08
865.287	55.47
865.461	28.84
865.634	45.23
865.808	55.47
865.982	26.79
866.156	-5.97
866.329	82.09
866.503	28.84
866.676	82.09
866.85	-1.88
867.024	-46.93
867.197	73.9
867.371	57.51
867.544	43.18
867.718	-34.64
867.891	63.66
868.065	22.7
868.238	12.46
868.412	-12.12
868.585	28.84
868.759	18.6
868.932	-46.93
869.105	-20.31
869.279	-8.02
869.452	20.65
869.625	32.94
869.799	32.94
869.972	22.7
870.145	71.85
870.319	-51.03
870.492	4.27
870.665	34.99
870.838	12.46
871.011	-22.36
871.185	-24.4
871.358	-20.31
871.531	55.47
871.704	-10.07
871.877	37.03
872.05	-53.08
872.223	-1.88
872.396	-10.07
872.569	22.7
872.742	-1.88
872.915	8.36
873.088	-16.21
873.261	39.08
873.434	-38.74
873.607	47.27
873.78	65.71
873.953	-34.64
874.126	-3.93
874.299	-77.65
874.471	4.27
874.644	-8.02
874.817	131.24
874.99	24.75
875.163	-3.93
875.335	-5.97
875.508	24.75
875.681	-10.07
875.853	-1.88
876.026	22.7
876.199	30.89
876.371	24.75
876.544	-96.08
876.717	18.6
876.889	32.94
877.062	12.46
877.234	-3.93
877.407	-8.02
877.579	-42.84
877.752	-46.93
877.924	-18.26
878.097	71.85
878.269	-42.84
878.442	0.17
878.614	4.27
878.786	2.22
878.959	-51.03
879.131	77.99
879.303	-12.12
879.476	-16.21
879.648	49.32
879.82	6.31
879.993	-22.36
880.165	8.36
880.337	-16.21
880.509	63.66
880.681	-30.55
880.854	-57.17
881.026	-65.36
881.198	61.61
881.37	18.6
881.542	51.37
881.714	30.89
881.886	75.95
882.058	-75.6
882.23	49.32
882.402	-18.26
882.574	-38.74
882.746	-10.07
882.918	30.89
883.09	2.22
883.262	30.89
883.434	45.23
883.606	-44.88
883.778	22.7
883.95	43.18
884.122	-40.79
884.293	-63.32
884.465	-34.64
884.637	-1.88
884.809	-42.84
884.98	-30.55
885.152	37.03
885.324	39.08
885.496	-55.12
885.667	20.65
885.839	2.22
886.011	-14.17
886.182	-8.02
886.354	-8.02
886.525	-22.36
886.697	-46.93
886.869	26.79
887.04	14.51
887.212	-5.97
887.383	24.75
887.555	16.55
887.726	-8.02
887.897	-8.02
888.069	-81.75
888.24	51.37
888.412	-12.12
888.583	18.6
888.754	88.23
888.926	41.13
889.097	80.04
889.268	10.41
889.44	47.27
889.611	55.47
889.782	51.37
889.953	-12.12
890.125	0.17
890.296	-1.88
890.467	-3.93
890.638	-42.84
890.809	71.85
890.98	-46.93
891.151	37.03
891.323	-48.98
891.494	-5.97
891.665	18.6
891.836	-55.12
892.007	6.31
892.178	55.47
892.349	22.7
892.52	61.61
892.691	18.6
892.862	-12.12
893.032	73.9
893.203	22.7
893.374	6.31
893.545	41.13
893.716	-34.64
893.887	32.94
894.057	22.7
894.228	45.23
894.399	-34.64
894.57	59.56
894.74	-51.03
894.911	41.13
895.082	14.51
895.253	-36.69
895.423	12.46
895.594	18.6
895.764	-26.45
895.935	30.89
896.106	-38.74
896.276	-32.6
896.447	-61.27
896.617	47.27
896.788	-44.88
896.958	-28.5
897.129	2.22
897.299	-36.69
897.47	-3.93
897.64	-112.47
897.81	32.94
897.981	-5.97
898.151	-12.12
898.322	-36.69
898.492	-18.26
898.662	-22.36
898.832	-1.88
899.003	22.7
899.173	-3.93
899.343	-51.03
899.513	-73.56
