Data from USB4F104151__1__11-04-29-256.txt Node

Date: Wed Mar 12 11:04:29 EDT 2025
User: louis
Spectrometer: USB4F10415
Trigger mode: 4
Integration Time (sec): 2.000000E-2
Scans to average: 1
Electric dark correction enabled: true
Nonlinearity correction enabled: false
Boxcar width: 0
XAxis mode: Wavelengths
Number of Pixels in Spectrum: 3648
>>>>>Begin Spectral Data<<<<<
178.204	-96.25
178.424	-96.25
178.644	-96.25
178.864	-120.83
179.084	-96.25
179.304	-10.24
179.524	-69.63
179.744	12.29
179.964	59.39
180.184	-20.48
180.404	4.1
180.624	12.29
180.844	45.06
181.064	-36.86
181.283	12.29
181.503	-51.2
181.723	43.01
181.943	-38.91
182.163	28.67
182.383	-6.14
182.602	18.43
182.822	10.24
183.042	77.82
183.262	-32.77
183.482	-4.1
183.701	4.1
183.921	-4.1
184.141	-63.49
184.361	16.38
184.58	2.05
184.8	47.1
185.02	40.96
185.239	24.58
185.459	-36.86
185.679	14.34
185.898	-4.1
186.118	2.05
186.338	-20.48
186.557	16.38
186.777	-61.44
186.997	-8.19
187.216	16.38
187.436	61.44
187.655	-94.21
187.875	65.53
188.095	-4.1
188.314	92.16
188.534	79.87
188.753	51.2
188.973	34.82
189.192	10.24
189.412	100.35
189.631	38.91
189.851	75.77
190.07	-36.86
190.29	-30.72
190.509	-2.05
190.729	2.05
190.948	43.01
191.168	124.93
191.387	-20.48
191.607	38.91
191.826	45.06
192.045	-20.48
192.265	28.67
192.484	-10.24
192.704	49.15
192.923	-20.48
193.142	108.54
193.362	51.2
193.581	20.48
193.8	-28.67
194.02	36.86
194.239	-16.38
194.458	34.82
194.678	-22.53
194.897	18.43
195.116	77.82
195.335	-16.38
195.555	40.96
195.774	55.3
195.993	79.87
196.212	-55.3
196.432	-12.29
196.651	-12.29
196.87	4.1
197.089	81.92
197.308	86.01
197.528	43.01
197.747	-36.86
197.966	86.01
198.185	-45.06
198.404	34.82
198.623	20.48
198.842	28.67
199.062	59.39
199.281	61.44
199.5	26.62
199.719	-10.24
199.938	57.34
200.157	40.96
200.376	28.67
200.595	4.1
200.814	-30.72
201.033	-8.19
201.252	86.01
201.471	-6.14
201.69	-20.48
201.909	12.29
202.128	49.15
202.347	16.38
202.566	-104.45
202.785	24.58
203.004	-6.14
203.223	-2.05
203.442	40.96
203.661	-12.29
203.879	69.63
204.098	22.53
204.317	47.1
204.536	63.49
204.755	61.44
204.974	18.43
205.193	24.58
205.411	88.06
205.63	4.1
205.849	14.34
206.068	12.29
206.287	57.34
206.505	18.43
206.724	-0
206.943	-0
207.162	16.38
207.381	8.19
207.599	4.1
207.818	18.43
208.037	-4.1
208.255	-63.49
208.474	-57.34
208.693	59.39
208.911	65.53
209.13	28.67
209.349	-14.34
209.567	4.1
209.786	59.39
210.005	36.86
210.223	63.49
210.442	-32.77
210.661	65.53
210.879	-0
211.098	-20.48
211.316	18.43
211.535	69.63
211.753	30.72
211.972	24.58
212.191	-51.2
212.409	14.34
212.628	-20.48
212.846	-8.19
213.065	90.11
213.283	28.67
213.502	36.86
213.72	18.43
213.938	18.43
214.157	55.3
214.375	24.58
214.594	14.34
214.812	59.39
215.031	45.06
215.249	38.91
215.467	16.38
215.686	4.1
215.904	30.72
216.122	-34.82
216.341	108.54
216.559	36.86
216.778	2.05
216.996	-8.19
217.214	30.72
217.432	12.29
217.651	-22.53
217.869	6.14
218.087	53.25
218.306	14.34
218.524	61.44
218.742	-18.43
218.96	-0
219.179	8.19
219.397	53.25
219.615	94.21
219.833	12.29
220.051	28.67
220.27	43.01
220.488	26.62
220.706	20.48
220.924	28.67
221.142	53.25
221.36	4.1
221.578	77.82
221.796	45.06
222.015	36.86
222.233	12.29
222.451	59.39
222.669	-53.25
222.887	24.58
223.105	20.48
223.323	-6.14
223.541	-43.01
223.759	43.01
223.977	32.77
224.195	49.15
224.413	32.77
224.631	34.82
224.849	79.87
225.067	63.49
225.285	-0
225.503	10.24
225.721	-34.82
225.939	20.48
226.157	75.77
226.375	16.38
226.592	-0
226.81	40.96
227.028	79.87
227.246	116.73
227.464	-6.14
227.682	24.58
227.9	49.15
228.117	59.39
228.335	28.67
228.553	38.91
228.771	-4.1
228.989	73.73
229.206	49.15
229.424	-10.24
229.642	-30.72
229.86	-16.38
230.077	-24.58
230.295	16.38
230.513	28.67
230.731	61.44
230.948	20.48
231.166	34.82
231.384	14.34
231.601	-40.96
231.819	75.77
232.037	-0
232.254	57.34
232.472	77.82
232.689	20.48
232.907	73.73
233.125	79.87
233.342	53.25
233.56	59.39
233.777	12.29
233.995	14.34
234.213	67.58
234.43	45.06
234.648	-53.25
234.865	-34.82
235.083	26.62
235.3	-28.67
235.518	18.43
235.735	43.01
235.953	32.77
236.17	51.2
236.388	12.29
236.605	8.19
236.822	40.96
237.04	104.45
237.257	47.1
237.475	18.43
237.692	51.2
237.909	32.77
238.127	73.73
238.344	53.25
238.562	32.77
238.779	-51.2
238.996	-12.29
239.214	-32.77
239.431	32.77
239.648	2.05
239.865	86.01
240.083	79.87
240.3	40.96
240.517	24.58
240.735	-4.1
240.952	22.53
241.169	92.16
241.386	65.53
241.603	20.48
241.821	88.06
242.038	-2.05
242.255	45.06
242.472	10.24
242.689	-16.38
242.907	73.73
243.124	51.2
243.341	24.58
243.558	-16.38
243.775	6.14
243.992	22.53
244.209	47.1
244.426	79.87
244.643	40.96
244.86	49.15
245.078	-77.82
245.295	-14.34
245.512	-40.96
245.729	-16.38
245.946	-2.05
246.163	-12.29
246.38	6.14
246.597	-12.29
246.814	73.73
247.031	18.43
247.248	49.15
247.464	16.38
247.681	-79.87
247.898	45.06
248.115	61.44
248.332	45.06
248.549	57.34
248.766	10.24
248.983	108.54
249.2	38.91
249.417	10.24
249.633	-32.77
249.85	18.43
250.067	12.29
250.284	-10.24
250.501	53.25
250.717	36.86
250.934	4.1
251.151	14.34
251.368	53.25
251.585	-43.01
251.801	16.38
252.018	47.1
252.235	26.62
252.451	49.15
252.668	-2.05
252.885	2.05
253.102	63.49
253.318	14.34
253.535	20.48
253.752	-12.29
253.968	20.48
254.185	47.1
254.401	24.58
254.618	26.62
254.835	-10.24
255.051	30.72
255.268	43.01
255.484	34.82
255.701	10.24
255.917	22.53
256.134	-49.15
256.351	45.06
256.567	-20.48
256.784	53.25
257	28.67
257.217	47.1
257.433	-57.34
257.65	-24.58
257.866	18.43
258.082	-38.91
258.299	36.86
258.515	-6.14
258.732	22.53
258.948	-12.29
259.165	28.67
259.381	18.43
259.597	92.16
259.814	-4.1
260.03	16.38
260.246	-34.82
260.463	38.91
260.679	8.19
260.895	-4.1
261.112	90.11
261.328	59.39
261.544	40.96
261.761	53.25
261.977	43.01
262.193	-10.24
262.409	-24.58
262.626	53.25
262.842	63.49
263.058	40.96
263.274	43.01
263.49	28.67
263.707	30.72
263.923	43.01
264.139	-61.44
264.355	10.24
264.571	12.29
264.787	43.01
265.004	81.92
265.22	16.38
265.436	30.72
265.652	-6.14
265.868	34.82
266.084	57.34
266.3	38.91
266.516	-6.14
266.732	100.35
266.948	32.77
267.164	-0
267.38	51.2
267.596	45.06
267.812	53.25
268.028	53.25
268.244	77.82
268.46	73.73
268.676	16.38
268.892	40.96
269.108	40.96
269.324	69.63
269.54	8.19
269.756	32.77
269.972	22.53
270.188	24.58
270.403	90.11
270.619	-32.77
270.835	36.86
271.051	67.58
271.267	-8.19
271.483	36.86
271.698	65.53
271.914	28.67
272.13	-12.29
272.346	-30.72
272.562	59.39
272.777	-16.38
272.993	22.53
273.209	-12.29
273.425	51.2
273.64	20.48
273.856	135.17
274.072	36.86
274.287	6.14
274.503	69.63
274.719	55.3
274.934	26.62
275.15	-32.77
275.366	-12.29
275.581	-4.1
275.797	-63.49
276.012	10.24
276.228	-45.06
276.444	8.19
276.659	28.67
276.875	18.43
277.09	65.53
277.306	18.43
277.521	124.93
277.737	45.06
277.952	96.25
278.168	94.21
278.383	8.19
278.599	4.1
278.814	69.63
279.03	2.05
279.245	30.72
279.461	4.1
279.676	47.1
279.892	-40.96
280.107	-4.1
280.322	49.15
280.538	-28.67
280.753	32.77
280.969	12.29
281.184	-14.34
281.399	98.3
281.615	22.53
281.83	-2.05
282.045	36.86
282.26	36.86
282.476	-32.77
282.691	49.15
282.906	8.19
283.122	4.1
283.337	18.43
283.552	43.01
283.767	4.1
283.983	-40.96
284.198	10.24
284.413	73.73
284.628	86.01
284.843	51.2
285.058	2.05
285.274	63.49
285.489	-30.72
285.704	12.29
285.919	-18.43
286.134	16.38
286.349	-10.24
286.564	36.86
286.779	-20.48
286.995	34.82
287.21	-8.19
287.425	59.39
287.64	20.48
287.855	45.06
288.07	36.86
288.285	75.77
288.5	18.43
288.715	-4.1
288.93	8.19
289.145	77.82
289.36	71.68
289.575	55.3
289.79	47.1
290.004	34.82
290.219	18.43
290.434	22.53
290.649	-77.82
290.864	57.34
291.079	81.92
291.294	24.58
291.509	20.48
291.724	-10.24
291.938	71.68
292.153	55.3
292.368	67.58
292.583	18.43
292.798	22.53
293.012	28.67
293.227	38.91
293.442	6.14
293.657	75.77
293.871	4.1
294.086	124.93
294.301	49.15
294.516	55.3
294.73	-47.1
294.945	92.16
295.16	-0
295.374	47.1
295.589	49.15
295.804	45.06
296.018	-6.14
296.233	81.92
296.447	-2.05
296.662	4.1
296.877	53.25
297.091	20.48
297.306	67.58
297.52	51.2
297.735	108.54
297.949	63.49
298.164	61.44
298.378	14.34
298.593	-14.34
298.807	-8.19
299.022	18.43
299.236	63.49
299.451	-28.67
299.665	32.77
299.88	22.53
300.094	36.86
300.309	45.06
300.523	-6.14
300.737	75.77
300.952	-20.48
301.166	6.14
301.381	-18.43
301.595	81.92
301.809	24.58
302.024	16.38
302.238	71.68
302.452	69.63
302.667	49.15
302.881	16.38
303.095	79.87
303.309	-26.62
303.524	53.25
303.738	-6.14
303.952	-36.86
304.166	86.01
304.381	53.25
304.595	67.58
304.809	65.53
305.023	55.3
305.237	79.87
305.452	40.96
305.666	-10.24
305.88	57.34
306.094	100.35
306.308	55.3
306.522	53.25
306.736	79.87
306.95	30.72
307.164	-8.19
307.379	4.1
307.593	57.34
307.807	86.01
308.021	2.05
308.235	81.92
308.449	22.53
308.663	38.91
308.877	28.67
309.091	40.96
309.305	43.01
309.519	-26.62
309.733	36.86
309.947	-6.14
310.161	38.91
310.374	22.53
310.588	71.68
310.802	61.44
311.016	14.34
311.23	86.01
311.444	-16.38
311.658	92.16
311.872	43.01
312.085	92.16
312.299	63.49
312.513	28.67
312.727	-51.2
312.941	-18.43
313.154	-4.1
313.368	-8.19
313.582	45.06
313.796	26.62
314.009	24.58
314.223	-8.19
314.437	79.87
314.651	51.2
314.864	75.77
315.078	-4.1
315.292	75.77
315.505	-4.1
315.719	65.53
315.933	-0
316.146	-2.05
316.36	51.2
316.573	118.78
316.787	79.87
317.001	61.44
317.214	83.97
317.428	-18.43
317.641	-24.58
317.855	8.19
318.068	32.77
318.282	55.3
318.495	77.82
318.709	69.63
318.922	69.63
319.136	104.45
319.349	8.19
319.563	-4.1
319.776	55.3
319.99	-14.34
320.203	-6.14
320.417	65.53
320.63	32.77
320.843	55.3
321.057	77.82
321.27	45.06
321.483	100.35
321.697	108.54
321.91	26.62
322.124	71.68
322.337	40.96
322.55	-4.1
322.763	47.1
322.977	14.34
323.19	-6.14
323.403	-36.86
323.617	36.86
323.83	12.29
324.043	32.77
324.256	-2.05
324.469	34.82
324.683	86.01
324.896	-8.19
325.109	-57.34
325.322	22.53
325.535	108.54
325.748	-2.05
325.962	-34.82
326.175	53.25
326.388	30.72
326.601	-28.67
326.814	98.3
327.027	47.1
327.24	83.97
327.453	40.96
327.666	71.68
327.879	34.82
328.092	65.53
328.305	34.82
328.518	4.1
328.731	26.62
328.944	49.15
329.157	71.68
329.37	26.62
329.583	90.11
329.796	83.97
330.009	86.01
330.222	94.21
330.435	49.15
330.648	100.35
330.861	49.15
331.073	12.29
331.286	34.82
331.499	24.58
331.712	-36.86
331.925	36.86
332.138	14.34
332.35	18.43
332.563	14.34
332.776	8.19
332.989	75.77
333.202	32.77
333.414	-8.19
333.627	36.86
333.84	26.62
334.053	14.34
334.265	-24.58
334.478	26.62
334.691	-8.19
334.903	43.01
335.116	-38.91
335.329	30.72
335.541	67.58
335.754	2.05
335.966	16.38
336.179	81.92
336.392	94.21
336.604	28.67
336.817	65.53
337.029	-16.38
337.242	61.44
337.454	-10.24
337.667	4.1
337.88	40.96
338.092	4.1
338.305	59.39
338.517	65.53
338.729	45.06
338.942	24.58
339.154	-16.38
339.367	28.67
339.579	38.91
339.792	22.53
340.004	8.19
340.217	38.91
340.429	47.1
340.641	61.44
340.854	-8.19
341.066	69.63
341.278	75.77
341.491	92.16
341.703	20.48
341.915	16.38
342.128	26.62
342.34	53.25
342.552	-10.24
342.764	26.62
342.977	32.77
343.189	116.73
343.401	26.62
343.613	20.48
343.826	8.19
344.038	18.43
344.25	110.59
344.462	34.82
344.674	75.77
344.886	49.15
345.099	90.11
345.311	22.53
345.523	30.72
345.735	30.72
345.947	90.11
346.159	8.19
346.371	81.92
346.583	61.44
346.795	116.73
347.007	38.91
347.219	75.77
347.431	86.01
347.643	77.82
347.855	-49.15
348.067	90.11
348.279	2.05
348.491	-16.38
348.703	28.67
348.915	45.06
349.127	-2.05
349.339	114.69
349.551	67.58
349.763	49.15
349.975	83.97
350.187	86.01
350.399	-10.24
350.61	63.49
350.822	-16.38
351.034	77.82
351.246	24.58
351.458	6.14
351.669	73.73
351.881	102.4
352.093	98.3
352.305	45.06
352.517	-40.96
352.728	-71.68
352.94	36.86
353.152	2.05
353.363	-20.48
353.575	36.86
353.787	59.39
353.999	139.26
354.21	108.54
354.422	36.86
354.633	4.1
354.845	32.77
355.057	96.25
355.268	100.35
355.48	22.53
355.692	-16.38
355.903	61.44
356.115	30.72
356.326	36.86
356.538	151.55
356.749	18.43
356.961	86.01
357.172	92.16
357.384	-12.29
357.595	94.21
357.807	10.24
358.018	49.15
358.23	100.35
358.441	122.88
358.653	88.06
358.864	14.34
359.075	-51.2
359.287	-16.38
359.498	94.21
359.709	2.05
359.921	18.43
360.132	77.82
360.344	67.58
360.555	63.49
360.766	69.63
360.977	49.15
361.189	102.4
361.4	36.86
361.611	92.16
361.823	83.97
362.034	57.34
362.245	20.48
362.456	88.06
362.667	49.15
362.879	40.96
363.09	40.96
363.301	98.3
363.512	53.25
363.723	34.82
363.935	40.96
364.146	2.05
364.357	2.05
364.568	57.34
364.779	81.92
364.99	73.73
365.201	28.67
365.412	20.48
365.623	-34.82
365.834	73.73
366.045	49.15
366.256	57.34
366.467	14.34
366.678	59.39
366.889	16.38
367.1	-2.05
367.311	51.2
367.522	-20.48
367.733	59.39
367.944	12.29
368.155	-14.34
368.366	26.62
368.577	34.82
368.788	18.43
368.999	-20.48
369.209	-4.1
369.42	86.01
369.631	75.77
369.842	45.06
370.053	55.3
370.264	63.49
370.474	-36.86
370.685	20.48
370.896	53.25
371.107	61.44
371.317	69.63
371.528	18.43
371.739	22.53
371.95	32.77
372.16	22.53
372.371	12.29
372.582	34.82
372.792	90.11
373.003	108.54
373.214	55.3
373.424	77.82
373.635	-2.05
373.846	155.65
374.056	79.87
374.267	45.06
374.477	122.88
374.688	30.72
374.898	86.01
375.109	32.77
375.319	61.44
375.53	120.83
375.74	45.06
375.951	10.24
376.161	45.06
376.372	61.44
376.582	47.1
376.793	67.58
377.003	-53.25
377.214	61.44
377.424	65.53
377.635	20.48
377.845	16.38
378.055	94.21
378.266	-14.34
378.476	-14.34
378.686	108.54
378.897	28.67
379.107	77.82
379.317	30.72
379.528	90.11
379.738	34.82
379.948	20.48
380.158	75.77
380.369	57.34
380.579	49.15
380.789	65.53
380.999	92.16
381.21	124.93
381.42	51.2
381.63	79.87
381.84	73.73
382.05	36.86
382.261	79.87
382.471	43.01
382.681	24.58
382.891	61.44
383.101	71.68
383.311	-0
383.521	114.69
383.731	26.62
383.941	8.19
384.151	79.87
384.361	110.59
384.571	53.25
384.781	118.78
384.991	65.53
385.201	57.34
385.411	59.39
385.621	118.78
385.831	-0
386.041	110.59
386.251	112.64
386.461	36.86
386.671	67.58
386.881	94.21
387.091	92.16
387.301	30.72
387.511	100.35
387.72	96.25
387.93	47.1
388.14	71.68
388.35	71.68
388.56	126.97
388.769	34.82
388.979	28.67
389.189	24.58
389.399	40.96
389.609	102.4
389.818	6.14
390.028	59.39
390.238	32.77
390.447	20.48
390.657	77.82
390.867	77.82
391.076	67.58
391.286	16.38
391.496	102.4
391.705	45.06
391.915	69.63
392.125	90.11
392.334	73.73
392.544	100.35
392.753	94.21
392.963	24.58
393.172	45.06
393.382	88.06
393.591	79.87
393.801	47.1
394.01	169.98
394.22	79.87
394.429	110.59
394.639	59.39
394.848	81.92
395.058	69.63
395.267	57.34
395.477	65.53
395.686	124.93
395.895	49.15
396.105	161.79
396.314	98.3
396.524	122.88
396.733	100.35
396.942	126.97
397.152	151.55
397.361	149.5
397.57	71.68
397.78	102.4
397.989	106.49
398.198	118.78
398.407	77.82
398.617	98.3
398.826	32.77
399.035	114.69
399.244	104.45
399.453	112.64
399.663	147.45
399.872	108.54
400.081	90.11
400.29	77.82
400.499	147.45
400.708	124.93
400.917	65.53
401.127	120.83
401.336	94.21
401.545	178.17
401.754	141.31
401.963	131.07
402.172	94.21
402.381	159.74
402.59	147.45
402.799	153.6
403.008	159.74
403.217	110.59
403.426	186.37
403.635	163.84
403.844	161.79
404.053	108.54
404.262	133.12
404.471	135.17
404.68	198.65
404.888	151.55
405.097	165.89
405.306	139.26
405.515	178.17
405.724	182.27
405.933	186.37
406.142	237.56
406.35	135.17
406.559	212.99
406.768	182.27
406.977	192.51
407.185	200.7
407.394	241.66
407.603	229.37
407.812	229.37
408.02	231.42
408.229	235.52
408.438	208.89
408.646	229.37
408.855	286.72
409.064	274.43
409.272	274.43
409.481	372.73
409.69	299
409.898	395.26
410.107	313.34
410.315	409.59
410.524	368.63
410.733	333.82
410.941	403.45
411.15	444.41
411.358	401.4
411.567	425.98
411.775	428.03
411.984	462.84
412.192	452.6
412.401	483.32
412.609	495.61
412.818	518.14
413.026	514.04
413.234	518.14
413.443	589.81
413.651	606.2
413.86	589.81
414.068	555
414.276	722.93
414.485	708.6
414.693	645.11
414.901	733.17
415.11	673.78
415.318	724.98
415.526	815.09
415.734	833.52
415.943	817.14
416.151	884.72
416.359	888.82
416.567	964.59
416.776	978.93
416.984	1054.7
417.192	1075.18
417.4	1009.65
417.608	1083.38
417.817	1114.09
418.025	1124.33
418.233	1085.42
418.441	1286.12
418.649	1241.07
418.857	1339.37
419.065	1392.62
419.273	1314.8
419.481	1398.76
419.689	1548.26
419.897	1589.22
420.105	1566.7
420.313	1609.7
420.521	1820.64
420.729	1718.25
420.937	1703.91
421.145	1886.18
421.353	1875.94
421.561	2109.41
421.769	1966.05
421.977	2228.19
422.185	2107.36
422.393	2357.21
422.601	2422.75
422.809	2451.42
423.017	2375.64
423.224	2584.54
423.432	2736.09
423.64	2680.79
423.848	2924.5
424.056	2772.95
424.263	2985.94
424.471	3067.86
424.679	3164.11
424.887	3332.05
425.094	3307.47
425.302	3393.48
425.51	3555.27
425.718	3559.37
425.925	3639.24
426.133	3829.7
426.341	4016.07
426.548	4272.06
426.756	4196.29
426.964	4204.48
427.171	4435.9
427.379	4554.68
427.586	4730.81
427.794	4911.03
428.001	5095.35
428.209	5191.6
428.417	5341.1
428.624	5451.69
428.832	5699.5
429.039	5539.76
429.247	5705.64
429.454	6135.71
429.662	6619.03
429.869	6102.95
430.076	6598.56
430.284	6377.37
430.491	6764.44
430.699	6932.37
430.906	7004.05
431.114	7235.47
431.321	7321.49
431.528	7610.25
431.736	8187.78
431.943	8191.87
432.15	8159.11
432.358	8312.71
432.565	8634.24
432.772	8621.95
432.979	9199.48
433.187	9185.14
433.394	9557.87
433.601	9944.94
433.808	9901.93
434.016	9969.51
434.223	10270.56
434.43	11001.69
434.637	10727.26
434.844	11407.19
435.052	11552.59
435.259	11464.53
435.466	11796.3
435.673	11349.84
435.88	12517.18
436.087	12943.16
436.294	12889.92
436.501	12781.37
436.708	13217.59
436.915	13428.53
437.122	14065.45
437.329	14165.8
437.537	14724.9
437.743	14645.02
437.95	14632.74
438.157	15456.02
438.364	15814.41
438.571	15818.51
438.778	15906.57
438.985	17424.12
439.192	16799.49
439.399	17327.86
439.606	17075.96
439.813	17798.9
440.02	18912.99
440.227	18777.83
440.433	18622.18
440.64	19345.11
440.847	18960.09
441.054	19568.34
441.261	20745.92
441.467	20365
441.674	20967.1
441.881	21774
442.088	21712.56
442.294	21370.55
442.501	22025.9
442.708	22597.29
442.914	23545.5
443.121	24106.64
443.328	23799.44
443.534	25304.7
443.741	24639.11
443.948	24186.51
444.154	26414.7
444.361	26216.05
444.568	26033.78
444.774	26252.91
444.981	26506.86
445.187	27426.4
445.394	28296.78
445.6	28083.8
445.807	30907.94
446.013	29392.45
446.22	29859.38
446.426	31272.48
446.633	31426.08
446.839	32339.47
447.046	31256.1
447.252	32757.26
447.459	32937.48
447.665	32873.99
447.871	34012.67
448.078	35673.57
448.284	33852.92
448.491	34717.17
448.697	36150.74
448.903	36822.48
449.11	36709.84
449.316	36120.02
449.522	36605.39
449.728	37860.8
449.935	38063.55
450.141	37875.13
450.347	38684.08
450.553	37270.98
450.76	38032.83
450.966	38651.31
451.172	38258.1
451.378	39515.56
451.584	38675.89
451.791	39660.96
451.997	39611.81
452.203	39851.42
452.409	40097.18
452.615	39796.13
452.821	38065.6
453.027	37762.5
453.233	39548.32
453.44	37508.55
453.646	38575.54
453.852	38598.07
454.058	39331.24
454.264	37666.24
454.47	38495.67
454.676	37357
454.882	38602.16
455.088	35202.53
455.294	35919.32
455.5	36457.94
455.705	36591.06
455.911	34987.5
456.117	34772.46
456.323	34070.01
456.529	31946.26
456.735	33472
456.941	32781.84
457.147	31745.56
457.352	31032.87
457.558	30774.83
457.764	30367.28
457.97	30078.52
458.176	29328.96
458.381	29214.27
458.587	27680.35
458.793	27938.39
458.999	26388.08
459.204	28317.26
459.41	27436.64
459.616	25368.19
459.821	25591.42
460.027	25763.45
460.233	24946.31
460.438	23541.4
460.644	23918.23
460.85	22890.15
461.055	22361.77
461.261	22838.95
461.466	20823.75
461.672	20289.23
461.878	21259.96
462.083	20420.3
462.289	20139.72
462.494	19650.26
462.7	18927.33
462.905	18425.57
463.111	18966.24
463.316	18865.89
463.522	18648.8
463.727	18667.24
463.932	18697.95
464.138	18392.81
464.343	18503.4
464.549	18300.65
464.754	18644.71
464.959	18525.93
465.165	18089.71
465.37	17456.89
465.575	16967.42
465.781	18011.89
465.986	18003.69
466.191	17303.29
466.397	16840.45
466.602	15988.49
466.807	16762.62
467.012	16842.49
467.218	16580.35
467.423	16430.85
467.628	16776.96
467.833	17149.69
468.038	16469.76
468.244	16277.26
468.449	16717.57
468.654	16185.1
468.859	15904.53
469.064	15970.06
469.269	15228.7
469.474	15677.2
469.679	15392.53
469.885	15318.81
470.09	15628.05
470.295	15337.24
470.5	15370.01
470.705	15103.77
470.91	14698.27
471.115	14726.94
471.32	14741.28
471.525	14700.32
471.73	14419.75
471.935	14360.36
472.139	13895.47
472.344	14145.32
472.549	13864.75
472.754	13827.89
472.959	13424.44
473.164	13018.94
473.369	12955.45
473.574	13412.15
473.778	13319.99
473.983	13102.9
474.188	12986.17
474.393	12535.62
474.598	12662.59
474.802	12586.82
475.007	12281.67
475.212	12416.83
475.417	11990.86
475.621	11943.75
475.826	11779.92
476.031	11693.9
476.235	11263.83
476.44	11689.81
476.645	11497.3
476.849	11370.32
477.054	11493.2
477.259	11288.4
477.463	11183.96
477.668	10817.37
477.872	11124.57
478.077	10788.7
478.282	10491.74
478.486	10610.53
478.691	10522.46
478.895	10340.19
479.1	10467.17
479.304	10508.13
479.509	10188.64
479.713	10243.94
479.918	10125.16
480.122	9873.26
480.326	10000.23
480.531	10176.36
480.735	9891.69
480.94	9797.48
481.144	10162.02
481.348	9686.89
481.553	9666.41
481.757	9478
481.961	9746.28
482.166	9785.19
482.37	9906.02
482.574	9635.69
482.778	9607.02
482.983	9783.15
483.187	9826.15
483.391	9867.11
483.595	9686.89
483.8	9537.39
484.004	9672.56
484.208	9842.54
484.412	9613.17
484.616	9471.86
484.821	9688.94
485.025	9459.57
485.229	9727.85
485.433	9736.04
485.637	9789.29
485.841	9686.89
486.045	9652.08
486.249	9463.66
486.453	9596.78
486.657	9734
486.861	9664.36
487.065	9240.43
487.269	9568.11
487.473	9553.77
487.677	9602.93
487.881	9688.94
488.085	9588.59
488.289	9883.5
488.493	9465.71
488.697	9742.19
488.901	9807.72
489.105	9793.39
489.309	9820.01
489.512	9768.81
489.716	9838.44
489.92	9824.11
490.124	9842.54
490.328	9770.86
490.531	9889.64
490.735	9953.13
490.939	9967.46
491.143	9830.25
491.346	9736.04
491.55	10176.36
491.754	10059.62
491.958	10112.87
492.161	9955.18
492.365	10129.25
492.569	10223.46
492.772	10010.47
492.976	10243.94
493.18	10430.3
493.383	10506.08
493.587	10499.94
493.79	10551.14
493.994	10489.7
494.197	10843.99
494.401	10831.71
494.605	10655.58
494.808	10991.45
495.012	11140.95
495.215	10866.52
495.419	11089.75
495.622	11290.45
495.825	11274.07
496.029	11378.51
496.232	11517.78
496.436	11478.86
496.639	11925.32
496.843	11648.85
497.046	11970.38
497.249	12261.19
497.453	12173.13
497.656	12273.48
497.859	12283.72
498.063	12328.77
498.266	12889.92
498.469	12623.68
498.673	12754.75
498.876	12996.41
499.079	13102.9
499.282	13078.33
499.485	13471.54
499.689	13457.2
499.892	13821.74
500.095	13684.53
500.298	14090.02
500.501	13975.34
500.705	14339.88
500.908	14649.12
501.111	14616.35
501.314	14772
501.517	14874.4
501.72	14966.56
501.923	15140.63
502.126	15421.2
502.329	15589.14
502.532	15599.38
502.735	15556.37
502.938	16166.67
503.141	16205.58
503.344	16559.88
503.547	16494.34
503.75	16883.45
503.953	16926.46
504.156	16926.46
504.359	17245.94
504.562	17442.55
504.765	17649.39
504.968	17637.11
505.17	18314.98
505.373	18323.18
505.576	18507.49
505.779	18663.14
505.982	18740.96
506.185	19011.29
506.387	19097.31
506.59	19134.17
506.793	19836.63
506.996	19381.98
507.198	19992.27
507.401	20281.03
507.604	20528.84
507.807	20764.36
508.009	20764.36
508.212	20762.31
508.415	21487.29
508.617	21647.03
508.82	21530.3
509.022	21712.56
509.225	22410.92
509.428	22077.1
509.63	22740.65
509.833	22746.79
510.035	23461.53
510.238	22949.54
510.44	23563.93
510.643	23576.22
510.845	23936.66
511.048	23729.81
511.25	24252.05
511.453	24272.53
511.655	25202.3
511.858	24729.22
512.06	25081.47
512.262	25609.85
512.465	25527.93
512.667	25851.51
512.87	26203.76
513.072	26343.02
513.274	26736.23
513.477	27383.39
513.679	27235.94
513.881	27297.38
514.084	27874.9
514.286	27899.48
514.488	28196.43
514.69	28745.29
514.893	28884.55
515.095	28972.61
515.297	29247.04
515.499	29548.09
515.701	29777.47
515.904	30490.16
516.106	30234.16
516.308	30553.65
516.51	30840.36
516.712	30799.4
516.914	31180.32
517.116	31761.95
517.318	31983.13
517.52	32218.64
517.722	32603.66
517.925	32550.42
518.127	32724.49
518.329	33302.02
518.531	33191.43
518.733	34084.34
518.935	34199.03
519.136	34543.09
519.338	34878.96
519.54	34946.54
519.742	35423.72
519.944	35544.55
520.146	35808.73
520.348	36521.43
520.55	36611.54
520.752	36369.88
520.954	37119.43
521.155	37160.39
521.357	37465.54
521.559	37762.5
521.761	38237.62
521.963	38391.22
522.164	38421.94
522.366	38608.31
522.568	39171.5
522.77	39476.65
522.971	40035.74
523.173	39638.44
523.375	39589.28
523.576	40213.91
523.778	39910.81
523.98	40611.22
524.181	40566.17
524.383	41018.77
524.584	41538.95
524.786	41602.44
524.988	41473.42
525.189	42143.1
525.391	42401.14
525.592	42132.86
525.794	42184.06
525.995	42458.49
526.197	42769.78
526.398	42759.54
526.6	42847.6
526.801	42900.85
527.003	43861.35
527.204	43674.98
527.406	43806.05
527.607	43953.51
527.808	44082.53
528.01	44000.61
528.211	44082.53
528.412	44940.63
528.614	44627.29
528.815	44713.3
529.016	44817.75
529.218	44819.8
529.419	45002.07
529.62	44897.62
529.822	44940.63
530.023	45045.07
530.224	45569.35
530.425	45112.66
530.626	45190.48
530.828	45356.36
531.029	46517.56
531.23	45735.24
531.431	45897.03
531.632	45964.61
531.833	46372.16
532.035	46259.52
532.236	46257.47
532.437	46177.6
532.638	45880.64
532.839	46175.55
533.04	46220.61
533.241	45538.63
533.442	46564.67
533.643	46384.44
533.844	46210.37
534.045	46345.53
534.246	46167.36
534.447	46925.11
534.648	46306.62
534.849	46658.87
535.05	46306.62
535.251	46593.34
535.451	46112.06
535.652	46994.74
535.853	46716.22
536.054	46732.6
536.255	46593.34
536.456	46304.57
536.657	47125.81
536.857	46437.69
537.058	46392.64
537.259	46986.55
537.46	46912.82
537.66	46566.71
537.861	47000.88
538.062	46351.68
538.263	47037.75
538.463	46570.81
538.664	46634.3
538.865	47277.36
539.065	47070.51
539.266	46390.59
539.466	47088.95
539.667	46114.11
539.868	46771.51
540.068	46363.96
540.269	46564.67
540.469	47312.17
540.67	46351.68
540.87	46146.88
541.071	46359.87
541.271	46699.83
541.472	46716.22
541.672	46669.11
541.873	46665.02
542.073	46118.21
542.274	46658.87
542.474	46323.01
542.675	46251.33
542.875	46552.38
543.075	46241.09
543.276	46064.96
543.476	46804.28
543.676	46607.67
543.877	46441.79
544.077	46609.72
544.277	46095.68
544.478	46314.81
544.678	46812.47
544.878	45950.27
545.078	46495.03
545.279	45987.14
545.479	46087.49
545.679	46415.16
545.879	46302.53
546.079	46392.64
546.28	46335.29
546.48	45841.73
546.68	46153.02
546.88	46239.04
547.08	46144.83
547.28	46052.67
547.48	45716.81
547.68	46347.58
547.88	45651.27
548.081	46425.4
548.281	46046.53
548.481	45937.99
548.681	46521.66
548.881	46150.98
549.081	46259.52
549.28	45888.84
549.48	46042.43
549.68	45671.75
549.88	46437.69
550.08	45821.25
550.28	46077.25
550.48	45872.45
550.68	46007.62
550.88	45716.81
551.08	45585.74
551.279	46331.2
551.479	45774.15
551.679	45966.66
551.879	46058.82
552.079	46013.76
552.278	45737.29
552.478	46087.49
552.678	45956.42
552.878	45999.43
553.077	45741.38
553.277	45503.82
553.477	46210.37
553.676	45524.3
553.876	45641.03
554.076	45608.26
554.275	45641.03
554.475	44928.34
554.674	45489.48
554.874	45313.36
555.074	45342.03
555.273	45610.31
555.473	45628.74
555.672	45083.98
555.872	44905.81
556.071	45579.59
556.271	45352.27
556.47	45100.37
556.67	44850.52
556.869	44827.99
557.068	44995.92
557.268	44903.76
557.467	45202.77
557.667	44549.46
557.866	44948.82
558.065	44668.25
558.265	44520.79
558.464	44348.76
558.663	44897.62
558.863	44100.96
559.062	44873.04
559.261	44006.75
559.461	44418.39
559.66	43353.45
559.859	44272.99
560.058	44127.58
560.258	43912.55
560.457	43701.61
560.656	43943.27
560.855	43955.55
561.054	43910.5
561.253	43711.85
561.453	43701.61
561.652	44049.76
561.851	43799.91
562.05	43595.11
562.249	43521.38
562.448	43775.33
562.647	43038.06
562.846	43050.35
563.045	43259.24
563.244	43050.35
563.443	43705.7
563.642	42349.95
563.841	42900.85
564.04	42290.55
564.239	42960.24
564.438	42290.55
564.637	42247.55
564.836	42556.79
565.035	42104.19
565.234	42100.09
565.432	42169.72
565.631	41979.26
565.83	42096
566.029	41667.97
566.228	41487.75
566.427	41940.35
566.625	41481.61
566.824	40891.79
567.023	41571.72
567.222	40961.42
567.42	41350.54
567.619	41203.08
567.818	41272.71
568.016	40760.72
568.215	40988.05
568.414	40740.24
568.612	41055.63
568.811	40369.56
569.01	40449.43
569.208	39802.27
569.407	40490.39
569.605	39847.33
569.804	40383.9
570.002	39531.94
570.201	40404.38
570.4	39581.09
570.598	39290.28
570.797	39163.31
570.995	39679.39
571.193	39034.28
571.392	39447.97
571.59	39179.69
571.789	39187.88
571.987	38950.32
572.186	38731.18
572.384	38538.68
572.582	38835.63
572.781	39056.81
572.979	37991.87
573.177	38710.71
573.376	38780.34
573.574	38108.6
573.772	38413.75
573.971	38088.12
574.169	37852.61
574.367	37582.27
574.565	37862.85
574.763	37565.89
574.962	37475.78
575.16	37457.35
575.358	37316.04
575.556	36918.73
575.754	37426.63
575.952	36756.94
576.151	37529.03
576.349	36820.43
576.547	36664.78
576.745	36664.78
576.943	36795.85
577.141	36234.71
577.339	36363.73
577.537	36271.57
577.735	36359.64
577.933	35759.58
578.131	36218.33
578.329	36257.24
578.527	35923.42
578.725	35503.59
578.923	35245.54
579.121	35487.2
579.319	35325.41
579.516	35849.69
579.714	35042.79
579.912	35036.65
580.11	34995.69
580.308	35050.99
580.506	34594.29
580.704	34528.75
580.901	34641.39
581.099	34770.41
581.297	34739.69
581.495	34346.48
581.692	34594.29
581.89	33887.74
582.088	34350.58
582.285	33719.81
582.483	34371.06
582.681	33799.68
582.878	33494.53
583.076	33566.21
583.274	33775.1
583.471	33277.44
583.669	33418.75
583.866	33799.68
584.064	33574.4
584.262	32994.82
584.459	33267.2
584.657	32896.52
584.854	33306.12
585.052	32710.16
585.249	32949.77
585.447	32839.18
585.644	32431.63
585.841	32667.15
586.039	32724.49
586.236	31956.5
586.434	31899.16
586.631	31772.19
586.828	32200.21
587.026	31872.54
587.223	31729.18
587.42	31788.57
587.618	31884.83
587.815	31325.73
588.012	31286.82
588.21	31335.97
588.407	31579.68
588.604	31004.2
588.801	30866.99
588.999	31004.2
589.196	31045.16
589.393	30830.12
589.59	30887.46
589.787	30922.28
589.984	30389.81
590.182	30367.28
590.379	30780.97
590.576	30336.56
590.773	29898.3
590.97	29765.18
591.167	30182.96
591.364	29853.24
591.561	29949.49
591.758	29605.44
591.955	29656.64
592.152	29933.11
592.349	29578.81
592.546	29879.86
592.743	29697.59
592.94	29195.84
593.137	29208.13
593.334	29468.22
593.531	28894.79
593.727	29140.55
593.924	28999.24
594.121	28515.92
594.318	28552.78
594.515	28513.87
594.712	28927.56
594.908	28450.38
595.105	28720.71
595.302	28180.05
595.499	28513.87
595.696	28210.77
595.892	28059.22
596.089	28362.32
596.286	27930.2
596.482	27985.49
596.679	27713.11
596.876	28108.37
597.072	27512.41
597.269	27612.76
597.466	27598.43
597.662	27395.68
597.859	27258.46
598.055	27289.18
598.252	27143.78
598.448	27240.03
598.645	26758.76
598.841	26756.71
599.038	26605.16
599.234	26879.59
599.431	26508.91
599.627	26295.92
599.824	26725.99
600.02	26592.87
600.217	26207.86
600.413	26089.07
600.609	26338.93
600.806	26504.81
601.002	26109.55
601.198	25822.84
601.395	25464.44
601.591	25810.55
601.787	25878.13
601.984	25724.54
602.18	25638.52
602.376	25540.22
602.572	25828.98
602.769	25460.35
602.965	25374.33
603.161	25570.94
603.357	24985.22
603.553	25200.26
603.75	25159.3
603.946	24643.21
604.142	25265.79
604.338	24690.31
604.534	24678.02
604.73	24526.47
604.926	24370.83
605.122	24503.95
605.318	24358.54
605.514	24229.52
605.71	24237.71
605.906	24387.21
606.102	23969.43
606.298	24233.61
606.494	24012.43
606.69	23907.99
606.886	23684.76
607.082	23686.81
607.278	23897.75
607.474	23430.81
607.67	23807.64
607.866	23383.71
608.062	23506.59
608.257	23817.88
608.453	23584.41
608.649	23504.54
608.845	23211.68
609.041	23457.43
609.236	23103.14
609.432	23242.4
609.628	23256.73
609.824	22875.81
610.019	22853.28
610.215	22994.59
610.411	23254.69
610.606	22730.41
610.802	22976.16
610.998	22775.46
611.193	22777.51
611.389	22566.57
611.584	22453.93
611.78	22341.29
611.976	22359.72
612.171	22433.45
612.367	22390.44
612.562	22425.26
612.758	22009.52
612.953	22269.61
613.149	22478.51
613.344	22005.42
613.539	22380.2
613.735	21931.7
613.93	22204.08
614.126	22005.42
614.321	21986.99
614.517	22038.19
614.712	21821.11
614.907	21847.73
615.103	21900.98
615.298	21716.66
615.493	21751.48
615.688	21442.23
615.884	21882.55
616.079	21345.98
616.274	21436.09
616.47	21583.54
616.665	21472.95
616.86	21313.21
617.055	21571.25
617.25	21618.36
617.445	21311.16
617.641	21157.57
617.836	21092.03
618.031	20967.1
618.226	21188.28
618.421	20838.08
618.616	21098.17
618.811	20688.58
619.006	21128.89
619.201	20309.71
619.396	20608.71
619.591	20365
619.786	20346.57
619.981	20227.79
620.176	20299.47
620.371	20096.72
620.566	20553.41
620.761	19885.78
620.956	20006.61
621.151	19709.65
621.346	19832.53
621.541	19484.37
621.735	19857.1
621.93	19252.95
622.125	19293.91
622.32	19046.11
622.515	19265.24
622.709	19009.25
622.904	18953.95
623.099	18996.96
623.294	19267.29
623.488	18579.17
623.683	18837.22
623.878	18341.61
624.072	18568.93
624.267	18560.74
624.462	18194.15
624.656	18048.75
624.851	18261.74
625.046	18036.46
625.24	17880.82
625.435	17630.96
625.629	17766.13
625.824	17397.49
626.018	17518.32
626.213	17164.03
626.407	17268.47
626.602	17143.55
626.796	17143.55
626.991	17014.52
627.185	16817.92
627.38	16797.44
627.574	16600.83
627.768	16504.58
627.963	16563.97
628.157	16406.28
628.352	16535.3
628.546	16205.58
628.74	16416.52
628.935	16076.55
629.129	16189.19
629.323	15699.73
629.517	15720.21
629.712	15798.03
629.906	15722.26
630.1	15482.64
630.294	15400.72
630.489	15660.82
630.683	15644.43
630.877	15095.58
631.071	15413.01
631.265	15380.25
631.459	15232.79
631.653	14923.55
631.848	15032.09
632.042	14804.77
632.236	14853.92
632.43	14792.48
632.624	14575.39
632.818	14628.64
633.012	14569.25
633.206	14266.15
633.4	14470.95
633.594	14274.34
633.788	14454.56
633.982	14378.79
634.176	14147.37
634.369	13956.91
634.563	14106.41
634.757	13778.73
634.951	13877.04
635.145	13637.42
635.339	13651.76
635.533	13586.22
635.726	13575.98
635.92	13172.53
636.114	13426.48
636.308	13406
636.501	13272.89
636.695	13446.96
636.889	13020.99
637.083	12887.87
637.276	12939.07
637.47	12910.4
637.664	12975.93
637.857	12947.26
638.051	12885.82
638.244	12504.9
638.438	12519.23
638.632	12390.21
638.825	12379.97
639.019	12263.24
639.212	12416.83
639.406	12152.65
639.599	11853.64
639.793	12031.82
639.986	11947.85
640.18	11960.14
640.373	11874.12
640.567	11974.47
640.76	11818.83
640.954	11626.32
641.147	11515.73
641.34	11597.65
641.534	11458.39
641.727	11435.86
641.92	11456.34
642.114	11396.95
642.307	11206.49
642.5	11140.95
642.694	11157.33
642.887	11040.6
643.08	11306.84
643.273	10999.64
643.467	10942.3
643.66	10661.73
643.853	10809.18
644.046	10563.42
644.239	10565.47
644.432	10770.27
644.626	10340.19
644.819	10520.42
645.012	10448.74
645.205	10415.97
645.398	10530.66
645.591	10245.99
645.784	10078.05
645.977	10159.97
646.17	10303.33
646.363	10176.36
646.556	9828.2
646.749	9924.46
646.942	9932.65
647.135	9838.44
647.328	9770.86
647.521	9768.81
647.714	9721.71
647.907	9772.91
648.099	9533.29
648.292	9604.97
648.485	9537.39
648.678	9314.16
648.871	9373.55
649.064	9209.72
649.256	9496.43
649.449	9146.23
649.642	9252.72
649.835	9258.87
650.027	9275.25
650.22	8976.25
650.413	8961.91
650.605	9125.75
650.798	8826.75
650.991	8966.01
651.183	8716.16
651.376	8658.81
651.568	8798.07
651.761	8638.33
651.954	8671.1
652.146	8714.11
652.339	8621.95
652.531	8544.13
652.724	8353.66
652.916	8402.82
653.109	8380.29
653.301	8300.42
653.494	8269.7
653.686	8220.55
653.879	8169.35
654.071	8019.85
654.263	8093.57
654.456	8140.68
654.648	8103.81
654.84	7841.67
655.033	7968.65
655.225	8025.99
655.417	7872.39
655.61	7909.26
655.802	7833.48
655.994	7651.21
656.186	7706.51
656.379	7755.66
656.571	7669.64
656.763	7487.37
656.955	7395.22
657.148	7585.68
657.34	7421.84
657.532	7462.8
657.724	7454.61
657.916	7278.48
658.108	7247.76
658.3	7296.91
658.492	7366.54
658.684	7178.13
658.876	7106.45
659.068	7063.44
659.26	6928.28
659.452	7237.52
659.644	7182.23
659.836	7063.44
660.028	6907.8
660.22	6721.43
660.412	6864.79
660.604	6877.08
660.796	6893.46
660.988	6743.96
661.18	6780.82
661.372	6528.92
661.563	6821.78
661.755	6731.67
661.947	6608.8
662.139	6678.43
662.331	6414.24
662.522	6600.6
662.714	6606.75
662.906	6358.94
663.097	6297.5
663.289	6383.52
663.481	6289.31
663.673	6371.23
663.864	6197.15
664.056	6195.11
664.247	6297.5
664.439	6309.79
664.631	6283.17
664.822	6033.32
665.014	6258.59
665.205	6066.08
665.397	6215.59
665.588	6035.36
665.78	5916.58
665.971	5818.28
666.163	6117.28
666.354	5961.64
666.546	5838.76
666.737	5711.78
666.929	5812.14
667.12	5937.06
667.311	5765.03
667.503	5672.87
667.694	5744.55
667.885	5615.53
668.077	5715.88
668.268	5615.53
668.459	5650.35
668.651	5466.03
668.842	5640.11
669.033	5410.73
669.224	5461.93
669.416	5607.34
669.607	5380.01
669.798	5449.64
669.989	5433.26
670.18	5468.08
670.371	5384.11
670.563	5328.81
670.754	5363.63
670.945	5253.04
671.136	5316.53
671.327	5365.68
671.518	5250.99
671.709	5275.57
671.9	5169.07
672.091	5164.98
672.282	5062.58
672.473	5121.97
672.664	5271.47
672.855	5115.83
673.046	4964.28
673.237	5089.2
673.428	5154.74
673.619	5040.05
673.809	4859.83
674	4786.1
674.191	5001.14
674.382	4843.45
674.573	4822.97
674.764	4777.91
674.954	4835.25
675.145	4655.03
675.336	4724.66
675.527	4882.36
675.717	4831.16
675.908	4757.43
676.099	4798.39
676.289	4765.62
676.48	4667.32
676.671	4708.28
676.861	4743.1
677.052	4630.46
677.243	4661.18
677.433	4507.58
677.624	4599.74
677.814	4630.46
678.005	4648.89
678.195	4519.87
678.386	4591.55
678.576	4575.16
678.767	4640.7
678.957	4532.15
679.148	4761.53
679.338	4657.08
679.529	4560.83
679.719	4564.92
679.909	4675.51
680.1	4462.52
680.29	4550.59
680.481	4419.52
680.671	4577.21
680.861	4349.89
681.052	4329.41
681.242	4372.41
681.432	4442.04
681.622	4284.35
681.813	4300.73
682.003	4370.37
682.193	4274.11
682.383	4341.69
682.573	4370.37
682.764	4237.25
682.954	4317.12
683.144	4483
683.334	4259.77
683.524	4292.54
683.714	4251.58
683.904	4456.38
684.094	4204.48
684.284	4319.17
684.474	4296.64
684.664	4177.86
684.854	4284.35
685.044	4300.73
685.234	4280.25
685.424	4005.83
685.614	4126.66
685.804	4136.9
685.994	4163.52
686.184	4120.51
686.374	4263.87
686.564	4067.27
686.753	4270.01
686.943	4020.16
687.133	4005.83
687.323	4161.47
687.513	4063.17
687.702	3948.48
687.892	3966.92
688.082	4003.78
688.272	3911.62
688.461	3964.87
688.651	4018.11
688.841	3936.2
689.03	3805.13
689.22	3833.8
689.41	3815.37
689.599	3817.41
689.789	3887.04
689.979	3809.22
690.168	3753.93
690.358	3717.06
690.547	3778.5
690.737	3778.5
690.926	3626.95
691.116	3661.77
691.305	3514.31
691.495	3645.38
691.684	3594.19
691.874	3692.49
692.063	3608.52
692.252	3647.43
692.442	3577.8
692.631	3637.19
692.82	3678.15
693.01	3520.46
693.199	3510.22
693.388	3563.47
693.578	3518.41
693.767	3631.05
693.956	3588.04
694.146	3450.83
694.335	3489.74
694.524	3571.66
694.713	3454.92
694.902	3475.4
695.092	3475.4
695.281	3473.35
695.47	3504.07
695.659	3426.25
695.848	3381.2
696.037	3411.92
696.226	3354.57
696.415	3309.52
696.604	3377.1
696.793	3346.38
696.982	3391.44
697.171	3284.94
697.36	3362.76
697.549	3233.74
697.738	3379.15
697.927	3262.41
698.116	3164.11
698.305	3346.38
698.494	3332.05
698.683	3289.04
698.872	3330
699.061	3215.31
699.25	3413.96
699.438	3264.46
699.627	3219.41
699.816	3293.13
700.005	3162.06
700.193	3260.37
700.382	3254.22
700.571	3211.21
700.76	3248.08
700.948	3295.18
701.137	3241.93
701.326	3342.28
701.514	3286.99
701.703	3151.82
701.892	3102.67
702.08	3254.22
702.269	3229.65
702.457	3211.21
702.646	3231.69
702.834	3184.59
703.023	3166.16
703.212	3315.66
703.4	3231.69
703.589	3104.72
703.777	3248.08
703.965	3301.33
704.154	3215.31
704.342	3196.88
704.531	3190.74
704.719	3127.25
704.907	3256.27
705.096	3250.13
705.284	3225.55
705.472	3170.26
705.661	3235.79
705.849	3262.41
706.037	3219.41
706.226	3155.92
706.414	3278.8
706.602	3133.39
706.79	3334.09
706.979	3071.95
707.167	3229.65
707.355	3155.92
707.543	3219.41
707.731	3051.47
707.919	3160.02
708.107	3143.63
708.296	3112.91
708.484	3104.72
708.672	3129.3
708.86	3057.62
709.048	3104.72
709.236	3215.31
709.424	3076.05
709.612	3098.58
709.8	3112.91
709.988	3057.62
710.176	3186.64
710.364	2975.7
710.551	3043.28
710.739	3047.38
710.927	3129.3
711.115	3057.62
711.303	3076.05
711.491	3024.85
711.679	3035.09
711.866	3127.25
712.054	3174.35
712.242	3039.19
712.43	3024.85
712.617	2897.88
712.805	3043.28
712.993	3033.04
713.181	3035.09
713.368	3026.9
713.556	3026.9
713.744	2969.55
713.931	3004.37
714.119	2998.23
714.306	2975.7
714.494	3016.66
714.682	3088.34
714.869	3008.47
715.057	3012.56
715.244	3006.42
715.432	3092.43
715.619	2983.89
715.807	2981.84
715.994	3028.95
716.182	3047.38
716.369	2996.18
716.556	3014.61
716.744	2985.94
716.931	2928.6
717.119	3096.53
717.306	3125.2
717.493	2899.92
717.681	2877.4
717.868	3065.81
718.055	2904.02
718.242	2944.98
718.43	2965.46
718.617	2957.27
718.804	2944.98
718.991	2928.6
719.179	2908.12
719.366	2877.4
719.553	3131.34
719.74	2910.16
719.927	2861.01
720.114	2842.58
720.301	2926.55
720.488	2893.78
720.676	2922.45
720.863	3067.86
721.05	2990.03
721.237	2947.03
721.424	2942.93
721.611	2879.44
721.798	2967.51
721.985	2953.17
722.172	2844.63
722.358	2877.4
722.545	2965.46
722.732	2879.44
722.919	2942.93
723.106	2944.98
723.293	2916.31
723.48	2926.55
723.667	2899.92
723.853	2803.67
724.04	2815.96
724.227	2861.01
724.414	2875.35
724.6	2963.41
724.787	2768.85
724.974	2914.26
725.161	2775
725.347	2881.49
725.534	2942.93
725.72	2820.05
725.907	2897.88
726.094	2795.48
726.28	2879.44
726.467	2826.2
726.653	2828.24
726.84	2830.29
727.027	2863.06
727.213	2836.44
727.4	2883.54
727.586	2899.92
727.773	2918.36
727.959	2947.03
728.145	2777.05
728.332	2795.48
728.518	2887.64
728.705	2908.12
728.891	2918.36
729.077	2691.03
729.264	2754.52
729.45	2879.44
729.636	2811.86
729.823	2867.16
730.009	2949.07
730.195	2801.62
730.382	2818
730.568	2760.66
730.754	2793.43
730.94	2656.22
731.126	2793.43
731.313	2875.35
731.499	2772.95
731.685	2891.73
731.871	2779.09
732.057	2703.32
732.243	2750.42
732.429	2764.76
732.615	2815.96
732.801	2822.1
732.987	2785.24
733.173	2772.95
733.359	2740.18
733.545	2617.3
733.731	2760.66
733.917	2770.9
734.103	2727.89
734.289	2818
734.475	2738.13
734.661	2887.64
734.847	2701.27
735.033	2758.61
735.219	2674.65
735.404	2697.17
735.59	2672.6
735.776	2770.9
735.962	2801.62
736.148	2768.85
736.333	2654.17
736.519	2707.41
736.705	2723.8
736.89	2623.45
737.076	2676.7
737.262	2576.34
737.447	2727.89
737.633	2656.22
737.819	2631.64
738.004	2553.82
738.19	2570.2
738.375	2680.79
738.561	2637.78
738.747	2625.5
738.932	2570.2
739.118	2607.06
739.303	2473.95
739.489	2621.4
739.674	2559.96
739.859	2670.55
740.045	2553.82
740.23	2494.43
740.416	2506.71
740.601	2445.27
740.786	2484.19
740.972	2557.91
741.157	2625.5
741.342	2451.42
741.528	2564.06
741.713	2525.15
741.898	2527.19
742.084	2437.08
742.269	2502.62
742.454	2445.27
742.639	2533.34
742.824	2398.17
743.01	2473.95
743.195	2385.88
743.38	2381.79
743.565	2437.08
743.75	2496.47
743.935	2310.11
744.12	2420.7
744.305	2383.84
744.49	2340.83
744.675	2410.46
744.86	2330.59
745.045	2340.83
745.23	2310.11
745.415	2287.58
745.6	2365.4
745.785	2289.63
745.97	2346.97
746.155	2281.44
746.34	2400.22
746.525	2242.53
746.71	2238.43
746.895	2113.5
747.079	2189.28
747.264	2166.75
747.449	2170.85
747.634	2250.72
747.819	2138.08
748.003	2152.42
748.188	2109.41
748.373	2080.74
748.557	2119.65
748.742	2129.89
748.927	2170.85
749.111	2117.6
749.296	2039.78
749.481	2004.96
749.665	2123.74
749.85	1935.33
750.034	1982.43
750.219	1976.29
750.404	1966.05
750.588	1972.19
750.773	2060.26
750.957	1851.36
751.141	1894.37
751.326	1957.86
751.51	1834.98
751.695	1894.37
751.879	1884.13
752.064	1794.02
752.248	1837.03
752.432	1970.15
752.617	1886.18
752.801	1794.02
752.985	1855.46
753.17	1798.12
753.354	1888.23
753.538	1775.59
753.722	1708.01
753.907	1689.57
754.091	1646.57
754.275	1677.29
754.459	1703.91
754.643	1753.06
754.828	1746.92
755.012	1654.76
755.196	1683.43
755.38	1603.56
755.564	1632.23
755.748	1691.62
755.932	1599.46
756.116	1624.04
756.3	1669.09
756.484	1552.36
756.668	1607.66
756.852	1589.22
757.036	1517.54
757.22	1615.85
757.404	1513.45
757.588	1552.36
757.772	1495.02
757.956	1517.54
758.14	1507.3
758.323	1464.3
758.507	1566.7
758.691	1499.11
758.875	1396.71
759.059	1449.96
759.242	1355.76
759.426	1404.91
759.61	1523.69
759.794	1423.34
759.977	1439.72
760.161	1447.91
760.345	1349.61
760.528	1271.79
760.712	1411.05
760.895	1363.95
761.079	1398.76
761.263	1380.33
761.446	1306.6
761.63	1423.34
761.813	1386.47
761.997	1282.03
762.18	1261.55
762.364	1224.69
762.547	1226.73
762.731	1232.88
762.914	1294.32
763.098	1286.12
763.281	1210.35
763.464	1232.88
763.648	1312.75
763.831	1198.06
764.015	1126.38
764.198	1234.93
764.381	1251.31
764.564	1234.93
764.748	1122.29
764.931	1232.88
765.114	1198.06
765.297	1187.82
765.481	1206.25
765.664	1318.89
765.847	1159.15
766.03	1159.15
766.213	1130.48
766.397	1247.21
766.58	1052.66
766.763	1122.29
766.946	1191.92
767.129	1196.01
767.312	1193.97
767.495	1196.01
767.678	1099.76
767.861	1134.57
768.044	1153.01
768.227	1110
768.41	1077.23
768.593	1114.09
768.776	974.83
768.959	1083.38
769.142	1083.38
769.324	1079.28
769.507	985.07
769.69	1071.09
769.873	1120.24
770.056	1042.42
770.239	1054.7
770.421	1056.75
770.604	1081.33
770.787	1073.14
770.97	970.74
771.152	1044.46
771.335	991.22
771.518	937.97
771.7	1026.03
771.883	999.41
772.066	1066.99
772.248	905.2
772.431	1026.03
772.613	956.4
772.796	907.25
772.978	968.69
773.161	983.02
773.343	1036.27
773.526	921.59
773.708	870.39
773.891	862.19
774.073	882.67
774.256	989.17
774.438	1009.65
774.621	933.87
774.803	935.92
774.985	929.78
775.168	1013.74
775.35	919.54
775.532	823.28
775.715	856.05
775.897	897.01
776.079	823.28
776.261	831.48
776.444	862.19
776.626	817.14
776.808	749.56
776.99	796.66
777.173	804.85
777.355	843.76
777.537	913.39
777.719	831.48
777.901	780.28
778.083	780.28
778.265	755.7
778.447	704.5
778.629	765.94
778.811	770.04
778.993	831.48
779.175	806.9
779.357	763.89
779.539	671.73
779.721	630.77
779.903	767.99
780.085	673.78
780.267	741.36
780.449	708.6
780.631	770.04
780.812	733.17
780.994	780.28
781.176	632.82
781.358	706.55
781.54	677.88
781.721	606.2
781.903	710.65
782.085	675.83
782.267	638.97
782.448	649.21
782.63	661.49
782.812	657.4
782.993	659.45
783.175	643.06
783.357	555
783.538	593.91
783.72	718.84
783.901	552.95
784.083	563.19
784.264	665.59
784.446	587.77
784.627	538.62
784.809	638.97
784.99	589.81
785.172	536.57
785.353	518.14
785.535	511.99
785.716	569.34
785.897	532.47
786.079	595.96
786.26	550.9
786.441	544.76
786.623	518.14
786.804	509.94
786.985	511.99
787.167	622.58
787.348	520.18
787.529	522.23
787.71	544.76
787.891	436.22
788.073	450.55
788.254	466.94
788.435	509.94
788.616	593.91
788.797	456.7
788.978	464.89
789.159	395.26
789.34	559.1
789.522	497.66
789.703	409.59
789.884	395.26
790.065	458.74
790.246	485.37
790.427	430.07
790.607	430.07
790.788	415.74
790.969	436.22
791.15	452.6
791.331	442.36
791.512	493.56
791.693	428.03
791.874	417.79
792.054	434.17
792.235	401.4
792.416	407.55
792.597	421.88
792.778	411.64
792.958	444.41
793.139	368.63
793.32	475.13
793.5	368.63
793.681	511.99
793.862	436.22
794.042	395.26
794.223	419.83
794.404	348.15
794.584	305.15
794.765	354.3
794.945	405.5
795.126	344.06
795.306	362.49
795.487	319.48
795.667	315.39
795.848	309.24
796.028	290.81
796.209	393.21
796.389	313.34
796.57	329.72
796.75	344.06
796.93	313.34
797.111	360.44
797.291	348.15
797.471	290.81
797.652	376.83
797.832	360.44
798.012	389.11
798.192	337.91
798.373	307.2
798.553	245.76
798.733	385.02
798.913	294.91
799.093	241.66
799.274	303.1
799.454	339.96
799.634	374.78
799.814	253.95
799.994	395.26
800.174	204.8
800.354	290.81
800.534	243.71
800.714	274.43
800.894	301.05
801.074	288.76
801.254	327.67
801.434	311.29
801.614	321.53
801.794	278.52
801.974	643.06
802.154	266.24
802.334	264.19
802.514	237.56
802.693	280.57
802.873	188.41
803.053	280.57
803.233	258.04
803.413	290.81
803.592	350.2
803.772	241.66
803.952	239.61
804.131	311.29
804.311	245.76
804.491	251.9
804.67	296.96
804.85	280.57
805.03	348.15
805.209	206.84
805.389	188.41
805.568	274.43
805.748	217.08
805.928	286.72
806.107	274.43
806.287	145.41
806.466	290.81
806.646	200.7
806.825	198.65
807.004	264.19
807.184	333.82
807.363	260.09
807.543	176.13
807.722	163.84
807.901	229.37
808.081	253.95
808.26	217.08
808.439	124.93
808.619	198.65
808.798	167.93
808.977	165.89
809.156	176.13
809.336	241.66
809.515	235.52
809.694	200.7
809.873	139.26
810.052	206.84
810.231	303.1
810.411	198.65
810.59	217.08
810.769	192.51
810.948	145.41
811.127	200.7
811.306	163.84
811.485	157.69
811.664	221.18
811.843	178.17
812.022	165.89
812.201	174.08
812.38	180.22
812.559	137.21
812.737	237.56
812.916	98.3
813.095	114.69
813.274	167.93
813.453	169.98
813.632	186.37
813.811	172.03
813.989	194.56
814.168	194.56
814.347	139.26
814.526	188.41
814.704	231.42
814.883	174.08
815.062	131.07
815.24	237.56
815.419	172.03
815.598	182.27
815.776	196.6
815.955	233.47
816.133	129.02
816.312	163.84
816.49	184.32
816.669	98.3
816.847	108.54
817.026	186.37
817.204	264.19
817.383	118.78
817.561	155.65
817.74	149.5
817.918	116.73
818.097	167.93
818.275	69.63
818.453	151.55
818.632	221.18
818.81	202.75
818.988	94.21
819.167	147.45
819.345	159.74
819.523	106.49
819.701	198.65
819.879	204.8
820.058	163.84
820.236	165.89
820.414	151.55
820.592	106.49
820.77	169.98
820.948	36.86
821.127	165.89
821.305	192.51
821.483	196.6
821.661	151.55
821.839	190.46
822.017	159.74
822.195	221.18
822.373	83.97
822.551	190.46
822.729	108.54
822.907	194.56
823.085	92.16
823.262	149.5
823.44	147.45
823.618	120.83
823.796	102.4
823.974	75.77
824.152	108.54
824.329	94.21
824.507	155.65
824.685	147.45
824.863	102.4
825.04	108.54
825.218	169.98
825.396	69.63
825.574	149.5
825.751	94.21
825.929	129.02
826.107	100.35
826.284	120.83
826.462	149.5
826.639	69.63
826.817	90.11
826.994	165.89
827.172	122.88
827.349	143.36
827.527	88.06
827.704	108.54
827.882	167.93
828.059	172.03
828.237	59.39
828.414	157.69
828.591	96.25
828.769	122.88
828.946	126.97
829.124	129.02
829.301	77.82
829.478	98.3
829.655	151.55
829.833	133.12
830.01	104.45
830.187	151.55
830.364	102.4
830.542	184.32
830.719	135.17
830.896	139.26
831.073	92.16
831.25	122.88
831.427	90.11
831.604	49.15
831.782	75.77
831.959	108.54
832.136	86.01
832.313	182.27
832.49	65.53
832.667	98.3
832.844	118.78
833.021	79.87
833.198	106.49
833.374	22.53
833.551	118.78
833.728	169.98
833.905	114.69
834.082	69.63
834.259	90.11
834.436	106.49
834.612	94.21
834.789	143.36
834.966	104.45
835.143	135.17
835.319	116.73
835.496	122.88
835.673	81.92
835.85	108.54
836.026	122.88
836.203	102.4
836.38	59.39
836.556	88.06
836.733	61.44
836.909	40.96
837.086	59.39
837.262	69.63
837.439	36.86
837.616	118.78
837.792	67.58
837.968	63.49
838.145	81.92
838.321	92.16
838.498	28.67
838.674	77.82
838.851	114.69
839.027	67.58
839.203	12.29
839.38	43.01
839.556	69.63
839.732	57.34
839.909	63.49
840.085	167.93
840.261	40.96
840.437	94.21
840.614	75.77
840.79	124.93
840.966	86.01
841.142	63.49
841.318	16.38
841.494	126.97
841.671	40.96
841.847	18.43
842.023	-43.01
842.199	77.82
842.375	169.98
842.551	81.92
842.727	81.92
842.903	92.16
843.079	83.97
843.255	88.06
843.431	133.12
843.607	77.82
843.783	4.1
843.959	-0
844.134	53.25
844.31	73.73
844.486	43.01
844.662	88.06
844.838	165.89
845.013	96.25
845.189	98.3
845.365	53.25
845.541	53.25
845.716	16.38
845.892	-4.1
846.068	10.24
846.244	14.34
846.419	73.73
846.595	65.53
846.77	-18.43
846.946	55.3
847.122	81.92
847.297	38.91
847.473	120.83
847.648	2.05
847.824	98.3
847.999	36.86
848.175	81.92
848.35	40.96
848.526	141.31
848.701	81.92
848.876	100.35
849.052	122.88
849.227	22.53
849.403	53.25
849.578	30.72
849.753	12.29
849.929	83.97
850.104	-2.05
850.279	6.14
850.454	26.62
850.63	20.48
850.805	30.72
850.98	69.63
851.155	73.73
851.33	57.34
851.505	10.24
851.681	59.39
851.856	102.4
852.031	22.53
852.206	49.15
852.381	24.58
852.556	77.82
852.731	-2.05
852.906	43.01
853.081	10.24
853.256	79.87
853.431	40.96
853.606	2.05
853.781	6.14
853.956	20.48
854.131	10.24
854.305	6.14
854.48	-20.48
854.655	45.06
854.83	36.86
855.005	-36.86
855.18	34.82
855.354	-12.29
855.529	88.06
855.704	-22.53
855.879	90.11
856.053	10.24
856.228	24.58
856.403	-8.19
856.577	53.25
856.752	30.72
856.926	88.06
857.101	12.29
857.276	20.48
857.45	77.82
857.625	-8.19
857.799	10.24
857.974	-49.15
858.148	-34.82
858.323	124.93
858.497	61.44
858.672	59.39
858.846	-22.53
859.02	96.25
859.195	38.91
859.369	16.38
859.543	12.29
859.718	53.25
859.892	34.82
860.066	81.92
860.241	43.01
860.415	-32.77
860.589	-26.62
860.763	20.48
860.938	-14.34
861.112	38.91
861.286	-2.05
861.46	53.25
861.634	75.77
861.808	24.58
861.982	-28.67
862.157	-0
862.331	71.68
862.505	86.01
862.679	53.25
862.853	24.58
863.027	61.44
863.201	49.15
863.375	49.15
863.549	77.82
863.722	51.2
863.896	32.77
864.07	71.68
864.244	16.38
864.418	43.01
864.592	-28.67
864.766	88.06
864.939	47.1
865.113	-18.43
865.287	57.34
865.461	4.1
865.634	-14.34
865.808	-2.05
865.982	69.63
866.156	53.25
866.329	-53.25
866.503	-22.53
866.676	12.29
866.85	4.1
867.024	51.2
867.197	12.29
867.371	53.25
867.544	-6.14
867.718	-24.58
867.891	-18.43
868.065	14.34
868.238	26.62
868.412	26.62
868.585	14.34
868.759	-34.82
868.932	-24.58
869.105	38.91
869.279	28.67
869.452	32.77
869.625	-14.34
869.799	55.3
869.972	-16.38
870.145	38.91
870.319	43.01
870.492	-34.82
870.665	8.19
870.838	59.39
871.011	-45.06
871.185	16.38
871.358	-43.01
871.531	59.39
871.704	-30.72
871.877	-34.82
872.05	-12.29
872.223	-26.62
872.396	43.01
872.569	-20.48
872.742	18.43
872.915	-0
873.088	-81.92
873.261	-6.14
873.434	12.29
873.607	-8.19
873.78	28.67
873.953	-20.48
874.126	36.86
874.299	36.86
874.471	20.48
874.644	-22.53
874.817	26.62
874.99	30.72
875.163	-57.34
875.335	-4.1
875.508	43.01
875.681	40.96
875.853	30.72
876.026	-14.34
876.199	-0
876.371	59.39
876.544	36.86
876.717	12.29
876.889	4.1
877.062	40.96
877.234	-57.34
877.407	-18.43
877.579	-53.25
877.752	16.38
877.924	8.19
878.097	73.73
878.269	40.96
878.442	34.82
878.614	92.16
878.786	32.77
878.959	-28.67
879.131	-8.19
879.303	-16.38
879.476	65.53
879.648	-0
879.82	30.72
879.993	38.91
880.165	49.15
880.337	-0
880.509	8.19
880.681	-73.73
880.854	49.15
881.026	-30.72
881.198	100.35
881.37	75.77
881.542	12.29
881.714	24.58
881.886	26.62
882.058	38.91
882.23	-18.43
882.402	8.19
882.574	32.77
882.746	-55.3
882.918	59.39
883.09	-0
883.262	-16.38
883.434	10.24
883.606	-8.19
883.778	10.24
883.95	-16.38
884.122	-6.14
884.293	49.15
884.465	4.1
884.637	36.86
884.809	-18.43
884.98	36.86
885.152	-2.05
885.324	24.58
885.496	12.29
885.667	-49.15
885.839	-8.19
886.011	4.1
886.182	18.43
886.354	-24.58
886.525	-6.14
886.697	-43.01
886.869	-10.24
887.04	28.67
887.212	-12.29
887.383	79.87
887.555	-12.29
887.726	-30.72
887.897	-16.38
888.069	-0
888.24	30.72
888.412	-53.25
888.583	-18.43
888.754	16.38
888.926	34.82
889.097	14.34
889.268	-45.06
889.44	16.38
889.611	-12.29
889.782	43.01
889.953	-22.53
890.125	-18.43
890.296	-12.29
890.467	45.06
890.638	-16.38
890.809	-6.14
890.98	-45.06
891.151	-6.14
891.323	-55.3
891.494	-22.53
891.665	-2.05
891.836	-0
892.007	6.14
892.178	-4.1
892.349	22.53
892.52	-20.48
892.691	45.06
892.862	-34.82
893.032	-61.44
893.203	-22.53
893.374	-2.05
893.545	18.43
893.716	-4.1
893.887	-14.34
894.057	49.15
894.228	18.43
894.399	-22.53
894.57	24.58
894.74	-45.06
894.911	-6.14
895.082	26.62
895.253	-24.58
895.423	-4.1
895.594	28.67
895.764	-32.77
895.935	-24.58
896.106	-45.06
896.276	18.43
896.447	83.97
896.617	12.29
896.788	-14.34
896.958	-4.1
897.129	-8.19
897.299	8.19
897.47	26.62
897.64	83.97
897.81	-20.48
897.981	-12.29
898.151	-4.1
898.322	40.96
898.492	61.44
898.662	30.72
898.832	-59.39
899.003	47.1
899.173	-57.34
899.343	38.91
899.513	14.34
