Data from USB4F104151__114__11-07-19-817.txt Node

Date: Wed Mar 12 11:07:19 EDT 2025
User: louis
Spectrometer: USB4F10415
Trigger mode: 4
Integration Time (sec): 2.000000E-2
Scans to average: 1
Electric dark correction enabled: true
Nonlinearity correction enabled: false
Boxcar width: 0
XAxis mode: Wavelengths
Number of Pixels in Spectrum: 3648
>>>>>Begin Spectral Data<<<<<
178.204	-51.54
178.424	-51.54
178.644	-51.54
178.864	-92.5
179.084	-133.46
179.304	-18.77
179.524	-2.39
179.744	-61.78
179.964	5.8
180.184	-69.97
180.404	-20.82
180.624	18.09
180.844	59.05
181.064	-4.44
181.283	-4.44
181.503	-24.92
181.723	124.58
181.943	26.28
182.163	11.95
182.383	38.57
182.602	48.81
182.822	-4.44
183.042	5.8
183.262	-4.44
183.482	28.33
183.701	44.71
183.921	67.24
184.141	-43.35
184.361	-57.68
184.58	-4.44
184.8	57
185.02	-26.96
185.239	50.86
185.459	11.95
185.679	7.85
185.898	44.71
186.118	65.19
186.338	34.47
186.557	42.67
186.777	3.75
186.997	-22.87
187.216	-49.49
187.436	67.24
187.655	44.71
187.875	-37.2
188.095	7.85
188.314	20.14
188.534	-29.01
188.753	22.19
188.973	75.43
189.192	79.53
189.412	50.86
189.631	50.86
189.851	-0.34
190.07	-29.01
190.29	-67.92
190.509	57
190.729	22.19
190.948	79.53
191.168	100.01
191.387	48.81
191.607	93.87
191.826	61.1
192.045	16.04
192.265	-43.35
192.484	61.1
192.704	40.62
192.923	3.75
193.142	-20.82
193.362	22.19
193.581	24.23
193.8	102.06
194.02	59.05
194.239	7.85
194.458	-12.63
194.678	16.04
194.897	-51.54
195.116	-14.68
195.335	40.62
195.555	7.85
195.774	20.14
195.993	-74.07
196.212	44.71
196.432	-20.82
196.651	-6.49
196.87	13.99
197.089	108.2
197.308	81.58
197.528	32.43
197.747	-8.53
197.966	61.1
198.185	7.85
198.404	75.43
198.623	61.1
198.842	24.23
199.062	28.33
199.281	65.19
199.5	-24.92
199.719	32.43
199.938	28.33
200.157	79.53
200.376	54.95
200.595	104.11
200.814	24.23
201.033	28.33
201.252	83.63
201.471	18.09
201.69	57
201.909	5.8
202.128	34.47
202.347	87.72
202.566	44.71
202.785	24.23
203.004	-2.39
203.223	46.76
203.442	34.47
203.661	30.38
203.879	91.82
204.098	3.75
204.317	5.8
204.536	13.99
204.755	20.14
204.974	32.43
205.193	50.86
205.411	91.82
205.63	20.14
205.849	-47.44
206.068	7.85
206.287	-35.16
206.505	7.85
206.724	1.71
206.943	5.8
207.162	85.67
207.381	-10.58
207.599	50.86
207.818	28.33
208.037	1.71
208.255	-51.54
208.474	-18.77
208.693	102.06
208.911	11.95
209.13	-4.44
209.349	52.91
209.567	38.57
209.786	87.72
210.005	24.23
210.223	81.58
210.442	-41.3
210.661	20.14
210.879	34.47
211.098	22.19
211.316	22.19
211.535	3.75
211.753	48.81
211.972	7.85
212.191	69.29
212.409	24.23
212.628	7.85
212.846	38.57
213.065	16.04
213.283	34.47
213.502	16.04
213.72	-29.01
213.938	-57.68
214.157	-29.01
214.375	71.34
214.594	59.05
214.812	30.38
215.031	22.19
215.249	108.2
215.467	24.23
215.686	-2.39
215.904	54.95
216.122	-26.96
216.341	13.99
216.559	-0.34
216.778	36.52
216.996	38.57
217.214	-29.01
217.432	24.23
217.651	-12.63
217.869	54.95
218.087	-16.73
218.306	-14.68
218.524	9.9
218.742	112.3
218.96	73.39
219.179	-6.49
219.397	34.47
219.615	50.86
219.833	24.23
220.051	59.05
220.27	73.39
220.488	-16.73
220.706	87.72
220.924	50.86
221.142	89.77
221.36	95.91
221.578	44.71
221.796	-2.39
222.015	-14.68
222.233	28.33
222.451	54.95
222.669	28.33
222.887	13.99
223.105	22.19
223.323	3.75
223.541	32.43
223.759	-8.53
223.977	83.63
224.195	50.86
224.413	59.05
224.631	36.52
224.849	11.95
225.067	48.81
225.285	75.43
225.503	75.43
225.721	48.81
225.939	40.62
226.157	91.82
226.375	61.1
226.592	-35.16
226.81	77.48
227.028	24.23
227.246	71.34
227.464	81.58
227.682	-2.39
227.9	-4.44
228.117	5.8
228.335	11.95
228.553	9.9
228.771	18.09
228.989	46.76
229.206	16.04
229.424	-18.77
229.642	3.75
229.86	34.47
230.077	28.33
230.295	63.15
230.513	65.19
230.731	22.19
230.948	36.52
231.166	28.33
231.384	26.28
231.601	50.86
231.819	44.71
232.037	38.57
232.254	22.19
232.472	20.14
232.689	-12.63
232.907	28.33
233.125	9.9
233.342	-0.34
233.56	-20.82
233.777	79.53
233.995	-45.4
234.213	44.71
234.43	69.29
234.648	79.53
234.865	-4.44
235.083	54.95
235.3	7.85
235.518	81.58
235.735	34.47
235.953	34.47
236.17	81.58
236.388	-49.49
236.605	-0.34
236.822	32.43
237.04	5.8
237.257	3.75
237.475	11.95
237.692	50.86
237.909	54.95
238.127	-24.92
238.344	-39.25
238.562	67.24
238.779	46.76
238.996	-0.34
239.214	3.75
239.431	61.1
239.648	71.34
239.865	61.1
240.083	67.24
240.3	48.81
240.517	24.23
240.735	-4.44
240.952	89.77
241.169	28.33
241.386	-4.44
241.603	93.87
241.821	57
242.038	-0.34
242.255	32.43
242.472	-18.77
242.689	11.95
242.907	85.67
243.124	73.39
243.341	16.04
243.558	-10.58
243.775	-22.87
243.992	44.71
244.209	54.95
244.426	81.58
244.643	-8.53
244.86	18.09
245.078	5.8
245.295	28.33
245.512	-8.53
245.729	34.47
245.946	40.62
246.163	-6.49
246.38	42.67
246.597	18.09
246.814	81.58
247.031	44.71
247.248	87.72
247.464	11.95
247.681	30.38
247.898	-18.77
248.115	69.29
248.332	16.04
248.549	81.58
248.766	54.95
248.983	26.28
249.2	38.57
249.417	34.47
249.633	-74.07
249.85	104.11
250.067	22.19
250.284	-39.25
250.501	7.85
250.717	16.04
250.934	46.76
251.151	-37.2
251.368	-16.73
251.585	7.85
251.801	1.71
252.018	75.43
252.235	69.29
252.451	-0.34
252.668	-26.96
252.885	1.71
253.102	30.38
253.318	44.71
253.535	-8.53
253.752	22.19
253.968	20.14
254.185	-0.34
254.401	-14.68
254.618	-20.82
254.835	-2.39
255.051	73.39
255.268	-12.63
255.484	16.04
255.701	24.23
255.917	30.38
256.134	52.91
256.351	-16.73
256.567	-26.96
256.784	5.8
257	24.23
257.217	-0.34
257.433	73.39
257.65	20.14
257.866	81.58
258.082	-12.63
258.299	-31.06
258.515	5.8
258.732	11.95
258.948	75.43
259.165	18.09
259.381	65.19
259.597	87.72
259.814	-31.06
260.03	40.62
260.246	22.19
260.463	93.87
260.679	46.76
260.895	-39.25
261.112	44.71
261.328	20.14
261.544	26.28
261.761	57
261.977	44.71
262.193	-2.39
262.409	-0.34
262.626	83.63
262.842	65.19
263.058	32.43
263.274	52.91
263.49	13.99
263.707	3.75
263.923	65.19
264.139	-29.01
264.355	65.19
264.571	48.81
264.787	34.47
265.004	-16.73
265.22	40.62
265.436	59.05
265.652	40.62
265.868	5.8
266.084	-10.58
266.3	24.23
266.516	-8.53
266.732	59.05
266.948	65.19
267.164	57
267.38	28.33
267.596	22.19
267.812	67.24
268.028	28.33
268.244	67.24
268.46	59.05
268.676	69.29
268.892	38.57
269.108	20.14
269.324	102.06
269.54	38.57
269.756	67.24
269.972	3.75
270.188	18.09
270.403	-20.82
270.619	9.9
270.835	65.19
271.051	-26.96
271.267	-4.44
271.483	36.52
271.698	52.91
271.914	61.1
272.13	57
272.346	52.91
272.562	18.09
272.777	87.72
272.993	34.47
273.209	-43.35
273.425	5.8
273.64	22.19
273.856	38.57
274.072	-31.06
274.287	-18.77
274.503	34.47
274.719	1.71
274.934	-0.34
275.15	95.91
275.366	40.62
275.581	-37.2
275.797	-37.2
276.012	13.99
276.228	46.76
276.444	18.09
276.659	75.43
276.875	54.95
277.09	13.99
277.306	59.05
277.521	44.71
277.737	75.43
277.952	38.57
278.168	44.71
278.383	44.71
278.599	91.82
278.814	18.09
279.03	-16.73
279.245	63.15
279.461	-26.96
279.676	50.86
279.892	22.19
280.107	30.38
280.322	-18.77
280.538	-14.68
280.753	13.99
280.969	73.39
281.184	100.01
281.399	48.81
281.615	-31.06
281.83	38.57
282.045	-39.25
282.26	-20.82
282.476	59.05
282.691	67.24
282.906	-14.68
283.122	9.9
283.337	16.04
283.552	52.91
283.767	22.19
283.983	89.77
284.198	57
284.413	81.58
284.628	7.85
284.843	30.38
285.058	-2.39
285.274	5.8
285.489	3.75
285.704	24.23
285.919	-119.12
286.134	20.14
286.349	7.85
286.564	69.29
286.779	-20.82
286.995	5.8
287.21	38.57
287.425	16.04
287.64	-72.02
287.855	3.75
288.07	46.76
288.285	126.63
288.5	44.71
288.715	91.82
288.93	11.95
289.145	-20.82
289.36	46.76
289.575	-20.82
289.79	-4.44
290.004	22.19
290.219	20.14
290.434	-51.54
290.649	36.52
290.864	48.81
291.079	-41.3
291.294	34.47
291.509	11.95
291.724	73.39
291.938	24.23
292.153	69.29
292.368	-33.11
292.583	-4.44
292.798	48.81
293.012	69.29
293.227	-0.34
293.442	81.58
293.657	138.92
293.871	54.95
294.086	52.91
294.301	13.99
294.516	28.33
294.73	65.19
294.945	32.43
295.16	-16.73
295.374	50.86
295.589	71.34
295.804	-8.53
296.018	9.9
296.233	-31.06
296.447	124.58
296.662	18.09
296.877	28.33
297.091	-12.63
297.306	9.9
297.52	5.8
297.735	48.81
297.949	22.19
298.164	3.75
298.378	77.48
298.593	-8.53
298.807	-41.3
299.022	46.76
299.236	-2.39
299.451	1.71
299.665	3.75
299.88	-0.34
300.094	3.75
300.309	-0.34
300.523	13.99
300.737	24.23
300.952	38.57
301.166	87.72
301.381	40.62
301.595	22.19
301.809	-33.11
302.024	-35.16
302.238	-10.58
302.452	63.15
302.667	13.99
302.881	38.57
303.095	28.33
303.309	36.52
303.524	-18.77
303.738	22.19
303.952	-16.73
304.166	3.75
304.381	-20.82
304.595	65.19
304.809	67.24
305.023	57
305.237	77.48
305.452	11.95
305.666	22.19
305.88	48.81
306.094	30.38
306.308	28.33
306.522	32.43
306.736	54.95
306.95	32.43
307.164	13.99
307.379	34.47
307.593	102.06
307.807	65.19
308.021	89.77
308.235	52.91
308.449	9.9
308.663	22.19
308.877	20.14
309.091	20.14
309.305	18.09
309.519	-22.87
309.733	24.23
309.947	97.96
310.161	36.52
310.374	24.23
310.588	-8.53
310.802	-20.82
311.016	75.43
311.23	24.23
311.444	63.15
311.658	-59.73
311.872	89.77
312.085	22.19
312.299	153.26
312.513	46.76
312.727	81.58
312.941	-33.11
313.154	44.71
313.368	22.19
313.582	87.72
313.796	46.76
314.009	-20.82
314.223	20.14
314.437	75.43
314.651	-57.68
314.864	57
315.078	18.09
315.292	-4.44
315.505	22.19
315.719	-18.77
315.933	102.06
316.146	36.52
316.36	-41.3
316.573	48.81
316.787	85.67
317.001	24.23
317.214	-18.77
317.428	77.48
317.641	57
317.855	54.95
318.068	7.85
318.282	54.95
318.495	79.53
318.709	65.19
318.922	28.33
319.136	91.82
319.349	32.43
319.563	50.86
319.776	48.81
319.99	-14.68
320.203	1.71
320.417	81.58
320.63	-6.49
320.843	69.29
321.057	-8.53
321.27	-10.58
321.483	24.23
321.697	7.85
321.91	44.71
322.124	18.09
322.337	16.04
322.55	42.67
322.763	87.72
322.977	59.05
323.19	18.09
323.403	28.33
323.617	63.15
323.83	1.71
324.043	7.85
324.256	24.23
324.469	13.99
324.683	65.19
324.896	-41.3
325.109	13.99
325.322	-20.82
325.535	75.43
325.748	44.71
325.962	102.06
326.175	32.43
326.388	65.19
326.601	61.1
326.814	-0.34
327.027	-4.44
327.24	89.77
327.453	-22.87
327.666	87.72
327.879	-31.06
328.092	114.34
328.305	73.39
328.518	79.53
328.731	79.53
328.944	77.48
329.157	95.91
329.37	26.28
329.583	13.99
329.796	28.33
330.009	22.19
330.222	81.58
330.435	26.28
330.648	18.09
330.861	22.19
331.073	91.82
331.286	38.57
331.499	30.38
331.712	50.86
331.925	22.19
332.138	18.09
332.35	93.87
332.563	28.33
332.776	26.28
332.989	61.1
333.202	7.85
333.414	83.63
333.627	42.67
333.84	16.04
334.053	40.62
334.265	16.04
334.478	59.05
334.691	3.75
334.903	34.47
335.116	5.8
335.329	87.72
335.541	30.38
335.754	34.47
335.966	48.81
336.179	79.53
336.392	120.49
336.604	-6.49
336.817	1.71
337.029	71.34
337.242	63.15
337.454	71.34
337.667	-16.73
337.88	67.24
338.092	46.76
338.305	71.34
338.517	-16.73
338.729	50.86
338.942	20.14
339.154	-10.58
339.367	97.96
339.579	38.57
339.792	5.8
340.004	63.15
340.217	-47.44
340.429	24.23
340.641	-10.58
340.854	28.33
341.066	20.14
341.278	36.52
341.491	38.57
341.703	46.76
341.915	5.8
342.128	38.57
342.34	-10.58
342.552	-16.73
342.764	83.63
342.977	9.9
343.189	38.57
343.401	24.23
343.613	48.81
343.826	22.19
344.038	7.85
344.25	69.29
344.462	52.91
344.674	-6.49
344.886	-0.34
345.099	104.11
345.311	18.09
345.523	77.48
345.735	3.75
345.947	54.95
346.159	44.71
346.371	3.75
346.583	-8.53
346.795	100.01
347.007	-45.4
347.219	100.01
347.431	81.58
347.643	97.96
347.855	50.86
348.067	73.39
348.279	-0.34
348.491	61.1
348.703	69.29
348.915	7.85
349.127	-33.11
349.339	13.99
349.551	7.85
349.763	128.68
349.975	42.67
350.187	102.06
350.399	40.62
350.61	54.95
350.822	114.34
351.034	-22.87
351.246	-26.96
351.458	7.85
351.669	83.63
351.881	36.52
352.093	22.19
352.305	44.71
352.517	44.71
352.728	11.95
352.94	16.04
353.152	87.72
353.363	-65.88
353.575	71.34
353.787	65.19
353.999	16.04
354.21	18.09
354.422	-29.01
354.633	52.91
354.845	52.91
355.057	5.8
355.268	5.8
355.48	48.81
355.692	54.95
355.903	32.43
356.115	-26.96
356.326	24.23
356.538	63.15
356.749	48.81
356.961	67.24
357.172	-20.82
357.384	24.23
357.595	91.82
357.807	50.86
358.018	36.52
358.23	30.38
358.441	85.67
358.653	5.8
358.864	38.57
359.075	81.58
359.287	57
359.498	24.23
359.709	69.29
359.921	46.76
360.132	13.99
360.344	81.58
360.555	24.23
360.766	134.82
360.977	108.2
361.189	93.87
361.4	48.81
361.611	67.24
361.823	63.15
362.034	44.71
362.245	28.33
362.456	18.09
362.667	61.1
362.879	44.71
363.09	7.85
363.301	26.28
363.512	24.23
363.723	-10.58
363.935	11.95
364.146	87.72
364.357	71.34
364.568	28.33
364.779	30.38
364.99	44.71
365.201	7.85
365.412	42.67
365.623	48.81
365.834	57
366.045	67.24
366.256	22.19
366.467	22.19
366.678	57
366.889	13.99
367.1	48.81
367.311	97.96
367.522	32.43
367.733	79.53
367.944	118.44
368.155	36.52
368.366	120.49
368.577	16.04
368.788	42.67
368.999	79.53
369.209	44.71
369.42	40.62
369.631	102.06
369.842	69.29
370.053	11.95
370.264	145.06
370.474	28.33
370.685	24.23
370.896	63.15
371.107	81.58
371.317	114.34
371.528	16.04
371.739	32.43
371.95	38.57
372.16	28.33
372.371	18.09
372.582	24.23
372.792	67.24
373.003	95.91
373.214	18.09
373.424	48.81
373.635	52.91
373.846	69.29
374.056	13.99
374.267	89.77
374.477	54.95
374.688	-33.11
374.898	18.09
375.109	36.52
375.319	89.77
375.53	40.62
375.74	61.1
375.951	42.67
376.161	50.86
376.372	100.01
376.582	-14.68
376.793	16.04
377.003	42.67
377.214	61.1
377.424	108.2
377.635	95.91
377.845	-41.3
378.055	81.58
378.266	-31.06
378.476	73.39
378.686	3.75
378.897	11.95
379.107	65.19
379.317	9.9
379.528	40.62
379.738	67.24
379.948	-10.58
380.158	120.49
380.369	36.52
380.579	81.58
380.789	11.95
380.999	34.47
381.21	28.33
381.42	140.97
381.63	24.23
381.84	106.15
382.05	52.91
382.261	77.48
382.471	36.52
382.681	36.52
382.891	11.95
383.101	57
383.311	-24.92
383.521	-6.49
383.731	67.24
383.941	97.96
384.151	50.86
384.361	24.23
384.571	30.38
384.781	155.3
384.991	75.43
385.201	106.15
385.411	1.71
385.621	93.87
385.831	134.82
386.041	59.05
386.251	73.39
386.461	65.19
386.671	5.8
386.881	7.85
387.091	22.19
387.301	38.57
387.511	61.1
387.72	138.92
387.93	24.23
388.14	69.29
388.35	-31.06
388.56	54.95
388.769	57
388.979	44.71
389.189	77.48
389.399	36.52
389.609	16.04
389.818	108.2
390.028	7.85
390.238	52.91
390.447	81.58
390.657	83.63
390.867	44.71
391.076	57
391.286	59.05
391.496	61.1
391.705	67.24
391.915	65.19
392.125	54.95
392.334	93.87
392.544	143.02
392.753	42.67
392.963	38.57
393.172	48.81
393.382	89.77
393.591	91.82
393.801	54.95
394.01	122.54
394.22	48.81
394.429	59.05
394.639	46.76
394.848	34.47
395.058	69.29
395.267	122.54
395.477	44.71
395.686	5.8
395.895	97.96
396.105	77.48
396.314	124.58
396.524	71.34
396.733	48.81
396.942	143.02
397.152	122.54
397.361	179.88
397.57	108.2
397.78	65.19
397.989	93.87
398.198	126.63
398.407	87.72
398.617	71.34
398.826	38.57
399.035	91.82
399.244	83.63
399.453	106.15
399.663	118.44
399.872	85.67
400.081	85.67
400.29	147.11
400.499	42.67
400.708	118.44
400.917	159.4
401.127	106.15
401.336	102.06
401.545	155.3
401.754	155.3
401.963	132.78
402.172	124.58
402.381	100.01
402.59	102.06
402.799	124.58
403.008	165.54
403.217	106.15
403.426	136.87
403.635	91.82
403.844	63.15
404.053	122.54
404.262	116.39
404.471	151.21
404.68	188.07
404.888	163.5
405.097	151.21
405.306	140.97
405.515	149.16
405.724	85.67
405.933	149.16
406.142	192.17
406.35	173.74
406.559	190.12
406.768	179.88
406.977	192.17
407.185	265.89
407.394	206.5
407.603	163.5
407.812	130.73
408.02	224.94
408.229	294.57
408.438	224.94
408.646	140.97
408.855	190.12
409.064	163.5
409.272	253.61
409.481	315.05
409.69	251.56
409.898	261.8
410.107	233.13
410.315	284.33
410.524	315.05
410.733	399.01
410.941	345.77
411.15	364.2
411.358	427.68
411.567	298.66
411.775	384.68
411.984	362.15
412.192	362.15
412.401	378.53
412.609	515.75
412.818	435.88
413.026	511.65
413.234	456.36
413.443	435.88
413.651	538.27
413.86	501.41
414.068	521.89
414.276	605.86
414.485	605.86
414.693	632.48
414.901	683.68
415.11	605.86
415.318	599.71
415.526	669.34
415.734	738.98
415.943	704.16
416.151	798.37
416.359	724.64
416.567	796.32
416.776	798.37
416.984	886.43
417.192	896.67
417.4	874.14
417.608	974.49
417.817	994.97
418.025	997.02
418.233	1009.31
418.441	992.92
418.649	1083.03
418.857	1128.09
419.065	1203.86
419.273	1167
419.481	1339.03
419.689	1330.84
419.897	1472.15
420.105	1466
420.313	1461.91
420.521	1490.58
420.729	1488.53
420.937	1535.64
421.145	1613.46
421.353	1658.51
421.561	1769.1
421.769	1832.59
421.977	1822.35
422.185	1846.93
422.393	1953.42
422.601	2084.49
422.809	2100.87
423.017	2215.56
423.224	2262.66
423.432	2440.84
423.64	2250.38
423.848	2477.7
424.056	2389.64
424.263	2633.35
424.471	2672.26
424.679	2645.63
424.887	2883.2
425.094	2911.87
425.302	2954.88
425.51	3010.17
425.718	3128.95
425.925	3198.59
426.133	3321.46
426.341	3473.01
426.548	3735.15
426.756	3702.39
426.964	3575.41
427.171	3913.33
427.379	3898.99
427.586	4046.44
427.794	4230.76
428.001	4453.99
428.209	4720.23
428.417	4472.42
428.624	4920.93
428.832	4904.54
429.039	4908.64
429.247	4894.3
429.454	5174.88
429.662	5703.25
429.869	5279.32
430.076	5512.79
430.284	5449.3
430.491	5817.94
430.699	5938.77
430.906	6055.5
431.114	6141.52
431.321	6368.84
431.528	6557.25
431.736	6841.92
431.943	7247.42
432.15	6860.35
432.358	7276.09
432.565	7421.5
432.772	7274.04
432.979	7712.31
433.187	7927.35
433.394	8064.56
433.601	8678.95
433.808	8545.83
434.016	8558.12
434.223	8939.04
434.43	9256.48
434.637	9197.09
434.844	9938.45
435.052	9907.73
435.259	9760.28
435.466	9889.3
435.673	10040.85
435.88	10690.06
436.087	11120.13
436.294	11052.55
436.501	10733.06
436.708	11181.57
436.915	11499
437.122	12037.62
437.329	12017.14
437.537	12406.25
437.743	12533.23
437.95	12486.12
438.157	13260.26
438.364	13485.53
438.571	13510.11
438.778	13721.05
438.985	14874.06
439.192	14169.55
439.399	14726.6
439.606	14439.89
439.813	15246.79
440.02	15988.15
440.227	15787.45
440.433	15687.1
440.64	16160.18
440.847	16268.72
441.054	16250.29
441.261	17630.62
441.467	17284.51
441.674	17733.02
441.881	18584.98
442.088	18437.52
442.294	18345.36
442.501	18591.12
442.708	19021.19
442.914	19889.53
443.121	20585.84
443.328	20161.91
443.534	21493.09
443.741	21126.5
443.948	20501.87
444.154	22105.43
444.361	22164.82
444.568	22242.65
444.774	22013.27
444.981	22619.47
445.187	23002.44
445.394	24112.44
445.6	23838.01
445.807	25949.47
446.013	24937.77
446.22	25240.87
446.426	26322.2
446.633	26291.48
446.839	27438.34
447.046	26133.79
447.252	27931.9
447.459	27630.85
447.665	27657.48
447.871	29023.47
448.078	29764.84
448.284	28765.43
448.491	29340.91
448.697	30610.65
448.903	30954.71
449.11	31018.19
449.316	30686.42
449.522	31167.7
449.728	32019.65
449.935	32654.52
450.141	32122.05
450.347	33084.59
450.553	32072.9
450.76	32513.21
450.966	33184.94
451.172	32675
451.378	33983.65
451.584	33354.93
451.791	34079.91
451.997	33807.53
452.203	34184.35
452.409	34337.95
452.615	34030.76
452.821	32664.76
453.027	32636.09
453.233	34247.84
453.44	33193.14
453.646	32980.15
453.852	33447.08
454.058	33983.65
454.264	32658.62
454.47	33514.67
454.676	32812.21
454.882	33895.59
455.088	30377.18
455.294	31511.75
455.5	31456.46
455.705	32324.8
455.911	30950.61
456.117	30268.64
456.323	29721.83
456.529	28210.43
456.735	29453.55
456.941	28613.88
457.147	28024.06
457.352	27168.01
457.558	27120.91
457.764	27063.57
457.97	26678.55
458.176	26035.49
458.381	26045.73
458.587	24595.76
458.793	24872.24
458.999	23514.44
459.204	25021.74
459.41	24341.82
459.616	22719.82
459.821	22824.27
460.027	22887.76
460.233	22164.82
460.438	21362.02
460.644	21583.2
460.85	20565.36
461.055	19910.01
461.261	19979.64
461.466	18752.91
461.672	17993.11
461.878	19275.14
462.083	17989.02
462.289	17669.53
462.494	17479.07
462.7	16770.47
462.905	16534.96
463.111	16944.55
463.316	17116.58
463.522	16676.27
463.727	16836.01
463.932	16688.56
464.138	16457.14
464.343	16657.84
464.549	16246.19
464.754	16688.56
464.959	16518.57
465.165	16297.39
465.37	15846.84
465.575	15416.77
465.781	15840.7
465.986	15844.79
466.191	15326.66
466.397	15308.23
466.602	14171.6
466.807	14908.87
467.012	14810.57
467.218	14765.51
467.423	14521.81
467.628	14869.96
467.833	15459.77
468.038	14779.85
468.244	14450.13
468.449	14933.45
468.654	14577.1
468.859	14538.19
469.064	14308.82
469.269	13680.09
469.474	13975
469.679	14126.55
469.885	13764.06
470.09	13864.41
470.295	14020.05
470.5	13721.05
470.705	13702.62
470.91	13149.67
471.115	13135.33
471.32	13252.06
471.525	13321.7
471.73	12828.13
471.935	13164
472.139	12609
472.344	12811.75
472.549	12525.04
472.754	12557.8
472.959	12373.49
473.164	11902.45
473.369	11628.03
473.574	12131.83
473.778	11793.91
473.983	12076.53
474.188	11578.87
474.393	11271.68
474.598	11453.95
474.802	11222.53
475.007	11154.94
475.212	11165.18
475.417	10851.85
475.621	10921.48
475.826	10749.45
476.031	10606.09
476.235	10493.45
476.44	10823.17
476.645	10464.78
476.849	10425.87
477.054	10364.43
477.259	10151.44
477.463	10077.71
477.668	9842.2
477.872	9926.16
478.077	9834
478.282	9621.02
478.486	9483.8
478.691	9444.89
478.895	9561.62
479.1	9557.53
479.304	9369.12
479.509	9301.53
479.713	9332.25
479.918	9385.5
480.122	8971.81
480.326	9219.61
480.531	9231.9
480.735	8912.42
480.94	8996.39
481.144	9104.93
481.348	8691.24
481.553	9055.78
481.757	8746.53
481.961	8799.78
482.166	9000.48
482.37	9035.3
482.574	8793.64
482.778	8728.1
482.983	8887.84
483.187	8693.29
483.391	9084.45
483.595	8932.9
483.8	8754.73
484.004	8992.29
484.208	8906.27
484.412	8857.12
484.616	8697.38
484.821	8814.12
485.025	8807.97
485.229	8824.36
485.433	8713.77
485.637	8844.84
485.841	8717.86
486.045	8615.46
486.249	8738.34
486.453	8867.36
486.657	8875.56
486.861	8787.49
487.065	8664.61
487.269	8693.29
487.473	8736.29
487.677	8820.26
487.881	8926.75
488.085	8685.09
488.289	8824.36
488.493	8838.69
488.697	8980
488.901	8842.79
489.105	8744.49
489.309	8889.89
489.512	8840.74
489.716	9053.73
489.92	8949.28
490.124	8975.91
490.328	9049.63
490.531	8945.19
490.735	8988.19
490.939	8953.38
491.143	9029.15
491.346	8928.8
491.55	9147.94
491.754	9111.07
491.958	9201.18
492.161	9068.06
492.365	9203.23
492.569	9426.46
492.772	9182.75
492.976	9274.91
493.18	9590.3
493.383	9584.15
493.587	9723.41
493.79	9719.32
493.994	9578.01
494.197	9879.06
494.401	9668.12
494.605	9690.65
494.808	10008.08
495.012	10192.4
495.215	9952.79
495.419	10272.27
495.622	10171.92
495.825	10276.37
496.029	10307.09
496.232	10483.21
496.436	10472.97
496.639	10616.33
496.843	10554.89
497.046	10946.05
497.249	10954.24
497.453	11034.11
497.656	11296.25
497.859	11156.99
498.063	11316.73
498.266	11451.9
498.469	11494.91
498.673	11828.73
498.876	11834.87
499.079	11980.28
499.282	11959.8
499.485	12197.36
499.689	12316.14
499.892	12475.88
500.095	12666.35
500.298	12908.01
500.501	12770.79
500.705	12963.3
500.908	13147.62
501.111	13166.05
501.314	13313.5
501.517	13391.33
501.72	13913.56
501.923	13499.87
502.126	14126.55
502.329	14144.98
502.532	14110.16
502.735	14665.16
502.938	14589.39
503.141	14607.82
503.344	15009.22
503.547	15011.27
503.75	15156.68
503.953	15455.68
504.156	15596.99
504.359	15633.85
504.562	15793.59
504.765	15984.05
504.968	16278.96
505.17	16633.26
505.373	16289.2
505.576	16924.07
505.779	17032.61
505.982	17124.77
506.185	17294.75
506.387	17407.39
506.59	17558.94
506.793	18152.85
506.996	17958.3
507.198	18537.87
507.401	18048.41
507.604	18558.35
507.807	18892.17
508.009	18947.47
508.212	19336.58
508.415	19510.66
508.617	19549.57
508.82	19830.14
509.022	19586.43
509.225	20163.96
509.428	20374.9
509.63	20565.36
509.833	20647.28
510.035	21134.7
510.238	21108.07
510.44	21413.22
510.643	21740.89
510.845	21857.63
511.048	21835.1
511.25	22158.68
511.453	22441.3
511.655	23192.9
511.858	22756.69
512.06	23319.88
512.262	23250.25
512.465	23475.52
512.667	23864.64
512.87	23971.13
513.072	24020.28
513.274	24644.91
513.477	24614.2
513.679	25005.36
513.881	25134.38
514.084	25423.14
514.286	25283.88
514.488	25752.87
514.69	26289.43
514.893	26768.66
515.095	26479.89
515.297	26961.17
515.499	26916.11
515.701	27385.1
515.904	27731.2
516.106	27819.27
516.308	28198.14
516.51	28632.31
516.712	28486.9
516.914	28824.82
517.116	29338.86
517.318	29449.45
517.52	29691.11
517.722	29736.16
517.925	30039.26
518.127	30344.41
518.329	30475.48
518.531	30735.57
518.733	31102.16
518.935	31364.3
519.136	31679.69
519.338	32445.63
519.54	31857.86
519.742	32619.7
519.944	32498.87
520.146	33139.89
520.348	33273.01
520.55	33529
520.752	33457.32
520.954	34368.67
521.155	34122.91
521.357	34477.21
521.559	34743.45
521.761	35593.36
521.963	35134.61
522.164	35548.3
522.366	35918.98
522.568	36002.95
522.77	36177.03
522.971	36787.32
523.173	36326.53
523.375	36836.47
523.576	36947.06
523.778	37416.05
523.98	37737.58
524.181	37809.26
524.383	37799.02
524.584	38366.31
524.786	38257.76
524.988	38261.86
525.189	38773.85
525.391	38937.69
525.592	39199.83
525.794	39332.95
525.995	39648.33
526.197	39648.33
526.398	39713.87
526.6	40408.13
526.801	40256.58
527.003	40680.51
527.204	40232
527.406	40848.44
527.607	40924.22
527.808	40967.23
528.01	40782.91
528.211	40993.85
528.412	42069.03
528.614	41751.6
528.815	41780.27
529.016	41833.52
529.218	41573.42
529.419	42050.6
529.62	41880.62
529.822	41983.02
530.023	41917.48
530.224	42165.29
530.425	42267.69
530.626	41917.48
530.828	42490.91
531.029	43279.38
531.23	42660.9
531.431	42572.83
531.632	42859.55
531.833	42880.03
532.035	42902.56
532.236	42773.53
532.437	43271.19
532.638	42834.97
532.839	43246.61
533.04	43260.95
533.241	43056.15
533.442	43633.68
533.643	43156.5
533.844	42908.7
534.045	43643.92
534.246	43236.37
534.447	43750.42
534.648	43295.77
534.849	43893.77
535.05	43502.61
535.251	43662.35
535.451	43516.95
535.652	43895.82
535.853	43545.62
536.054	44073.99
536.255	44205.06
536.456	43238.42
536.657	44200.97
536.857	43355.16
537.058	43277.33
537.259	43899.92
537.46	43838.48
537.66	43629.58
537.861	43938.83
538.062	43639.82
538.263	43842.57
538.463	43867.15
538.664	43615.25
538.865	43785.23
539.065	44194.82
539.266	43443.22
539.466	43985.93
539.667	43586.58
539.868	43975.69
540.068	43641.87
540.269	44022.79
540.469	43688.98
540.67	43500.56
540.87	43897.87
541.071	43582.48
541.271	43893.77
541.472	43648.02
541.672	43635.73
541.873	43887.63
542.073	42824.73
542.274	43920.4
542.474	43891.72
542.675	43774.99
542.875	43924.49
543.075	43531.28
543.276	43488.28
543.476	44229.64
543.676	43826.19
543.877	43482.13
544.077	43549.71
544.277	43637.78
544.478	43287.57
544.678	43799.57
544.878	43512.85
545.078	43668.5
545.279	43176.98
545.479	43439.12
545.679	43623.44
545.879	43836.43
546.079	43910.16
546.28	43213.85
546.48	42951.71
546.68	44024.84
546.88	43824.14
547.08	43848.72
547.28	43211.8
547.48	43263
547.68	43901.96
547.88	43373.59
548.081	43871.25
548.281	43512.85
548.481	43189.27
548.681	43475.99
548.881	43734.03
549.081	43697.17
549.28	43283.48
549.48	43895.82
549.68	43222.04
549.88	44278.79
550.08	43367.44
550.28	43570.19
550.48	43424.79
550.68	44141.58
550.88	43217.94
551.08	43490.32
551.279	43291.67
551.479	42906.65
551.679	43541.52
551.879	43222.04
552.079	43336.73
552.278	43019.29
552.478	43496.47
552.678	43060.25
552.878	43306.01
553.077	43170.84
553.277	42615.84
553.477	43721.74
553.676	43414.55
553.876	43052.06
554.076	43035.67
554.275	43222.04
554.475	42587.17
554.674	42755.1
554.874	42884.12
555.074	42912.8
555.273	43074.59
555.473	42906.65
555.672	43156.5
555.872	42882.08
556.071	42796.06
556.271	43131.93
556.47	42806.3
556.67	42159.14
556.869	42304.55
557.068	42789.92
557.268	42214.44
557.467	42497.06
557.667	42675.23
557.866	42361.89
558.065	42165.29
558.265	42298.41
558.464	41864.24
558.663	42224.68
558.863	41874.48
559.062	42521.63
559.261	41649.2
559.461	42476.58
559.66	41540.66
559.859	41983.02
560.058	41489.46
560.258	41876.52
560.457	41798.7
560.656	41739.31
560.855	41516.08
561.054	41899.05
561.253	41110.58
561.453	41530.42
561.652	41649.2
561.851	41624.62
562.05	41368.63
562.249	41225.27
562.448	41221.17
562.647	41419.83
562.846	41323.57
563.045	41147.45
563.244	40721.47
563.443	41231.41
563.642	40721.47
563.841	40856.64
564.04	40379.46
564.239	40649.79
564.438	40111.17
564.637	40518.72
564.836	40539.2
565.035	40283.2
565.234	40324.16
565.432	39980.1
565.631	39842.89
565.83	40371.27
566.029	39664.72
566.228	39423.06
566.427	39672.91
566.625	39521.36
566.824	38861.91
567.023	39183.44
567.222	38952.02
567.42	39699.53
567.619	39158.87
567.818	39199.83
568.016	39167.06
568.215	39461.97
568.414	39011.42
568.612	39126.1
568.811	38626.4
569.01	38876.25
569.208	38036.58
569.407	38779.99
569.605	38085.73
569.804	38417.5
570.002	37704.81
570.201	37868.65
570.4	38052.97
570.598	37842.03
570.797	37796.97
570.995	38063.21
571.193	37493.87
571.392	37377.14
571.59	37426.29
571.789	37428.34
571.987	36902.01
572.186	37135.48
572.384	37227.63
572.582	37098.61
572.781	36887.67
572.979	36850.81
573.177	37192.82
573.376	36695.16
573.574	36506.75
573.772	36543.61
573.971	36562.04
574.169	36183.17
574.367	36246.66
574.565	36494.46
574.763	36021.38
574.962	36170.88
575.16	35757.19
575.358	36273.28
575.556	35712.14
575.754	35951.75
575.952	35581.07
576.151	35714.19
576.349	35161.23
576.547	35167.38
576.745	35222.67
576.943	35224.72
577.141	34886.81
577.339	35290.26
577.537	34819.22
577.735	34911.38
577.933	34759.83
578.131	34882.71
578.329	34376.86
578.527	34415.77
578.725	34514.08
578.923	34518.17
579.121	34131.11
579.319	33803.43
579.516	34229.41
579.714	34047.14
579.912	33871.01
580.11	33531.05
580.308	33498.28
580.506	33715.37
580.704	33055.92
580.901	33551.53
581.099	33418.41
581.297	32662.71
581.495	33486
581.692	33219.76
581.89	33117.36
582.088	33031.35
582.285	32832.69
582.483	33232.05
582.681	32879.8
582.878	32390.33
583.076	32169.15
583.274	32730.3
583.471	32142.53
583.669	32531.64
583.866	32187.58
584.064	32363.71
584.262	31687.88
584.459	32064.71
584.657	31765.7
584.854	32134.34
585.052	31091.92
585.249	31638.73
585.447	31470.79
585.644	31331.53
585.841	31509.71
586.039	31548.62
586.236	30715.09
586.434	31177.93
586.631	30794.96
586.828	30969.04
587.026	31057.1
587.223	30944.47
587.42	30905.56
587.618	30674.13
587.815	30188.77
588.012	30313.69
588.21	30375.13
588.407	30762.2
588.604	30018.78
588.801	29986.02
588.999	30012.64
589.196	30295.26
589.393	30156
589.59	29922.53
589.787	29631.72
589.984	29938.91
590.182	29115.63
590.379	29768.93
590.576	29443.31
590.773	29412.59
590.97	29347.05
591.167	29457.64
591.364	28769.52
591.561	29304.04
591.758	28607.73
591.955	28820.72
592.152	28888.31
592.349	28644.6
592.546	28900.59
592.743	28577.01
592.94	28257.53
593.137	28314.87
593.334	28466.42
593.531	27964.67
593.727	28218.62
593.924	27888.9
594.121	28144.89
594.318	28304.63
594.515	27702.53
594.712	28024.06
594.908	27643.14
595.105	27487.5
595.302	27256.07
595.499	27219.21
595.696	27258.12
595.892	27051.28
596.089	27301.13
596.286	27622.66
596.482	26805.52
596.679	26934.54
596.876	26998.03
597.072	26889.49
597.269	26932.5
597.466	26197.27
597.662	26658.07
597.859	26475.8
598.055	26805.52
598.252	26309.91
598.448	26498.33
598.645	26195.23
598.841	25982.24
599.038	26293.53
599.234	26078.49
599.431	26047.77
599.627	25818.4
599.824	25808.16
600.02	25472.29
600.217	25855.26
600.413	25808.16
600.609	25398.57
600.806	25287.98
601.002	25249.07
601.198	25240.87
601.395	25210.15
601.591	25111.85
601.787	25120.04
601.984	25126.19
602.18	25165.1
602.376	24681.78
602.572	24976.69
602.769	24593.72
602.965	24327.48
603.161	24780.08
603.357	24499.51
603.553	24558.9
603.75	24382.77
603.946	24409.4
604.142	24134.97
604.338	24112.44
604.534	23790.91
604.73	23991.61
604.926	23622.98
605.122	23786.82
605.318	24184.12
605.514	23747.9
605.71	23661.89
605.906	23426.37
606.102	23493.96
606.298	23471.43
606.494	23600.45
606.69	23594.31
606.886	23211.34
607.082	23061.83
607.278	23313.73
607.474	22943.05
607.67	23207.24
607.866	22805.84
608.062	23401.8
608.257	22553.94
608.453	22822.22
608.649	22670.67
608.845	22824.27
609.041	22615.38
609.236	22916.43
609.432	22510.93
609.628	22510.93
609.824	22682.96
610.019	22242.65
610.215	22320.47
610.411	22836.56
610.606	22107.48
610.802	22320.47
610.998	22283.61
611.193	22336.85
611.389	22175.06
611.584	21976.41
611.78	21974.36
611.976	21988.7
612.171	22121.82
612.367	22130.01
612.562	21620.06
612.758	21554.53
612.953	21521.76
613.149	21701.98
613.344	21687.65
613.539	22000.99
613.735	21546.34
613.93	21470.56
614.126	21570.91
614.321	21581.15
614.517	21554.53
614.712	21108.07
614.907	21249.38
615.103	21460.32
615.298	21151.08
615.493	21603.68
615.688	21079.4
615.884	21374.31
616.079	21003.63
616.274	21343.59
616.47	21218.66
616.665	21300.58
616.86	20856.17
617.055	20843.88
617.25	20649.33
617.445	21157.22
617.641	20379
617.836	20983.15
618.031	20569.46
618.226	20655.47
618.421	20645.23
618.616	20430.19
618.811	20254.07
619.006	20657.52
619.201	20159.86
619.396	20329.84
619.591	20243.83
619.786	20266.36
619.981	19795.32
620.176	20452.72
620.371	19789.18
620.566	19797.37
620.761	19748.22
620.956	19932.54
621.151	19340.68
621.346	19686.78
621.541	19387.78
621.735	19656.06
621.93	19080.58
622.125	19273.09
622.32	18707.85
622.515	19033.48
622.709	18781.58
622.904	18888.07
623.099	18714
623.294	18810.25
623.488	18437.52
623.683	18202
623.878	17972.63
624.072	18175.38
624.267	18173.33
624.462	18187.67
624.656	17868.19
624.851	17915.29
625.046	17733.02
625.24	17923.48
625.435	17763.74
625.629	17397.15
625.824	17544.61
626.018	17575.33
626.213	16778.67
626.407	17276.32
626.602	16819.63
626.796	17153.44
626.991	16805.29
627.185	16735.66
627.38	16795.05
627.574	16653.74
627.768	16448.94
627.963	16283.06
628.157	16313.78
628.352	16235.95
628.546	15986.1
628.74	16029.11
628.935	15728.06
629.129	16049.59
629.323	15846.84
629.517	15672.76
629.712	15824.31
629.906	15601.08
630.1	15560.13
630.294	15652.28
630.489	15347.14
630.683	15289.79
630.877	14994.89
631.071	14970.31
631.265	15173.06
631.459	15121.86
631.653	14829
631.848	14910.92
632.042	14484.94
632.236	14702.03
632.43	14634.44
632.624	14667.21
632.818	14437.84
633.012	14263.76
633.206	14396.88
633.4	14503.37
633.594	14196.18
633.788	14269.9
633.982	13872.6
634.176	13954.52
634.369	13915.61
634.563	14106.07
634.757	13755.86
634.951	13864.41
635.145	13536.73
635.339	13790.68
635.533	13239.78
635.726	13659.61
635.92	13245.92
636.114	13131.23
636.308	13118.95
636.501	13266.4
636.695	13172.19
636.889	12940.77
637.083	12758.5
637.276	13034.98
637.47	12914.15
637.664	12748.26
637.857	12699.11
638.051	12686.83
638.244	12396.01
638.438	12439.02
638.632	12404.21
638.825	12135.92
639.019	12248.56
639.212	12281.33
639.406	12389.87
639.599	12248.56
639.793	12142.07
639.986	12115.44
640.18	12135.92
640.373	11986.42
640.567	11636.22
640.76	11867.64
640.954	11542.01
641.147	11302.4
641.34	11482.62
641.534	11662.84
641.727	11417.08
641.92	11412.99
642.114	11376.13
642.307	11193.86
642.5	11490.81
642.694	10952.2
642.887	10907.14
643.08	11191.81
643.273	11017.73
643.467	11005.44
643.66	10864.13
643.853	11097.6
644.046	10518.03
644.239	10845.7
644.432	10589.71
644.626	10601.99
644.819	10657.29
645.012	10622.47
645.205	10573.32
645.398	10253.84
645.591	10237.45
645.784	10151.44
645.977	10350.09
646.17	10317.33
646.363	10114.58
646.556	10030.61
646.749	10151.44
646.942	9942.55
647.135	9879.06
647.328	9938.45
647.521	9850.39
647.714	9616.92
647.907	9627.16
648.099	9598.49
648.292	9672.22
648.485	9573.91
648.678	9483.8
648.871	9461.27
649.064	9477.66
649.256	9479.71
649.449	9502.23
649.642	9352.73
649.835	9184.8
650.027	9197.09
650.22	9168.41
650.413	8994.34
650.605	9043.49
650.798	9053.73
650.991	8926.75
651.183	8873.51
651.376	8822.31
651.568	8830.5
651.761	8734.25
651.954	8773.16
652.146	8713.77
652.339	8584.74
652.531	8361.52
652.724	8629.8
652.916	8404.52
653.109	8425
653.301	8390.19
653.494	8412.71
653.686	8199.73
653.879	8341.04
654.071	8224.3
654.263	8220.21
654.456	8130.09
654.648	8267.31
654.84	8003.12
655.033	8080.94
655.225	7917.11
655.417	7962.16
655.61	8054.32
655.802	7925.3
655.994	7994.93
656.186	7917.11
656.379	7870
656.571	7804.47
656.763	7683.64
656.955	7700.02
657.148	7695.93
657.34	7622.2
657.532	7374.39
657.724	7734.84
657.916	7482.94
658.108	7466.55
658.3	7269.95
658.492	7284.28
658.684	7192.12
658.876	7224.89
659.068	7317.05
659.26	7202.36
659.452	7134.78
659.644	7294.52
659.836	7095.87
660.028	7022.14
660.22	6940.22
660.412	7024.19
660.604	6780.48
660.796	6981.18
660.988	6917.7
661.18	6860.35
661.372	6792.77
661.563	6671.94
661.755	6823.49
661.947	6641.22
662.139	6717
662.331	6633.03
662.522	6544.97
662.714	6581.83
662.906	6561.35
663.097	6563.4
663.289	6358.6
663.481	6483.53
663.673	6610.5
663.864	6508.1
664.056	6424.14
664.247	6403.66
664.439	6301.26
664.631	6288.97
664.822	6141.52
665.014	6327.88
665.205	6073.93
665.397	6086.22
665.588	6159.95
665.78	6123.09
665.971	6190.67
666.163	6028.88
666.354	6047.31
666.546	6078.03
666.737	5928.53
666.929	5963.34
667.12	5854.8
667.311	5746.26
667.503	5793.36
667.694	5811.79
667.885	5770.83
668.077	5672.53
668.268	5791.31
668.459	5906
668.651	5725.78
668.842	5805.65
669.033	5633.62
669.224	5406.3
669.416	5729.88
669.607	5559.89
669.798	5439.06
669.989	5557.85
670.18	5375.58
670.371	5482.07
670.563	5498.45
670.754	5426.78
670.945	5330.52
671.136	5375.58
671.327	5465.69
671.518	5297.75
671.709	5205.6
671.9	5256.79
672.091	5303.9
672.282	5160.54
672.473	5248.6
672.664	5322.33
672.855	5199.45
673.046	5236.31
673.237	5213.79
673.428	5138.01
673.619	5217.88
673.809	5156.44
674	4988.51
674.191	5109.34
674.382	4984.41
674.573	4937.31
674.764	5092.96
674.954	4882.02
675.145	4931.17
675.336	4976.22
675.527	4851.3
675.717	5002.85
675.908	4779.62
676.099	4865.63
676.289	4832.86
676.48	4863.58
676.671	4818.53
676.861	4820.58
677.052	4726.37
677.243	4658.79
677.433	4681.32
677.624	4728.42
677.814	4718.18
678.005	4574.82
678.195	4634.21
678.386	4763.23
678.576	4718.18
678.767	4636.26
678.957	4644.45
679.148	4736.61
679.338	4638.31
679.529	4484.71
679.719	4542.05
679.909	4638.31
680.1	4707.94
680.29	4583.01
680.481	4474.47
680.671	4648.55
680.861	4413.03
681.052	4361.83
681.242	4423.27
681.432	4453.99
681.622	4341.35
681.813	4544.1
682.003	4494.95
682.193	4378.22
682.383	4458.09
682.573	4466.28
682.764	4439.65
682.954	4380.26
683.144	4429.42
683.334	4312.68
683.524	4214.38
683.714	4286.06
683.904	4292.2
684.094	4347.5
684.284	4236.91
684.474	4302.44
684.664	4341.35
684.854	4400.74
685.044	4159.08
685.234	4308.58
685.424	4253.29
685.614	4126.32
685.804	4202.09
685.994	4165.23
686.184	4234.86
686.374	4200.04
686.564	4159.08
686.753	4138.6
686.943	3976.81
687.133	4152.94
687.323	3989.1
687.513	4052.59
687.702	4017.77
687.892	4030.06
688.082	3980.91
688.272	3999.34
688.461	3925.61
688.651	3890.8
688.841	4001.39
689.03	3907.18
689.22	3950.19
689.41	3913.33
689.599	3913.33
689.789	3851.89
689.979	3733.11
690.168	3827.31
690.358	3849.84
690.547	3786.35
690.737	3686
690.926	3796.59
691.116	3862.13
691.305	3817.07
691.495	3778.16
691.684	3688.05
691.874	3681.91
692.063	3638.9
692.252	3747.44
692.442	3749.49
692.631	3589.75
692.82	3657.33
693.01	3612.28
693.199	3606.13
693.388	3546.74
693.578	3794.54
693.767	3561.08
693.956	3509.88
694.146	3464.82
694.335	3571.32
694.524	3507.83
694.713	3571.32
694.902	3585.65
695.092	3481.21
695.281	3530.36
695.47	3481.21
695.659	3483.25
695.848	3389.05
696.037	3444.34
696.226	3550.84
696.415	3362.42
696.604	3423.86
696.793	3419.77
696.982	3419.77
697.171	3352.18
697.36	3528.31
697.549	3358.33
697.738	3458.68
697.927	3319.42
698.116	3421.81
698.305	3214.97
698.494	3284.6
698.683	3278.46
698.872	3503.73
699.061	3454.58
699.25	3331.7
699.438	3393.14
699.627	3352.18
699.816	3339.9
700.005	3346.04
700.193	3257.98
700.382	3333.75
700.571	3315.32
700.76	3235.45
700.948	3284.6
701.137	3307.13
701.326	3247.74
701.514	3178.11
701.703	3327.61
701.892	3307.13
702.08	3319.42
702.269	3327.61
702.457	3131
702.646	3251.83
702.834	3182.2
703.023	3325.56
703.212	3407.48
703.4	3292.79
703.589	3208.83
703.777	3382.9
703.965	3266.17
704.154	3288.7
704.342	3227.26
704.531	3241.59
704.719	3253.88
704.907	3169.91
705.096	3262.07
705.284	3225.21
705.472	3141.24
705.661	3184.25
705.849	3182.2
706.037	3157.63
706.226	3085.95
706.414	3223.16
706.602	3208.83
706.79	3262.07
706.979	3151.48
707.167	3092.09
707.355	3194.49
707.543	3225.21
707.731	3133.05
707.919	3190.39
708.107	3104.38
708.296	3085.95
708.484	3237.5
708.672	3206.78
708.86	3153.53
709.048	3100.28
709.236	3231.35
709.424	3198.59
709.612	3149.43
709.8	3100.28
709.988	3106.43
710.176	3079.8
710.364	3147.39
710.551	3124.86
710.739	3182.2
710.927	3184.25
711.115	2975.36
711.303	3090.04
711.491	3098.24
711.679	3028.6
711.866	3200.63
712.054	3266.17
712.242	3024.51
712.43	3057.28
712.617	3065.47
712.805	3104.38
712.993	3036.8
713.181	3020.41
713.368	3104.38
713.556	3092.09
713.744	2977.41
713.931	3059.32
714.119	2983.55
714.306	3124.86
714.494	3026.56
714.682	3051.13
714.869	3108.48
715.057	3092.09
715.244	3014.27
715.432	2963.07
715.619	2809.47
715.807	2950.78
715.994	2981.5
716.182	3116.67
716.369	3079.8
716.556	2907.77
716.744	3014.27
716.931	3022.46
717.119	2991.74
717.306	3008.12
717.493	2948.73
717.681	2985.6
717.868	2948.73
718.055	2948.73
718.242	3104.38
718.43	2969.21
718.617	3012.22
718.804	2905.73
718.991	2850.43
719.179	3001.98
719.366	2954.88
719.553	2924.16
719.74	2825.86
719.927	2938.49
720.114	2967.17
720.301	2952.83
720.488	3008.12
720.676	2870.91
720.863	2846.34
721.05	2842.24
721.237	2795.14
721.424	2940.54
721.611	2954.88
721.798	2924.16
721.985	2852.48
722.172	2944.64
722.358	2791.04
722.545	2897.53
722.732	2776.7
722.919	2928.25
723.106	2842.24
723.293	2862.72
723.48	2842.24
723.667	2788.99
723.853	2868.86
724.04	2909.82
724.227	2784.9
724.414	2895.49
724.6	2766.46
724.787	2727.55
724.974	2741.89
725.161	2705.03
725.347	2817.66
725.534	2860.67
725.72	2741.89
725.907	2963.07
726.094	2858.62
726.28	2862.72
726.467	2719.36
726.653	2866.81
726.84	2813.57
727.027	2709.12
727.213	2834.05
727.4	2721.41
727.586	2702.98
727.773	2770.56
727.959	2754.18
728.145	2717.31
728.332	2762.37
728.518	2735.74
728.705	2692.74
728.891	2811.52
729.077	2707.07
729.264	2592.39
729.45	2684.55
729.636	2715.27
729.823	2692.74
730.009	2729.6
730.195	2731.65
730.382	2715.27
730.568	2573.96
730.754	2745.98
730.94	2684.55
731.126	2680.45
731.313	2793.09
731.499	2750.08
731.685	2690.69
731.871	2735.74
732.057	2682.5
732.243	2678.4
732.429	2668.16
732.615	2655.87
732.801	2713.22
732.987	2664.07
733.173	2616.96
733.359	2567.81
733.545	2649.73
733.731	2643.59
733.917	2735.74
734.103	2678.4
734.289	2659.97
734.475	2707.07
734.661	2680.45
734.847	2647.68
735.033	2592.39
735.219	2694.79
735.404	2668.16
735.59	2592.39
735.776	2551.43
735.962	2662.02
736.148	2733.7
736.333	2561.67
736.519	2629.25
736.705	2555.52
736.89	2623.11
737.076	2553.48
737.262	2535.04
737.447	2530.95
737.633	2545.28
737.819	2524.8
738.004	2434.69
738.19	2363.01
738.375	2551.43
738.561	2604.67
738.747	2555.52
738.932	2549.38
739.118	2580.1
739.303	2571.91
739.489	2506.37
739.674	2412.17
739.859	2449.03
740.045	2463.37
740.23	2506.37
740.416	2418.31
740.601	2449.03
740.786	2322.06
740.972	2342.53
741.157	2313.86
741.342	2414.21
741.528	2449.03
741.713	2399.88
741.898	2432.65
742.084	2473.6
742.269	2442.89
742.454	2285.19
742.639	2444.93
742.824	2328.2
743.01	2424.45
743.195	2303.62
743.38	2279.05
743.565	2203.27
743.75	2365.06
743.935	2346.63
744.12	2438.79
744.305	2231.94
744.49	2197.13
744.675	2279.05
744.86	2281.1
745.045	2266.76
745.23	2215.56
745.415	2258.57
745.6	2348.68
745.785	2129.55
745.97	2201.23
746.155	2180.75
746.34	2180.75
746.525	2139.79
746.71	2104.97
746.895	2139.79
747.079	2086.54
747.264	2100.87
747.449	2139.79
747.634	2080.39
747.819	2025.1
748.003	1975.95
748.188	2064.01
748.373	2023.05
748.557	2021
748.742	1992.33
748.927	2059.92
749.111	1949.32
749.296	1932.94
749.481	1975.95
749.665	1967.76
749.85	1937.04
750.034	1941.13
750.219	1894.03
750.404	1955.47
750.588	1914.51
750.773	1883.79
750.957	1951.37
751.141	1711.76
751.326	1877.65
751.51	1724.05
751.695	1867.41
751.879	1805.97
752.064	1863.31
752.248	1775.25
752.432	1701.52
752.617	1789.58
752.801	1625.75
752.985	1699.47
753.17	1740.43
753.354	1605.27
753.538	1711.76
753.722	1713.81
753.907	1670.8
754.091	1691.28
754.275	1648.27
754.459	1642.13
754.643	1543.83
754.828	1625.75
755.012	1629.84
755.196	1607.31
755.38	1568.4
755.564	1461.91
755.748	1545.88
755.932	1539.73
756.116	1484.44
756.3	1437.33
756.484	1549.97
756.668	1509.01
756.852	1498.77
757.036	1449.62
757.22	1482.39
757.404	1394.33
757.588	1412.76
757.772	1478.29
757.956	1476.24
758.14	1402.52
758.323	1394.33
758.507	1449.62
758.691	1427.09
758.875	1328.79
759.059	1357.46
759.242	1466
759.426	1375.89
759.61	1277.59
759.794	1310.36
759.977	1326.74
760.161	1343.13
760.345	1312.41
760.528	1322.65
760.712	1261.21
760.895	1330.84
761.079	1308.31
761.263	1283.74
761.446	1232.54
761.63	1285.78
761.813	1289.88
761.997	1312.41
762.18	1314.45
762.364	1214.1
762.547	1222.3
762.731	1267.35
762.914	1232.54
763.098	1179.29
763.281	1158.81
763.464	1257.11
763.648	1193.62
763.831	1183.38
764.015	1152.67
764.198	1164.95
764.381	1167
764.564	1177.24
764.748	1134.23
764.931	1162.9
765.114	1117.85
765.297	1080.99
765.481	1089.18
765.664	1117.85
765.847	1119.9
766.03	1134.23
766.213	1085.08
766.397	1142.43
766.58	1207.96
766.763	1085.08
766.946	1152.67
767.129	1117.85
767.312	1113.75
767.495	1140.38
767.678	1001.12
767.861	1115.8
768.044	1105.56
768.227	1144.47
768.41	1091.23
768.593	1119.9
768.776	1027.74
768.959	1097.37
769.142	1113.75
769.324	1132.19
769.507	1027.74
769.69	1023.64
769.873	956.06
770.056	1007.26
770.239	1029.79
770.421	1068.7
770.604	982.68
770.787	962.2
770.97	1060.51
771.152	982.68
771.335	947.87
771.518	968.35
771.7	974.49
771.883	978.59
772.066	988.83
772.248	874.14
772.431	982.68
772.613	933.53
772.796	904.86
772.978	1023.64
773.161	925.34
773.343	958.11
773.526	820.89
773.708	837.28
773.891	902.81
774.073	929.44
774.256	868
774.438	904.86
774.621	956.06
774.803	831.13
774.985	859.81
775.168	972.44
775.35	892.57
775.532	820.89
775.715	874.14
775.897	804.51
776.079	829.09
776.261	781.98
776.444	814.75
776.626	806.56
776.808	757.41
776.99	810.65
777.173	757.41
777.355	794.27
777.537	775.84
777.719	829.09
777.901	695.97
778.083	796.32
778.265	734.88
778.447	831.13
778.629	747.17
778.811	734.88
778.993	732.83
779.175	738.98
779.357	769.69
779.539	702.11
779.721	644.77
779.903	761.5
780.085	685.73
780.267	726.69
780.449	677.54
780.631	698.02
780.812	616.1
780.994	726.69
781.176	718.5
781.358	626.34
781.54	630.43
781.721	681.63
781.903	642.72
782.085	626.34
782.267	636.58
782.448	646.82
782.63	601.76
782.812	585.38
782.993	634.53
783.175	650.91
783.357	519.84
783.538	636.58
783.72	593.57
783.901	564.9
784.083	558.75
784.264	640.67
784.446	472.74
784.627	480.93
784.809	634.53
784.99	542.37
785.172	540.32
785.353	536.23
785.535	564.9
785.716	577.19
785.897	536.23
786.079	530.08
786.26	571.04
786.441	564.9
786.623	482.98
786.804	472.74
786.985	530.08
787.167	532.13
787.348	548.51
787.529	470.69
787.71	538.27
787.891	493.22
788.073	454.31
788.254	513.7
788.435	435.88
788.616	460.45
788.797	415.4
788.978	456.36
789.159	437.92
789.34	476.84
789.522	464.55
789.703	415.4
789.884	530.08
790.065	374.44
790.246	439.97
790.427	421.54
790.607	442.02
790.788	460.45
790.969	366.25
791.15	437.92
791.331	435.88
791.512	394.92
791.693	442.02
791.874	366.25
792.054	399.01
792.235	411.3
792.416	331.43
792.597	415.4
792.778	423.59
792.958	409.25
793.139	351.91
793.32	411.3
793.5	300.71
793.681	331.43
793.862	341.67
794.042	425.64
794.223	366.25
794.404	386.72
794.584	360.1
794.765	294.57
794.945	323.24
795.126	292.52
795.306	399.01
795.487	292.52
795.667	343.72
795.848	345.77
796.028	327.33
796.209	409.25
796.389	323.24
796.57	290.47
796.75	317.09
796.93	368.29
797.111	382.63
797.291	411.3
797.471	329.38
797.652	274.09
797.832	382.63
798.012	317.09
798.192	272.04
798.373	259.75
798.553	294.57
798.733	300.71
798.913	269.99
799.093	286.37
799.274	288.42
799.454	319.14
799.634	351.91
799.814	259.75
799.994	286.37
800.174	265.89
800.354	282.28
800.534	237.22
800.714	249.51
800.894	290.47
801.074	202.41
801.254	317.09
801.434	280.23
801.614	298.66
801.794	257.7
801.974	618.15
802.154	308.9
802.334	308.9
802.514	288.42
802.693	216.74
802.873	251.56
803.053	274.09
803.233	194.22
803.413	243.37
803.592	251.56
803.772	333.48
803.952	278.18
804.131	224.94
804.311	202.41
804.491	235.18
804.67	204.46
804.85	247.46
805.03	204.46
805.209	186.02
805.389	218.79
805.568	245.41
805.748	251.56
805.928	210.6
806.107	259.75
806.287	204.46
806.466	280.23
806.646	249.51
806.825	222.89
807.004	212.65
807.184	233.13
807.363	272.04
807.543	192.17
807.722	206.5
807.901	257.7
808.081	249.51
808.26	194.22
808.439	169.64
808.619	222.89
808.798	210.6
808.977	231.08
809.156	210.6
809.336	294.57
809.515	272.04
809.694	224.94
809.873	198.31
810.052	214.7
810.231	198.31
810.411	183.98
810.59	214.7
810.769	190.12
810.948	218.79
811.127	188.07
811.306	186.02
811.485	206.5
811.664	298.66
811.843	226.98
812.022	208.55
812.201	186.02
812.38	179.88
812.559	175.78
812.737	169.64
812.916	149.16
813.095	147.11
813.274	202.41
813.453	155.3
813.632	151.21
813.811	181.93
813.989	87.72
814.168	204.46
814.347	126.63
814.526	147.11
814.704	202.41
814.883	241.32
815.062	30.38
815.24	192.17
815.419	132.78
815.598	267.94
815.776	50.86
815.955	157.35
816.133	100.01
816.312	153.26
816.49	175.78
816.669	97.96
816.847	130.73
817.026	241.32
817.204	130.73
817.383	140.97
817.561	202.41
817.74	75.43
817.918	226.98
818.097	120.49
818.275	112.3
818.453	63.15
818.632	186.02
818.81	179.88
818.988	247.46
819.167	200.36
819.345	231.08
819.523	83.63
819.701	177.83
819.879	116.39
820.058	138.92
820.236	153.26
820.414	65.19
820.592	95.91
820.77	194.22
820.948	149.16
821.127	132.78
821.305	169.64
821.483	91.82
821.661	124.58
821.839	89.77
822.017	104.11
822.195	118.44
822.373	149.16
822.551	134.82
822.729	97.96
822.907	163.5
823.085	165.54
823.262	155.3
823.44	120.49
823.618	112.3
823.796	91.82
823.974	143.02
824.152	26.28
824.329	77.48
824.507	122.54
824.685	97.96
824.863	97.96
825.04	106.15
825.218	157.35
825.396	89.77
825.574	132.78
825.751	175.78
825.929	136.87
826.107	75.43
826.284	24.23
826.462	149.16
826.639	97.96
826.817	97.96
826.994	126.63
827.172	161.45
827.349	108.2
827.527	151.21
827.704	87.72
827.882	126.63
828.059	134.82
828.237	134.82
828.414	93.87
828.591	-2.39
828.769	100.01
828.946	81.58
829.124	100.01
829.301	138.92
829.478	44.71
829.655	155.3
829.833	97.96
830.01	108.2
830.187	106.15
830.364	177.83
830.542	79.53
830.719	202.41
830.896	149.16
831.073	112.3
831.25	104.11
831.427	124.58
831.604	102.06
831.782	-2.39
831.959	122.54
832.136	93.87
832.313	145.06
832.49	112.3
832.667	112.3
832.844	34.47
833.021	151.21
833.198	116.39
833.374	145.06
833.551	97.96
833.728	11.95
833.905	77.48
834.082	77.48
834.259	130.73
834.436	81.58
834.612	44.71
834.789	83.63
834.966	79.53
835.143	73.39
835.319	59.05
835.496	75.43
835.673	-0.34
835.85	69.29
836.026	95.91
836.203	57
836.38	75.43
836.556	126.63
836.733	87.72
836.909	112.3
837.086	46.76
837.262	44.71
837.439	57
837.616	7.85
837.792	40.62
837.968	106.15
838.145	16.04
838.321	18.09
838.498	134.82
838.674	40.62
838.851	61.1
839.027	9.9
839.203	81.58
839.38	40.62
839.556	26.28
839.732	28.33
839.909	73.39
840.085	73.39
840.261	38.57
840.437	65.19
840.614	30.38
840.79	93.87
840.966	93.87
841.142	50.86
841.318	81.58
841.494	34.47
841.671	124.58
841.847	28.33
842.023	36.52
842.199	110.25
842.375	85.67
842.551	85.67
842.727	20.14
842.903	134.82
843.079	36.52
843.255	95.91
843.431	7.85
843.607	18.09
843.783	20.14
843.959	114.34
844.134	-29.01
844.31	32.43
844.486	120.49
844.662	26.28
844.838	40.62
845.013	7.85
845.189	48.81
845.365	11.95
845.541	77.48
845.716	52.91
845.892	73.39
846.068	-8.53
846.244	110.25
846.419	71.34
846.595	63.15
846.77	52.91
846.946	36.52
847.122	61.1
847.297	54.95
847.473	40.62
847.648	34.47
847.824	79.53
847.999	-18.77
848.175	44.71
848.35	69.29
848.526	79.53
848.701	24.23
848.876	54.95
849.052	57
849.227	87.72
849.403	32.43
849.578	48.81
849.753	-12.63
849.929	75.43
850.104	67.24
850.279	104.11
850.454	71.34
850.63	34.47
850.805	102.06
850.98	16.04
851.155	20.14
851.33	138.92
851.505	24.23
851.681	30.38
851.856	40.62
852.031	65.19
852.206	7.85
852.381	46.76
852.556	1.71
852.731	120.49
852.906	54.95
853.081	46.76
853.256	57
853.431	11.95
853.606	85.67
853.781	89.77
853.956	-4.44
854.131	-43.35
854.305	71.34
854.48	73.39
854.655	-16.73
854.83	44.71
855.005	9.9
855.18	3.75
855.354	5.8
855.529	20.14
855.704	63.15
855.879	63.15
856.053	24.23
856.228	79.53
856.403	-8.53
856.577	36.52
856.752	22.19
856.926	24.23
857.101	32.43
857.276	32.43
857.45	83.63
857.625	61.1
857.799	-35.16
857.974	30.38
858.148	32.43
858.323	91.82
858.497	42.67
858.672	-6.49
858.846	-8.53
859.02	32.43
859.195	52.91
859.369	26.28
859.543	-49.49
859.718	13.99
859.892	48.81
860.066	52.91
860.241	50.86
860.415	54.95
860.589	46.76
860.763	48.81
860.938	63.15
861.112	85.67
861.286	-33.11
861.46	44.71
861.634	-26.96
861.808	59.05
861.982	-18.77
862.157	50.86
862.331	9.9
862.505	18.09
862.679	-33.11
862.853	-20.82
863.027	61.1
863.201	3.75
863.375	-39.25
863.549	34.47
863.722	5.8
863.896	52.91
864.07	5.8
864.244	-20.82
864.418	52.91
864.592	67.24
864.766	44.71
864.939	61.1
865.113	7.85
865.287	54.95
865.461	3.75
865.634	7.85
865.808	16.04
865.982	28.33
866.156	36.52
866.329	-24.92
866.503	48.81
866.676	100.01
866.85	24.23
867.024	-0.34
867.197	93.87
867.371	77.48
867.544	22.19
867.718	-16.73
867.891	69.29
868.065	7.85
868.238	-18.77
868.412	34.47
868.585	75.43
868.759	7.85
868.932	-26.96
869.105	-0.34
869.279	57
869.452	-0.34
869.625	18.09
869.799	36.52
869.972	-39.25
870.145	63.15
870.319	-67.92
870.492	28.33
870.665	48.81
870.838	18.09
871.011	-31.06
871.185	13.99
871.358	-43.35
871.531	28.33
871.704	5.8
871.877	65.19
872.05	-4.44
872.223	46.76
872.396	36.52
872.569	-29.01
872.742	44.71
872.915	40.62
873.088	-26.96
873.261	65.19
873.434	100.01
873.607	-10.58
873.78	28.33
873.953	24.23
874.126	48.81
874.299	34.47
874.471	34.47
874.644	75.43
874.817	-39.25
874.99	89.77
875.163	57
875.335	61.1
875.508	9.9
875.681	-20.82
875.853	-14.68
876.026	-24.92
876.199	16.04
876.371	-12.63
876.544	83.63
876.717	-37.2
876.889	114.34
877.062	38.57
877.234	-8.53
877.407	-0.34
877.579	1.71
877.752	52.91
877.924	9.9
878.097	57
878.269	-16.73
878.442	-49.49
878.614	24.23
878.786	1.71
878.959	32.43
879.131	34.47
879.303	-92.5
879.476	3.75
879.648	34.47
879.82	110.25
879.993	13.99
880.165	-33.11
880.337	-16.73
880.509	11.95
880.681	20.14
880.854	54.95
881.026	20.14
881.198	46.76
881.37	22.19
881.542	-26.96
881.714	13.99
881.886	77.48
882.058	-33.11
882.23	30.38
882.402	44.71
882.574	42.67
882.746	-4.44
882.918	44.71
883.09	-33.11
883.262	-53.59
883.434	-22.87
883.606	34.47
883.778	-51.54
883.95	22.19
884.122	11.95
884.293	63.15
884.465	1.71
884.637	-31.06
884.809	-39.25
884.98	30.38
885.152	7.85
885.324	9.9
885.496	-2.39
885.667	-0.34
885.839	-29.01
886.011	16.04
886.182	9.9
886.354	11.95
886.525	73.39
886.697	48.81
886.869	46.76
887.04	63.15
887.212	5.8
887.383	50.86
887.555	-12.63
887.726	61.1
887.897	20.14
888.069	40.62
888.24	1.71
888.412	13.99
888.583	-47.44
888.754	89.77
888.926	63.15
889.097	24.23
889.268	-37.2
889.44	48.81
889.611	24.23
889.782	54.95
889.953	-20.82
890.125	42.67
890.296	3.75
890.467	-16.73
890.638	46.76
890.809	3.75
890.98	26.28
891.151	-4.44
891.323	112.3
891.494	-2.39
891.665	48.81
891.836	11.95
892.007	81.58
892.178	13.99
892.349	-4.44
892.52	-22.87
892.691	-24.92
892.862	52.91
893.032	-4.44
893.203	-37.2
893.374	-29.01
893.545	36.52
893.716	11.95
893.887	18.09
894.057	-45.4
894.228	-12.63
894.399	-24.92
894.57	46.76
894.74	-10.58
894.911	108.2
895.082	11.95
895.253	-67.92
895.423	11.95
895.594	7.85
895.764	36.52
895.935	75.43
896.106	52.91
896.276	-0.34
896.447	-12.63
896.617	-10.58
896.788	-0.34
896.958	79.53
897.129	-8.53
897.299	22.19
897.47	-14.68
897.64	65.19
897.81	-29.01
897.981	-29.01
898.151	-39.25
898.322	-41.3
898.492	52.91
898.662	-33.11
898.832	-37.2
899.003	34.47
899.173	11.95
899.343	46.76
899.513	-31.06
