Data from USB4F104151__134__11-07-48-694.txt Node

Date: Wed Mar 12 11:07:48 EDT 2025
User: louis
Spectrometer: USB4F10415
Trigger mode: 4
Integration Time (sec): 2.000000E-2
Scans to average: 1
Electric dark correction enabled: true
Nonlinearity correction enabled: false
Boxcar width: 0
XAxis mode: Wavelengths
Number of Pixels in Spectrum: 3648
>>>>>Begin Spectral Data<<<<<
178.204	-44.88
178.424	-44.88
178.644	-44.88
178.864	-128.85
179.084	-67.41
179.304	-102.23
179.524	-5.97
179.744	0.17
179.964	61.61
180.184	-22.36
180.404	4.27
180.624	-12.12
180.844	22.7
181.064	-12.12
181.283	69.8
181.503	2.22
181.723	-5.97
181.943	-38.74
182.163	26.79
182.383	20.65
182.602	47.27
182.822	22.7
183.042	63.66
183.262	-24.4
183.482	47.27
183.701	18.6
183.921	18.6
184.141	-1.88
184.361	98.47
184.58	-77.65
184.8	59.56
185.02	-51.03
185.239	26.79
185.459	-10.07
185.679	84.14
185.898	39.08
186.118	20.65
186.338	-28.5
186.557	86.19
186.777	51.37
186.997	-22.36
187.216	73.9
187.436	41.13
187.655	24.75
187.875	8.36
188.095	90.28
188.314	-48.98
188.534	73.9
188.753	80.04
188.973	24.75
189.192	2.22
189.412	-18.26
189.631	30.89
189.851	43.18
190.07	4.27
190.29	-8.02
190.509	14.51
190.729	55.47
190.948	51.37
191.168	88.23
191.387	67.75
191.607	34.99
191.826	34.99
192.045	12.46
192.265	77.99
192.484	12.46
192.704	-18.26
192.923	-5.97
193.142	10.41
193.362	98.47
193.581	65.71
193.8	65.71
194.02	71.85
194.239	45.23
194.458	10.41
194.678	94.38
194.897	0.17
195.116	39.08
195.335	73.9
195.555	8.36
195.774	-18.26
195.993	14.51
196.212	4.27
196.432	-5.97
196.651	47.27
196.87	90.28
197.089	18.6
197.308	10.41
197.528	80.04
197.747	57.51
197.966	-8.02
198.185	34.99
198.404	10.41
198.623	82.09
198.842	88.23
199.062	43.18
199.281	59.56
199.5	69.8
199.719	10.41
199.938	47.27
200.157	22.7
200.376	0.17
200.595	75.95
200.814	37.03
201.033	22.7
201.252	125.1
201.471	20.65
201.69	37.03
201.909	53.42
202.128	30.89
202.347	34.99
202.566	14.51
202.785	63.66
203.004	61.61
203.223	88.23
203.442	-22.36
203.661	26.79
203.879	77.99
204.098	96.43
204.317	22.7
204.536	69.8
204.755	20.65
204.974	55.47
205.193	12.46
205.411	84.14
205.63	2.22
205.849	112.81
206.068	47.27
206.287	77.99
206.505	92.33
206.724	-22.36
206.943	71.85
207.162	-28.5
207.381	10.41
207.599	47.27
207.818	71.85
208.037	49.32
208.255	16.55
208.474	0.17
208.693	49.32
208.911	53.42
209.13	51.37
209.349	22.7
209.567	73.9
209.786	43.18
210.005	32.94
210.223	18.6
210.442	-12.12
210.661	32.94
210.879	53.42
211.098	-20.31
211.316	34.99
211.535	6.31
211.753	22.7
211.972	94.38
212.191	39.08
212.409	20.65
212.628	20.65
212.846	49.32
213.065	8.36
213.283	121
213.502	24.75
213.72	-5.97
213.938	55.47
214.157	69.8
214.375	49.32
214.594	-5.97
214.812	96.43
215.031	39.08
215.249	8.36
215.467	18.6
215.686	65.71
215.904	123.05
216.122	77.99
216.341	59.56
216.559	71.85
216.778	51.37
216.996	12.46
217.214	75.95
217.432	24.75
217.651	41.13
217.869	86.19
218.087	-57.17
218.306	10.41
218.524	26.79
218.742	18.6
218.96	28.84
219.179	22.7
219.397	-36.69
219.615	71.85
219.833	8.36
220.051	-14.17
220.27	57.51
220.488	92.33
220.706	110.76
220.924	-24.4
221.142	39.08
221.36	-8.02
221.578	4.27
221.796	67.75
222.015	92.33
222.233	39.08
222.451	121
222.669	-1.88
222.887	30.89
223.105	69.8
223.323	2.22
223.541	0.17
223.759	53.42
223.977	39.08
224.195	10.41
224.413	82.09
224.631	-14.17
224.849	34.99
225.067	16.55
225.285	49.32
225.503	61.61
225.721	41.13
225.939	43.18
226.157	37.03
226.375	71.85
226.592	59.56
226.81	4.27
227.028	96.43
227.246	65.71
227.464	-16.21
227.682	10.41
227.9	-75.6
228.117	-1.88
228.335	26.79
228.553	2.22
228.771	57.51
228.989	39.08
229.206	-28.5
229.424	-24.4
229.642	69.8
229.86	-12.12
230.077	47.27
230.295	-30.55
230.513	47.27
230.731	59.56
230.948	30.89
231.166	14.51
231.384	63.66
231.601	53.42
231.819	55.47
232.037	26.79
232.254	-1.88
232.472	57.51
232.689	82.09
232.907	16.55
233.125	69.8
233.342	8.36
233.56	14.51
233.777	59.56
233.995	96.43
234.213	90.28
234.43	82.09
234.648	59.56
234.865	53.42
235.083	90.28
235.3	39.08
235.518	-5.97
235.735	63.66
235.953	69.8
236.17	67.75
236.388	73.9
236.605	2.22
236.822	65.71
237.04	-10.07
237.257	16.55
237.475	16.55
237.692	94.38
237.909	41.13
238.127	51.37
238.344	0.17
238.562	71.85
238.779	20.65
238.996	94.38
239.214	34.99
239.431	14.51
239.648	16.55
239.865	-38.74
240.083	-8.02
240.3	-5.97
240.517	59.56
240.735	59.56
240.952	112.81
241.169	39.08
241.386	63.66
241.603	0.17
241.821	26.79
242.038	94.38
242.255	63.66
242.472	16.55
242.689	88.23
242.907	57.51
243.124	4.27
243.341	-28.5
243.558	4.27
243.775	14.51
243.992	18.6
244.209	-1.88
244.426	53.42
244.643	30.89
244.86	57.51
245.078	80.04
245.295	32.94
245.512	118.95
245.729	2.22
245.946	2.22
246.163	55.47
246.38	77.99
246.597	24.75
246.814	71.85
247.031	28.84
247.248	39.08
247.464	71.85
247.681	-1.88
247.898	59.56
248.115	45.23
248.332	14.51
248.549	-16.21
248.766	32.94
248.983	88.23
249.2	-34.64
249.417	32.94
249.633	94.38
249.85	86.19
250.067	-38.74
250.284	125.1
250.501	20.65
250.717	14.51
250.934	-18.26
251.151	77.99
251.368	-20.31
251.585	-5.97
251.801	-3.93
252.018	47.27
252.235	86.19
252.451	92.33
252.668	0.17
252.885	28.84
253.102	65.71
253.318	94.38
253.535	8.36
253.752	51.37
253.968	-28.5
254.185	28.84
254.401	45.23
254.618	82.09
254.835	-5.97
255.051	118.95
255.268	-1.88
255.484	-5.97
255.701	12.46
255.917	47.27
256.134	30.89
256.351	-10.07
256.567	39.08
256.784	104.62
257	2.22
257.217	32.94
257.433	71.85
257.65	41.13
257.866	57.51
258.082	49.32
258.299	63.66
258.515	34.99
258.732	39.08
258.948	-44.88
259.165	-32.6
259.381	32.94
259.597	55.47
259.814	24.75
260.03	82.09
260.246	53.42
260.463	94.38
260.679	104.62
260.895	20.65
261.112	20.65
261.328	-18.26
261.544	53.42
261.761	57.51
261.977	92.33
262.193	22.7
262.409	59.56
262.626	94.38
262.842	32.94
263.058	49.32
263.274	-1.88
263.49	61.61
263.707	135.34
263.923	59.56
264.139	6.31
264.355	-1.88
264.571	43.18
264.787	30.89
265.004	63.66
265.22	94.38
265.436	24.75
265.652	80.04
265.868	34.99
266.084	39.08
266.3	6.31
266.516	59.56
266.732	-16.21
266.948	28.84
267.164	84.14
267.38	-24.4
267.596	96.43
267.812	18.6
268.028	106.67
268.244	28.84
268.46	57.51
268.676	39.08
268.892	4.27
269.108	37.03
269.324	41.13
269.54	16.55
269.756	116.9
269.972	-5.97
270.188	139.43
270.403	94.38
270.619	39.08
270.835	82.09
271.051	65.71
271.267	4.27
271.483	-1.88
271.698	61.61
271.914	26.79
272.13	84.14
272.346	4.27
272.562	49.32
272.777	51.37
272.993	-20.31
273.209	4.27
273.425	69.8
273.64	0.17
273.856	67.75
274.072	-8.02
274.287	90.28
274.503	43.18
274.719	10.41
274.934	26.79
275.15	4.27
275.366	24.75
275.581	0.17
275.797	112.81
276.012	-20.31
276.228	-14.17
276.444	16.55
276.659	41.13
276.875	34.99
277.09	-5.97
277.306	12.46
277.521	47.27
277.737	75.95
277.952	112.81
278.168	67.75
278.383	63.66
278.599	-16.21
278.814	59.56
279.03	61.61
279.245	75.95
279.461	139.43
279.676	41.13
279.892	41.13
280.107	22.7
280.322	20.65
280.538	22.7
280.753	-18.26
280.969	106.67
281.184	45.23
281.399	88.23
281.615	-1.88
281.83	43.18
282.045	82.09
282.26	34.99
282.476	57.51
282.691	65.71
282.906	51.37
283.122	4.27
283.337	110.76
283.552	39.08
283.767	16.55
283.983	106.67
284.198	20.65
284.413	2.22
284.628	-20.31
284.843	114.86
285.058	114.86
285.274	26.79
285.489	63.66
285.704	39.08
285.919	90.28
286.134	16.55
286.349	116.9
286.564	65.71
286.779	-24.4
286.995	24.75
287.21	-24.4
287.425	4.27
287.64	47.27
287.855	37.03
288.07	-16.21
288.285	39.08
288.5	4.27
288.715	71.85
288.93	71.85
289.145	65.71
289.36	47.27
289.575	30.89
289.79	49.32
290.004	71.85
290.219	41.13
290.434	-5.97
290.649	51.37
290.864	57.51
291.079	49.32
291.294	112.81
291.509	108.71
291.724	39.08
291.938	57.51
292.153	37.03
292.368	-65.36
292.583	26.79
292.798	86.19
293.012	-5.97
293.227	53.42
293.442	16.55
293.657	92.33
293.871	86.19
294.086	0.17
294.301	73.9
294.516	69.8
294.73	112.81
294.945	-20.31
295.16	41.13
295.374	116.9
295.589	37.03
295.804	30.89
296.018	16.55
296.233	43.18
296.447	69.8
296.662	61.61
296.877	20.65
297.091	69.8
297.306	82.09
297.52	65.71
297.735	88.23
297.949	-3.93
298.164	41.13
298.378	26.79
298.593	65.71
298.807	22.7
299.022	90.28
299.236	16.55
299.451	92.33
299.665	69.8
299.88	41.13
300.094	34.99
300.309	96.43
300.523	43.18
300.737	127.14
300.952	26.79
301.166	55.47
301.381	-16.21
301.595	18.6
301.809	34.99
302.024	49.32
302.238	45.23
302.452	86.19
302.667	41.13
302.881	41.13
303.095	18.6
303.309	18.6
303.524	75.95
303.738	47.27
303.952	-20.31
304.166	-14.17
304.381	2.22
304.595	86.19
304.809	45.23
305.023	39.08
305.237	2.22
305.452	84.14
305.666	22.7
305.88	55.47
306.094	53.42
306.308	51.37
306.522	20.65
306.736	73.9
306.95	0.17
307.164	14.51
307.379	90.28
307.593	18.6
307.807	55.47
308.021	69.8
308.235	47.27
308.449	4.27
308.663	34.99
308.877	100.52
309.091	30.89
309.305	67.75
309.519	51.37
309.733	73.9
309.947	22.7
310.161	59.56
310.374	59.56
310.588	149.67
310.802	26.79
311.016	65.71
311.23	137.38
311.444	51.37
311.658	59.56
311.872	-5.97
312.085	-40.79
312.299	26.79
312.513	41.13
312.727	20.65
312.941	-30.55
313.154	-38.74
313.368	20.65
313.582	16.55
313.796	51.37
314.009	18.6
314.223	26.79
314.437	34.99
314.651	100.52
314.864	-16.21
315.078	75.95
315.292	53.42
315.505	55.47
315.719	133.29
315.933	84.14
316.146	49.32
316.36	6.31
316.573	94.38
316.787	22.7
317.001	104.62
317.214	82.09
317.428	80.04
317.641	-28.5
317.855	143.53
318.068	39.08
318.282	4.27
318.495	24.75
318.709	110.76
318.922	20.65
319.136	37.03
319.349	63.66
319.563	39.08
319.776	-12.12
319.99	4.27
320.203	-5.97
320.417	34.99
320.63	88.23
320.843	41.13
321.057	34.99
321.27	47.27
321.483	108.71
321.697	88.23
321.91	22.7
322.124	43.18
322.337	-18.26
322.55	47.27
322.763	59.56
322.977	96.43
323.19	20.65
323.403	41.13
323.617	16.55
323.83	57.51
324.043	14.51
324.256	63.66
324.469	16.55
324.683	75.95
324.896	16.55
325.109	-10.07
325.322	63.66
325.535	88.23
325.748	28.84
325.962	2.22
326.175	30.89
326.388	28.84
326.601	24.75
326.814	75.95
327.027	80.04
327.24	77.99
327.453	-14.17
327.666	57.51
327.879	49.32
328.092	22.7
328.305	-26.45
328.518	30.89
328.731	-1.88
328.944	4.27
329.157	-3.93
329.37	20.65
329.583	57.51
329.796	37.03
330.009	47.27
330.222	39.08
330.435	-14.17
330.648	22.7
330.861	43.18
331.073	43.18
331.286	22.7
331.499	84.14
331.712	77.99
331.925	59.56
332.138	4.27
332.35	26.79
332.563	24.75
332.776	4.27
332.989	-26.45
333.202	24.75
333.414	100.52
333.627	49.32
333.84	32.94
334.053	71.85
334.265	28.84
334.478	16.55
334.691	34.99
334.903	24.75
335.116	-1.88
335.329	71.85
335.541	10.41
335.754	75.95
335.966	-51.03
336.179	69.8
336.392	49.32
336.604	49.32
336.817	67.75
337.029	45.23
337.242	53.42
337.454	86.19
337.667	71.85
337.88	129.19
338.092	16.55
338.305	39.08
338.517	16.55
338.729	45.23
338.942	61.61
339.154	32.94
339.367	88.23
339.579	125.1
339.792	57.51
340.004	-34.64
340.217	51.37
340.429	45.23
340.641	63.66
340.854	84.14
341.066	-26.45
341.278	75.95
341.491	26.79
341.703	-1.88
341.915	2.22
342.128	71.85
342.34	67.75
342.552	67.75
342.764	34.99
342.977	139.43
343.189	18.6
343.401	57.51
343.613	26.79
343.826	37.03
344.038	34.99
344.25	49.32
344.462	92.33
344.674	51.37
344.886	59.56
345.099	22.7
345.311	32.94
345.523	82.09
345.735	92.33
345.947	41.13
346.159	61.61
346.371	61.61
346.583	86.19
346.795	92.33
347.007	-46.93
347.219	-53.08
347.431	41.13
347.643	123.05
347.855	69.8
348.067	100.52
348.279	63.66
348.491	6.31
348.703	88.23
348.915	18.6
349.127	-26.45
349.339	51.37
349.551	59.56
349.763	67.75
349.975	57.51
350.187	137.38
350.399	32.94
350.61	2.22
350.822	57.51
351.034	82.09
351.246	24.75
351.458	127.14
351.669	61.61
351.881	65.71
352.093	20.65
352.305	37.03
352.517	69.8
352.728	8.36
352.94	63.66
353.152	73.9
353.363	16.55
353.575	14.51
353.787	69.8
353.999	65.71
354.21	43.18
354.422	22.7
354.633	41.13
354.845	94.38
355.057	14.51
355.268	110.76
355.48	20.65
355.692	28.84
355.903	37.03
356.115	22.7
356.326	106.67
356.538	59.56
356.749	131.24
356.961	82.09
357.172	82.09
357.384	57.51
357.595	114.86
357.807	59.56
358.018	73.9
358.23	43.18
358.441	28.84
358.653	84.14
358.864	43.18
359.075	24.75
359.287	22.7
359.498	71.85
359.709	45.23
359.921	41.13
360.132	75.95
360.344	63.66
360.555	73.9
360.766	43.18
360.977	34.99
361.189	94.38
361.4	61.61
361.611	53.42
361.823	153.77
362.034	47.27
362.245	51.37
362.456	100.52
362.667	51.37
362.879	65.71
363.09	57.51
363.301	141.48
363.512	30.89
363.723	22.7
363.935	47.27
364.146	133.29
364.357	47.27
364.568	129.19
364.779	-14.17
364.99	82.09
365.201	28.84
365.412	63.66
365.623	43.18
365.834	57.51
366.045	34.99
366.256	32.94
366.467	28.84
366.678	55.47
366.889	51.37
367.1	94.38
367.311	71.85
367.522	71.85
367.733	153.77
367.944	16.55
368.155	20.65
368.366	59.56
368.577	8.36
368.788	6.31
368.999	75.95
369.209	69.8
369.42	32.94
369.631	135.34
369.842	43.18
370.053	30.89
370.264	63.66
370.474	0.17
370.685	2.22
370.896	67.75
371.107	84.14
371.317	82.09
371.528	65.71
371.739	88.23
371.95	34.99
372.16	63.66
372.371	106.67
372.582	10.41
372.792	55.47
373.003	-65.36
373.214	61.61
373.424	37.03
373.635	-22.36
373.846	108.71
374.056	43.18
374.267	118.95
374.477	2.22
374.688	57.51
374.898	12.46
375.109	51.37
375.319	28.84
375.53	88.23
375.74	34.99
375.951	67.75
376.161	94.38
376.372	75.95
376.582	75.95
376.793	80.04
377.003	-20.31
377.214	-8.02
377.424	88.23
377.635	82.09
377.845	121
378.055	100.52
378.266	34.99
378.476	10.41
378.686	75.95
378.897	69.8
379.107	39.08
379.317	69.8
379.528	34.99
379.738	26.79
379.948	102.57
380.158	55.47
380.369	67.75
380.579	59.56
380.789	57.51
380.999	108.71
381.21	37.03
381.42	2.22
381.63	24.75
381.84	61.61
382.05	125.1
382.261	53.42
382.471	75.95
382.681	65.71
382.891	77.99
383.101	14.51
383.311	18.6
383.521	34.99
383.731	98.47
383.941	75.95
384.151	65.71
384.361	67.75
384.571	20.65
384.781	47.27
384.991	75.95
385.201	45.23
385.411	86.19
385.621	69.8
385.831	49.32
386.041	45.23
386.251	4.27
386.461	84.14
386.671	69.8
386.881	47.27
387.091	84.14
387.301	110.76
387.511	90.28
387.72	-10.07
387.93	65.71
388.14	86.19
388.35	41.13
388.56	55.47
388.769	96.43
388.979	10.41
389.189	86.19
389.399	51.37
389.609	65.71
389.818	10.41
390.028	69.8
390.238	75.95
390.447	77.99
390.657	166.06
390.867	71.85
391.076	4.27
391.286	116.9
391.496	49.32
391.705	73.9
391.915	59.56
392.125	51.37
392.334	41.13
392.544	147.62
392.753	67.75
392.963	75.95
393.172	86.19
393.382	55.47
393.591	145.58
393.801	94.38
394.01	84.14
394.22	18.6
394.429	57.51
394.639	20.65
394.848	49.32
395.058	80.04
395.267	53.42
395.477	49.32
395.686	129.19
395.895	88.23
396.105	127.14
396.314	100.52
396.524	67.75
396.733	104.62
396.942	121
397.152	94.38
397.361	84.14
397.57	-10.07
397.78	98.47
397.989	41.13
398.198	147.62
398.407	131.24
398.617	114.86
398.826	112.81
399.035	57.51
399.244	67.75
399.453	112.81
399.663	139.43
399.872	41.13
400.081	77.99
400.29	51.37
400.499	63.66
400.708	100.52
400.917	75.95
401.127	121
401.336	49.32
401.545	147.62
401.754	145.58
401.963	90.28
402.172	88.23
402.381	61.61
402.59	141.48
402.799	135.34
403.008	137.38
403.217	157.86
403.426	86.19
403.635	145.58
403.844	108.71
404.053	123.05
404.262	102.57
404.471	164.01
404.68	90.28
404.888	123.05
405.097	143.53
405.306	176.3
405.515	145.58
405.724	92.33
405.933	157.86
406.142	190.63
406.35	178.34
406.559	229.54
406.768	82.09
406.977	166.06
407.185	108.71
407.394	135.34
407.603	86.19
407.812	129.19
408.02	135.34
408.229	194.73
408.438	192.68
408.646	125.1
408.855	192.68
409.064	155.82
409.272	182.44
409.481	209.06
409.69	213.16
409.898	188.58
410.107	235.69
410.315	288.93
410.524	274.6
410.733	202.92
410.941	274.6
411.15	336.04
411.358	374.95
411.567	342.18
411.775	383.14
411.984	325.8
412.192	331.94
412.401	336.04
412.609	360.61
412.818	424.1
413.026	415.91
413.234	452.77
413.443	411.81
413.651	346.28
413.86	358.57
414.068	499.88
414.276	471.2
414.485	377
414.693	532.64
414.901	530.59
415.11	532.64
415.318	544.93
415.526	567.46
415.734	622.75
415.943	686.24
416.151	632.99
416.359	645.28
416.567	741.54
416.776	692.38
416.984	733.34
417.192	823.45
417.4	733.34
417.608	749.73
417.817	800.93
418.025	886.94
418.233	925.85
418.441	870.56
418.649	938.14
418.857	932
419.065	944.28
419.273	950.43
419.481	972.96
419.689	1130.65
419.897	1222.81
420.105	1214.62
420.313	1063.07
420.521	1194.14
420.729	1310.87
420.937	1202.33
421.145	1355.93
421.353	1441.94
421.561	1530
421.769	1413.27
421.977	1566.87
422.185	1605.78
422.393	1659.03
422.601	1708.18
422.809	1759.38
423.017	1751.18
423.224	1872.01
423.432	1912.97
423.64	1988.75
423.848	2095.24
424.056	2005.13
424.263	2123.91
424.471	2214.02
424.679	2265.22
424.887	2242.7
425.094	2291.85
425.302	2453.64
425.51	2517.12
425.718	2537.6
425.925	2586.76
426.133	2701.44
426.341	2816.13
426.548	2924.67
426.756	3035.26
426.964	3014.78
427.171	3231.87
427.379	3444.85
427.586	3369.08
427.794	3358.84
428.001	3573.88
428.209	3727.47
428.417	3645.56
428.624	3965.04
428.832	3889.26
429.039	3973.23
429.247	3895.41
429.454	4450.41
429.662	4587.62
429.869	4270.19
430.076	4438.12
430.284	4462.69
430.491	4681.83
430.699	4903.01
430.906	4857.95
431.114	4995.17
431.321	5167.2
431.528	5122.14
431.736	5503.06
431.943	5859.41
432.15	5558.36
432.358	5828.69
432.565	6117.45
432.772	5978.19
432.979	6326.35
433.187	6410.31
433.394	6670.4
433.601	6971.46
433.808	7045.18
434.016	6957.12
434.223	7323.71
434.43	7745.59
434.637	7573.56
434.844	7929.91
435.052	8136.75
435.259	8095.79
435.466	7989.3
435.673	7934
435.88	8527.91
436.087	9181.21
436.294	9160.73
436.501	8886.31
436.708	9060.38
436.915	9324.57
437.122	9676.82
437.329	9687.06
437.537	10014.74
437.743	10215.44
437.95	10115.09
438.157	10655.75
438.364	11167.74
438.571	10827.78
438.778	11249.66
438.985	12027.89
439.192	11675.64
439.399	11952.12
439.606	11667.45
439.813	12396.53
440.02	13432.8
440.227	12761.06
440.433	12826.6
440.64	13098.98
440.847	13039.59
441.054	13406.17
441.261	14129.11
441.467	14045.14
441.674	14309.33
441.881	14594
442.088	14792.65
442.294	14653.39
442.501	15185.86
442.708	15368.13
442.914	16043.96
443.121	16687.02
443.328	16439.22
443.534	17440.67
443.741	16885.67
443.948	16750.51
444.154	18034.58
444.361	17743.77
444.568	17999.77
444.774	17909.66
444.981	18087.83
445.187	18732.94
445.394	19511.17
445.6	19300.23
445.807	21084.01
446.013	20479.86
446.22	20582.26
446.426	21135.21
446.633	21391.2
446.839	22048.6
447.046	21210.98
447.252	22671.18
447.459	22540.11
447.665	22361.94
447.871	23338.82
448.078	24262.46
448.284	22937.42
448.491	23760.7
448.697	24885.04
448.903	25356.07
449.11	25130.8
449.316	25106.22
449.522	25184.04
449.728	26095.39
449.935	25978.65
450.141	26015.52
450.347	27141.9
450.553	25970.46
450.76	26349.34
450.966	27162.38
451.172	26566.42
451.378	27170.57
451.584	26844.95
451.791	27229.96
451.997	27690.76
452.203	28262.14
452.409	27672.32
452.615	27725.57
452.821	26756.88
453.027	26601.24
453.233	27903.74
453.44	26560.28
453.646	26959.63
453.852	27098.89
454.058	27352.84
454.264	26521.37
454.47	26998.54
454.676	26685.2
454.882	27297.55
455.088	25073.45
455.294	25292.58
455.5	25622.31
455.705	25704.23
455.911	25071.4
456.117	24438.58
456.323	23912.25
456.529	22665.04
456.735	23701.31
456.941	23177.03
457.147	22574.93
457.352	21974.88
457.558	21907.29
457.764	21761.89
457.97	21565.28
458.176	21010.28
458.381	20813.68
458.587	19931
458.793	19971.96
458.999	18925.45
459.204	20453.23
459.41	19666.81
459.616	18499.47
459.821	18630.54
460.027	18249.62
460.233	18093.97
460.438	17194.92
460.644	17383.33
460.85	16584.62
461.055	16095.16
461.261	15974.33
461.466	14972.87
461.672	14555.08
461.878	15622.08
462.083	14757.83
462.289	14452.69
462.494	14145.49
462.7	13598.68
462.905	13324.26
463.111	13613.02
463.316	13768.66
463.522	13475.81
463.727	13580.25
463.932	13619.16
464.138	13486.04
464.343	13320.16
464.549	13246.43
464.754	13559.77
464.959	13434.85
465.165	13133.79
465.37	12984.29
465.575	12507.12
465.781	12881.89
465.986	13127.65
466.191	12650.47
466.397	12130.29
466.602	11638.78
466.807	12048.37
467.012	11997.17
467.218	12031.99
467.423	11890.68
467.628	12253.17
467.833	12472.3
468.038	11980.79
468.244	11694.07
468.449	12253.17
468.654	11724.79
468.859	11659.26
469.064	11773.94
469.269	11335.68
469.474	11098.11
469.679	11282.43
469.885	11161.6
470.09	11425.79
470.295	11014.15
470.5	10985.48
470.705	11053.06
470.91	10688.52
471.115	10688.52
471.32	10823.69
471.525	10702.86
471.73	10567.69
471.935	10352.65
472.139	10172.43
472.344	10121.23
472.549	10291.21
472.754	10033.17
472.959	9791.51
473.164	9572.38
473.369	9494.55
473.574	9938.96
473.778	9646.1
473.983	9701.4
474.188	9682.97
474.393	9150.5
474.598	9261.09
474.802	9320.48
475.007	9138.21
475.212	9019.43
475.417	8853.54
475.621	8833.06
475.826	8716.33
476.031	8595.5
476.235	8519.72
476.44	8716.33
476.645	8552.49
476.849	8564.78
477.054	8476.71
477.259	8058.93
477.463	8181.81
477.668	7991.34
477.872	8292.4
478.077	7977.01
478.282	7931.95
478.486	7858.23
478.691	7626.81
478.895	7749.68
479.1	7698.49
479.304	7659.57
479.509	7460.92
479.713	7800.88
479.918	7360.57
480.122	7356.47
480.326	7409.72
480.531	7518.26
480.735	7356.47
480.94	7141.44
481.144	7442.49
481.348	7067.71
481.553	7297.08
481.757	7014.46
481.961	7172.16
482.166	7202.88
482.37	7254.08
482.574	7149.63
482.778	7137.34
482.983	7186.49
483.187	7223.36
483.391	7249.98
483.595	7182.4
483.8	7225.4
484.004	7313.47
484.208	7278.65
484.412	7020.61
484.616	7295.04
484.821	7067.71
485.025	7125.05
485.229	7213.12
485.433	7018.56
485.637	7215.16
485.841	7192.64
486.045	7231.55
486.249	7215.16
486.453	7145.53
486.657	7149.63
486.861	6993.98
487.065	7028.8
487.269	7194.68
487.473	6918.21
487.677	7172.16
487.881	7227.45
488.085	7100.48
488.289	7325.75
488.493	7084.09
488.697	7346.23
488.901	7219.26
489.105	7104.57
489.309	7206.97
489.512	7223.36
489.716	7348.28
489.92	7297.08
490.124	7309.37
490.328	7467.06
490.531	7338.04
490.735	7428.15
490.939	7270.46
491.143	7305.28
491.346	7297.08
491.55	7624.76
491.754	7452.73
491.958	7411.77
492.161	7616.57
492.365	7503.93
492.569	7667.77
492.772	7559.22
492.976	7665.72
493.18	7702.58
493.383	7694.39
493.587	7839.8
493.79	7929.91
493.994	7718.96
494.197	7860.27
494.401	7966.77
494.605	7950.39
494.808	8122.41
495.012	8190
495.215	8402.99
495.419	8216.62
495.622	8263.72
495.825	8558.63
496.029	8417.32
496.232	8591.4
496.436	8474.67
496.639	8759.33
496.843	8808.48
497.046	9039.9
497.249	8896.55
497.453	8945.7
497.656	9203.74
497.859	9033.76
498.063	9162.78
498.266	9455.64
498.469	9404.44
498.673	9431.07
498.876	9568.28
499.079	9689.11
499.282	9793.56
499.485	10070.03
499.689	9893.91
499.892	10039.31
500.095	10278.93
500.298	10561.55
500.501	10473.48
500.705	10756.1
500.908	10618.89
501.111	10913.8
501.314	10905.6
501.517	11030.53
501.72	11372.54
501.923	11091.97
502.126	11597.82
502.329	11745.27
502.532	11632.63
502.735	11931.64
502.938	11845.62
503.141	11970.55
503.344	12118
503.547	12365.81
503.75	12597.23
503.953	12793.83
504.156	12724.2
504.359	12924.9
504.562	13076.45
504.765	13101.03
504.968	13367.26
505.17	13434.85
505.373	13578.2
505.576	13737.95
505.779	13852.63
505.982	13694.94
506.185	14198.74
506.387	14198.74
506.59	14471.12
506.793	14774.22
506.996	14352.34
507.198	15116.23
507.401	14960.58
507.604	15339.46
507.807	15359.94
508.009	15511.49
508.212	15437.76
508.415	15802.3
508.617	16302
508.82	16312.24
509.022	15914.94
509.225	16558
509.428	16658.35
509.63	16697.26
509.833	16809.9
510.035	17106.85
510.238	17166.24
510.44	17489.82
510.643	17647.52
510.845	17952.66
511.048	17719.2
511.25	17991.58
511.453	18177.94
511.655	18726.8
511.858	18698.13
512.06	18827.15
512.262	18954.12
512.465	18843.53
512.667	19396.48
512.87	19423.11
513.072	19560.32
513.274	19988.35
513.477	20021.11
513.679	19963.77
513.881	20488.05
514.084	20760.43
514.286	20721.52
514.488	21147.5
514.69	21370.72
514.893	21577.57
515.095	21725.02
515.297	22093.66
515.499	22058.84
515.701	22333.27
515.904	22220.63
516.106	22816.59
516.308	22845.26
516.51	23246.66
516.712	22916.94
516.914	23605.06
517.116	23699.27
517.318	23629.63
517.52	23885.63
517.722	24020.8
517.925	24573.75
518.127	24821.55
518.329	25317.16
518.531	24815.41
518.733	25151.27
518.935	25394.98
519.136	25485.09
519.338	25847.58
519.54	26081.05
519.742	26238.75
519.944	26341.14
520.146	26976.02
520.348	27033.36
520.55	27105.04
520.752	27731.72
520.954	27963.14
521.155	27496.2
521.357	27989.76
521.559	28284.67
521.761	28638.97
521.963	28718.84
522.164	28767.99
522.366	28923.63
522.568	29249.26
522.77	29251.31
522.971	29908.71
523.173	29533.93
523.375	29974.24
523.576	30015.2
523.778	29982.43
523.98	30353.12
524.181	30752.47
524.383	30873.3
524.584	31325.9
524.786	31172.3
524.988	30963.41
525.189	31147.73
525.391	31620.81
525.592	31948.48
525.794	31833.8
525.995	31921.86
526.197	32370.36
526.398	31878.85
526.6	32394.94
526.801	32843.45
527.003	32941.75
527.204	32784.05
527.406	32925.36
527.607	32730.81
527.808	33455.79
528.01	32841.4
528.211	33154.74
528.412	33701.54
528.614	33603.24
528.815	33849
529.016	34397.85
529.218	33621.67
529.419	34119.33
529.62	33992.36
529.822	34178.72
530.023	34213.54
530.224	34447.01
530.425	34365.09
530.626	34252.45
530.828	34336.41
531.029	34543.26
531.23	34447.01
531.431	34750.1
531.632	34569.88
531.833	34950.81
532.035	34659.99
532.236	35094.16
532.437	34799.26
532.638	34547.36
532.839	35354.26
533.04	35292.82
533.241	34748.06
533.442	35600.01
533.643	34915.99
533.844	35286.67
534.045	35522.19
534.246	34922.13
534.447	35663.5
534.648	35647.11
534.849	35419.79
535.05	34932.37
535.251	35241.62
535.451	35417.74
535.652	35458.7
535.853	35552.91
536.054	35542.67
536.255	35520.14
536.456	35262.1
536.657	35640.97
536.857	35403.41
537.058	35335.82
537.259	35208.85
537.46	35929.73
537.66	35407.5
537.861	35714.7
538.062	35602.06
538.263	35479.18
538.463	35362.45
538.664	35225.23
538.865	35710.6
539.065	35464.85
539.266	35331.73
539.466	35698.31
539.667	35421.84
539.868	35585.68
540.068	35618.44
540.269	35294.86
540.469	35548.81
540.67	35260.05
540.87	35634.83
541.071	35497.61
541.271	35585.68
541.472	35253.9
541.672	35309.2
541.873	35483.28
542.073	34838.17
542.274	35409.55
542.474	35575.44
542.675	35382.93
542.875	35612.3
543.075	35194.51
543.276	34827.93
543.476	35931.78
543.676	35403.41
543.877	35731.08
544.077	35497.61
544.277	35415.69
544.478	35204.75
544.678	35434.13
544.878	35593.87
545.078	35544.72
545.279	35301.01
545.479	35247.76
545.679	35511.95
545.879	35370.64
546.079	35645.07
546.28	35483.28
546.48	35303.06
546.68	35380.88
546.88	35505.8
547.08	35432.08
547.28	35145.36
547.48	35069.59
547.68	35501.71
547.88	35186.32
548.081	35507.85
548.281	35192.47
548.481	35219.09
548.681	35858.06
548.881	35612.3
549.081	35331.73
549.28	35221.14
549.48	35831.43
549.68	35479.18
549.88	35763.85
550.08	35442.32
550.28	35403.41
550.48	35292.82
550.68	35563.15
550.88	35401.36
551.08	35192.47
551.279	35159.7
551.479	35192.47
551.679	35266.19
551.879	35692.17
552.079	34965.14
552.278	35368.59
552.478	35421.84
552.678	35436.17
552.878	35352.21
553.077	34963.09
553.277	34840.22
553.477	35882.63
553.676	35489.42
553.876	35395.21
554.076	34688.67
554.275	34860.69
554.475	35055.25
554.674	35126.93
554.874	34905.75
555.074	34539.16
555.273	35063.44
555.473	35251.86
555.672	34569.88
555.872	34832.02
556.071	34887.32
556.271	34813.59
556.47	34721.43
556.67	34692.76
556.869	34643.61
557.068	34944.66
557.268	34397.85
557.467	34563.74
557.667	34471.58
557.866	34551.45
558.065	34649.75
558.265	34530.97
558.464	34688.67
558.663	34598.55
558.863	33896.1
559.062	34686.62
559.261	34281.12
559.461	34447.01
559.66	33846.95
559.859	34199.2
560.058	33982.12
560.258	34518.68
560.457	33908.39
560.656	33865.38
560.855	33812.13
561.054	33914.53
561.253	33842.85
561.453	33732.26
561.652	34064.03
561.851	33885.86
562.05	33844.9
562.249	33445.55
562.448	34088.61
562.647	33701.54
562.846	33400.49
563.045	33826.47
563.244	33046.19
563.443	33613.48
563.642	33062.58
563.841	33357.49
564.04	33072.82
564.239	33386.16
564.438	33119.92
564.637	33570.47
564.836	33244.85
565.035	32841.4
565.234	32777.91
565.432	32528.06
565.631	32652.98
565.83	32509.63
566.029	32528.06
566.228	32263.87
566.427	32671.42
566.625	32028.35
566.824	31940.29
567.023	32456.38
567.222	31741.64
567.42	32300.73
567.619	31823.56
567.818	31614.66
568.016	31891.14
568.215	31999.68
568.414	31895.24
568.612	32065.22
568.811	31526.6
569.01	31753.93
569.208	31235.79
569.407	31475.4
569.605	31088.34
569.804	31635.14
570.002	31162.06
570.201	31512.27
570.4	30912.21
570.598	30865.11
570.797	30944.98
570.995	31301.33
571.193	30293.72
571.392	30863.06
571.59	30598.87
571.789	30680.79
571.987	30494.43
572.186	30471.9
572.384	30547.67
572.582	30664.41
572.781	30801.62
572.979	30045.92
573.177	30029.54
573.376	30590.68
573.574	29992.67
573.772	30236.38
573.971	29916.9
574.169	29642.47
574.367	29456.11
574.565	29953.76
574.763	29673.19
574.962	29273.84
575.16	29136.62
575.358	29431.53
575.556	28997.36
575.754	29521.64
575.952	28856.05
576.151	29241.07
576.349	28862.19
576.547	28747.51
576.745	28862.19
576.943	28927.73
577.141	28913.39
577.339	28884.72
577.537	28434.17
577.735	28659.45
577.933	28389.11
578.131	28714.74
578.329	28325.63
578.527	27787.01
578.725	28206.84
578.923	28280.57
579.121	28043.01
579.319	27821.83
579.516	28020.48
579.714	27950.85
579.912	27844.35
580.11	28094.21
580.308	27463.43
580.506	27692.8
580.704	27047.69
580.901	27666.18
581.099	27858.69
581.297	27154.19
581.495	27340.55
581.692	27598.6
581.89	27025.17
582.088	27375.37
582.285	27221.77
582.483	27160.33
582.681	26814.23
582.878	27076.37
583.076	26507.03
583.274	26797.84
583.471	26634
583.669	26527.51
583.866	26484.5
584.064	26769.17
584.262	26289.95
584.459	26560.28
584.657	26042.14
584.854	26341.14
585.052	26242.84
585.249	26435.35
585.447	26287.9
585.644	25726.75
585.841	25876.26
586.039	26105.63
586.236	25720.61
586.434	25540.39
586.631	25507.62
586.828	25657.12
587.026	25542.44
587.223	25722.66
587.42	25419.56
587.618	25331.5
587.815	25085.74
588.012	25059.12
588.21	25112.36
588.407	25282.34
588.604	25052.97
588.801	24719.15
588.999	24780.59
589.196	24786.74
589.393	25018.16
589.59	24583.99
589.787	24588.08
589.984	24454.97
590.182	24211.26
590.379	24602.42
590.576	24350.52
590.773	24274.74
590.97	23762.75
591.167	24239.93
591.364	23996.22
591.561	24231.74
591.758	24039.23
591.955	23971.64
592.152	24024.89
592.349	23478.08
592.546	23725.89
592.743	23662.4
592.94	23099.21
593.137	23512.9
593.334	23596.87
593.531	23082.83
593.727	23091.02
593.924	23213.9
594.121	22826.83
594.318	23244.62
594.515	22888.27
594.712	23228.23
594.908	22595.41
595.105	22943.56
595.302	22693.71
595.499	22816.59
595.696	22673.23
595.892	22695.76
596.089	22574.93
596.286	22677.33
596.482	22501.2
596.679	22585.17
596.876	22503.25
597.072	22085.47
597.269	22196.06
597.466	21929.82
597.662	21870.43
597.859	22460.24
598.055	22003.55
598.252	21684.06
598.448	21901.15
598.645	21645.15
598.841	21927.77
599.038	21628.77
599.234	21802.85
599.431	21749.6
599.627	21503.84
599.824	21526.37
600.02	21184.36
600.217	21356.39
600.413	21129.06
600.609	20977.51
600.806	20807.53
601.002	21284.71
601.198	20447.09
601.395	20866.92
601.591	20819.82
601.787	20672.37
601.984	20582.26
602.18	20649.84
602.376	20578.16
602.572	20318.07
602.769	20662.13
602.965	20389.75
603.161	20406.13
603.357	20385.65
603.553	20352.88
603.75	20416.37
603.946	20008.83
604.142	20187
604.338	19728.25
604.534	20103.03
604.73	19957.63
604.926	19926.91
605.122	19890.04
605.318	19785.6
605.514	19494.79
605.71	19464.07
605.906	19672.96
606.102	19552.13
606.298	19584.9
606.494	19543.94
606.69	19584.9
606.886	19597.18
607.082	18995.08
607.278	19398.53
607.474	19111.82
607.67	19330.95
607.866	19021.7
608.062	19277.7
608.257	19181.45
608.453	19042.18
608.649	19171.21
608.845	19064.71
609.041	18839.44
609.236	18943.88
609.432	18720.65
609.628	19023.75
609.824	18771.85
610.019	18691.98
610.215	18712.46
610.411	18691.98
610.606	18778
610.802	18962.31
610.998	18691.98
611.193	18737.04
611.389	18485.14
611.584	18474.9
611.78	18319.25
611.976	18495.38
612.171	18372.5
612.367	18306.96
612.562	18046.87
612.758	18005.91
612.953	18147.22
613.149	18386.83
613.344	17928.09
613.539	18431.89
613.735	18341.78
613.93	18067.35
614.126	17975.19
614.321	17885.08
614.517	17962.9
614.712	17801.12
614.907	17756.06
615.103	18106.26
615.298	17627.04
615.493	17940.38
615.688	17643.42
615.884	17952.66
616.079	17766.3
616.274	17706.91
616.47	17629.09
616.665	17694.62
616.86	17663.9
617.055	17502.11
617.25	17504.16
617.445	17563.55
617.641	17293.22
617.836	17350.56
618.031	17168.29
618.226	17356.71
618.421	17506.21
618.616	17618.85
618.811	17078.18
619.006	17336.23
619.201	16801.71
619.396	17061.8
619.591	16582.57
619.786	17074.09
619.981	16449.46
620.176	16969.64
620.371	16609.2
620.566	16525.23
620.761	16461.74
620.956	16676.78
621.151	16261.04
621.346	16549.81
621.541	16277.43
621.735	16365.49
621.93	16142.26
622.125	16195.51
622.32	15802.3
622.515	16195.51
622.709	15771.58
622.904	15693.76
623.099	15605.69
623.294	15697.85
623.488	15507.39
623.683	15597.5
623.878	15222.72
624.072	15271.87
624.267	15275.97
624.462	15196.1
624.656	15116.23
624.851	15251.39
625.046	14956.49
625.24	14913.48
625.435	14692.3
625.629	14788.55
625.824	14929.86
626.018	14540.75
626.213	14315.47
626.407	14358.48
626.602	14432.21
626.796	14215.12
626.991	14397.39
627.185	14141.39
627.38	14184.4
627.574	14145.49
627.768	13789.14
627.963	13670.36
628.157	13879.25
628.352	13793.24
628.546	13543.39
628.74	13701.08
628.935	13295.58
629.129	13377.5
629.323	13213.67
629.517	13211.62
629.712	13490.14
629.906	13117.41
630.1	13205.47
630.294	13068.26
630.489	12879.85
630.683	13023.2
630.877	12615.66
631.071	12834.79
631.265	12646.38
631.459	12664.81
631.653	12261.36
631.848	12888.04
632.042	12507.12
632.236	12603.37
632.43	12124.15
632.624	12353.52
632.818	12468.2
633.012	12177.39
633.206	12144.63
633.4	12064.75
633.594	12011.51
633.788	11872.25
633.982	11831.29
634.176	11862.01
634.369	11819
634.563	11534.33
634.757	11634.68
634.951	11655.16
635.145	11601.91
635.339	11556.86
635.533	11513.85
635.726	11374.59
635.92	11120.64
636.114	11175.94
636.308	11046.91
636.501	11294.72
636.695	11212.8
636.889	10823.69
637.083	10917.89
637.276	10909.7
637.47	10913.8
637.664	10618.89
637.857	10942.47
638.051	10835.97
638.244	10688.52
638.438	10704.9
638.632	10450.96
638.825	10407.95
639.019	10467.34
639.212	10352.65
639.406	10467.34
639.599	10326.03
639.793	10323.98
639.986	9979.92
640.18	10170.38
640.373	10252.3
640.567	10182.67
640.76	9814.04
640.954	9932.82
641.147	9861.14
641.34	9803.8
641.534	9883.67
641.727	9760.79
641.92	9508.89
642.114	9398.3
642.307	9383.96
642.5	9533.47
642.694	9521.18
642.887	9375.77
643.08	9396.25
643.273	9234.46
643.467	9314.33
643.66	9275.42
643.853	9136.16
644.046	9095.2
644.239	9066.53
644.432	8867.88
644.626	8947.75
644.819	8902.69
645.012	8927.27
645.205	8896.55
645.398	8964.13
645.591	8697.89
645.784	8788
645.977	8671.27
646.17	8693.8
646.363	8652.84
646.556	8405.03
646.749	8624.17
646.942	8605.74
647.135	8482.86
647.328	8347.69
647.521	8222.77
647.714	8130.61
647.907	8491.05
648.099	8222.77
648.292	8327.21
648.485	8149.04
648.678	8210.48
648.871	8153.13
649.064	8015.92
649.256	8034.35
649.449	8017.97
649.642	7692.34
649.835	7841.84
650.027	7989.3
650.22	7749.68
650.413	7669.81
650.605	7583.8
650.798	7737.4
650.991	7667.77
651.183	7665.72
651.376	7338.04
651.568	7530.55
651.761	7573.56
651.954	7512.12
652.146	7471.16
652.339	7237.69
652.531	7245.88
652.724	7438.39
652.916	7108.67
653.109	7245.88
653.301	7131.2
653.494	7176.25
653.686	7155.77
653.879	7356.47
654.071	7219.26
654.263	6977.6
654.456	6862.91
654.648	7036.99
654.84	6850.63
655.033	6975.55
655.225	6944.83
655.417	6727.75
655.61	6991.94
655.802	6899.78
655.994	6727.75
656.186	6754.37
656.379	6772.8
656.571	6574.15
656.763	6670.4
656.955	6479.94
657.148	6488.14
657.34	6590.53
657.532	6293.58
657.724	6391.88
657.916	6287.43
658.108	6293.58
658.3	6318.15
658.492	6223.95
658.684	6223.95
658.876	6150.22
659.068	6250.57
659.26	6053.97
659.452	5988.43
659.644	6174.8
659.836	6123.6
660.028	6223.95
660.22	5941.33
660.412	5978.19
660.604	6043.73
660.796	5947.47
660.988	6045.77
661.18	5869.65
661.372	5840.98
661.563	5757.01
661.755	5826.64
661.947	5689.43
662.139	5861.46
662.331	5687.38
662.522	5451.86
662.714	5642.32
662.906	5740.63
663.097	5476.44
663.289	5619.8
663.481	5468.25
663.673	5562.45
663.864	5400.66
664.056	5406.81
664.247	5363.8
664.439	5302.36
664.631	5382.23
664.822	5310.55
665.014	5189.72
665.205	5294.17
665.397	5257.31
665.588	5253.21
665.78	5232.73
665.971	5226.59
666.163	5273.69
666.354	5226.59
666.546	5232.73
666.737	4876.38
666.929	5109.85
667.12	5109.85
667.311	4980.83
667.503	4819.04
667.694	5081.18
667.885	4964.45
668.077	5097.56
668.268	4804.71
668.459	4798.56
668.651	4773.99
668.842	4970.59
669.033	4786.27
669.224	4653.16
669.416	4939.87
669.607	4708.45
669.798	4681.83
669.989	4882.53
670.18	4896.86
670.371	4604
670.563	4669.54
670.754	4614.24
670.945	4495.46
671.136	4468.84
671.327	4667.49
671.518	4464.74
671.709	4554.85
671.9	4530.28
672.091	4501.61
672.282	4419.69
672.473	4452.45
672.664	4552.81
672.855	4325.48
673.046	4337.77
673.237	4343.91
673.428	4372.58
673.619	4253.8
673.809	4321.38
674	4329.58
674.191	4264.04
674.382	4237.42
674.573	4348.01
674.764	4130.92
674.954	4286.57
675.145	4147.31
675.336	4253.8
675.527	4184.17
675.717	4206.7
675.908	4235.37
676.099	4221.03
676.289	4241.51
676.48	4124.78
676.671	4096.11
676.861	4241.51
677.052	4155.5
677.243	4073.58
677.433	4104.3
677.624	4079.72
677.814	4081.77
678.005	4139.12
678.195	4063.34
678.386	3954.8
678.576	3926.13
678.767	3860.59
678.957	4028.53
679.148	3782.77
679.338	3991.66
679.529	3893.36
679.719	3956.85
679.909	3977.33
680.1	3864.69
680.29	3958.89
680.481	3874.93
680.671	3782.77
680.861	3680.37
681.052	3768.43
681.242	3768.43
681.432	3836.02
681.622	3795.06
681.813	3805.3
682.003	3713.14
682.193	3756.15
682.383	3729.52
682.573	3762.29
682.764	3666.03
682.954	3672.18
683.144	3762.29
683.334	3745.91
683.524	3719.28
683.714	3706.99
683.904	3655.79
684.094	3793.01
684.284	3639.41
684.474	3657.84
684.664	3741.81
684.854	3655.79
685.044	3618.93
685.234	3528.82
685.424	3580.02
685.614	3623.03
685.804	3690.61
685.994	3489.91
686.184	3498.1
686.374	3520.63
686.564	3494.01
686.753	3397.75
686.943	3524.72
687.133	3487.86
687.323	3487.86
687.513	3457.14
687.702	3410.04
687.892	3397.75
688.082	3432.57
688.272	3387.51
688.461	3424.37
688.651	3494.01
688.841	3332.22
689.03	3389.56
689.22	3383.42
689.41	3446.9
689.599	3340.41
689.789	3266.68
689.979	3289.21
690.168	3338.36
690.358	3145.85
690.547	3233.91
690.737	3235.96
690.926	3227.77
691.116	3121.28
691.305	3297.4
691.495	3180.67
691.684	3162.23
691.874	3188.86
692.063	3156.09
692.252	3258.49
692.442	3125.37
692.631	2977.92
692.82	3151.99
693.01	3225.72
693.199	3168.38
693.388	3113.08
693.578	3057.79
693.767	3022.97
693.956	3145.85
694.146	2990.21
694.335	2996.35
694.524	2844.8
694.713	3102.84
694.902	3045.5
695.092	2953.34
695.281	2965.63
695.47	2979.97
695.659	2996.35
695.848	2832.51
696.037	2939.01
696.226	3053.69
696.415	2873.47
696.604	2859.14
696.793	2982.01
696.982	2914.43
697.171	2850.94
697.36	2930.81
697.549	3037.31
697.738	3000.44
697.927	2883.71
698.116	2871.42
698.305	2834.56
698.494	2920.57
698.683	2865.28
698.872	2928.77
699.061	2914.43
699.25	2906.24
699.438	2805.89
699.627	2848.9
699.816	2861.18
700.005	2865.28
700.193	2797.7
700.382	2881.66
700.571	2795.65
700.76	2764.93
700.948	2848.9
701.137	2799.74
701.326	2838.66
701.514	2738.3
701.703	2818.18
701.892	2850.94
702.08	2857.09
702.269	2773.12
702.457	2744.45
702.646	2912.38
702.834	2912.38
703.023	2840.7
703.212	2818.18
703.4	2795.65
703.589	2828.42
703.777	2732.16
703.965	2644.1
704.154	2750.59
704.342	2803.84
704.531	2797.7
704.719	2840.7
704.907	2771.07
705.096	2771.07
705.284	2648.19
705.472	2660.48
705.661	2619.52
705.849	2642.05
706.037	2680.96
706.226	2623.62
706.414	2691.2
706.602	2832.51
706.79	2711.68
706.979	2709.63
707.167	2601.09
707.355	2695.3
707.543	2697.35
707.731	2648.19
707.919	2713.73
708.107	2654.34
708.296	2701.44
708.484	2637.95
708.672	2648.19
708.86	2660.48
709.048	2660.48
709.236	2717.83
709.424	2738.3
709.612	2717.83
709.8	2648.19
709.988	2717.83
710.176	2678.91
710.364	2701.44
710.551	2672.77
710.739	2662.53
710.927	2611.33
711.115	2594.95
711.303	2652.29
711.491	2715.78
711.679	2678.91
711.866	2607.23
712.054	2713.73
712.242	2562.18
712.43	2619.52
712.617	2547.84
712.805	2697.35
712.993	2566.28
713.181	2666.63
713.368	2631.81
713.556	2590.85
713.744	2523.27
713.931	2607.23
714.119	2572.42
714.306	2603.14
714.494	2515.08
714.682	2519.17
714.869	2576.52
715.057	2689.15
715.244	2553.99
715.432	2764.93
715.619	2637.95
715.807	2515.08
715.994	2492.55
716.182	2609.28
716.369	2646.15
716.556	2570.37
716.744	2519.17
716.931	2562.18
717.119	2537.6
717.306	2486.4
717.493	2553.99
717.681	2594.95
717.868	2484.36
718.055	2615.43
718.242	2502.79
718.43	2543.75
718.617	2523.27
718.804	2492.55
718.991	2463.88
719.179	2416.77
719.366	2500.74
719.553	2500.74
719.74	2429.06
719.927	2627.71
720.114	2416.77
720.301	2482.31
720.488	2418.82
720.676	2394.25
720.863	2416.77
721.05	2422.92
721.237	2406.53
721.424	2338.95
721.611	2543.75
721.798	2443.4
721.985	2472.07
722.172	2478.21
722.358	2457.73
722.545	2439.3
722.732	2484.36
722.919	2445.45
723.106	2467.97
723.293	2381.96
723.48	2470.02
723.667	2496.64
723.853	2457.73
724.04	2480.26
724.227	2476.16
724.414	2336.9
724.6	2447.49
724.787	2293.9
724.974	2459.78
725.161	2510.98
725.347	2435.21
725.534	2390.15
725.72	2476.16
725.907	2480.26
726.094	2566.28
726.28	2394.25
726.467	2416.77
726.653	2406.53
726.84	2394.25
727.027	2535.56
727.213	2334.86
727.4	2418.82
727.586	2431.11
727.773	2422.92
727.959	2338.95
728.145	2351.24
728.332	2510.98
728.518	2396.29
728.705	2513.03
728.891	2351.24
729.077	2363.53
729.264	2390.15
729.45	2404.49
729.636	2400.39
729.823	2470.02
730.009	2480.26
730.195	2361.48
730.382	2363.53
730.568	2326.66
730.754	2304.14
730.94	2429.06
731.126	2265.22
731.313	2386.05
731.499	2420.87
731.685	2398.34
731.871	2211.98
732.057	2259.08
732.243	2209.93
732.429	2392.2
732.615	2429.06
732.801	2386.05
732.987	2416.77
733.173	2324.62
733.359	2369.67
733.545	2461.83
733.731	2355.33
733.917	2476.16
734.103	2289.8
734.289	2338.95
734.475	2189.45
734.661	2377.86
734.847	2355.33
735.033	2357.38
735.219	2285.7
735.404	2297.99
735.59	2361.48
735.776	2373.77
735.962	2277.51
736.148	2388.1
736.333	2304.14
736.519	2291.85
736.705	2285.7
736.89	2252.94
737.076	2154.63
737.262	2285.7
737.447	2285.7
737.633	2269.32
737.819	2160.78
738.004	2295.94
738.19	2316.42
738.375	2238.6
738.561	2158.73
738.747	2232.46
738.932	2179.21
739.118	2222.22
739.303	2203.79
739.489	2189.45
739.674	2191.5
739.859	2302.09
740.045	2244.74
740.23	2252.94
740.416	2173.07
740.601	2136.2
740.786	2179.21
740.972	2136.2
741.157	2103.43
741.342	2138.25
741.528	2074.76
741.713	2123.91
741.898	2111.63
742.084	2152.59
742.269	2142.35
742.454	2113.67
742.639	2107.53
742.824	2113.67
743.01	2087.05
743.195	2171.02
743.38	2066.57
743.565	1962.12
743.75	2072.72
743.935	2009.23
744.12	1996.94
744.305	1992.84
744.49	2005.13
744.675	1941.65
744.86	1915.02
745.045	1998.99
745.23	2011.28
745.415	1986.7
745.6	2056.33
745.785	1958.03
745.97	1929.36
746.155	1994.89
746.34	1951.88
746.525	1861.77
746.71	1933.45
746.895	1861.77
747.079	1902.73
747.264	1872.01
747.449	1837.2
747.634	1898.64
747.819	1763.47
748.003	1890.45
748.188	1882.25
748.373	1882.25
748.557	1847.44
748.742	1884.3
748.927	1734.8
749.111	1798.29
749.296	1769.62
749.481	1720.46
749.665	1685.65
749.85	1716.37
750.034	1749.14
750.219	1689.74
750.404	1669.27
750.588	1652.88
750.773	1575.06
750.957	1675.41
751.141	1759.38
751.326	1593.49
751.51	1654.93
751.695	1583.25
751.879	1628.31
752.064	1702.03
752.248	1622.16
752.432	1489.04
752.617	1573.01
752.801	1579.15
752.985	1517.72
753.17	1503.38
753.354	1431.7
753.538	1513.62
753.722	1460.37
753.907	1491.09
754.091	1425.56
754.275	1568.91
754.459	1462.42
754.643	1487
754.828	1448.08
755.012	1411.22
755.196	1429.65
755.38	1462.42
755.564	1388.69
755.748	1314.97
755.932	1417.37
756.116	1251.48
756.3	1372.31
756.484	1435.8
756.668	1202.33
756.852	1460.37
757.036	1294.49
757.22	1300.63
757.404	1341.59
757.588	1302.68
757.772	1265.82
757.956	1284.25
758.14	1308.82
758.323	1335.45
758.507	1278.1
758.691	1247.38
758.875	1224.86
759.059	1265.82
759.242	1151.13
759.426	1177.75
759.61	1122.46
759.794	1132.7
759.977	1167.51
760.161	1284.25
760.345	1200.28
760.528	1233.05
760.712	1144.99
760.895	1147.03
761.079	1165.46
761.263	1110.17
761.446	1061.02
761.63	1114.27
761.813	1142.94
761.997	1036.44
762.18	1116.31
762.364	1089.69
762.547	1079.45
762.731	1036.44
762.914	1067.16
763.098	1054.87
763.281	1042.59
763.464	1038.49
763.648	1063.07
763.831	1118.36
764.015	1013.92
764.198	1083.55
764.381	1015.96
764.564	1042.59
764.748	1001.63
764.931	1173.66
765.114	1058.97
765.297	1081.5
765.481	968.86
765.664	1077.4
765.847	981.15
766.03	975
766.213	970.91
766.397	1061.02
766.58	987.29
766.763	1046.68
766.946	1052.83
767.129	1024.16
767.312	1032.35
767.495	952.48
767.678	1005.72
767.861	1013.92
768.044	1011.87
768.227	981.15
768.41	862.37
768.593	907.42
768.776	1001.63
768.959	1013.92
769.142	897.18
769.324	944.28
769.507	882.85
769.69	864.41
769.873	839.84
770.056	940.19
770.239	966.81
770.421	886.94
770.604	956.57
770.787	872.61
770.97	880.8
771.152	841.89
771.335	919.71
771.518	845.98
771.7	909.47
771.883	946.33
772.066	907.42
772.248	878.75
772.431	835.74
772.613	870.56
772.796	905.37
772.978	868.51
773.161	805.02
773.343	753.82
773.526	809.12
773.708	704.67
773.891	780.45
774.073	817.31
774.256	837.79
774.438	878.75
774.621	755.87
774.803	829.6
774.985	825.5
775.168	776.35
775.35	704.67
775.532	762.02
775.715	655.52
775.897	798.88
776.079	782.49
776.261	735.39
776.444	747.68
776.626	739.49
776.808	719.01
776.99	606.37
777.173	772.25
777.355	710.82
777.537	690.34
777.719	682.14
777.901	684.19
778.083	671.9
778.265	608.42
778.447	704.67
778.629	653.47
778.811	680.1
778.993	749.73
779.175	630.95
779.357	653.47
779.539	704.67
779.721	643.23
779.903	692.38
780.085	622.75
780.267	616.61
780.449	559.27
780.631	651.42
780.812	696.48
780.994	600.23
781.176	622.75
781.358	600.23
781.54	546.98
781.721	620.71
781.903	637.09
782.085	485.54
782.267	626.85
782.448	604.32
782.63	577.7
782.812	624.8
782.993	551.07
783.175	528.55
783.357	583.84
783.538	536.74
783.72	485.54
783.901	542.88
784.083	540.83
784.264	596.13
784.446	483.49
784.627	499.88
784.809	485.54
784.99	456.87
785.172	458.92
785.353	499.88
785.535	549.03
785.716	469.16
785.897	450.72
786.079	526.5
786.26	530.59
786.441	477.35
786.623	383.14
786.804	532.64
786.985	546.98
787.167	432.29
787.348	311.46
787.529	463.01
787.71	475.3
787.891	493.73
788.073	481.44
788.254	446.63
788.435	477.35
788.616	469.16
788.797	428.2
788.978	499.88
789.159	350.37
789.34	463.01
789.522	426.15
789.703	456.87
789.884	379.04
790.065	420
790.246	344.23
790.427	444.58
790.607	401.57
790.788	377
790.969	360.61
791.15	420
791.331	379.04
791.512	399.52
791.693	333.99
791.874	338.09
792.054	395.43
792.235	397.48
792.416	276.65
792.597	381.09
792.778	370.85
792.958	383.14
793.139	407.72
793.32	393.38
793.5	340.13
793.681	327.85
793.862	342.18
794.042	352.42
794.223	348.33
794.404	344.23
794.584	319.65
794.765	258.21
794.945	331.94
795.126	311.46
795.306	331.94
795.487	307.37
795.667	264.36
795.848	350.37
796.028	323.75
796.209	260.26
796.389	338.09
796.57	346.28
796.75	301.22
796.93	311.46
797.111	377
797.291	272.55
797.471	313.51
797.652	280.74
797.832	278.69
798.012	348.33
798.192	235.69
798.373	270.5
798.553	250.02
798.733	272.55
798.913	282.79
799.093	282.79
799.274	288.93
799.454	266.41
799.634	260.26
799.814	323.75
799.994	207.02
800.174	264.36
800.354	325.8
800.534	252.07
800.714	268.45
800.894	329.89
801.074	272.55
801.254	276.65
801.434	231.59
801.614	313.51
801.794	196.78
801.974	549.03
802.154	256.17
802.334	299.17
802.514	243.88
802.693	241.83
802.873	272.55
803.053	284.84
803.233	233.64
803.413	215.21
803.592	256.17
803.772	258.21
803.952	274.6
804.131	221.35
804.311	301.22
804.491	227.5
804.67	245.93
804.85	192.68
805.03	258.21
805.209	127.14
805.389	227.5
805.568	209.06
805.748	254.12
805.928	215.21
806.107	239.78
806.287	256.17
806.466	190.63
806.646	221.35
806.825	194.73
807.004	211.11
807.184	223.4
807.363	250.02
807.543	204.97
807.722	178.34
807.901	202.92
808.081	235.69
808.26	166.06
808.439	223.4
808.619	211.11
808.798	153.77
808.977	198.82
809.156	180.39
809.336	159.91
809.515	250.02
809.694	202.92
809.873	215.21
810.052	202.92
810.231	174.25
810.411	215.21
810.59	233.64
810.769	164.01
810.948	174.25
811.127	139.43
811.306	174.25
811.485	170.15
811.664	211.11
811.843	196.78
812.022	153.77
812.201	170.15
812.38	176.3
812.559	121
812.737	108.71
812.916	127.14
813.095	164.01
813.274	202.92
813.453	174.25
813.632	133.29
813.811	112.81
813.989	157.86
814.168	223.4
814.347	215.21
814.526	147.62
814.704	96.43
814.883	209.06
815.062	141.48
815.24	145.58
815.419	143.53
815.598	125.1
815.776	186.54
815.955	168.1
816.133	110.76
816.312	149.67
816.49	143.53
816.669	188.58
816.847	190.63
817.026	168.1
817.204	118.95
817.383	137.38
817.561	80.04
817.74	245.93
817.918	127.14
818.097	141.48
818.275	174.25
818.453	182.44
818.632	131.24
818.81	123.05
818.988	112.81
819.167	145.58
819.345	121
819.523	121
819.701	137.38
819.879	188.58
820.058	149.67
820.236	123.05
820.414	125.1
820.592	77.99
820.77	161.96
820.948	143.53
821.127	151.72
821.305	141.48
821.483	98.47
821.661	141.48
821.839	186.54
822.017	123.05
822.195	145.58
822.373	157.86
822.551	96.43
822.729	147.62
822.907	149.67
823.085	204.97
823.262	178.34
823.44	247.97
823.618	98.47
823.796	53.42
823.974	164.01
824.152	118.95
824.329	141.48
824.507	121
824.685	86.19
824.863	241.83
825.04	149.67
825.218	114.86
825.396	84.14
825.574	96.43
825.751	94.38
825.929	108.71
826.107	104.62
826.284	174.25
826.462	96.43
826.639	174.25
826.817	59.56
826.994	129.19
827.172	121
827.349	127.14
827.527	45.23
827.704	127.14
827.882	110.76
828.059	133.29
828.237	116.9
828.414	153.77
828.591	84.14
828.769	147.62
828.946	63.66
829.124	61.61
829.301	147.62
829.478	147.62
829.655	88.23
829.833	137.38
830.01	73.9
830.187	34.99
830.364	166.06
830.542	28.84
830.719	161.96
830.896	80.04
831.073	28.84
831.25	88.23
831.427	90.28
831.604	127.14
831.782	98.47
831.959	116.9
832.136	77.99
832.313	102.57
832.49	88.23
832.667	114.86
832.844	129.19
833.021	102.57
833.198	96.43
833.374	127.14
833.551	100.52
833.728	114.86
833.905	141.48
834.082	30.89
834.259	67.75
834.436	43.18
834.612	-1.88
834.789	80.04
834.966	102.57
835.143	86.19
835.319	96.43
835.496	77.99
835.673	127.14
835.85	67.75
836.026	55.47
836.203	141.48
836.38	92.33
836.556	94.38
836.733	43.18
836.909	129.19
837.086	47.27
837.262	12.46
837.439	102.57
837.616	125.1
837.792	43.18
837.968	73.9
838.145	37.03
838.321	55.47
838.498	61.61
838.674	118.95
838.851	43.18
839.027	94.38
839.203	69.8
839.38	98.47
839.556	96.43
839.732	32.94
839.909	80.04
840.085	20.65
840.261	61.61
840.437	22.7
840.614	118.95
840.79	110.76
840.966	121
841.142	26.79
841.318	69.8
841.494	106.67
841.671	47.27
841.847	73.9
842.023	8.36
842.199	75.95
842.375	98.47
842.551	104.62
842.727	41.13
842.903	143.53
843.079	37.03
843.255	57.51
843.431	86.19
843.607	172.2
843.783	51.37
843.959	45.23
844.134	61.61
844.31	51.37
844.486	82.09
844.662	39.08
844.838	104.62
845.013	82.09
845.189	77.99
845.365	108.71
845.541	108.71
845.716	71.85
845.892	98.47
846.068	22.7
846.244	-20.31
846.419	104.62
846.595	49.32
846.77	32.94
846.946	55.47
847.122	14.51
847.297	2.22
847.473	102.57
847.648	100.52
847.824	49.32
847.999	94.38
848.175	69.8
848.35	118.95
848.526	69.8
848.701	49.32
848.876	67.75
849.052	37.03
849.227	32.94
849.403	75.95
849.578	24.75
849.753	39.08
849.929	20.65
850.104	63.66
850.279	39.08
850.454	129.19
850.63	45.23
850.805	0.17
850.98	77.99
851.155	-24.4
851.33	2.22
851.505	22.7
851.681	104.62
851.856	37.03
852.031	116.9
852.206	100.52
852.381	49.32
852.556	100.52
852.731	86.19
852.906	22.7
853.081	94.38
853.256	43.18
853.431	57.51
853.606	41.13
853.781	-14.17
853.956	-32.6
854.131	80.04
854.305	-1.88
854.48	22.7
854.655	43.18
854.83	49.32
855.005	127.14
855.18	43.18
855.354	32.94
855.529	34.99
855.704	37.03
855.879	51.37
856.053	80.04
856.228	98.47
856.403	14.51
856.577	24.75
856.752	-30.55
856.926	10.41
857.101	69.8
857.276	108.71
857.45	8.36
857.625	77.99
857.799	100.52
857.974	26.79
858.148	55.47
858.323	47.27
858.497	43.18
858.672	106.67
858.846	16.55
859.02	20.65
859.195	51.37
859.369	69.8
859.543	-18.26
859.718	129.19
859.892	45.23
860.066	18.6
860.241	39.08
860.415	49.32
860.589	37.03
860.763	59.56
860.938	-40.79
861.112	77.99
861.286	-83.8
861.46	55.47
861.634	14.51
861.808	88.23
861.982	34.99
862.157	104.62
862.331	63.66
862.505	75.95
862.679	47.27
862.853	-18.26
863.027	67.75
863.201	67.75
863.375	12.46
863.549	30.89
863.722	129.19
863.896	102.57
864.07	55.47
864.244	-28.5
864.418	51.37
864.592	53.42
864.766	-10.07
864.939	51.37
865.113	24.75
865.287	34.99
865.461	24.75
865.634	59.56
865.808	-46.93
865.982	-26.45
866.156	0.17
866.329	2.22
866.503	-18.26
866.676	49.32
866.85	71.85
867.024	43.18
867.197	4.27
867.371	47.27
867.544	65.71
867.718	-20.31
867.891	100.52
868.065	14.51
868.238	-1.88
868.412	34.99
868.585	59.56
868.759	59.56
868.932	-14.17
869.105	67.75
869.279	47.27
869.452	55.47
869.625	-24.4
869.799	69.8
869.972	-14.17
870.145	14.51
870.319	82.09
870.492	59.56
870.665	57.51
870.838	14.51
871.011	22.7
871.185	55.47
871.358	8.36
871.531	90.28
871.704	26.79
871.877	51.37
872.05	-28.5
872.223	-16.21
872.396	26.79
872.569	26.79
872.742	8.36
872.915	53.42
873.088	30.89
873.261	55.47
873.434	43.18
873.607	28.84
873.78	12.46
873.953	-1.88
874.126	80.04
874.299	6.31
874.471	20.65
874.644	47.27
874.817	-40.79
874.99	53.42
875.163	63.66
875.335	-42.84
875.508	39.08
875.681	82.09
875.853	77.99
876.026	43.18
876.199	-8.02
876.371	51.37
876.544	98.47
876.717	49.32
876.889	55.47
877.062	80.04
877.234	-79.7
877.407	-20.31
877.579	28.84
877.752	-22.36
877.924	47.27
878.097	12.46
878.269	69.8
878.442	30.89
878.614	37.03
878.786	8.36
878.959	37.03
879.131	49.32
879.303	20.65
879.476	65.71
879.648	43.18
879.82	-10.07
879.993	22.7
880.165	-51.03
880.337	20.65
880.509	75.95
880.681	26.79
880.854	37.03
881.026	6.31
881.198	63.66
881.37	39.08
881.542	-16.21
881.714	53.42
881.886	57.51
882.058	20.65
882.23	-18.26
882.402	61.61
882.574	84.14
882.746	-36.69
882.918	63.66
883.09	47.27
883.262	-34.64
883.434	57.51
883.606	22.7
883.778	-34.64
883.95	8.36
884.122	24.75
884.293	82.09
884.465	84.14
884.637	57.51
884.809	-71.51
884.98	10.41
885.152	34.99
885.324	26.79
885.496	63.66
885.667	77.99
885.839	-8.02
886.011	59.56
886.182	20.65
886.354	57.51
886.525	26.79
886.697	57.51
886.869	6.31
887.04	2.22
887.212	80.04
887.383	-26.45
887.555	0.17
887.726	16.55
887.897	37.03
888.069	12.46
888.24	-67.41
888.412	26.79
888.583	20.65
888.754	63.66
888.926	30.89
889.097	-26.45
889.268	45.23
889.44	49.32
889.611	43.18
889.782	-1.88
889.953	26.79
890.125	26.79
890.296	-3.93
890.467	73.9
890.638	47.27
890.809	71.85
890.98	14.51
891.151	-20.31
891.323	-32.6
891.494	24.75
891.665	-51.03
891.836	-24.4
892.007	4.27
892.178	26.79
892.349	39.08
892.52	-10.07
892.691	16.55
892.862	-3.93
893.032	-44.88
893.203	53.42
893.374	37.03
893.545	53.42
893.716	14.51
893.887	37.03
894.057	30.89
894.228	24.75
894.399	-5.97
894.57	10.41
894.74	4.27
894.911	69.8
895.082	-22.36
895.253	-5.97
895.423	-12.12
895.594	57.51
895.764	41.13
895.935	-14.17
896.106	41.13
896.276	-1.88
896.447	45.23
896.617	71.85
896.788	22.7
896.958	-5.97
897.129	14.51
897.299	2.22
897.47	14.51
897.64	16.55
897.81	-59.22
897.981	32.94
898.151	57.51
898.322	37.03
898.492	22.7
898.662	-10.07
898.832	18.6
899.003	-26.45
899.173	39.08
899.343	43.18
899.513	2.22
