Data from USB4F104151__218__11-10-45-915.txt Node

Date: Wed Mar 12 11:10:45 EDT 2025
User: louis
Spectrometer: USB4F10415
Trigger mode: 4
Integration Time (sec): 2.000000E-2
Scans to average: 1
Electric dark correction enabled: true
Nonlinearity correction enabled: false
Boxcar width: 0
XAxis mode: Wavelengths
Number of Pixels in Spectrum: 3648
>>>>>Begin Spectral Data<<<<<
178.204	-79.7
178.424	-79.7
178.644	-79.7
178.864	-94.04
179.084	-94.04
179.304	28.84
179.524	-38.74
179.744	6.31
179.964	77.99
180.184	-28.5
180.404	75.95
180.624	22.7
180.844	41.13
181.064	-87.89
181.283	-34.64
181.503	-48.98
181.723	-14.17
181.943	30.89
182.163	61.61
182.383	-10.07
182.602	32.94
182.822	37.03
183.042	-65.36
183.262	8.36
183.482	-3.93
183.701	18.6
183.921	24.75
184.141	-10.07
184.361	-5.97
184.58	18.6
184.8	28.84
185.02	-18.26
185.239	37.03
185.459	-18.26
185.679	63.66
185.898	-53.08
186.118	102.57
186.338	-32.6
186.557	34.99
186.777	-20.31
186.997	16.55
187.216	-5.97
187.436	82.09
187.655	43.18
187.875	67.75
188.095	-38.74
188.314	37.03
188.534	34.99
188.753	37.03
188.973	-40.79
189.192	123.05
189.412	4.27
189.631	-12.12
189.851	92.33
190.07	59.56
190.29	-26.45
190.509	55.47
190.729	-30.55
190.948	47.27
191.168	24.75
191.387	14.51
191.607	-12.12
191.826	-20.31
192.045	24.75
192.265	-20.31
192.484	14.51
192.704	20.65
192.923	-38.74
193.142	73.9
193.362	20.65
193.581	37.03
193.8	57.51
194.02	49.32
194.239	18.6
194.458	30.89
194.678	18.6
194.897	-46.93
195.116	-10.07
195.335	98.47
195.555	14.51
195.774	26.79
195.993	-40.79
196.212	65.71
196.432	28.84
196.651	24.75
196.87	16.55
197.089	-1.88
197.308	47.27
197.528	51.37
197.747	8.36
197.966	4.27
198.185	32.94
198.404	24.75
198.623	82.09
198.842	20.65
199.062	-14.17
199.281	39.08
199.5	-16.21
199.719	16.55
199.938	-26.45
200.157	65.71
200.376	47.27
200.595	37.03
200.814	59.56
201.033	86.19
201.252	51.37
201.471	16.55
201.69	30.89
201.909	37.03
202.128	-5.97
202.347	69.8
202.566	-22.36
202.785	-20.31
203.004	-36.69
203.223	43.18
203.442	80.04
203.661	14.51
203.879	39.08
204.098	77.99
204.317	-42.84
204.536	-30.55
204.755	-36.69
204.974	65.71
205.193	0.17
205.411	84.14
205.63	-3.93
205.849	32.94
206.068	0.17
206.287	32.94
206.505	-55.12
206.724	28.84
206.943	0.17
207.162	32.94
207.381	61.61
207.599	121
207.818	-5.97
208.037	22.7
208.255	12.46
208.474	86.19
208.693	-1.88
208.911	-16.21
209.13	45.23
209.349	16.55
209.567	59.56
209.786	67.75
210.005	4.27
210.223	32.94
210.442	-1.88
210.661	57.51
210.879	6.31
211.098	-20.31
211.316	34.99
211.535	-24.4
211.753	6.31
211.972	20.65
212.191	22.7
212.409	-18.26
212.628	-51.03
212.846	18.6
213.065	43.18
213.283	92.33
213.502	-22.36
213.72	28.84
213.938	69.8
214.157	49.32
214.375	-38.74
214.594	67.75
214.812	-24.4
215.031	4.27
215.249	30.89
215.467	75.95
215.686	-20.31
215.904	8.36
216.122	30.89
216.341	20.65
216.559	34.99
216.778	-10.07
216.996	69.8
217.214	-8.02
217.432	-20.31
217.651	-59.22
217.869	10.41
218.087	47.27
218.306	-10.07
218.524	28.84
218.742	43.18
218.96	30.89
219.179	-91.99
219.397	53.42
219.615	-1.88
219.833	-26.45
220.051	43.18
220.27	26.79
220.488	-14.17
220.706	0.17
220.924	47.27
221.142	-14.17
221.36	53.42
221.578	55.47
221.796	26.79
222.015	-8.02
222.233	86.19
222.451	104.62
222.669	-8.02
222.887	125.1
223.105	18.6
223.323	-5.97
223.541	26.79
223.759	-5.97
223.977	-18.26
224.195	57.51
224.413	69.8
224.631	61.61
224.849	14.51
225.067	55.47
225.285	2.22
225.503	-8.02
225.721	16.55
225.939	67.75
226.157	65.71
226.375	96.43
226.592	-18.26
226.81	-71.51
227.028	41.13
227.246	32.94
227.464	-5.97
227.682	47.27
227.9	18.6
228.117	6.31
228.335	67.75
228.553	-12.12
228.771	-44.88
228.989	-8.02
229.206	-1.88
229.424	34.99
229.642	-34.64
229.86	4.27
230.077	-8.02
230.295	-10.07
230.513	59.56
230.731	12.46
230.948	10.41
231.166	41.13
231.384	4.27
231.601	2.22
231.819	88.23
232.037	-5.97
232.254	57.51
232.472	16.55
232.689	16.55
232.907	0.17
233.125	-1.88
233.342	12.46
233.56	30.89
233.777	20.65
233.995	-65.36
234.213	10.41
234.43	-32.6
234.648	55.47
234.865	67.75
235.083	51.37
235.3	102.57
235.518	75.95
235.735	41.13
235.953	20.65
236.17	-32.6
236.388	84.14
236.605	26.79
236.822	53.42
237.04	-1.88
237.257	28.84
237.475	-16.21
237.692	49.32
237.909	26.79
238.127	65.71
238.344	43.18
238.562	43.18
238.779	37.03
238.996	65.71
239.214	61.61
239.431	45.23
239.648	73.9
239.865	-8.02
240.083	57.51
240.3	4.27
240.517	-22.36
240.735	34.99
240.952	-12.12
241.169	14.51
241.386	16.55
241.603	77.99
241.821	-14.17
242.038	18.6
242.255	-51.03
242.472	-24.4
242.689	77.99
242.907	39.08
243.124	10.41
243.341	65.71
243.558	45.23
243.775	39.08
243.992	14.51
244.209	4.27
244.426	16.55
244.643	100.52
244.86	22.7
245.078	10.41
245.295	26.79
245.512	18.6
245.729	-12.12
245.946	34.99
246.163	18.6
246.38	51.37
246.597	14.51
246.814	75.95
247.031	-20.31
247.248	51.37
247.464	37.03
247.681	8.36
247.898	41.13
248.115	24.75
248.332	-34.64
248.549	61.61
248.766	26.79
248.983	84.14
249.2	4.27
249.417	8.36
249.633	-51.03
249.85	88.23
250.067	26.79
250.284	45.23
250.501	20.65
250.717	49.32
250.934	-55.12
251.151	34.99
251.368	-71.51
251.585	2.22
251.801	123.05
252.018	39.08
252.235	53.42
252.451	-3.93
252.668	10.41
252.885	26.79
253.102	34.99
253.318	106.67
253.535	-28.5
253.752	-20.31
253.968	32.94
254.185	28.84
254.401	6.31
254.618	45.23
254.835	0.17
255.051	39.08
255.268	59.56
255.484	2.22
255.701	6.31
255.917	92.33
256.134	24.75
256.351	-22.36
256.567	-40.79
256.784	47.27
257	-10.07
257.217	2.22
257.433	10.41
257.65	6.31
257.866	106.67
258.082	-28.5
258.299	-61.27
258.515	20.65
258.732	-61.27
258.948	10.41
259.165	51.37
259.381	20.65
259.597	39.08
259.814	47.27
260.03	63.66
260.246	-1.88
260.463	63.66
260.679	-12.12
260.895	57.51
261.112	-26.45
261.328	12.46
261.544	-10.07
261.761	110.76
261.977	73.9
262.193	-16.21
262.409	59.56
262.626	20.65
262.842	37.03
263.058	20.65
263.274	39.08
263.49	24.75
263.707	121
263.923	45.23
264.139	-53.08
264.355	10.41
264.571	73.9
264.787	61.61
265.004	30.89
265.22	75.95
265.436	30.89
265.652	-10.07
265.868	90.28
266.084	34.99
266.3	-18.26
266.516	59.56
266.732	-53.08
266.948	32.94
267.164	6.31
267.38	-55.12
267.596	34.99
267.812	65.71
268.028	-5.97
268.244	0.17
268.46	16.55
268.676	-22.36
268.892	28.84
269.108	18.6
269.324	-12.12
269.54	39.08
269.756	77.99
269.972	28.84
270.188	45.23
270.403	65.71
270.619	71.85
270.835	-10.07
271.051	20.65
271.267	22.7
271.483	53.42
271.698	26.79
271.914	-3.93
272.13	-1.88
272.346	20.65
272.562	18.6
272.777	37.03
272.993	63.66
273.209	37.03
273.425	-10.07
273.64	37.03
273.856	2.22
274.072	49.32
274.287	96.43
274.503	26.79
274.719	12.46
274.934	-1.88
275.15	-32.6
275.366	14.51
275.581	14.51
275.797	-1.88
276.012	34.99
276.228	-22.36
276.444	-28.5
276.659	45.23
276.875	-14.17
277.09	90.28
277.306	51.37
277.521	16.55
277.737	47.27
277.952	22.7
278.168	12.46
278.383	65.71
278.599	49.32
278.814	12.46
279.03	32.94
279.245	77.99
279.461	16.55
279.676	18.6
279.892	16.55
280.107	57.51
280.322	-28.5
280.538	-24.4
280.753	-40.79
280.969	59.56
281.184	-42.84
281.399	67.75
281.615	-12.12
281.83	67.75
282.045	37.03
282.26	-16.21
282.476	-10.07
282.691	10.41
282.906	-12.12
283.122	112.81
283.337	-36.69
283.552	57.51
283.767	-1.88
283.983	-26.45
284.198	26.79
284.413	-22.36
284.628	4.27
284.843	-24.4
285.058	-69.46
285.274	22.7
285.489	43.18
285.704	-24.4
285.919	20.65
286.134	20.65
286.349	16.55
286.564	106.67
286.779	14.51
286.995	10.41
287.21	-1.88
287.425	-5.97
287.64	47.27
287.855	71.85
288.07	-8.02
288.285	75.95
288.5	-8.02
288.715	-5.97
288.93	-10.07
289.145	24.75
289.36	104.62
289.575	16.55
289.79	61.61
290.004	43.18
290.219	12.46
290.434	47.27
290.649	16.55
290.864	10.41
291.079	43.18
291.294	-10.07
291.509	26.79
291.724	69.8
291.938	-8.02
292.153	65.71
292.368	34.99
292.583	61.61
292.798	80.04
293.012	88.23
293.227	47.27
293.442	73.9
293.657	59.56
293.871	57.51
294.086	-8.02
294.301	53.42
294.516	20.65
294.73	28.84
294.945	-10.07
295.16	77.99
295.374	34.99
295.589	57.51
295.804	-40.79
296.018	125.1
296.233	-12.12
296.447	32.94
296.662	63.66
296.877	71.85
297.091	26.79
297.306	10.41
297.52	-18.26
297.735	-5.97
297.949	22.7
298.164	-10.07
298.378	80.04
298.593	28.84
298.807	88.23
299.022	45.23
299.236	129.19
299.451	-3.93
299.665	-24.4
299.88	4.27
300.094	4.27
300.309	-63.32
300.523	55.47
300.737	75.95
300.952	26.79
301.166	37.03
301.381	16.55
301.595	69.8
301.809	63.66
302.024	45.23
302.238	-22.36
302.452	12.46
302.667	-26.45
302.881	24.75
303.095	69.8
303.309	45.23
303.524	49.32
303.738	28.84
303.952	53.42
304.166	24.75
304.381	-61.27
304.595	90.28
304.809	34.99
305.023	8.36
305.237	12.46
305.452	94.38
305.666	-1.88
305.88	30.89
306.094	67.75
306.308	45.23
306.522	22.7
306.736	49.32
306.95	-20.31
307.164	49.32
307.379	4.27
307.593	96.43
307.807	26.79
308.021	82.09
308.235	77.99
308.449	22.7
308.663	-8.02
308.877	106.67
309.091	57.51
309.305	39.08
309.519	-48.98
309.733	4.27
309.947	-5.97
310.161	67.75
310.374	77.99
310.588	65.71
310.802	63.66
311.016	49.32
311.23	34.99
311.444	65.71
311.658	12.46
311.872	106.67
312.085	10.41
312.299	112.81
312.513	100.52
312.727	75.95
312.941	-1.88
313.154	49.32
313.368	28.84
313.582	30.89
313.796	12.46
314.009	82.09
314.223	20.65
314.437	63.66
314.651	55.47
314.864	12.46
315.078	2.22
315.292	-20.31
315.505	24.75
315.719	22.7
315.933	28.84
316.146	2.22
316.36	-18.26
316.573	-1.88
316.787	80.04
317.001	59.56
317.214	4.27
317.428	43.18
317.641	49.32
317.855	34.99
318.068	69.8
318.282	80.04
318.495	49.32
318.709	24.75
318.922	-16.21
319.136	80.04
319.349	-18.26
319.563	30.89
319.776	88.23
319.99	47.27
320.203	-1.88
320.417	65.71
320.63	71.85
320.843	-8.02
321.057	88.23
321.27	0.17
321.483	73.9
321.697	-18.26
321.91	61.61
322.124	55.47
322.337	34.99
322.55	77.99
322.763	55.47
322.977	34.99
323.19	-18.26
323.403	69.8
323.617	69.8
323.83	-26.45
324.043	12.46
324.256	34.99
324.469	-67.41
324.683	73.9
324.896	45.23
325.109	14.51
325.322	22.7
325.535	43.18
325.748	53.42
325.962	30.89
326.175	57.51
326.388	53.42
326.601	4.27
326.814	43.18
327.027	51.37
327.24	106.67
327.453	26.79
327.666	53.42
327.879	34.99
328.092	92.33
328.305	92.33
328.518	-61.27
328.731	20.65
328.944	43.18
329.157	20.65
329.37	-5.97
329.583	114.86
329.796	94.38
330.009	61.61
330.222	61.61
330.435	-34.64
330.648	34.99
330.861	94.38
331.073	75.95
331.286	100.52
331.499	2.22
331.712	43.18
331.925	28.84
332.138	32.94
332.35	71.85
332.563	39.08
332.776	69.8
332.989	-12.12
333.202	63.66
333.414	-32.6
333.627	43.18
333.84	67.75
334.053	47.27
334.265	51.37
334.478	-1.88
334.691	12.46
334.903	57.51
335.116	30.89
335.329	118.95
335.541	32.94
335.754	55.47
335.966	16.55
336.179	2.22
336.392	59.56
336.604	22.7
336.817	30.89
337.029	82.09
337.242	12.46
337.454	73.9
337.667	2.22
337.88	61.61
338.092	57.51
338.305	-20.31
338.517	57.51
338.729	51.37
338.942	55.47
339.154	34.99
339.367	-59.22
339.579	30.89
339.792	47.27
340.004	86.19
340.217	-22.36
340.429	47.27
340.641	8.36
340.854	49.32
341.066	73.9
341.278	41.13
341.491	20.65
341.703	8.36
341.915	-1.88
342.128	80.04
342.34	55.47
342.552	-12.12
342.764	26.79
342.977	24.75
343.189	26.79
343.401	-8.02
343.613	39.08
343.826	39.08
344.038	45.23
344.25	-8.02
344.462	24.75
344.674	10.41
344.886	30.89
345.099	-44.88
345.311	8.36
345.523	-40.79
345.735	63.66
345.947	-38.74
346.159	30.89
346.371	-8.02
346.583	0.17
346.795	125.1
347.007	82.09
347.219	20.65
347.431	22.7
347.643	-12.12
347.855	26.79
348.067	41.13
348.279	-40.79
348.491	4.27
348.703	12.46
348.915	71.85
349.127	26.79
349.339	106.67
349.551	61.61
349.763	98.47
349.975	37.03
350.187	41.13
350.399	90.28
350.61	39.08
350.822	43.18
351.034	73.9
351.246	-8.02
351.458	-5.97
351.669	55.47
351.881	-3.93
352.093	80.04
352.305	80.04
352.517	75.95
352.728	77.99
352.94	24.75
353.152	51.37
353.363	-1.88
353.575	16.55
353.787	10.41
353.999	32.94
354.21	133.29
354.422	-5.97
354.633	-32.6
354.845	75.95
355.057	8.36
355.268	41.13
355.48	18.6
355.692	8.36
355.903	55.47
356.115	51.37
356.326	37.03
356.538	69.8
356.749	63.66
356.961	67.75
357.172	102.57
357.384	2.22
357.595	47.27
357.807	92.33
358.018	45.23
358.23	98.47
358.441	86.19
358.653	39.08
358.864	28.84
359.075	-5.97
359.287	4.27
359.498	-3.93
359.709	28.84
359.921	24.75
360.132	94.38
360.344	73.9
360.555	16.55
360.766	92.33
360.977	39.08
361.189	65.71
361.4	28.84
361.611	37.03
361.823	43.18
362.034	-1.88
362.245	49.32
362.456	88.23
362.667	-36.69
362.879	-1.88
363.09	88.23
363.301	57.51
363.512	96.43
363.723	-10.07
363.935	92.33
364.146	51.37
364.357	80.04
364.568	41.13
364.779	-3.93
364.99	90.28
365.201	-1.88
365.412	90.28
365.623	63.66
365.834	51.37
366.045	63.66
366.256	73.9
366.467	80.04
366.678	34.99
366.889	90.28
367.1	18.6
367.311	-3.93
367.522	53.42
367.733	100.52
367.944	75.95
368.155	-1.88
368.366	57.51
368.577	57.51
368.788	47.27
368.999	-16.21
369.209	59.56
369.42	80.04
369.631	51.37
369.842	71.85
370.053	26.79
370.264	34.99
370.474	98.47
370.685	80.04
370.896	43.18
371.107	61.61
371.317	86.19
371.528	10.41
371.739	129.19
371.95	-5.97
372.16	55.47
372.371	-22.36
372.582	-8.02
372.792	37.03
373.003	-3.93
373.214	57.51
373.424	61.61
373.635	82.09
373.846	80.04
374.056	28.84
374.267	59.56
374.477	59.56
374.688	77.99
374.898	39.08
375.109	4.27
375.319	8.36
375.53	86.19
375.74	63.66
375.951	45.23
376.161	37.03
376.372	106.67
376.582	22.7
376.793	37.03
377.003	55.47
377.214	61.61
377.424	80.04
377.635	96.43
377.845	61.61
378.055	82.09
378.266	-20.31
378.476	80.04
378.686	-42.84
378.897	77.99
379.107	65.71
379.317	114.86
379.528	45.23
379.738	57.51
379.948	-8.02
380.158	96.43
380.369	90.28
380.579	39.08
380.789	82.09
380.999	41.13
381.21	32.94
381.42	20.65
381.63	20.65
381.84	6.31
382.05	32.94
382.261	-12.12
382.471	88.23
382.681	80.04
382.891	69.8
383.101	-18.26
383.311	12.46
383.521	55.47
383.731	47.27
383.941	71.85
384.151	26.79
384.361	57.51
384.571	88.23
384.781	112.81
384.991	41.13
385.201	28.84
385.411	30.89
385.621	0.17
385.831	47.27
386.041	123.05
386.251	61.61
386.461	75.95
386.671	-8.02
386.881	77.99
387.091	65.71
387.301	-22.36
387.511	18.6
387.72	86.19
387.93	26.79
388.14	77.99
388.35	32.94
388.56	125.1
388.769	6.31
388.979	57.51
389.189	-3.93
389.399	22.7
389.609	55.47
389.818	39.08
390.028	6.31
390.238	71.85
390.447	39.08
390.657	32.94
390.867	-18.26
391.076	28.84
391.286	73.9
391.496	73.9
391.705	112.81
391.915	73.9
392.125	14.51
392.334	39.08
392.544	112.81
392.753	-12.12
392.963	43.18
393.172	12.46
393.382	47.27
393.591	184.49
393.801	49.32
394.01	92.33
394.22	55.47
394.429	53.42
394.639	30.89
394.848	75.95
395.058	69.8
395.267	30.89
395.477	96.43
395.686	145.58
395.895	129.19
396.105	108.71
396.314	80.04
396.524	84.14
396.733	80.04
396.942	2.22
397.152	75.95
397.361	145.58
397.57	75.95
397.78	-30.55
397.989	2.22
398.198	170.15
398.407	55.47
398.617	26.79
398.826	-5.97
399.035	30.89
399.244	63.66
399.453	102.57
399.663	80.04
399.872	80.04
400.081	26.79
400.29	121
400.499	37.03
400.708	213.16
400.917	71.85
401.127	51.37
401.336	100.52
401.545	209.06
401.754	121
401.963	147.62
402.172	108.71
402.381	102.57
402.59	112.81
402.799	110.76
403.008	123.05
403.217	84.14
403.426	69.8
403.635	86.19
403.844	96.43
404.053	180.39
404.262	80.04
404.471	108.71
404.68	118.95
404.888	141.48
405.097	108.71
405.306	67.75
405.515	153.77
405.724	90.28
405.933	129.19
406.142	176.3
406.35	135.34
406.559	104.62
406.768	161.96
406.977	125.1
407.185	196.78
407.394	252.07
407.603	155.82
407.812	209.06
408.02	166.06
408.229	219.3
408.438	153.77
408.646	229.54
408.855	186.54
409.064	159.91
409.272	252.07
409.481	223.4
409.69	243.88
409.898	243.88
410.107	264.36
410.315	219.3
410.524	229.54
410.733	223.4
410.941	231.59
411.15	317.61
411.358	297.13
411.567	383.14
411.775	395.43
411.984	340.13
412.192	360.61
412.401	284.84
412.609	448.68
412.818	481.44
413.026	362.66
413.234	465.06
413.443	438.44
413.651	452.77
413.86	503.97
414.068	403.62
414.276	471.2
414.485	499.88
414.693	561.31
414.901	643.23
415.11	610.47
415.318	606.37
415.526	712.86
415.734	702.62
415.943	684.19
416.151	770.21
416.359	700.58
416.567	766.11
416.776	809.12
416.984	821.41
417.192	854.17
417.4	856.22
417.608	858.27
417.817	888.99
418.025	960.67
418.233	997.53
418.441	1067.16
418.649	1058.97
418.857	1126.55
419.065	1169.56
419.273	1216.66
419.481	1153.18
419.689	1265.82
419.897	1337.49
420.105	1319.06
420.313	1388.69
420.521	1376.41
420.729	1413.27
420.937	1452.18
421.145	1585.3
421.353	1579.15
421.561	1677.46
421.769	1650.83
421.977	1685.65
422.185	1783.95
422.393	1841.29
422.601	1986.7
422.809	2001.04
423.017	2025.61
423.224	2121.87
423.432	2119.82
423.64	2066.57
423.848	2355.33
424.056	2343.05
424.263	2472.07
424.471	2459.78
424.679	2474.12
424.887	2629.76
425.094	2781.31
425.302	2787.46
425.51	2834.56
425.718	2922.62
425.925	3002.49
426.133	3041.4
426.341	3354.74
426.548	3356.79
426.756	3289.21
426.964	3295.35
427.171	3688.56
427.379	3702.9
427.586	3958.89
427.794	4014.19
428.001	4225.13
428.209	4212.84
428.417	4192.36
428.624	4517.99
428.832	4466.79
429.039	4411.5
429.247	4563.05
429.454	4923.49
429.662	5118.04
429.869	4872.29
430.076	5171.29
430.284	5064.8
430.491	5173.34
430.699	5539.93
430.906	5589.08
431.114	5589.08
431.321	5718.1
431.528	5886.03
431.736	6326.35
431.943	6457.42
432.15	6393.93
432.358	6512.71
432.565	6803.52
432.772	6918.21
432.979	7202.88
433.187	7209.02
433.394	7266.36
433.601	7845.94
433.808	7628.85
434.016	7966.77
434.223	8276.01
434.43	8597.54
434.637	8450.09
434.844	8984.61
435.052	9146.4
435.259	9175.07
435.466	9418.78
435.673	9103.39
435.88	9637.91
436.087	10244.11
436.294	10258.45
436.501	10076.18
436.708	10205.2
436.915	10717.19
437.122	10995.71
437.329	10983.43
437.537	11128.83
437.743	11552.76
437.95	11395.07
438.157	12105.71
438.364	12308.46
438.571	12222.45
438.778	12128.24
438.985	13586.4
439.192	12978.15
439.399	13518.81
439.606	13342.69
439.813	13727.71
440.02	14680.01
440.227	14677.96
440.433	14354.38
440.64	14913.48
440.847	14770.12
441.054	15065.03
441.261	16172.98
441.467	15634.36
441.674	16144.31
441.881	16818.09
442.088	16742.32
442.294	16625.58
442.501	17244.07
442.708	17309.6
442.914	17936.28
443.121	18866.06
443.328	18343.83
443.534	19517.31
443.741	18778
443.948	18730.89
444.154	20172.66
444.361	19957.63
444.568	20277.11
444.774	19939.19
444.981	20365.17
445.187	20934.51
445.394	21921.63
445.6	21630.82
445.807	23715.65
446.013	22654.8
446.22	22925.13
446.426	24051.52
446.633	24221.5
446.839	24588.08
447.046	23641.92
447.252	25104.17
447.459	25376.55
447.665	25143.08
447.871	26244.89
448.078	27328.27
448.284	26033.95
448.491	26773.27
448.697	27864.83
448.903	28249.85
449.11	28182.27
449.316	27830.02
449.522	28200.7
449.728	28960.5
449.935	29372.14
450.141	29132.53
450.347	29966.05
450.553	29087.47
450.76	29318.89
450.966	30387.93
451.172	29691.62
451.378	30406.36
451.584	29814.5
451.791	30736.09
451.997	30322.4
452.203	31225.55
452.409	30934.74
452.615	30838.48
452.821	29490.92
453.027	29380.33
453.233	30836.44
453.44	29660.9
453.646	29873.89
453.852	30021.34
454.058	30316.25
454.264	29705.96
454.47	29970.15
454.676	29437.67
454.882	30488.28
455.088	27604.74
455.294	28206.84
455.5	28397.31
455.705	28849.91
455.911	27512.58
456.117	27074.32
456.323	26498.84
456.529	25306.92
456.735	26246.94
456.941	25972.51
457.147	25294.63
457.352	24368.95
457.558	24215.35
457.764	24379.19
457.97	24006.46
458.176	23222.09
458.381	23256.9
458.587	21899.1
458.793	22110.04
458.999	20815.73
459.204	22583.12
459.41	21794.65
459.616	20422.52
459.821	20629.36
460.027	20483.95
460.233	19916.67
460.438	19058.57
460.644	19261.32
460.85	18327.44
461.055	18212.76
461.261	18118.55
461.466	16732.08
461.672	16420.78
461.878	17473.44
462.083	16054.2
462.289	15873.98
462.494	15613.88
462.7	15114.18
462.905	14393.3
463.111	15181.76
463.316	15296.45
463.522	14893
463.727	14847.94
463.932	14960.58
464.138	14481.36
464.343	14700.49
464.549	14421.97
464.754	14600.14
464.959	14755.79
465.165	14438.35
465.37	14026.71
465.575	13635.55
465.781	14122.96
465.986	14024.66
466.191	13750.23
466.397	13602.78
466.602	12769.26
466.807	13123.55
467.012	13268.96
467.218	13228
467.423	13197.28
467.628	13072.36
467.833	13873.11
468.038	13058.02
468.244	12822.5
468.449	13397.98
468.654	12693.48
468.859	12961.76
469.064	12566.51
469.269	12216.3
469.474	12374
469.679	12558.32
469.885	12134.39
470.09	12330.99
470.295	12152.82
470.5	11741.18
470.705	12079.09
470.91	11804.66
471.115	11886.58
471.32	11730.94
471.525	11821.05
471.73	11464.7
471.935	11507.71
472.139	11132.93
472.344	11118.59
472.549	11102.21
472.754	10835.97
472.959	10717.19
473.164	10403.85
473.369	10227.73
473.574	10758.15
473.778	10604.55
473.983	10551.31
474.188	10549.26
474.393	10162.19
474.598	10041.36
474.802	9820.18
475.007	9873.43
475.212	9957.39
475.417	9764.89
475.621	9318.43
475.826	9541.66
476.031	9572.38
476.235	9232.41
476.44	9607.19
476.645	9314.33
476.849	9142.3
477.054	8966.18
477.259	8845.35
477.463	8972.32
477.668	8767.52
477.872	8773.67
478.077	8646.69
478.282	8650.79
478.486	8595.5
478.691	8486.95
478.895	8374.31
479.1	8216.62
479.304	8126.51
479.509	8216.62
479.713	8058.93
479.918	8067.12
480.122	7927.86
480.326	8235.05
480.531	8060.98
480.735	7835.7
480.94	7993.39
481.144	8169.52
481.348	7530.55
481.553	7716.92
481.757	7581.75
481.961	7772.21
482.166	7952.43
482.37	7829.56
482.574	7622.71
482.778	7780.4
482.983	7780.4
483.187	7598.13
483.391	7624.76
483.595	7686.2
483.8	7424.06
484.004	7862.32
484.208	7678.01
484.412	7651.38
484.616	7749.68
484.821	7643.19
485.025	7655.48
485.229	7635
485.433	7606.33
485.637	7477.3
485.841	7751.73
486.045	7561.27
486.249	7673.91
486.453	7600.18
486.657	7673.91
486.861	7747.64
487.065	7538.74
487.269	7772.21
487.473	7596.09
487.677	7673.91
487.881	7780.4
488.085	7612.47
488.289	7665.72
488.493	7637.05
488.697	7741.49
488.901	7899.19
489.105	7690.29
489.309	7751.73
489.512	7721.01
489.716	7637.05
489.92	7659.57
490.124	7667.77
490.328	7909.43
490.531	7981.1
490.735	7764.02
490.939	7811.12
491.143	7780.4
491.346	7950.39
491.55	7946.29
491.754	7966.77
491.958	8063.02
492.161	7794.74
492.365	8114.22
492.569	8087.6
492.772	8140.85
492.976	8042.54
493.18	8202.29
493.383	8357.93
493.587	8169.52
493.79	8595.5
493.994	8308.78
494.197	8425.51
494.401	8497.19
494.605	8372.27
494.808	8585.26
495.012	8736.81
495.215	8665.13
495.419	8755.24
495.622	8710.18
495.825	8861.73
496.029	8998.95
496.232	9175.07
496.436	8974.37
496.639	9457.69
496.843	9312.28
497.046	9531.42
497.249	9580.57
497.453	9621.53
497.656	9676.82
497.859	9680.92
498.063	9650.2
498.266	9922.58
498.469	9918.48
498.673	10104.85
498.876	10342.41
499.079	10364.94
499.282	10244.11
499.485	10516.49
499.689	10557.45
499.892	10780.68
500.095	10786.82
500.298	11038.72
500.501	10975.24
500.705	11040.77
500.908	11145.22
501.111	11247.62
501.314	11720.7
501.517	11689.98
501.72	11886.58
501.923	11739.13
502.126	12183.54
502.329	12167.15
502.532	12187.63
502.735	12468.2
502.938	12695.53
503.141	12660.71
503.344	13035.49
503.547	12914.66
503.75	13082.6
503.953	13215.71
504.156	13346.78
504.359	13590.49
504.562	13598.68
504.765	13961.17
504.968	14020.56
505.17	14112.72
505.373	14227.41
505.576	14591.95
505.779	14479.31
505.982	14671.82
506.185	14698.44
506.387	15007.69
506.59	15202.24
506.793	15382.46
506.996	15409.09
507.198	15792.06
507.401	15816.63
507.604	15769.53
507.807	16089.01
508.009	16099.25
508.212	16502.7
508.415	16558
508.617	16644.01
508.82	16820.14
509.022	16783.27
509.225	17289.12
509.428	17493.92
509.63	17663.9
509.833	17471.39
510.035	18001.82
510.238	17803.16
510.44	18300.82
510.643	18288.53
510.845	18657.17
511.048	18657.17
511.25	18857.87
511.453	19126.15
511.655	19453.83
511.858	19433.35
512.06	19500.93
512.262	19924.86
512.465	19734.4
512.667	20025.21
512.87	20299.64
513.072	20172.66
513.274	20524.91
513.477	21045.1
513.679	21065.58
513.881	21217.13
514.084	21624.67
514.286	21520.23
514.488	21929.82
514.69	22404.95
514.893	22499.16
515.095	22480.72
515.297	23045.96
515.499	22812.49
515.701	22890.32
515.904	23023.44
516.106	23555.91
516.308	23689.03
516.51	23969.6
516.712	23816
516.914	24389.43
517.116	24469.3
517.318	24651.57
517.52	24987.44
517.722	24936.24
517.925	25411.37
518.127	25468.71
518.329	26017.57
518.531	25685.79
518.733	26476.31
518.935	26416.92
519.136	26332.95
519.338	26928.91
519.54	26861.33
519.742	27399.94
519.944	27512.58
520.146	27850.5
520.348	28092.16
520.55	27954.94
520.752	28167.93
520.954	29036.27
521.155	28335.87
521.357	29089.52
521.559	29253.36
521.761	29478.63
521.963	29525.74
522.164	29630.18
522.366	29910.75
522.568	30095.07
522.77	30127.84
522.971	30686.93
523.173	30533.34
523.375	30619.35
523.576	30602.97
523.778	30979.79
523.98	31309.52
524.181	31055.57
524.383	31407.82
524.584	32173.76
524.786	32042.69
524.988	32122.56
525.189	32384.7
525.391	32571.07
525.592	32847.54
525.794	32837.3
525.995	32970.42
526.197	33195.7
526.398	33064.63
526.6	33463.98
526.801	33371.82
527.003	33832.61
527.204	33406.64
527.406	34231.97
527.607	34440.86
527.808	34320.03
528.01	33517.23
528.211	34148
528.412	34801.3
528.614	34655.9
528.815	34717.34
529.016	34735.77
529.218	34588.31
529.419	34651.8
529.62	34571.93
529.822	35012.24
530.023	35202.71
530.224	35094.16
530.425	34750.1
530.626	34901.65
530.828	34946.71
531.029	36019.85
531.23	35221.14
531.431	35401.36
531.632	35219.09
531.833	35755.66
532.035	35448.46
532.236	36013.7
532.437	35921.54
532.638	35311.25
532.839	35393.17
533.04	36146.82
533.241	35253.9
533.442	36597.37
533.643	36023.94
533.844	35896.97
534.045	36523.65
534.246	35849.86
534.447	36193.92
534.648	36019.85
534.849	36204.16
535.05	35612.3
535.251	36298.37
535.451	36091.52
535.652	36066.95
535.853	36241.03
536.054	35974.79
536.255	36040.32
536.456	35980.93
536.657	36472.45
536.857	36081.28
537.058	36124.29
537.259	36640.38
537.46	36607.61
537.66	35761.8
537.861	36202.11
538.062	36071.04
538.263	36241.03
538.463	36310.66
538.664	36214.4
538.865	36038.28
539.065	36630.14
539.266	35782.28
539.466	36787.83
539.667	35886.73
539.868	36644.48
540.068	36030.08
540.269	36177.54
540.469	36408.96
540.67	35913.35
540.87	36408.96
541.071	36130.44
541.271	36451.97
541.472	36169.35
541.672	36019.85
541.873	35892.87
542.073	35337.87
542.274	36449.92
542.474	35880.58
542.675	35905.16
542.875	36449.92
543.075	35868.3
543.276	35438.22
543.476	36236.93
543.676	35847.82
543.877	36146.82
544.077	36210.31
544.277	36134.53
544.478	35573.39
544.678	36085.38
544.878	35923.59
545.078	35946.12
545.279	35450.51
545.479	35911.3
545.679	36046.47
545.879	35769.99
546.079	35901.06
546.28	35989.13
546.48	35810.95
546.68	35866.25
546.88	36107.91
547.08	35813
547.28	35552.91
547.48	35421.84
547.68	35712.65
547.88	36003.46
548.081	35432.08
548.281	35339.92
548.481	35622.54
548.681	35913.35
548.881	35753.61
549.081	35280.53
549.28	35538.57
549.48	36073.09
549.68	35577.48
549.88	35884.68
550.08	35333.78
550.28	35794.57
550.48	35268.24
550.68	35669.64
550.88	35235.47
551.08	35880.58
551.279	35622.54
551.479	35370.64
551.679	35534.48
551.879	35321.49
552.079	35307.15
552.278	35024.53
552.478	35276.43
552.678	35278.48
552.878	35628.68
553.077	35085.97
553.277	34782.87
553.477	35862.15
553.676	35237.52
553.876	34870.93
554.076	34678.43
554.275	35391.12
554.475	34834.07
554.674	35200.66
554.874	34918.04
555.074	34860.69
555.273	35153.55
555.473	35348.11
555.672	34893.46
555.872	34631.32
556.071	34543.26
556.271	35477.13
556.47	34807.45
556.67	34653.85
556.869	34741.91
557.068	34979.48
557.268	34401.95
557.467	34678.43
557.667	34424.48
557.866	34197.15
558.065	34453.15
558.265	34268.83
558.464	33980.07
558.663	34256.54
558.863	34133.67
559.062	34432.67
559.261	33877.67
559.461	34139.81
559.66	33760.94
559.859	34025.12
560.058	33715.88
560.258	34078.37
560.457	33527.47
560.656	33679.02
560.855	33590.95
561.054	33633.96
561.253	33181.36
561.453	33447.6
561.652	33509.04
561.851	33494.7
562.05	33128.11
562.249	33013.43
562.448	33390.25
562.647	33033.91
562.846	32958.13
563.045	33273.52
563.244	32896.69
563.443	33275.57
563.642	32284.35
563.841	33142.45
564.04	32851.64
564.239	32683.7
564.438	32593.59
564.637	32792.25
564.836	32833.21
565.035	32456.38
565.234	32466.62
565.432	32343.74
565.631	32403.13
565.83	32054.98
566.029	31786.69
566.228	31934.15
566.427	31667.91
566.625	31944.39
566.824	31461.07
567.023	31923.91
567.222	31426.25
567.42	31854.28
567.619	31295.18
567.818	30863.06
568.016	31342.28
568.215	31305.42
568.414	31475.4
568.612	31352.52
568.811	30752.47
569.01	30944.98
569.208	30639.83
569.407	31010.51
569.605	30355.16
569.804	30850.77
570.002	30486.23
570.201	30488.28
570.4	30291.68
570.598	29861.6
570.797	29935.33
570.995	30385.88
571.193	29617.89
571.392	29976.29
571.59	29935.33
571.789	29910.75
571.987	29947.62
572.186	29699.81
572.384	29433.58
572.582	29531.88
572.781	29640.42
572.979	29132.53
573.177	29296.36
573.376	29310.7
573.574	29243.12
573.772	29128.43
573.971	29120.24
574.169	28780.28
574.367	28585.72
574.565	29007.6
574.763	28524.28
574.962	28835.57
575.16	28176.12
575.358	28458.74
575.556	27985.66
575.754	28299
575.952	27748.1
576.151	28317.43
576.349	28079.87
576.547	27930.37
576.745	28079.87
576.943	27852.55
577.141	27713.28
577.339	27836.16
577.537	27500.3
577.735	27397.9
577.933	27479.82
578.131	27606.79
578.329	27191.05
578.527	26937.1
578.725	27029.26
578.923	27047.69
579.121	26820.37
579.319	26808.08
579.516	27305.74
579.714	26810.13
579.912	26226.46
580.11	26435.35
580.308	26509.08
580.506	26378.01
580.704	26167.07
580.901	26199.83
581.099	26369.82
581.297	26029.85
581.495	26177.31
581.692	26277.66
581.89	25927.46
582.088	26195.74
582.285	25765.67
582.483	26132.25
582.681	25677.6
582.878	25728.8
583.076	25499.43
583.274	25595.68
583.471	25095.98
583.669	25345.83
583.866	25464.61
584.064	25294.63
584.262	24813.36
584.459	25308.97
584.657	24917.81
584.854	25169.71
585.052	24645.43
585.249	24657.71
585.447	24983.34
585.644	24557.36
585.841	24405.81
586.039	24665.91
586.236	24362.81
586.434	24151.87
586.631	24248.12
586.828	23914.3
587.026	23930.69
587.223	24061.76
587.42	24035.13
587.618	24227.64
587.815	23656.26
588.012	23959.36
588.21	23482.18
588.407	23770.94
588.604	23592.77
588.801	23277.38
588.999	23605.06
589.196	23521.09
589.393	23318.34
589.59	23293.77
589.787	23160.65
589.984	23033.68
590.182	22841.17
590.379	22996.81
590.576	22933.32
590.773	23060.3
590.97	22742.86
591.167	22765.39
591.364	22740.82
591.561	22712.14
591.758	22404.95
591.955	22499.16
592.152	22450
592.349	22292.31
592.546	22419.28
592.743	22212.44
592.94	21940.06
593.137	22089.56
593.334	21962.59
593.531	21634.91
593.727	21958.49
593.924	21864.29
594.121	21552.99
594.318	21645.15
594.515	21260.13
594.712	21626.72
594.908	21061.48
595.105	21579.62
595.302	21172.07
595.499	21247.85
595.696	21241.7
595.892	20979.56
596.089	21182.31
596.286	21268.33
596.482	21202.79
596.679	20975.47
596.876	20987.75
597.072	20846.44
597.269	20746.09
597.466	20639.6
597.662	20828.01
597.859	20402.04
598.055	20569.97
598.252	20262.77
598.448	20750.19
598.645	20543.35
598.841	19834.75
599.038	20008.83
599.234	20096.89
599.431	19812.22
599.627	19894.14
599.824	19883.9
600.02	19574.66
600.217	19824.51
600.413	19554.18
600.609	19601.28
600.806	19437.44
601.002	19550.08
601.198	19371.91
601.395	19373.96
601.591	19384.19
601.787	19234.69
601.984	19140.49
602.18	19556.22
602.376	19023.75
602.572	18978.7
602.769	19113.86
602.965	18872.2
603.161	19029.9
603.357	18851.72
603.553	18960.27
603.75	18554.77
603.946	18753.42
604.142	18524.05
604.338	18276.24
604.534	18188.18
604.73	18290.58
604.926	18505.62
605.122	18343.83
605.318	18165.65
605.514	18147.22
605.71	17969.05
605.906	18141.08
606.102	17956.76
606.298	18077.59
606.494	18053.02
606.69	17872.79
606.886	18069.4
607.082	17508.26
607.278	17870.75
607.474	17768.35
607.67	17596.32
607.866	17659.81
608.062	17774.49
608.257	17393.57
608.453	17348.51
608.649	17536.93
608.845	17278.88
609.041	17473.44
609.236	17596.32
609.432	17360.8
609.628	17215.4
609.824	17323.94
610.019	17088.42
610.215	17039.27
610.411	17125.29
610.606	16973.74
610.802	17061.8
610.998	17055.65
611.193	16965.54
611.389	16768.94
611.584	17098.66
611.78	16453.55
611.976	16756.65
612.171	16879.53
612.367	16689.07
612.562	16676.78
612.758	16371.63
612.953	16412.59
613.149	16318.39
613.344	16091.06
613.539	16752.56
613.735	16451.5
613.93	16500.65
614.126	16293.81
614.321	16308.15
614.517	16363.44
614.712	16308.15
614.907	16089.01
615.103	16283.57
615.298	16179.12
615.493	16230.32
615.688	15908.79
615.884	16367.54
616.079	15833.02
616.274	16035.77
616.47	16263.09
616.665	15974.33
616.86	15769.53
617.055	15775.67
617.25	15673.28
617.445	15734.71
617.641	15749.05
617.836	16017.33
618.031	15404.99
618.226	15566.78
618.421	15478.72
618.616	15407.04
618.811	15394.75
619.006	15660.99
619.201	15101.89
619.396	15222.72
619.591	15085.51
619.786	15208.39
619.981	14931.91
620.176	15323.07
620.371	14723.02
620.566	15077.32
620.761	14948.29
620.956	14936.01
621.151	14475.21
621.346	14628.81
621.541	14475.21
621.735	14591.95
621.93	14221.27
622.125	14413.77
622.32	14254.03
622.515	13969.37
622.709	14155.73
622.904	14303.18
623.099	13869.02
623.294	14088.15
623.488	13873.11
623.683	13686.75
623.878	13314.02
624.072	13899.73
624.267	13539.29
624.462	13625.31
624.656	13422.56
624.851	13570.01
625.046	13424.61
625.24	13420.51
625.435	13058.02
625.629	13094.88
625.824	12853.22
626.018	13010.92
626.213	12662.76
626.407	12840.93
626.602	12785.64
626.796	12810.22
626.991	12529.64
627.185	12527.6
627.38	12349.42
627.574	12195.82
627.768	12109.81
627.963	12505.07
628.157	12099.57
628.352	12038.13
628.546	12085.23
628.74	12064.75
628.935	12023.8
629.129	12040.18
629.323	11700.22
629.517	11661.3
629.712	11722.74
629.906	11720.7
630.1	11534.33
630.294	11501.56
630.489	11341.82
630.683	11526.14
630.877	11241.47
631.071	11167.74
631.265	11255.81
631.459	11104.26
631.653	11051.01
631.848	11046.91
632.042	10981.38
632.236	10835.97
632.43	10758.15
632.624	10969.09
632.818	10784.77
633.012	10643.46
633.206	10721.29
633.4	10567.69
633.594	10536.97
633.788	10418.19
633.982	10457.1
634.176	10483.72
634.369	10192.91
634.563	10260.49
634.757	10149.9
634.951	10280.97
635.145	10231.82
635.339	10207.25
635.533	9891.86
635.726	9898
635.92	9766.93
636.114	9693.21
636.308	9848.85
636.501	9811.99
636.695	9547.8
636.889	9656.34
637.083	9660.44
637.276	9642.01
637.47	9308.19
637.664	9418.78
637.857	9500.7
638.051	9441.31
638.244	9330.72
638.438	9078.82
638.632	8917.03
638.825	9031.71
639.019	9197.6
639.212	9068.58
639.406	8980.51
639.599	8929.31
639.793	9013.28
639.986	8837.16
640.18	8955.94
640.373	8943.65
640.567	8712.23
640.76	8701.99
640.954	8656.93
641.147	8515.62
641.34	8427.56
641.534	8499.24
641.727	8239.15
641.92	8468.52
642.114	8427.56
642.307	8081.46
642.5	8190
642.694	8138.8
642.887	8333.36
643.08	8386.6
643.273	8034.35
643.467	8058.93
643.66	7905.33
643.853	8077.36
644.046	7874.61
644.239	7872.56
644.432	7794.74
644.626	7733.3
644.819	7591.99
645.012	7751.73
645.205	7747.64
645.398	7632.95
645.591	7637.05
645.784	7682.1
645.977	7499.83
646.17	7475.26
646.363	7311.42
646.556	7299.13
646.749	7190.59
646.942	7286.84
647.135	7354.43
647.328	7184.45
647.521	7458.87
647.714	7073.85
647.907	7014.46
648.099	7082.05
648.292	7067.71
648.485	7088.19
648.678	7024.7
648.871	6916.16
649.064	6725.7
649.256	6737.99
649.449	6858.82
649.642	6740.04
649.835	6660.17
650.027	6737.99
650.22	6781
650.413	6694.98
650.605	6520.9
650.798	6621.25
650.991	6436.94
651.183	6768.71
651.376	6367.31
651.568	6479.94
651.761	6406.22
651.954	6330.44
652.146	6359.11
652.339	6371.4
652.531	6305.87
652.724	6154.32
652.916	6096.97
653.109	6025.29
653.301	6142.03
653.494	6064.21
653.686	5859.41
653.879	6137.93
654.071	5998.67
654.263	5980.24
654.456	5992.53
654.648	5937.23
654.84	5881.94
655.033	5814.35
655.225	5705.81
655.417	5693.52
655.61	5797.97
655.802	5726.29
655.994	5830.74
656.186	5464.15
656.379	5701.72
656.571	5675.09
656.763	5466.2
656.955	5525.59
657.148	5496.92
657.34	5584.98
657.532	5398.62
657.724	5406.81
657.916	5478.49
658.108	5283.93
658.3	5234.78
658.492	5328.99
658.684	5101.66
658.876	5179.48
659.068	5283.93
659.26	5099.61
659.452	5066.85
659.644	5105.76
659.836	5118.04
660.028	5159
660.22	5087.33
660.412	5044.32
660.604	4935.78
660.796	5036.13
660.988	5091.42
661.18	5060.7
661.372	4923.49
661.563	4970.59
661.755	4933.73
661.947	4872.29
662.139	4876.38
662.331	4927.58
662.522	4692.07
662.714	4733.03
662.906	4741.22
663.097	4657.25
663.289	4581.48
663.481	4651.11
663.673	4802.66
663.864	4599.91
664.056	4618.34
664.247	4460.65
664.439	4565.09
664.631	4530.28
664.822	4393.06
665.014	4677.73
665.205	4378.73
665.397	4470.89
665.588	4341.86
665.78	4294.76
665.971	4290.67
666.163	4397.16
666.354	4157.55
666.546	4300.91
666.737	4270.19
666.929	4294.76
667.12	4216.94
667.311	4196.46
667.503	4247.66
667.694	4167.79
667.885	4108.4
668.077	4192.36
668.268	3881.07
668.459	4122.73
668.651	4241.51
668.842	3995.76
669.033	3981.42
669.224	3960.94
669.416	4006
669.607	4028.53
669.798	3938.41
669.989	4001.9
670.18	3911.79
670.371	3897.46
670.563	3956.85
670.754	3827.82
670.945	3762.29
671.136	3911.79
671.327	3836.02
671.518	3887.22
671.709	3856.5
671.9	3907.7
672.091	3856.5
672.282	3766.39
672.473	3727.47
672.664	3717.23
672.855	3733.62
673.046	3776.63
673.237	3737.71
673.428	3680.37
673.619	3647.6
673.809	3643.51
674	3610.74
674.191	3541.11
674.382	3637.36
674.573	3508.34
674.764	3557.49
674.954	3668.08
675.145	3541.11
675.336	3606.64
675.527	3655.79
675.717	3516.53
675.908	3387.51
676.099	3469.43
676.289	3467.38
676.48	3405.94
676.671	3471.48
676.861	3397.75
677.052	3469.43
677.243	3381.37
677.433	3508.34
677.624	3371.13
677.814	3407.99
678.005	3371.13
678.195	3276.92
678.386	3334.26
678.576	3399.8
678.767	3328.12
678.957	3326.07
679.148	3262.58
679.338	3465.33
679.529	3295.35
679.719	3301.5
679.909	3293.3
680.1	3276.92
680.29	3250.3
680.481	3248.25
680.671	3250.3
680.861	3356.79
681.052	3197.05
681.242	3338.36
681.432	3207.29
681.622	3211.39
681.813	3119.23
682.003	3127.42
682.193	3223.67
682.383	3190.91
682.573	3137.66
682.764	3143.8
682.954	3188.86
683.144	3111.04
683.334	3094.65
683.524	3182.71
683.714	2936.96
683.904	2988.16
684.094	3127.42
684.284	3014.78
684.474	3094.65
684.664	3108.99
684.854	3096.7
685.044	2941.05
685.234	3065.98
685.424	2975.87
685.614	3068.03
685.804	2961.53
685.994	2998.4
686.184	2943.1
686.374	2910.33
686.564	2969.73
686.753	2973.82
686.943	2812.03
687.133	2924.67
687.323	2902.14
687.513	2971.77
687.702	2779.26
687.892	2791.55
688.082	2830.46
688.272	2850.94
688.461	2871.42
688.651	2926.72
688.841	2791.55
689.03	2791.55
689.22	2756.74
689.41	2779.26
689.599	2715.78
689.789	2701.44
689.979	2740.35
690.168	2781.31
690.358	2549.89
690.547	2664.58
690.737	2719.87
690.926	2779.26
691.116	2652.29
691.305	2701.44
691.495	2693.25
691.684	2562.18
691.874	2736.26
692.063	2611.33
692.252	2652.29
692.442	2650.24
692.631	2603.14
692.82	2658.43
693.01	2467.97
693.199	2551.94
693.388	2490.5
693.578	2463.88
693.767	2576.52
693.956	2619.52
694.146	2431.11
694.335	2422.92
694.524	2408.58
694.713	2551.94
694.902	2406.53
695.092	2465.93
695.281	2500.74
695.47	2429.06
695.659	2441.35
695.848	2449.54
696.037	2443.4
696.226	2533.51
696.415	2418.82
696.604	2422.92
696.793	2504.84
696.982	2433.16
697.171	2453.64
697.36	2416.77
697.549	2523.27
697.738	2375.81
697.927	2365.57
698.116	2398.34
698.305	2369.67
698.494	2414.73
698.683	2396.29
698.872	2500.74
699.061	2326.66
699.25	2361.48
699.438	2396.29
699.627	2363.53
699.816	2427.01
700.005	2412.68
700.193	2369.67
700.382	2449.54
700.571	2365.57
700.76	2402.44
700.948	2351.24
701.137	2361.48
701.326	2492.55
701.514	2363.53
701.703	2416.77
701.892	2349.19
702.08	2371.72
702.269	2334.86
702.457	2295.94
702.646	2316.42
702.834	2312.33
703.023	2375.81
703.212	2171.02
703.4	2246.79
703.589	2318.47
703.777	2306.18
703.965	2375.81
704.154	2447.49
704.342	2322.57
704.531	2336.9
704.719	2291.85
704.907	2320.52
705.096	2308.23
705.284	2310.28
705.472	2275.46
705.661	2332.81
705.849	2308.23
706.037	2248.84
706.226	2318.47
706.414	2297.99
706.602	2297.99
706.79	2361.48
706.979	2379.91
707.167	2297.99
707.355	2375.81
707.543	2232.46
707.731	2230.41
707.919	2293.9
708.107	2297.99
708.296	2119.82
708.484	2341
708.672	2381.96
708.86	2236.55
709.048	2293.9
709.236	2259.08
709.424	2355.33
709.612	2254.98
709.8	2322.57
709.988	2187.4
710.176	2285.7
710.364	2224.26
710.551	2263.18
710.739	2406.53
710.927	2328.71
711.115	2453.64
711.303	2328.71
711.491	2285.7
711.679	2324.62
711.866	2252.94
712.054	2297.99
712.242	2347.14
712.43	2289.8
712.617	2244.74
712.805	2334.86
712.993	2291.85
713.181	2242.7
713.368	2254.98
713.556	2244.74
713.744	2201.74
713.931	2392.2
714.119	2259.08
714.306	2304.14
714.494	2259.08
714.682	2318.47
714.869	2187.4
715.057	2273.42
715.244	2119.82
715.432	2334.86
715.619	2271.37
715.807	2271.37
715.994	2267.27
716.182	2244.74
716.369	2248.84
716.556	2300.04
716.744	2277.51
716.931	2216.07
717.119	2283.66
717.306	2302.09
717.493	2263.18
717.681	2265.22
717.868	2326.66
718.055	2234.5
718.242	2314.38
718.43	2281.61
718.617	2259.08
718.804	2234.5
718.991	2234.5
719.179	2259.08
719.366	2234.5
719.553	2338.95
719.74	2281.61
719.927	2326.66
720.114	2136.2
720.301	2228.36
720.488	2234.5
720.676	2338.95
720.863	2179.21
721.05	2244.74
721.237	2216.07
721.424	2273.42
721.611	2271.37
721.798	2234.5
721.985	2195.59
722.172	2201.74
722.358	2168.97
722.545	2207.88
722.732	2179.21
722.919	2318.47
723.106	2042
723.293	2322.57
723.48	2265.22
723.667	2179.21
723.853	2271.37
724.04	2267.27
724.227	2195.59
724.414	2236.55
724.6	2160.78
724.787	2220.17
724.974	2314.38
725.161	2201.74
725.347	2101.39
725.534	2144.39
725.72	2181.26
725.907	2271.37
726.094	2168.97
726.28	2166.92
726.467	2181.26
726.653	2267.27
726.84	2228.36
727.027	2271.37
727.213	2164.87
727.4	2199.69
727.586	2199.69
727.773	2207.88
727.959	2148.49
728.145	2240.65
728.332	2240.65
728.518	2130.06
728.705	2261.13
728.891	2232.46
729.077	2193.55
729.264	2205.83
729.45	2197.64
729.636	2244.74
729.823	2183.31
730.009	2361.48
730.195	2191.5
730.382	2140.3
730.568	2271.37
730.754	2287.75
730.94	2166.92
731.126	2220.17
731.313	2261.13
731.499	2238.6
731.685	2254.98
731.871	2250.89
732.057	2271.37
732.243	2142.35
732.429	2168.97
732.615	2177.16
732.801	2226.31
732.987	2177.16
733.173	2168.97
733.359	2271.37
733.545	2240.65
733.731	2087.05
733.917	2099.34
734.103	2164.87
734.289	2123.91
734.475	2259.08
734.661	2207.88
734.847	2250.89
735.033	2042
735.219	2078.86
735.404	2156.68
735.59	2150.54
735.776	2191.5
735.962	2230.41
736.148	2138.25
736.333	2228.36
736.519	2089.1
736.705	2183.31
736.89	2091.15
737.076	2107.53
737.262	2070.67
737.447	2173.07
737.633	2238.6
737.819	2109.58
738.004	2142.35
738.19	2136.2
738.375	2150.54
738.561	2181.26
738.747	2189.45
738.932	2087.05
739.118	2144.39
739.303	2070.67
739.489	2209.93
739.674	2056.33
739.859	1984.65
740.045	2216.07
740.23	2115.72
740.416	1939.6
740.601	2187.4
740.786	1935.5
740.972	2027.66
741.157	2099.34
741.342	2048.14
741.528	2013.32
741.713	2025.61
741.898	1980.56
742.084	1917.07
742.269	1931.41
742.454	2033.8
742.639	2078.86
742.824	1945.74
743.01	1937.55
743.195	2029.71
743.38	1915.02
743.565	1908.88
743.75	2023.56
743.935	1947.79
744.12	1953.93
744.305	2007.18
744.49	1878.16
744.675	1853.58
744.86	1767.57
745.045	1890.45
745.23	1882.25
745.415	1904.78
745.6	1857.68
745.785	1890.45
745.97	1837.2
746.155	1843.34
746.34	1855.63
746.525	1802.38
746.71	1886.35
746.895	1800.34
747.079	1695.89
747.264	1810.58
747.449	1917.07
747.634	1843.34
747.819	1812.62
748.003	1820.81
748.188	1726.61
748.373	1685.65
748.557	1771.66
748.742	1697.94
748.927	1697.94
749.111	1683.6
749.296	1673.36
749.481	1771.66
749.665	1656.98
749.85	1704.08
750.034	1679.51
750.219	1679.51
750.404	1628.31
750.588	1697.94
750.773	1497.24
750.957	1667.22
751.141	1609.87
751.326	1525.91
751.51	1636.5
751.695	1597.59
751.879	1550.48
752.064	1661.07
752.248	1575.06
752.432	1570.96
752.617	1530
752.801	1495.19
752.985	1532.05
753.17	1550.48
753.354	1474.71
753.538	1431.7
753.722	1374.36
753.907	1493.14
754.091	1415.32
754.275	1370.26
754.459	1450.13
754.643	1341.59
754.828	1441.94
755.012	1323.16
755.196	1405.08
755.38	1398.93
755.564	1423.51
755.748	1280.15
755.932	1286.3
756.116	1405.08
756.3	1267.86
756.484	1325.21
756.668	1380.5
756.852	1292.44
757.036	1317.01
757.22	1292.44
757.404	1271.96
757.588	1087.64
757.772	1255.58
757.956	1157.27
758.14	1300.63
758.323	1210.52
758.507	1284.25
758.691	1214.62
758.875	1253.53
759.059	1198.23
759.242	1097.88
759.426	1282.2
759.61	1153.18
759.794	1099.93
759.977	1110.17
760.161	1155.23
760.345	1204.38
760.528	1085.59
760.712	1101.98
760.895	1083.55
761.079	1046.68
761.263	1003.68
761.446	1097.88
761.63	1112.22
761.813	1011.87
761.997	1194.14
762.18	1063.07
762.364	1067.16
762.547	1009.82
762.731	1042.59
762.914	989.34
763.098	1058.97
763.281	1089.69
763.464	1024.16
763.648	1052.83
763.831	952.48
764.015	983.2
764.198	1063.07
764.381	1007.77
764.564	1038.49
764.748	1018.01
764.931	1044.63
765.114	1087.64
765.297	960.67
765.481	981.15
765.664	888.99
765.847	1018.01
766.03	964.76
766.213	825.5
766.397	956.57
766.58	1071.26
766.763	1036.44
766.946	882.85
767.129	936.09
767.312	893.09
767.495	952.48
767.678	915.61
767.861	948.38
768.044	1022.11
768.227	868.51
768.41	942.24
768.593	874.65
768.776	882.85
768.959	997.53
769.142	968.86
769.324	966.81
769.507	850.08
769.69	923.8
769.873	802.97
770.056	884.89
770.239	882.85
770.421	839.84
770.604	950.43
770.787	845.98
770.97	852.13
771.152	815.26
771.335	825.5
771.518	852.13
771.7	901.28
771.883	956.57
772.066	858.27
772.248	858.27
772.431	825.5
772.613	833.69
772.796	893.09
772.978	886.94
773.161	805.02
773.343	792.73
773.526	807.07
773.708	833.69
773.891	739.49
774.073	813.21
774.256	837.79
774.438	741.54
774.621	850.08
774.803	712.86
774.985	770.21
775.168	741.54
775.35	757.92
775.532	743.58
775.715	751.78
775.897	676
776.079	686.24
776.261	723.1
776.444	667.81
776.626	659.62
776.808	792.73
776.99	628.9
777.173	706.72
777.355	653.47
777.537	692.38
777.719	751.78
777.901	688.29
778.083	651.42
778.265	702.62
778.447	716.96
778.629	618.66
778.811	673.95
778.993	626.85
779.175	667.81
779.357	571.55
779.539	592.03
779.721	579.75
779.903	669.86
780.085	671.9
780.267	497.83
780.449	651.42
780.631	592.03
780.812	587.94
780.994	489.64
781.176	581.79
781.358	569.51
781.54	592.03
781.721	616.61
781.903	598.18
782.085	571.55
782.267	573.6
782.448	497.83
782.63	561.31
782.812	534.69
782.993	512.16
783.175	526.5
783.357	540.83
783.538	553.12
783.72	522.4
783.901	485.54
784.083	477.35
784.264	516.26
784.446	563.36
784.627	473.25
784.809	469.16
784.99	458.92
785.172	481.44
785.353	471.2
785.535	514.21
785.716	469.16
785.897	405.67
786.079	467.11
786.26	469.16
786.441	346.28
786.623	440.48
786.804	510.11
786.985	473.25
787.167	372.9
787.348	452.77
787.529	432.29
787.71	377
787.891	465.06
788.073	424.1
788.254	366.76
788.435	438.44
788.616	528.55
788.797	362.66
788.978	452.77
789.159	360.61
789.34	395.43
789.522	391.33
789.703	354.47
789.884	413.86
790.065	413.86
790.246	290.98
790.427	325.8
790.607	456.87
790.788	366.76
790.969	333.99
791.15	327.85
791.331	364.71
791.512	436.39
791.693	366.76
791.874	360.61
792.054	432.29
792.235	356.52
792.416	325.8
792.597	270.5
792.778	323.75
792.958	340.13
793.139	338.09
793.32	354.47
793.5	323.75
793.681	286.89
793.862	278.69
794.042	305.32
794.223	325.8
794.404	374.95
794.584	252.07
794.765	309.41
794.945	379.04
795.126	438.44
795.306	290.98
795.487	276.65
795.667	270.5
795.848	317.61
796.028	207.02
796.209	284.84
796.389	266.41
796.57	233.64
796.75	268.45
796.93	325.8
797.111	231.59
797.291	286.89
797.471	266.41
797.652	313.51
797.832	268.45
798.012	235.69
798.192	215.21
798.373	319.65
798.553	190.63
798.733	295.08
798.913	297.13
799.093	223.4
799.274	252.07
799.454	327.85
799.634	198.82
799.814	231.59
799.994	227.5
800.174	329.89
800.354	266.41
800.534	225.45
800.714	331.94
800.894	225.45
801.074	198.82
801.254	225.45
801.434	274.6
801.614	276.65
801.794	278.69
801.974	598.18
802.154	223.4
802.334	239.78
802.514	256.17
802.693	243.88
802.873	202.92
803.053	207.02
803.233	207.02
803.413	209.06
803.592	194.73
803.772	235.69
803.952	258.21
804.131	250.02
804.311	231.59
804.491	237.74
804.67	202.92
804.85	200.87
805.03	241.83
805.209	196.78
805.389	178.34
805.568	221.35
805.748	170.15
805.928	176.3
806.107	186.54
806.287	225.45
806.466	204.97
806.646	200.87
806.825	237.74
807.004	266.41
807.184	207.02
807.363	159.91
807.543	186.54
807.722	223.4
807.901	139.43
808.081	235.69
808.26	157.86
808.439	186.54
808.619	166.06
808.798	184.49
808.977	239.78
809.156	149.67
809.336	231.59
809.515	217.26
809.694	151.72
809.873	125.1
810.052	204.97
810.231	133.29
810.411	194.73
810.59	172.2
810.769	161.96
810.948	176.3
811.127	84.14
811.306	161.96
811.485	227.5
811.664	235.69
811.843	166.06
812.022	164.01
812.201	127.14
812.38	223.4
812.559	129.19
812.737	237.74
812.916	147.62
813.095	151.72
813.274	145.58
813.453	170.15
813.632	194.73
813.811	168.1
813.989	112.81
814.168	125.1
814.347	104.62
814.526	147.62
814.704	129.19
814.883	157.86
815.062	55.47
815.24	137.38
815.419	133.29
815.598	127.14
815.776	84.14
815.955	153.77
816.133	123.05
816.312	147.62
816.49	139.43
816.669	112.81
816.847	121
817.026	223.4
817.204	67.75
817.383	131.24
817.561	164.01
817.74	149.67
817.918	135.34
818.097	88.23
818.275	157.86
818.453	125.1
818.632	151.72
818.81	155.82
818.988	125.1
819.167	123.05
819.345	82.09
819.523	161.96
819.701	98.47
819.879	131.24
820.058	104.62
820.236	145.58
820.414	188.58
820.592	100.52
820.77	94.38
820.948	127.14
821.127	47.27
821.305	125.1
821.483	159.91
821.661	114.86
821.839	96.43
822.017	137.38
822.195	155.82
822.373	102.57
822.551	151.72
822.729	182.44
822.907	118.95
823.085	102.57
823.262	84.14
823.44	80.04
823.618	180.39
823.796	159.91
823.974	139.43
824.152	10.41
824.329	90.28
824.507	116.9
824.685	127.14
824.863	153.77
825.04	112.81
825.218	207.02
825.396	12.46
825.574	153.77
825.751	112.81
825.929	168.1
826.107	69.8
826.284	53.42
826.462	118.95
826.639	133.29
826.817	88.23
826.994	151.72
827.172	94.38
827.349	108.71
827.527	94.38
827.704	98.47
827.882	127.14
828.059	104.62
828.237	133.29
828.414	172.2
828.591	30.89
828.769	32.94
828.946	108.71
829.124	63.66
829.301	39.08
829.478	108.71
829.655	65.71
829.833	82.09
830.01	63.66
830.187	77.99
830.364	77.99
830.542	96.43
830.719	69.8
830.896	28.84
831.073	112.81
831.25	84.14
831.427	131.24
831.604	98.47
831.782	18.6
831.959	63.66
832.136	86.19
832.313	94.38
832.49	98.47
832.667	184.49
832.844	90.28
833.021	123.05
833.198	102.57
833.374	80.04
833.551	49.32
833.728	121
833.905	77.99
834.082	-30.55
834.259	80.04
834.436	139.43
834.612	108.71
834.789	141.48
834.966	110.76
835.143	106.67
835.319	16.55
835.496	149.67
835.673	47.27
835.85	139.43
836.026	100.52
836.203	139.43
836.38	77.99
836.556	108.71
836.733	84.14
836.909	96.43
837.086	67.75
837.262	94.38
837.439	65.71
837.616	55.47
837.792	43.18
837.968	114.86
838.145	6.31
838.321	55.47
838.498	26.79
838.674	63.66
838.851	104.62
839.027	6.31
839.203	94.38
839.38	51.37
839.556	8.36
839.732	45.23
839.909	-14.17
840.085	49.32
840.261	63.66
840.437	53.42
840.614	71.85
840.79	39.08
840.966	55.47
841.142	108.71
841.318	37.03
841.494	133.29
841.671	71.85
841.847	53.42
842.023	2.22
842.199	88.23
842.375	88.23
842.551	-18.26
842.727	-36.69
842.903	108.71
843.079	30.89
843.255	147.62
843.431	53.42
843.607	118.95
843.783	30.89
843.959	92.33
844.134	41.13
844.31	30.89
844.486	96.43
844.662	145.58
844.838	71.85
845.013	55.47
845.189	77.99
845.365	2.22
845.541	51.37
845.716	67.75
845.892	65.71
846.068	37.03
846.244	12.46
846.419	75.95
846.595	75.95
846.77	16.55
846.946	-28.5
847.122	4.27
847.297	65.71
847.473	96.43
847.648	43.18
847.824	82.09
847.999	6.31
848.175	92.33
848.35	41.13
848.526	61.61
848.701	39.08
848.876	34.99
849.052	14.51
849.227	24.75
849.403	22.7
849.578	28.84
849.753	22.7
849.929	61.61
850.104	96.43
850.279	49.32
850.454	24.75
850.63	69.8
850.805	114.86
850.98	-8.02
851.155	-28.5
851.33	51.37
851.505	14.51
851.681	34.99
851.856	24.75
852.031	104.62
852.206	0.17
852.381	10.41
852.556	22.7
852.731	116.9
852.906	-26.45
853.081	45.23
853.256	16.55
853.431	43.18
853.606	71.85
853.781	-12.12
853.956	14.51
854.131	4.27
854.305	-36.69
854.48	121
854.655	10.41
854.83	45.23
855.005	-24.4
855.18	77.99
855.354	63.66
855.529	20.65
855.704	12.46
855.879	55.47
856.053	20.65
856.228	-12.12
856.403	14.51
856.577	110.76
856.752	45.23
856.926	69.8
857.101	39.08
857.276	0.17
857.45	20.65
857.625	65.71
857.799	26.79
857.974	-5.97
858.148	32.94
858.323	69.8
858.497	-38.74
858.672	49.32
858.846	-10.07
859.02	112.81
859.195	-40.79
859.369	-38.74
859.543	2.22
859.718	12.46
859.892	47.27
860.066	34.99
860.241	-55.12
860.415	41.13
860.589	0.17
860.763	55.47
860.938	49.32
861.112	43.18
861.286	-46.93
861.46	4.27
861.634	4.27
861.808	-42.84
861.982	39.08
862.157	16.55
862.331	61.61
862.505	-40.79
862.679	-44.88
862.853	80.04
863.027	-32.6
863.201	61.61
863.375	47.27
863.549	-8.02
863.722	18.6
863.896	-30.55
864.07	-10.07
864.244	84.14
864.418	-14.17
864.592	49.32
864.766	45.23
864.939	-30.55
865.113	-30.55
865.287	-3.93
865.461	-53.08
865.634	82.09
865.808	2.22
865.982	-5.97
866.156	-5.97
866.329	12.46
866.503	6.31
866.676	2.22
866.85	37.03
867.024	6.31
867.197	57.51
867.371	80.04
867.544	55.47
867.718	47.27
867.891	4.27
868.065	-10.07
868.238	-44.88
868.412	63.66
868.585	-38.74
868.759	-3.93
868.932	0.17
869.105	30.89
869.279	80.04
869.452	6.31
869.625	32.94
869.799	14.51
869.972	6.31
870.145	-3.93
870.319	-10.07
870.492	-81.75
870.665	-26.45
870.838	22.7
871.011	-42.84
871.185	6.31
871.358	-1.88
871.531	51.37
871.704	18.6
871.877	32.94
872.05	-30.55
872.223	26.79
872.396	14.51
872.569	-1.88
872.742	-16.21
872.915	80.04
873.088	-28.5
873.261	30.89
873.434	-59.22
873.607	-22.36
873.78	-16.21
873.953	4.27
874.126	4.27
874.299	57.51
874.471	-77.65
874.644	-71.51
874.817	14.51
874.99	26.79
875.163	-77.65
875.335	-8.02
875.508	-18.26
875.681	14.51
875.853	-12.12
876.026	12.46
876.199	18.6
876.371	28.84
876.544	45.23
876.717	39.08
876.889	24.75
877.062	12.46
877.234	-85.84
877.407	30.89
877.579	-5.97
877.752	59.56
877.924	4.27
878.097	-28.5
878.269	-12.12
878.442	-40.79
878.614	4.27
878.786	6.31
878.959	6.31
879.131	10.41
879.303	-30.55
879.476	49.32
879.648	73.9
879.82	45.23
879.993	-63.32
880.165	-32.6
880.337	-65.36
880.509	28.84
880.681	-10.07
880.854	18.6
881.026	47.27
881.198	28.84
881.37	12.46
881.542	28.84
881.714	-38.74
881.886	-10.07
882.058	8.36
882.23	77.99
882.402	18.6
882.574	2.22
882.746	24.75
882.918	65.71
883.09	-16.21
883.262	86.19
883.434	37.03
883.606	49.32
883.778	-20.31
883.95	-5.97
884.122	22.7
884.293	53.42
884.465	-51.03
884.637	108.71
884.809	34.99
884.98	84.14
885.152	4.27
885.324	61.61
885.496	-10.07
885.667	-24.4
885.839	12.46
886.011	10.41
886.182	8.36
886.354	18.6
886.525	-34.64
886.697	63.66
886.869	-22.36
887.04	-26.45
887.212	-32.6
887.383	69.8
887.555	2.22
887.726	2.22
887.897	8.36
888.069	10.41
888.24	24.75
888.412	14.51
888.583	28.84
888.754	47.27
888.926	26.79
889.097	41.13
889.268	-34.64
889.44	45.23
889.611	-14.17
889.782	6.31
889.953	-5.97
890.125	100.52
890.296	-46.93
890.467	-46.93
890.638	-12.12
890.809	73.9
890.98	67.75
891.151	2.22
891.323	-1.88
891.494	75.95
891.665	24.75
891.836	51.37
892.007	59.56
892.178	-42.84
892.349	-1.88
892.52	-26.45
892.691	37.03
892.862	-16.21
893.032	-10.07
893.203	28.84
893.374	14.51
893.545	22.7
893.716	16.55
893.887	12.46
894.057	30.89
894.228	-16.21
894.399	47.27
894.57	20.65
894.74	-42.84
894.911	10.41
895.082	-5.97
895.253	71.85
895.423	-3.93
895.594	-8.02
895.764	-36.69
895.935	-38.74
896.106	24.75
896.276	-65.36
896.447	57.51
896.617	-1.88
896.788	-28.5
896.958	51.37
897.129	0.17
897.299	-53.08
897.47	45.23
897.64	59.56
897.81	6.31
897.981	39.08
898.151	-24.4
898.322	34.99
898.492	-1.88
898.662	-12.12
898.832	-1.88
899.003	28.84
899.173	67.75
899.343	94.38
899.513	-1.88
