Data from USB4F104151__71__11-06-16-304.txt Node

Date: Wed Mar 12 11:06:16 EDT 2025
User: louis
Spectrometer: USB4F10415
Trigger mode: 4
Integration Time (sec): 2.000000E-2
Scans to average: 1
Electric dark correction enabled: true
Nonlinearity correction enabled: false
Boxcar width: 0
XAxis mode: Wavelengths
Number of Pixels in Spectrum: 3648
>>>>>Begin Spectral Data<<<<<
178.204	-41.3
178.424	-41.3
178.644	-41.3
178.864	-137.56
179.084	-76.12
179.304	-6.49
179.524	20.14
179.744	-20.82
179.964	-16.73
180.184	69.29
180.404	24.23
180.624	-41.3
180.844	-6.49
181.064	44.71
181.283	-47.44
181.503	-41.3
181.723	22.19
181.943	36.52
182.163	61.1
182.383	28.33
182.602	44.71
182.822	69.29
183.042	16.04
183.262	30.38
183.482	46.76
183.701	-31.06
183.921	-14.68
184.141	-2.39
184.361	1.71
184.58	1.71
184.8	34.47
185.02	9.9
185.239	61.1
185.459	18.09
185.679	-12.63
185.898	73.39
186.118	9.9
186.338	36.52
186.557	91.82
186.777	-45.4
186.997	22.19
187.216	32.43
187.436	75.43
187.655	11.95
187.875	65.19
188.095	-6.49
188.314	73.39
188.534	-29.01
188.753	26.28
188.973	11.95
189.192	30.38
189.412	87.72
189.631	-8.53
189.851	38.57
190.07	67.24
190.29	1.71
190.509	16.04
190.729	30.38
190.948	42.67
191.168	81.58
191.387	110.25
191.607	-20.82
191.826	-0.34
192.045	-51.54
192.265	22.19
192.484	-6.49
192.704	79.53
192.923	30.38
193.142	30.38
193.362	61.1
193.581	18.09
193.8	13.99
194.02	79.53
194.239	22.19
194.458	34.47
194.678	5.8
194.897	22.19
195.116	42.67
195.335	32.43
195.555	1.71
195.774	132.78
195.993	50.86
196.212	71.34
196.432	46.76
196.651	5.8
196.87	-20.82
197.089	50.86
197.308	85.67
197.528	13.99
197.747	22.19
197.966	18.09
198.185	52.91
198.404	-6.49
198.623	-20.82
198.842	-24.92
199.062	59.05
199.281	40.62
199.5	22.19
199.719	34.47
199.938	-6.49
200.157	20.14
200.376	5.8
200.595	13.99
200.814	3.75
201.033	34.47
201.252	3.75
201.471	57
201.69	-33.11
201.909	24.23
202.128	-8.53
202.347	63.15
202.566	59.05
202.785	-43.35
203.004	22.19
203.223	11.95
203.442	16.04
203.661	79.53
203.879	52.91
204.098	5.8
204.317	22.19
204.536	-8.53
204.755	40.62
204.974	52.91
205.193	9.9
205.411	32.43
205.63	83.63
205.849	-16.73
206.068	22.19
206.287	-14.68
206.505	18.09
206.724	16.04
206.943	36.52
207.162	36.52
207.381	13.99
207.599	18.09
207.818	63.15
208.037	-31.06
208.255	-6.49
208.474	-14.68
208.693	-47.44
208.911	-0.34
209.13	30.38
209.349	-14.68
209.567	61.1
209.786	26.28
210.005	79.53
210.223	-29.01
210.442	-8.53
210.661	50.86
210.879	5.8
211.098	18.09
211.316	16.04
211.535	61.1
211.753	28.33
211.972	7.85
212.191	5.8
212.409	38.57
212.628	20.14
212.846	-53.59
213.065	-31.06
213.283	22.19
213.502	26.28
213.72	5.8
213.938	-10.58
214.157	77.48
214.375	36.52
214.594	28.33
214.812	100.01
215.031	-18.77
215.249	28.33
215.467	59.05
215.686	63.15
215.904	42.67
216.122	114.34
216.341	71.34
216.559	20.14
216.778	52.91
216.996	63.15
217.214	1.71
217.432	-0.34
217.651	-39.25
217.869	-22.87
218.087	48.81
218.306	44.71
218.524	75.43
218.742	-12.63
218.96	79.53
219.179	-10.58
219.397	40.62
219.615	91.82
219.833	-10.58
220.051	24.23
220.27	34.47
220.488	-2.39
220.706	81.58
220.924	-49.49
221.142	75.43
221.36	38.57
221.578	11.95
221.796	16.04
222.015	26.28
222.233	42.67
222.451	116.39
222.669	-4.44
222.887	81.58
223.105	-35.16
223.323	-2.39
223.541	63.15
223.759	50.86
223.977	36.52
224.195	5.8
224.413	24.23
224.631	-14.68
224.849	11.95
225.067	40.62
225.285	24.23
225.503	13.99
225.721	34.47
225.939	42.67
226.157	-14.68
226.375	75.43
226.592	67.24
226.81	-24.92
227.028	34.47
227.246	-18.77
227.464	69.29
227.682	-55.64
227.9	65.19
228.117	-29.01
228.335	34.47
228.553	44.71
228.771	-4.44
228.989	32.43
229.206	13.99
229.424	22.19
229.642	34.47
229.86	9.9
230.077	57
230.295	20.14
230.513	73.39
230.731	40.62
230.948	77.48
231.166	-4.44
231.384	26.28
231.601	5.8
231.819	61.1
232.037	42.67
232.254	18.09
232.472	-6.49
232.689	-61.78
232.907	13.99
233.125	22.19
233.342	52.91
233.56	-53.59
233.777	-0.34
233.995	11.95
234.213	-29.01
234.43	28.33
234.648	-39.25
234.865	30.38
235.083	97.96
235.3	52.91
235.518	7.85
235.735	16.04
235.953	16.04
236.17	-51.54
236.388	20.14
236.605	32.43
236.822	16.04
237.04	106.15
237.257	46.76
237.475	1.71
237.692	-72.02
237.909	1.71
238.127	13.99
238.344	67.24
238.562	7.85
238.779	-39.25
238.996	24.23
239.214	-0.34
239.431	-22.87
239.648	20.14
239.865	-37.2
240.083	67.24
240.3	38.57
240.517	3.75
240.735	-4.44
240.952	-51.54
241.169	65.19
241.386	42.67
241.603	-16.73
241.821	13.99
242.038	24.23
242.255	77.48
242.472	-20.82
242.689	71.34
242.907	5.8
243.124	52.91
243.341	26.28
243.558	13.99
243.775	67.24
243.992	-29.01
244.209	22.19
244.426	61.1
244.643	59.05
244.86	79.53
245.078	7.85
245.295	9.9
245.512	36.52
245.729	-43.35
245.946	26.28
246.163	34.47
246.38	-35.16
246.597	52.91
246.814	100.01
247.031	30.38
247.248	22.19
247.464	54.95
247.681	44.71
247.898	38.57
248.115	83.63
248.332	38.57
248.549	-0.34
248.766	16.04
248.983	54.95
249.2	-0.34
249.417	52.91
249.633	16.04
249.85	48.81
250.067	-6.49
250.284	44.71
250.501	30.38
250.717	-12.63
250.934	38.57
251.151	-8.53
251.368	-10.58
251.585	44.71
251.801	18.09
252.018	-22.87
252.235	63.15
252.451	34.47
252.668	30.38
252.885	-2.39
253.102	40.62
253.318	9.9
253.535	46.76
253.752	63.15
253.968	22.19
254.185	13.99
254.401	38.57
254.618	20.14
254.835	-43.35
255.051	52.91
255.268	40.62
255.484	-35.16
255.701	61.1
255.917	112.3
256.134	108.2
256.351	1.71
256.567	30.38
256.784	59.05
257	22.19
257.217	26.28
257.433	7.85
257.65	48.81
257.866	28.33
258.082	16.04
258.299	-8.53
258.515	-29.01
258.732	71.34
258.948	79.53
259.165	-16.73
259.381	54.95
259.597	13.99
259.814	20.14
260.03	44.71
260.246	-18.77
260.463	46.76
260.679	40.62
260.895	59.05
261.112	28.33
261.328	-4.44
261.544	59.05
261.761	42.67
261.977	46.76
262.193	67.24
262.409	-24.92
262.626	50.86
262.842	-0.34
263.058	28.33
263.274	5.8
263.49	-8.53
263.707	100.01
263.923	-16.73
264.139	42.67
264.355	-43.35
264.571	87.72
264.787	79.53
265.004	100.01
265.22	71.34
265.436	46.76
265.652	116.39
265.868	40.62
266.084	38.57
266.3	11.95
266.516	24.23
266.732	-4.44
266.948	44.71
267.164	40.62
267.38	5.8
267.596	-2.39
267.812	40.62
268.028	87.72
268.244	63.15
268.46	46.76
268.676	89.77
268.892	26.28
269.108	40.62
269.324	-8.53
269.54	9.9
269.756	67.24
269.972	-4.44
270.188	5.8
270.403	-10.58
270.619	59.05
270.835	-43.35
271.051	40.62
271.267	-31.06
271.483	-29.01
271.698	-31.06
271.914	-37.2
272.13	-4.44
272.346	104.11
272.562	-2.39
272.777	153.26
272.993	61.1
273.209	87.72
273.425	3.75
273.64	26.28
273.856	75.43
274.072	22.19
274.287	7.85
274.503	85.67
274.719	79.53
274.934	42.67
275.15	-63.83
275.366	-43.35
275.581	44.71
275.797	104.11
276.012	42.67
276.228	7.85
276.444	34.47
276.659	32.43
276.875	46.76
277.09	87.72
277.306	5.8
277.521	-41.3
277.737	-37.2
277.952	87.72
278.168	18.09
278.383	38.57
278.599	-22.87
278.814	18.09
279.03	48.81
279.245	26.28
279.461	30.38
279.676	-29.01
279.892	9.9
280.107	63.15
280.322	-10.58
280.538	1.71
280.753	59.05
280.969	77.48
281.184	-6.49
281.399	7.85
281.615	42.67
281.83	71.34
282.045	-16.73
282.26	-37.2
282.476	59.05
282.691	42.67
282.906	46.76
283.122	44.71
283.337	16.04
283.552	11.95
283.767	18.09
283.983	44.71
284.198	65.19
284.413	-22.87
284.628	-2.39
284.843	54.95
285.058	87.72
285.274	50.86
285.489	11.95
285.704	-2.39
285.919	7.85
286.134	5.8
286.349	-2.39
286.564	36.52
286.779	104.11
286.995	36.52
287.21	-0.34
287.425	38.57
287.64	52.91
287.855	44.71
288.07	-16.73
288.285	11.95
288.5	-51.54
288.715	26.28
288.93	-20.82
289.145	11.95
289.36	50.86
289.575	28.33
289.79	-4.44
290.004	54.95
290.219	30.38
290.434	36.52
290.649	50.86
290.864	36.52
291.079	40.62
291.294	102.06
291.509	-51.54
291.724	28.33
291.938	97.96
292.153	38.57
292.368	54.95
292.583	61.1
292.798	34.47
293.012	67.24
293.227	-10.58
293.442	11.95
293.657	34.47
293.871	102.06
294.086	46.76
294.301	30.38
294.516	52.91
294.73	46.76
294.945	1.71
295.16	63.15
295.374	87.72
295.589	89.77
295.804	-43.35
296.018	50.86
296.233	83.63
296.447	-0.34
296.662	1.71
296.877	48.81
297.091	79.53
297.306	-2.39
297.52	13.99
297.735	20.14
297.949	32.43
298.164	132.78
298.378	73.39
298.593	-12.63
298.807	3.75
299.022	13.99
299.236	63.15
299.451	-22.87
299.665	30.38
299.88	26.28
300.094	61.1
300.309	65.19
300.523	73.39
300.737	87.72
300.952	57
301.166	24.23
301.381	18.09
301.595	48.81
301.809	-26.96
302.024	9.9
302.238	67.24
302.452	71.34
302.667	40.62
302.881	54.95
303.095	87.72
303.309	18.09
303.524	42.67
303.738	54.95
303.952	93.87
304.166	11.95
304.381	-12.63
304.595	83.63
304.809	1.71
305.023	34.47
305.237	87.72
305.452	-37.2
305.666	22.19
305.88	24.23
306.094	75.43
306.308	13.99
306.522	-10.58
306.736	67.24
306.95	42.67
307.164	20.14
307.379	28.33
307.593	28.33
307.807	13.99
308.021	30.38
308.235	16.04
308.449	5.8
308.663	1.71
308.877	87.72
309.091	30.38
309.305	-16.73
309.519	-24.92
309.733	9.9
309.947	-6.49
310.161	67.24
310.374	28.33
310.588	22.19
310.802	13.99
311.016	30.38
311.23	28.33
311.444	24.23
311.658	52.91
311.872	9.9
312.085	59.05
312.299	81.58
312.513	5.8
312.727	118.44
312.941	46.76
313.154	-6.49
313.368	22.19
313.582	38.57
313.796	36.52
314.009	81.58
314.223	-10.58
314.437	-29.01
314.651	91.82
314.864	69.29
315.078	-6.49
315.292	-2.39
315.505	65.19
315.719	79.53
315.933	57
316.146	26.28
316.36	-4.44
316.573	36.52
316.787	81.58
317.001	22.19
317.214	36.52
317.428	22.19
317.641	26.28
317.855	-0.34
318.068	11.95
318.282	44.71
318.495	5.8
318.709	112.3
318.922	1.71
319.136	22.19
319.349	108.2
319.563	57
319.776	42.67
319.99	50.86
320.203	36.52
320.417	83.63
320.63	81.58
320.843	112.3
321.057	50.86
321.27	16.04
321.483	3.75
321.697	54.95
321.91	32.43
322.124	32.43
322.337	32.43
322.55	46.76
322.763	20.14
322.977	24.23
323.19	-26.96
323.403	16.04
323.617	44.71
323.83	138.92
324.043	46.76
324.256	30.38
324.469	36.52
324.683	11.95
324.896	-22.87
325.109	85.67
325.322	18.09
325.535	32.43
325.748	-43.35
325.962	16.04
326.175	42.67
326.388	13.99
326.601	-14.68
326.814	104.11
327.027	-6.49
327.24	22.19
327.453	-43.35
327.666	9.9
327.879	52.91
328.092	3.75
328.305	3.75
328.518	32.43
328.731	81.58
328.944	-2.39
329.157	44.71
329.37	95.91
329.583	114.34
329.796	50.86
330.009	-8.53
330.222	-22.87
330.435	63.15
330.648	26.28
330.861	54.95
331.073	61.1
331.286	32.43
331.499	28.33
331.712	-24.92
331.925	91.82
332.138	-8.53
332.35	73.39
332.563	114.34
332.776	54.95
332.989	-20.82
333.202	75.43
333.414	36.52
333.627	-4.44
333.84	22.19
334.053	87.72
334.265	26.28
334.478	120.49
334.691	42.67
334.903	-49.49
335.116	13.99
335.329	71.34
335.541	89.77
335.754	112.3
335.966	-39.25
336.179	102.06
336.392	-72.02
336.604	77.48
336.817	54.95
337.029	102.06
337.242	-16.73
337.454	34.47
337.667	36.52
337.88	85.67
338.092	-24.92
338.305	42.67
338.517	28.33
338.729	40.62
338.942	-4.44
339.154	28.33
339.367	-10.58
339.579	7.85
339.792	75.43
340.004	5.8
340.217	13.99
340.429	71.34
340.641	73.39
340.854	-47.44
341.066	5.8
341.278	1.71
341.491	75.43
341.703	20.14
341.915	16.04
342.128	100.01
342.34	63.15
342.552	102.06
342.764	30.38
342.977	50.86
343.189	46.76
343.401	97.96
343.613	46.76
343.826	59.05
344.038	5.8
344.25	65.19
344.462	65.19
344.674	100.01
344.886	40.62
345.099	13.99
345.311	87.72
345.523	-45.4
345.735	20.14
345.947	100.01
346.159	-10.58
346.371	48.81
346.583	9.9
346.795	93.87
347.007	48.81
347.219	44.71
347.431	-8.53
347.643	106.15
347.855	87.72
348.067	18.09
348.279	42.67
348.491	26.28
348.703	22.19
348.915	77.48
349.127	40.62
349.339	83.63
349.551	5.8
349.763	-43.35
349.975	20.14
350.187	22.19
350.399	54.95
350.61	9.9
350.822	3.75
351.034	106.15
351.246	46.76
351.458	71.34
351.669	59.05
351.881	36.52
352.093	106.15
352.305	104.11
352.517	69.29
352.728	77.48
352.94	-31.06
353.152	54.95
353.363	34.47
353.575	48.81
353.787	-33.11
353.999	61.1
354.21	9.9
354.422	5.8
354.633	13.99
354.845	97.96
355.057	126.63
355.268	140.97
355.48	48.81
355.692	34.47
355.903	-10.58
356.115	-22.87
356.326	57
356.538	67.24
356.749	36.52
356.961	75.43
357.172	18.09
357.384	-31.06
357.595	20.14
357.807	124.58
358.018	73.39
358.23	85.67
358.441	114.34
358.653	87.72
358.864	20.14
359.075	22.19
359.287	22.19
359.498	57
359.709	102.06
359.921	18.09
360.132	73.39
360.344	52.91
360.555	69.29
360.766	136.87
360.977	32.43
361.189	81.58
361.4	61.1
361.611	136.87
361.823	63.15
362.034	114.34
362.245	-14.68
362.456	5.8
362.667	7.85
362.879	104.11
363.09	69.29
363.301	26.28
363.512	79.53
363.723	1.71
363.935	38.57
364.146	22.19
364.357	89.77
364.568	30.38
364.779	32.43
364.99	85.67
365.201	16.04
365.412	122.54
365.623	91.82
365.834	30.38
366.045	-10.58
366.256	100.01
366.467	-10.58
366.678	91.82
366.889	18.09
367.1	77.48
367.311	100.01
367.522	54.95
367.733	61.1
367.944	46.76
368.155	134.82
368.366	134.82
368.577	28.33
368.788	-12.63
368.999	-10.58
369.209	48.81
369.42	108.2
369.631	83.63
369.842	126.63
370.053	46.76
370.264	40.62
370.474	79.53
370.685	1.71
370.896	85.67
371.107	13.99
371.317	116.39
371.528	38.57
371.739	38.57
371.95	11.95
372.16	116.39
372.371	13.99
372.582	67.24
372.792	48.81
373.003	57
373.214	40.62
373.424	57
373.635	38.57
373.846	65.19
374.056	40.62
374.267	67.24
374.477	11.95
374.688	73.39
374.898	-10.58
375.109	132.78
375.319	20.14
375.53	128.68
375.74	54.95
375.951	-12.63
376.161	89.77
376.372	42.67
376.582	57
376.793	42.67
377.003	63.15
377.214	118.44
377.424	30.38
377.635	52.91
377.845	52.91
378.055	120.49
378.266	40.62
378.476	93.87
378.686	59.05
378.897	24.23
379.107	42.67
379.317	65.19
379.528	-35.16
379.738	65.19
379.948	-55.64
380.158	67.24
380.369	116.39
380.579	28.33
380.789	104.11
380.999	67.24
381.21	69.29
381.42	108.2
381.63	34.47
381.84	22.19
382.05	-45.4
382.261	44.71
382.471	61.1
382.681	138.92
382.891	102.06
383.101	42.67
383.311	50.86
383.521	69.29
383.731	75.43
383.941	81.58
384.151	34.47
384.361	42.67
384.571	116.39
384.781	104.11
384.991	75.43
385.201	134.82
385.411	44.71
385.621	89.77
385.831	100.01
386.041	52.91
386.251	59.05
386.461	69.29
386.671	13.99
386.881	36.52
387.091	32.43
387.301	65.19
387.511	71.34
387.72	95.91
387.93	91.82
388.14	30.38
388.35	136.87
388.56	85.67
388.769	81.58
388.979	44.71
389.189	81.58
389.399	85.67
389.609	122.54
389.818	61.1
390.028	120.49
390.238	108.2
390.447	63.15
390.657	16.04
390.867	36.52
391.076	69.29
391.286	3.75
391.496	89.77
391.705	67.24
391.915	136.87
392.125	102.06
392.334	18.09
392.544	69.29
392.753	138.92
392.963	83.63
393.172	93.87
393.382	77.48
393.591	169.64
393.801	104.11
394.01	161.45
394.22	54.95
394.429	87.72
394.639	40.62
394.848	75.43
395.058	57
395.267	112.3
395.477	57
395.686	186.02
395.895	87.72
396.105	140.97
396.314	87.72
396.524	126.63
396.733	93.87
396.942	134.82
397.152	167.59
397.361	163.5
397.57	77.48
397.78	149.16
397.989	95.91
398.198	222.89
398.407	126.63
398.617	151.21
398.826	181.93
399.035	198.31
399.244	145.06
399.453	155.3
399.663	106.15
399.872	106.15
400.081	134.82
400.29	157.35
400.499	155.3
400.708	149.16
400.917	216.74
401.127	120.49
401.336	116.39
401.545	173.74
401.754	181.93
401.963	165.54
402.172	110.25
402.381	59.05
402.59	198.31
402.799	136.87
403.008	95.91
403.217	71.34
403.426	186.02
403.635	134.82
403.844	108.2
404.053	126.63
404.262	249.51
404.471	269.99
404.68	192.17
404.888	214.7
405.097	169.64
405.306	190.12
405.515	239.27
405.724	214.7
405.933	249.51
406.142	192.17
406.35	212.65
406.559	294.57
406.768	220.84
406.977	253.61
407.185	251.56
407.394	210.6
407.603	210.6
407.812	306.85
408.02	323.24
408.229	247.46
408.438	253.61
408.646	284.33
408.855	382.63
409.064	362.15
409.272	356.01
409.481	448.16
409.69	368.29
409.898	358.05
410.107	394.92
410.315	448.16
410.524	431.78
410.733	446.12
410.941	382.63
411.15	374.44
411.358	454.31
411.567	505.51
411.775	491.17
411.984	542.37
412.192	585.38
412.401	638.62
412.609	532.13
412.818	618.15
413.026	646.82
413.234	693.92
413.443	677.54
413.651	630.43
413.86	771.74
414.068	759.46
414.276	835.23
414.485	796.32
414.693	841.37
414.901	908.96
415.11	927.39
415.318	958.11
415.526	929.44
415.734	1050.27
415.943	1105.56
416.151	1027.74
416.359	1095.32
416.567	1134.23
416.776	1250.97
416.984	1287.83
417.192	1316.5
417.4	1244.82
417.608	1257.11
417.817	1425.04
418.025	1482.39
418.233	1463.96
418.441	1470.1
418.649	1601.17
418.857	1758.86
419.065	1879.69
419.273	1635.99
419.481	1846.93
419.689	2045.58
419.897	1963.66
420.105	2135.69
420.313	2193.03
420.521	2152.07
420.729	2160.27
420.937	2360.97
421.145	2422.41
421.353	2598.53
421.561	2510.47
421.769	2657.92
421.977	2643.59
422.185	2782.85
422.393	2883.2
422.601	3155.58
422.809	2979.45
423.017	3194.49
423.224	3274.36
423.432	3446.39
423.64	3376.76
423.848	3640.95
424.056	3729.01
424.263	4046.44
424.471	3948.14
424.679	3948.14
424.887	4226.67
425.094	4263.53
425.302	4302.44
425.51	4564.58
425.718	4671.08
425.925	4742.75
426.133	4918.88
426.341	5068.38
426.548	5391.96
426.756	5410.39
426.964	5375.58
427.171	5783.12
427.379	5871.19
427.586	6069.84
427.794	6256.2
428.001	6499.91
428.209	6696.52
428.417	6753.86
428.624	7210.56
428.832	7110.21
429.039	7265.85
429.247	7138.88
429.454	7763.51
429.662	8367.66
429.869	7765.56
430.076	8453.67
430.284	8072.75
430.491	8300.08
430.699	9092.64
430.906	8934.95
431.114	9023.01
431.321	9561.62
431.528	9659.93
431.736	10442.25
431.943	10550.79
432.15	10305.04
432.358	10432.01
432.565	11089.41
432.772	11032.07
432.979	11531.77
433.187	11595.26
433.394	12029.43
433.601	12854.76
433.808	12602.86
434.016	12592.62
434.223	13202.91
434.43	14163.41
434.637	13661.66
434.844	14659.02
435.052	14734.79
435.259	14708.17
435.466	14988.74
435.673	14814.66
435.88	15697.34
436.087	16610.73
436.294	16618.93
436.501	16096.69
436.708	16242.1
436.915	17104.29
437.122	17790.36
437.329	17663.39
437.537	18386.32
437.743	18736.52
437.95	18392.47
438.157	19703.17
438.364	20135.29
438.571	19879.29
438.778	20346.23
438.985	21747.04
439.192	21433.7
439.399	21798.24
439.606	21302.63
439.813	22629.71
440.02	24108.35
440.227	23573.83
440.433	23536.96
440.64	24466.74
440.847	23858.49
441.054	24790.32
441.261	26127.64
441.467	25599.27
441.674	26381.59
441.881	27329.8
442.088	27411.72
442.294	26846.48
442.501	27802.88
442.708	28284.16
442.914	29240.56
443.121	30495.96
443.328	29699.3
443.534	31876.29
443.741	30985.43
443.948	30766.29
444.154	32769.21
444.361	32722.1
444.568	33057.97
444.774	32984.24
444.981	33297.58
445.187	34069.67
445.394	35728.52
445.6	35284.11
445.807	38294.63
446.013	36916.34
446.22	37514.35
446.426	38634.59
446.633	39107.67
446.839	40455.23
447.046	38837.34
447.252	40936.51
447.459	41069.62
447.665	41102.39
447.871	42472.48
448.078	43992.08
448.284	41708.59
448.491	43451.41
448.697	44819.45
448.903	45523.96
449.11	45435.89
449.316	44968.96
449.522	45515.76
449.728	46984.16
449.935	47471.57
450.141	47317.98
450.347	48077.77
450.553	46744.55
450.76	47494.1
450.966	48726.98
451.172	48182.22
451.378	49052.61
451.584	48315.34
451.791	49488.82
451.997	49355.71
452.203	50398.12
452.409	50066.35
452.615	49578.93
452.821	47864.78
453.027	47553.49
453.233	49810.35
453.44	47956.94
453.646	48231.37
453.852	48534.47
454.058	49335.23
454.264	47328.22
454.47	48466.89
454.676	47530.97
454.882	48784.32
455.088	44559.36
455.294	45888.49
455.5	46113.77
455.705	46488.55
455.911	44672
456.117	43891.72
456.323	43013.15
456.529	41067.58
456.735	42484.77
456.941	41466.93
457.147	40854.59
457.352	39875.66
457.558	39021.66
457.764	39165.01
457.97	38321.25
458.176	37581.93
458.381	37526.64
458.587	35884.17
458.793	35562.64
458.999	34192.54
459.204	36404.35
459.41	35458.19
459.616	33053.87
459.821	33170.61
460.027	32853.17
460.233	32181.44
460.438	30442.71
460.644	30874.84
460.85	29588.71
461.055	29181.17
461.261	29232.36
461.466	26922.26
461.672	25998.62
461.878	28079.36
462.083	26348.82
462.289	26252.57
462.494	25576.74
462.7	24536.37
462.905	23713.09
463.111	24515.89
463.316	24616.24
463.522	24223.03
463.727	24476.98
463.932	24206.65
464.138	24071.48
464.343	23694.66
464.549	23510.34
464.754	24229.18
464.959	23932.22
465.165	23985.47
465.37	22814.03
465.575	21912.92
465.781	22930.76
465.986	23303.5
466.191	22424.92
466.397	22093.15
466.602	20942.19
466.807	21779.81
467.012	21814.62
467.218	21816.67
467.423	21198.18
467.628	21568.87
467.833	22170.97
468.038	21640.54
468.244	20802.93
468.449	21759.33
468.654	21206.38
468.859	20944.24
469.064	20874.6
469.269	20102.52
469.474	20077.94
469.679	20647.28
469.885	19787.13
470.09	20211.06
470.295	20178.29
470.5	19690.88
470.705	19805.56
470.91	19481.99
471.115	19051.91
471.32	19449.22
471.525	19256.71
471.73	18744.72
471.935	18697.61
472.139	18208.15
472.344	18478.48
472.549	18011.54
472.754	18052.5
472.959	17644.96
473.164	17270.18
473.369	16721.32
473.574	17620.38
473.778	17319.33
473.983	17497.5
474.188	17241.51
474.393	16602.54
474.598	16549.29
474.802	16274.87
475.007	16008.63
475.212	16293.3
475.417	15330.75
475.621	15420.86
475.826	15726.01
476.031	15529.41
476.235	15295.94
476.44	15439.3
476.645	15044.04
476.849	14996.93
477.054	14669.26
477.259	14755.27
477.463	14568.91
477.668	14353.87
477.872	14149.07
478.077	14306.77
478.282	14026.2
478.486	13897.17
478.691	13723.1
478.895	13993.43
479.1	13411.81
479.304	13626.84
479.509	13379.04
479.713	13919.7
479.918	13223.39
480.122	13053.41
480.326	13256.16
480.531	13374.94
480.735	13071.84
480.94	13157.86
481.144	13354.46
481.348	12660.2
481.553	12908.01
481.757	12867.05
481.961	12674.54
482.166	12948.97
482.37	12910.05
482.574	12701.16
482.778	12584.43
482.983	13030.88
483.187	12787.18
483.391	12819.94
483.595	12856.81
483.8	12615.15
484.004	12680.68
484.208	12838.37
484.412	12424.69
484.616	13082.08
484.821	12948.97
485.025	12522.99
485.229	12985.83
485.433	12604.91
485.637	12760.55
485.841	12633.58
486.045	12778.98
486.249	12641.77
486.453	12703.21
486.657	12631.53
486.861	12733.93
487.065	12422.64
487.269	12549.61
487.473	12350.96
487.677	12805.61
487.881	12948.97
488.085	12649.96
488.289	12602.86
488.493	12580.33
488.697	12908.01
488.901	12715.5
489.105	12826.09
489.309	13086.18
489.512	12994.02
489.716	12957.16
489.92	12940.77
490.124	12885.48
490.328	13235.68
490.531	12914.15
490.735	13129.19
490.939	13346.27
491.143	13295.07
491.346	13305.31
491.55	13430.24
491.754	13688.28
491.958	13628.89
492.161	13405.66
492.365	13600.22
492.569	13274.59
492.772	13520.35
492.976	13622.75
493.18	13673.95
493.383	13925.85
493.587	13942.23
493.79	14034.39
493.994	13805.02
494.197	14292.43
494.401	14259.67
494.605	14177.75
494.808	14538.19
495.012	14411.21
495.215	14566.86
495.419	14878.15
495.622	14544.33
495.825	14769.61
496.029	14771.66
496.232	15164.87
496.436	15553.98
496.639	15465.92
496.843	15508.93
497.046	15740.35
497.249	16102.84
497.453	16002.49
497.656	16197.04
497.859	16139.7
498.063	16354.74
498.266	16582.06
498.469	16766.38
498.673	17026.47
498.876	17085.86
499.079	17151.4
499.282	17266.08
499.485	17737.12
499.689	17986.97
499.892	18068.89
500.095	18036.12
500.298	18546.06
500.501	18275.73
500.705	18767.24
500.908	19154.31
501.111	19164.55
501.314	19342.72
501.517	19873.15
501.72	19895.68
501.923	19977.59
502.126	20153.72
502.329	20620.66
502.532	20708.72
502.735	20915.56
502.938	21341.54
503.141	21462.37
503.344	21685.6
503.547	21718.37
503.75	22213.98
503.953	22441.3
504.156	22818.13
504.359	22795.6
504.562	22895.95
504.765	23459.14
504.968	23657.79
505.17	23981.37
505.373	23776.58
505.576	24468.79
505.779	24743.22
505.982	25019.69
506.185	24958.25
506.387	25208.11
506.59	25361.7
506.793	26193.18
506.996	26195.23
507.198	26594.58
507.401	26705.17
507.604	26797.33
507.807	27165.96
508.009	27626.76
508.212	28030.21
508.415	28214.52
508.617	28331.26
508.82	28509.43
509.022	28181.76
509.225	29334.76
509.428	29394.15
509.63	29711.59
509.833	29990.11
510.035	30409.95
510.238	30006.5
510.44	30856.4
510.643	31378.64
510.845	31345.87
511.048	31276.24
511.25	32117.95
511.453	32003.27
511.655	33301.68
511.858	32392.38
512.06	33086.64
512.262	33529
512.465	33191.09
512.667	34307.23
512.87	34473.12
513.072	34327.71
513.274	35273.87
513.477	35536.01
513.679	35400.85
513.881	36129.92
514.084	36396.16
514.286	36267.14
514.488	36543.61
514.69	37878.89
514.893	37680.24
515.095	37530.73
515.297	38767.71
515.499	38306.91
515.701	39091.29
515.904	39574.61
516.106	39619.66
516.308	40049.74
516.51	40379.46
516.712	40344.64
516.914	40930.36
517.116	41753.65
517.318	41337.91
517.52	42038.31
517.722	42355.75
517.925	42359.84
518.127	43113.5
518.329	43598.87
518.531	43275.29
518.733	44235.78
518.935	44553.22
519.136	44395.53
519.338	45009.92
519.54	44801.02
519.742	45399.03
519.944	45865.97
520.146	46300.14
520.348	46611.43
520.55	46713.83
520.752	46959.58
520.954	47803.35
521.155	47485.91
521.357	48294.86
521.559	48626.63
521.761	49290.17
521.963	48663.49
522.164	49687.48
522.366	49306.55
522.568	50119.6
522.77	50297.77
522.971	50568.1
523.173	50535.34
523.375	51049.38
523.576	51338.14
523.778	51166.11
523.98	52040.59
524.181	52153.23
524.383	52087.7
524.584	52697.99
524.786	52849.54
524.988	53099.39
525.189	53574.52
525.391	54174.58
525.592	54223.73
525.794	54317.93
525.995	54459.24
526.197	54213.49
526.398	54504.3
526.6	55081.83
526.801	54920.04
527.003	55266.14
527.204	55415.65
527.406	55683.93
527.607	55776.09
527.808	56068.95
528.01	55604.06
528.211	56105.81
528.412	56920.9
528.614	56740.68
528.815	56884.04
529.016	57320.26
529.218	56175.44
529.419	57330.5
529.62	57135.94
529.822	57002.82
530.023	56974.15
530.224	57541.44
530.425	56986.44
530.626	56929.09
530.828	56597.32
531.029	58845.99
531.23	57430.85
531.431	57865.02
531.632	57508.67
531.833	57948.98
532.035	58047.28
532.236	58108.72
532.437	58202.93
532.638	58241.84
532.839	58600.24
533.04	58633
533.241	58104.63
533.442	59200.29
533.643	58417.97
533.844	58311.47
534.045	58647.34
534.246	57981.75
534.447	58669.87
534.648	58286.9
534.849	58563.37
535.05	58231.6
535.251	58364.72
535.451	58559.28
535.652	58741.55
535.853	58362.67
536.054	58936.1
536.255	59007.78
536.456	58374.96
536.657	58995.49
536.857	58456.88
537.058	58458.93
537.259	59104.04
537.46	59030.31
537.66	58510.13
537.861	58929.96
538.062	58350.38
538.263	59003.69
538.463	58719.02
538.664	58604.33
538.865	59114.28
539.065	58727.21
539.266	58182.45
539.466	59433.76
539.667	58305.33
539.868	59300.64
540.068	58530.61
540.269	58620.72
540.469	58948.39
540.67	58221.36
540.87	58506.03
541.071	58882.86
541.271	58983.21
541.472	58342.19
541.672	58536.75
541.873	58129.2
542.073	57695.03
542.274	58628.91
542.474	58553.13
542.675	58157.88
542.875	58602.28
543.075	58422.06
543.276	57838.39
543.476	58878.76
543.676	58233.65
543.877	58649.39
544.077	58358.58
544.277	58346.29
544.478	57846.58
544.678	58317.62
544.878	58514.22
545.078	58194.74
545.279	58506.03
545.479	58241.84
545.679	58526.51
545.879	58712.87
546.079	58397.49
546.28	58147.64
546.48	57535.29
546.68	58585.9
546.88	58637.1
547.08	58334
547.28	57781.05
547.48	57752.38
547.68	58368.82
547.88	57893.69
548.081	58145.59
548.281	58022.71
548.481	57842.49
548.681	58297.14
548.881	57932.6
549.081	58071.86
549.28	57555.77
549.48	58143.54
549.68	57715.51
549.88	57969.46
550.08	57754.43
550.28	58104.63
550.48	57801.53
550.68	58284.85
550.88	57617.21
551.08	58114.87
551.279	57735.99
551.479	57670.46
551.679	58243.89
551.879	57611.07
552.079	57850.68
552.278	57729.85
552.478	57879.35
552.678	58010.42
552.878	57801.53
553.077	57445.18
553.277	57621.31
553.477	58282.8
553.676	57402.17
553.876	57367.36
554.076	57662.27
554.275	57744.19
554.475	57039.68
554.674	57520.96
554.874	57277.25
555.074	57140.03
555.273	57563.96
555.473	57723.71
555.672	56900.42
555.872	57310.02
556.071	57031.49
556.271	57518.91
556.47	56728.39
556.67	56806.22
556.869	57371.46
557.068	57527.1
557.268	56912.71
557.467	56998.72
557.667	56621.9
557.866	56761.16
558.065	56613.71
558.265	56517.45
558.464	56361.81
558.663	56945.48
558.863	56204.11
559.062	56654.67
559.261	55896.92
559.461	56736.58
559.66	55851.86
559.859	56494.92
560.058	55882.58
560.258	56302.42
560.457	55700.31
560.656	56415.05
560.855	55688.02
561.054	56064.85
561.253	55810.9
561.453	55831.38
561.652	56021.84
561.851	56046.42
562.05	55163.74
562.249	55425.88
562.448	55821.14
562.647	55227.23
562.846	55147.36
563.045	55366.49
563.244	54541.16
563.443	55782.23
563.642	54520.68
563.841	54922.08
564.04	54825.83
564.239	54985.57
564.438	54403.95
564.637	55063.39
564.836	54408.04
565.035	54295.41
565.234	54367.09
565.432	54102.9
565.631	54078.32
565.83	54500.2
566.029	54004.59
566.228	54074.23
566.427	53631.86
566.625	53615.48
566.824	52890.5
567.023	54150
567.222	52337.55
567.42	53476.22
567.619	53484.41
567.818	53117.82
568.016	53019.52
568.215	53511.03
568.414	52820.87
568.612	53617.53
568.811	52403.08
569.01	52675.46
569.208	51870.61
569.407	52284.3
569.605	51600.28
569.804	52536.2
570.002	51811.22
570.201	51993.49
570.4	51528.6
570.598	51708.82
570.797	51522.46
570.995	51571.61
571.193	50910.11
571.392	51534.74
571.59	51250.08
571.789	51053.47
571.987	51354.52
572.186	51260.32
572.384	50824.1
572.582	51069.86
572.781	50670.5
572.979	50162.61
573.177	50387.88
573.376	50594.73
573.574	50068.4
573.772	50308.01
573.971	50297.77
574.169	49728.44
574.367	49312.7
574.565	50090.93
574.763	49413.05
574.962	49558.45
575.16	48884.67
575.358	49478.58
575.556	48860.1
575.754	49650.61
575.952	48839.62
576.151	49284.03
576.349	48192.46
576.547	48634.82
576.745	48720.84
576.943	48311.24
577.141	48131.02
577.339	48516.04
577.537	48202.7
577.735	48237.51
577.933	47832.02
578.131	47950.8
578.329	47547.35
578.527	47414.23
578.725	47834.06
578.923	47827.92
579.121	47274.97
579.319	47397.85
579.516	47670.23
579.714	47023.07
579.912	47049.69
580.11	46896.1
580.308	46758.88
580.506	46234.6
580.704	46330.86
580.901	46431.21
581.099	46820.32
581.297	46212.07
581.495	45974.51
581.692	46298.09
581.89	45751.28
582.088	46496.74
582.285	45607.92
582.483	46023.66
582.681	45767.66
582.878	45145.08
583.076	44858.37
583.274	45530.1
583.471	44923.9
583.669	44862.46
583.866	45022.2
584.064	44973.05
584.262	44303.37
584.459	44530.69
584.657	44467.2
584.854	45005.82
585.052	43400.21
585.249	44325.89
585.447	44006.41
585.644	43717.65
585.841	44184.58
586.039	44270.6
586.236	43314.2
586.434	43533.33
586.631	43355.16
586.828	43736.08
587.026	43521.04
587.223	43109.4
587.42	43043.87
587.618	42941.47
587.815	42548.26
588.012	42656.8
588.21	42802.21
588.407	42925.08
588.604	42443.81
588.801	41925.67
588.999	42196.01
589.196	42175.53
589.393	42107.94
589.59	41434.16
589.787	41688.11
589.984	41931.82
590.182	40866.88
590.379	41778.22
590.576	40858.68
590.773	41391.16
590.97	40672.32
591.167	41163.83
591.364	40561.73
591.561	40877.11
591.758	40254.53
591.955	40713.28
592.152	40774.72
592.349	40113.22
592.546	40574.02
592.743	40363.07
592.94	39777.36
593.137	40158.28
593.334	39717.96
593.531	39705.68
593.727	39844.94
593.924	39869.51
594.121	39464.02
594.318	39615.57
594.515	39033.94
594.712	39550.03
594.908	39271.51
595.105	39038.04
595.302	38755.42
595.499	39302.23
595.696	38575.2
595.892	38018.15
596.089	38642.78
596.286	38478.94
596.482	38286.43
596.679	38909.02
596.876	38036.58
597.072	38050.92
597.269	37801.07
597.466	37069.94
597.662	37387.38
597.859	37596.27
598.055	37717.1
598.252	37436.53
598.448	37381.23
598.645	37403.76
598.841	37094.52
599.038	37258.35
599.234	37201.01
599.431	36414.59
599.627	36779.13
599.824	36824.18
600.02	36326.53
600.217	36744.31
600.413	36222.08
600.609	35927.17
600.806	35882.12
601.002	36256.9
601.198	35789.96
601.395	36072.58
601.591	35722.38
601.787	35474.57
601.984	35325.07
602.18	35753.1
602.376	35267.73
602.572	35376.27
602.769	35425.42
602.965	35073.17
603.161	34843.8
603.357	34778.26
603.553	34565.28
603.75	34684.06
603.946	34256.03
604.142	34600.09
604.338	34227.36
604.534	34589.85
604.73	33922.21
604.926	34118.82
605.122	34020.52
605.318	34010.28
605.514	33623.21
605.71	33891.49
605.906	34034.85
606.102	33729.7
606.298	33844.39
606.494	33631.4
606.69	33197.23
606.886	33316.01
607.082	32718.01
607.278	33596.59
607.474	32761.01
607.67	33389.74
607.866	32449.72
608.062	32879.8
608.257	32457.92
608.453	32662.71
608.649	32668.86
608.845	32623.8
609.041	32558.27
609.236	32734.39
609.432	32441.53
609.628	32427.2
609.824	32472.25
610.019	32259.26
610.215	32105.66
610.411	32562.36
610.606	32042.18
610.802	32120
610.998	31925.44
611.193	32081.09
611.389	32115.9
611.584	31876.29
611.78	31548.62
611.976	31956.16
612.171	31931.59
612.367	31534.28
612.562	31583.43
612.758	30743.77
612.953	31042.77
613.149	31337.68
613.344	31339.72
613.539	31579.34
613.735	31208.65
613.93	31282.38
614.126	30854.36
614.321	31577.29
614.517	31085.78
614.712	31055.06
614.907	30878.93
615.103	31300.81
615.298	30792.92
615.493	31235.28
615.688	30682.33
615.884	31259.85
616.079	30483.67
616.274	30932.18
616.47	30653.65
616.665	30493.91
616.86	30532.82
617.055	30139.61
617.25	30172.38
617.445	30504.15
617.641	29852.9
617.836	30319.84
618.031	29586.66
618.226	29934.82
618.421	29512.94
618.616	29885.67
618.811	29652.2
619.006	29844.71
619.201	29037.81
619.396	29439.21
619.591	29211.88
619.786	29619.43
619.981	28736.76
620.176	29199.6
620.371	28916.98
620.566	28726.52
620.761	28427.51
620.956	28816.63
621.151	28171.52
621.346	28550.39
621.541	27938.05
621.735	28060.93
621.93	27675.91
622.125	27864.32
622.32	27604.23
622.515	28112.13
622.709	27331.85
622.904	27319.56
623.099	27514.12
623.294	27102.48
623.488	26893.58
623.683	26713.36
623.878	26789.14
624.072	26586.39
624.267	26287.39
624.462	26289.43
624.656	26027.29
624.851	26225.95
625.046	25879.84
625.24	25972
625.435	25568.55
625.629	25560.36
625.824	25672.99
626.018	25386.28
626.213	25134.38
626.407	25048.36
626.602	24784.18
626.796	24761.65
626.991	24939.82
627.185	24675.63
627.38	24368.44
627.574	24077.63
627.768	24028.48
627.963	23852.35
628.157	23508.29
628.352	23700.8
628.546	23362.89
628.74	23606.59
628.935	23057.74
629.129	23420.23
629.323	23412.04
629.517	23145.8
629.712	22975.82
629.906	22963.53
630.1	22469.97
630.294	22369.62
630.489	22254.94
630.683	22580.56
630.877	21957.98
631.071	22025.56
631.265	22095.19
631.459	21831.01
631.653	21781.85
631.848	21822.81
632.042	21710.18
632.236	21624.16
632.43	21331.3
632.624	21302.63
632.818	21073.26
633.012	20882.8
633.206	20712.81
633.4	20944.24
633.594	20680.05
633.788	20845.93
633.982	20579.7
634.176	20454.77
634.369	20467.06
634.563	20295.03
634.757	20307.32
634.951	20278.65
635.145	19733.89
635.339	20036.98
635.533	19570.05
635.726	19602.82
635.92	19377.54
636.114	19486.08
636.308	19279.24
636.501	19312
636.695	19283.33
636.889	19152.26
637.083	18982.28
637.276	18910.6
637.47	18838.92
637.664	18556.3
637.857	18599.31
638.051	18742.67
638.244	18296.21
638.438	18183.57
638.632	18267.54
638.825	18304.4
639.019	17798.56
639.212	17960.34
639.406	17728.92
639.599	17964.44
639.793	17823.13
639.986	17391.01
640.18	17534.37
640.373	17550.75
640.567	17210.79
640.76	17352.1
640.954	16885.16
641.147	17018.28
641.34	16676.27
641.534	16899.5
641.727	16657.84
641.92	16911.78
642.114	16500.14
642.307	16713.13
642.5	16256.43
642.694	16260.53
642.887	16364.98
643.08	16475.57
643.273	16209.33
643.467	16129.46
643.66	16035.25
643.853	15961.53
644.046	15726.01
644.239	15607.23
644.432	15590.84
644.626	15418.82
644.819	15689.15
645.012	15377.86
645.205	15486.4
645.398	15521.21
645.591	15158.72
645.784	15191.49
645.977	14794.18
646.17	15039.94
646.363	14654.92
646.556	14652.88
646.749	14683.59
646.942	14804.42
647.135	14532.04
647.328	14636.49
647.521	14513.61
647.714	14183.89
647.907	14241.23
648.099	14325.2
648.292	14267.86
648.485	13692.38
648.678	13837.78
648.871	13876.69
649.064	13686.23
649.256	13848.02
649.449	13571.55
649.642	13721.05
649.835	13493.72
650.027	13428.19
650.22	13491.68
650.413	13184.48
650.605	13260.26
650.798	12989.92
650.991	13123.04
651.183	13143.52
651.376	12795.37
651.568	12940.77
651.761	12854.76
651.954	12740.07
652.146	12604.91
652.339	12455.4
652.531	12785.13
652.724	12371.44
652.916	12402.16
653.109	12164.59
653.301	12439.02
653.494	12289.52
653.686	11935.22
653.879	12094.96
654.071	12002.8
654.263	11910.64
654.456	11939.32
654.648	11933.17
654.84	11707.9
655.033	11560.44
655.225	11746.81
655.417	11560.44
655.61	11648.5
655.802	11544.06
655.994	11200
656.186	11748.86
656.379	11206.14
656.571	11558.39
656.763	11167.23
656.955	11249.15
657.148	11156.99
657.34	10980.87
657.532	10972.68
657.724	11034.11
657.916	11134.46
658.108	10679.82
658.3	10794.5
658.492	10761.73
658.684	10571.27
658.876	10636.81
659.068	10632.71
659.26	10399.24
659.452	10714.63
659.644	10423.82
659.836	10325.52
660.028	10393.1
660.22	10241.55
660.412	10210.83
660.604	10100.24
660.796	10065.43
660.988	10012.18
661.18	10030.61
661.372	10024.47
661.563	9825.81
661.755	9909.78
661.947	9778.71
662.139	9885.2
662.331	9645.59
662.522	9498.14
662.714	9614.87
662.906	9512.47
663.097	9590.3
663.289	9375.26
663.481	9379.36
663.673	9319.96
663.864	9182.75
664.056	9330.2
664.247	9082.4
664.439	8941.09
664.631	9082.4
664.822	9023.01
665.014	8906.27
665.205	9106.98
665.397	9037.34
665.588	8947.23
665.78	9043.49
665.971	8893.99
666.163	8928.8
666.354	8764.96
666.546	8668.71
666.737	8474.15
666.929	8672.81
667.12	8437.29
667.311	8551.98
667.503	8291.88
667.694	8392.23
667.885	8164.91
668.077	8228.4
668.268	8304.17
668.459	8418.86
668.651	8240.68
668.842	8164.91
669.033	8269.36
669.224	7968.31
669.416	8078.9
669.607	7953.97
669.798	7919.15
669.989	7923.25
670.18	8007.22
670.371	7892.53
670.563	7835.19
670.754	7675.45
670.945	7747.12
671.136	7730.74
671.327	7517.75
671.518	7648.82
671.709	7745.08
671.9	7689.78
672.091	7448.12
672.282	7487.03
672.473	7501.37
672.664	7495.22
672.855	7466.55
673.046	7427.64
673.237	7558.71
673.428	7396.92
673.619	7421.5
673.809	7312.96
674	7185.98
674.191	7016
674.382	7220.8
674.573	7222.84
674.764	7116.35
674.954	7263.8
675.145	6991.42
675.336	7048.77
675.527	6901.31
675.717	6954.56
675.908	7054.91
676.099	6995.52
676.289	6829.63
676.48	6837.83
676.671	6717
676.861	6745.67
677.052	6739.52
677.243	6805.06
677.433	6667.84
677.624	6766.15
677.814	6725.19
678.005	6471.24
678.195	6577.73
678.386	6565.45
678.576	6512.2
678.767	6501.96
678.957	6522.44
679.148	6565.45
679.338	6456.9
679.529	6534.73
679.719	6254.16
679.909	6458.95
680.1	6291.02
680.29	6403.66
680.481	6377.03
680.671	6288.97
680.861	6198.86
681.052	6254.16
681.242	6123.09
681.432	6141.52
681.622	6022.73
681.813	6151.76
682.003	6082.13
682.193	6004.3
682.383	5955.15
682.573	5975.63
682.764	5881.42
682.954	6041.17
683.144	5875.28
683.334	5920.34
683.524	5955.15
683.714	5901.9
683.904	5975.63
684.094	5875.28
684.284	5906
684.474	5707.35
684.664	5783.12
684.854	5949.01
685.044	5768.79
685.234	5633.62
685.424	5635.67
685.614	5795.41
685.804	5666.39
685.994	5719.64
686.184	5731.92
686.374	5568.09
686.564	5559.89
686.753	5629.52
686.943	5357.14
687.133	5674.58
687.323	5451.35
687.513	5580.37
687.702	5426.78
687.892	5371.48
688.082	5291.61
688.272	5389.91
688.461	5445.21
688.651	5316.19
688.841	5174.88
689.03	5111.39
689.22	5310.04
689.41	5070.43
689.599	5264.99
689.789	5142.11
689.979	5181.02
690.168	5107.29
690.358	5183.07
690.547	5115.48
690.737	5133.92
690.926	4941.41
691.116	5070.43
691.305	5113.44
691.495	5080.67
691.684	4922.98
691.874	4963.93
692.063	4994.65
692.252	4836.96
692.442	4922.98
692.631	4879.97
692.82	4904.54
693.01	4742.75
693.199	4744.8
693.388	4714.08
693.578	4736.61
693.767	4761.19
693.956	4658.79
694.146	4605.54
694.335	4679.27
694.524	4654.69
694.713	4681.32
694.902	4611.68
695.092	4576.87
695.281	4730.47
695.47	4548.2
695.659	4607.59
695.848	4603.49
696.037	4677.22
696.226	4595.3
696.415	4628.07
696.604	4490.85
696.793	4595.3
696.982	4505.19
697.171	4533.86
697.36	4607.59
697.549	4546.15
697.738	4382.31
697.927	4435.56
698.116	4607.59
698.305	4306.54
698.494	4419.18
698.683	4433.51
698.872	4413.03
699.061	4544.1
699.25	4341.35
699.438	4445.8
699.627	4453.99
699.816	4433.51
700.005	4359.78
700.193	4349.54
700.382	4413.03
700.571	4372.07
700.76	4363.88
700.948	4308.58
701.137	4249.19
701.326	4316.78
701.514	4038.25
701.703	4279.91
701.892	4349.54
702.08	4140.65
702.269	4374.12
702.457	4118.12
702.646	4304.49
702.834	4189.8
703.023	4238.95
703.212	4122.22
703.4	4159.08
703.589	4050.54
703.777	4173.42
703.965	4128.36
704.154	4181.61
704.342	4105.84
704.531	4050.54
704.719	3978.86
704.907	4165.23
705.096	4232.81
705.284	4138.6
705.472	4042.35
705.661	4116.08
705.849	4193.9
706.037	4216.43
706.226	4146.8
706.414	4019.82
706.602	3995.25
706.79	4120.17
706.979	4003.44
707.167	4130.41
707.355	3974.77
707.543	3948.14
707.731	4120.17
707.919	3962.48
708.107	3911.28
708.296	3915.37
708.484	3903.09
708.672	3876.46
708.86	3903.09
709.048	3993.2
709.236	3935.85
709.424	3978.86
709.612	4001.39
709.8	3888.75
709.988	3927.66
710.176	3878.51
710.364	3847.79
710.551	3954.29
710.739	3853.94
710.927	3921.52
711.115	3821.17
711.303	3817.07
711.491	3769.97
711.679	3839.6
711.866	3872.37
712.054	3821.17
712.242	3800.69
712.43	3890.8
712.617	3864.18
712.805	3810.93
712.993	3769.97
713.181	3593.84
713.368	3911.28
713.556	3608.18
713.744	3647.09
713.931	3825.26
714.119	3591.8
714.306	3911.28
714.494	3731.06
714.682	3757.68
714.869	3696.24
715.057	3708.53
715.244	3640.95
715.432	3610.23
715.619	3636.85
715.807	3563.12
715.994	3606.13
716.182	3542.64
716.369	3606.13
716.556	3645.04
716.744	3563.12
716.931	3556.98
717.119	3733.11
717.306	3630.71
717.493	3663.47
717.681	3464.82
717.868	3532.4
718.055	3679.86
718.242	3520.12
718.43	3618.42
718.617	3532.4
718.804	3546.74
718.991	3536.5
719.179	3538.55
719.366	3520.12
719.553	3487.35
719.74	3466.87
719.927	3395.19
720.114	3421.81
720.301	3458.68
720.488	3374.71
720.676	3552.88
720.863	3432.05
721.05	3436.15
721.237	3368.57
721.424	3292.79
721.611	3409.53
721.798	3421.81
721.985	3389.05
722.172	3446.39
722.358	3311.22
722.545	3309.18
722.732	3378.81
722.919	3307.13
723.106	3169.91
723.293	3286.65
723.48	3198.59
723.667	3372.66
723.853	3303.03
724.04	3298.94
724.227	3278.46
724.414	3294.84
724.6	3225.21
724.787	3255.93
724.974	3165.82
725.161	3284.6
725.347	3227.26
725.534	3298.94
725.72	3210.87
725.907	3202.68
726.094	3198.59
726.28	3163.77
726.467	3053.18
726.653	3235.45
726.84	3092.09
727.027	3167.87
727.213	3096.19
727.4	3264.12
727.586	3106.43
727.773	3065.47
727.959	3217.02
728.145	3110.52
728.332	3135.1
728.518	3194.49
728.705	3147.39
728.891	3239.55
729.077	3110.52
729.264	3204.73
729.45	3055.23
729.636	3192.44
729.823	3075.71
730.009	3075.71
730.195	2991.74
730.382	3036.8
730.568	3083.9
730.754	3063.42
730.94	3143.29
731.126	3153.53
731.313	3001.98
731.499	3049.08
731.685	3069.56
731.871	3083.9
732.057	3026.56
732.243	2983.55
732.429	3100.28
732.615	2952.83
732.801	3024.51
732.987	3012.22
733.173	2961.02
733.359	2958.97
733.545	3128.95
733.731	2979.45
733.917	2946.69
734.103	2938.49
734.289	2901.63
734.475	2989.69
734.661	2946.69
734.847	3028.6
735.033	2852.48
735.219	2846.34
735.404	2961.02
735.59	2932.35
735.776	2844.29
735.962	2995.84
736.148	2795.14
736.333	2846.34
736.519	2877.05
736.705	2958.97
736.89	2961.02
737.076	2879.1
737.262	2885.25
737.447	2770.56
737.633	2797.18
737.819	2909.82
738.004	2881.15
738.19	2821.76
738.375	2762.37
738.561	2766.46
738.747	2743.94
738.932	2666.11
739.118	2819.71
739.303	2778.75
739.489	2739.84
739.674	2668.16
739.859	2692.74
740.045	2791.04
740.23	2555.52
740.416	2803.33
740.601	2729.6
740.786	2657.92
740.972	2715.27
741.157	2688.64
741.342	2584.2
741.528	2684.55
741.713	2643.59
741.898	2721.41
742.084	2580.1
742.269	2594.44
742.454	2612.87
742.639	2576
742.824	2582.15
743.01	2467.46
743.195	2559.62
743.38	2596.48
743.565	2549.38
743.75	2518.66
743.935	2471.56
744.12	2434.69
744.305	2444.93
744.49	2430.6
744.675	2434.69
744.86	2561.67
745.045	2393.73
745.23	2461.32
745.415	2420.36
745.6	2455.17
745.785	2424.45
745.97	2363.01
746.155	2358.92
746.34	2371.21
746.525	2311.82
746.71	2393.73
746.895	2434.69
747.079	2340.49
747.264	2295.43
747.449	2270.86
747.634	2356.87
747.819	2289.29
748.003	2272.9
748.188	2258.57
748.373	2322.06
748.557	2188.94
748.742	2289.29
748.927	2260.62
749.111	2223.75
749.296	2170.51
749.481	2076.3
749.665	2090.63
749.85	2043.53
750.034	2174.6
750.219	2094.73
750.404	1971.85
750.588	2123.4
750.773	2049.68
750.957	2049.68
751.141	1930.89
751.326	1922.7
751.51	2010.76
751.695	2008.72
751.879	1904.27
752.064	2008.72
752.248	1957.52
752.432	2076.3
752.617	1887.89
752.801	1941.13
752.985	1889.93
753.17	1930.89
753.354	1910.41
753.538	1904.27
753.722	1787.54
753.907	1752.72
754.091	1814.16
754.275	1824.4
754.459	1787.54
754.643	1779.34
754.828	1808.02
755.012	1765.01
755.196	1687.18
755.38	1748.62
755.564	1709.71
755.748	1738.38
755.932	1635.99
756.116	1674.9
756.3	1633.94
756.484	1652.37
756.668	1615.51
756.852	1601.17
757.036	1605.27
757.22	1642.13
757.404	1619.6
757.588	1629.84
757.772	1609.36
757.956	1537.68
758.14	1638.03
758.323	1537.68
758.507	1511.06
758.691	1566.35
758.875	1482.39
759.059	1539.73
759.242	1427.09
759.426	1463.96
759.61	1429.14
759.794	1513.11
759.977	1384.09
760.161	1439.38
760.345	1423
760.528	1429.14
760.712	1500.82
760.895	1414.81
761.079	1400.47
761.263	1343.13
761.446	1334.93
761.63	1349.27
761.813	1470.1
761.997	1396.37
762.18	1320.6
762.364	1379.99
762.547	1404.57
762.731	1365.65
762.914	1316.5
763.098	1255.06
763.281	1369.75
763.464	1349.27
763.648	1308.31
763.831	1351.32
764.015	1343.13
764.198	1328.79
764.381	1349.27
764.564	1355.41
764.748	1265.3
764.931	1304.21
765.114	1216.15
765.297	1228.44
765.481	1298.07
765.664	1275.54
765.847	1230.49
766.03	1265.3
766.213	1228.44
766.397	1310.36
766.58	1261.21
766.763	1214.1
766.946	1179.29
767.129	1277.59
767.312	1189.53
767.495	1171.1
767.678	1222.3
767.861	1328.79
768.044	1173.14
768.227	1173.14
768.41	1126.04
768.593	1132.19
768.776	1169.05
768.959	1203.86
769.142	1222.3
769.324	1195.67
769.507	1169.05
769.69	1123.99
769.873	1091.23
770.056	1103.51
770.239	1103.51
770.421	1068.7
770.604	1103.51
770.787	1029.79
770.97	1070.75
771.152	1023.64
771.335	1183.38
771.518	1173.14
771.7	1054.36
771.883	1066.65
772.066	972.44
772.248	1142.43
772.431	1076.89
772.613	1031.83
772.796	1068.7
772.978	951.96
773.161	1080.99
773.343	1115.8
773.526	972.44
773.708	1035.93
773.891	941.72
774.073	984.73
774.256	978.59
774.438	1005.21
774.621	978.59
774.803	962.2
774.985	943.77
775.168	1001.12
775.35	949.92
775.532	960.16
775.715	1013.4
775.897	939.68
776.079	976.54
776.261	884.38
776.444	947.87
776.626	886.43
776.808	849.57
776.99	853.66
777.173	810.65
777.355	808.61
777.537	874.14
777.719	894.62
777.901	843.42
778.083	788.13
778.265	886.43
778.447	900.76
778.629	751.26
778.811	755.36
778.993	794.27
779.175	849.57
779.357	810.65
779.539	710.3
779.721	839.33
779.903	841.37
780.085	775.84
780.267	863.9
780.449	728.74
780.631	730.78
780.812	779.93
780.994	779.93
781.176	689.82
781.358	781.98
781.54	736.93
781.721	706.21
781.903	732.83
782.085	695.97
782.267	712.35
782.448	681.63
782.63	747.17
782.812	581.28
782.993	712.35
783.175	738.98
783.357	642.72
783.538	648.86
783.72	724.64
783.901	630.43
784.083	628.39
784.264	609.95
784.446	698.02
784.627	657.06
784.809	685.73
784.99	685.73
785.172	698.02
785.353	630.43
785.535	562.85
785.716	601.76
785.897	626.34
786.079	614.05
786.26	562.85
786.441	587.43
786.623	640.67
786.804	579.23
786.985	491.17
787.167	634.53
787.348	525.99
787.529	550.56
787.71	523.94
787.891	552.61
788.073	464.55
788.254	556.71
788.435	612
788.616	607.91
788.797	480.93
788.978	505.51
789.159	558.75
789.34	468.64
789.522	536.23
789.703	505.51
789.884	468.64
790.065	513.7
790.246	433.83
790.427	437.92
790.607	495.27
790.788	554.66
790.969	513.7
791.15	566.95
791.331	480.93
791.512	476.84
791.693	431.78
791.874	466.6
792.054	534.18
792.235	458.4
792.416	376.48
792.597	478.88
792.778	460.45
792.958	472.74
793.139	417.44
793.32	499.36
793.5	456.36
793.681	466.6
793.862	460.45
794.042	329.38
794.223	442.02
794.404	411.3
794.584	401.06
794.765	388.77
794.945	431.78
795.126	415.4
795.306	411.3
795.487	415.4
795.667	409.25
795.848	419.49
796.028	370.34
796.209	388.77
796.389	339.62
796.57	378.53
796.75	392.87
796.93	409.25
797.111	339.62
797.291	444.07
797.471	421.54
797.652	380.58
797.832	374.44
798.012	427.68
798.192	313
798.373	364.2
798.553	335.53
798.733	313
798.913	364.2
799.093	321.19
799.274	278.18
799.454	405.16
799.634	374.44
799.814	308.9
799.994	403.11
800.174	446.12
800.354	288.42
800.534	294.57
800.714	288.42
800.894	310.95
801.074	331.43
801.254	284.33
801.434	358.05
801.614	333.48
801.794	267.94
801.974	671.39
802.154	347.81
802.334	399.01
802.514	292.52
802.693	290.47
802.873	282.28
803.053	214.7
803.233	259.75
803.413	329.38
803.592	247.46
803.772	249.51
803.952	366.25
804.131	265.89
804.311	280.23
804.491	302.76
804.67	251.56
804.85	321.19
805.03	257.7
805.209	286.37
805.389	284.33
805.568	325.29
805.748	300.71
805.928	317.09
806.107	186.02
806.287	300.71
806.466	257.7
806.646	304.81
806.825	251.56
807.004	265.89
807.184	294.57
807.363	239.27
807.543	253.61
807.722	235.18
807.901	315.05
808.081	278.18
808.26	284.33
808.439	249.51
808.619	288.42
808.798	249.51
808.977	214.7
809.156	292.52
809.336	214.7
809.515	241.32
809.694	222.89
809.873	255.65
810.052	249.51
810.231	300.71
810.411	247.46
810.59	259.75
810.769	245.41
810.948	276.13
811.127	171.69
811.306	241.32
811.485	245.41
811.664	282.28
811.843	220.84
812.022	183.98
812.201	218.79
812.38	278.18
812.559	196.26
812.737	210.6
812.916	214.7
813.095	157.35
813.274	222.89
813.453	229.03
813.632	292.52
813.811	153.26
813.989	200.36
814.168	175.78
814.347	169.64
814.526	235.18
814.704	239.27
814.883	216.74
815.062	200.36
815.24	212.65
815.419	259.75
815.598	173.74
815.776	161.45
815.955	124.58
816.133	163.5
816.312	132.78
816.49	204.46
816.669	97.96
816.847	181.93
817.026	202.41
817.204	188.07
817.383	175.78
817.561	128.68
817.74	194.22
817.918	138.92
818.097	145.06
818.275	155.3
818.453	214.7
818.632	112.3
818.81	163.5
818.988	235.18
819.167	151.21
819.345	126.63
819.523	140.97
819.701	194.22
819.879	136.87
820.058	190.12
820.236	128.68
820.414	235.18
820.592	155.3
820.77	145.06
820.948	120.49
821.127	229.03
821.305	186.02
821.483	143.02
821.661	149.16
821.839	214.7
822.017	157.35
822.195	89.77
822.373	181.93
822.551	179.88
822.729	140.97
822.907	192.17
823.085	216.74
823.262	93.87
823.44	190.12
823.618	177.83
823.796	110.25
823.974	169.64
824.152	153.26
824.329	202.41
824.507	149.16
824.685	67.24
824.863	126.63
825.04	149.16
825.218	102.06
825.396	81.58
825.574	114.34
825.751	102.06
825.929	61.1
826.107	114.34
826.284	140.97
826.462	93.87
826.639	81.58
826.817	102.06
826.994	42.67
827.172	30.38
827.349	153.26
827.527	85.67
827.704	104.11
827.882	120.49
828.059	171.69
828.237	108.2
828.414	149.16
828.591	42.67
828.769	153.26
828.946	91.82
829.124	200.36
829.301	163.5
829.478	81.58
829.655	130.73
829.833	69.29
830.01	75.43
830.187	89.77
830.364	61.1
830.542	97.96
830.719	169.64
830.896	159.4
831.073	112.3
831.25	120.49
831.427	91.82
831.604	57
831.782	79.53
831.959	91.82
832.136	73.39
832.313	48.81
832.49	79.53
832.667	97.96
832.844	136.87
833.021	138.92
833.198	165.54
833.374	136.87
833.551	128.68
833.728	114.34
833.905	118.44
834.082	106.15
834.259	91.82
834.436	116.39
834.612	63.15
834.789	138.92
834.966	100.01
835.143	7.85
835.319	73.39
835.496	177.83
835.673	116.39
835.85	112.3
836.026	97.96
836.203	130.73
836.38	46.76
836.556	134.82
836.733	91.82
836.909	163.5
837.086	71.34
837.262	106.15
837.439	104.11
837.616	77.48
837.792	128.68
837.968	120.49
838.145	97.96
838.321	116.39
838.498	57
838.674	87.72
838.851	87.72
839.027	97.96
839.203	100.01
839.38	124.58
839.556	149.16
839.732	147.11
839.909	54.95
840.085	79.53
840.261	20.14
840.437	104.11
840.614	83.63
840.79	138.92
840.966	67.24
841.142	108.2
841.318	104.11
841.494	163.5
841.671	112.3
841.847	22.19
842.023	24.23
842.199	67.24
842.375	112.3
842.551	38.57
842.727	61.1
842.903	108.2
843.079	71.34
843.255	163.5
843.431	28.33
843.607	34.47
843.783	42.67
843.959	57
844.134	22.19
844.31	102.06
844.486	52.91
844.662	20.14
844.838	63.15
845.013	75.43
845.189	24.23
845.365	32.43
845.541	26.28
845.716	73.39
845.892	73.39
846.068	48.81
846.244	-78.16
846.419	48.81
846.595	-39.25
846.77	44.71
846.946	48.81
847.122	52.91
847.297	-31.06
847.473	63.15
847.648	-10.58
847.824	38.57
847.999	-24.92
848.175	114.34
848.35	32.43
848.526	114.34
848.701	73.39
848.876	24.23
849.052	16.04
849.227	13.99
849.403	69.29
849.578	26.28
849.753	34.47
849.929	3.75
850.104	69.29
850.279	95.91
850.454	24.23
850.63	102.06
850.805	28.33
850.98	-31.06
851.155	50.86
851.33	110.25
851.505	1.71
851.681	130.73
851.856	24.23
852.031	57
852.206	116.39
852.381	5.8
852.556	67.24
852.731	81.58
852.906	16.04
853.081	16.04
853.256	75.43
853.431	73.39
853.606	-24.92
853.781	69.29
853.956	112.3
854.131	81.58
854.305	-31.06
854.48	52.91
854.655	46.76
854.83	-72.02
855.005	20.14
855.18	28.33
855.354	52.91
855.529	42.67
855.704	-74.07
855.879	48.81
856.053	-41.3
856.228	75.43
856.403	32.43
856.577	7.85
856.752	-0.34
856.926	-53.59
857.101	77.48
857.276	3.75
857.45	-35.16
857.625	30.38
857.799	34.47
857.974	-20.82
858.148	44.71
858.323	67.24
858.497	59.05
858.672	32.43
858.846	-10.58
859.02	40.62
859.195	61.1
859.369	36.52
859.543	30.38
859.718	-2.39
859.892	28.33
860.066	28.33
860.241	44.71
860.415	67.24
860.589	-8.53
860.763	87.72
860.938	-67.92
861.112	-18.77
861.286	36.52
861.46	30.38
861.634	108.2
861.808	54.95
861.982	24.23
862.157	38.57
862.331	-4.44
862.505	-41.3
862.679	57
862.853	24.23
863.027	-18.77
863.201	50.86
863.375	57
863.549	79.53
863.722	34.47
863.896	186.02
864.07	71.34
864.244	59.05
864.418	9.9
864.592	32.43
864.766	91.82
864.939	54.95
865.113	-33.11
865.287	18.09
865.461	73.39
865.634	40.62
865.808	26.28
865.982	57
866.156	-43.35
866.329	-39.25
866.503	57
866.676	108.2
866.85	3.75
867.024	32.43
867.197	18.09
867.371	40.62
867.544	26.28
867.718	32.43
867.891	89.77
868.065	63.15
868.238	-26.96
868.412	54.95
868.585	65.19
868.759	44.71
868.932	-16.73
869.105	57
869.279	-2.39
869.452	46.76
869.625	-67.92
869.799	-29.01
869.972	-16.73
870.145	9.9
870.319	-0.34
870.492	-10.58
870.665	38.57
870.838	-35.16
871.011	-26.96
871.185	3.75
871.358	-20.82
871.531	38.57
871.704	11.95
871.877	69.29
872.05	22.19
872.223	-18.77
872.396	-14.68
872.569	28.33
872.742	22.19
872.915	-8.53
873.088	13.99
873.261	11.95
873.434	-8.53
873.607	-33.11
873.78	48.81
873.953	-6.49
874.126	-16.73
874.299	48.81
874.471	36.52
874.644	83.63
874.817	-18.77
874.99	52.91
875.163	20.14
875.335	85.67
875.508	52.91
875.681	42.67
875.853	-4.44
876.026	24.23
876.199	36.52
876.371	36.52
876.544	24.23
876.717	59.05
876.889	9.9
877.062	-2.39
877.234	18.09
877.407	-31.06
877.579	13.99
877.752	42.67
877.924	-8.53
878.097	-6.49
878.269	20.14
878.442	-2.39
878.614	83.63
878.786	26.28
878.959	-12.63
879.131	36.52
879.303	18.09
879.476	-16.73
879.648	16.04
879.82	100.01
879.993	-24.92
880.165	-14.68
880.337	-31.06
880.509	59.05
880.681	-43.35
880.854	-18.77
881.026	-67.92
881.198	26.28
881.37	-8.53
881.542	7.85
881.714	46.76
881.886	73.39
882.058	13.99
882.23	-47.44
882.402	54.95
882.574	28.33
882.746	1.71
882.918	46.76
883.09	104.11
883.262	-22.87
883.434	34.47
883.606	-14.68
883.778	20.14
883.95	-88.4
884.122	-20.82
884.293	106.15
884.465	1.71
884.637	79.53
884.809	-65.88
884.98	-61.78
885.152	-22.87
885.324	-6.49
885.496	36.52
885.667	-63.83
885.839	-72.02
886.011	48.81
886.182	-29.01
886.354	5.8
886.525	-14.68
886.697	-2.39
886.869	36.52
887.04	26.28
887.212	71.34
887.383	18.09
887.555	-2.39
887.726	-8.53
887.897	20.14
888.069	34.47
888.24	34.47
888.412	59.05
888.583	13.99
888.754	30.38
888.926	-67.92
889.097	-55.64
889.268	-47.44
889.44	32.43
889.611	-18.77
889.782	-10.58
889.953	-16.73
890.125	42.67
890.296	-8.53
890.467	-0.34
890.638	5.8
890.809	9.9
890.98	-35.16
891.151	9.9
891.323	-14.68
891.494	-10.58
891.665	79.53
891.836	-20.82
892.007	-45.4
892.178	-2.39
892.349	-26.96
892.52	3.75
892.691	40.62
892.862	36.52
893.032	-72.02
893.203	67.24
893.374	52.91
893.545	3.75
893.716	28.33
893.887	77.48
894.057	9.9
894.228	-31.06
894.399	5.8
894.57	13.99
894.74	-12.63
894.911	77.48
895.082	73.39
895.253	-18.77
895.423	18.09
895.594	-18.77
895.764	-63.83
895.935	-78.16
896.106	22.19
896.276	-47.44
896.447	9.9
896.617	-14.68
896.788	1.71
896.958	112.3
897.129	-39.25
897.299	-0.34
897.47	-22.87
897.64	20.14
897.81	-41.3
897.981	7.85
898.151	-24.92
898.322	18.09
898.492	-74.07
898.662	18.09
898.832	-6.49
899.003	-6.49
899.173	32.43
899.343	-45.4
899.513	-35.16
