Data from USB4F104151__129__11-07-38-655.txt Node

Date: Wed Mar 12 11:07:38 EDT 2025
User: louis
Spectrometer: USB4F10415
Trigger mode: 4
Integration Time (sec): 2.000000E-2
Scans to average: 1
Electric dark correction enabled: true
Nonlinearity correction enabled: false
Boxcar width: 0
XAxis mode: Wavelengths
Number of Pixels in Spectrum: 3648
>>>>>Begin Spectral Data<<<<<
178.204	-159.23
178.424	-159.23
178.644	-159.23
178.864	-126.46
179.084	-75.26
179.304	23.04
179.524	-13.82
179.744	29.18
179.964	-24.06
180.184	29.18
180.404	16.9
180.624	-44.54
180.844	16.9
181.064	-15.87
181.283	-9.73
181.503	-15.87
181.723	8.7
181.943	12.8
182.163	61.95
182.383	-26.11
182.602	64
182.822	-15.87
183.042	8.7
183.262	-58.88
183.482	4.61
183.701	29.18
183.921	29.18
184.141	20.99
184.361	18.94
184.58	51.71
184.8	-34.3
185.02	-36.35
185.239	47.62
185.459	37.38
185.679	2.56
185.898	43.52
186.118	135.68
186.338	0.51
186.557	-65.02
186.777	-11.78
186.997	25.09
187.216	-52.74
187.436	117.25
187.655	47.62
187.875	-7.68
188.095	74.24
188.314	57.86
188.534	41.47
188.753	-3.58
188.973	43.52
189.192	-24.06
189.412	37.38
189.631	6.66
189.851	-7.68
190.07	35.33
190.29	-11.78
190.509	43.52
190.729	8.7
190.948	-5.63
191.168	133.63
191.387	27.14
191.607	10.75
191.826	37.38
192.045	25.09
192.265	88.57
192.484	86.53
192.704	14.85
192.923	23.04
193.142	66.05
193.362	29.18
193.581	115.2
193.8	20.99
194.02	18.94
194.239	-11.78
194.458	18.94
194.678	37.38
194.897	20.99
195.116	59.9
195.335	29.18
195.555	8.7
195.774	-34.3
195.993	20.99
196.212	-26.11
196.432	-3.58
196.651	23.04
196.87	-19.97
197.089	49.66
197.308	70.14
197.528	20.99
197.747	37.38
197.966	-28.16
198.185	14.85
198.404	-5.63
198.623	27.14
198.842	12.8
199.062	88.57
199.281	61.95
199.5	31.23
199.719	18.94
199.938	-5.63
200.157	68.09
200.376	-44.54
200.595	43.52
200.814	35.33
201.033	49.66
201.252	25.09
201.471	-19.97
201.69	18.94
201.909	-7.68
202.128	29.18
202.347	29.18
202.566	-22.02
202.785	53.76
203.004	-54.78
203.223	-38.4
203.442	-71.17
203.661	8.7
203.879	8.7
204.098	-5.63
204.317	70.14
204.536	59.9
204.755	0.51
204.974	-13.82
205.193	90.62
205.411	45.57
205.63	41.47
205.849	-15.87
206.068	-34.3
206.287	53.76
206.505	41.47
206.724	-11.78
206.943	-5.63
207.162	-44.54
207.381	2.56
207.599	76.29
207.818	47.62
208.037	72.19
208.255	-1.54
208.474	-3.58
208.693	45.57
208.911	47.62
209.13	64
209.349	4.61
209.567	70.14
209.786	23.04
210.005	35.33
210.223	12.8
210.442	33.28
210.661	39.42
210.879	-9.73
211.098	18.94
211.316	2.56
211.535	57.86
211.753	6.66
211.972	39.42
212.191	-1.54
212.409	10.75
212.628	-52.74
212.846	12.8
213.065	45.57
213.283	47.62
213.502	43.52
213.72	16.9
213.938	14.85
214.157	51.71
214.375	94.72
214.594	29.18
214.812	16.9
215.031	82.43
215.249	-3.58
215.467	18.94
215.686	8.7
215.904	78.33
216.122	-17.92
216.341	27.14
216.559	16.9
216.778	47.62
216.996	53.76
217.214	18.94
217.432	43.52
217.651	47.62
217.869	66.05
218.087	-36.35
218.306	23.04
218.524	47.62
218.742	0.51
218.96	45.57
219.179	27.14
219.397	55.81
219.615	64
219.833	33.28
220.051	-40.45
220.27	68.09
220.488	37.38
220.706	59.9
220.924	47.62
221.142	4.61
221.36	-60.93
221.578	20.99
221.796	0.51
222.015	76.29
222.233	74.24
222.451	90.62
222.669	88.57
222.887	-15.87
223.105	4.61
223.323	12.8
223.541	64
223.759	4.61
223.977	16.9
224.195	76.29
224.413	16.9
224.631	0.51
224.849	-52.74
225.067	0.51
225.285	43.52
225.503	10.75
225.721	33.28
225.939	23.04
226.157	16.9
226.375	107.01
226.592	2.56
226.81	-22.02
227.028	33.28
227.246	25.09
227.464	31.23
227.682	-13.82
227.9	18.94
228.117	20.99
228.335	66.05
228.553	92.67
228.771	43.52
228.989	-36.35
229.206	29.18
229.424	-7.68
229.642	66.05
229.86	25.09
230.077	-34.3
230.295	41.47
230.513	-34.3
230.731	76.29
230.948	72.19
231.166	27.14
231.384	-3.58
231.601	6.66
231.819	-19.97
232.037	64
232.254	20.99
232.472	64
232.689	35.33
232.907	80.38
233.125	-19.97
233.342	20.99
233.56	25.09
233.777	31.23
233.995	53.76
234.213	59.9
234.43	-5.63
234.648	55.81
234.865	-17.92
235.083	41.47
235.3	-15.87
235.518	31.23
235.735	12.8
235.953	-50.69
236.17	59.9
236.388	0.51
236.605	107.01
236.822	10.75
237.04	43.52
237.257	57.86
237.475	4.61
237.692	-32.26
237.909	-11.78
238.127	-38.4
238.344	90.62
238.562	-36.35
238.779	-28.16
238.996	12.8
239.214	37.38
239.431	43.52
239.648	27.14
239.865	-28.16
240.083	-1.54
240.3	16.9
240.517	-13.82
240.735	29.18
240.952	10.75
241.169	-5.63
241.386	-32.26
241.603	41.47
241.821	-26.11
242.038	68.09
242.255	51.71
242.472	94.72
242.689	-3.58
242.907	37.38
243.124	12.8
243.341	57.86
243.558	53.76
243.775	51.71
243.992	23.04
244.209	47.62
244.426	4.61
244.643	47.62
244.86	57.86
245.078	37.38
245.295	-9.73
245.512	29.18
245.729	-22.02
245.946	100.86
246.163	80.38
246.38	23.04
246.597	10.75
246.814	23.04
247.031	41.47
247.248	78.33
247.464	-3.58
247.681	64
247.898	-9.73
248.115	-17.92
248.332	8.7
248.549	117.25
248.766	141.82
248.983	88.57
249.2	-19.97
249.417	20.99
249.633	-15.87
249.85	59.9
250.067	-22.02
250.284	-13.82
250.501	57.86
250.717	68.09
250.934	-1.54
251.151	-15.87
251.368	90.62
251.585	-28.16
251.801	-9.73
252.018	23.04
252.235	-11.78
252.451	4.61
252.668	2.56
252.885	64
253.102	78.33
253.318	39.42
253.535	-19.97
253.752	-19.97
253.968	6.66
254.185	51.71
254.401	29.18
254.618	-3.58
254.835	-24.06
255.051	-32.26
255.268	47.62
255.484	-3.58
255.701	31.23
255.917	29.18
256.134	33.28
256.351	49.66
256.567	-26.11
256.784	12.8
257	41.47
257.217	68.09
257.433	51.71
257.65	23.04
257.866	37.38
258.082	-28.16
258.299	-38.4
258.515	0.51
258.732	74.24
258.948	2.56
259.165	-22.02
259.381	37.38
259.597	-17.92
259.814	94.72
260.03	23.04
260.246	4.61
260.463	37.38
260.679	47.62
260.895	41.47
261.112	33.28
261.328	-17.92
261.544	25.09
261.761	59.9
261.977	-36.35
262.193	2.56
262.409	0.51
262.626	-22.02
262.842	64
263.058	29.18
263.274	64
263.49	31.23
263.707	66.05
263.923	68.09
264.139	-17.92
264.355	72.19
264.571	72.19
264.787	-11.78
265.004	70.14
265.22	6.66
265.436	-46.59
265.652	55.81
265.868	49.66
266.084	14.85
266.3	6.66
266.516	23.04
266.732	39.42
266.948	-36.35
267.164	45.57
267.38	53.76
267.596	49.66
267.812	20.99
268.028	61.95
268.244	68.09
268.46	8.7
268.676	0.51
268.892	-19.97
269.108	-15.87
269.324	49.66
269.54	-7.68
269.756	10.75
269.972	-3.58
270.188	102.91
270.403	-15.87
270.619	29.18
270.835	4.61
271.051	14.85
271.267	-73.21
271.483	-67.07
271.698	6.66
271.914	68.09
272.13	29.18
272.346	-65.02
272.562	39.42
272.777	37.38
272.993	-30.21
273.209	41.47
273.425	14.85
273.64	68.09
273.856	84.48
274.072	82.43
274.287	41.47
274.503	53.76
274.719	47.62
274.934	12.8
275.15	-42.5
275.366	6.66
275.581	4.61
275.797	90.62
276.012	8.7
276.228	43.52
276.444	-30.21
276.659	-19.97
276.875	31.23
277.09	51.71
277.306	-40.45
277.521	98.81
277.737	-38.4
277.952	102.91
278.168	74.24
278.383	107.01
278.599	47.62
278.814	-50.69
279.03	23.04
279.245	45.57
279.461	53.76
279.676	49.66
279.892	94.72
280.107	-5.63
280.322	31.23
280.538	68.09
280.753	20.99
280.969	86.53
281.184	72.19
281.399	14.85
281.615	12.8
281.83	51.71
282.045	49.66
282.26	86.53
282.476	6.66
282.691	72.19
282.906	20.99
283.122	64
283.337	-7.68
283.552	57.86
283.767	-11.78
283.983	55.81
284.198	-22.02
284.413	39.42
284.628	33.28
284.843	53.76
285.058	74.24
285.274	12.8
285.489	39.42
285.704	43.52
285.919	18.94
286.134	39.42
286.349	47.62
286.564	10.75
286.779	82.43
286.995	25.09
287.21	-26.11
287.425	10.75
287.64	47.62
287.855	37.38
288.07	61.95
288.285	123.39
288.5	-65.02
288.715	8.7
288.93	80.38
289.145	45.57
289.36	6.66
289.575	88.57
289.79	4.61
290.004	20.99
290.219	55.81
290.434	59.9
290.649	29.18
290.864	-30.21
291.079	68.09
291.294	55.81
291.509	33.28
291.724	23.04
291.938	68.09
292.153	2.56
292.368	74.24
292.583	39.42
292.798	53.76
293.012	51.71
293.227	37.38
293.442	6.66
293.657	39.42
293.871	41.47
294.086	29.18
294.301	88.57
294.516	98.81
294.73	45.57
294.945	4.61
295.16	51.71
295.374	33.28
295.589	51.71
295.804	-52.74
296.018	78.33
296.233	51.71
296.447	6.66
296.662	6.66
296.877	143.87
297.091	98.81
297.306	33.28
297.52	49.66
297.735	25.09
297.949	-13.82
298.164	51.71
298.378	-44.54
298.593	37.38
298.807	33.28
299.022	84.48
299.236	25.09
299.451	59.9
299.665	8.7
299.88	59.9
300.094	41.47
300.309	33.28
300.523	53.76
300.737	-11.78
300.952	2.56
301.166	61.95
301.381	82.43
301.595	2.56
301.809	-7.68
302.024	4.61
302.238	39.42
302.452	-77.31
302.667	-3.58
302.881	51.71
303.095	41.47
303.309	100.86
303.524	39.42
303.738	6.66
303.952	109.05
304.166	90.62
304.381	0.51
304.595	35.33
304.809	25.09
305.023	98.81
305.237	16.9
305.452	-15.87
305.666	-19.97
305.88	74.24
306.094	2.56
306.308	47.62
306.522	25.09
306.736	45.57
306.95	-17.92
307.164	84.48
307.379	16.9
307.593	27.14
307.807	51.71
308.021	94.72
308.235	29.18
308.449	33.28
308.663	4.61
308.877	41.47
309.091	-5.63
309.305	51.71
309.519	-13.82
309.733	23.04
309.947	-1.54
310.161	78.33
310.374	31.23
310.588	31.23
310.802	-17.92
311.016	51.71
311.23	14.85
311.444	23.04
311.658	20.99
311.872	41.47
312.085	70.14
312.299	12.8
312.513	45.57
312.727	-22.02
312.941	-69.12
313.154	33.28
313.368	8.7
313.582	10.75
313.796	23.04
314.009	20.99
314.223	37.38
314.437	107.01
314.651	12.8
314.864	-7.68
315.078	-32.26
315.292	-15.87
315.505	4.61
315.719	117.25
315.933	43.52
316.146	-77.31
316.36	-22.02
316.573	25.09
316.787	70.14
317.001	35.33
317.214	16.9
317.428	66.05
317.641	27.14
317.855	82.43
318.068	45.57
318.282	23.04
318.495	49.66
318.709	33.28
318.922	92.67
319.136	-13.82
319.349	55.81
319.563	-3.58
319.776	41.47
319.99	0.51
320.203	111.1
320.417	59.9
320.63	20.99
320.843	12.8
321.057	35.33
321.27	88.57
321.483	16.9
321.697	72.19
321.91	45.57
322.124	33.28
322.337	-15.87
322.55	20.99
322.763	33.28
322.977	31.23
323.19	8.7
323.403	45.57
323.617	90.62
323.83	47.62
324.043	-50.69
324.256	18.94
324.469	-40.45
324.683	66.05
324.896	66.05
325.109	23.04
325.322	-65.02
325.535	82.43
325.748	45.57
325.962	2.56
326.175	57.86
326.388	12.8
326.601	-7.68
326.814	25.09
327.027	-62.98
327.24	90.62
327.453	-54.78
327.666	10.75
327.879	82.43
328.092	25.09
328.305	16.9
328.518	10.75
328.731	37.38
328.944	51.71
329.157	-24.06
329.37	-62.98
329.583	53.76
329.796	-22.02
330.009	-11.78
330.222	78.33
330.435	39.42
330.648	6.66
330.861	-5.63
331.073	-13.82
331.286	10.75
331.499	78.33
331.712	-44.54
331.925	78.33
332.138	57.86
332.35	51.71
332.563	-3.58
332.776	104.96
332.989	4.61
333.202	37.38
333.414	68.09
333.627	45.57
333.84	6.66
334.053	12.8
334.265	2.56
334.478	47.62
334.691	12.8
334.903	94.72
335.116	59.9
335.329	78.33
335.541	78.33
335.754	53.76
335.966	0.51
336.179	41.47
336.392	59.9
336.604	-52.74
336.817	80.38
337.029	82.43
337.242	68.09
337.454	49.66
337.667	41.47
337.88	43.52
338.092	90.62
338.305	90.62
338.517	-67.07
338.729	86.53
338.942	59.9
339.154	-7.68
339.367	-5.63
339.579	23.04
339.792	-3.58
340.004	76.29
340.217	29.18
340.429	82.43
340.641	-11.78
340.854	8.7
341.066	100.86
341.278	84.48
341.491	90.62
341.703	57.86
341.915	64
342.128	78.33
342.34	43.52
342.552	4.61
342.764	-38.4
342.977	16.9
343.189	-38.4
343.401	35.33
343.613	-44.54
343.826	84.48
344.038	16.9
344.25	-22.02
344.462	-5.63
344.674	80.38
344.886	35.33
345.099	8.7
345.311	74.24
345.523	92.67
345.735	23.04
345.947	78.33
346.159	100.86
346.371	0.51
346.583	64
346.795	111.1
347.007	31.23
347.219	53.76
347.431	82.43
347.643	64
347.855	-24.06
348.067	-22.02
348.279	-15.87
348.491	70.14
348.703	2.56
348.915	53.76
349.127	29.18
349.339	61.95
349.551	74.24
349.763	139.77
349.975	47.62
350.187	14.85
350.399	47.62
350.61	104.96
350.822	104.96
351.034	82.43
351.246	6.66
351.458	82.43
351.669	113.15
351.881	104.96
352.093	107.01
352.305	-26.11
352.517	74.24
352.728	53.76
352.94	45.57
353.152	92.67
353.363	29.18
353.575	53.76
353.787	-3.58
353.999	152.06
354.21	41.47
354.422	27.14
354.633	59.9
354.845	33.28
355.057	-73.21
355.268	18.94
355.48	66.05
355.692	74.24
355.903	18.94
356.115	41.47
356.326	25.09
356.538	49.66
356.749	33.28
356.961	41.47
357.172	-15.87
357.384	10.75
357.595	76.29
357.807	-28.16
358.018	18.94
358.23	18.94
358.441	16.9
358.653	29.18
358.864	37.38
359.075	-19.97
359.287	57.86
359.498	104.96
359.709	10.75
359.921	29.18
360.132	49.66
360.344	61.95
360.555	35.33
360.766	57.86
360.977	64
361.189	37.38
361.4	39.42
361.611	92.67
361.823	25.09
362.034	20.99
362.245	47.62
362.456	-5.63
362.667	35.33
362.879	66.05
363.09	45.57
363.301	53.76
363.512	35.33
363.723	2.56
363.935	12.8
364.146	41.47
364.357	-3.58
364.568	-9.73
364.779	18.94
364.99	96.77
365.201	33.28
365.412	51.71
365.623	18.94
365.834	117.25
366.045	53.76
366.256	45.57
366.467	0.51
366.678	6.66
366.889	43.52
367.1	-56.83
367.311	2.56
367.522	39.42
367.733	51.71
367.944	64
368.155	68.09
368.366	109.05
368.577	43.52
368.788	74.24
368.999	43.52
369.209	18.94
369.42	35.33
369.631	125.44
369.842	92.67
370.053	47.62
370.264	-34.3
370.474	29.18
370.685	-3.58
370.896	45.57
371.107	57.86
371.317	51.71
371.528	88.57
371.739	100.86
371.95	23.04
372.16	53.76
372.371	-5.63
372.582	23.04
372.792	37.38
373.003	78.33
373.214	104.96
373.424	-24.06
373.635	37.38
373.846	39.42
374.056	74.24
374.267	61.95
374.477	-3.58
374.688	18.94
374.898	66.05
375.109	59.9
375.319	16.9
375.53	59.9
375.74	33.28
375.951	-28.16
376.161	43.52
376.372	37.38
376.582	16.9
376.793	31.23
377.003	94.72
377.214	59.9
377.424	8.7
377.635	31.23
377.845	43.52
378.055	12.8
378.266	18.94
378.476	37.38
378.686	53.76
378.897	86.53
379.107	49.66
379.317	111.1
379.528	35.33
379.738	133.63
379.948	37.38
380.158	49.66
380.369	10.75
380.579	41.47
380.789	25.09
380.999	70.14
381.21	115.2
381.42	31.23
381.63	-32.26
381.84	84.48
382.05	82.43
382.261	39.42
382.471	45.57
382.681	-13.82
382.891	20.99
383.101	57.86
383.311	51.71
383.521	-11.78
383.731	147.97
383.941	51.71
384.151	55.81
384.361	10.75
384.571	-17.92
384.781	57.86
384.991	53.76
385.201	31.23
385.411	45.57
385.621	55.81
385.831	61.95
386.041	10.75
386.251	27.14
386.461	102.91
386.671	39.42
386.881	33.28
387.091	61.95
387.301	27.14
387.511	64
387.72	123.39
387.93	25.09
388.14	-1.54
388.35	76.29
388.56	86.53
388.769	84.48
388.979	64
389.189	-32.26
389.399	39.42
389.609	57.86
389.818	133.63
390.028	53.76
390.238	104.96
390.447	-5.63
390.657	49.66
390.867	35.33
391.076	90.62
391.286	64
391.496	49.66
391.705	47.62
391.915	123.39
392.125	51.71
392.334	78.33
392.544	57.86
392.753	47.62
392.963	66.05
393.172	78.33
393.382	76.29
393.591	111.1
393.801	47.62
394.01	98.81
394.22	90.62
394.429	4.61
394.639	92.67
394.848	78.33
395.058	98.81
395.267	74.24
395.477	72.19
395.686	107.01
395.895	68.09
396.105	72.19
396.314	100.86
396.524	57.86
396.733	111.1
396.942	107.01
397.152	121.34
397.361	152.06
397.57	61.95
397.78	66.05
397.989	43.52
398.198	59.9
398.407	20.99
398.617	88.57
398.826	33.28
399.035	90.62
399.244	90.62
399.453	152.06
399.663	160.25
399.872	57.86
400.081	33.28
400.29	88.57
400.499	41.47
400.708	86.53
400.917	68.09
401.127	80.38
401.336	86.53
401.545	111.1
401.754	94.72
401.963	76.29
402.172	123.39
402.381	123.39
402.59	57.86
402.799	84.48
403.008	121.34
403.217	125.44
403.426	92.67
403.635	57.86
403.844	203.26
404.053	135.68
404.262	115.2
404.471	170.49
404.68	68.09
404.888	182.78
405.097	129.53
405.306	64
405.515	188.93
405.724	176.64
405.933	197.12
406.142	166.4
406.35	162.3
406.559	115.2
406.768	199.16
406.977	133.63
407.185	125.44
407.394	287.23
407.603	119.29
407.812	272.89
408.02	178.69
408.229	195.07
408.438	188.93
408.646	221.69
408.855	262.65
409.064	227.84
409.272	248.32
409.481	188.93
409.69	193.02
409.898	168.45
410.107	287.23
410.315	225.79
410.524	209.4
410.733	238.08
410.941	295.42
411.15	365.05
411.358	311.8
411.567	393.72
411.775	344.57
411.984	342.52
412.192	393.72
412.401	406.01
412.609	399.87
412.818	446.97
413.026	481.78
413.234	446.97
413.443	487.93
413.651	492.02
413.86	446.97
414.068	479.74
414.276	446.97
414.485	467.45
414.693	569.85
414.901	596.47
415.11	575.99
415.318	582.14
415.526	582.14
415.734	676.34
415.943	674.29
416.151	676.34
416.359	705.01
416.567	715.25
416.776	676.34
416.984	827.89
417.192	811.51
417.4	807.41
417.608	881.14
417.817	864.75
418.025	965.11
418.233	1073.65
418.441	1055.22
418.649	993.78
418.857	1192.43
419.065	1104.37
419.273	1096.18
419.481	1204.72
419.689	1247.72
419.897	1319.4
420.105	1262.06
420.313	1321.45
420.521	1417.71
420.729	1300.97
420.937	1386.99
421.145	1599.98
421.353	1556.97
421.561	1649.13
421.769	1726.95
421.977	1819.11
422.185	1634.79
422.393	1835.49
422.601	1901.03
422.809	1919.46
423.017	1919.46
423.224	2030.05
423.432	2048.48
423.64	2154.98
423.848	2445.79
424.056	2294.24
424.263	2404.83
424.471	2507.23
424.679	2431.45
424.887	2621.91
425.094	2646.49
425.302	2666.97
425.51	2728.41
425.718	2968.02
425.925	2937.3
426.133	2990.55
426.341	3197.39
426.548	3287.5
426.756	3406.28
426.964	3424.72
427.171	3559.88
427.379	3586.51
427.586	3668.42
427.794	3742.15
428.001	4008.39
428.209	4125.12
428.417	4153.79
428.624	4536.76
428.832	4485.56
429.039	4587.96
429.247	4409.79
429.454	4843.96
429.662	5110.19
429.869	4831.67
430.076	5171.63
430.284	5192.11
430.491	5263.79
430.699	5564.84
430.906	5517.74
431.114	5687.72
431.321	5800.36
431.528	5917.09
431.736	6320.54
431.943	6568.35
432.15	6435.23
432.358	6537.63
432.565	6881.69
432.772	6756.76
432.979	7111.06
433.187	7346.58
433.394	7393.68
433.601	7723.4
433.808	7793.03
434.016	7782.79
434.223	8108.42
434.43	8698.24
434.637	8450.43
434.844	8917.37
435.052	9202.04
435.259	9271.67
435.466	9279.86
435.673	9015.67
435.88	9556.33
436.087	10213.73
436.294	10340.71
436.501	9967.98
436.708	10006.89
436.915	10506.59
437.122	11024.73
437.329	10846.55
437.537	11237.72
437.743	11391.31
437.95	11237.72
438.157	11868.49
438.364	12347.72
438.571	12587.33
438.778	12540.22
438.985	13427
439.192	13103.42
439.399	13545.78
439.606	13242.68
439.813	14203.18
440.02	14821.66
440.227	14545.19
440.433	14530.85
440.64	14776.61
440.847	14588.19
441.054	15151.38
441.261	16222.47
441.467	15864.08
441.674	16017.68
441.881	16867.58
442.088	16609.54
442.294	16425.22
442.501	16926.97
442.708	17455.35
442.914	17989.87
443.121	18964.7
443.328	18284.78
443.534	19693.78
443.741	19134.68
443.948	18874.59
444.154	20211.92
444.361	20035.79
444.568	20187.34
444.774	20095.18
444.981	20445.38
445.187	21065.92
445.394	21987.5
445.6	21577.91
445.807	23935.12
446.013	22775.97
446.22	22993.06
446.426	24004.75
446.633	24291.47
446.839	25049.22
447.046	23892.12
447.252	25385.08
447.459	25378.94
447.665	25262.21
447.871	26402.93
448.078	27449.44
448.284	26028.15
448.491	26669.16
448.697	27959.38
448.903	28307.54
449.11	28565.58
449.316	27824.22
449.522	28160.08
449.728	29173.83
449.935	29780.03
450.141	29540.41
450.347	30093.36
450.553	29149.25
450.76	29763.64
450.966	30631.98
451.172	29835.32
451.378	30838.83
451.584	30222.39
451.791	30646.32
451.997	30541.87
452.203	31393.82
452.409	31080.49
452.615	31135.78
452.821	29943.86
453.027	29734.97
453.233	31150.12
453.44	29884.47
453.646	30330.93
453.852	30552.11
454.058	31010.85
454.264	29562.94
454.47	30783.53
454.676	29718.59
454.882	30761
455.088	28172.37
455.294	28330.06
455.5	29173.83
455.705	29040.71
455.911	28053.59
456.117	27480.16
456.323	27035.75
456.529	25659.51
456.735	26632.3
456.941	25960.56
457.147	25684.09
457.352	24832.13
457.558	24277.13
457.764	24670.34
457.97	24170.64
458.176	23367.84
458.381	23638.17
458.587	22716.58
458.793	22642.85
458.999	21285.05
459.204	22864.04
459.41	22241.45
459.616	20762.82
459.821	20973.76
460.027	20459.72
460.233	20361.42
460.438	19292.38
460.644	19390.68
460.85	18460.9
461.055	18186.47
461.261	18321.64
461.466	16869.63
461.672	16273.67
461.878	17697.01
462.083	16462.08
462.289	16142.6
462.494	15802.64
462.7	15245.59
462.905	15014.17
463.111	15388.95
463.316	15327.51
463.522	15313.17
463.727	15247.64
463.932	15251.74
464.138	15118.62
464.343	15003.93
464.549	14541.09
464.754	14864.67
464.959	15210.78
465.165	14723.36
465.37	14309.67
465.575	13881.64
465.781	14399.78
465.986	14586.15
466.191	14133.54
466.397	13586.74
466.602	12994.87
466.807	13719.85
467.012	13678.9
467.218	13414.71
467.423	13609.26
467.628	13539.63
467.833	14029.1
468.038	13500.72
468.244	13013.31
468.449	13637.94
468.654	13064.5
468.859	13078.84
469.064	12876.09
469.269	12599.62
469.474	12489.03
469.679	12706.11
469.885	12466.5
470.09	12595.52
470.295	12636.48
470.5	12114.25
470.705	12382.53
470.91	12042.57
471.115	11917.64
471.32	12171.59
471.525	12063.05
471.73	11931.98
471.935	11852.11
472.139	11338.07
472.344	11571.54
472.549	11575.63
472.754	11329.88
472.959	11051.35
473.164	10918.23
473.369	10682.72
473.574	11321.68
473.778	10934.62
473.983	10721.63
474.188	10643.81
474.393	10404.19
474.598	10424.67
474.802	10260.84
475.007	10185.06
475.212	10158.44
475.417	9699.69
475.621	9791.85
475.826	9890.15
476.031	9562.48
476.235	9460.08
476.44	9683.31
476.645	9400.69
476.849	9619.82
477.054	9460.08
477.259	9476.46
477.463	9226.61
477.668	9058.68
477.872	8999.29
478.077	9095.54
478.282	8724.86
478.486	8747.39
478.691	8659.32
478.895	8872.31
479.1	8716.67
479.304	8571.26
479.509	8229.25
479.713	8329.6
479.918	8300.93
480.122	8282.5
480.326	8266.11
480.531	8149.38
480.735	8241.54
480.94	8024.45
481.144	8247.68
481.348	7936.39
481.553	8083.84
481.757	7936.39
481.961	7973.25
482.166	8157.57
482.37	8114.56
482.574	7868.81
482.778	8163.72
482.983	8315.27
483.187	8034.69
483.391	8137.09
483.595	7889.29
483.8	8051.08
484.004	8001.93
484.208	8104.32
484.412	7829.9
484.616	8071.56
484.821	7852.42
485.025	7745.93
485.229	7985.54
485.433	7813.51
485.637	7956.87
485.841	7932.29
486.045	7958.92
486.249	7946.63
486.453	7819.66
486.657	7995.78
486.861	8053.13
487.065	7764.36
487.269	7864.71
487.473	7938.44
487.677	7956.87
487.881	7887.24
488.085	7930.25
488.289	8042.89
488.493	7883.14
488.697	7909.77
488.901	7903.62
489.105	8122.76
489.309	8081.8
489.512	8094.08
489.716	8057.22
489.92	8073.6
490.124	8028.55
490.328	8292.74
490.531	8165.76
490.735	8270.21
490.939	8194.43
491.143	8325.5
491.346	8292.74
491.55	8274.31
491.754	8356.22
491.958	8384.9
492.161	8374.66
492.365	8528.25
492.569	8372.61
492.772	8497.53
492.976	8483.2
493.18	8649.08
493.383	8767.87
493.587	8845.69
493.79	8919.42
493.994	8872.31
494.197	8788.35
494.401	8962.42
494.605	8962.42
494.808	9247.09
495.012	9046.39
495.215	9105.78
495.419	9347.44
495.622	9156.98
495.825	9498.99
496.029	9259.38
496.232	9613.68
496.436	9519.47
496.639	9888.11
496.843	9705.84
497.046	10078.57
497.249	9871.72
497.453	10103.14
497.656	10219.88
497.859	10228.07
498.063	10426.72
498.266	10426.72
498.469	10428.77
498.673	10778.97
498.876	10578.27
499.079	10768.73
499.282	10826.07
499.485	11020.63
499.689	11159.89
499.892	11389.27
500.095	11374.93
500.298	11462.99
500.501	11516.24
500.705	11866.44
500.908	11923.79
501.111	12009.8
501.314	12534.08
501.517	12286.28
501.72	12376.39
501.923	12382.53
502.126	12935.48
502.329	13046.07
502.532	13132.09
502.735	13263.16
502.938	13373.75
503.141	13611.31
503.344	13611.31
503.547	13496.63
503.75	13680.94
503.953	13994.28
504.156	14512.42
504.359	14416.16
504.562	14561.57
504.765	14803.23
504.968	14948.64
505.17	15180.06
505.373	15163.67
505.576	15253.78
505.779	15352.09
505.982	15800.59
506.185	15812.88
506.387	16013.58
506.59	16103.69
506.793	16505.09
506.996	16267.53
507.198	16875.77
507.401	16707.84
507.604	17051.9
507.807	17334.52
508.009	17283.32
508.212	17637.62
508.415	17656.05
508.617	18116.84
508.82	17955.05
509.022	18051.31
509.225	18403.56
509.428	18749.67
509.63	18716.9
509.833	19144.92
510.035	19214.55
510.238	19210.46
510.44	19503.32
510.643	19595.48
510.845	19804.37
511.048	20072.65
511.25	20250.83
511.453	20576.45
511.655	21180.6
511.858	20736.2
512.06	20996.29
512.262	21186.75
512.465	21227.71
512.667	21582.01
512.87	22155.44
513.072	22149.29
513.274	22382.76
513.477	22806.69
513.679	22976.67
513.881	23113.89
514.084	23261.34
514.286	23572.63
514.488	23548.06
514.69	24193.17
514.893	24174.74
515.095	24189.07
515.297	24582.28
515.499	24533.13
515.701	25079.94
515.904	25417.85
516.106	25254.01
516.308	25618.55
516.51	26257.52
516.712	25983.09
516.914	26353.77
517.116	27138.15
517.318	26806.37
517.52	27152.48
517.722	27068.51
517.925	27422.81
518.127	27912.28
518.329	28108.88
518.531	27963.48
518.733	28889.16
518.935	28756.04
519.136	28928.07
519.338	29450.3
519.54	29456.45
519.742	29855.8
519.944	29573.18
520.146	30484.53
520.348	30326.83
520.55	30865.45
520.752	30427.18
520.954	31217.7
521.155	31262.75
521.357	31823.9
521.559	32092.18
521.761	32438.29
521.963	32253.97
522.164	32385.04
522.366	32450.58
522.568	32931.85
522.77	33085.45
522.971	33495.04
523.173	33142.79
523.375	34156.53
523.576	33789.95
523.778	33841.15
523.98	34381.81
524.181	34490.35
524.383	35028.97
524.584	35518.43
524.786	35276.77
524.988	35045.35
525.189	35534.82
525.391	35796.96
525.592	35938.27
525.794	36280.28
525.995	36163.54
526.197	36628.43
526.398	36390.87
526.6	36532.18
526.801	36687.82
527.003	36992.97
527.204	36866
527.406	37179.34
527.607	37263.3
527.808	37787.58
528.01	37138.38
528.211	37421
528.412	38281.14
528.614	38143.93
528.815	37900.22
529.016	38873.01
529.218	38143.93
529.419	38350.77
529.62	38428.6
529.822	38508.47
530.023	38778.8
530.224	38504.37
530.425	38905.77
530.626	38559.67
530.828	38748.08
531.029	39518.12
531.23	38922.16
531.431	39323.56
531.632	39258.02
531.833	39434.15
532.035	39249.83
532.236	39716.77
532.437	39462.82
532.638	39622.56
532.839	39593.89
533.04	40040.35
533.241	38881.2
533.442	39800.74
533.643	39825.31
533.844	39614.37
534.045	39905.18
534.246	39700.39
534.447	40032.16
534.648	39753.63
534.849	39864.22
535.05	39464.87
535.251	39872.42
535.451	39841.7
535.652	40169.37
535.853	40058.78
536.054	40028.06
536.255	39849.89
536.456	39765.92
536.657	40380.31
536.857	39962.53
537.058	40120.22
537.259	40310.68
537.46	39980.96
537.66	39915.42
537.861	40222.62
538.062	39825.31
538.263	40202.14
538.463	39956.38
538.664	39892.9
538.865	39892.9
539.065	40273.82
539.266	39743.39
539.466	40628.12
539.667	40099.74
539.868	40576.92
540.068	39808.93
540.269	40380.31
540.469	40646.55
540.67	40165.28
540.87	40148.89
541.071	40101.79
541.271	40191.9
541.472	40056.73
541.672	39810.98
541.873	40116.12
542.073	39718.82
542.274	40542.1
542.474	40234.91
542.675	39585.7
542.875	40773.52
543.075	40298.39
543.276	39538.6
543.476	40294.3
543.676	39794.59
543.877	40322.97
544.077	40169.37
544.277	39950.24
544.478	39890.85
544.678	40259.48
544.878	39970.72
545.078	40015.77
545.279	39999.39
545.479	39847.84
545.679	40128.41
545.879	39735.2
546.079	40089.5
546.28	39942.05
546.48	39737.25
546.68	40112.03
546.88	39845.79
547.08	39954.33
547.28	40183.71
547.48	39618.47
547.68	39708.58
547.88	39684
548.081	40097.69
548.281	39978.91
548.481	40054.68
548.681	40195.99
548.881	40023.97
549.081	39864.22
549.28	39634.85
549.48	40150.94
549.68	39710.63
549.88	40214.43
550.08	39501.73
550.28	40322.97
550.48	39554.98
550.68	40173.47
550.88	39772.07
551.08	39729.06
551.279	39772.07
551.479	39434.15
551.679	39886.75
551.879	39995.29
552.079	40042.4
552.278	39753.63
552.478	39442.34
552.678	39610.28
552.878	39853.98
553.077	39718.82
553.277	39493.54
553.477	39921.57
553.676	39264.17
553.876	39761.83
554.076	39290.79
554.275	39366.57
554.475	39065.52
554.674	39583.65
554.874	39718.82
555.074	39253.93
555.273	39597.99
555.473	39509.93
555.672	39397.29
555.872	39309.22
556.071	39317.42
556.271	39612.32
556.47	38893.49
556.67	38692.79
556.869	39094.19
557.068	39491.49
557.268	39215.02
557.467	38875.05
557.667	39237.55
557.866	38627.25
558.065	38881.2
558.265	38709.17
558.464	38438.84
558.663	39090.09
558.863	38184.89
559.062	39233.45
559.261	38352.82
559.461	38721.46
559.66	38064.06
559.859	38422.45
560.058	38209.46
560.258	38555.57
560.457	37900.22
560.656	38361.01
560.855	37816.25
561.054	38152.12
561.253	37785.54
561.453	37832.64
561.652	38086.59
561.851	38193.08
562.05	37898.17
562.249	37750.72
562.448	37509.06
562.647	37699.52
562.846	37189.58
563.045	37590.98
563.244	37298.12
563.443	37423.04
563.642	37021.64
563.841	37013.45
564.04	37324.74
564.239	37654.47
564.438	36859.85
564.637	37011.4
564.836	37121.99
565.035	36644.82
565.234	36653.01
565.432	36732.88
565.631	36509.65
565.83	36458.45
566.029	36343.77
566.228	36366.29
566.427	36423.64
566.625	35921.88
566.824	35698.66
567.023	36263.89
567.222	35506.15
567.42	36077.53
567.619	35590.11
567.818	35868.64
568.016	35868.64
568.215	35565.54
568.414	35842.01
568.612	35559.39
568.811	35334.12
569.01	35547.11
569.208	35192.81
569.407	35213.29
569.605	34916.33
569.804	35207.14
570.002	34963.43
570.201	34955.24
570.4	34508.79
570.598	34404.34
570.797	34338.8
570.995	34678.77
571.193	34211.83
571.392	34381.81
571.59	34125.82
571.789	34160.63
571.987	34359.28
572.186	34236.41
572.384	33347.59
572.582	33974.27
572.781	33951.74
572.979	33361.92
573.177	33613.82
573.376	33284.1
573.574	33286.15
573.772	33474.56
573.971	33071.11
574.169	32780.3
574.367	33021.96
574.565	32829.45
574.763	32774.16
574.962	33052.68
575.16	32243.73
575.358	32565.26
575.556	32276.5
575.754	32817.16
575.952	32237.59
576.151	32786.44
576.349	32194.58
576.547	32151.57
576.745	32094.23
576.943	32083.99
577.141	31811.61
577.339	32120.85
577.537	31768.6
577.735	31971.35
577.933	31328.29
578.131	31729.69
578.329	31379.49
578.527	31373.35
578.725	31567.9
578.923	31166.5
579.121	30937.13
579.319	31131.68
579.516	31264.8
579.714	31186.98
579.912	30857.26
580.11	30672.94
580.308	30410.8
580.506	30539.82
580.704	30142.52
580.901	30830.63
581.099	30607.4
581.297	30386.22
581.495	30214.19
581.692	30152.76
581.89	29831.22
582.088	30148.66
582.285	29841.46
582.483	30322.74
582.681	29634.62
582.878	30050.36
583.076	29743.16
583.274	30103.6
583.471	29290.56
583.669	29339.71
583.866	29186.11
584.064	29468.73
584.262	29124.68
584.459	29366.34
584.657	29149.25
584.854	29399.1
585.052	28438.61
585.249	28909.64
585.447	28788.81
585.644	28547.15
585.841	28833.86
586.039	28878.92
586.236	28471.37
586.434	28541
586.631	27881.56
586.828	28387.41
587.026	27793.5
587.223	28366.93
587.42	27916.37
587.618	27805.78
587.815	27801.69
588.012	27805.78
588.21	27705.43
588.407	27965.53
588.604	27576.41
588.801	27123.81
588.999	27265.12
589.196	27451.49
589.393	27299.94
589.59	27039.84
589.787	26865.77
589.984	26833
590.182	26878.05
590.379	26888.29
590.576	26785.9
590.773	26947.68
590.97	26656.87
591.167	27115.62
591.364	26202.22
591.561	26577
591.758	26013.81
591.955	26216.56
592.152	26392.69
592.349	25950.32
592.546	26232.94
592.743	26284.14
592.94	25716.86
593.137	26130.55
593.334	25645.18
593.531	25659.51
593.727	25768.05
593.924	25493.63
594.121	25403.52
594.318	25983.09
594.515	25043.07
594.712	25313.41
594.908	25106.56
595.105	25286.78
595.302	25282.69
595.499	25139.33
595.696	24701.06
595.892	24619.14
596.089	25092.23
596.286	24760.45
596.482	24576.14
596.679	24547.47
596.876	24547.47
597.072	24416.4
597.269	24584.33
597.466	24688.78
597.662	24230.03
597.859	24529.03
598.055	24322.19
598.252	23879.83
598.448	24182.93
598.645	23904.4
598.841	23771.29
599.038	23867.54
599.234	23654.55
599.431	23324.83
599.627	23259.29
599.824	23912.6
600.02	23537.82
600.217	23386.27
600.413	23396.51
600.609	23068.83
600.806	23154.85
601.002	23347.36
601.198	22952.1
601.395	22769.83
601.591	23044.26
601.787	23081.12
601.984	23087.26
602.18	22937.76
602.376	22489.26
602.572	22710.44
602.769	22694.05
602.965	22323.37
603.161	22319.28
603.357	22419.63
603.553	22159.53
603.75	22139.05
603.946	22290.6
604.142	22335.66
604.338	21825.71
604.534	22311.08
604.73	21930.16
604.926	21778.61
605.122	21864.63
605.318	21708.98
605.514	21393.59
605.71	21534.9
605.906	21600.44
606.102	21493.94
606.298	21584.05
606.494	21340.35
606.69	21412.03
606.886	21422.27
607.082	21000.38
607.278	21375.16
607.474	20895.94
607.67	21164.22
607.866	20725.96
608.062	21256.38
608.257	20867.27
608.453	21194.94
608.649	20871.36
608.845	20361.42
609.041	21065.92
609.236	20867.27
609.432	20789.44
609.628	20738.24
609.824	20568.26
610.019	20844.74
610.215	20482.25
610.411	20609.22
610.606	20340.94
610.802	20472.01
610.998	20424.9
611.193	20390.09
611.389	20013.26
611.584	20365.51
611.78	20066.51
611.976	20277.45
612.171	20086.99
612.367	20201.68
612.562	19865.81
612.758	19783.89
612.953	19781.84
613.149	20111.57
613.344	20009.17
613.539	20095.18
613.735	19806.42
613.93	19902.67
614.126	19859.66
614.321	20164.81
614.517	19618
614.712	19581.14
614.907	19280.09
615.103	19798.23
615.298	19405.02
615.493	19878.1
615.688	19327.19
615.884	19618
616.079	19384.54
616.274	19630.29
616.47	19345.62
616.665	19425.5
616.86	19251.42
617.055	19243.23
617.25	19114.2
617.445	19208.41
617.641	18682.08
617.836	19089.63
618.031	18712.8
618.226	18944.22
618.421	18768.1
618.616	18925.79
618.811	18553.06
619.006	19017.95
619.201	18450.66
619.396	18604.26
619.591	18135.28
619.786	18438.37
619.981	18157.8
620.176	18389.22
620.371	18024.68
620.566	18333.93
620.761	18221.29
620.956	18223.34
621.151	17967.34
621.346	18004.21
621.541	17613.04
621.735	17819.89
621.93	17459.45
622.125	17565.94
622.32	17180.92
622.515	17453.3
622.709	17271.03
622.904	17463.54
623.099	16980.22
623.294	17199.35
623.488	16935.17
623.683	16871.68
623.878	16640.26
624.072	16603.39
624.267	16818.43
624.462	16494.85
624.656	16296.2
624.851	16505.09
625.046	16277.77
625.24	16482.56
625.435	16154.89
625.629	16025.87
625.824	15868.17
626.018	16052.49
626.213	15618.32
626.407	15927.56
626.602	15708.43
626.796	15560.98
626.991	15462.68
627.185	15474.96
627.38	15356.18
627.574	15139.1
627.768	14909.72
627.963	15067.42
628.157	15089.95
628.352	14897.44
628.546	14778.65
628.74	14850.33
628.935	14657.82
629.129	14692.64
629.323	14393.64
629.517	14539.04
629.712	14332.2
629.906	14364.96
630.1	14149.93
630.294	14344.49
630.489	14053.67
630.683	14043.43
630.877	14018.86
631.071	13779.25
631.265	13885.74
631.459	13601.07
631.653	13672.75
631.848	13500.72
632.042	13416.76
632.236	13644.08
632.43	13470
632.624	13230.39
632.818	13306.16
633.012	13074.74
633.206	13183.29
633.4	13052.22
633.594	13019.45
633.788	13058.36
633.982	12996.92
634.176	12917.05
634.369	12511.55
634.563	12771.65
634.757	12493.12
634.951	12509.51
635.145	12400.96
635.339	12409.15
635.533	12345.67
635.726	12407.11
635.92	12190.02
636.114	12140.87
636.308	12122.44
636.501	12108.1
636.695	11985.23
636.889	12122.44
637.083	11786.57
637.276	11784.52
637.47	11745.61
637.664	11692.37
637.857	11794.76
638.051	11585.87
638.244	11499.86
638.438	11688.27
638.632	11454.8
638.825	11401.55
639.019	11456.85
639.212	11235.67
639.406	11293.01
639.599	11104.6
639.793	11223.38
639.986	10787.16
640.18	10893.66
640.373	10940.76
640.567	10869.08
640.76	10770.78
640.954	10856.79
641.147	10559.84
641.34	10821.98
641.534	10711.39
641.727	10457.44
641.92	10428.77
642.114	10355.04
642.307	10344.8
642.5	10461.54
642.694	10121.57
642.887	10228.07
643.08	10346.85
643.273	10062.18
643.467	9955.69
643.66	9908.58
643.853	9941.35
644.046	9916.78
644.239	9838.95
644.432	9843.05
644.626	9711.98
644.819	9765.23
645.012	9595.25
645.205	9654.64
645.398	9726.32
645.591	9482.61
645.784	9527.66
645.977	9365.87
646.17	9316.72
646.363	9417.07
646.556	9238.9
646.749	9226.61
646.942	9089.4
647.135	9050.49
647.328	9107.83
647.521	9064.82
647.714	8905.08
647.907	9034.1
648.099	8835.45
648.292	8843.64
648.485	8882.55
648.678	8659.32
648.871	8665.47
649.064	8649.08
649.256	8681.85
649.449	8499.58
649.642	8456.57
649.835	8378.75
650.027	8540.54
650.22	8221.06
650.413	8241.54
650.605	8237.44
650.798	8321.41
650.991	8180.1
651.183	8153.48
651.376	8128.9
651.568	8241.54
651.761	7997.83
651.954	8219.01
652.146	7862.66
652.339	7823.75
652.531	7727.5
652.724	7971.21
652.916	7571.85
653.109	7899.53
653.301	7881.1
653.494	7786.89
653.686	7621
653.879	7743.88
654.071	7571.85
654.263	7500.17
654.456	7653.77
654.648	7565.71
654.84	7387.54
655.033	7383.44
655.225	7401.87
655.417	7348.62
655.61	7381.39
655.802	7164.31
655.994	7147.92
656.186	7326.1
656.379	7164.31
656.571	7045.52
656.763	7137.68
656.955	6961.56
657.148	7123.35
657.34	6846.87
657.532	6797.72
657.724	6871.45
657.916	6834.58
658.108	6805.91
658.3	6758.81
658.492	6674.84
658.684	6783.38
658.876	6531.48
659.068	6658.46
659.26	6640.03
659.452	6531.48
659.644	6554.01
659.836	6427.04
660.028	6570.4
660.22	6437.28
660.412	6422.94
660.604	6386.08
660.796	6365.6
660.988	6308.26
661.18	6246.82
661.372	6156.71
661.563	6287.78
661.755	6044.07
661.947	6207.91
662.139	6212
662.331	6119.84
662.522	6015.4
662.714	6119.84
662.906	5802.41
663.097	6089.12
663.289	5820.84
663.481	5853.61
663.673	5982.63
663.864	5853.61
664.056	5904.81
664.247	5718.44
664.439	5738.92
664.631	5800.36
664.822	5806.5
665.014	5708.2
665.205	5708.2
665.397	5700.01
665.588	5722.54
665.78	5587.37
665.971	5575.08
666.163	5480.88
666.354	5470.64
666.546	5626.28
666.737	5407.15
666.929	5308.85
667.12	5448.11
667.311	5329.33
667.503	5366.19
667.694	5339.57
667.885	5298.61
668.077	5233.07
668.268	5136.82
668.459	5018.04
668.651	5228.98
668.842	5274.03
669.033	5286.32
669.224	5118.39
669.416	5185.97
669.607	4993.46
669.798	5122.48
669.989	5104.05
670.18	5079.47
670.371	4913.59
670.563	4811.19
670.754	5005.75
670.945	4764.09
671.136	4913.59
671.327	4934.07
671.518	4915.64
671.709	4950.45
671.9	4841.91
672.091	5013.94
672.282	4837.81
672.473	4837.81
672.664	4762.04
672.855	4655.54
673.046	4635.07
673.237	4776.38
673.428	4600.25
673.619	4708.79
673.809	4692.41
674	4702.65
674.191	4663.74
674.382	4659.64
674.573	4604.35
674.764	4501.95
674.954	4479.42
675.145	4456.89
675.336	4590.01
675.527	4352.45
675.717	4506.04
675.908	4405.69
676.099	4383.17
676.289	4372.93
676.48	4329.92
676.671	4329.92
676.861	4397.5
677.052	4485.56
677.243	4317.63
677.433	4327.87
677.624	4471.23
677.814	4276.67
678.005	4207.04
678.195	4293.05
678.386	4278.72
678.576	4385.21
678.767	4233.66
678.957	4149.7
679.148	4192.7
679.338	4219.33
679.529	4116.93
679.719	4155.84
679.909	4202.94
680.1	4233.66
680.29	4157.89
680.481	4176.32
680.671	4123.07
680.861	4002.24
681.052	3996.1
681.242	4078.02
681.432	4127.17
681.622	4057.54
681.813	3973.57
682.003	3994.05
682.193	3973.57
682.383	4057.54
682.573	4045.25
682.764	3901.89
682.954	3994.05
683.144	3928.52
683.334	3989.96
683.524	4010.43
683.714	3940.8
683.904	4018.63
684.094	4030.91
684.284	3973.57
684.474	3973.57
684.664	3897.8
684.854	3916.23
685.044	3738.05
685.234	3736.01
685.424	3871.17
685.614	3772.87
685.804	3852.74
685.994	3682.76
686.184	3766.73
686.374	3938.76
686.564	3826.12
686.753	3748.29
686.943	3881.41
687.133	3766.73
687.323	3699.14
687.513	3623.37
687.702	3686.86
687.892	3613.13
688.082	3725.77
688.272	3709.38
688.461	3543.5
688.651	3596.75
688.841	3611.08
689.03	3676.62
689.22	3639.75
689.41	3561.93
689.599	3531.21
689.789	3545.55
689.979	3467.72
690.168	3482.06
690.358	3420.62
690.547	3496.39
690.737	3441.1
690.926	3549.64
691.116	3389.9
691.305	3518.92
691.495	3312.08
691.684	3307.98
691.874	3387.85
692.063	3406.28
692.252	3437
692.442	3348.94
692.631	3305.93
692.82	3404.24
693.01	3291.6
693.199	3297.74
693.388	3244.49
693.578	3201.49
693.767	3250.64
693.956	3242.45
694.146	3172.82
694.335	3224.01
694.524	3140.05
694.713	3191.25
694.902	3281.36
695.092	3119.57
695.281	3178.96
695.47	3088.85
695.659	3252.69
695.848	3242.45
696.037	3203.54
696.226	3209.68
696.415	3133.9
696.604	3013.07
696.793	3129.81
696.982	3293.65
697.171	3199.44
697.36	3066.32
697.549	3142.1
697.738	3051.99
697.927	3226.06
698.116	3078.61
698.305	3041.75
698.494	3183.06
698.683	3097.04
698.872	3152.34
699.061	3117.52
699.25	3019.22
699.438	2951.63
699.627	3168.72
699.816	3013.07
700.005	3076.56
700.193	2898.39
700.382	3029.46
700.571	2867.67
700.76	2943.44
700.948	3107.28
701.137	2927.06
701.326	3064.27
701.514	2877.91
701.703	3004.88
701.892	2867.67
702.08	2996.69
702.269	2959.83
702.457	2935.25
702.646	2990.55
702.834	2968.02
703.023	3064.27
703.212	3015.12
703.4	3045.84
703.589	2894.29
703.777	3027.41
703.965	2961.87
704.154	2914.77
704.342	2945.49
704.531	3011.03
704.719	2945.49
704.907	2998.74
705.096	2984.4
705.284	2898.39
705.472	3017.17
705.661	2986.45
705.849	3006.93
706.037	3002.83
706.226	2839
706.414	2922.96
706.602	3017.17
706.79	3027.41
706.979	2908.63
707.167	2957.78
707.355	3058.13
707.543	3011.03
707.731	2949.59
707.919	2959.83
708.107	2982.35
708.296	2925.01
708.484	2888.15
708.672	2879.96
708.86	2869.72
709.048	2982.35
709.236	2939.35
709.424	2879.96
709.612	3013.07
709.8	2808.28
709.988	2839
710.176	2773.46
710.364	2871.76
710.551	2918.87
710.739	2912.72
710.927	2963.92
711.115	2861.52
711.303	2890.2
711.491	2820.56
711.679	2867.67
711.866	2810.33
712.054	2918.87
712.242	2734.55
712.43	2886.1
712.617	2884.05
712.805	2910.68
712.993	2834.9
713.181	2771.41
713.368	2863.57
713.556	2884.05
713.744	2822.61
713.931	2802.13
714.119	2920.92
714.306	2757.08
714.494	2859.48
714.682	2793.94
714.869	2716.12
715.057	2884.05
715.244	2765.27
715.432	2816.47
715.619	2798.04
715.807	2800.09
715.994	2734.55
716.182	2859.48
716.369	2759.13
716.556	2851.28
716.744	2836.95
716.931	2763.22
717.119	2808.28
717.306	2695.64
717.493	2802.13
717.681	2896.34
717.868	2853.33
718.055	2769.37
718.242	2791.89
718.43	2736.6
718.617	2824.66
718.804	2886.1
718.991	2699.73
719.179	2730.45
719.366	2834.9
719.553	2771.41
719.74	2654.68
719.927	2650.58
720.114	2644.44
720.301	2728.41
720.488	2814.42
720.676	2671.06
720.863	2701.78
721.05	2822.61
721.237	2802.13
721.424	2863.57
721.611	2763.22
721.798	2755.03
721.985	2593.24
722.172	2673.11
722.358	2677.21
722.545	2791.89
722.732	2714.07
722.919	2761.17
723.106	2517.47
723.293	2644.44
723.48	2605.53
723.667	2714.07
723.853	2597.34
724.04	2638.3
724.227	2795.99
724.414	2779.61
724.6	2748.89
724.787	2679.26
724.974	2726.36
725.161	2738.65
725.347	2722.26
725.534	2699.73
725.72	2681.3
725.907	2679.26
726.094	2640.34
726.28	2630.1
726.467	2658.78
726.653	2605.53
726.84	2615.77
727.027	2709.97
727.213	2685.4
727.4	2664.92
727.586	2662.87
727.773	2601.43
727.959	2687.45
728.145	2556.38
728.332	2644.44
728.518	2568.66
728.705	2630.1
728.891	2617.82
729.077	2578.9
729.264	2662.87
729.45	2626.01
729.636	2752.98
729.823	2701.78
730.009	2607.58
730.195	2646.49
730.382	2605.53
730.568	2613.72
730.754	2732.5
730.94	2585.05
731.126	2689.49
731.313	2662.87
731.499	2566.62
731.685	2619.86
731.871	2597.34
732.057	2666.97
732.243	2619.86
732.429	2560.47
732.615	2609.62
732.801	2687.45
732.987	2529.75
733.173	2539.99
733.359	2587.1
733.545	2566.62
733.731	2564.57
733.917	2529.75
734.103	2505.18
734.289	2656.73
734.475	2601.43
734.661	2583
734.847	2603.48
735.033	2517.47
735.219	2564.57
735.404	2611.67
735.59	2548.19
735.776	2601.43
735.962	2585.05
736.148	2572.76
736.333	2539.99
736.519	2408.92
736.705	2488.79
736.89	2531.8
737.076	2638.3
737.262	2519.51
737.447	2476.51
737.633	2357.72
737.819	2572.76
738.004	2533.85
738.19	2503.13
738.375	2513.37
738.561	2474.46
738.747	2398.68
738.932	2384.35
739.118	2396.64
739.303	2456.03
739.489	2386.4
739.674	2335.2
739.859	2466.27
740.045	2470.36
740.23	2413.02
740.416	2433.5
740.601	2343.39
740.786	2439.64
740.972	2413.02
741.157	2388.44
741.342	2408.92
741.528	2339.29
741.713	2308.57
741.898	2408.92
742.084	2439.64
742.269	2363.87
742.454	2230.75
742.639	2234.85
742.824	2294.24
743.01	2243.04
743.195	2288.09
743.38	2124.26
743.565	2257.37
743.75	2312.67
743.935	2294.24
744.12	2329.05
744.305	2150.88
744.49	2197.98
744.675	2134.5
744.86	2224.61
745.045	2240.99
745.23	2206.17
745.415	2224.61
745.6	2101.73
745.785	2183.65
745.97	2091.49
746.155	2173.41
746.34	2142.69
746.525	2204.13
746.71	2068.96
746.895	1993.19
747.079	2032.1
747.264	1989.09
747.449	2003.43
747.634	2064.86
747.819	2003.43
748.003	2019.81
748.188	1978.85
748.373	1939.94
748.557	1948.13
748.742	1882.6
748.927	1991.14
749.111	1989.09
749.296	1858.02
749.481	1939.94
749.665	1907.17
749.85	1870.31
750.034	1876.45
750.219	1898.98
750.404	1765.86
750.588	1911.27
750.773	1868.26
750.957	1810.92
751.141	1769.96
751.326	1761.77
751.51	1739.24
751.695	1759.72
751.879	1782.24
752.064	1733.09
752.248	1733.09
752.432	1698.28
752.617	1759.72
752.801	1724.9
752.985	1636.84
753.17	1636.84
753.354	1649.13
753.538	1733.09
753.722	1546.73
753.907	1511.91
754.091	1675.75
754.275	1628.65
754.459	1591.78
754.643	1626.6
754.828	1507.82
755.012	1589.74
755.196	1610.22
755.38	1495.53
755.564	1542.63
755.748	1554.92
755.932	1501.67
756.116	1546.73
756.3	1520.1
756.484	1423.85
756.668	1429.99
756.852	1444.33
757.036	1401.32
757.22	1456.62
757.404	1409.51
757.588	1491.43
757.772	1446.38
757.956	1460.71
758.14	1395.18
758.323	1378.79
758.507	1401.32
758.691	1317.36
758.875	1384.94
759.059	1354.22
759.242	1221.1
759.426	1391.08
759.61	1368.56
759.794	1260.01
759.977	1366.51
760.161	1348.08
760.345	1294.83
760.528	1329.64
760.712	1194.48
760.895	1212.91
761.079	1303.02
761.263	1278.44
761.446	1245.68
761.63	1178.09
761.813	1219.05
761.997	1200.62
762.18	1184.24
762.364	1288.68
762.547	1210.86
762.731	1208.81
762.914	1239.53
763.098	1153.52
763.281	1137.13
763.464	1163.76
763.648	1098.22
763.831	1174
764.015	1149.42
764.198	1169.9
764.381	1147.37
764.564	1126.89
764.748	1161.71
764.931	1114.61
765.114	1092.08
765.297	1133.04
765.481	1110.51
765.664	1122.8
765.847	1032.69
766.03	1161.71
766.213	1104.37
766.397	997.87
766.58	1167.85
766.763	1008.11
766.946	1165.81
767.129	1069.55
767.312	1096.18
767.495	1067.5
767.678	1083.89
767.861	1044.98
768.044	1034.74
768.227	1081.84
768.41	950.77
768.593	1102.32
768.776	1010.16
768.959	1012.21
769.142	977.39
769.324	942.58
769.507	1018.35
769.69	967.15
769.873	1042.93
770.056	1110.51
770.239	1020.4
770.421	1030.64
770.604	1004.02
770.787	999.92
770.97	958.96
771.152	889.33
771.335	979.44
771.518	971.25
771.7	895.47
771.883	1061.36
772.066	926.19
772.248	920.05
772.431	971.25
772.613	995.82
772.796	848.37
772.978	922.1
773.161	963.06
773.343	928.24
773.526	866.8
773.708	911.86
773.891	879.09
774.073	885.23
774.256	897.52
774.438	885.23
774.621	852.47
774.803	831.99
774.985	872.95
775.168	834.04
775.35	901.62
775.532	803.32
775.715	874.99
775.897	858.61
776.079	776.69
776.261	801.27
776.444	829.94
776.626	823.8
776.808	725.49
776.99	819.7
777.173	774.64
777.355	758.26
777.537	838.13
777.719	840.18
777.901	825.84
778.083	717.3
778.265	705.01
778.447	727.54
778.629	692.73
778.811	670.2
778.993	760.31
779.175	786.93
779.357	745.97
779.539	711.16
779.721	745.97
779.903	651.77
780.085	631.29
780.267	674.29
780.449	737.78
780.631	768.5
780.812	647.67
780.994	705.01
781.176	631.29
781.358	647.67
781.54	532.98
781.721	625.14
781.903	666.1
782.085	623.09
782.267	612.85
782.448	594.42
782.63	645.62
782.812	616.95
782.993	623.09
783.175	631.29
783.357	619
783.538	563.7
783.72	582.14
783.901	487.93
784.083	547.32
784.264	575.99
784.446	584.18
784.627	563.7
784.809	616.95
784.99	578.04
785.172	489.98
785.353	518.65
785.535	537.08
785.716	535.03
785.897	512.5
786.079	526.84
786.26	522.74
786.441	541.18
786.623	481.78
786.804	539.13
786.985	532.98
787.167	440.83
787.348	492.02
787.529	455.16
787.71	528.89
787.891	496.12
788.073	512.5
788.254	526.84
788.435	512.5
788.616	455.16
788.797	494.07
788.978	408.06
789.159	422.39
789.34	455.16
789.522	420.35
789.703	446.97
789.884	432.63
790.065	434.68
790.246	426.49
790.427	467.45
790.607	467.45
790.788	401.91
790.969	414.2
791.15	369.15
791.331	432.63
791.512	342.52
791.693	428.54
791.874	369.15
792.054	424.44
792.235	406.01
792.416	346.62
792.597	401.91
792.778	328.19
792.958	354.81
793.139	387.58
793.32	371.19
793.5	375.29
793.681	381.43
793.862	371.19
794.042	377.34
794.223	258.56
794.404	315.9
794.584	328.19
794.765	326.14
794.945	371.19
795.126	352.76
795.306	340.47
795.487	344.57
795.667	363
795.848	365.05
796.028	350.71
796.209	328.19
796.389	291.32
796.57	276.99
796.75	291.32
796.93	365.05
797.111	315.9
797.291	309.76
797.471	313.85
797.652	346.62
797.832	264.7
798.012	340.47
798.192	311.8
798.373	322.04
798.553	303.61
798.733	320
798.913	264.7
799.093	268.8
799.274	246.27
799.454	322.04
799.634	326.14
799.814	209.4
799.994	297.47
800.174	295.42
800.354	285.18
800.534	270.84
800.714	217.6
800.894	289.28
801.074	332.28
801.254	205.31
801.434	352.76
801.614	363
801.794	193.02
801.974	623.09
802.154	340.47
802.334	301.56
802.514	244.22
802.693	264.7
802.873	238.08
803.053	299.52
803.233	301.56
803.413	274.94
803.592	266.75
803.772	268.8
803.952	256.51
804.131	301.56
804.311	186.88
804.491	229.88
804.67	238.08
804.85	205.31
805.03	287.23
805.209	246.27
805.389	231.93
805.568	279.04
805.748	225.79
805.928	250.36
806.107	252.41
806.287	233.98
806.466	274.94
806.646	156.16
806.825	260.6
807.004	248.32
807.184	213.5
807.363	256.51
807.543	236.03
807.722	209.4
807.901	203.26
808.081	258.56
808.26	147.97
808.439	174.59
808.619	184.83
808.798	262.65
808.977	203.26
809.156	254.46
809.336	254.46
809.515	199.16
809.694	162.3
809.873	225.79
810.052	184.83
810.231	244.22
810.411	209.4
810.59	162.3
810.769	182.78
810.948	213.5
811.127	139.77
811.306	219.64
811.485	207.36
811.664	188.93
811.843	176.64
812.022	184.83
812.201	170.49
812.38	174.59
812.559	147.97
812.737	180.73
812.916	176.64
813.095	150.01
813.274	184.83
813.453	219.64
813.632	217.6
813.811	199.16
813.989	170.49
814.168	131.58
814.347	129.53
814.526	219.64
814.704	156.16
814.883	131.58
815.062	162.3
815.24	225.79
815.419	131.58
815.598	162.3
815.776	121.34
815.955	133.63
816.133	209.4
816.312	186.88
816.49	117.25
816.669	64
816.847	117.25
817.026	141.82
817.204	121.34
817.383	168.45
817.561	121.34
817.74	221.69
817.918	133.63
818.097	131.58
818.275	143.87
818.453	156.16
818.632	164.35
818.81	111.1
818.988	123.39
819.167	139.77
819.345	172.54
819.523	172.54
819.701	229.88
819.879	111.1
820.058	150.01
820.236	201.21
820.414	111.1
820.592	96.77
820.77	137.73
820.948	145.92
821.127	121.34
821.305	164.35
821.483	127.49
821.661	168.45
821.839	104.96
822.017	107.01
822.195	74.24
822.373	174.59
822.551	170.49
822.729	133.63
822.907	74.24
823.085	107.01
823.262	123.39
823.44	145.92
823.618	109.05
823.796	164.35
823.974	139.77
824.152	104.96
824.329	141.82
824.507	86.53
824.685	170.49
824.863	119.29
825.04	92.67
825.218	94.72
825.396	102.91
825.574	72.19
825.751	143.87
825.929	98.81
826.107	107.01
826.284	135.68
826.462	111.1
826.639	88.57
826.817	115.2
826.994	203.26
827.172	137.73
827.349	150.01
827.527	158.21
827.704	111.1
827.882	147.97
828.059	96.77
828.237	127.49
828.414	127.49
828.591	115.2
828.769	29.18
828.946	133.63
829.124	78.33
829.301	143.87
829.478	90.62
829.655	92.67
829.833	170.49
830.01	78.33
830.187	102.91
830.364	57.86
830.542	90.62
830.719	135.68
830.896	86.53
831.073	94.72
831.25	47.62
831.427	55.81
831.604	131.58
831.782	80.38
831.959	68.09
832.136	70.14
832.313	107.01
832.49	35.33
832.667	147.97
832.844	72.19
833.021	178.69
833.198	41.47
833.374	94.72
833.551	82.43
833.728	107.01
833.905	41.47
834.082	29.18
834.259	35.33
834.436	68.09
834.612	107.01
834.789	111.1
834.966	117.25
835.143	80.38
835.319	186.88
835.496	102.91
835.673	107.01
835.85	119.29
836.026	104.96
836.203	80.38
836.38	88.57
836.556	127.49
836.733	57.86
836.909	111.1
837.086	82.43
837.262	98.81
837.439	111.1
837.616	53.76
837.792	78.33
837.968	29.18
838.145	74.24
838.321	160.25
838.498	45.57
838.674	92.67
838.851	53.76
839.027	33.28
839.203	90.62
839.38	84.48
839.556	45.57
839.732	39.42
839.909	57.86
840.085	23.04
840.261	37.38
840.437	80.38
840.614	84.48
840.79	84.48
840.966	-1.54
841.142	92.67
841.318	16.9
841.494	61.95
841.671	64
841.847	2.56
842.023	16.9
842.199	111.1
842.375	139.77
842.551	43.52
842.727	18.94
842.903	104.96
843.079	43.52
843.255	123.39
843.431	70.14
843.607	92.67
843.783	45.57
843.959	102.91
844.134	31.23
844.31	29.18
844.486	55.81
844.662	57.86
844.838	57.86
845.013	-3.58
845.189	41.47
845.365	92.67
845.541	45.57
845.716	78.33
845.892	61.95
846.068	37.38
846.244	76.29
846.419	20.99
846.595	12.8
846.77	-28.16
846.946	113.15
847.122	74.24
847.297	18.94
847.473	78.33
847.648	31.23
847.824	16.9
847.999	72.19
848.175	145.92
848.35	0.51
848.526	123.39
848.701	123.39
848.876	25.09
849.052	37.38
849.227	41.47
849.403	0.51
849.578	-38.4
849.753	23.04
849.929	64
850.104	12.8
850.279	66.05
850.454	131.58
850.63	27.14
850.805	-75.26
850.98	35.33
851.155	35.33
851.33	31.23
851.505	82.43
851.681	66.05
851.856	25.09
852.031	-17.92
852.206	25.09
852.381	43.52
852.556	111.1
852.731	37.38
852.906	47.62
853.081	76.29
853.256	64
853.431	4.61
853.606	-7.68
853.781	14.85
853.956	23.04
854.131	53.76
854.305	55.81
854.48	8.7
854.655	-3.58
854.83	12.8
855.005	115.2
855.18	29.18
855.354	0.51
855.529	35.33
855.704	-48.64
855.879	98.81
856.053	76.29
856.228	66.05
856.403	25.09
856.577	68.09
856.752	27.14
856.926	143.87
857.101	12.8
857.276	37.38
857.45	31.23
857.625	33.28
857.799	0.51
857.974	66.05
858.148	-40.45
858.323	111.1
858.497	-15.87
858.672	117.25
858.846	10.75
859.02	8.7
859.195	-46.59
859.369	47.62
859.543	14.85
859.718	90.62
859.892	-32.26
860.066	23.04
860.241	-7.68
860.415	64
860.589	-7.68
860.763	14.85
860.938	-5.63
861.112	47.62
861.286	-9.73
861.46	-3.58
861.634	18.94
861.808	0.51
861.982	-1.54
862.157	12.8
862.331	-48.64
862.505	35.33
862.679	20.99
862.853	109.05
863.027	25.09
863.201	74.24
863.375	-19.97
863.549	27.14
863.722	49.66
863.896	29.18
864.07	39.42
864.244	-3.58
864.418	51.71
864.592	45.57
864.766	25.09
864.939	6.66
865.113	86.53
865.287	88.57
865.461	-5.63
865.634	27.14
865.808	39.42
865.982	-11.78
866.156	10.75
866.329	-9.73
866.503	35.33
866.676	57.86
866.85	45.57
867.024	-67.07
867.197	51.71
867.371	-56.83
867.544	0.51
867.718	47.62
867.891	80.38
868.065	51.71
868.238	2.56
868.412	86.53
868.585	84.48
868.759	55.81
868.932	2.56
869.105	57.86
869.279	23.04
869.452	51.71
869.625	111.1
869.799	94.72
869.972	-24.06
870.145	0.51
870.319	100.86
870.492	-28.16
870.665	41.47
870.838	-5.63
871.011	-62.98
871.185	76.29
871.358	-22.02
871.531	-7.68
871.704	14.85
871.877	33.28
872.05	70.14
872.223	-9.73
872.396	29.18
872.569	23.04
872.742	8.7
872.915	68.09
873.088	-26.11
873.261	29.18
873.434	-15.87
873.607	29.18
873.78	27.14
873.953	-19.97
874.126	-44.54
874.299	61.95
874.471	25.09
874.644	51.71
874.817	-13.82
874.99	12.8
875.163	51.71
875.335	39.42
875.508	61.95
875.681	8.7
875.853	-30.21
876.026	53.76
876.199	-5.63
876.371	78.33
876.544	-40.45
876.717	27.14
876.889	-3.58
877.062	16.9
877.234	-3.58
877.407	-24.06
877.579	35.33
877.752	-11.78
877.924	0.51
878.097	12.8
878.269	10.75
878.442	35.33
878.614	82.43
878.786	33.28
878.959	-26.11
879.131	66.05
879.303	25.09
879.476	12.8
879.648	49.66
879.82	35.33
879.993	-22.02
880.165	35.33
880.337	31.23
880.509	39.42
880.681	4.61
880.854	45.57
881.026	8.7
881.198	27.14
881.37	47.62
881.542	-7.68
881.714	12.8
881.886	84.48
882.058	41.47
882.23	18.94
882.402	18.94
882.574	20.99
882.746	39.42
882.918	57.86
883.09	-44.54
883.262	8.7
883.434	41.47
883.606	20.99
883.778	14.85
883.95	59.9
884.122	8.7
884.293	86.53
884.465	-5.63
884.637	86.53
884.809	14.85
884.98	55.81
885.152	-48.64
885.324	-5.63
885.496	-26.11
885.667	66.05
885.839	25.09
886.011	86.53
886.182	47.62
886.354	23.04
886.525	76.29
886.697	25.09
886.869	-22.02
887.04	53.76
887.212	72.19
887.383	41.47
887.555	29.18
887.726	-13.82
887.897	-15.87
888.069	-15.87
888.24	27.14
888.412	12.8
888.583	25.09
888.754	12.8
888.926	-54.78
889.097	-58.88
889.268	57.86
889.44	0.51
889.611	-50.69
889.782	-5.63
889.953	31.23
890.125	23.04
890.296	41.47
890.467	4.61
890.638	-19.97
890.809	10.75
890.98	-15.87
891.151	41.47
891.323	-17.92
891.494	23.04
891.665	14.85
891.836	55.81
892.007	43.52
892.178	2.56
892.349	33.28
892.52	39.42
892.691	-46.59
892.862	-26.11
893.032	-34.3
893.203	35.33
893.374	-28.16
893.545	-13.82
893.716	76.29
893.887	61.95
894.057	-32.26
894.228	18.94
894.399	-50.69
894.57	-11.78
894.74	-11.78
894.911	45.57
895.082	-50.69
895.253	14.85
895.423	-7.68
895.594	31.23
895.764	-28.16
895.935	47.62
896.106	-13.82
896.276	31.23
896.447	47.62
896.617	29.18
896.788	-32.26
896.958	-36.35
897.129	-22.02
897.299	23.04
897.47	66.05
897.64	64
897.81	43.52
897.981	74.24
898.151	-17.92
898.322	0.51
898.492	-5.63
898.662	-44.54
898.832	-34.3
899.003	-1.54
899.173	18.94
899.343	-24.06
899.513	0.51
