Data from USB4F104151__250__11-11-43-028.txt Node

Date: Wed Mar 12 11:11:43 EDT 2025
User: louis
Spectrometer: USB4F10415
Trigger mode: 4
Integration Time (sec): 2.000000E-2
Scans to average: 1
Electric dark correction enabled: true
Nonlinearity correction enabled: false
Boxcar width: 0
XAxis mode: Wavelengths
Number of Pixels in Spectrum: 3648
>>>>>Begin Spectral Data<<<<<
178.204	-7.17
178.424	-7.17
178.644	-7.17
178.864	-76.8
179.084	-80.89
179.304	3.07
179.524	23.55
179.744	-3.07
179.964	-25.6
180.184	64.51
180.404	11.26
180.624	19.46
180.844	-3.07
181.064	29.7
181.283	-80.89
181.503	-72.7
181.723	33.79
181.943	11.26
182.163	50.18
182.383	48.13
182.602	27.65
182.822	64.51
183.042	109.57
183.262	109.57
183.482	58.37
183.701	9.22
183.921	19.46
184.141	70.65
184.361	58.37
184.58	-13.31
184.8	82.94
185.02	11.26
185.239	46.08
185.459	19.46
185.679	70.65
185.898	-1.02
186.118	5.12
186.338	60.42
186.557	97.28
186.777	54.27
186.997	97.28
187.216	-9.22
187.436	91.13
187.655	25.6
187.875	-13.31
188.095	97.28
188.314	39.94
188.534	-29.7
188.753	91.13
188.973	74.75
189.192	46.08
189.412	80.89
189.631	29.7
189.851	17.41
190.07	97.28
190.29	3.07
190.509	29.7
190.729	64.51
190.948	-7.17
191.168	95.23
191.387	150.53
191.607	-5.12
191.826	11.26
192.045	162.81
192.265	97.28
192.484	56.32
192.704	25.6
192.923	-3.07
193.142	187.39
193.362	52.22
193.581	44.03
193.8	5.12
194.02	54.27
194.239	78.85
194.458	44.03
194.678	31.74
194.897	29.7
195.116	62.46
195.335	54.27
195.555	25.6
195.774	95.23
195.993	39.94
196.212	68.61
196.432	31.74
196.651	78.85
196.87	31.74
197.089	64.51
197.308	70.65
197.528	117.76
197.747	-37.89
197.966	107.52
198.185	72.7
198.404	115.71
198.623	113.66
198.842	-44.03
199.062	62.46
199.281	52.22
199.5	66.56
199.719	-15.36
199.938	58.37
200.157	13.31
200.376	27.65
200.595	76.8
200.814	76.8
201.033	37.89
201.252	84.99
201.471	78.85
201.69	103.42
201.909	31.74
202.128	-17.41
202.347	31.74
202.566	27.65
202.785	39.94
203.004	7.17
203.223	82.94
203.442	68.61
203.661	-37.89
203.879	62.46
204.098	70.65
204.317	29.7
204.536	7.17
204.755	70.65
204.974	62.46
205.193	66.56
205.411	60.42
205.63	54.27
205.849	117.76
206.068	5.12
206.287	33.79
206.505	37.89
206.724	48.13
206.943	1.02
207.162	121.85
207.381	56.32
207.599	64.51
207.818	109.57
208.037	-13.31
208.255	-5.12
208.474	46.08
208.693	11.26
208.911	37.89
209.13	-27.65
209.349	97.28
209.567	62.46
209.786	25.6
210.005	19.46
210.223	-5.12
210.442	9.22
210.661	-5.12
210.879	11.26
211.098	44.03
211.316	15.36
211.535	56.32
211.753	23.55
211.972	105.47
212.191	50.18
212.409	58.37
212.628	62.46
212.846	68.61
213.065	-9.22
213.283	62.46
213.502	80.89
213.72	80.89
213.938	74.75
214.157	78.85
214.375	113.66
214.594	3.07
214.812	91.13
215.031	87.04
215.249	-3.07
215.467	35.84
215.686	52.22
215.904	48.13
216.122	60.42
216.341	93.18
216.559	66.56
216.778	41.98
216.996	70.65
217.214	52.22
217.432	66.56
217.651	66.56
217.869	19.46
218.087	97.28
218.306	60.42
218.524	111.61
218.742	87.04
218.96	74.75
219.179	-35.84
219.397	37.89
219.615	76.8
219.833	66.56
220.051	78.85
220.27	142.33
220.488	48.13
220.706	-9.22
220.924	23.55
221.142	70.65
221.36	60.42
221.578	56.32
221.796	-11.26
222.015	-25.6
222.233	78.85
222.451	97.28
222.669	56.32
222.887	68.61
223.105	101.37
223.323	115.71
223.541	72.7
223.759	64.51
223.977	1.02
224.195	89.09
224.413	52.22
224.631	150.53
224.849	87.04
225.067	93.18
225.285	70.65
225.503	64.51
225.721	101.37
225.939	-1.02
226.157	58.37
226.375	142.33
226.592	11.26
226.81	123.9
227.028	-9.22
227.246	93.18
227.464	41.98
227.682	44.03
227.9	70.65
228.117	9.22
228.335	-9.22
228.553	33.79
228.771	56.32
228.989	76.8
229.206	62.46
229.424	50.18
229.642	23.55
229.86	23.55
230.077	103.42
230.295	80.89
230.513	39.94
230.731	50.18
230.948	99.33
231.166	84.99
231.384	35.84
231.601	58.37
231.819	15.36
232.037	35.84
232.254	128
232.472	113.66
232.689	-27.65
232.907	33.79
233.125	-21.5
233.342	3.07
233.56	56.32
233.777	19.46
233.995	70.65
234.213	66.56
234.43	64.51
234.648	21.5
234.865	64.51
235.083	35.84
235.3	33.79
235.518	50.18
235.735	89.09
235.953	46.08
236.17	60.42
236.388	-33.79
236.605	64.51
236.822	44.03
237.04	23.55
237.257	80.89
237.475	5.12
237.692	76.8
237.909	35.84
238.127	91.13
238.344	21.5
238.562	31.74
238.779	29.7
238.996	107.52
239.214	52.22
239.431	37.89
239.648	87.04
239.865	64.51
240.083	95.23
240.3	-25.6
240.517	66.56
240.735	5.12
240.952	78.85
241.169	107.52
241.386	68.61
241.603	-13.31
241.821	19.46
242.038	89.09
242.255	76.8
242.472	35.84
242.689	70.65
242.907	87.04
243.124	64.51
243.341	31.74
243.558	23.55
243.775	66.56
243.992	68.61
244.209	107.52
244.426	31.74
244.643	91.13
244.86	1.02
245.078	52.22
245.295	54.27
245.512	62.46
245.729	31.74
245.946	41.98
246.163	82.94
246.38	66.56
246.597	48.13
246.814	15.36
247.031	29.7
247.248	-29.7
247.464	-1.02
247.681	72.7
247.898	15.36
248.115	44.03
248.332	-27.65
248.549	54.27
248.766	146.43
248.983	19.46
249.2	78.85
249.417	60.42
249.633	11.26
249.85	11.26
250.067	99.33
250.284	72.7
250.501	93.18
250.717	33.79
250.934	78.85
251.151	15.36
251.368	97.28
251.585	103.42
251.801	58.37
252.018	48.13
252.235	72.7
252.451	25.6
252.668	52.22
252.885	84.99
253.102	60.42
253.318	33.79
253.535	103.42
253.752	48.13
253.968	-5.12
254.185	76.8
254.401	48.13
254.618	60.42
254.835	64.51
255.051	119.81
255.268	50.18
255.484	58.37
255.701	23.55
255.917	33.79
256.134	21.5
256.351	70.65
256.567	25.6
256.784	82.94
257	41.98
257.217	46.08
257.433	105.47
257.65	72.7
257.866	48.13
258.082	27.65
258.299	76.8
258.515	37.89
258.732	84.99
258.948	-3.07
259.165	97.28
259.381	87.04
259.597	70.65
259.814	31.74
260.03	37.89
260.246	103.42
260.463	76.8
260.679	15.36
260.895	-1.02
261.112	70.65
261.328	76.8
261.544	29.7
261.761	44.03
261.977	13.31
262.193	3.07
262.409	76.8
262.626	72.7
262.842	78.85
263.058	105.47
263.274	109.57
263.49	44.03
263.707	39.94
263.923	35.84
264.139	50.18
264.355	101.37
264.571	80.89
264.787	72.7
265.004	48.13
265.22	117.76
265.436	93.18
265.652	-15.36
265.868	3.07
266.084	52.22
266.3	33.79
266.516	3.07
266.732	89.09
266.948	11.26
267.164	31.74
267.38	123.9
267.596	56.32
267.812	76.8
268.028	117.76
268.244	35.84
268.46	17.41
268.676	60.42
268.892	-15.36
269.108	35.84
269.324	52.22
269.54	44.03
269.756	68.61
269.972	72.7
270.188	35.84
270.403	66.56
270.619	107.52
270.835	78.85
271.051	64.51
271.267	9.22
271.483	72.7
271.698	27.65
271.914	74.75
272.13	23.55
272.346	99.33
272.562	27.65
272.777	84.99
272.993	9.22
273.209	39.94
273.425	66.56
273.64	-5.12
273.856	52.22
274.072	9.22
274.287	66.56
274.503	144.38
274.719	128
274.934	97.28
275.15	23.55
275.366	78.85
275.581	80.89
275.797	68.61
276.012	44.03
276.228	97.28
276.444	31.74
276.659	19.46
276.875	29.7
277.09	3.07
277.306	105.47
277.521	-1.02
277.737	66.56
277.952	148.48
278.168	50.18
278.383	68.61
278.599	46.08
278.814	3.07
279.03	80.89
279.245	46.08
279.461	31.74
279.676	82.94
279.892	35.84
280.107	11.26
280.322	29.7
280.538	13.31
280.753	68.61
280.969	-5.12
281.184	11.26
281.399	11.26
281.615	113.66
281.83	64.51
282.045	87.04
282.26	21.5
282.476	39.94
282.691	76.8
282.906	52.22
283.122	64.51
283.337	-21.5
283.552	17.41
283.767	5.12
283.983	39.94
284.198	99.33
284.413	35.84
284.628	25.6
284.843	58.37
285.058	56.32
285.274	56.32
285.489	23.55
285.704	15.36
285.919	103.42
286.134	44.03
286.349	7.17
286.564	97.28
286.779	44.03
286.995	132.09
287.21	76.8
287.425	99.33
287.64	17.41
287.855	23.55
288.07	89.09
288.285	66.56
288.5	60.42
288.715	107.52
288.93	46.08
289.145	41.98
289.36	44.03
289.575	54.27
289.79	64.51
290.004	99.33
290.219	64.51
290.434	23.55
290.649	31.74
290.864	31.74
291.079	97.28
291.294	41.98
291.509	74.75
291.724	52.22
291.938	80.89
292.153	72.7
292.368	113.66
292.583	132.09
292.798	44.03
293.012	97.28
293.227	64.51
293.442	44.03
293.657	117.76
293.871	105.47
294.086	87.04
294.301	111.61
294.516	95.23
294.73	72.7
294.945	52.22
295.16	134.14
295.374	117.76
295.589	56.32
295.804	80.89
296.018	31.74
296.233	154.62
296.447	19.46
296.662	7.17
296.877	-31.74
297.091	97.28
297.306	80.89
297.52	-1.02
297.735	80.89
297.949	19.46
298.164	58.37
298.378	82.94
298.593	91.13
298.807	60.42
299.022	48.13
299.236	31.74
299.451	84.99
299.665	29.7
299.88	-3.07
300.094	111.61
300.309	60.42
300.523	119.81
300.737	48.13
300.952	87.04
301.166	78.85
301.381	7.17
301.595	74.75
301.809	-35.84
302.024	97.28
302.238	72.7
302.452	95.23
302.667	23.55
302.881	31.74
303.095	27.65
303.309	52.22
303.524	13.31
303.738	33.79
303.952	29.7
304.166	64.51
304.381	39.94
304.595	91.13
304.809	7.17
305.023	93.18
305.237	72.7
305.452	93.18
305.666	35.84
305.88	21.5
306.094	113.66
306.308	62.46
306.522	19.46
306.736	-9.22
306.95	84.99
307.164	64.51
307.379	-11.26
307.593	80.89
307.807	39.94
308.021	84.99
308.235	87.04
308.449	5.12
308.663	80.89
308.877	58.37
309.091	54.27
309.305	185.34
309.519	68.61
309.733	25.6
309.947	7.17
310.161	60.42
310.374	97.28
310.588	93.18
310.802	33.79
311.016	66.56
311.23	89.09
311.444	31.74
311.658	97.28
311.872	41.98
312.085	80.89
312.299	142.33
312.513	72.7
312.727	37.89
312.941	97.28
313.154	76.8
313.368	84.99
313.582	101.37
313.796	80.89
314.009	11.26
314.223	72.7
314.437	121.85
314.651	82.94
314.864	50.18
315.078	25.6
315.292	68.61
315.505	46.08
315.719	74.75
315.933	54.27
316.146	93.18
316.36	37.89
316.573	44.03
316.787	48.13
317.001	82.94
317.214	64.51
317.428	64.51
317.641	35.84
317.855	97.28
318.068	74.75
318.282	29.7
318.495	91.13
318.709	72.7
318.922	29.7
319.136	74.75
319.349	105.47
319.563	-15.36
319.776	87.04
319.99	72.7
320.203	29.7
320.417	97.28
320.63	7.17
320.843	66.56
321.057	35.84
321.27	68.61
321.483	3.07
321.697	95.23
321.91	72.7
322.124	27.65
322.337	41.98
322.55	7.17
322.763	1.02
322.977	56.32
323.19	50.18
323.403	5.12
323.617	52.22
323.83	39.94
324.043	76.8
324.256	48.13
324.469	19.46
324.683	68.61
324.896	48.13
325.109	99.33
325.322	15.36
325.535	50.18
325.748	105.47
325.962	93.18
326.175	27.65
326.388	80.89
326.601	46.08
326.814	68.61
327.027	52.22
327.24	50.18
327.453	78.85
327.666	39.94
327.879	99.33
328.092	50.18
328.305	29.7
328.518	91.13
328.731	46.08
328.944	87.04
329.157	70.65
329.37	87.04
329.583	144.38
329.796	50.18
330.009	23.55
330.222	136.19
330.435	46.08
330.648	3.07
330.861	82.94
331.073	121.85
331.286	33.79
331.499	72.7
331.712	58.37
331.925	162.81
332.138	97.28
332.35	35.84
332.563	29.7
332.776	78.85
332.989	27.65
333.202	9.22
333.414	1.02
333.627	82.94
333.84	1.02
334.053	70.65
334.265	23.55
334.478	80.89
334.691	27.65
334.903	29.7
335.116	68.61
335.329	29.7
335.541	48.13
335.754	115.71
335.966	13.31
336.179	95.23
336.392	136.19
336.604	48.13
336.817	62.46
337.029	21.5
337.242	-1.02
337.454	99.33
337.667	29.7
337.88	29.7
338.092	58.37
338.305	82.94
338.517	62.46
338.729	33.79
338.942	107.52
339.154	99.33
339.367	23.55
339.579	134.14
339.792	68.61
340.004	78.85
340.217	50.18
340.429	89.09
340.641	41.98
340.854	87.04
341.066	82.94
341.278	29.7
341.491	64.51
341.703	72.7
341.915	89.09
342.128	89.09
342.34	33.79
342.552	70.65
342.764	82.94
342.977	25.6
343.189	84.99
343.401	72.7
343.613	23.55
343.826	62.46
344.038	82.94
344.25	44.03
344.462	132.09
344.674	80.89
344.886	37.89
345.099	101.37
345.311	44.03
345.523	13.31
345.735	46.08
345.947	3.07
346.159	130.05
346.371	97.28
346.583	62.46
346.795	54.27
347.007	87.04
347.219	103.42
347.431	68.61
347.643	48.13
347.855	62.46
348.067	64.51
348.279	121.85
348.491	72.7
348.703	21.5
348.915	41.98
349.127	-1.02
349.339	80.89
349.551	103.42
349.763	117.76
349.975	46.08
350.187	101.37
350.399	64.51
350.61	168.96
350.822	58.37
351.034	128
351.246	99.33
351.458	70.65
351.669	25.6
351.881	89.09
352.093	21.5
352.305	113.66
352.517	80.89
352.728	93.18
352.94	105.47
353.152	17.41
353.363	54.27
353.575	91.13
353.787	175.1
353.999	105.47
354.21	95.23
354.422	54.27
354.633	15.36
354.845	78.85
355.057	44.03
355.268	68.61
355.48	58.37
355.692	72.7
355.903	128
356.115	60.42
356.326	52.22
356.538	138.24
356.749	37.89
356.961	146.43
357.172	70.65
357.384	87.04
357.595	68.61
357.807	101.37
358.018	60.42
358.23	78.85
358.441	87.04
358.653	58.37
358.864	33.79
359.075	80.89
359.287	70.65
359.498	105.47
359.709	7.17
359.921	58.37
360.132	66.56
360.344	105.47
360.555	62.46
360.766	-1.02
360.977	-33.79
361.189	119.81
361.4	33.79
361.611	52.22
361.823	64.51
362.034	99.33
362.245	70.65
362.456	117.76
362.667	80.89
362.879	56.32
363.09	97.28
363.301	60.42
363.512	78.85
363.723	68.61
363.935	64.51
364.146	142.33
364.357	76.8
364.568	48.13
364.779	41.98
364.99	97.28
365.201	84.99
365.412	123.9
365.623	70.65
365.834	66.56
366.045	-7.17
366.256	97.28
366.467	58.37
366.678	9.22
366.889	115.71
367.1	37.89
367.311	62.46
367.522	156.67
367.733	52.22
367.944	72.7
368.155	123.9
368.366	121.85
368.577	74.75
368.788	107.52
368.999	15.36
369.209	74.75
369.42	109.57
369.631	76.8
369.842	101.37
370.053	84.99
370.264	70.65
370.474	109.57
370.685	91.13
370.896	84.99
371.107	93.18
371.317	52.22
371.528	58.37
371.739	91.13
371.95	99.33
372.16	11.26
372.371	13.31
372.582	97.28
372.792	82.94
373.003	89.09
373.214	80.89
373.424	64.51
373.635	72.7
373.846	58.37
374.056	95.23
374.267	84.99
374.477	93.18
374.688	76.8
374.898	74.75
375.109	93.18
375.319	132.09
375.53	74.75
375.74	160.77
375.951	76.8
376.161	64.51
376.372	97.28
376.582	136.19
376.793	62.46
377.003	64.51
377.214	-15.36
377.424	93.18
377.635	113.66
377.845	58.37
378.055	150.53
378.266	19.46
378.476	23.55
378.686	60.42
378.897	91.13
379.107	52.22
379.317	148.48
379.528	72.7
379.738	105.47
379.948	13.31
380.158	27.65
380.369	58.37
380.579	39.94
380.789	130.05
380.999	58.37
381.21	76.8
381.42	56.32
381.63	93.18
381.84	105.47
382.05	105.47
382.261	136.19
382.471	89.09
382.681	91.13
382.891	62.46
383.101	93.18
383.311	132.09
383.521	76.8
383.731	64.51
383.941	121.85
384.151	44.03
384.361	152.57
384.571	58.37
384.781	166.91
384.991	84.99
385.201	113.66
385.411	70.65
385.621	25.6
385.831	166.91
386.041	187.39
386.251	87.04
386.461	29.7
386.671	97.28
386.881	19.46
387.091	89.09
387.301	99.33
387.511	89.09
387.72	91.13
387.93	19.46
388.14	211.96
388.35	138.24
388.56	144.38
388.769	29.7
388.979	82.94
389.189	128
389.399	93.18
389.609	29.7
389.818	52.22
390.028	136.19
390.238	136.19
390.447	113.66
390.657	99.33
390.867	99.33
391.076	97.28
391.286	21.5
391.496	121.85
391.705	52.22
391.915	125.95
392.125	117.76
392.334	150.53
392.544	125.95
392.753	105.47
392.963	72.7
393.172	179.2
393.382	68.61
393.591	101.37
393.801	13.31
394.01	60.42
394.22	76.8
394.429	82.94
394.639	56.32
394.848	109.57
395.058	173.05
395.267	66.56
395.477	117.76
395.686	125.95
395.895	162.81
396.105	144.38
396.314	179.2
396.524	97.28
396.733	95.23
396.942	89.09
397.152	95.23
397.361	119.81
397.57	158.72
397.78	173.05
397.989	138.24
398.198	52.22
398.407	201.72
398.617	95.23
398.826	171.01
399.035	138.24
399.244	168.96
399.453	115.71
399.663	156.67
399.872	146.43
400.081	105.47
400.29	150.53
400.499	132.09
400.708	136.19
400.917	113.66
401.127	107.52
401.336	105.47
401.545	138.24
401.754	183.29
401.963	154.62
402.172	148.48
402.381	152.57
402.59	177.15
402.799	150.53
403.008	142.33
403.217	193.53
403.426	168.96
403.635	91.13
403.844	158.72
404.053	277.5
404.262	216.06
404.471	146.43
404.68	181.25
404.888	154.62
405.097	201.72
405.306	222.2
405.515	142.33
405.724	248.83
405.933	220.16
406.142	230.4
406.35	207.87
406.559	238.59
406.768	171.01
406.977	271.36
407.185	297.98
407.394	232.44
407.603	283.64
407.812	252.92
408.02	275.45
408.229	300.03
408.438	230.4
408.646	252.92
408.855	326.65
409.064	326.65
409.272	285.69
409.481	318.46
409.69	396.28
409.898	336.89
410.107	316.41
410.315	386.04
410.524	371.71
410.733	355.32
410.941	322.56
411.15	490.49
411.358	461.82
411.567	478.2
411.775	439.29
411.984	459.77
412.192	474.1
412.401	519.16
412.609	580.6
412.818	658.42
413.026	619.51
413.234	730.1
413.443	599.03
413.651	625.65
413.86	732.15
414.068	693.24
414.276	760.82
414.485	744.44
414.693	744.44
414.901	863.22
415.11	875.51
415.318	781.3
415.526	945.14
415.734	934.9
415.943	850.93
416.151	947.19
416.359	1008.62
416.567	1029.1
416.776	1106.93
416.984	1096.69
417.192	1207.28
417.4	1108.98
417.608	1194.99
417.817	1293.29
418.025	1283.05
418.233	1379.31
418.441	1276.91
418.649	1383.4
418.857	1553.38
419.065	1596.39
419.273	1436.65
419.481	1491.95
419.689	1557.48
419.897	1729.51
420.105	1774.56
420.313	1801.19
420.521	1872.87
420.729	1870.82
420.937	1973.22
421.145	2032.61
421.353	2145.25
421.561	2100.19
421.769	2274.27
421.977	2421.72
422.185	2454.49
422.393	2503.64
422.601	2628.57
422.809	2642.9
423.017	2782.17
423.224	2857.94
423.432	2892.76
423.64	2849.75
423.848	3187.66
424.056	3001.3
424.263	3328.97
424.471	3331.02
424.679	3306.45
424.887	3509.19
425.094	3650.5
425.302	3634.12
425.51	3834.82
425.718	3865.54
425.925	3988.42
426.133	4142.02
426.341	4324.29
426.548	4467.64
426.756	4484.03
426.964	4662.2
427.171	4963.25
427.379	4987.83
427.586	5036.98
427.794	5094.32
428.001	5512.11
428.209	5835.69
428.417	5594.03
428.624	6155.17
428.832	6054.82
429.039	6110.11
429.247	5936.04
429.454	6644.63
429.662	6851.48
429.869	6532
430.076	6947.73
430.284	6914.97
430.491	7013.27
430.699	7549.84
430.906	7377.81
431.114	7629.71
431.321	7633.8
431.528	8121.22
431.736	8479.61
431.943	8985.46
432.15	8584.06
432.358	8715.13
432.565	9026.42
432.772	9161.59
432.979	9497.46
433.187	9730.92
433.394	9825.13
433.601	10638.17
433.808	10556.25
434.016	10380.13
434.223	11248.47
434.43	11649.87
434.637	11354.96
434.844	12106.57
435.052	12227.4
435.259	12397.38
435.466	12387.14
435.673	11795.28
435.88	13038.39
436.087	13591.34
436.294	13359.92
436.501	13237.05
436.708	13488.95
436.915	14181.16
437.122	14748.45
437.329	14748.45
437.537	15239.96
437.743	15420.18
437.95	15282.97
438.157	15827.73
438.364	16495.36
438.571	16737.02
438.778	16583.43
438.985	18162.41
439.192	17603.32
439.399	17953.52
439.606	17885.94
439.813	18670.31
440.02	19700.44
440.227	19301.08
440.433	19127
440.64	19870.42
440.847	19743.44
441.054	20198.09
441.261	21451.45
441.467	20998.85
441.674	21570.23
441.881	22348.46
442.088	22403.75
442.294	22141.61
442.501	22837.92
442.708	23372.44
442.914	24273.55
443.121	25492.09
443.328	24470.15
443.534	26548.84
443.741	25193.09
443.948	24930.95
444.154	26989.16
444.361	26681.96
444.568	27044.45
444.774	26935.91
444.981	27404.89
445.187	28117.59
445.394	29160
445.6	28822.09
445.807	31588.89
446.013	30022.2
446.22	30659.12
446.426	31773.21
446.633	32410.13
446.839	33032.71
447.046	31980.06
447.252	33772.03
447.459	33659.39
447.665	33409.54
447.871	34972.14
448.078	36360.66
448.284	34738.67
448.491	35322.34
448.697	36946.38
448.903	37728.7
449.11	37618.11
449.316	36743.63
449.522	37341.64
449.728	38517.17
449.935	38769.07
450.141	38791.6
450.347	39952.8
450.553	38470.07
450.76	38963.63
450.966	39971.23
451.172	39934.37
451.378	40632.72
451.584	39678.37
451.791	41019.79
451.997	40917.39
452.203	41298.31
452.409	41034.13
452.615	41232.78
452.821	39653.79
453.027	39242.15
453.233	40901.01
453.44	39362.98
453.646	40446.36
453.852	40098.2
454.058	40604.05
454.264	39131.56
454.47	40247.71
454.676	39164.33
454.882	40763.79
455.088	36919.76
455.294	37472.71
455.5	37847.49
455.705	38293.94
455.911	36956.62
456.117	36213.21
456.323	35545.57
456.529	33481.22
456.735	35377.64
456.941	34535.92
457.147	33772.03
457.352	32711.18
457.558	32350.74
457.764	32391.7
457.97	31951.38
458.176	31238.69
458.381	30851.63
458.587	29315.65
458.793	29325.89
458.999	28068.44
459.204	29909.56
459.41	29231.68
459.616	27380.32
459.821	27365.98
460.027	27245.15
460.233	26784.36
460.438	25051.78
460.644	25793.14
460.85	24171.15
461.055	24087.18
461.261	23980.69
461.466	22282.92
461.672	21578.42
461.878	22907.55
462.083	21498.55
462.289	21177.02
462.494	20966.08
462.7	20038.35
462.905	19536.6
463.111	20042.45
463.316	20323.02
463.522	20112.08
463.727	19847.89
463.932	19948.24
464.138	19528.41
464.343	19706.58
464.549	18934.5
464.754	19872.46
464.959	19555.03
465.165	19372.76
465.37	18651.88
465.575	18279.15
465.781	19139.29
465.986	18942.69
466.191	18541.29
466.397	18166.51
466.602	17326.84
466.807	17550.07
467.012	18021.1
467.218	17742.58
467.423	17490.68
467.628	17560.31
467.833	18365.16
468.038	17677.04
468.244	17222.39
468.449	17875.7
468.654	17046.27
468.859	17134.33
469.064	17003.26
469.269	16423.69
469.474	16298.76
469.679	16722.69
469.885	16110.35
470.09	16446.21
470.295	16182.03
470.5	16057.1
470.705	16169.74
470.91	15942.41
471.115	15676.18
471.32	15543.06
471.525	15682.32
471.73	15196.95
471.935	15352.6
472.139	14717.73
472.344	14926.62
472.549	14631.71
472.754	14752.54
472.959	14134.06
473.164	13896.49
473.369	13859.63
473.574	14175.02
473.778	14310.18
473.983	14179.11
474.188	13974.31
474.393	13329.2
474.598	13615.92
474.802	13296.44
475.007	13343.54
475.212	13468.47
475.417	12911.42
475.621	12663.61
475.826	12938.04
476.031	12780.35
476.235	12342.08
476.44	12608.32
476.645	12155.72
476.849	12290.88
477.054	12069.7
477.259	11944.78
477.463	11795.28
477.668	11664.21
477.872	11840.33
478.077	11432.79
478.282	11486.03
478.486	11375.44
478.691	11266.9
478.895	11023.19
479.1	11197.27
479.304	11246.42
479.509	10644.32
479.713	10783.58
479.918	10736.48
480.122	10531.68
480.326	10804.06
480.531	10679.13
480.735	10539.87
480.94	10435.42
481.144	10849.11
481.348	10204
481.553	10562.4
481.757	10148.71
481.961	10437.47
482.166	10507.1
482.37	10292.07
482.574	9968.49
482.778	9997.16
482.983	10515.3
483.187	10234.72
483.391	10290.02
483.595	10117.99
483.8	9991.02
484.004	10234.72
484.208	10330.98
484.412	10234.72
484.616	10482.53
484.821	10550.11
485.025	10044.26
485.229	10181.48
485.433	10023.78
485.637	10224.48
485.841	9984.87
486.045	9997.16
486.249	10150.76
486.453	9976.68
486.657	10081.13
486.861	10330.98
487.065	10087.27
487.269	9982.82
487.473	9864.04
487.677	10115.94
487.881	10072.93
488.085	10161
488.289	10163.04
488.493	10107.75
488.697	10423.14
488.901	10263.4
489.105	10277.73
489.309	10105.7
489.512	10335.07
489.716	10191.72
489.92	10167.14
490.124	10484.58
490.328	10603.36
490.531	10402.66
490.735	10584.93
490.939	10371.94
491.143	10300.26
491.346	10378.08
491.55	10632.03
491.754	10664.8
491.958	10689.37
492.161	10660.7
492.365	10804.06
492.569	10523.49
492.772	10595.17
492.976	10965.85
493.18	10683.23
493.383	10707.8
493.587	10963.8
493.79	10931.03
493.994	10976.09
494.197	11072.34
494.401	11311.96
494.605	11244.37
494.808	11606.86
495.012	11479.89
495.215	11318.1
495.419	11426.64
495.622	11479.89
495.825	11627.34
496.029	11889.48
496.232	12088.14
496.436	12028.74
496.639	12254.02
496.843	12182.34
497.046	12221.25
497.249	12180.29
497.453	12475.2
497.656	12911.42
497.859	12706.62
498.063	12892.99
498.266	13003.58
498.469	13097.78
498.673	13187.89
498.876	13523.76
499.079	13505.33
499.282	13591.34
499.485	13826.86
499.689	14023.47
499.892	13757.23
500.095	13978.41
500.298	14332.71
500.501	14136.1
500.705	14644
500.908	14859.04
501.111	15104.79
501.314	15244.06
501.517	15192.86
501.72	15543.06
501.923	15211.29
502.126	15876.88
502.329	16007.95
502.532	15721.23
502.735	16136.97
502.938	16374.53
503.141	16390.92
503.344	16677.63
503.547	16909.05
503.75	16835.33
503.953	17289.98
504.156	17363.7
504.359	17539.83
504.562	17875.7
504.765	18074.35
504.968	18039.53
505.17	18535.14
505.373	18436.84
505.576	18547.43
505.779	18754.27
505.982	19069.66
506.185	19657.43
506.387	19383
506.59	19600.08
506.793	20036.3
506.996	19733.2
507.198	20531.91
507.401	20140.75
507.604	20701.89
507.807	20957.89
508.009	20933.31
508.212	21088.96
508.415	21363.39
508.617	21531.32
508.82	21881.52
509.022	21902
509.225	22358.7
509.428	22360.75
509.63	22772.39
509.833	22850.21
510.035	23313.05
510.238	23069.34
510.44	23374.49
510.643	24076.94
510.845	23837.33
511.048	24083.09
511.25	24324.75
511.453	24308.37
511.655	25119.36
511.858	25213.57
512.06	25156.22
512.262	25270.91
512.465	25467.52
512.667	25664.12
512.87	26139.25
513.072	26362.48
513.274	26706.54
513.477	27050.6
513.679	26862.18
513.881	27267.68
514.084	27724.38
514.286	27736.66
514.488	27961.94
514.69	28496.46
514.893	28779.08
515.095	28602.96
515.297	29004.36
515.499	28994.12
515.701	29596.22
515.904	29825.59
516.106	30220.85
516.308	30280.24
516.51	30566.96
516.712	30636.59
516.914	30388.78
517.116	31441.44
517.318	31822.36
517.52	31478.3
517.722	31732.25
517.925	32143.89
518.127	32514.58
518.329	32789
518.531	32770.57
518.733	33128.97
518.935	33415.68
519.136	33655.29
519.338	33880.57
519.54	34148.85
519.742	34390.52
519.944	34396.66
520.146	35060.2
520.348	34968.04
520.55	35551.71
520.752	35330.53
520.954	36157.91
521.155	35865.05
521.357	36514.26
521.559	36458.96
521.761	37245.38
521.963	36700.62
522.164	37226.95
522.366	37439.94
522.568	37536.2
522.77	37908.93
522.971	38398.39
523.173	38179.26
523.375	38429.11
523.576	38400.44
523.778	38588.85
523.98	39260.58
524.181	39168.43
524.383	39403.94
524.584	39485.86
524.786	39692.71
524.988	39438.76
525.189	40182.17
525.391	40864.14
525.592	40583.57
525.794	41036.17
525.995	40573.33
526.197	40987.02
526.398	40690.07
526.6	40901.01
526.801	41388.42
527.003	41439.62
527.204	41476.49
527.406	41906.56
527.607	41783.68
527.808	42252.67
528.01	41605.51
528.211	41861.51
528.412	42795.38
528.614	42711.41
528.815	42711.41
529.016	43182.45
529.218	42475.9
529.419	43049.33
529.62	43069.81
529.822	42801.52
530.023	42936.69
530.224	43194.73
530.425	43389.29
530.626	43307.37
530.828	42926.45
531.029	43432.3
531.23	43184.49
531.431	43422.06
531.632	43407.72
531.833	43589.99
532.035	43635.05
532.236	43676.01
532.437	43540.84
532.638	43542.89
532.839	43921.76
533.04	44079.46
533.241	43872.61
533.442	44753.24
533.643	43676.01
533.844	43655.53
534.045	44126.56
534.246	43696.49
534.447	44335.45
534.648	43778.4
534.849	44040.54
535.05	43762.02
535.251	43954.53
535.451	43762.02
535.652	43854.18
535.853	43901.28
536.054	44286.3
536.255	44233.05
536.456	43835.75
536.657	44609.88
536.857	43827.56
537.058	43835.75
537.259	44419.42
537.46	44380.51
537.66	43932
537.861	43843.94
538.062	43700.58
538.263	44181.85
538.463	43737.44
538.664	43549.03
538.865	43975.01
539.065	44396.89
539.266	43788.64
539.466	44417.37
539.667	43815.27
539.868	44413.27
540.068	43936.1
540.269	43794.79
540.469	43907.43
540.67	43979.1
540.87	43868.51
541.071	43598.18
541.271	44026.21
541.472	43786.6
541.672	43653.48
541.873	43819.36
542.073	42897.78
542.274	44034.4
542.474	43518.31
542.675	43297.13
542.875	43800.93
543.075	43942.24
543.276	43215.21
543.476	44130.65
543.676	43534.7
543.877	43700.58
544.077	43626.85
544.277	43546.98
544.478	43405.67
544.678	43737.44
544.878	43651.43
545.078	43372.91
545.279	43465.06
545.479	43444.59
545.679	43837.8
545.879	43651.43
546.079	43450.73
546.28	43352.43
546.48	43377
546.68	43237.74
546.88	43845.99
547.08	43688.29
547.28	43567.46
547.48	43366.76
547.68	43016.56
547.88	43663.72
548.081	43553.13
548.281	43157.87
548.481	43219.31
548.681	43745.64
548.881	43360.62
549.081	42656.12
549.28	42684.79
549.48	43651.43
549.68	42908.02
549.88	43581.8
550.08	43012.46
550.28	43555.18
550.48	42881.39
550.68	43784.55
550.88	42969.46
551.08	43190.64
551.279	43196.78
551.479	42742.13
551.679	42828.15
551.879	42774.9
552.079	43301.23
552.278	42760.56
552.478	43024.75
552.678	42959.22
552.878	43274.6
553.077	42922.35
553.277	42852.72
553.477	43145.58
553.676	42586.49
553.876	42905.97
554.076	42369.4
554.275	43002.22
554.475	42414.46
554.674	42942.83
554.874	42496.38
555.074	42400.12
555.273	42492.28
555.473	43061.61
555.672	42242.43
555.872	42316.15
556.071	42760.56
556.271	42410.36
556.47	42277.24
556.67	41984.38
556.869	42246.52
557.068	42121.6
557.268	42099.07
557.467	42353.02
557.667	41648.52
557.866	41746.82
558.065	41865.6
558.265	41630.08
558.464	41341.32
558.663	41849.22
558.863	41935.23
559.062	42213.76
559.261	41560.45
559.461	41795.97
559.66	40921.49
559.859	41345.42
560.058	40898.96
560.258	41183.63
560.457	40640.92
560.656	41341.32
560.855	41005.45
561.054	41066.89
561.253	40798.61
561.453	41267.59
561.652	41046.41
561.851	40800.66
562.05	40448.41
562.249	40563.09
562.448	40771.99
562.647	40941.97
562.846	40745.36
563.045	40532.37
563.244	40071.58
563.443	40663.44
563.642	40026.53
563.841	40452.5
564.04	40040.86
564.239	40376.73
564.438	39621.03
564.637	40173.98
564.836	40079.77
565.035	39258.54
565.234	40112.54
565.432	39377.32
565.631	39551.4
565.83	39580.07
566.029	39356.84
566.228	39379.37
566.427	39455.14
566.625	39070.12
566.824	38486.45
567.023	39184.81
567.222	38281.66
567.42	38875.57
567.619	38425.01
567.818	39125.42
568.016	38412.73
568.215	38590.9
568.414	38203.83
568.612	39147.95
568.811	38097.34
569.01	38013.37
569.208	37800.38
569.407	38285.75
569.605	37644.74
569.804	38074.81
570.002	37661.12
570.201	37691.84
570.4	37554.63
570.598	37394.89
570.797	37485
570.995	37571.01
571.193	36876.75
571.392	37775.81
571.59	36942.28
571.789	37069.26
571.987	36999.63
572.186	36692.43
572.384	36712.91
572.582	36872.65
572.781	36792.78
572.979	35932.64
573.177	36436.44
573.376	36401.62
573.574	36153.82
573.772	36272.6
573.971	36139.48
574.169	35758.56
574.367	35508.71
574.565	36254.17
574.763	35846.62
574.962	35693.02
575.16	35353.06
575.358	35672.54
575.556	34767.34
575.754	35809.76
575.952	35127.78
576.151	35379.68
576.349	35017.19
576.547	34968.04
576.745	34992.62
576.943	34800.11
577.141	34890.22
577.339	34693.61
577.537	34576.88
577.735	34537.97
577.933	34148.85
578.131	34634.22
578.329	34236.92
578.527	33980.92
578.725	34198.01
578.923	34402.8
579.121	33989.11
579.319	34128.38
579.516	33841.66
579.714	33538.56
579.912	33649.15
580.11	33776.12
580.308	33620.48
580.506	33618.43
580.704	32797.2
580.901	33368.58
581.099	33624.57
581.297	33227.27
581.495	32852.49
581.692	33053.19
581.89	32711.18
582.088	32850.44
582.285	32657.93
582.483	32731.66
582.681	32150.04
582.878	32391.7
583.076	32250.39
583.274	32608.78
583.471	32180.76
583.669	32315.92
583.866	31867.42
584.064	32174.61
584.262	31836.7
584.459	32039.45
584.657	31412.77
584.854	31953.43
585.052	31406.62
585.249	31935
585.447	31355.43
585.644	31279.65
585.841	31533.6
586.039	31336.99
586.236	30853.67
586.434	30966.31
586.631	30865.96
586.828	30904.87
587.026	30954.02
587.223	30968.36
587.42	30581.29
587.618	30745.13
587.815	30255.67
588.012	30085.68
588.21	30288.43
588.407	30659.12
588.604	30153.27
588.801	29893.18
588.999	29882.94
589.196	29989.43
589.393	29901.37
589.59	29927.99
589.787	29420.1
589.984	29559.36
590.182	29002.31
590.379	29323.84
590.576	28983.88
590.773	29225.54
590.97	28744.27
591.167	29315.65
591.364	28830.28
591.561	28947.01
591.758	28324.43
591.955	28734.03
592.152	28590.67
592.349	28611.15
592.546	28535.37
592.743	28412.49
592.94	27814.49
593.137	28572.24
593.334	28138.07
593.531	27869.78
593.727	28035.67
593.924	27818.58
594.121	27658.84
594.318	27929.17
594.515	27830.87
594.712	27853.4
594.908	27441.76
595.105	27525.72
595.302	27345.5
595.499	27275.87
595.696	27439.71
595.892	26767.98
596.089	27107.94
596.286	26954.34
596.482	26638.95
596.679	26976.87
596.876	27026.02
597.072	26929.77
597.269	26761.83
597.466	26339.95
597.662	26192.5
597.859	26481.26
598.055	26538.6
598.252	26286.7
598.448	26051.19
598.645	25963.12
598.841	25354.88
599.038	25903.73
599.234	25787
599.431	25449.08
599.627	25377.4
599.824	25764.47
600.02	25449.08
600.217	25162.37
600.413	25209.47
600.609	25254.53
600.806	25256.57
601.002	25414.27
601.198	25062.02
601.395	24904.32
601.591	25086.59
601.787	24988.29
601.984	24691.34
602.18	24933
602.376	24752.77
602.572	24439.44
602.769	24367.76
602.965	24306.32
603.161	24482.44
603.357	24167.06
603.553	23986.83
603.75	24146.58
603.946	23681.69
604.142	24185.49
604.338	23724.69
604.534	23818.9
604.73	23446.17
604.926	23612.06
605.122	23800.47
605.318	23648.92
605.514	23435.93
605.71	23124.64
605.906	23315.1
606.102	23397.02
606.298	23173.79
606.494	23155.36
606.69	23169.69
606.886	23413.4
607.082	22809.25
607.278	22782.63
607.474	22418.09
607.67	22729.38
607.866	22575.78
608.062	22899.36
608.257	22729.38
608.453	22911.65
608.649	22880.93
608.845	22305.45
609.041	22428.33
609.236	22581.93
609.432	22151.85
609.628	22413.99
609.824	22260.4
610.019	22084.27
610.215	22190.77
610.411	22151.85
610.606	22246.06
610.802	22254.25
610.998	21867.19
611.193	21881.52
611.389	21908.15
611.584	21834.42
611.78	21848.75
611.976	21983.92
612.171	21953.2
612.367	21738.16
612.562	21605.05
612.758	21484.22
612.953	21357.24
613.149	21326.52
613.344	21285.56
613.539	21678.77
613.735	21222.08
613.93	21258.94
614.126	21246.65
614.321	21555.9
614.517	21351.1
614.712	21263.04
614.907	21168.83
615.103	21260.99
615.298	21310.14
615.493	21080.77
615.688	20716.23
615.884	21215.93
616.079	20675.27
616.274	21004.99
616.47	20759.24
616.665	20806.34
616.86	20775.62
617.055	20634.31
617.25	20517.57
617.445	20695.75
617.641	20482.76
617.836	20681.41
618.031	20292.3
618.226	20325.07
618.421	20478.66
618.616	20550.34
618.811	20271.82
619.006	20449.99
619.201	19671.76
619.396	20241.1
619.591	19442.39
619.786	19901.14
619.981	19507.93
620.176	19706.58
620.371	19489.49
620.566	19720.92
620.761	19206.87
620.956	19423.96
621.151	19202.78
621.346	19544.79
621.541	18924.26
621.735	19532.5
621.93	18655.97
622.125	18733.79
622.32	18436.84
622.515	18840.29
622.709	18535.14
622.904	18592.48
623.099	18434.79
623.294	18576.1
623.488	18348.78
623.683	18094.83
623.878	17926.89
624.072	17924.85
624.267	17875.7
624.462	17801.97
624.656	17797.87
624.851	17685.23
625.046	17627.89
625.24	17582.84
625.435	17148.67
625.629	17343.22
625.824	16751.36
626.018	17023.74
626.213	16734.98
626.407	16913.15
626.602	16720.64
626.796	16820.99
626.991	16655.11
627.185	16503.56
627.38	16409.35
627.574	16421.64
627.768	16100.11
627.963	16067.34
628.157	16001.8
628.352	16024.33
628.546	15645.46
628.74	15975.18
628.935	15608.59
629.129	15672.08
629.323	15428.37
629.517	15336.21
629.712	15371.03
629.906	15360.79
630.1	15016.73
630.294	15418.13
630.489	14918.43
630.683	15231.77
630.877	15018.78
631.071	14859.04
631.265	14801.69
631.459	14629.66
631.653	14750.49
631.848	14388
632.042	14390.05
632.236	14205.74
632.43	14242.6
632.624	14207.78
632.818	14099.24
633.012	13808.43
633.206	13996.84
633.4	14146.34
633.594	13785.9
633.788	13972.27
633.982	13800.24
634.176	13783.85
634.369	13538.1
634.563	13601.58
634.757	13611.82
634.951	13511.47
635.145	13523.76
635.339	13288.25
635.533	13335.35
635.726	13247.29
635.92	13060.92
636.114	13062.97
636.308	12772.16
636.501	12970.81
636.695	12798.78
636.889	12780.35
637.083	12645.18
637.276	12591.94
637.47	12538.69
637.664	12276.55
637.857	12606.27
638.051	12442.43
638.244	12225.35
638.438	11981.64
638.632	12178.25
638.825	11940.68
639.019	11977.55
639.212	11869
639.406	11854.67
639.599	11905.87
639.793	11846.48
639.986	11572.05
640.18	11588.43
640.373	11574.1
640.567	11404.11
640.76	11598.67
640.954	11653.97
641.147	11430.74
641.34	11342.67
641.534	11219.8
641.727	11215.7
641.92	11221.84
642.114	11055.96
642.307	11174.74
642.5	11078.49
642.694	10666.85
642.887	10865.5
643.08	10908.51
643.273	10687.32
643.467	10711.9
643.66	10595.17
643.853	10668.89
644.046	10308.45
644.239	10423.14
644.432	10378.08
644.626	10318.69
644.819	10206.05
645.012	10492.77
645.205	10183.52
645.398	10308.45
645.591	10062.69
645.784	10177.38
645.977	10228.58
646.17	9948.01
646.363	9902.95
646.556	9831.27
646.749	9726.83
646.942	9939.82
647.135	9638.76
647.328	9446.26
647.521	9622.38
647.714	9370.48
647.907	9497.46
648.099	9583.47
648.292	9354.1
648.485	9177.97
648.678	9354.1
648.871	9040.76
649.064	9210.74
649.256	9149.3
649.449	9182.07
649.642	9018.23
649.835	8956.79
650.027	9059.19
650.22	8915.83
650.413	8782.71
650.605	8801.15
650.798	8614.78
650.991	8772.47
651.183	8676.22
651.376	8696.7
651.568	8573.82
651.761	8412.03
651.954	8311.68
652.146	8506.24
652.339	8360.83
652.531	8309.63
652.724	8268.67
652.916	8203.14
653.109	8240
653.301	8403.84
653.494	8205.19
653.686	8006.53
653.879	7910.28
654.071	8063.88
654.263	7961.48
654.456	8045.45
654.648	7859.08
654.84	7912.33
655.033	7697.29
655.225	7615.37
655.417	7832.46
655.61	7705.48
655.802	7715.72
655.994	7682.95
656.186	7615.37
656.379	7576.46
656.571	7551.88
656.763	7506.83
656.955	7431.05
657.148	7320.46
657.34	7203.73
657.532	7148.43
657.724	7211.92
657.916	7134.1
658.108	7371.66
658.3	7093.14
658.492	7009.17
658.684	7150.48
658.876	7123.86
659.068	7154.58
659.26	6886.29
659.452	6962.07
659.644	6974.36
659.836	6824.86
660.028	6806.42
660.22	6734.75
660.412	6855.58
660.604	6560.67
660.796	6581.15
660.988	6632.35
661.18	6482.85
661.372	6572.96
661.563	6529.95
661.755	6310.82
661.947	6454.17
662.139	6411.17
662.331	6575
662.522	6351.78
662.714	6230.94
662.906	6413.21
663.097	6198.18
663.289	6067.11
663.481	6204.32
663.673	6384.54
663.864	6187.94
664.056	6212.51
664.247	5886.89
664.439	6056.87
664.631	6140.83
664.822	5944.23
665.014	6159.27
665.205	5866.41
665.397	5784.49
665.588	6034.34
665.78	5856.17
665.971	5909.41
666.163	5950.37
666.354	5725.1
666.546	5688.23
666.737	5675.95
666.929	5757.86
667.12	5747.62
667.311	5581.74
667.503	5489.58
667.694	5604.27
667.885	5555.12
668.077	5520.3
668.268	5542.83
668.459	5540.78
668.651	5323.69
668.842	5393.33
669.033	5352.37
669.224	5284.78
669.416	5331.89
669.607	5297.07
669.798	5174.19
669.989	5364.65
670.18	5364.65
670.371	5190.58
670.563	5147.57
670.754	5041.08
670.945	5098.42
671.136	5268.4
671.327	5202.86
671.518	5036.98
671.709	5133.23
671.9	4979.64
672.091	4977.59
672.282	4963.25
672.473	4903.86
672.664	5020.6
672.855	4961.2
673.046	4887.48
673.237	4905.91
673.428	4834.23
673.619	4830.13
673.809	4832.18
674	4830.13
674.191	4729.78
674.382	4690.87
674.573	4791.22
674.764	4791.22
674.954	4776.89
675.145	4557.75
675.336	4699.06
675.527	4586.43
675.717	4500.41
675.908	4492.22
676.099	4629.43
676.289	4551.61
676.48	4432.83
676.671	4447.16
676.861	4520.89
677.052	4451.26
677.243	4398.01
677.433	4408.25
677.624	4420.54
677.814	4510.65
678.005	4361.15
678.195	4410.3
678.386	4502.46
678.576	4350.91
678.767	4436.92
678.957	4201.41
679.148	4348.86
679.338	4207.55
679.529	4371.39
679.719	4131.78
679.909	4266.94
680.1	4221.89
680.29	4324.29
680.481	4113.35
680.671	4260.8
680.861	4215.74
681.052	4117.44
681.242	4092.87
681.432	4283.33
681.622	4146.11
681.813	4172.74
682.003	3978.18
682.193	4191.17
682.383	4094.91
682.573	4137.92
682.764	4047.81
682.954	3976.13
683.144	4078.53
683.334	3947.46
683.524	4031.43
683.714	3924.93
683.904	3898.31
684.094	4099.01
684.284	3873.73
684.474	4094.91
684.664	3949.51
684.854	3929.03
685.044	3972.04
685.234	3957.7
685.424	3894.21
685.614	3650.5
685.804	3834.82
685.994	3793.86
686.184	3949.51
686.374	3824.58
686.564	3666.89
686.753	3677.13
686.943	3716.04
687.133	3640.26
687.323	3689.42
687.513	3728.33
687.702	3652.55
687.892	3668.94
688.082	3599.31
688.272	3537.87
688.461	3636.17
688.651	3660.74
688.841	3607.5
689.03	3718.09
689.22	3580.87
689.41	3439.56
689.599	3492.81
689.789	3447.76
689.979	3533.77
690.168	3546.06
690.358	3322.83
690.547	3501
690.737	3458
690.926	3339.21
691.116	3355.6
691.305	3347.4
691.495	3290.06
691.684	3337.17
691.874	3376.08
692.063	3218.38
692.252	3294.16
692.442	3224.53
692.631	3212.24
692.82	3169.23
693.01	3230.67
693.199	3179.47
693.388	3257.29
693.578	3222.48
693.767	3202
693.956	3316.69
694.146	3093.46
694.335	3064.79
694.524	3101.65
694.713	3144.66
694.902	3077.07
695.092	3066.83
695.281	3138.51
695.47	3122.13
695.659	2982.87
695.848	3044.31
696.037	3136.46
696.226	2989.01
696.415	2941.91
696.604	3015.63
696.793	3054.55
696.982	2952.15
697.171	2905.04
697.36	3068.88
697.549	2980.82
697.738	2857.94
697.927	2831.32
698.116	2800.6
698.305	2939.86
698.494	3001.3
698.683	2948.05
698.872	2829.27
699.061	2821.08
699.25	2984.91
699.438	2984.91
699.627	2864.08
699.816	2962.39
700.005	2962.39
700.193	2859.99
700.382	2872.28
700.571	2733.01
700.76	2882.52
700.948	2991.06
701.137	2757.59
701.326	2825.17
701.514	2778.07
701.703	2847.7
701.892	2773.97
702.08	2831.32
702.269	2833.36
702.457	2819.03
702.646	2810.84
702.834	2794.45
703.023	2677.72
703.212	2706.39
703.4	2749.4
703.589	2644.95
703.777	2814.93
703.965	2706.39
704.154	2751.45
704.342	2821.08
704.531	2837.46
704.719	2685.91
704.907	2739.16
705.096	2690.01
705.284	2829.27
705.472	2739.16
705.661	2849.75
705.849	2720.73
706.037	2724.82
706.226	2665.43
706.414	2759.64
706.602	2634.71
706.79	2761.69
706.979	2763.73
707.167	2681.82
707.355	2673.62
707.543	2677.72
707.731	2685.91
707.919	2483.16
708.107	2679.77
708.296	2571.22
708.484	2659.29
708.672	2765.78
708.86	2771.93
709.048	2675.67
709.236	2524.12
709.424	2685.91
709.612	2663.38
709.8	2513.88
709.988	2663.38
710.176	2722.77
710.364	2673.62
710.551	2583.51
710.739	2585.56
710.927	2560.98
711.115	2800.6
711.303	2690.01
711.491	2563.03
711.679	2626.52
711.866	2542.55
712.054	2556.89
712.242	2608.09
712.43	2618.33
712.617	2603.99
712.805	2644.95
712.993	2599.9
713.181	2495.45
713.368	2632.66
713.556	2517.98
713.744	2431.96
713.931	2595.8
714.119	2520.03
714.306	2618.33
714.494	2585.56
714.682	2599.9
714.869	2520.03
715.057	2616.28
715.244	2544.6
715.432	2603.99
715.619	2632.66
715.807	2618.33
715.994	2493.4
716.182	2567.13
716.369	2554.84
716.556	2612.18
716.744	2489.31
716.931	2595.8
717.119	2575.32
717.306	2452.44
717.493	2565.08
717.681	2634.71
717.868	2583.51
718.055	2579.42
718.242	2585.56
718.43	2505.69
718.617	2571.22
718.804	2442.2
718.991	2517.98
719.179	2612.18
719.366	2470.87
719.553	2597.85
719.74	2458.59
719.927	2530.27
720.114	2391
720.301	2493.4
720.488	2421.72
720.676	2499.55
720.863	2444.25
721.05	2446.3
721.237	2421.72
721.424	2442.2
721.611	2544.6
721.798	2339.8
721.985	2474.97
722.172	2501.59
722.358	2524.12
722.545	2522.07
722.732	2341.85
722.919	2436.06
723.106	2407.39
723.293	2382.81
723.48	2438.11
723.667	2587.61
723.853	2343.9
724.04	2425.82
724.227	2477.02
724.414	2409.44
724.6	2407.39
724.787	2440.15
724.974	2415.58
725.161	2474.97
725.347	2391
725.534	2419.68
725.72	2425.82
725.907	2448.35
726.094	2425.82
726.28	2413.53
726.467	2503.64
726.653	2382.81
726.84	2448.35
727.027	2481.11
727.213	2395.1
727.4	2413.53
727.586	2411.48
727.773	2427.87
727.959	2444.25
728.145	2556.89
728.332	2462.68
728.518	2542.55
728.705	2487.26
728.891	2370.52
729.077	2350.04
729.264	2294.75
729.45	2319.32
729.636	2352.09
729.823	2255.84
730.009	2468.83
730.195	2464.73
730.382	2515.93
730.568	2395.1
730.754	2354.14
730.94	2374.62
731.126	2395.1
731.313	2388.96
731.499	2307.04
731.685	2380.76
731.871	2382.81
732.057	2358.24
732.243	2417.63
732.429	2448.35
732.615	2356.19
732.801	2337.76
732.987	2407.39
733.173	2378.72
733.359	2485.21
733.545	2241.5
733.731	2343.9
733.917	2499.55
734.103	2364.38
734.289	2350.04
734.475	2421.72
734.661	2436.06
734.847	2356.19
735.033	2407.39
735.219	2251.74
735.404	2345.95
735.59	2204.64
735.776	2335.71
735.962	2317.28
736.148	2405.34
736.333	2339.8
736.519	2282.46
736.705	2296.8
736.89	2382.81
737.076	2343.9
737.262	2302.94
737.447	2178.01
737.633	2405.34
737.819	2298.84
738.004	2309.08
738.19	2309.08
738.375	2288.61
738.561	2350.04
738.747	2202.59
738.932	2272.22
739.118	2298.84
739.303	2212.83
739.489	2288.61
739.674	2251.74
739.859	2173.92
740.045	2296.8
740.23	2233.31
740.416	2106.34
740.601	2081.76
740.786	2251.74
740.972	2198.49
741.157	2120.67
741.342	2139.1
741.528	2249.69
741.713	2188.25
741.898	2149.34
742.084	2186.21
742.269	2178.01
742.454	1987.55
742.639	2102.24
742.824	2038.75
743.01	2116.58
743.195	2098.14
743.38	2116.58
743.565	2020.32
743.75	2257.89
743.935	1999.84
744.12	2190.3
744.305	2112.48
744.49	2044.9
744.675	2067.42
744.86	2104.29
745.045	1975.27
745.23	2055.14
745.415	1924.07
745.6	2048.99
745.785	1811.43
745.97	1930.21
746.155	1958.88
746.34	2092
746.525	2026.47
746.71	1987.55
746.895	1809.38
747.079	1948.64
747.264	1852.39
747.449	2030.56
747.634	1754.09
747.819	1840.1
748.003	1840.1
748.188	1917.92
748.373	1717.22
748.557	1913.83
748.742	1817.57
748.927	1895.4
749.111	1741.8
749.296	1782.76
749.481	1721.32
749.665	1776.61
749.85	1760.23
750.034	1780.71
750.219	1760.23
750.404	1735.65
750.588	1674.21
750.773	1719.27
750.957	1672.17
751.141	1702.89
751.326	1729.51
751.51	1647.59
751.695	1713.13
751.879	1631.21
752.064	1625.06
752.248	1594.34
752.432	1668.07
752.617	1549.29
752.801	1518.57
752.985	1520.62
753.17	1551.34
753.354	1633.26
753.538	1569.77
753.722	1508.33
753.907	1534.95
754.091	1473.51
754.275	1582.06
754.459	1575.91
754.643	1487.85
754.828	1498.09
755.012	1446.89
755.196	1389.55
755.38	1498.09
755.564	1430.51
755.748	1371.12
755.932	1526.76
756.116	1432.55
756.3	1416.17
756.484	1432.55
756.668	1418.22
756.852	1397.74
757.036	1395.69
757.22	1297.39
757.404	1291.24
757.588	1395.69
757.772	1383.4
757.956	1393.64
758.14	1397.74
758.323	1317.87
758.507	1305.58
758.691	1356.78
758.875	1375.21
759.059	1297.39
759.242	1248.24
759.426	1278.96
759.61	1342.44
759.794	1258.48
759.977	1254.38
760.161	1231.85
760.345	1174.51
760.528	1334.25
760.712	1270.76
760.895	1217.52
761.079	1223.66
761.263	1199.09
761.446	1207.28
761.63	1102.83
761.813	1149.93
761.997	1182.7
762.18	1086.45
762.364	1100.78
762.547	1192.94
762.731	1184.75
762.914	1108.98
763.098	1119.21
763.281	1143.79
763.464	1082.35
763.648	1147.89
763.831	1078.26
764.015	1082.35
764.198	1182.7
764.381	1102.83
764.564	1098.74
764.748	1160.17
764.931	1117.17
765.114	1000.43
765.297	1158.13
765.481	1063.92
765.664	982
765.847	1063.92
766.03	1025.01
766.213	1219.57
766.397	1063.92
766.58	1061.87
766.763	1045.49
766.946	1006.58
767.129	1055.73
767.312	1051.63
767.495	1025.01
767.678	1051.63
767.861	1080.3
768.044	1086.45
768.227	1039.34
768.41	1068.02
768.593	1072.11
768.776	1004.53
768.959	969.71
769.142	984.05
769.324	973.81
769.507	1022.96
769.69	920.56
769.873	938.99
770.056	963.57
770.239	936.95
770.421	1010.67
770.604	1033.2
770.787	947.19
770.97	941.04
771.152	1025.01
771.335	875.51
771.518	840.69
771.7	930.8
771.883	1041.39
772.066	898.03
772.248	996.34
772.431	1004.53
772.613	941.04
772.796	971.76
772.978	996.34
773.161	941.04
773.343	863.22
773.526	785.4
773.708	850.93
773.891	840.69
774.073	754.68
774.256	834.55
774.438	867.31
774.621	797.68
774.803	865.27
774.985	789.49
775.168	787.44
775.35	893.94
775.532	773.11
775.715	781.3
775.897	756.72
776.079	801.78
776.261	764.92
776.444	748.53
776.626	721.91
776.808	715.77
776.99	818.16
777.173	883.7
777.355	748.53
777.537	807.92
777.719	760.82
777.901	676.85
778.083	750.58
778.265	726
778.447	738.29
778.629	642.04
778.811	709.62
778.993	646.13
779.175	728.05
779.357	713.72
779.539	654.33
779.721	656.37
779.903	742.39
780.085	736.24
780.267	642.04
780.449	699.38
780.631	666.61
780.812	670.71
780.994	678.9
781.176	656.37
781.358	617.46
781.54	637.94
781.721	726
781.903	639.99
782.085	605.17
782.267	662.52
782.448	627.7
782.63	592.89
782.812	637.94
782.993	543.74
783.175	553.98
783.357	531.45
783.538	594.93
783.72	599.03
783.901	568.31
784.083	465.91
784.264	558.07
784.446	556.02
784.627	461.82
784.809	590.84
784.99	574.46
785.172	594.93
785.353	513.02
785.535	482.3
785.716	523.26
785.897	547.83
786.079	564.22
786.26	459.77
786.441	494.58
786.623	523.26
786.804	439.29
786.985	517.11
787.167	570.36
787.348	510.97
787.529	441.34
787.71	611.32
787.891	533.5
788.073	381.95
788.254	482.3
788.435	474.1
788.616	441.34
788.797	433.15
788.978	418.81
789.159	408.57
789.34	429.05
789.522	402.43
789.703	490.49
789.884	439.29
790.065	457.72
790.246	449.53
790.427	429.05
790.607	470.01
790.788	465.91
790.969	383.99
791.15	465.91
791.331	396.28
791.512	351.23
791.693	359.42
791.874	410.62
792.054	429.05
792.235	420.86
792.416	371.71
792.597	289.79
792.778	414.71
792.958	445.43
793.139	386.04
793.32	392.19
793.5	340.99
793.681	336.89
793.862	424.95
794.042	439.29
794.223	363.51
794.404	332.79
794.584	392.19
794.765	377.85
794.945	414.71
795.126	412.67
795.306	310.27
795.487	343.03
795.667	371.71
795.848	293.88
796.028	377.85
796.209	302.08
796.389	404.47
796.57	314.36
796.75	361.47
796.93	297.98
797.111	332.79
797.291	271.36
797.471	316.41
797.652	297.98
797.832	291.84
798.012	388.09
798.192	383.99
798.373	218.11
798.553	287.74
798.733	340.99
798.913	316.41
799.093	377.85
799.274	314.36
799.454	228.35
799.634	314.36
799.814	306.17
799.994	297.98
800.174	349.18
800.354	330.75
800.534	252.92
800.714	283.64
800.894	265.21
801.074	285.69
801.254	234.49
801.434	295.93
801.614	291.84
801.794	293.88
801.974	685.05
802.154	279.55
802.334	277.5
802.514	250.88
802.693	310.27
802.873	273.4
803.053	275.45
803.233	275.45
803.413	351.23
803.592	257.02
803.772	271.36
803.952	336.89
804.131	265.21
804.311	232.44
804.491	328.7
804.67	214.01
804.85	216.06
805.03	291.84
805.209	263.16
805.389	248.83
805.568	216.06
805.748	230.4
805.928	275.45
806.107	226.3
806.287	263.16
806.466	240.64
806.646	187.39
806.825	230.4
807.004	211.96
807.184	240.64
807.363	201.72
807.543	160.77
807.722	211.96
807.901	211.96
808.081	230.4
808.26	113.66
808.439	230.4
808.619	248.83
808.798	234.49
808.977	246.78
809.156	232.44
809.336	211.96
809.515	330.75
809.694	191.49
809.873	254.97
810.052	248.83
810.231	254.97
810.411	220.16
810.59	220.16
810.769	160.77
810.948	246.78
811.127	236.54
811.306	134.14
811.485	185.34
811.664	244.73
811.843	201.72
812.022	185.34
812.201	236.54
812.38	232.44
812.559	181.25
812.737	257.02
812.916	257.02
813.095	166.91
813.274	168.96
813.453	142.33
813.632	240.64
813.811	152.57
813.989	146.43
814.168	162.81
814.347	105.47
814.526	162.81
814.704	201.72
814.883	171.01
815.062	162.81
815.24	197.63
815.419	150.53
815.598	187.39
815.776	168.96
815.955	252.92
816.133	187.39
816.312	154.62
816.49	197.63
816.669	218.11
816.847	193.53
817.026	263.16
817.204	97.28
817.383	209.92
817.561	162.81
817.74	158.72
817.918	123.9
818.097	107.52
818.275	97.28
818.453	175.1
818.632	207.87
818.81	199.68
818.988	144.38
819.167	150.53
819.345	162.81
819.523	136.19
819.701	148.48
819.879	197.63
820.058	216.06
820.236	68.61
820.414	62.46
820.592	142.33
820.77	144.38
820.948	179.2
821.127	203.77
821.305	130.05
821.483	130.05
821.661	68.61
821.839	136.19
822.017	107.52
822.195	134.14
822.373	87.04
822.551	164.86
822.729	107.52
822.907	39.94
823.085	162.81
823.262	171.01
823.44	95.23
823.618	109.57
823.796	173.05
823.974	146.43
824.152	119.81
824.329	148.48
824.507	109.57
824.685	156.67
824.863	191.49
825.04	121.85
825.218	201.72
825.396	60.42
825.574	199.68
825.751	177.15
825.929	150.53
826.107	117.76
826.284	80.89
826.462	197.63
826.639	84.99
826.817	121.85
826.994	107.52
827.172	134.14
827.349	201.72
827.527	197.63
827.704	60.42
827.882	138.24
828.059	154.62
828.237	144.38
828.414	91.13
828.591	107.52
828.769	140.29
828.946	60.42
829.124	191.49
829.301	199.68
829.478	156.67
829.655	132.09
829.833	105.47
830.01	37.89
830.187	134.14
830.364	84.99
830.542	138.24
830.719	152.57
830.896	84.99
831.073	199.68
831.25	113.66
831.427	97.28
831.604	111.61
831.782	76.8
831.959	162.81
832.136	154.62
832.313	89.09
832.49	111.61
832.667	105.47
832.844	132.09
833.021	132.09
833.198	44.03
833.374	105.47
833.551	142.33
833.728	76.8
833.905	97.28
834.082	179.2
834.259	109.57
834.436	132.09
834.612	72.7
834.789	142.33
834.966	93.18
835.143	156.67
835.319	50.18
835.496	183.29
835.673	132.09
835.85	101.37
836.026	64.51
836.203	115.71
836.38	109.57
836.556	99.33
836.733	121.85
836.909	82.94
837.086	64.51
837.262	66.56
837.439	56.32
837.616	103.42
837.792	87.04
837.968	113.66
838.145	74.75
838.321	60.42
838.498	91.13
838.674	220.16
838.851	128
839.027	160.77
839.203	74.75
839.38	48.13
839.556	44.03
839.732	99.33
839.909	76.8
840.085	66.56
840.261	136.19
840.437	68.61
840.614	39.94
840.79	136.19
840.966	39.94
841.142	113.66
841.318	105.47
841.494	48.13
841.671	80.89
841.847	52.22
842.023	113.66
842.199	99.33
842.375	154.62
842.551	-15.36
842.727	-37.89
842.903	144.38
843.079	84.99
843.255	80.89
843.431	64.51
843.607	154.62
843.783	121.85
843.959	76.8
844.134	113.66
844.31	89.09
844.486	97.28
844.662	80.89
844.838	76.8
845.013	76.8
845.189	156.67
845.365	48.13
845.541	72.7
845.716	142.33
845.892	117.76
846.068	113.66
846.244	82.94
846.419	103.42
846.595	80.89
846.77	52.22
846.946	44.03
847.122	111.61
847.297	56.32
847.473	87.04
847.648	107.52
847.824	64.51
847.999	62.46
848.175	74.75
848.35	31.74
848.526	82.94
848.701	105.47
848.876	35.84
849.052	80.89
849.227	-29.7
849.403	15.36
849.578	76.8
849.753	56.32
849.929	68.61
850.104	60.42
850.279	19.46
850.454	62.46
850.63	13.31
850.805	52.22
850.98	-37.89
851.155	29.7
851.33	74.75
851.505	111.61
851.681	50.18
851.856	93.18
852.031	123.9
852.206	41.98
852.381	15.36
852.556	125.95
852.731	27.65
852.906	119.81
853.081	128
853.256	58.37
853.431	64.51
853.606	-72.7
853.781	99.33
853.956	44.03
854.131	66.56
854.305	-25.6
854.48	19.46
854.655	-9.22
854.83	103.42
855.005	89.09
855.18	33.79
855.354	82.94
855.529	97.28
855.704	15.36
855.879	64.51
856.053	72.7
856.228	82.94
856.403	60.42
856.577	-41.98
856.752	3.07
856.926	99.33
857.101	37.89
857.276	48.13
857.45	82.94
857.625	23.55
857.799	56.32
857.974	41.98
858.148	84.99
858.323	119.81
858.497	29.7
858.672	13.31
858.846	-23.55
859.02	50.18
859.195	37.89
859.369	-17.41
859.543	78.85
859.718	78.85
859.892	46.08
860.066	52.22
860.241	97.28
860.415	115.71
860.589	56.32
860.763	23.55
860.938	23.55
861.112	33.79
861.286	82.94
861.46	-3.07
861.634	46.08
861.808	56.32
861.982	44.03
862.157	-19.46
862.331	39.94
862.505	66.56
862.679	39.94
862.853	-11.26
863.027	31.74
863.201	117.76
863.375	-5.12
863.549	82.94
863.722	48.13
863.896	33.79
864.07	44.03
864.244	-7.17
864.418	33.79
864.592	93.18
864.766	35.84
864.939	13.31
865.113	119.81
865.287	113.66
865.461	23.55
865.634	84.99
865.808	-7.17
865.982	60.42
866.156	-44.03
866.329	74.75
866.503	89.09
866.676	82.94
866.85	17.41
867.024	25.6
867.197	78.85
867.371	82.94
867.544	113.66
867.718	-7.17
867.891	70.65
868.065	7.17
868.238	50.18
868.412	54.27
868.585	93.18
868.759	50.18
868.932	5.12
869.105	44.03
869.279	89.09
869.452	80.89
869.625	-27.65
869.799	29.7
869.972	33.79
870.145	84.99
870.319	-1.02
870.492	111.61
870.665	35.84
870.838	25.6
871.011	-3.07
871.185	136.19
871.358	64.51
871.531	50.18
871.704	-11.26
871.877	72.7
872.05	56.32
872.223	105.47
872.396	-3.07
872.569	33.79
872.742	70.65
872.915	78.85
873.088	-3.07
873.261	-1.02
873.434	-46.08
873.607	29.7
873.78	15.36
873.953	-5.12
874.126	1.02
874.299	78.85
874.471	123.9
874.644	39.94
874.817	74.75
874.99	66.56
875.163	29.7
875.335	35.84
875.508	46.08
875.681	97.28
875.853	56.32
876.026	46.08
876.199	7.17
876.371	27.65
876.544	23.55
876.717	105.47
876.889	62.46
877.062	29.7
877.234	44.03
877.407	52.22
877.579	31.74
877.752	70.65
877.924	56.32
878.097	-35.84
878.269	17.41
878.442	95.23
878.614	-15.36
878.786	11.26
878.959	-35.84
879.131	50.18
879.303	9.22
879.476	-9.22
879.648	144.38
879.82	31.74
879.993	80.89
880.165	31.74
880.337	52.22
880.509	5.12
880.681	5.12
880.854	21.5
881.026	19.46
881.198	105.47
881.37	25.6
881.542	80.89
881.714	-52.22
881.886	1.02
882.058	-11.26
882.23	52.22
882.402	31.74
882.574	48.13
882.746	82.94
882.918	113.66
883.09	44.03
883.262	-19.46
883.434	74.75
883.606	15.36
883.778	-5.12
883.95	44.03
884.122	15.36
884.293	39.94
884.465	5.12
884.637	97.28
884.809	29.7
884.98	70.65
885.152	-31.74
885.324	31.74
885.496	35.84
885.667	62.46
885.839	-7.17
886.011	91.13
886.182	11.26
886.354	25.6
886.525	56.32
886.697	115.71
886.869	-25.6
887.04	-1.02
887.212	7.17
887.383	25.6
887.555	72.7
887.726	1.02
887.897	19.46
888.069	-15.36
888.24	78.85
888.412	15.36
888.583	-3.07
888.754	-78.85
888.926	41.98
889.097	15.36
889.268	50.18
889.44	44.03
889.611	17.41
889.782	95.23
889.953	11.26
890.125	50.18
890.296	23.55
890.467	117.76
890.638	-41.98
890.809	72.7
890.98	11.26
891.151	7.17
891.323	56.32
891.494	54.27
891.665	-33.79
891.836	68.61
892.007	68.61
892.178	5.12
892.349	44.03
892.52	54.27
892.691	-29.7
892.862	15.36
893.032	27.65
893.203	46.08
893.374	46.08
893.545	119.81
893.716	5.12
893.887	54.27
894.057	29.7
894.228	60.42
894.399	25.6
894.57	56.32
894.74	60.42
894.911	25.6
895.082	-21.5
895.253	-3.07
895.423	54.27
895.594	9.22
895.764	7.17
895.935	91.13
896.106	41.98
896.276	54.27
896.447	76.8
896.617	-3.07
896.788	35.84
896.958	87.04
897.129	-1.02
897.299	60.42
897.47	25.6
897.64	54.27
897.81	-3.07
897.981	46.08
898.151	111.61
898.322	72.7
898.492	-41.98
898.662	105.47
898.832	21.5
899.003	54.27
899.173	23.55
899.343	-29.7
899.513	-27.65
