Data from USB4F104151__46__11-05-35-969.txt Node

Date: Wed Mar 12 11:05:35 EDT 2025
User: louis
Spectrometer: USB4F10415
Trigger mode: 4
Integration Time (sec): 2.000000E-2
Scans to average: 1
Electric dark correction enabled: true
Nonlinearity correction enabled: false
Boxcar width: 0
XAxis mode: Wavelengths
Number of Pixels in Spectrum: 3648
>>>>>Begin Spectral Data<<<<<
178.204	-127.83
178.424	-127.83
178.644	-127.83
178.864	-117.59
179.084	-68.44
179.304	-41.81
179.524	27.82
179.744	-35.67
179.964	95.4
180.184	23.72
180.404	-93.01
180.624	11.43
180.844	-50
181.064	-45.91
181.283	46.25
181.503	19.63
181.723	42.15
181.943	15.53
182.163	46.25
182.383	15.53
182.602	-25.43
182.822	91.31
183.042	5.29
183.262	19.63
183.482	27.82
183.701	11.43
183.921	-60.24
184.141	7.34
184.361	38.06
184.58	-27.48
184.8	27.82
185.02	17.58
185.239	11.43
185.459	60.59
185.679	81.07
185.898	21.67
186.118	50.35
186.338	-23.38
186.557	134.31
186.777	31.91
186.997	-17.24
187.216	50.35
187.436	66.73
187.655	-4.95
187.875	-2.9
188.095	60.59
188.314	54.44
188.534	64.68
188.753	-0.85
188.973	1.19
189.192	-23.38
189.412	21.67
189.631	17.58
189.851	-27.48
190.07	99.5
190.29	-15.19
190.509	25.77
190.729	-13.14
190.948	79.02
191.168	91.31
191.387	93.35
191.607	-15.19
191.826	83.11
192.045	72.87
192.265	56.49
192.484	19.63
192.704	-19.29
192.923	56.49
193.142	95.4
193.362	5.29
193.581	36.01
193.8	1.19
194.02	-15.19
194.239	-4.95
194.458	87.21
194.678	89.26
194.897	31.91
195.116	31.91
195.335	23.72
195.555	68.78
195.774	40.11
195.993	21.67
196.212	-27.48
196.432	27.82
196.651	3.24
196.87	52.39
197.089	50.35
197.308	13.48
197.528	21.67
197.747	-43.86
197.966	5.29
198.185	101.55
198.404	5.29
198.623	76.97
198.842	38.06
199.062	74.92
199.281	33.96
199.5	23.72
199.719	54.44
199.938	-39.76
200.157	1.19
200.376	109.74
200.595	-13.14
200.814	31.91
201.033	50.35
201.252	21.67
201.471	3.24
201.69	-17.24
201.909	42.15
202.128	13.48
202.347	-25.43
202.566	5.29
202.785	-25.43
203.004	-23.38
203.223	62.63
203.442	44.2
203.661	46.25
203.879	-39.76
204.098	-7
204.317	33.96
204.536	56.49
204.755	93.35
204.974	52.39
205.193	-41.81
205.411	72.87
205.63	72.87
205.849	81.07
206.068	56.49
206.287	68.78
206.505	25.77
206.724	109.74
206.943	-9.05
207.162	5.29
207.381	21.67
207.599	5.29
207.818	46.25
208.037	15.53
208.255	-4.95
208.474	25.77
208.693	46.25
208.911	7.34
209.13	70.83
209.349	-4.95
209.567	15.53
209.786	68.78
210.005	36.01
210.223	31.91
210.442	17.58
210.661	-23.38
210.879	74.92
211.098	64.68
211.316	146.6
211.535	15.53
211.753	31.91
211.972	15.53
212.191	42.15
212.409	13.48
212.628	9.39
212.846	15.53
213.065	-21.33
213.283	38.06
213.502	-31.57
213.72	25.77
213.938	87.21
214.157	70.83
214.375	60.59
214.594	-13.14
214.812	1.19
215.031	9.39
215.249	46.25
215.467	3.24
215.686	-2.9
215.904	68.78
216.122	48.3
216.341	15.53
216.559	54.44
216.778	56.49
216.996	72.87
217.214	17.58
217.432	-64.34
217.651	85.16
217.869	23.72
218.087	79.02
218.306	17.58
218.524	31.91
218.742	-11.09
218.96	62.63
219.179	-4.95
219.397	-7
219.615	99.5
219.833	126.12
220.051	15.53
220.27	85.16
220.488	89.26
220.706	52.39
220.924	29.87
221.142	-7
221.36	17.58
221.578	70.83
221.796	-17.24
222.015	13.48
222.233	52.39
222.451	29.87
222.669	36.01
222.887	54.44
223.105	13.48
223.323	128.17
223.541	74.92
223.759	58.54
223.977	-31.57
224.195	11.43
224.413	29.87
224.631	64.68
224.849	-41.81
225.067	83.11
225.285	38.06
225.503	-4.95
225.721	25.77
225.939	62.63
226.157	-2.9
226.375	109.74
226.592	-68.44
226.81	23.72
227.028	29.87
227.246	-2.9
227.464	5.29
227.682	89.26
227.9	15.53
228.117	23.72
228.335	31.91
228.553	5.29
228.771	40.11
228.989	46.25
229.206	29.87
229.424	-21.33
229.642	-37.72
229.86	33.96
230.077	33.96
230.295	40.11
230.513	40.11
230.731	56.49
230.948	42.15
231.166	44.2
231.384	-29.52
231.601	-11.09
231.819	29.87
232.037	-0.85
232.254	-31.57
232.472	76.97
232.689	66.73
232.907	-2.9
233.125	-23.38
233.342	15.53
233.56	31.91
233.777	5.29
233.995	81.07
234.213	79.02
234.43	91.31
234.648	44.2
234.865	48.3
235.083	95.4
235.3	72.87
235.518	3.24
235.735	95.4
235.953	25.77
236.17	25.77
236.388	54.44
236.605	21.67
236.822	70.83
237.04	27.82
237.257	9.39
237.475	-19.29
237.692	74.92
237.909	38.06
238.127	27.82
238.344	21.67
238.562	-4.95
238.779	3.24
238.996	93.35
239.214	46.25
239.431	62.63
239.648	40.11
239.865	83.11
240.083	40.11
240.3	33.96
240.517	31.91
240.735	79.02
240.952	44.2
241.169	17.58
241.386	29.87
241.603	25.77
241.821	9.39
242.038	-13.14
242.255	111.78
242.472	-17.24
242.689	27.82
242.907	27.82
243.124	15.53
243.341	60.59
243.558	74.92
243.775	-0.85
243.992	58.54
244.209	56.49
244.426	70.83
244.643	21.67
244.86	83.11
245.078	72.87
245.295	38.06
245.512	-23.38
245.729	29.87
245.946	27.82
246.163	48.3
246.38	3.24
246.597	70.83
246.814	113.83
247.031	50.35
247.248	3.24
247.464	17.58
247.681	31.91
247.898	17.58
248.115	-0.85
248.332	-11.09
248.549	-19.29
248.766	31.91
248.983	29.87
249.2	85.16
249.417	66.73
249.633	46.25
249.85	62.63
250.067	31.91
250.284	23.72
250.501	68.78
250.717	42.15
250.934	21.67
251.151	-4.95
251.368	-11.09
251.585	93.35
251.801	-33.62
252.018	19.63
252.235	103.59
252.451	7.34
252.668	-56.15
252.885	15.53
253.102	-31.57
253.318	-43.86
253.535	-35.67
253.752	23.72
253.968	-9.05
254.185	-0.85
254.401	-7
254.618	91.31
254.835	-19.29
255.051	56.49
255.268	15.53
255.484	29.87
255.701	-15.19
255.917	72.87
256.134	17.58
256.351	23.72
256.567	-41.81
256.784	-13.14
257	-66.39
257.217	50.35
257.433	21.67
257.65	9.39
257.866	38.06
258.082	31.91
258.299	-19.29
258.515	58.54
258.732	85.16
258.948	60.59
259.165	-21.33
259.381	15.53
259.597	70.83
259.814	1.19
260.03	33.96
260.246	5.29
260.463	3.24
260.679	83.11
260.895	21.67
261.112	-4.95
261.328	46.25
261.544	25.77
261.761	95.4
261.977	74.92
262.193	27.82
262.409	64.68
262.626	76.97
262.842	101.55
263.058	38.06
263.274	27.82
263.49	13.48
263.707	44.2
263.923	5.29
264.139	-13.14
264.355	38.06
264.571	83.11
264.787	29.87
265.004	-2.9
265.22	38.06
265.436	25.77
265.652	48.3
265.868	27.82
266.084	33.96
266.3	-23.38
266.516	-68.44
266.732	40.11
266.948	42.15
267.164	7.34
267.38	68.78
267.596	66.73
267.812	66.73
268.028	44.2
268.244	74.92
268.46	44.2
268.676	36.01
268.892	31.91
269.108	-13.14
269.324	21.67
269.54	-4.95
269.756	33.96
269.972	13.48
270.188	-23.38
270.403	-2.9
270.619	-25.43
270.835	42.15
271.051	3.24
271.267	13.48
271.483	23.72
271.698	-7
271.914	56.49
272.13	33.96
272.346	87.21
272.562	97.45
272.777	42.15
272.993	68.78
273.209	48.3
273.425	11.43
273.64	81.07
273.856	46.25
274.072	29.87
274.287	-17.24
274.503	48.3
274.719	33.96
274.934	5.29
275.15	-58.2
275.366	40.11
275.581	15.53
275.797	15.53
276.012	19.63
276.228	42.15
276.444	52.39
276.659	46.25
276.875	-11.09
277.09	-9.05
277.306	7.34
277.521	54.44
277.737	95.4
277.952	33.96
278.168	-29.52
278.383	44.2
278.599	46.25
278.814	21.67
279.03	21.67
279.245	-39.76
279.461	27.82
279.676	38.06
279.892	-23.38
280.107	29.87
280.322	64.68
280.538	-4.95
280.753	-4.95
280.969	9.39
281.184	38.06
281.399	40.11
281.615	64.68
281.83	21.67
282.045	19.63
282.26	54.44
282.476	83.11
282.691	54.44
282.906	19.63
283.122	27.82
283.337	50.35
283.552	40.11
283.767	44.2
283.983	21.67
284.198	15.53
284.413	64.68
284.628	33.96
284.843	21.67
285.058	21.67
285.274	-0.85
285.489	-25.43
285.704	44.2
285.919	19.63
286.134	95.4
286.349	44.2
286.564	13.48
286.779	105.64
286.995	13.48
287.21	-11.09
287.425	42.15
287.64	44.2
287.855	7.34
288.07	-4.95
288.285	64.68
288.5	40.11
288.715	9.39
288.93	50.35
289.145	25.77
289.36	7.34
289.575	56.49
289.79	33.96
290.004	3.24
290.219	-41.81
290.434	-21.33
290.649	56.49
290.864	-21.33
291.079	7.34
291.294	29.87
291.509	134.31
291.724	9.39
291.938	83.11
292.153	60.59
292.368	56.49
292.583	17.58
292.798	44.2
293.012	48.3
293.227	11.43
293.442	29.87
293.657	11.43
293.871	111.78
294.086	-4.95
294.301	-21.33
294.516	93.35
294.73	48.3
294.945	-19.29
295.16	50.35
295.374	58.54
295.589	95.4
295.804	-29.52
296.018	76.97
296.233	85.16
296.447	50.35
296.662	7.34
296.877	60.59
297.091	-58.2
297.306	42.15
297.52	72.87
297.735	9.39
297.949	3.24
298.164	50.35
298.378	21.67
298.593	62.63
298.807	68.78
299.022	-25.43
299.236	105.64
299.451	62.63
299.665	19.63
299.88	40.11
300.094	62.63
300.309	21.67
300.523	5.29
300.737	27.82
300.952	68.78
301.166	1.19
301.381	66.73
301.595	95.4
301.809	19.63
302.024	9.39
302.238	42.15
302.452	58.54
302.667	21.67
302.881	91.31
303.095	3.24
303.309	50.35
303.524	11.43
303.738	29.87
303.952	5.29
304.166	111.78
304.381	-0.85
304.595	74.92
304.809	-19.29
305.023	5.29
305.237	-39.76
305.452	42.15
305.666	40.11
305.88	66.73
306.094	85.16
306.308	101.55
306.522	66.73
306.736	97.45
306.95	101.55
307.164	-2.9
307.379	9.39
307.593	68.78
307.807	89.26
308.021	21.67
308.235	62.63
308.449	36.01
308.663	52.39
308.877	72.87
309.091	-2.9
309.305	111.78
309.519	-39.76
309.733	87.21
309.947	11.43
310.161	79.02
310.374	-13.14
310.588	124.07
310.802	-54.1
311.016	25.77
311.23	101.55
311.444	-9.05
311.658	42.15
311.872	97.45
312.085	21.67
312.299	5.29
312.513	83.11
312.727	66.73
312.941	-2.9
313.154	79.02
313.368	42.15
313.582	-0.85
313.796	93.35
314.009	60.59
314.223	27.82
314.437	15.53
314.651	60.59
314.864	38.06
315.078	-2.9
315.292	-31.57
315.505	29.87
315.719	7.34
315.933	50.35
316.146	42.15
316.36	33.96
316.573	-23.38
316.787	27.82
317.001	44.2
317.214	40.11
317.428	66.73
317.641	-13.14
317.855	70.83
318.068	46.25
318.282	95.4
318.495	66.73
318.709	36.01
318.922	-9.05
319.136	64.68
319.349	29.87
319.563	21.67
319.776	33.96
319.99	15.53
320.203	101.55
320.417	54.44
320.63	21.67
320.843	33.96
321.057	-11.09
321.27	62.63
321.483	97.45
321.697	46.25
321.91	111.78
322.124	54.44
322.337	15.53
322.55	-47.96
322.763	46.25
322.977	60.59
323.19	21.67
323.403	48.3
323.617	56.49
323.83	169.13
324.043	40.11
324.256	-11.09
324.469	-35.67
324.683	19.63
324.896	15.53
325.109	64.68
325.322	27.82
325.535	124.07
325.748	46.25
325.962	27.82
326.175	23.72
326.388	101.55
326.601	11.43
326.814	85.16
327.027	-19.29
327.24	81.07
327.453	91.31
327.666	36.01
327.879	76.97
328.092	31.91
328.305	54.44
328.518	50.35
328.731	-29.52
328.944	31.91
329.157	36.01
329.37	25.77
329.583	27.82
329.796	136.36
330.009	60.59
330.222	66.73
330.435	13.48
330.648	72.87
330.861	-7
331.073	74.92
331.286	52.39
331.499	52.39
331.712	19.63
331.925	72.87
332.138	-37.72
332.35	105.64
332.563	17.58
332.776	87.21
332.989	5.29
333.202	17.58
333.414	5.29
333.627	17.58
333.84	31.91
334.053	38.06
334.265	1.19
334.478	95.4
334.691	3.24
334.903	-19.29
335.116	74.92
335.329	42.15
335.541	68.78
335.754	91.31
335.966	-15.19
336.179	83.11
336.392	87.21
336.604	76.97
336.817	85.16
337.029	83.11
337.242	56.49
337.454	33.96
337.667	101.55
337.88	21.67
338.092	58.54
338.305	68.78
338.517	38.06
338.729	91.31
338.942	13.48
339.154	-27.48
339.367	11.43
339.579	60.59
339.792	38.06
340.004	142.5
340.217	62.63
340.429	3.24
340.641	74.92
340.854	19.63
341.066	-37.72
341.278	142.5
341.491	160.94
341.703	76.97
341.915	-2.9
342.128	89.26
342.34	-19.29
342.552	83.11
342.764	119.98
342.977	5.29
343.189	52.39
343.401	48.3
343.613	17.58
343.826	62.63
344.038	36.01
344.25	85.16
344.462	74.92
344.674	36.01
344.886	48.3
345.099	31.91
345.311	46.25
345.523	-0.85
345.735	19.63
345.947	-4.95
346.159	50.35
346.371	81.07
346.583	154.79
346.795	58.54
347.007	-15.19
347.219	17.58
347.431	38.06
347.643	42.15
347.855	42.15
348.067	56.49
348.279	-27.48
348.491	109.74
348.703	3.24
348.915	56.49
349.127	-7
349.339	5.29
349.551	33.96
349.763	11.43
349.975	-2.9
350.187	23.72
350.399	54.44
350.61	40.11
350.822	56.49
351.034	40.11
351.246	21.67
351.458	60.59
351.669	21.67
351.881	87.21
352.093	50.35
352.305	134.31
352.517	17.58
352.728	97.45
352.94	60.59
353.152	15.53
353.363	46.25
353.575	66.73
353.787	68.78
353.999	5.29
354.21	95.4
354.422	117.93
354.633	76.97
354.845	19.63
355.057	48.3
355.268	44.2
355.48	31.91
355.692	46.25
355.903	-9.05
356.115	25.77
356.326	9.39
356.538	52.39
356.749	103.59
356.961	70.83
357.172	11.43
357.384	44.2
357.595	154.79
357.807	50.35
358.018	7.34
358.23	44.2
358.441	42.15
358.653	87.21
358.864	-52.05
359.075	46.25
359.287	81.07
359.498	74.92
359.709	33.96
359.921	23.72
360.132	-19.29
360.344	87.21
360.555	64.68
360.766	48.3
360.977	107.69
361.189	21.67
361.4	79.02
361.611	66.73
361.823	23.72
362.034	103.59
362.245	70.83
362.456	33.96
362.667	21.67
362.879	-29.52
363.09	25.77
363.301	9.39
363.512	23.72
363.723	-7
363.935	54.44
364.146	68.78
364.357	44.2
364.568	83.11
364.779	52.39
364.99	95.4
365.201	-7
365.412	74.92
365.623	31.91
365.834	132.26
366.045	89.26
366.256	13.48
366.467	105.64
366.678	38.06
366.889	23.72
367.1	27.82
367.311	101.55
367.522	50.35
367.733	70.83
367.944	128.17
368.155	91.31
368.366	66.73
368.577	-4.95
368.788	138.41
368.999	50.35
369.209	15.53
369.42	83.11
369.631	58.54
369.842	87.21
370.053	62.63
370.264	42.15
370.474	58.54
370.685	42.15
370.896	33.96
371.107	83.11
371.317	25.77
371.528	38.06
371.739	103.59
371.95	-25.43
372.16	105.64
372.371	5.29
372.582	33.96
372.792	13.48
373.003	113.83
373.214	9.39
373.424	3.24
373.635	64.68
373.846	105.64
374.056	87.21
374.267	56.49
374.477	79.02
374.688	-23.38
374.898	27.82
375.109	42.15
375.319	-33.62
375.53	27.82
375.74	72.87
375.951	17.58
376.161	58.54
376.372	52.39
376.582	-11.09
376.793	13.48
377.003	38.06
377.214	5.29
377.424	-0.85
377.635	19.63
377.845	85.16
378.055	42.15
378.266	29.87
378.476	3.24
378.686	19.63
378.897	19.63
379.107	85.16
379.317	52.39
379.528	19.63
379.738	50.35
379.948	52.39
380.158	-80.72
380.369	36.01
380.579	60.59
380.789	21.67
380.999	81.07
381.21	95.4
381.42	74.92
381.63	40.11
381.84	17.58
382.05	52.39
382.261	72.87
382.471	-19.29
382.681	54.44
382.891	17.58
383.101	97.45
383.311	31.91
383.521	27.82
383.731	93.35
383.941	29.87
384.151	31.91
384.361	89.26
384.571	62.63
384.781	-2.9
384.991	119.98
385.201	140.46
385.411	15.53
385.621	44.2
385.831	85.16
386.041	140.46
386.251	62.63
386.461	107.69
386.671	91.31
386.881	62.63
387.091	62.63
387.301	119.98
387.511	9.39
387.72	13.48
387.93	76.97
388.14	79.02
388.35	91.31
388.56	44.2
388.769	17.58
388.979	62.63
389.189	105.64
389.399	36.01
389.609	29.87
389.818	70.83
390.028	99.5
390.238	81.07
390.447	27.82
390.657	42.15
390.867	50.35
391.076	132.26
391.286	97.45
391.496	38.06
391.705	7.34
391.915	3.24
392.125	68.78
392.334	38.06
392.544	27.82
392.753	95.4
392.963	9.39
393.172	70.83
393.382	3.24
393.591	93.35
393.801	68.78
394.01	91.31
394.22	103.59
394.429	79.02
394.639	76.97
394.848	56.49
395.058	111.78
395.267	29.87
395.477	76.97
395.686	136.36
395.895	38.06
396.105	150.7
396.314	142.5
396.524	79.02
396.733	52.39
396.942	58.54
397.152	64.68
397.361	115.88
397.57	25.77
397.78	76.97
397.989	101.55
398.198	115.88
398.407	50.35
398.617	72.87
398.826	103.59
399.035	158.89
399.244	68.78
399.453	111.78
399.663	101.55
399.872	83.11
400.081	21.67
400.29	210.09
400.499	109.74
400.708	119.98
400.917	76.97
401.127	95.4
401.336	95.4
401.545	187.56
401.754	87.21
401.963	42.15
402.172	152.74
402.381	15.53
402.59	97.45
402.799	126.12
403.008	79.02
403.217	109.74
403.426	62.63
403.635	85.16
403.844	103.59
404.053	56.49
404.262	160.94
404.471	132.26
404.68	132.26
404.888	142.5
405.097	105.64
405.306	99.5
405.515	167.08
405.724	183.46
405.933	136.36
406.142	62.63
406.35	205.99
406.559	122.02
406.768	122.02
406.977	158.89
407.185	158.89
407.394	134.31
407.603	167.08
407.812	144.55
408.02	179.37
408.229	214.18
408.438	179.37
408.646	179.37
408.855	205.99
409.064	175.27
409.272	236.71
409.481	265.38
409.69	263.33
409.898	173.22
410.107	185.51
410.315	308.39
410.524	236.71
410.733	195.75
410.941	249
411.15	222.38
411.358	314.53
411.567	355.49
411.775	332.97
411.984	310.44
412.192	304.29
412.401	298.15
412.609	314.53
412.818	380.07
413.026	410.79
413.234	322.73
413.443	330.92
413.651	484.52
413.86	408.74
414.068	509.09
414.276	554.15
414.485	564.39
414.693	545.95
414.901	509.09
415.11	599.2
415.318	515.23
415.526	627.87
415.734	625.83
415.943	660.64
416.151	699.55
416.359	580.77
416.567	695.46
416.776	650.4
416.984	765.09
417.192	783.52
417.4	791.71
417.608	799.9
417.817	773.28
418.025	928.92
418.233	951.45
418.441	773.28
418.649	887.97
418.857	961.69
419.065	1033.37
419.273	928.92
419.481	1072.28
419.689	1064.09
419.897	1223.83
420.105	1213.59
420.313	1158.3
420.521	1324.18
420.729	1330.33
420.937	1303.7
421.145	1309.85
421.353	1420.44
421.561	1582.23
421.769	1537.17
421.977	1557.65
422.185	1559.7
422.393	1631.38
422.601	1799.31
422.809	1764.5
423.017	1866.89
423.224	2014.35
423.432	1909.9
423.64	1914
423.848	2096.27
424.056	2159.75
424.263	2258.06
424.471	2229.38
424.679	2319.5
424.887	2280.58
425.094	2544.77
425.302	2493.57
425.51	2577.54
425.718	2669.7
425.925	2692.23
426.133	2851.97
426.341	2894.97
426.548	3056.76
426.756	3155.07
426.964	3120.25
427.171	3198.07
427.379	3296.38
427.586	3273.85
427.794	3576.95
428.001	3617.91
428.209	3816.56
428.417	3814.51
428.624	4146.28
428.832	4105.32
429.039	4023.41
429.247	4019.31
429.454	4402.28
429.662	4580.45
429.869	4371.56
430.076	4709.47
430.284	4643.94
430.491	4830.3
430.699	5051.49
430.906	5059.68
431.114	4973.66
431.321	5395.54
431.528	5436.5
431.736	5887.06
431.943	6065.23
432.15	5960.78
432.358	5829.71
432.565	6253.64
432.772	6329.42
432.979	6442.06
433.187	6720.58
433.394	6792.26
433.601	7035.97
433.808	7074.88
434.016	7189.56
434.223	7498.81
434.43	7914.55
434.637	7726.13
434.844	8154.16
435.052	8231.98
435.259	8139.82
435.466	8309.8
435.673	8430.63
435.88	8836.13
436.087	9382.94
436.294	9307.16
436.501	9075.74
436.708	9497.63
436.915	9454.62
437.122	10026
437.329	9864.21
437.537	10349.58
437.743	10456.08
437.95	10316.81
438.157	10982.4
438.364	11369.47
438.571	11138.05
438.778	11305.98
438.985	12542.96
439.192	11854.84
439.399	12276.72
439.606	12252.14
439.813	12772.33
440.02	13439.97
440.227	13315.04
440.433	13235.17
440.64	13702.11
440.847	13450.21
441.054	13683.67
441.261	14654.41
441.467	14588.88
441.674	14695.37
441.881	15324.1
442.088	15037.38
442.294	14965.7
442.501	15451.07
442.708	15911.86
442.914	16518.06
443.121	17128.36
443.328	16874.41
443.534	17859.48
443.741	17449.89
443.948	17222.56
444.154	18707.34
444.361	18217.88
444.568	18606.99
444.774	18574.22
444.981	18811.79
445.187	19311.49
445.394	20319.09
445.6	19850.11
445.807	21896.03
446.013	20358
446.22	21001.07
446.426	22047.58
446.633	22102.87
446.839	22967.12
447.046	21824.35
447.252	23161.67
447.459	23302.98
447.665	22801.23
447.871	23900.99
448.078	24902.45
448.284	23804.74
448.491	24722.23
448.697	25592.61
448.903	25813.79
449.11	25658.15
449.316	25371.43
449.522	25611.04
449.728	26350.36
449.935	26835.73
450.141	26649.36
450.347	27001.61
450.553	26573.59
450.76	26778.39
450.966	27669.25
451.172	27036.43
451.378	27618.05
451.584	27368.2
451.791	28209.92
451.997	27982.59
452.203	28398.33
452.409	28115.71
452.615	28087.04
452.821	26974.99
453.027	26534.68
453.233	28271.36
453.44	26684.18
453.646	27224.84
453.852	27239.18
454.058	27579.14
454.264	26977.04
454.47	27118.35
454.676	26549.01
454.882	27661.06
455.088	24650.55
455.294	25465.64
455.5	25717.54
455.705	25838.37
455.911	25076.52
456.117	24574.77
456.323	24441.65
456.529	22786.89
456.735	23749.44
456.941	23137.1
457.147	22485.84
457.352	21736.29
457.558	21631.84
457.764	22031.19
457.97	21144.42
458.176	20937.58
458.381	20675.44
458.587	19653.5
458.793	19954.55
458.999	18641.81
459.204	20077.43
459.41	19526.53
459.616	18209.68
459.821	18148.25
460.027	17863.58
460.233	17574.81
460.438	16845.74
460.644	17021.86
460.85	16266.16
461.055	16266.16
461.261	15909.82
461.466	14812.1
461.672	14410.7
461.878	15393.73
462.083	14234.58
462.289	13980.63
462.494	13841.37
462.7	13310.94
462.905	13241.31
463.111	13444.06
463.316	13736.92
463.522	13292.51
463.727	13075.43
463.932	13143.01
464.138	13081.57
464.343	13153.25
464.549	12633.07
464.754	13472.73
464.959	13208.55
465.165	12788.71
465.37	12309.49
465.575	12192.75
465.781	12553.2
465.986	12698.6
466.191	12014.58
466.397	12102.64
466.602	11482.11
466.807	11957.24
467.012	11944.95
467.218	11906.04
467.423	11785.21
467.628	12018.68
467.833	12184.56
468.038	11742.2
468.244	11308.03
468.449	11799.54
468.654	11435
468.859	11473.92
469.064	11396.09
469.269	10843.14
469.474	11033.6
469.679	11129.86
469.885	10775.56
470.09	11045.89
470.295	10877.96
470.5	10646.54
470.705	10558.47
470.91	10425.36
471.115	10257.42
471.32	10576.91
471.525	10537.99
471.73	10075.15
471.935	10038.29
472.139	9653.27
472.344	9853.97
472.549	9757.72
472.754	9671.7
472.959	9577.5
473.164	9344.03
473.369	9272.35
473.574	9638.94
473.778	9350.17
473.983	9475.1
474.188	9425.95
474.393	9032.74
474.598	9002.02
474.802	8829.99
475.007	8737.83
475.212	8584.23
475.417	8318
475.621	8569.9
475.826	8467.5
476.031	8428.59
476.235	8170.54
476.44	8389.67
476.645	8123.44
476.849	8283.18
477.054	7971.89
477.259	7939.12
477.463	7879.73
477.668	7642.17
477.872	7781.43
478.077	7611.45
478.282	7468.09
478.486	7353.4
478.691	7318.59
478.895	7234.62
479.1	7298.11
479.304	7339.07
479.509	7234.62
479.713	7136.32
479.918	7048.26
480.122	7076.93
480.326	7097.41
480.531	7027.78
480.735	6992.96
480.94	7021.63
481.144	7056.45
481.348	6863.94
481.553	6880.32
481.757	6849.6
481.961	6902.85
482.166	6931.52
482.37	6796.35
482.574	6749.25
482.778	6935.62
482.983	6952
483.187	6896.71
483.391	6913.09
483.595	6829.12
483.8	6757.44
484.004	6804.55
484.208	6794.31
484.412	6822.98
484.616	6956.1
484.821	6767.68
485.025	6671.43
485.229	6997.06
485.433	6753.35
485.637	6886.47
485.841	6800.45
486.045	6653
486.249	6810.69
486.453	6730.82
486.657	6861.89
486.861	6847.55
487.065	6667.33
487.269	6667.33
487.473	6913.09
487.677	6874.18
487.881	6876.23
488.085	6902.85
488.289	6808.64
488.493	6876.23
488.697	6849.6
488.901	6796.35
489.105	6941.76
489.309	6968.38
489.512	7015.49
489.716	6749.25
489.92	6919.23
490.124	6837.31
490.328	7007.3
490.531	6937.66
490.735	7160.89
490.939	6966.34
491.143	6943.81
491.346	7050.3
491.55	7064.64
491.754	7029.82
491.958	7203.9
492.161	7097.41
492.365	7152.7
492.569	7054.4
492.772	7185.47
492.976	7326.78
493.18	7316.54
493.383	7382.07
493.587	7349.31
493.79	7562.3
493.994	7343.16
494.197	7550.01
494.401	7623.73
494.605	7531.58
494.808	7648.31
495.012	7640.12
495.215	7818.29
495.419	8008.75
495.622	7717.94
495.825	7875.63
496.029	7955.51
496.232	8207.41
496.436	8014.9
496.639	8385.58
496.843	8236.08
497.046	8621.1
497.249	8516.65
497.453	8561.7
497.656	8713.25
497.859	8780.84
498.063	8956.96
498.266	8893.47
498.469	8932.39
498.673	8987.68
498.876	9176.09
499.079	9137.18
499.282	9245.73
499.485	9536.54
499.689	9587.74
499.892	9647.13
500.095	9737.24
500.298	9776.15
500.501	9749.53
500.705	10009.62
500.908	10126.35
501.111	10368.01
501.314	10202.13
501.517	10341.39
501.72	10591.24
501.923	10552.33
502.126	10898.44
502.329	10867.72
502.532	10992.64
502.735	11271.17
502.938	11146.24
503.141	11437.05
503.344	11428.86
503.547	11506.68
503.75	11779.06
503.953	11871.22
504.156	11867.13
504.359	11953.14
504.562	12372.97
504.765	12532.72
504.968	12573.67
505.17	12934.12
505.373	12682.22
505.576	13026.28
505.779	13073.38
505.982	13200.35
506.185	13325.28
506.387	13536.22
506.59	13253.6
506.793	13732.83
506.996	13632.47
507.198	14160.85
507.401	14242.77
507.604	14418.89
507.807	14576.59
508.009	14805.96
508.212	14982.09
508.415	14996.42
508.617	15203.27
508.82	15465.41
509.022	15354.82
509.225	15731.64
509.428	15743.93
509.63	15930.3
509.833	15856.57
510.035	16556.97
510.238	16255.92
510.44	16528.3
510.643	16858.03
510.845	17056.68
511.048	16823.21
511.25	17028.01
511.453	17281.95
511.655	17617.82
511.858	17814.43
512.06	17994.65
512.262	17986.46
512.465	18060.18
512.667	18396.05
512.87	18457.49
513.072	18572.18
513.274	18981.77
513.477	19026.82
513.679	19321.73
513.881	19504
514.084	19843.96
514.286	19872.64
514.488	19835.77
514.69	20595.57
514.893	20472.69
515.095	20783.98
515.297	20935.53
515.499	20921.2
515.701	21359.46
515.904	21564.26
516.106	21769.05
516.308	21709.66
516.51	22051.67
516.712	22428.5
516.914	22473.56
517.116	22885.2
517.318	22846.29
517.52	23106.38
517.722	23276.36
517.925	23548.74
518.127	23690.05
518.329	24128.31
518.531	23868.22
518.733	24341.3
518.935	24679.22
519.136	24849.2
519.338	25082.67
519.54	24976.17
519.742	25312.04
519.944	25559.84
520.146	25926.43
520.348	26176.28
520.55	26280.73
520.752	26446.62
520.954	27018
521.155	26467.09
521.357	27261.71
521.559	27312.91
521.761	28128
521.963	27874.05
522.164	27851.52
522.366	27878.15
522.568	28472.06
522.77	28646.13
522.971	29020.91
523.173	28846.83
523.375	29151.98
523.576	29012.72
523.778	29061.87
523.98	29938.4
524.181	29717.22
524.383	29713.13
524.584	30622.42
524.786	30225.12
524.988	30235.36
525.189	30757.59
525.391	30853.84
525.592	30911.19
525.794	31269.58
525.995	31394.51
526.197	31564.49
526.398	31613.64
526.6	31742.66
526.801	31865.54
527.003	32312
527.204	32234.17
527.406	32580.28
527.607	32508.6
527.808	32635.58
528.01	32307.9
528.211	32608.95
528.412	33186.48
528.614	33231.54
528.815	33413.8
529.016	33794.73
529.218	33305.26
529.419	33610.41
529.62	33866.41
529.822	33798.82
530.023	33438.38
530.224	34173.6
530.425	33876.65
530.626	33618.6
530.828	33563.31
531.029	34798.23
531.23	33714.86
531.431	34175.65
531.632	33997.48
531.833	34222.75
532.035	34486.94
532.236	34542.24
532.437	34749.08
532.638	34468.51
532.839	34650.78
533.04	34693.79
533.241	34155.17
533.442	34998.93
533.643	34798.23
533.844	34740.89
534.045	34974.36
534.246	34566.81
534.447	35117.71
534.648	34699.93
534.849	34656.92
535.05	34642.59
535.251	34849.43
535.451	34611.87
535.652	35043.99
535.853	34699.93
536.054	35021.46
536.255	35232.4
536.456	34831
536.657	35302.03
536.857	34847.38
537.058	34646.68
537.259	35576.46
537.46	34914.97
537.66	34773.66
537.861	35269.26
538.062	34978.45
538.263	34861.72
538.463	35095.19
538.664	35033.75
538.865	35193.49
539.065	35609.23
539.266	34962.07
539.466	35369.61
539.667	34861.72
539.868	35197.59
540.068	34732.7
540.269	35295.89
540.469	35242.64
540.67	34669.21
540.87	34953.88
541.071	35213.97
541.271	35160.72
541.472	34945.69
541.672	35023.51
541.873	34902.68
542.073	34359.97
542.274	35078.8
542.474	35033.75
542.675	34839.19
542.875	35158.67
543.075	34843.29
543.276	34894.49
543.476	35398.29
543.676	35005.08
543.877	35146.39
544.077	34691.74
544.277	35050.13
544.478	34800.28
544.678	35037.84
544.878	34661.02
545.078	34921.11
545.279	34742.94
545.479	34869.91
545.679	34904.73
545.879	34521.76
546.079	34882.2
546.28	34773.66
546.48	34839.19
546.68	35101.33
546.88	34910.87
547.08	34851.48
547.28	34925.21
547.48	34321.05
547.68	34730.65
547.88	34917.01
548.081	34785.94
548.281	34689.69
548.481	34990.74
548.681	34835.1
548.881	34747.03
549.081	34413.21
549.28	34388.64
549.48	34894.49
549.68	34462.36
549.88	35035.8
550.08	34429.6
550.28	34917.01
550.48	34685.59
550.68	34941.59
550.88	34620.06
551.08	34564.76
551.279	35093.14
551.479	34519.71
551.679	34806.42
551.879	34421.41
552.079	34917.01
552.278	34323.1
552.478	34814.62
552.678	34093.73
552.878	34724.5
553.077	34380.45
553.277	34273.95
553.477	34624.15
553.676	34353.82
553.876	34345.63
554.076	34534.04
554.275	33868.45
554.475	33866.41
554.674	33944.23
554.874	34267.81
555.074	33991.33
555.273	34304.67
555.473	34343.58
555.672	33807.01
555.872	34378.4
556.071	34013.86
556.271	33807.01
556.47	33655.47
556.67	33213.1
556.869	33950.37
557.068	33776.3
557.268	33311.41
557.467	33825.45
557.667	33673.9
557.866	33409.71
558.065	33493.68
558.265	33514.16
558.464	33229.49
558.663	33970.85
558.863	33176.24
559.062	33634.99
559.261	32910
559.461	33790.63
559.66	32766.65
559.859	33178.29
560.058	32651.96
560.258	33155.76
560.457	32682.68
560.656	32991.92
560.855	32735.93
561.054	32895.67
561.253	32395.96
561.453	32584.38
561.652	32916.15
561.851	32615.1
562.05	31957.7
562.249	32135.87
562.448	32447.16
562.647	32557.75
562.846	32115.39
563.045	32316.09
563.244	31744.71
563.443	32285.37
563.642	31591.11
563.841	31544.01
564.04	31871.68
564.239	31931.08
564.438	31107.79
564.637	31826.63
564.836	31484.62
565.035	31283.92
565.234	31392.46
565.432	31167.18
565.631	31105.74
565.83	31095.5
566.029	30538.46
566.228	30718.68
566.427	30606.04
566.625	30556.89
566.824	30358.24
567.023	30816.98
567.222	30061.28
567.42	30583.51
567.619	30079.71
567.818	30044.9
568.016	30243.55
568.215	30382.81
568.414	30104.29
568.612	30151.39
568.811	29883.11
569.01	29719.27
569.208	29461.23
569.407	29809.38
569.605	29504.23
569.804	29936.35
570.002	29123.31
570.201	29645.54
570.4	29176.56
570.598	29051.63
570.797	28596.98
570.995	29016.82
571.193	28601.08
571.392	28752.63
571.59	28551.93
571.789	28801.78
571.987	28357.37
572.186	28525.3
572.384	28105.47
572.582	28551.93
572.781	28222.2
572.979	27726.6
573.177	27970.3
573.376	27779.84
573.574	27706.12
573.772	27816.71
573.971	27589.38
574.169	27646.72
574.367	27585.29
574.565	27783.94
574.763	27157.26
574.962	27185.93
575.16	27075.34
575.358	27061.01
575.556	26684.18
575.754	27024.14
575.952	26614.55
576.151	26872.59
576.349	26489.62
576.547	26620.69
576.745	26544.92
576.943	26639.12
577.141	26098.46
577.339	26237.72
577.537	26264.35
577.735	26059.55
577.933	26082.08
578.131	26045.21
578.329	25817.89
578.527	25660.2
578.725	25756.45
578.923	25985.82
579.121	25590.56
579.319	25508.65
579.516	25273.13
579.714	25201.45
579.912	25666.34
580.11	25357.1
580.308	25432.87
580.506	25355.05
580.704	24546.1
580.901	24822.58
581.099	25197.35
581.297	24404.79
581.495	24574.77
581.692	24771.38
581.89	24517.43
582.088	24703.79
582.285	24351.54
582.483	24396.6
582.681	24394.55
582.878	24021.82
583.076	23763.78
583.274	24415.03
583.471	23765.82
583.669	24085.31
583.866	23679.81
584.064	23868.22
584.262	23436.1
584.459	23620.42
584.657	23563.08
584.854	23860.03
585.052	23475.01
585.249	23720.77
585.447	23403.33
585.644	23163.72
585.841	23378.76
586.039	22993.74
586.236	22881.1
586.434	22770.51
586.631	22850.38
586.828	22956.88
587.026	23229.26
587.223	22625.11
587.42	22467.41
587.618	22874.96
587.815	22481.75
588.012	22371.16
588.21	22305.62
588.407	22432.6
588.604	22299.48
588.801	21850.97
588.999	21820.25
589.196	21889.88
589.393	21939.04
589.59	21977.95
589.787	21756.77
589.984	21746.53
590.182	21662.56
590.379	22008.67
590.576	21597.03
590.773	21498.72
590.97	21320.55
591.167	21218.15
591.364	21148.52
591.561	21146.47
591.758	20970.35
591.955	20980.59
592.152	21289.83
592.349	20923.24
592.546	20908.91
592.743	20720.49
592.94	20661.1
593.137	20530.03
593.334	20704.11
593.531	20468.59
593.727	20558.7
593.924	20650.86
594.121	20325.24
594.318	20755.31
594.515	19923.83
594.712	20454.26
594.908	19975.03
595.105	20001.66
595.302	19993.47
595.499	20163.45
595.696	20147.06
595.892	19807.1
596.089	19626.88
596.286	19940.22
596.482	19602.3
596.679	19710.85
596.876	19544.96
597.072	19272.58
597.269	19663.74
597.466	19272.58
597.662	19307.4
597.859	19374.98
598.055	19471.23
598.252	19014.54
598.448	19045.26
598.645	18946.95
598.841	18848.65
599.038	18789.26
599.234	18969.48
599.431	19024.78
599.627	18803.6
599.824	18652.05
600.02	18713.49
600.217	18420.63
600.413	18346.9
600.609	18201.49
600.806	18447.25
601.002	18361.23
601.198	18119.57
601.395	18125.72
601.591	18369.43
601.787	18336.66
601.984	18082.71
602.18	18041.75
602.376	18035.61
602.572	17980.31
602.769	18015.13
602.965	17828.76
603.161	17748.89
603.357	17681.31
603.553	17658.78
603.75	17542.05
603.946	17617.82
604.142	17580.96
604.338	17118.12
604.534	17259.43
604.73	17093.54
604.926	17243.04
605.122	16927.66
605.318	16962.47
605.514	16892.84
605.71	16960.42
605.906	17099.69
606.102	16849.83
606.298	17011.62
606.494	16808.87
606.69	16739.24
606.886	16794.54
607.082	16358.32
607.278	16690.09
607.474	16329.65
607.67	16722.86
607.866	16169.91
608.062	16702.38
608.257	16483.25
608.453	16548.78
608.649	16489.39
608.845	16343.99
609.041	16143.28
609.236	16221.11
609.432	16194.48
609.628	16251.83
609.824	16231.35
610.019	16001.97
610.215	15891.38
610.411	15938.49
610.606	15852.47
610.802	16022.45
610.998	15705.02
611.193	15791.03
611.389	15629.24
611.584	15694.78
611.78	15715.26
611.976	15539.13
612.171	15801.27
612.367	15868.86
612.562	15545.28
612.758	15414.21
612.953	15604.67
613.149	15543.23
613.344	15254.47
613.539	15498.17
613.735	15438.78
613.93	15412.16
614.126	15188.93
614.321	15442.88
614.517	15139.78
614.712	15086.53
614.907	15121.35
615.103	14984.13
615.298	15029.19
615.493	15064
615.688	14660.55
615.884	15276.99
616.079	14857.16
616.274	14826.44
616.47	14859.21
616.665	14640.08
616.86	14730.19
617.055	14883.78
617.25	14660.55
617.445	14728.14
617.641	14648.27
617.836	14650.32
618.031	14482.38
618.226	14339.02
618.421	14255.06
618.616	14552.01
618.811	14181.33
619.006	14506.96
619.201	14019.54
619.396	14146.51
619.591	13835.22
619.786	14203.86
619.981	14005.2
620.176	14138.32
620.371	13738.97
620.566	13870.04
620.761	13568.99
620.956	13837.27
621.151	13532.12
621.346	13489.12
621.541	13431.77
621.735	13759.45
621.93	13384.67
622.125	13489.12
622.32	13255.65
622.515	13218.78
622.709	12993.51
622.904	12970.98
623.099	13046.76
623.294	12948.45
623.488	12817.38
623.683	12999.65
623.878	12729.32
624.072	12749.8
624.267	12833.77
624.462	12469.23
624.656	12403.69
624.851	12545
625.046	12284.91
625.24	12358.64
625.435	12141.55
625.629	12250.1
625.824	12289.01
626.018	12100.59
626.213	12057.59
626.407	12026.87
626.602	11598.84
626.796	11568.12
626.991	11865.08
627.185	11611.13
627.38	11744.25
627.574	11471.87
627.768	11457.53
627.963	11404.28
628.157	11453.44
628.352	11394.04
628.546	11232.26
628.74	11283.45
628.935	10910.72
629.129	11168.77
629.323	10679.3
629.517	10857.48
629.712	10894.34
629.906	10839.05
630.1	10650.63
630.294	10640.39
630.489	10492.94
630.683	10660.87
630.877	10398.73
631.071	10308.62
631.265	10509.32
631.459	10501.13
631.653	10255.37
631.848	10189.84
632.042	10159.12
632.236	10347.53
632.43	10056.72
632.624	9987.09
632.818	10122.26
633.012	9892.88
633.206	9907.22
633.4	9892.88
633.594	9612.31
633.788	9702.42
633.982	9819.16
634.176	9700.37
634.369	9552.92
634.563	9622.55
634.757	9399.32
634.951	9452.57
635.145	9446.43
635.339	9458.71
635.533	9167.9
635.726	9292.83
635.92	9172
636.114	9110.56
636.308	9020.45
636.501	9210.91
636.695	8920.1
636.889	8868.9
637.083	8887.33
637.276	8725.54
637.47	8905.76
637.664	8731.69
637.857	8801.32
638.051	8848.42
638.244	8778.79
638.438	8565.8
638.632	8614.95
638.825	8457.26
639.019	8348.72
639.212	8356.91
639.406	8309.8
639.599	8227.89
639.793	8207.41
639.986	8139.82
640.18	8172.59
640.373	8109.1
640.567	8008.75
640.76	8094.77
640.954	8006.7
641.147	7951.41
641.34	7785.52
641.534	7978.03
641.727	7902.26
641.92	7746.61
642.114	7537.72
642.307	7740.47
642.5	7691.32
642.694	7482.42
642.887	7525.43
643.08	7715.89
643.273	7517.24
643.467	7377.98
643.66	7482.42
643.853	7435.32
644.046	7306.3
644.239	7201.85
644.432	7271.48
644.626	7218.24
644.819	7035.97
645.012	7115.84
645.205	7035.97
645.398	7025.73
645.591	7048.26
645.784	6863.94
645.977	6863.94
646.17	6915.14
646.363	6851.65
646.556	6851.65
646.749	6820.93
646.942	6798.4
647.135	6640.71
647.328	6603.85
647.521	6523.98
647.714	6530.12
647.907	6585.41
648.099	6333.51
648.292	6487.11
648.485	6372.43
648.678	6384.71
648.871	6358.09
649.064	6349.9
649.256	6397
649.449	6126.67
649.642	6241.36
649.835	6321.23
650.027	6192.2
650.22	6188.11
650.413	6050.89
650.605	6022.22
650.798	6016.08
650.991	6059.09
651.183	5997.65
651.376	5956.69
651.568	5866.58
651.761	5766.23
651.954	5856.34
652.146	5749.84
652.339	5833.81
652.531	5854.29
652.724	5653.59
652.916	5573.72
653.109	5606.49
653.301	5727.32
653.494	5715.03
653.686	5522.52
653.879	5735.51
654.071	5682.26
654.263	5471.32
654.456	5420.12
654.648	5526.61
654.84	5287
655.033	5452.89
655.225	5547.09
655.417	5248.09
655.61	5418.07
655.802	5438.55
655.994	5293.15
656.186	5178.46
656.379	5344.35
656.571	5203.04
656.763	5018.72
656.955	5174.36
657.148	5063.77
657.34	5051.49
657.532	4985.95
657.724	5084.25
657.916	5151.84
658.108	5026.91
658.3	5049.44
658.492	4910.18
658.684	4754.53
658.876	4748.39
659.068	4959.33
659.26	4777.06
659.452	4707.43
659.644	4850.78
659.836	4791.39
660.028	4682.85
660.22	4748.39
660.412	4705.38
660.604	4680.8
660.796	4654.18
660.988	4572.26
661.18	4498.53
661.372	4568.16
661.563	4555.88
661.755	4500.58
661.947	4389.99
662.139	4406.38
662.331	4543.59
662.522	4435.05
662.714	4408.42
662.906	4381.8
663.097	4469.86
663.289	4332.65
663.481	4269.16
663.673	4316.26
663.864	4228.2
664.056	4195.43
664.247	4127.85
664.439	4113.52
664.631	4181.1
664.822	4164.72
665.014	4160.62
665.205	4064.36
665.397	4125.8
665.588	4033.65
665.78	3961.97
665.971	4039.79
666.163	3990.64
666.354	3990.64
666.546	4011.12
666.737	4019.31
666.929	3970.16
667.12	3810.42
667.311	4011.12
667.503	3908.72
667.694	3814.51
667.885	3986.54
668.077	3892.34
668.268	3812.46
668.459	3918.96
668.651	3859.57
668.842	3777.65
669.033	3728.5
669.224	3843.18
669.416	3859.57
669.607	3695.73
669.798	3826.8
669.989	3753.07
670.18	3730.55
670.371	3683.44
670.563	3675.25
670.754	3597.43
670.945	3564.66
671.136	3767.41
671.327	3581.04
671.518	3566.71
671.709	3576.95
671.9	3560.56
672.091	3685.49
672.282	3454.07
672.473	3472.5
672.664	3538.04
672.855	3535.99
673.046	3507.32
673.237	3417.21
673.428	3611.76
673.619	3499.13
673.809	3519.6
674	3538.04
674.191	3445.88
674.382	3368.06
674.573	3351.67
674.764	3327.1
674.954	3427.45
675.145	3366.01
675.336	3282.04
675.527	3310.71
675.717	3466.36
675.908	3386.49
676.099	3339.38
676.289	3363.96
676.48	3384.44
676.671	3290.23
676.861	3282.04
677.052	3226.75
677.243	3333.24
677.433	3333.24
677.624	3421.3
677.814	3265.66
678.005	3277.94
678.195	3347.58
678.386	3290.23
678.576	3251.32
678.767	3265.66
678.957	3257.46
679.148	3302.52
679.338	3245.18
679.529	3241.08
679.719	3193.98
679.909	3255.42
680.1	3230.84
680.29	3179.64
680.481	3224.7
680.671	3148.92
680.861	3271.8
681.052	3222.65
681.242	3073.15
681.432	3155.07
681.622	3212.41
681.813	3265.66
682.003	3161.21
682.193	2985.09
682.383	3097.72
682.573	3136.63
682.764	3206.27
682.954	3171.45
683.144	3116.16
683.334	3009.66
683.524	3064.96
683.714	3062.91
683.904	2968.7
684.094	3114.11
684.284	3148.92
684.474	3189.88
684.664	3042.43
684.854	3150.97
685.044	3083.39
685.234	2954.37
685.424	3148.92
685.614	3026.04
685.804	3081.34
685.994	2915.45
686.184	2950.27
686.374	3003.52
686.564	2999.42
686.753	3007.61
686.943	2927.74
687.133	3050.62
687.323	2878.59
687.513	2942.08
687.702	2937.98
687.892	2886.78
688.082	2847.87
688.272	2987.13
688.461	2962.56
688.651	2870.4
688.841	2901.12
689.03	2833.54
689.22	2802.82
689.41	2780.29
689.599	2821.25
689.789	2811.01
689.979	2817.15
690.168	2724.99
690.358	2776.19
690.547	2708.61
690.737	2737.28
690.926	2921.6
691.116	2608.26
691.305	2700.42
691.495	2768
691.684	2663.55
691.874	2745.47
692.063	2688.13
692.252	2598.02
692.442	2743.42
692.631	2686.08
692.82	2700.42
693.01	2604.16
693.199	2741.38
693.388	2651.27
693.578	2600.07
693.767	2778.24
693.956	2724.99
694.146	2610.31
694.335	2569.35
694.524	2638.98
694.713	2688.13
694.902	2600.07
695.092	2641.03
695.281	2657.41
695.47	2571.4
695.659	2522.24
695.848	2550.92
696.037	2503.81
696.226	2579.59
696.415	2610.31
696.604	2485.38
696.793	2573.44
696.982	2616.45
697.171	2669.7
697.36	2512
697.549	2438.28
697.738	2417.8
697.927	2509.96
698.116	2382.98
698.305	2518.15
698.494	2608.26
698.683	2573.44
698.872	2483.33
699.061	2589.83
699.25	2552.96
699.438	2673.79
699.627	2612.35
699.816	2577.54
700.005	2516.1
700.193	2469
700.382	2550.92
700.571	2587.78
700.76	2573.44
700.948	2530.44
701.137	2462.85
701.326	2614.4
701.514	2552.96
701.703	2432.13
701.892	2460.81
702.08	2516.1
702.269	2514.05
702.457	2442.37
702.646	2509.96
702.834	2563.2
703.023	2507.91
703.212	2649.22
703.4	2526.34
703.589	2632.83
703.777	2641.03
703.965	2495.62
704.154	2571.4
704.342	2421.89
704.531	2538.63
704.719	2540.68
704.907	2591.88
705.096	2395.27
705.284	2466.95
705.472	2532.48
705.661	2532.48
705.849	2567.3
706.037	2489.48
706.226	2505.86
706.414	2600.07
706.602	2540.68
706.79	2561.16
706.979	2479.24
707.167	2602.11
707.355	2512
707.543	2595.97
707.731	2491.52
707.919	2595.97
708.107	2546.82
708.296	2514.05
708.484	2538.63
708.672	2577.54
708.86	2487.43
709.048	2598.02
709.236	2509.96
709.424	2665.6
709.612	2587.78
709.8	2610.31
709.988	2538.63
710.176	2534.53
710.364	2512
710.551	2587.78
710.739	2608.26
710.927	2505.86
711.115	2573.44
711.303	2475.14
711.491	2493.57
711.679	2487.43
711.866	2436.23
712.054	2538.63
712.242	2536.58
712.43	2671.75
712.617	2573.44
712.805	2430.09
712.993	2542.72
713.181	2514.05
713.368	2483.33
713.556	2636.93
713.744	2438.28
713.931	2557.06
714.119	2573.44
714.306	2460.81
714.494	2464.9
714.682	2595.97
714.869	2561.16
715.057	2538.63
715.244	2507.91
715.432	2397.32
715.619	2538.63
715.807	2587.78
715.994	2548.87
716.182	2491.52
716.369	2542.72
716.556	2522.24
716.744	2571.4
716.931	2622.59
717.119	2606.21
717.306	2446.47
717.493	2563.2
717.681	2491.52
717.868	2573.44
718.055	2485.38
718.242	2462.85
718.43	2561.16
718.617	2589.83
718.804	2575.49
718.991	2589.83
719.179	2606.21
719.366	2589.83
719.553	2462.85
719.74	2405.51
719.927	2561.16
720.114	2473.09
720.301	2536.58
720.488	2444.42
720.676	2471.04
720.863	2507.91
721.05	2321.54
721.237	2550.92
721.424	2516.1
721.611	2641.03
721.798	2507.91
721.985	2487.43
722.172	2509.96
722.358	2548.87
722.545	2493.57
722.732	2454.66
722.919	2552.96
723.106	2610.31
723.293	2569.35
723.48	2630.79
723.667	2536.58
723.853	2458.76
724.04	2548.87
724.227	2661.51
724.414	2528.39
724.6	2471.04
724.787	2630.79
724.974	2569.35
725.161	2583.68
725.347	2661.51
725.534	2534.53
725.72	2469
725.907	2524.29
726.094	2452.61
726.28	2462.85
726.467	2612.35
726.653	2444.42
726.84	2589.83
727.027	2503.81
727.213	2555.01
727.4	2626.69
727.586	2475.14
727.773	2423.94
727.959	2464.9
728.145	2536.58
728.332	2507.91
728.518	2464.9
728.705	2522.24
728.891	2460.81
729.077	2557.06
729.264	2544.77
729.45	2446.47
729.636	2536.58
729.823	2528.39
730.009	2595.97
730.195	2489.48
730.382	2520.2
730.568	2645.12
730.754	2473.09
730.94	2456.71
731.126	2516.1
731.313	2583.68
731.499	2448.52
731.685	2544.77
731.871	2421.89
732.057	2595.97
732.243	2522.24
732.429	2503.81
732.615	2557.06
732.801	2462.85
732.987	2446.47
733.173	2536.58
733.359	2458.76
733.545	2475.14
733.731	2428.04
733.917	2458.76
734.103	2395.27
734.289	2389.13
734.475	2452.61
734.661	2559.11
734.847	2376.84
735.033	2448.52
735.219	2536.58
735.404	2569.35
735.59	2440.33
735.776	2413.7
735.962	2518.15
736.148	2489.48
736.333	2466.95
736.519	2436.23
736.705	2407.56
736.89	2466.95
737.076	2438.28
737.262	2450.57
737.447	2413.7
737.633	2397.32
737.819	2524.29
738.004	2335.88
738.19	2428.04
738.375	2454.66
738.561	2368.65
738.747	2378.89
738.932	2489.48
739.118	2456.71
739.303	2397.32
739.489	2419.85
739.674	2415.75
739.859	2362.5
740.045	2372.74
740.23	2378.89
740.416	2305.16
740.601	2493.57
740.786	2370.69
740.972	2331.78
741.157	2268.3
741.342	2200.71
741.528	2376.84
741.713	2323.59
741.898	2186.38
742.084	2253.96
742.269	2266.25
742.454	2245.77
742.639	2258.06
742.824	2303.11
743.01	2292.87
743.195	2329.74
743.38	2348.17
743.565	2256.01
743.75	2260.1
743.935	2198.67
744.12	2180.23
744.305	2219.14
744.49	2180.23
744.675	2190.47
744.86	2256.01
745.045	2184.33
745.23	2124.94
745.415	2104.46
745.6	2102.41
745.785	2090.12
745.97	2120.84
746.155	2055.31
746.34	2192.52
746.525	2036.88
746.71	2083.98
746.895	1995.92
747.079	2077.83
747.264	2016.4
747.449	2038.92
747.634	2012.3
747.819	1995.92
748.003	2008.2
748.188	1889.42
748.373	1952.91
748.557	1934.48
748.742	1926.29
748.927	1848.46
749.111	1954.96
749.296	1911.95
749.481	1932.43
749.665	1803.41
749.85	1807.5
750.034	1901.71
750.219	1793.17
750.404	1905.81
750.588	1870.99
750.773	1805.46
750.957	1819.79
751.141	1696.91
751.326	1754.26
751.51	1758.35
751.695	1760.4
751.879	1694.86
752.064	1836.17
752.248	1793.17
752.432	1727.63
752.617	1731.73
752.801	1758.35
752.985	1725.58
753.17	1715.34
753.354	1637.52
753.538	1631.38
753.722	1645.71
753.907	1686.67
754.091	1637.52
754.275	1555.6
754.459	1600.66
754.643	1547.41
754.828	1590.42
755.012	1514.64
755.196	1432.72
755.38	1578.13
755.564	1469.59
755.748	1508.5
755.932	1514.64
756.116	1455.25
756.3	1492.12
756.484	1490.07
756.668	1506.45
756.852	1551.51
757.036	1410.2
757.22	1453.2
757.404	1375.38
757.588	1404.05
757.772	1346.71
757.956	1371.29
758.14	1408.15
758.323	1442.96
758.507	1365.14
758.691	1299.61
758.875	1363.09
759.059	1361.05
759.242	1289.37
759.426	1232.02
759.61	1297.56
759.794	1264.79
759.977	1301.65
760.161	1313.94
760.345	1289.37
760.528	1307.8
760.712	1242.26
760.895	1303.7
761.079	1264.79
761.263	1189.02
761.446	1143.96
761.63	1236.12
761.813	1270.94
761.997	1234.07
762.18	1197.21
762.364	1150.11
762.547	1135.77
762.731	1217.69
762.914	1229.98
763.098	1176.73
763.281	1160.34
763.464	1137.82
763.648	1041.56
763.831	1115.29
764.015	1103
764.198	1162.39
764.381	1207.45
764.564	1000.6
764.748	1117.34
764.931	1184.92
765.114	1049.75
765.297	1068.19
765.481	1057.95
765.664	1084.57
765.847	1092.76
766.03	1019.04
766.213	1008.8
766.397	1125.53
766.58	1074.33
766.763	1008.8
766.946	1012.89
767.129	1037.47
767.312	1090.71
767.495	1021.08
767.678	1080.47
767.861	1094.81
768.044	1148.06
768.227	1041.56
768.41	1021.08
768.593	1090.71
768.776	1010.84
768.959	961.69
769.142	914.59
769.324	1074.33
769.507	916.64
769.69	973.98
769.873	904.35
770.056	988.32
770.239	871.58
770.421	998.56
770.604	892.06
770.787	926.88
770.97	908.44
771.152	928.92
771.335	947.36
771.518	957.6
771.7	926.88
771.883	941.21
772.066	953.5
772.248	941.21
772.431	873.63
772.613	892.06
772.796	849.05
772.978	881.82
773.161	881.82
773.343	826.53
773.526	902.3
773.708	814.24
773.891	793.76
774.073	867.49
774.256	808.09
774.438	918.68
774.621	853.15
774.803	871.58
774.985	795.81
775.168	847.01
775.35	793.76
775.532	736.42
775.715	707.74
775.897	783.52
776.079	789.66
776.261	832.67
776.444	703.65
776.626	787.61
776.808	760.99
776.99	724.13
777.173	740.51
777.355	754.85
777.537	754.85
777.719	760.99
777.901	717.98
778.083	711.84
778.265	701.6
778.447	752.8
778.629	656.54
778.811	556.19
778.993	636.06
779.175	744.61
779.357	660.64
779.539	677.02
779.721	683.17
779.903	640.16
780.085	636.06
780.267	679.07
780.449	562.34
780.631	703.65
780.812	654.5
780.994	617.63
781.176	646.3
781.358	584.87
781.54	582.82
781.721	541.86
781.903	556.19
782.085	582.82
782.267	625.83
782.448	656.54
782.63	576.67
782.812	588.96
782.993	527.52
783.175	535.71
783.357	545.95
783.538	554.15
783.72	541.86
783.901	599.2
784.083	521.38
784.264	478.37
784.446	464.04
784.627	453.8
784.809	486.56
784.99	486.56
785.172	535.71
785.353	435.36
785.535	468.13
785.716	400.55
785.897	521.38
786.079	541.86
786.26	468.13
786.441	595.11
786.623	464.04
786.804	451.75
786.985	525.47
787.167	494.76
787.348	386.21
787.529	504.99
787.71	550.05
787.891	398.5
788.073	455.84
788.254	396.45
788.435	474.28
788.616	513.19
788.797	441.51
788.978	451.75
789.159	386.21
789.34	453.8
789.522	394.4
789.703	388.26
789.884	414.88
790.065	437.41
790.246	373.92
790.427	378.02
790.607	455.84
790.788	320.68
790.969	404.64
791.15	384.16
791.331	371.88
791.512	328.87
791.693	392.36
791.874	302.25
792.054	480.42
792.235	476.32
792.416	330.92
792.597	341.16
792.778	406.69
792.958	365.73
793.139	316.58
793.32	386.21
793.5	402.6
793.681	328.87
793.862	285.86
794.042	314.53
794.223	335.01
794.404	294.05
794.584	378.02
794.765	302.25
794.945	365.73
795.126	255.14
795.306	314.53
795.487	330.92
795.667	429.22
795.848	359.59
796.028	316.58
796.209	324.77
796.389	308.39
796.57	298.15
796.75	287.91
796.93	300.2
797.111	271.53
797.291	357.54
797.471	392.36
797.652	367.78
797.832	298.15
798.012	341.16
798.192	345.25
798.373	279.72
798.553	259.24
798.733	328.87
798.913	318.63
799.093	302.25
799.274	339.11
799.454	267.43
799.634	285.86
799.814	306.34
799.994	230.57
800.174	330.92
800.354	234.66
800.534	244.9
800.714	201.9
800.894	304.29
801.074	298.15
801.254	214.18
801.434	210.09
801.614	300.2
801.794	265.38
801.974	611.49
802.154	255.14
802.334	316.58
802.514	220.33
802.693	240.81
802.873	232.62
803.053	251.05
803.233	294.05
803.413	312.49
803.592	208.04
803.772	263.33
803.952	251.05
804.131	326.82
804.311	269.48
804.491	283.81
804.67	187.56
804.85	230.57
805.03	216.23
805.209	222.38
805.389	208.04
805.568	267.43
805.748	197.8
805.928	281.77
806.107	269.48
806.287	224.42
806.466	240.81
806.646	263.33
806.825	253.09
807.004	226.47
807.184	230.57
807.363	314.53
807.543	175.27
807.722	253.09
807.901	214.18
808.081	236.71
808.26	212.14
808.439	169.13
808.619	185.51
808.798	119.98
808.977	160.94
809.156	203.94
809.336	193.7
809.515	218.28
809.694	187.56
809.873	236.71
810.052	179.37
810.231	205.99
810.411	189.61
810.59	173.22
810.769	259.24
810.948	158.89
811.127	165.03
811.306	193.7
811.485	183.46
811.664	255.14
811.843	187.56
812.022	193.7
812.201	154.79
812.38	181.42
812.559	162.98
812.737	189.61
812.916	173.22
813.095	130.22
813.274	156.84
813.453	148.65
813.632	183.46
813.811	167.08
813.989	197.8
814.168	181.42
814.347	183.46
814.526	173.22
814.704	183.46
814.883	158.89
815.062	101.55
815.24	246.95
815.419	162.98
815.598	144.55
815.776	191.66
815.955	119.98
816.133	83.11
816.312	255.14
816.49	97.45
816.669	91.31
816.847	177.32
817.026	146.6
817.204	152.74
817.383	140.46
817.561	83.11
817.74	152.74
817.918	199.85
818.097	97.45
818.275	156.84
818.453	158.89
818.632	154.79
818.81	181.42
818.988	87.21
819.167	85.16
819.345	187.56
819.523	171.18
819.701	111.78
819.879	97.45
820.058	103.59
820.236	136.36
820.414	85.16
820.592	107.69
820.77	81.07
820.948	107.69
821.127	95.4
821.305	173.22
821.483	136.36
821.661	181.42
821.839	115.88
822.017	136.36
822.195	140.46
822.373	199.85
822.551	154.79
822.729	160.94
822.907	156.84
823.085	183.46
823.262	183.46
823.44	132.26
823.618	85.16
823.796	72.87
823.974	119.98
824.152	74.92
824.329	105.64
824.507	115.88
824.685	83.11
824.863	109.74
825.04	142.5
825.218	132.26
825.396	150.7
825.574	144.55
825.751	136.36
825.929	111.78
826.107	81.07
826.284	95.4
826.462	156.84
826.639	72.87
826.817	79.02
826.994	91.31
827.172	83.11
827.349	199.85
827.527	58.54
827.704	113.83
827.882	160.94
828.059	97.45
828.237	115.88
828.414	179.37
828.591	76.97
828.769	171.18
828.946	64.68
829.124	105.64
829.301	81.07
829.478	91.31
829.655	107.69
829.833	148.65
830.01	89.26
830.187	79.02
830.364	76.97
830.542	97.45
830.719	54.44
830.896	76.97
831.073	60.59
831.25	122.02
831.427	140.46
831.604	117.93
831.782	56.49
831.959	132.26
832.136	119.98
832.313	79.02
832.49	103.59
832.667	64.68
832.844	66.73
833.021	85.16
833.198	46.25
833.374	140.46
833.551	132.26
833.728	95.4
833.905	130.22
834.082	107.69
834.259	42.15
834.436	171.18
834.612	105.64
834.789	50.35
834.966	97.45
835.143	74.92
835.319	95.4
835.496	91.31
835.673	48.3
835.85	117.93
836.026	62.63
836.203	119.98
836.38	42.15
836.556	134.31
836.733	122.02
836.909	138.41
837.086	66.73
837.262	23.72
837.439	46.25
837.616	-4.95
837.792	79.02
837.968	103.59
838.145	83.11
838.321	117.93
838.498	97.45
838.674	181.42
838.851	70.83
839.027	89.26
839.203	27.82
839.38	95.4
839.556	126.12
839.732	46.25
839.909	60.59
840.085	95.4
840.261	5.29
840.437	76.97
840.614	91.31
840.79	136.36
840.966	54.44
841.142	142.5
841.318	54.44
841.494	95.4
841.671	60.59
841.847	76.97
842.023	-19.29
842.199	117.93
842.375	109.74
842.551	83.11
842.727	25.77
842.903	122.02
843.079	19.63
843.255	72.87
843.431	1.19
843.607	48.3
843.783	42.15
843.959	64.68
844.134	74.92
844.31	-13.14
844.486	93.35
844.662	56.49
844.838	29.87
845.013	169.13
845.189	79.02
845.365	81.07
845.541	81.07
845.716	76.97
845.892	124.07
846.068	48.3
846.244	81.07
846.419	70.83
846.595	56.49
846.77	50.35
846.946	11.43
847.122	115.88
847.297	68.78
847.473	44.2
847.648	109.74
847.824	58.54
847.999	60.59
848.175	23.72
848.35	62.63
848.526	79.02
848.701	124.07
848.876	58.54
849.052	5.29
849.227	46.25
849.403	19.63
849.578	74.92
849.753	1.19
849.929	89.26
850.104	-19.29
850.279	50.35
850.454	81.07
850.63	60.59
850.805	21.67
850.98	68.78
851.155	13.48
851.33	27.82
851.505	33.96
851.681	111.78
851.856	31.91
852.031	50.35
852.206	89.26
852.381	42.15
852.556	85.16
852.731	13.48
852.906	138.41
853.081	17.58
853.256	70.83
853.431	38.06
853.606	-2.9
853.781	93.35
853.956	5.29
854.131	103.59
854.305	103.59
854.48	36.01
854.655	33.96
854.83	54.44
855.005	46.25
855.18	91.31
855.354	1.19
855.529	74.92
855.704	56.49
855.879	-23.38
856.053	25.77
856.228	54.44
856.403	38.06
856.577	91.31
856.752	60.59
856.926	54.44
857.101	54.44
857.276	13.48
857.45	56.49
857.625	95.4
857.799	50.35
857.974	48.3
858.148	58.54
858.323	81.07
858.497	76.97
858.672	36.01
858.846	-7
859.02	5.29
859.195	42.15
859.369	60.59
859.543	-33.62
859.718	58.54
859.892	21.67
860.066	15.53
860.241	33.96
860.415	50.35
860.589	15.53
860.763	76.97
860.938	29.87
861.112	-7
861.286	5.29
861.46	52.39
861.634	46.25
861.808	-15.19
861.982	60.59
862.157	5.29
862.331	31.91
862.505	17.58
862.679	-66.39
862.853	9.39
863.027	56.49
863.201	-7
863.375	17.58
863.549	21.67
863.722	5.29
863.896	85.16
864.07	115.88
864.244	44.2
864.418	23.72
864.592	74.92
864.766	-2.9
864.939	-9.05
865.113	33.96
865.287	64.68
865.461	9.39
865.634	31.91
865.808	15.53
865.982	15.53
866.156	40.11
866.329	-54.1
866.503	-13.14
866.676	21.67
866.85	-11.09
867.024	46.25
867.197	7.34
867.371	42.15
867.544	-17.24
867.718	76.97
867.891	-11.09
868.065	36.01
868.238	38.06
868.412	66.73
868.585	-2.9
868.759	128.17
868.932	-27.48
869.105	21.67
869.279	1.19
869.452	-35.67
869.625	44.2
869.799	42.15
869.972	5.29
870.145	76.97
870.319	66.73
870.492	1.19
870.665	-45.91
870.838	21.67
871.011	-0.85
871.185	27.82
871.358	33.96
871.531	27.82
871.704	-19.29
871.877	5.29
872.05	-15.19
872.223	-9.05
872.396	79.02
872.569	68.78
872.742	1.19
872.915	13.48
873.088	5.29
873.261	-15.19
873.434	64.68
873.607	60.59
873.78	25.77
873.953	48.3
874.126	119.98
874.299	48.3
874.471	17.58
874.644	36.01
874.817	42.15
874.99	117.93
875.163	5.29
875.335	70.83
875.508	9.39
875.681	54.44
875.853	21.67
876.026	-23.38
876.199	13.48
876.371	40.11
876.544	-7
876.717	-37.72
876.889	70.83
877.062	76.97
877.234	-39.76
877.407	115.88
877.579	31.91
877.752	-45.91
877.924	70.83
878.097	17.58
878.269	-31.57
878.442	-2.9
878.614	9.39
878.786	62.63
878.959	46.25
879.131	31.91
879.303	-39.76
879.476	11.43
879.648	103.59
879.82	33.96
879.993	70.83
880.165	-31.57
880.337	85.16
880.509	58.54
880.681	36.01
880.854	38.06
881.026	-0.85
881.198	44.2
881.37	38.06
881.542	122.02
881.714	21.67
881.886	56.49
882.058	-11.09
882.23	79.02
882.402	9.39
882.574	38.06
882.746	44.2
882.918	46.25
883.09	1.19
883.262	27.82
883.434	11.43
883.606	-43.86
883.778	42.15
883.95	-47.96
884.122	-4.95
884.293	9.39
884.465	11.43
884.637	7.34
884.809	13.48
884.98	68.78
885.152	42.15
885.324	27.82
885.496	-0.85
885.667	7.34
885.839	42.15
886.011	81.07
886.182	76.97
886.354	17.58
886.525	42.15
886.697	33.96
886.869	-27.48
887.04	9.39
887.212	-35.67
887.383	27.82
887.555	42.15
887.726	-9.05
887.897	-37.72
888.069	-19.29
888.24	31.91
888.412	-7
888.583	7.34
888.754	17.58
888.926	36.01
889.097	33.96
889.268	-2.9
889.44	72.87
889.611	-50
889.782	-11.09
889.953	3.24
890.125	9.39
890.296	42.15
890.467	15.53
890.638	13.48
890.809	40.11
890.98	-15.19
891.151	33.96
891.323	36.01
891.494	101.55
891.665	42.15
891.836	-31.57
892.007	-27.48
892.178	109.74
892.349	42.15
892.52	54.44
892.691	33.96
892.862	25.77
893.032	-64.34
893.203	5.29
893.374	38.06
893.545	27.82
893.716	-27.48
893.887	1.19
894.057	-19.29
894.228	-35.67
894.399	-29.52
894.57	74.92
894.74	-7
894.911	29.87
895.082	33.96
895.253	33.96
895.423	29.87
895.594	40.11
895.764	48.3
895.935	21.67
896.106	5.29
896.276	5.29
896.447	42.15
896.617	21.67
896.788	19.63
896.958	5.29
897.129	3.24
897.299	13.48
897.47	-84.82
897.64	13.48
897.81	-9.05
897.981	-50
898.151	3.24
898.322	-0.85
898.492	21.67
898.662	29.87
898.832	95.4
899.003	1.19
899.173	40.11
899.343	-31.57
899.513	-31.57
