Data from USB4F104151__144__11-08-12-251.txt Node

Date: Wed Mar 12 11:08:12 EDT 2025
User: louis
Spectrometer: USB4F10415
Trigger mode: 4
Integration Time (sec): 2.000000E-2
Scans to average: 1
Electric dark correction enabled: true
Nonlinearity correction enabled: false
Boxcar width: 0
XAxis mode: Wavelengths
Number of Pixels in Spectrum: 3648
>>>>>Begin Spectral Data<<<<<
178.204	-108.03
178.424	-108.03
178.644	-108.03
178.864	-97.79
179.084	-153.09
179.304	-17.92
179.524	16.9
179.744	6.66
179.964	20.99
180.184	-26.11
180.404	-15.87
180.624	-13.82
180.844	23.04
181.064	-7.68
181.283	14.85
181.503	-17.92
181.723	16.9
181.943	-9.73
182.163	78.33
182.383	6.66
182.602	4.61
182.822	55.81
183.042	-3.58
183.262	-3.58
183.482	-5.63
183.701	16.9
183.921	-7.68
184.141	2.56
184.361	4.61
184.58	31.23
184.8	43.52
185.02	10.75
185.239	61.95
185.459	-3.58
185.679	-38.4
185.898	-67.07
186.118	68.09
186.338	-1.54
186.557	18.94
186.777	-3.58
186.997	8.7
187.216	27.14
187.436	-9.73
187.655	29.18
187.875	10.75
188.095	31.23
188.314	20.99
188.534	41.47
188.753	35.33
188.973	14.85
189.192	12.8
189.412	49.66
189.631	-36.35
189.851	18.94
190.07	4.61
190.29	100.86
190.509	12.8
190.729	70.14
190.948	-32.26
191.168	76.29
191.387	86.53
191.607	47.62
191.826	6.66
192.045	55.81
192.265	4.61
192.484	-17.92
192.704	-28.16
192.923	29.18
193.142	18.94
193.362	-34.3
193.581	68.09
193.8	10.75
194.02	25.09
194.239	-15.87
194.458	18.94
194.678	-1.54
194.897	117.25
195.116	18.94
195.335	-15.87
195.555	90.62
195.774	10.75
195.993	27.14
196.212	84.48
196.432	-9.73
196.651	66.05
196.87	-3.58
197.089	41.47
197.308	27.14
197.528	-28.16
197.747	-19.97
197.966	98.81
198.185	37.38
198.404	29.18
198.623	27.14
198.842	-65.02
199.062	23.04
199.281	84.48
199.5	-24.06
199.719	33.28
199.938	14.85
200.157	127.49
200.376	-40.45
200.595	55.81
200.814	64
201.033	107.01
201.252	59.9
201.471	0.51
201.69	41.47
201.909	55.81
202.128	43.52
202.347	45.57
202.566	6.66
202.785	6.66
203.004	-9.73
203.223	104.96
203.442	-30.21
203.661	-48.64
203.879	4.61
204.098	37.38
204.317	64
204.536	57.86
204.755	-24.06
204.974	78.33
205.193	45.57
205.411	66.05
205.63	6.66
205.849	76.29
206.068	31.23
206.287	33.28
206.505	27.14
206.724	4.61
206.943	-1.54
207.162	39.42
207.381	113.15
207.599	-7.68
207.818	43.52
208.037	59.9
208.255	-30.21
208.474	33.28
208.693	14.85
208.911	20.99
209.13	84.48
209.349	49.66
209.567	43.52
209.786	51.71
210.005	31.23
210.223	-11.78
210.442	-42.5
210.661	102.91
210.879	29.18
211.098	14.85
211.316	-17.92
211.535	55.81
211.753	47.62
211.972	59.9
212.191	25.09
212.409	49.66
212.628	70.14
212.846	14.85
213.065	70.14
213.283	59.9
213.502	23.04
213.72	80.38
213.938	-89.6
214.157	27.14
214.375	-42.5
214.594	23.04
214.812	20.99
215.031	6.66
215.249	92.67
215.467	31.23
215.686	27.14
215.904	64
216.122	25.09
216.341	100.86
216.559	16.9
216.778	45.57
216.996	37.38
217.214	64
217.432	-19.97
217.651	25.09
217.869	61.95
218.087	20.99
218.306	18.94
218.524	51.71
218.742	72.19
218.96	37.38
219.179	-1.54
219.397	25.09
219.615	127.49
219.833	57.86
220.051	16.9
220.27	49.66
220.488	43.52
220.706	39.42
220.924	8.7
221.142	16.9
221.36	-17.92
221.578	55.81
221.796	-26.11
222.015	43.52
222.233	35.33
222.451	29.18
222.669	27.14
222.887	16.9
223.105	18.94
223.323	104.96
223.541	20.99
223.759	90.62
223.977	12.8
224.195	68.09
224.413	84.48
224.631	61.95
224.849	31.23
225.067	125.44
225.285	43.52
225.503	86.53
225.721	-1.54
225.939	41.47
226.157	74.24
226.375	76.29
226.592	-1.54
226.81	-7.68
227.028	61.95
227.246	31.23
227.464	4.61
227.682	-28.16
227.9	6.66
228.117	25.09
228.335	39.42
228.553	12.8
228.771	55.81
228.989	33.28
229.206	-15.87
229.424	76.29
229.642	-7.68
229.86	51.71
230.077	18.94
230.295	57.86
230.513	68.09
230.731	78.33
230.948	64
231.166	-36.35
231.384	0.51
231.601	-7.68
231.819	76.29
232.037	43.52
232.254	33.28
232.472	23.04
232.689	-58.88
232.907	-13.82
233.125	-9.73
233.342	-24.06
233.56	18.94
233.777	35.33
233.995	10.75
234.213	72.19
234.43	2.56
234.648	-50.69
234.865	59.9
235.083	45.57
235.3	31.23
235.518	41.47
235.735	10.75
235.953	-54.78
236.17	-7.68
236.388	-50.69
236.605	88.57
236.822	125.44
237.04	-30.21
237.257	61.95
237.475	-32.26
237.692	45.57
237.909	6.66
238.127	16.9
238.344	-44.54
238.562	29.18
238.779	35.33
238.996	-28.16
239.214	64
239.431	35.33
239.648	-101.89
239.865	8.7
240.083	18.94
240.3	-9.73
240.517	2.56
240.735	35.33
240.952	37.38
241.169	0.51
241.386	61.95
241.603	25.09
241.821	-11.78
242.038	31.23
242.255	27.14
242.472	2.56
242.689	6.66
242.907	59.9
243.124	14.85
243.341	66.05
243.558	-13.82
243.775	45.57
243.992	20.99
244.209	-34.3
244.426	6.66
244.643	-17.92
244.86	57.86
245.078	2.56
245.295	53.76
245.512	64
245.729	20.99
245.946	43.52
246.163	88.57
246.38	43.52
246.597	57.86
246.814	12.8
247.031	-87.55
247.248	41.47
247.464	72.19
247.681	-42.5
247.898	18.94
248.115	117.25
248.332	51.71
248.549	25.09
248.766	66.05
248.983	31.23
249.2	47.62
249.417	25.09
249.633	-3.58
249.85	96.77
250.067	37.38
250.284	37.38
250.501	84.48
250.717	35.33
250.934	10.75
251.151	31.23
251.368	-38.4
251.585	0.51
251.801	72.19
252.018	20.99
252.235	-44.54
252.451	-30.21
252.668	0.51
252.885	29.18
253.102	51.71
253.318	47.62
253.535	-9.73
253.752	16.9
253.968	-30.21
254.185	27.14
254.401	47.62
254.618	94.72
254.835	4.61
255.051	70.14
255.268	-5.63
255.484	-7.68
255.701	4.61
255.917	78.33
256.134	0.51
256.351	-19.97
256.567	92.67
256.784	-3.58
257	-24.06
257.217	61.95
257.433	31.23
257.65	57.86
257.866	47.62
258.082	16.9
258.299	6.66
258.515	-40.45
258.732	33.28
258.948	18.94
259.165	74.24
259.381	-5.63
259.597	25.09
259.814	35.33
260.03	78.33
260.246	-9.73
260.463	37.38
260.679	2.56
260.895	6.66
261.112	82.43
261.328	29.18
261.544	-17.92
261.761	35.33
261.977	68.09
262.193	16.9
262.409	72.19
262.626	20.99
262.842	6.66
263.058	27.14
263.274	35.33
263.49	74.24
263.707	-22.02
263.923	-46.59
264.139	12.8
264.355	-7.68
264.571	78.33
264.787	-15.87
265.004	14.85
265.22	-15.87
265.436	27.14
265.652	33.28
265.868	31.23
266.084	-9.73
266.3	43.52
266.516	12.8
266.732	0.51
266.948	45.57
267.164	23.04
267.38	35.33
267.596	68.09
267.812	100.86
268.028	53.76
268.244	55.81
268.46	82.43
268.676	-17.92
268.892	-7.68
269.108	-17.92
269.324	4.61
269.54	6.66
269.756	10.75
269.972	12.8
270.188	39.42
270.403	47.62
270.619	12.8
270.835	20.99
271.051	18.94
271.267	16.9
271.483	86.53
271.698	16.9
271.914	45.57
272.13	113.15
272.346	57.86
272.562	2.56
272.777	33.28
272.993	-1.54
273.209	53.76
273.425	64
273.64	37.38
273.856	18.94
274.072	70.14
274.287	-11.78
274.503	49.66
274.719	47.62
274.934	66.05
275.15	-1.54
275.366	27.14
275.581	66.05
275.797	-13.82
276.012	23.04
276.228	113.15
276.444	61.95
276.659	86.53
276.875	37.38
277.09	31.23
277.306	29.18
277.521	-56.83
277.737	20.99
277.952	51.71
278.168	35.33
278.383	-13.82
278.599	64
278.814	53.76
279.03	-13.82
279.245	39.42
279.461	-34.3
279.676	16.9
279.892	43.52
280.107	10.75
280.322	43.52
280.538	20.99
280.753	31.23
280.969	23.04
281.184	12.8
281.399	37.38
281.615	41.47
281.83	43.52
282.045	-24.06
282.26	-50.69
282.476	29.18
282.691	39.42
282.906	-38.4
283.122	47.62
283.337	53.76
283.552	145.92
283.767	45.57
283.983	92.67
284.198	-5.63
284.413	27.14
284.628	12.8
284.843	12.8
285.058	76.29
285.274	27.14
285.489	-50.69
285.704	64
285.919	70.14
286.134	4.61
286.349	33.28
286.564	113.15
286.779	-60.93
286.995	41.47
287.21	-62.98
287.425	43.52
287.64	-30.21
287.855	47.62
288.07	-22.02
288.285	31.23
288.5	68.09
288.715	72.19
288.93	80.38
289.145	-3.58
289.36	35.33
289.575	39.42
289.79	51.71
290.004	51.71
290.219	53.76
290.434	25.09
290.649	-34.3
290.864	53.76
291.079	-28.16
291.294	2.56
291.509	-26.11
291.724	-22.02
291.938	66.05
292.153	96.77
292.368	-38.4
292.583	14.85
292.798	78.33
293.012	70.14
293.227	18.94
293.442	61.95
293.657	55.81
293.871	14.85
294.086	49.66
294.301	86.53
294.516	57.86
294.73	70.14
294.945	-99.84
295.16	-52.74
295.374	41.47
295.589	41.47
295.804	49.66
296.018	72.19
296.233	43.52
296.447	23.04
296.662	23.04
296.877	25.09
297.091	27.14
297.306	64
297.52	12.8
297.735	-1.54
297.949	0.51
298.164	35.33
298.378	4.61
298.593	25.09
298.807	76.29
299.022	68.09
299.236	33.28
299.451	41.47
299.665	27.14
299.88	55.81
300.094	53.76
300.309	25.09
300.523	49.66
300.737	6.66
300.952	2.56
301.166	12.8
301.381	0.51
301.595	14.85
301.809	29.18
302.024	-30.21
302.238	27.14
302.452	55.81
302.667	33.28
302.881	47.62
303.095	16.9
303.309	16.9
303.524	72.19
303.738	70.14
303.952	49.66
304.166	31.23
304.381	-30.21
304.595	55.81
304.809	59.9
305.023	51.71
305.237	53.76
305.452	53.76
305.666	45.57
305.88	12.8
306.094	23.04
306.308	35.33
306.522	80.38
306.736	25.09
306.95	92.67
307.164	137.73
307.379	98.81
307.593	47.62
307.807	20.99
308.021	-17.92
308.235	74.24
308.449	29.18
308.663	61.95
308.877	68.09
309.091	29.18
309.305	37.38
309.519	14.85
309.733	-13.82
309.947	23.04
310.161	70.14
310.374	51.71
310.588	39.42
310.802	8.7
311.016	35.33
311.23	49.66
311.444	18.94
311.658	39.42
311.872	84.48
312.085	88.57
312.299	-38.4
312.513	-17.92
312.727	145.92
312.941	12.8
313.154	39.42
313.368	8.7
313.582	104.96
313.796	72.19
314.009	-1.54
314.223	90.62
314.437	-1.54
314.651	14.85
314.864	4.61
315.078	8.7
315.292	25.09
315.505	35.33
315.719	27.14
315.933	-26.11
316.146	-28.16
316.36	-32.26
316.573	31.23
316.787	70.14
317.001	98.81
317.214	-83.45
317.428	94.72
317.641	45.57
317.855	47.62
318.068	33.28
318.282	94.72
318.495	82.43
318.709	68.09
318.922	51.71
319.136	78.33
319.349	51.71
319.563	23.04
319.776	2.56
319.99	2.56
320.203	-3.58
320.417	-3.58
320.63	20.99
320.843	66.05
321.057	16.9
321.27	4.61
321.483	68.09
321.697	96.77
321.91	43.52
322.124	39.42
322.337	51.71
322.55	-15.87
322.763	23.04
322.977	39.42
323.19	25.09
323.403	25.09
323.617	47.62
323.83	53.76
324.043	70.14
324.256	41.47
324.469	39.42
324.683	64
324.896	29.18
325.109	127.49
325.322	14.85
325.535	-42.5
325.748	104.96
325.962	70.14
326.175	92.67
326.388	61.95
326.601	-19.97
326.814	14.85
327.027	109.05
327.24	55.81
327.453	14.85
327.666	12.8
327.879	-17.92
328.092	96.77
328.305	39.42
328.518	18.94
328.731	51.71
328.944	115.2
329.157	-17.92
329.37	127.49
329.583	39.42
329.796	55.81
330.009	33.28
330.222	53.76
330.435	137.73
330.648	6.66
330.861	47.62
331.073	-7.68
331.286	47.62
331.499	88.57
331.712	47.62
331.925	68.09
332.138	92.67
332.35	100.86
332.563	18.94
332.776	82.43
332.989	25.09
333.202	14.85
333.414	90.62
333.627	49.66
333.84	-9.73
334.053	53.76
334.265	12.8
334.478	10.75
334.691	2.56
334.903	59.9
335.116	14.85
335.329	59.9
335.541	57.86
335.754	70.14
335.966	78.33
336.179	49.66
336.392	29.18
336.604	43.52
336.817	-1.54
337.029	29.18
337.242	72.19
337.454	41.47
337.667	35.33
337.88	43.52
338.092	41.47
338.305	72.19
338.517	35.33
338.729	12.8
338.942	70.14
339.154	39.42
339.367	-32.26
339.579	27.14
339.792	8.7
340.004	70.14
340.217	0.51
340.429	150.01
340.641	-34.3
340.854	49.66
341.066	31.23
341.278	72.19
341.491	88.57
341.703	78.33
341.915	57.86
342.128	100.86
342.34	78.33
342.552	-9.73
342.764	-3.58
342.977	41.47
343.189	53.76
343.401	43.52
343.613	-13.82
343.826	72.19
344.038	6.66
344.25	64
344.462	29.18
344.674	45.57
344.886	14.85
345.099	31.23
345.311	64
345.523	55.81
345.735	33.28
345.947	57.86
346.159	45.57
346.371	70.14
346.583	31.23
346.795	51.71
347.007	0.51
347.219	68.09
347.431	39.42
347.643	109.05
347.855	6.66
348.067	51.71
348.279	64
348.491	14.85
348.703	12.8
348.915	78.33
349.127	-17.92
349.339	47.62
349.551	78.33
349.763	88.57
349.975	39.42
350.187	94.72
350.399	88.57
350.61	113.15
350.822	88.57
351.034	84.48
351.246	-17.92
351.458	78.33
351.669	55.81
351.881	41.47
352.093	80.38
352.305	-40.45
352.517	-7.68
352.728	27.14
352.94	45.57
353.152	64
353.363	43.52
353.575	35.33
353.787	100.86
353.999	2.56
354.21	45.57
354.422	23.04
354.633	2.56
354.845	29.18
355.057	20.99
355.268	29.18
355.48	121.34
355.692	0.51
355.903	37.38
356.115	51.71
356.326	-11.78
356.538	80.38
356.749	41.47
356.961	16.9
357.172	49.66
357.384	31.23
357.595	74.24
357.807	37.38
358.018	-3.58
358.23	27.14
358.441	49.66
358.653	68.09
358.864	2.56
359.075	29.18
359.287	29.18
359.498	47.62
359.709	45.57
359.921	64
360.132	59.9
360.344	94.72
360.555	66.05
360.766	64
360.977	31.23
361.189	27.14
361.4	43.52
361.611	53.76
361.823	8.7
362.034	47.62
362.245	-1.54
362.456	61.95
362.667	74.24
362.879	-11.78
363.09	23.04
363.301	76.29
363.512	94.72
363.723	72.19
363.935	47.62
364.146	41.47
364.357	57.86
364.568	12.8
364.779	98.81
364.99	45.57
365.201	14.85
365.412	41.47
365.623	45.57
365.834	76.29
366.045	23.04
366.256	27.14
366.467	27.14
366.678	16.9
366.889	6.66
367.1	76.29
367.311	64
367.522	2.56
367.733	39.42
367.944	39.42
368.155	-1.54
368.366	55.81
368.577	98.81
368.788	82.43
368.999	33.28
369.209	53.76
369.42	0.51
369.631	115.2
369.842	27.14
370.053	57.86
370.264	-9.73
370.474	55.81
370.685	72.19
370.896	18.94
371.107	84.48
371.317	43.52
371.528	37.38
371.739	94.72
371.95	14.85
372.16	14.85
372.371	-54.78
372.582	-69.12
372.792	55.81
373.003	90.62
373.214	6.66
373.424	68.09
373.635	88.57
373.846	88.57
374.056	35.33
374.267	74.24
374.477	47.62
374.688	20.99
374.898	31.23
375.109	78.33
375.319	23.04
375.53	66.05
375.74	53.76
375.951	29.18
376.161	-17.92
376.372	100.86
376.582	31.23
376.793	-7.68
377.003	23.04
377.214	23.04
377.424	59.9
377.635	37.38
377.845	64
378.055	29.18
378.266	43.52
378.476	10.75
378.686	41.47
378.897	143.87
379.107	43.52
379.317	102.91
379.528	10.75
379.738	70.14
379.948	78.33
380.158	76.29
380.369	84.48
380.579	98.81
380.789	55.81
380.999	94.72
381.21	49.66
381.42	45.57
381.63	0.51
381.84	10.75
382.05	76.29
382.261	23.04
382.471	78.33
382.681	23.04
382.891	29.18
383.101	82.43
383.311	49.66
383.521	-3.58
383.731	61.95
383.941	0.51
384.151	41.47
384.361	84.48
384.571	84.48
384.781	31.23
384.991	31.23
385.201	76.29
385.411	51.71
385.621	47.62
385.831	33.28
386.041	61.95
386.251	-1.54
386.461	125.44
386.671	78.33
386.881	72.19
387.091	100.86
387.301	125.44
387.511	78.33
387.72	66.05
387.93	90.62
388.14	-85.5
388.35	100.86
388.56	35.33
388.769	86.53
388.979	107.01
389.189	31.23
389.399	49.66
389.609	115.2
389.818	12.8
390.028	113.15
390.238	78.33
390.447	68.09
390.657	43.52
390.867	80.38
391.076	111.1
391.286	29.18
391.496	0.51
391.705	64
391.915	96.77
392.125	12.8
392.334	61.95
392.544	49.66
392.753	57.86
392.963	25.09
393.172	47.62
393.382	68.09
393.591	147.97
393.801	82.43
394.01	55.81
394.22	133.63
394.429	121.34
394.639	70.14
394.848	33.28
395.058	76.29
395.267	43.52
395.477	152.06
395.686	121.34
395.895	111.1
396.105	127.49
396.314	143.87
396.524	162.3
396.733	100.86
396.942	143.87
397.152	102.91
397.361	154.11
397.57	133.63
397.78	-7.68
397.989	88.57
398.198	131.58
398.407	197.12
398.617	98.81
398.826	135.68
399.035	100.86
399.244	76.29
399.453	98.81
399.663	100.86
399.872	102.91
400.081	88.57
400.29	139.77
400.499	80.38
400.708	117.25
400.917	111.1
401.127	113.15
401.336	117.25
401.545	182.78
401.754	166.4
401.963	86.53
402.172	139.77
402.381	45.57
402.59	18.94
402.799	135.68
403.008	96.77
403.217	68.09
403.426	201.21
403.635	125.44
403.844	162.3
404.053	125.44
404.262	86.53
404.471	178.69
404.68	133.63
404.888	92.67
405.097	104.96
405.306	156.16
405.515	172.54
405.724	195.07
405.933	168.45
406.142	166.4
406.35	168.45
406.559	250.36
406.768	139.77
406.977	137.73
407.185	160.25
407.394	172.54
407.603	248.32
407.812	188.93
408.02	248.32
408.229	145.92
408.438	223.74
408.646	166.4
408.855	231.93
409.064	274.94
409.272	279.04
409.481	197.12
409.69	260.6
409.898	184.83
410.107	276.99
410.315	309.76
410.524	258.56
410.733	330.23
410.941	264.7
411.15	358.91
411.358	387.58
411.567	334.33
411.775	363
411.984	340.47
412.192	430.59
412.401	375.29
412.609	430.59
412.818	473.59
413.026	420.35
413.234	375.29
413.443	399.87
413.651	406.01
413.86	475.64
414.068	514.55
414.276	481.78
414.485	588.28
414.693	545.27
414.901	664.05
415.11	619
415.318	621.05
415.526	580.09
415.734	743.92
415.943	664.05
416.151	739.83
416.359	694.77
416.567	784.88
416.776	764.4
416.984	764.4
417.192	852.47
417.4	854.51
417.608	911.86
417.817	881.14
418.025	946.67
418.233	1012.21
418.441	1020.4
418.649	1014.26
418.857	1153.52
419.065	1176.05
419.273	1133.04
419.481	1124.85
419.689	1210.86
419.897	1278.44
420.105	1339.88
420.313	1395.18
420.521	1454.57
420.729	1448.43
420.937	1333.74
421.145	1516.01
421.353	1503.72
421.561	1749.48
421.769	1634.79
421.977	1663.46
422.185	1790.44
422.393	1819.11
422.601	2011.62
422.809	2038.24
423.017	1976.8
423.224	2101.73
423.432	2195.93
423.64	2200.03
423.848	2363.87
424.056	2327
424.263	2474.46
424.471	2470.36
424.679	2449.88
424.887	2705.88
425.094	2628.06
425.302	2767.32
425.51	2808.28
425.718	2941.4
425.925	2998.74
426.133	3078.61
426.341	3228.11
426.548	3299.79
426.756	3541.45
426.964	3441.1
427.171	3645.9
427.379	3709.38
427.586	3762.63
427.794	3832.26
428.001	4086.21
428.209	4090.31
428.417	4135.36
428.624	4395.45
428.832	4442.56
429.039	4460.99
429.247	4563.39
429.454	4989.36
429.662	5130.67
429.869	4823.48
430.076	5343.66
430.284	5073.33
430.491	5278.13
430.699	5599.66
430.906	5532.08
431.114	5603.75
431.321	5876.13
431.528	5923.24
431.736	6212
431.943	6558.11
432.15	6338.98
432.358	6529.44
432.565	6801.82
432.772	6799.77
432.979	7156.11
433.187	7393.68
433.394	7215.51
433.601	7739.79
433.808	7717.26
434.016	7907.72
434.223	8034.69
434.43	8702.33
434.637	8442.24
434.844	9105.78
435.052	9199.99
435.259	8993.14
435.466	9277.81
435.673	8984.95
435.88	9828.71
436.087	10246.5
436.294	10129.77
436.501	9783.66
436.708	10279.27
436.915	10654.05
437.122	10871.13
437.329	10678.62
437.537	11368.79
437.743	11338.07
437.95	11254.1
438.157	11919.69
438.364	12286.28
438.571	12321.09
438.778	12286.28
438.985	13562.16
439.192	12880.19
439.399	13441.33
439.606	13293.88
439.813	13713.71
440.02	14821.66
440.227	14281
440.433	14309.67
440.64	14844.19
440.847	14514.47
441.054	15237.4
441.261	16075.02
441.467	15943.95
441.674	15995.15
441.881	16666.88
442.088	16603.39
442.294	16439.56
442.501	17180.92
442.708	17266.94
442.914	17889.52
443.121	18667.75
443.328	18231.53
443.534	19439.83
443.741	19067.1
443.948	18653.41
444.154	20244.68
444.361	20295.88
444.568	19849.43
444.774	19814.61
444.981	20037.84
445.187	20857.03
445.394	21731.51
445.6	21446.84
445.807	23570.58
446.013	22605.99
446.22	22720.68
446.426	24008.85
446.633	24076.43
446.839	24692.87
447.046	23781.53
447.252	24975.49
447.459	25176.19
447.665	25133.18
447.871	26515.56
448.078	27205.73
448.284	25845.88
448.491	26689.64
448.697	27383.9
448.903	28065.88
449.11	28325.97
449.316	27676.76
449.522	28332.11
449.728	29184.07
449.935	29196.35
450.141	28971.08
450.347	30257.2
450.553	28825.67
450.76	29179.97
450.966	30195.76
451.172	29839.42
451.378	30119.99
451.584	30076.98
451.791	30771.24
451.997	30648.36
452.203	30986.28
452.409	31479.84
452.615	30783.53
452.821	29935.67
453.027	29489.21
453.233	30980.14
453.44	29835.32
453.646	30122.04
453.852	29950.01
454.058	30621.74
454.264	29589.56
454.47	30144.56
454.676	28966.98
454.882	30642.22
455.088	27846.74
455.294	28242
455.5	28661.83
455.705	28860.49
455.911	27492.44
456.117	27148.39
456.323	26871.91
456.529	25389.18
456.735	26159.22
456.941	25411.71
457.147	25557.11
457.352	24758.41
457.558	24019.09
457.764	24297.61
457.97	23711.89
458.176	23507.1
458.381	23392.41
458.587	22055.09
458.793	22044.85
458.999	21010.62
459.204	22399.15
459.41	21999.79
459.616	20676.8
459.821	20496.58
460.027	20467.91
460.233	20175.05
460.438	18876.64
460.644	19454.17
460.85	18276.59
461.055	18098.41
461.261	17957.1
461.466	16574.72
461.672	16367.88
461.878	17281.27
462.083	16140.55
462.289	16079.11
462.494	15696.14
462.7	15128.86
462.905	14395.68
463.111	15073.56
463.316	15249.69
463.522	14745.89
463.727	14874.91
463.932	14885.15
464.138	14555.43
464.343	14840.09
464.549	14532.9
464.754	14967.07
464.959	14762.27
465.165	14346.53
465.37	14123.3
465.575	13578.54
465.781	14264.61
465.986	14438.69
466.191	13402.42
466.397	13363.51
466.602	12738.88
466.807	13381.94
467.012	13263.16
467.218	13199.67
467.423	13146.42
467.628	13234.49
467.833	13547.83
468.038	13265.21
468.244	12978.49
468.449	13375.8
468.654	12783.93
468.859	12736.83
469.064	12775.74
469.269	12214.6
469.474	12273.99
469.679	12509.51
469.885	12089.67
470.09	12249.41
470.295	12298.56
470.5	12194.12
470.705	12104.01
470.91	11747.66
471.115	11540.82
471.32	11874.63
471.525	11858.25
471.73	11456.85
471.935	11383.12
472.139	11098.45
472.344	10998.1
472.549	11145.56
472.754	11088.21
472.959	10817.88
473.164	10555.74
473.369	10455.39
473.574	10881.37
473.778	10565.98
473.983	10445.15
474.188	10387.81
474.393	10017.13
474.598	10105.19
474.802	10168.68
475.007	9877.87
475.212	9757.04
475.417	9693.55
475.621	9736.56
475.826	9681.26
476.031	9593.2
476.235	9195.89
476.44	9607.53
476.645	9247.09
476.849	9161.08
477.054	9199.99
477.259	8919.42
477.463	9015.67
477.668	8667.52
477.872	8765.82
478.077	8690.04
478.282	8567.17
478.486	8479.1
478.691	8337.79
478.895	8409.47
479.1	8425.86
479.304	8382.85
479.509	8251.78
479.713	8212.87
479.918	8020.36
480.122	7766.41
480.326	8065.41
480.531	8067.46
480.735	7815.56
480.94	8081.8
481.144	8030.6
481.348	7809.42
481.553	7936.39
481.757	7754.12
481.961	7803.27
482.166	7936.39
482.37	7924.1
482.574	7725.45
482.778	7616.91
482.983	7981.45
483.187	7905.67
483.391	7729.55
483.595	7756.17
483.8	7539.08
484.004	7922.06
484.208	7717.26
484.412	7733.64
484.616	7977.35
484.821	7764.36
485.025	7512.46
485.229	7739.79
485.433	7618.96
485.637	7850.38
485.841	7838.09
486.045	7747.98
486.249	7895.43
486.453	7725.45
486.657	7702.92
486.861	7747.98
487.065	7317.9
487.269	7653.77
487.473	7653.77
487.677	7821.7
487.881	7745.93
488.085	7725.45
488.289	7633.29
488.493	7641.48
488.697	7778.7
488.901	7739.79
489.105	7893.38
489.309	7838.09
489.512	7958.92
489.716	7809.42
489.92	7889.29
490.124	8006.02
490.328	7926.15
490.531	7719.31
490.735	7889.29
490.939	8010.12
491.143	8003.97
491.346	8018.31
491.55	8014.21
491.754	8034.69
491.958	8079.75
492.161	8081.8
492.365	8114.56
492.569	7944.58
492.772	8108.42
492.976	8198.53
493.18	8182.15
493.383	8358.27
493.587	8339.84
493.79	8382.85
493.994	8556.93
494.197	8550.78
494.401	8507.77
494.605	8579.45
494.808	8798.59
495.012	8573.31
495.215	8653.18
495.419	8862.07
495.622	8894.84
495.825	8935.8
496.029	9159.03
496.232	9468.27
496.436	9406.83
496.639	9447.79
496.843	9261.43
497.046	9673.07
497.249	9677.16
497.453	9677.16
497.656	9699.69
497.859	9556.33
498.063	9800.04
498.266	10078.57
498.469	10129.77
498.673	10066.28
498.876	10213.73
499.079	10398.05
499.282	10537.31
499.485	10678.62
499.689	10824.03
499.892	10887.51
500.095	10897.75
500.298	11219.28
500.501	10998.1
500.705	11336.02
500.908	11352.4
501.111	11452.75
501.314	11637.07
501.517	11805
501.72	11938.12
501.923	11913.55
502.126	12028.23
502.329	12241.22
502.532	12415.3
502.735	12609.86
502.938	12771.65
503.141	12626.24
503.344	13097.27
503.547	13091.13
503.75	13334.84
503.953	13486.39
504.156	13740.33
504.359	13721.9
504.562	13648.18
504.765	13748.53
504.968	14154.02
505.17	14246.18
505.373	14274.85
505.576	14541.09
505.779	14815.52
505.982	14756.13
506.185	15135
506.387	15112.47
506.59	15227.16
506.793	15411.48
506.996	15563.03
507.198	15974.67
507.401	15710.48
507.604	16058.63
507.807	16468.23
508.009	16550.15
508.212	16703.75
508.415	16769.28
508.617	17033.47
508.82	17082.62
509.022	17002.75
509.225	17340.66
509.428	17580.28
509.63	17580.28
509.833	17953.01
510.035	18145.52
510.238	18122.99
510.44	18628.84
510.643	18759.91
510.845	18831.58
511.048	18704.61
511.25	19138.78
511.453	19204.31
511.655	19859.66
511.858	19382.49
512.06	19816.66
512.262	19771.6
512.465	19951.82
512.667	20400.33
512.87	20771.01
513.072	20732.1
513.274	21063.87
513.477	21070.01
513.679	21463.22
513.881	21807.28
514.084	21977.26
514.286	21721.27
514.488	22198.45
514.69	22730.92
514.893	22591.66
515.095	22773.92
515.297	23367.84
515.499	23167.13
515.701	23345.31
515.904	23662.74
516.106	24025.23
516.308	24092.82
516.51	24291.47
516.712	24357
516.914	24617.1
517.116	25067.65
517.318	25374.84
517.52	25139.33
517.722	25659.51
517.925	25919.6
518.127	26259.57
518.329	26187.89
518.531	26300.53
518.733	26407.02
518.935	27052.13
519.136	26792.04
519.338	27318.37
519.54	27662.43
519.742	28045.4
519.944	27940.95
520.146	28624.97
520.348	28594.25
520.55	28555.34
520.752	28874.82
520.954	29284.42
521.155	29104.2
521.357	29425.73
521.559	29802.55
521.761	29734.97
521.963	29941.82
522.164	30320.69
522.366	30429.23
522.568	30900.26
522.77	30953.51
522.971	31324.19
523.173	31275.04
523.375	31348.77
523.576	31182.88
523.778	31692.83
523.98	32030.74
524.181	32260.12
524.383	32088.09
524.584	32571.41
524.786	32583.69
524.988	32550.93
525.189	33017.86
525.391	32849.93
525.592	33554.43
525.794	33497.09
525.995	33511.42
526.197	33576.96
526.398	33794.04
526.6	33955.83
526.801	34097.14
527.003	34168.82
527.204	34533.36
527.406	34762.73
527.607	34656.24
527.808	34832.36
528.01	34320.37
528.211	35137.51
528.412	35532.77
528.614	35260.39
528.815	35291.11
529.016	35600.35
529.218	34985.96
529.419	35555.3
529.62	36059.1
529.822	35610.59
530.023	35698.66
530.224	35438.56
530.425	35723.23
530.626	35708.9
530.828	35278.82
531.029	36364.25
531.23	35780.57
531.431	35764.19
531.632	36126.68
531.833	36081.63
532.035	36083.67
532.236	36044.76
532.437	36698.06
532.638	36392.92
532.839	36630.48
533.04	36460.5
533.241	36386.77
533.442	36896.72
533.643	36777.93
533.844	36788.17
534.045	36407.25
534.246	36134.87
534.447	36757.46
534.648	36663.25
534.849	36698.06
535.05	36423.64
535.251	36599.76
535.451	36515.79
535.652	36708.3
535.853	36575.19
536.054	36972.49
536.255	37015.5
536.456	36718.54
536.657	37072.84
536.857	36804.56
537.058	36509.65
537.259	36919.24
537.46	37040.07
537.66	36736.98
537.861	36986.83
538.062	36753.36
538.263	37142.47
538.463	36638.67
538.664	36636.62
538.865	36663.25
539.065	37083.08
539.266	36540.37
539.466	37156.81
539.667	36605.91
539.868	36974.54
540.068	36745.17
540.269	36894.67
540.469	36691.92
540.67	36739.02
540.87	36853.71
541.071	36444.12
541.271	36765.65
541.472	36696.02
541.672	36528.08
541.873	36603.86
542.073	36397.01
542.274	37216.2
542.474	36716.5
542.675	36472.79
542.875	36751.31
543.075	36698.06
543.276	36282.33
543.476	36685.78
543.676	36356.05
543.877	36786.13
544.077	36659.15
544.277	36663.25
544.478	36280.28
544.678	36362.2
544.878	36548.56
545.078	36532.18
545.279	36560.85
545.479	36812.75
545.679	36607.95
545.879	36626.39
546.079	36749.26
546.28	36476.88
546.48	36311
546.68	36552.66
546.88	36427.73
547.08	36528.08
547.28	36169.69
547.48	36296.66
547.68	36638.67
547.88	36134.87
548.081	36237.27
548.281	36274.13
548.481	36364.25
548.681	36507.6
548.881	36294.61
549.081	36317.14
549.28	36192.22
549.48	36222.94
549.68	36212.7
549.88	36681.68
550.08	36665.3
550.28	36763.6
550.48	35586.02
550.68	36456.4
550.88	36083.67
551.08	36165.59
551.279	36386.77
551.479	35985.37
551.679	36679.63
551.879	36091.87
552.079	36667.34
552.278	35770.33
552.478	35997.66
552.678	35811.29
552.878	36184.02
553.077	36136.92
553.277	35778.53
553.477	36743.12
553.676	36288.47
553.876	35807.2
554.076	35717.09
554.275	35827.68
554.475	35778.53
554.674	35856.35
554.874	35807.2
555.074	35721.18
555.273	36024.28
555.473	35704.8
555.672	35532.77
555.872	35610.59
556.071	35426.28
556.271	35928.03
556.47	35583.97
556.67	35375.08
556.869	35452.9
557.068	35475.43
557.268	35069.93
557.467	35375.08
557.667	35119.08
557.866	35330.02
558.065	35160.04
558.265	34844.65
558.464	34965.48
558.663	35237.86
558.863	34848.75
559.062	35268.58
559.261	34830.32
559.461	35153.9
559.66	34682.86
559.859	35090.41
560.058	34371.57
560.258	34844.65
560.457	34557.94
560.656	34854.89
560.855	34852.84
561.054	34551.79
561.253	34545.65
561.453	34293.75
561.652	34551.79
561.851	34508.79
562.05	33927.16
562.249	34150.39
562.448	34226.17
562.647	34125.82
562.846	33705.98
563.045	33820.67
563.244	33818.62
563.443	33908.73
563.642	33470.47
563.841	33744.89
564.04	33320.96
564.239	33865.72
564.438	33327.11
564.637	33712.13
564.836	33693.69
565.035	33038.34
565.234	33552.38
565.432	32952.33
565.631	32548.88
565.83	33118.21
566.029	32661.52
566.228	32366.61
566.427	32843.79
566.625	32464.91
566.824	32303.12
567.023	32950.28
567.222	32434.19
567.42	32874.51
567.619	32598.03
567.818	32426
568.016	32061.46
568.215	32380.95
568.414	31989.78
568.612	32096.28
568.811	32043.03
569.01	31885.34
569.208	31209.51
569.407	31879.19
569.605	31393.82
569.804	31483.94
570.002	31518.75
570.201	31434.78
570.4	31076.39
570.598	30943.27
570.797	30953.51
570.995	31178.79
571.193	30531.63
571.392	31133.73
571.59	30894.12
571.789	30683.18
571.987	30556.21
572.186	30748.71
572.384	30523.44
572.582	30795.82
572.781	30328.88
572.979	30076.98
573.177	30328.88
573.376	30062.65
573.574	29753.4
573.772	29833.27
573.971	29714.49
574.169	29794.36
574.367	29493.31
574.565	29618.24
574.763	29587.52
574.962	29704.25
575.16	29372.48
575.358	29308.99
575.556	29059.14
575.754	29601.85
575.952	28919.88
576.151	29104.2
576.349	28745.8
576.547	28854.34
576.745	29014.09
576.943	28534.86
577.141	28573.77
577.339	28536.91
577.537	28506.19
577.735	28557.39
577.933	28334.16
578.131	28334.16
578.329	28405.84
578.527	27807.83
578.725	28147.79
578.923	28196.95
579.121	27945.05
579.319	28045.4
579.516	27625.56
579.714	27621.47
579.912	27627.61
580.11	27568.22
580.308	27635.8
580.506	27390.05
580.704	27181.15
580.901	27175.01
581.099	27488.35
581.297	27201.63
581.495	26978.4
581.692	27175.01
581.89	26648.68
582.088	26873.96
582.285	26341.49
582.483	27086.95
582.681	26953.83
582.878	26620.01
583.076	26044.53
583.274	26519.66
583.471	26124.4
583.669	25899.12
583.866	26099.83
584.064	26603.63
584.262	25856.12
584.459	26118.26
584.657	25960.56
584.854	26314.86
585.052	25727.1
585.249	26048.63
585.447	25653.37
585.644	25424
585.841	25677.94
586.039	25995.38
586.236	25163.9
586.434	25264.25
586.631	24969.35
586.828	25155.71
587.026	25059.46
587.223	25055.36
587.42	24995.97
587.618	24940.68
587.815	24615.05
588.012	24600.71
588.21	24840.32
588.407	24770.69
588.604	24322.19
588.801	24375.44
588.999	24459.4
589.196	24299.66
589.393	24393.87
589.59	24367.24
589.787	24297.61
589.984	24006.8
590.182	23675.03
590.379	24373.39
590.576	23664.79
590.773	23756.95
590.97	23572.63
591.167	23963.79
591.364	23605.4
591.561	23715.99
591.758	23365.79
591.955	23230.62
592.152	23554.2
592.349	23058.59
592.546	23310.49
592.743	23318.68
592.94	22913.19
593.137	23044.26
593.334	23066.78
593.531	22866.08
593.727	23117.98
593.924	22513.83
594.121	22618.28
594.318	22732.97
594.515	22450.35
594.712	22603.94
594.908	21909.68
595.105	22638.76
595.302	22175.92
595.499	22040.75
595.696	22206.64
595.892	21977.26
596.089	22227.12
596.286	21942.45
596.482	21864.63
596.679	21962.93
596.876	21964.98
597.072	21614.77
597.269	21504.18
597.466	21231.8
597.662	21504.18
597.859	21618.87
598.055	21434.55
598.252	21414.07
598.448	21172.41
598.645	21438.65
598.841	20930.75
599.038	21059.77
599.234	20912.32
599.431	20955.33
599.627	20918.46
599.824	20717.76
600.02	20918.46
600.217	20797.63
600.413	20373.71
600.609	20758.72
600.806	20615.37
601.002	20379.85
601.198	20449.48
601.395	20181.2
601.591	20480.2
601.787	20130
601.984	20058.32
602.18	20365.51
602.376	20007.12
602.572	19849.43
602.769	19917.01
602.965	19828.95
603.161	19974.35
603.357	19941.58
603.553	19710.16
603.75	19620.05
603.946	19269.85
604.142	19720.4
604.338	19200.22
604.534	19468.5
604.73	19421.4
604.926	19022.05
605.122	19445.98
605.318	18970.85
605.514	19063.01
605.71	18958.56
605.906	18868.45
606.102	19063.01
606.298	18712.8
606.494	18729.19
606.69	18829.54
606.886	19065.05
607.082	18483.43
607.278	18680.03
607.474	18553.06
607.67	18893.02
607.866	18309.35
608.062	18559.2
608.257	18448.61
608.453	18372.84
608.649	18405.61
608.845	18319.59
609.041	18350.31
609.236	18198.76
609.432	18047.21
609.628	18219.24
609.824	17959.15
610.019	17772.78
610.215	17799.41
610.411	18331.88
610.606	17879.28
610.802	17881.33
610.998	17826.03
611.193	17869.04
611.389	17748.21
611.584	17889.52
611.78	17879.28
611.976	17787.12
612.171	17578.23
612.367	17545.46
612.562	17598.71
612.758	17281.27
612.953	17213.69
613.149	17729.78
613.344	17170.68
613.539	17611
613.735	17404.15
613.93	17422.58
614.126	17254.65
614.321	17260.79
614.517	17311.99
614.712	17174.78
614.907	17037.56
615.103	17051.9
615.298	17037.56
615.493	16937.21
615.688	17006.84
615.884	17047.8
616.079	17068.28
616.274	17053.95
616.47	16587.01
616.665	17101.05
616.86	16648.45
617.055	16718.08
617.25	16673.03
617.445	16802.05
617.641	16505.09
617.836	16697.6
618.031	16367.88
618.226	16527.62
618.421	16619.78
618.616	16496.9
618.811	16154.89
619.006	16662.79
619.201	16144.65
619.396	16371.97
619.591	15989
619.786	16130.31
619.981	15767.82
620.176	15970.57
620.371	15849.74
620.566	15923.47
620.761	15622.42
620.956	15845.65
621.151	15364.37
621.346	15722.77
621.541	15401.24
621.735	15747.34
621.93	15272.21
622.125	15423.76
622.32	14713.12
622.515	15239.45
622.709	14934.3
622.904	15165.72
623.099	15001.88
623.294	14840.09
623.488	14504.23
623.683	14692.64
623.878	14348.58
624.072	14623.01
624.267	14473.51
624.462	14106.92
624.656	14346.53
624.851	14180.65
625.046	13988.14
625.24	14098.73
625.435	13801.77
625.629	13914.41
625.824	13701.42
626.018	13648.18
626.213	13412.66
626.407	13695.28
626.602	13203.77
626.796	13674.8
626.991	13408.56
627.185	13144.38
627.38	13273.4
627.574	13158.71
627.768	12851.52
627.963	13236.53
628.157	12902.72
628.352	13003.07
628.546	12779.84
628.74	12945.72
628.935	12425.54
629.129	12695.87
629.323	12755.26
629.517	12458.31
629.712	12470.59
629.906	12284.23
630.1	12280.13
630.294	12257.6
630.489	12126.53
630.683	12163.4
630.877	12034.38
631.071	12106.06
631.265	11823.44
631.459	11940.17
631.653	11737.42
631.848	11503.95
632.042	11618.64
632.236	11731.28
632.43	11581.78
632.624	11460.95
632.818	11602.25
633.012	11465.04
633.206	11270.48
633.4	11409.75
633.594	11100.5
633.788	10975.58
633.982	11266.39
634.176	10951
634.369	10799.45
634.563	11071.83
634.757	10946.9
634.951	10905.95
635.145	10815.83
635.339	10768.73
635.533	10588.51
635.726	10627.42
635.92	10570.08
636.114	10432.86
636.308	10414.43
636.501	10396
636.695	10342.75
636.889	10387.81
637.083	10375.52
637.276	10176.87
637.47	10135.91
637.664	10232.16
637.857	9951.59
638.051	10002.79
638.244	9988.46
638.438	9875.82
638.632	9843.05
638.825	9640.3
639.019	9617.77
639.212	9628.01
639.406	9619.82
639.599	9591.15
639.793	9480.56
639.986	9587.05
640.18	9554.29
640.373	9470.32
640.567	9064.82
640.76	9048.44
640.954	9050.49
641.147	9136.5
641.34	9116.02
641.534	9109.88
641.727	9226.61
641.92	8900.98
642.114	9015.67
642.307	8894.84
642.5	8860.02
642.694	8765.82
642.887	8620.41
643.08	8767.87
643.273	8446.34
643.467	8630.65
643.66	8470.91
643.853	8540.54
644.046	8288.64
644.239	8505.73
644.432	8300.93
644.626	8366.46
644.819	8380.8
645.012	8352.13
645.205	8034.69
645.398	8229.25
645.591	8075.65
645.784	8079.75
645.977	7825.8
646.17	7934.34
646.363	7829.9
646.556	7813.51
646.749	7850.38
646.942	7833.99
647.135	7827.85
647.328	7723.4
647.521	7614.86
647.714	7766.41
647.907	7610.76
648.099	7438.73
648.292	7457.17
648.485	7475.6
648.678	7434.64
648.871	7356.82
649.064	7244.18
649.256	7391.63
649.449	7152.02
649.642	7322
649.835	7125.4
650.027	7209.36
650.22	7000.47
650.413	7076.24
650.605	7131.54
650.798	7002.52
650.991	7063.96
651.183	7008.66
651.376	6801.82
651.568	6916.5
651.761	6910.36
651.954	6834.58
652.146	6738.33
652.339	6699.42
652.531	6582.68
652.724	6621.59
652.916	6545.82
653.109	6644.12
653.301	6545.82
653.494	6365.6
653.686	6435.23
653.879	6523.29
654.071	6424.99
654.263	6461.85
654.456	6429.09
654.648	6367.65
654.84	6349.22
655.033	6146.47
655.225	6209.95
655.417	6222.24
655.61	6152.61
655.802	6293.92
655.994	6130.08
656.186	5994.92
656.379	6085.03
656.571	5984.68
656.763	5810.6
656.955	5915.05
657.148	5908.9
657.34	5863.85
657.532	5933.48
657.724	5806.5
657.916	5781.93
658.108	5749.16
658.3	5587.37
658.492	5722.54
658.684	5661.1
658.876	5585.32
659.068	5599.66
659.26	5433.77
659.452	5607.85
659.644	5573.03
659.836	5546.41
660.028	5507.5
660.22	5415.34
660.412	5337.52
660.604	5390.77
660.796	5327.28
660.988	5362.09
661.18	5403.05
661.372	5218.74
661.563	5265.84
661.755	4993.46
661.947	5278.13
662.139	5112.24
662.331	5032.37
662.522	5073.33
662.714	5089.71
662.906	4915.64
663.097	5042.61
663.289	4956.6
663.481	4970.93
663.673	4788.66
663.864	5032.37
664.056	4964.79
664.247	4950.45
664.439	4682.17
664.631	4788.66
664.822	4776.38
665.014	4809.14
665.205	4897.21
665.397	4653.5
665.588	4759.99
665.78	4635.07
665.971	4614.59
666.163	4571.58
666.354	4680.12
666.546	4667.83
666.737	4532.67
666.929	4497.85
667.12	4504
667.311	4549.05
667.503	4551.1
667.694	4469.18
667.885	4301.25
668.077	4360.64
668.268	4336.06
668.459	4501.95
668.651	4342.21
668.842	4364.73
669.033	4383.17
669.224	4256.19
669.416	4250.05
669.607	4372.93
669.798	4127.17
669.989	4176.32
670.18	4094.4
670.371	4143.55
670.563	4063.68
670.754	4254.14
670.945	4041.15
671.136	4194.75
671.327	4080.07
671.518	4010.43
671.709	3975.62
671.9	4235.71
672.091	4016.58
672.282	3905.99
672.473	3949
672.664	3975.62
672.855	3883.46
673.046	3983.81
673.237	4108.74
673.428	3846.6
673.619	3858.89
673.809	3783.11
674	3901.89
674.191	3748.29
674.382	3758.53
674.573	3813.83
674.764	3791.3
674.954	3862.98
675.145	3752.39
675.336	3838.41
675.527	3744.2
675.717	3768.77
675.908	3693
676.099	3742.15
676.289	3570.12
676.48	3647.94
676.671	3649.99
676.861	3645.9
677.052	3699.14
677.243	3574.22
677.433	3656.14
677.624	3633.61
677.814	3625.42
678.005	3518.92
678.195	3623.37
678.386	3502.54
678.576	3439.05
678.767	3473.87
678.957	3604.94
679.148	3547.59
679.338	3422.67
679.529	3504.59
679.719	3576.27
679.909	3520.97
680.1	3559.88
680.29	3398.09
680.481	3389.9
680.671	3461.58
680.861	3353.04
681.052	3437
681.242	3396.04
681.432	3355.08
681.622	3350.99
681.813	3285.45
682.003	3389.9
682.193	3350.99
682.383	3486.15
682.573	3275.21
682.764	3316.17
682.954	3394
683.144	3305.93
683.334	3369.42
683.524	3310.03
683.714	3310.03
683.904	3213.77
684.094	3262.93
684.284	3307.98
684.474	3336.65
684.664	3353.04
684.854	3314.13
685.044	3135.95
685.234	3158.48
685.424	3226.06
685.614	3135.95
685.804	3162.58
685.994	3142.1
686.184	3260.88
686.374	3138
686.564	3090.9
686.753	3127.76
686.943	3121.62
687.133	3086.8
687.323	2994.64
687.513	3150.29
687.702	3217.87
687.892	3035.6
688.082	3054.03
688.272	3080.66
688.461	2931.16
688.651	3004.88
688.841	3031.51
689.03	2847.19
689.22	2963.92
689.41	2863.57
689.599	3013.07
689.789	2918.87
689.979	2886.1
690.168	2755.03
690.358	2892.24
690.547	2865.62
690.737	2900.44
690.926	2953.68
691.116	2832.85
691.305	2922.96
691.495	2750.93
691.684	2896.34
691.874	2839
692.063	2759.13
692.252	2810.33
692.442	2767.32
692.631	2726.36
692.82	2798.04
693.01	2628.06
693.199	2765.27
693.388	2603.48
693.578	2685.4
693.767	2685.4
693.956	2623.96
694.146	2736.6
694.335	2755.03
694.524	2630.1
694.713	2566.62
694.902	2542.04
695.092	2626.01
695.281	2521.56
695.47	2591.19
695.659	2591.19
695.848	2456.03
696.037	2572.76
696.226	2687.45
696.415	2529.75
696.604	2599.38
696.793	2503.13
696.982	2599.38
697.171	2611.67
697.36	2456.03
697.549	2580.95
697.738	2462.17
697.927	2531.8
698.116	2503.13
698.305	2531.8
698.494	2572.76
698.683	2486.75
698.872	2558.42
699.061	2460.12
699.25	2527.71
699.438	2494.94
699.627	2474.46
699.816	2494.94
700.005	2566.62
700.193	2374.11
700.382	2386.4
700.571	2533.85
700.76	2370.01
700.948	2550.23
701.137	2343.39
701.326	2429.4
701.514	2476.51
701.703	2396.64
701.892	2449.88
702.08	2472.41
702.269	2480.6
702.457	2423.26
702.646	2494.94
702.834	2413.02
703.023	2492.89
703.212	2458.07
703.4	2406.88
703.589	2394.59
703.777	2435.55
703.965	2312.67
704.154	2353.63
704.342	2376.16
704.531	2404.83
704.719	2277.85
704.907	2464.22
705.096	2433.5
705.284	2421.21
705.472	2243.04
705.661	2462.17
705.849	2337.24
706.037	2499.03
706.226	2355.68
706.414	2402.78
706.602	2349.53
706.79	2349.53
706.979	2359.77
707.167	2329.05
707.355	2408.92
707.543	2365.92
707.731	2476.51
707.919	2417.12
708.107	2361.82
708.296	2460.12
708.484	2335.2
708.672	2339.29
708.86	2329.05
709.048	2349.53
709.236	2478.55
709.424	2427.35
709.612	2372.06
709.8	2458.07
709.988	2431.45
710.176	2380.25
710.364	2249.18
710.551	2339.29
710.739	2333.15
710.927	2365.92
711.115	2388.44
711.303	2423.26
711.491	2320.86
711.679	2292.19
711.866	2316.76
712.054	2415.07
712.242	2388.44
712.43	2398.68
712.617	2361.82
712.805	2277.85
712.993	2347.48
713.181	2202.08
713.368	2382.3
713.556	2382.3
713.744	2238.94
713.931	2505.18
714.119	2349.53
714.306	2484.7
714.494	2300.38
714.682	2234.85
714.869	2376.16
715.057	2361.82
715.244	2355.68
715.432	2392.54
715.619	2492.89
715.807	2410.97
715.994	2296.28
716.182	2443.74
716.369	2417.12
716.556	2505.18
716.744	2224.61
716.931	2277.85
717.119	2290.14
717.306	2253.28
717.493	2183.65
717.681	2378.2
717.868	2367.96
718.055	2300.38
718.242	2314.72
718.43	2345.44
718.617	2275.81
718.804	2183.65
718.991	2286.05
719.179	2345.44
719.366	2251.23
719.553	2445.79
719.74	2267.61
719.927	2273.76
720.114	2171.36
720.301	2279.9
720.488	2320.86
720.676	2290.14
720.863	2337.24
721.05	2347.48
721.237	2152.93
721.424	2370.01
721.611	2228.7
721.798	2320.86
721.985	2234.85
722.172	2367.96
722.358	2382.3
722.545	2296.28
722.732	2345.44
722.919	2298.33
723.106	2179.55
723.293	2234.85
723.48	2343.39
723.667	2284
723.853	2245.09
724.04	2329.05
724.227	2357.72
724.414	2208.22
724.6	2234.85
724.787	2339.29
724.974	2238.94
725.161	2275.81
725.347	2306.52
725.534	2273.76
725.72	2308.57
725.907	2185.69
726.094	2279.9
726.28	2308.57
726.467	2185.69
726.653	2296.28
726.84	2275.81
727.027	2298.33
727.213	2337.24
727.4	2298.33
727.586	2390.49
727.773	2259.42
727.959	2300.38
728.145	2224.61
728.332	2296.28
728.518	2216.41
728.705	2177.5
728.891	2161.12
729.077	2331.1
729.264	2210.27
729.45	2275.81
729.636	2185.69
729.823	2302.43
730.009	2253.28
730.195	2277.85
730.382	2296.28
730.568	2361.82
730.754	2218.46
730.94	2263.52
731.126	2159.07
731.313	2306.52
731.499	2281.95
731.685	2177.5
731.871	2341.34
732.057	2253.28
732.243	2279.9
732.429	2298.33
732.615	2173.41
732.801	2320.86
732.987	2214.37
733.173	2169.31
733.359	2355.68
733.545	2175.45
733.731	2206.17
733.917	2271.71
734.103	2355.68
734.289	2261.47
734.475	2292.19
734.661	2343.39
734.847	2249.18
735.033	2230.75
735.219	2255.33
735.404	2329.05
735.59	2126.3
735.776	2208.22
735.962	2224.61
736.148	2333.15
736.333	2165.21
736.519	2210.27
736.705	2257.37
736.89	2134.5
737.076	2212.32
737.262	2130.4
737.447	2114.02
737.633	2232.8
737.819	2183.65
738.004	2152.93
738.19	2169.31
738.375	2095.58
738.561	2275.81
738.747	2322.91
738.932	2165.21
739.118	2159.07
739.303	2134.5
739.489	2181.6
739.674	2058.72
739.859	2114.02
740.045	2046.43
740.23	2089.44
740.416	2146.78
740.601	2083.3
740.786	2107.87
740.972	2075.1
741.157	2118.11
741.342	2154.98
741.528	1987.04
741.713	2060.77
741.898	2046.43
742.084	1964.51
742.269	2159.07
742.454	2050.53
742.639	1987.04
742.824	1948.13
743.01	1995.23
743.195	1997.28
743.38	1987.04
743.565	1980.9
743.75	2030.05
743.935	1950.18
744.12	1972.71
744.305	1939.94
744.49	1948.13
744.675	1962.47
744.86	1997.28
745.045	1919.46
745.23	1982.95
745.415	1903.07
745.6	2048.48
745.785	1874.4
745.97	1948.13
746.155	1894.88
746.34	1933.79
746.525	1855.97
746.71	1849.83
746.895	1778.15
747.079	1722.85
747.264	1855.97
747.449	1915.36
747.634	1878.5
747.819	1796.58
748.003	1853.92
748.188	1765.86
748.373	1800.68
748.557	1784.29
748.742	1669.61
748.927	1796.58
749.111	1554.92
749.296	1767.91
749.481	1718.76
749.665	1612.26
749.85	1552.87
750.034	1716.71
750.219	1597.93
750.404	1645.03
750.588	1677.8
750.773	1747.43
750.957	1681.89
751.141	1624.55
751.326	1653.22
751.51	1604.07
751.695	1671.65
751.879	1542.63
752.064	1640.93
752.248	1462.76
752.432	1589.74
752.617	1622.5
752.801	1522.15
752.985	1483.24
753.17	1542.63
753.354	1454.57
753.538	1452.52
753.722	1415.66
753.907	1448.43
754.091	1362.41
754.275	1427.95
754.459	1458.67
754.643	1350.12
754.828	1415.66
755.012	1395.18
755.196	1325.55
755.38	1339.88
755.564	1452.52
755.748	1272.3
755.932	1366.51
756.116	1235.44
756.3	1401.32
756.484	1274.35
756.668	1313.26
756.852	1360.36
757.036	1352.17
757.22	1255.92
757.404	1223.15
757.588	1229.29
757.772	1237.49
757.956	1264.11
758.14	1294.83
758.323	1176.05
758.507	1188.33
758.691	1139.18
758.875	1243.63
759.059	1219.05
759.242	1225.2
759.426	1239.53
759.61	1219.05
759.794	1257.96
759.977	1192.43
760.161	1182.19
760.345	1151.47
760.528	1130.99
760.712	1102.32
760.895	1204.72
761.079	1114.61
761.263	1055.22
761.446	1077.74
761.63	1104.37
761.813	1075.7
761.997	1100.27
762.18	1071.6
762.364	1102.32
762.547	1081.84
762.731	1122.8
762.914	1032.69
763.098	1098.22
763.281	1047.02
763.464	1036.78
763.648	1161.71
763.831	1077.74
764.015	1190.38
764.198	1106.42
764.381	977.39
764.564	1044.98
764.748	1012.21
764.931	993.78
765.114	1059.31
765.297	1069.55
765.481	977.39
765.664	1030.64
765.847	985.58
766.03	1047.02
766.213	938.48
766.397	1024.5
766.58	1010.16
766.763	985.58
766.946	981.49
767.129	907.76
767.312	938.48
767.495	926.19
767.678	907.76
767.861	1016.3
768.044	932.34
768.227	997.87
768.41	870.9
768.593	922.1
768.776	975.35
768.959	1016.3
769.142	991.73
769.324	961.01
769.507	987.63
769.69	891.38
769.873	877.04
770.056	946.67
770.239	870.9
770.421	823.8
770.604	911.86
770.787	989.68
770.97	913.91
771.152	918
771.335	872.95
771.518	782.84
771.7	971.25
771.883	819.7
772.066	850.42
772.248	942.58
772.431	893.43
772.613	868.85
772.796	911.86
772.978	829.94
773.161	825.84
773.343	862.71
773.526	750.07
773.708	844.28
773.891	764.4
774.073	682.49
774.256	735.73
774.438	881.14
774.621	770.55
774.803	838.13
774.985	741.88
775.168	862.71
775.35	702.97
775.532	713.21
775.715	754.16
775.897	793.08
776.079	684.53
776.261	717.3
776.444	731.64
776.626	729.59
776.808	743.92
776.99	819.7
777.173	713.21
777.355	676.34
777.537	694.77
777.719	733.68
777.901	707.06
778.083	653.81
778.265	606.71
778.447	727.54
778.629	659.96
778.811	684.53
778.993	678.39
779.175	690.68
779.357	567.8
779.539	549.37
779.721	547.32
779.903	598.52
780.085	602.61
780.267	641.53
780.449	561.66
780.631	641.53
780.812	600.57
780.994	625.14
781.176	592.37
781.358	580.09
781.54	616.95
781.721	590.33
781.903	506.36
782.085	514.55
782.267	528.89
782.448	498.17
782.63	520.7
782.812	596.47
782.993	592.37
783.175	522.74
783.357	520.7
783.538	537.08
783.72	567.8
783.901	489.98
784.083	526.84
784.264	451.07
784.446	449.02
784.627	444.92
784.809	504.31
784.99	530.94
785.172	463.35
785.353	430.59
785.535	457.21
785.716	547.32
785.897	455.16
786.079	506.36
786.26	455.16
786.441	489.98
786.623	461.3
786.804	475.64
786.985	467.45
787.167	467.45
787.348	461.3
787.529	506.36
787.71	385.53
787.891	420.35
788.073	416.25
788.254	375.29
788.435	408.06
788.616	449.02
788.797	385.53
788.978	446.97
789.159	395.77
789.34	403.96
789.522	465.4
789.703	438.78
789.884	408.06
790.065	334.33
790.246	379.39
790.427	403.96
790.607	428.54
790.788	387.58
790.969	391.67
791.15	379.39
791.331	403.96
791.512	424.44
791.693	324.09
791.874	391.67
792.054	363
792.235	412.15
792.416	348.67
792.597	360.95
792.778	334.33
792.958	373.24
793.139	254.46
793.32	317.95
793.5	326.14
793.681	379.39
793.862	403.96
794.042	340.47
794.223	324.09
794.404	311.8
794.584	256.51
794.765	248.32
794.945	299.52
795.126	389.63
795.306	381.43
795.487	322.04
795.667	297.47
795.848	272.89
796.028	295.42
796.209	389.63
796.389	301.56
796.57	350.71
796.75	285.18
796.93	262.65
797.111	262.65
797.291	244.22
797.471	338.43
797.652	322.04
797.832	268.8
798.012	350.71
798.192	287.23
798.373	225.79
798.553	264.7
798.733	346.62
798.913	299.52
799.093	274.94
799.274	342.52
799.454	287.23
799.634	240.12
799.814	352.76
799.994	252.41
800.174	258.56
800.354	262.65
800.534	268.8
800.714	229.88
800.894	178.69
801.074	276.99
801.254	236.03
801.434	184.83
801.614	287.23
801.794	276.99
801.974	608.76
802.154	242.17
802.334	252.41
802.514	260.6
802.693	266.75
802.873	283.13
803.053	217.6
803.233	233.98
803.413	166.4
803.592	307.71
803.772	236.03
803.952	250.36
804.131	162.3
804.311	266.75
804.491	195.07
804.67	184.83
804.85	209.4
805.03	215.55
805.209	240.12
805.389	203.26
805.568	260.6
805.748	211.45
805.928	211.45
806.107	268.8
806.287	182.78
806.466	244.22
806.646	229.88
806.825	229.88
807.004	186.88
807.184	227.84
807.363	186.88
807.543	213.5
807.722	213.5
807.901	297.47
808.081	244.22
808.26	158.21
808.439	238.08
808.619	223.74
808.798	131.58
808.977	266.75
809.156	219.64
809.336	186.88
809.515	186.88
809.694	207.36
809.873	147.97
810.052	152.06
810.231	166.4
810.411	215.55
810.59	227.84
810.769	154.11
810.948	164.35
811.127	170.49
811.306	242.17
811.485	166.4
811.664	274.94
811.843	199.16
812.022	141.82
812.201	203.26
812.38	242.17
812.559	188.93
812.737	219.64
812.916	121.34
813.095	217.6
813.274	209.4
813.453	197.12
813.632	158.21
813.811	254.46
813.989	193.02
814.168	205.31
814.347	160.25
814.526	135.68
814.704	166.4
814.883	188.93
815.062	145.92
815.24	223.74
815.419	174.59
815.598	150.01
815.776	94.72
815.955	160.25
816.133	94.72
816.312	158.21
816.49	168.45
816.669	168.45
816.847	84.48
817.026	102.91
817.204	104.96
817.383	209.4
817.561	119.29
817.74	107.01
817.918	129.53
818.097	115.2
818.275	131.58
818.453	123.39
818.632	160.25
818.81	111.1
818.988	86.53
819.167	150.01
819.345	70.14
819.523	141.82
819.701	100.86
819.879	176.64
820.058	72.19
820.236	123.39
820.414	135.68
820.592	158.21
820.77	127.49
820.948	125.44
821.127	57.86
821.305	96.77
821.483	139.77
821.661	51.71
821.839	125.44
822.017	135.68
822.195	154.11
822.373	147.97
822.551	131.58
822.729	162.3
822.907	176.64
823.085	72.19
823.262	115.2
823.44	137.73
823.618	119.29
823.796	74.24
823.974	102.91
824.152	80.38
824.329	84.48
824.507	74.24
824.685	111.1
824.863	92.67
825.04	88.57
825.218	78.33
825.396	76.29
825.574	74.24
825.751	117.25
825.929	86.53
826.107	100.86
826.284	35.33
826.462	96.77
826.639	74.24
826.817	107.01
826.994	125.44
827.172	45.57
827.349	145.92
827.527	86.53
827.704	82.43
827.882	33.28
828.059	123.39
828.237	41.47
828.414	84.48
828.591	78.33
828.769	86.53
828.946	49.66
829.124	76.29
829.301	150.01
829.478	137.73
829.655	129.53
829.833	102.91
830.01	2.56
830.187	125.44
830.364	92.67
830.542	133.63
830.719	129.53
830.896	25.09
831.073	109.05
831.25	125.44
831.427	80.38
831.604	94.72
831.782	96.77
831.959	86.53
832.136	129.53
832.313	53.76
832.49	84.48
832.667	119.29
832.844	86.53
833.021	129.53
833.198	127.49
833.374	137.73
833.551	82.43
833.728	43.52
833.905	92.67
834.082	113.15
834.259	164.35
834.436	145.92
834.612	33.28
834.789	127.49
834.966	121.34
835.143	111.1
835.319	86.53
835.496	92.67
835.673	145.92
835.85	31.23
836.026	117.25
836.203	53.76
836.38	76.29
836.556	27.14
836.733	45.57
836.909	94.72
837.086	117.25
837.262	102.91
837.439	111.1
837.616	74.24
837.792	109.05
837.968	100.86
838.145	14.85
838.321	184.83
838.498	0.51
838.674	55.81
838.851	20.99
839.027	47.62
839.203	29.18
839.38	104.96
839.556	18.94
839.732	47.62
839.909	76.29
840.085	45.57
840.261	-22.02
840.437	55.81
840.614	41.47
840.79	154.11
840.966	33.28
841.142	55.81
841.318	59.9
841.494	76.29
841.671	127.49
841.847	74.24
842.023	55.81
842.199	123.39
842.375	119.29
842.551	31.23
842.727	47.62
842.903	84.48
843.079	23.04
843.255	80.38
843.431	29.18
843.607	27.14
843.783	18.94
843.959	61.95
844.134	88.57
844.31	49.66
844.486	78.33
844.662	18.94
844.838	84.48
845.013	59.9
845.189	100.86
845.365	139.77
845.541	53.76
845.716	57.86
845.892	57.86
846.068	45.57
846.244	-3.58
846.419	35.33
846.595	45.57
846.77	41.47
846.946	90.62
847.122	39.42
847.297	64
847.473	94.72
847.648	80.38
847.824	111.1
847.999	12.8
848.175	-1.54
848.35	-54.78
848.526	80.38
848.701	111.1
848.876	78.33
849.052	27.14
849.227	35.33
849.403	25.09
849.578	127.49
849.753	20.99
849.929	88.57
850.104	29.18
850.279	70.14
850.454	96.77
850.63	20.99
850.805	-3.58
850.98	29.18
851.155	31.23
851.33	51.71
851.505	39.42
851.681	8.7
851.856	-7.68
852.031	88.57
852.206	102.91
852.381	8.7
852.556	25.09
852.731	152.06
852.906	51.71
853.081	14.85
853.256	59.9
853.431	12.8
853.606	68.09
853.781	70.14
853.956	-9.73
854.131	72.19
854.305	-3.58
854.48	33.28
854.655	37.38
854.83	94.72
855.005	68.09
855.18	35.33
855.354	31.23
855.529	29.18
855.704	-30.21
855.879	61.95
856.053	-26.11
856.228	49.66
856.403	35.33
856.577	88.57
856.752	74.24
856.926	2.56
857.101	39.42
857.276	92.67
857.45	109.05
857.625	129.53
857.799	43.52
857.974	64
858.148	4.61
858.323	78.33
858.497	27.14
858.672	64
858.846	27.14
859.02	45.57
859.195	-1.54
859.369	35.33
859.543	23.04
859.718	14.85
859.892	78.33
860.066	49.66
860.241	-1.54
860.415	-22.02
860.589	37.38
860.763	45.57
860.938	20.99
861.112	68.09
861.286	-5.63
861.46	61.95
861.634	-13.82
861.808	80.38
861.982	20.99
862.157	-75.26
862.331	8.7
862.505	-36.35
862.679	70.14
862.853	41.47
863.027	39.42
863.201	88.57
863.375	68.09
863.549	53.76
863.722	70.14
863.896	6.66
864.07	2.56
864.244	92.67
864.418	33.28
864.592	20.99
864.766	72.19
864.939	35.33
865.113	68.09
865.287	43.52
865.461	55.81
865.634	47.62
865.808	27.14
865.982	39.42
866.156	-75.26
866.329	-15.87
866.503	12.8
866.676	49.66
866.85	25.09
867.024	16.9
867.197	41.47
867.371	107.01
867.544	14.85
867.718	12.8
867.891	150.01
868.065	-40.45
868.238	12.8
868.412	33.28
868.585	61.95
868.759	96.77
868.932	82.43
869.105	33.28
869.279	-30.21
869.452	8.7
869.625	-9.73
869.799	80.38
869.972	39.42
870.145	14.85
870.319	-15.87
870.492	35.33
870.665	-7.68
870.838	31.23
871.011	-7.68
871.185	43.52
871.358	-28.16
871.531	-22.02
871.704	10.75
871.877	47.62
872.05	-22.02
872.223	47.62
872.396	-1.54
872.569	-44.54
872.742	2.56
872.915	37.38
873.088	-58.88
873.261	23.04
873.434	6.66
873.607	-17.92
873.78	14.85
873.953	-9.73
874.126	72.19
874.299	57.86
874.471	-17.92
874.644	14.85
874.817	20.99
874.99	47.62
875.163	-1.54
875.335	27.14
875.508	18.94
875.681	20.99
875.853	-24.06
876.026	-9.73
876.199	14.85
876.371	76.29
876.544	35.33
876.717	12.8
876.889	12.8
877.062	14.85
877.234	51.71
877.407	20.99
877.579	-26.11
877.752	16.9
877.924	-5.63
878.097	27.14
878.269	33.28
878.442	43.52
878.614	-3.58
878.786	41.47
878.959	-5.63
879.131	14.85
879.303	55.81
879.476	76.29
879.648	31.23
879.82	-26.11
879.993	-46.59
880.165	61.95
880.337	37.38
880.509	16.9
880.681	-24.06
880.854	-22.02
881.026	23.04
881.198	39.42
881.37	78.33
881.542	-3.58
881.714	55.81
881.886	0.51
882.058	14.85
882.23	45.57
882.402	-40.45
882.574	23.04
882.746	43.52
882.918	53.76
883.09	4.61
883.262	70.14
883.434	14.85
883.606	64
883.778	70.14
883.95	-32.26
884.122	-1.54
884.293	55.81
884.465	41.47
884.637	33.28
884.809	31.23
884.98	37.38
885.152	47.62
885.324	68.09
885.496	20.99
885.667	27.14
885.839	-3.58
886.011	49.66
886.182	47.62
886.354	53.76
886.525	2.56
886.697	68.09
886.869	-7.68
887.04	-13.82
887.212	18.94
887.383	25.09
887.555	20.99
887.726	12.8
887.897	-38.4
888.069	92.67
888.24	35.33
888.412	41.47
888.583	70.14
888.754	18.94
888.926	-38.4
889.097	18.94
889.268	-19.97
889.44	-9.73
889.611	8.7
889.782	35.33
889.953	20.99
890.125	-1.54
890.296	39.42
890.467	72.19
890.638	18.94
890.809	25.09
890.98	43.52
891.151	18.94
891.323	2.56
891.494	55.81
891.665	23.04
891.836	-17.92
892.007	2.56
892.178	43.52
892.349	25.09
892.52	-42.5
892.691	-15.87
892.862	-19.97
893.032	45.57
893.203	4.61
893.374	4.61
893.545	-13.82
893.716	12.8
893.887	49.66
894.057	45.57
894.228	47.62
894.399	0.51
894.57	61.95
894.74	29.18
894.911	35.33
895.082	-9.73
895.253	33.28
895.423	47.62
895.594	-5.63
895.764	-77.31
895.935	16.9
896.106	2.56
896.276	68.09
896.447	92.67
896.617	23.04
896.788	-9.73
896.958	25.09
897.129	25.09
897.299	12.8
897.47	-5.63
897.64	-3.58
897.81	35.33
897.981	23.04
898.151	35.33
898.322	51.71
898.492	55.81
898.662	-15.87
898.832	-1.54
899.003	-15.87
899.173	8.7
899.343	39.42
899.513	12.8
