Data from USB4F104151__31__11-05-14-331.txt Node

Date: Wed Mar 12 11:05:14 EDT 2025
User: louis
Spectrometer: USB4F10415
Trigger mode: 4
Integration Time (sec): 2.000000E-2
Scans to average: 1
Electric dark correction enabled: true
Nonlinearity correction enabled: false
Boxcar width: 0
XAxis mode: Wavelengths
Number of Pixels in Spectrum: 3648
>>>>>Begin Spectral Data<<<<<
178.204	-36.86
178.424	-36.86
178.644	-36.86
178.864	-126.97
179.084	-65.53
179.304	2.05
179.524	32.77
179.744	53.25
179.964	2.05
180.184	34.82
180.404	-51.2
180.624	-4.1
180.844	-16.38
181.064	6.14
181.283	-49.15
181.503	49.15
181.723	-59.39
181.943	-73.73
182.163	43.01
182.383	-12.29
182.602	20.48
182.822	51.2
183.042	61.44
183.262	-30.72
183.482	24.58
183.701	4.1
183.921	0
184.141	-32.77
184.361	12.29
184.58	12.29
184.8	18.43
185.02	22.53
185.239	88.06
185.459	40.96
185.679	45.06
185.898	-59.39
186.118	67.58
186.338	20.48
186.557	14.34
186.777	-8.19
186.997	-8.19
187.216	38.91
187.436	10.24
187.655	53.25
187.875	26.62
188.095	73.73
188.314	40.96
188.534	83.97
188.753	12.29
188.973	14.34
189.192	53.25
189.412	-18.43
189.631	-53.25
189.851	51.2
190.07	88.06
190.29	-43.01
190.509	-26.62
190.729	67.58
190.948	-16.38
191.168	26.62
191.387	32.77
191.607	-18.43
191.826	-47.1
192.045	65.54
192.265	-40.96
192.484	-49.15
192.704	34.82
192.923	16.38
193.142	45.06
193.362	51.2
193.581	22.53
193.8	14.34
194.02	-16.38
194.239	47.1
194.458	81.92
194.678	-53.25
194.897	32.77
195.116	26.62
195.335	-16.38
195.555	45.06
195.774	51.2
195.993	6.14
196.212	14.34
196.432	-16.38
196.651	2.05
196.87	30.72
197.089	96.25
197.308	67.58
197.528	-12.29
197.747	51.2
197.966	24.58
198.185	65.54
198.404	-6.14
198.623	-22.53
198.842	63.49
199.062	4.1
199.281	12.29
199.5	-77.82
199.719	0
199.938	-45.06
200.157	-8.19
200.376	-4.1
200.595	14.34
200.814	47.1
201.033	2.05
201.252	79.87
201.471	18.43
201.69	26.62
201.909	77.82
202.128	0
202.347	18.43
202.566	51.2
202.785	51.2
203.004	6.14
203.223	63.49
203.442	-8.19
203.661	63.49
203.879	-38.91
204.098	112.64
204.317	12.29
204.536	14.34
204.755	8.19
204.974	49.15
205.193	-71.68
205.411	16.38
205.63	2.05
205.849	65.54
206.068	-63.49
206.287	-2.05
206.505	-18.43
206.724	14.34
206.943	-59.39
207.162	40.96
207.381	4.1
207.599	79.87
207.818	-12.29
208.037	40.96
208.255	18.43
208.474	-63.49
208.693	57.34
208.911	8.19
209.13	69.63
209.349	71.68
209.567	18.43
209.786	47.1
210.005	-26.62
210.223	26.62
210.442	-16.38
210.661	-73.73
210.879	-18.43
211.098	10.24
211.316	-20.48
211.535	81.92
211.753	34.82
211.972	45.06
212.191	-8.19
212.409	20.48
212.628	32.77
212.846	63.49
213.065	30.72
213.283	45.06
213.502	61.44
213.72	2.05
213.938	-4.1
214.157	-10.24
214.375	-10.24
214.594	-32.77
214.812	22.53
215.031	4.1
215.249	-2.05
215.467	14.34
215.686	-4.1
215.904	55.3
216.122	45.06
216.341	12.29
216.559	-32.77
216.778	98.3
216.996	-4.1
217.214	20.48
217.432	34.82
217.651	49.15
217.869	4.1
218.087	14.34
218.306	53.25
218.524	30.72
218.742	-38.91
218.96	-24.58
219.179	-24.58
219.397	-47.1
219.615	-47.1
219.833	-14.34
220.051	-6.14
220.27	24.58
220.488	2.05
220.706	65.54
220.924	-22.53
221.142	-16.38
221.36	34.82
221.578	26.62
221.796	20.48
222.015	12.29
222.233	-59.39
222.451	30.72
222.669	0
222.887	-32.77
223.105	16.38
223.323	59.39
223.541	65.54
223.759	51.2
223.977	-10.24
224.195	77.82
224.413	30.72
224.631	4.1
224.849	65.54
225.067	106.49
225.285	14.34
225.503	-14.34
225.721	16.38
225.939	26.62
226.157	71.68
226.375	92.16
226.592	69.63
226.81	-12.29
227.028	14.34
227.246	81.92
227.464	-20.48
227.682	51.2
227.9	63.49
228.117	45.06
228.335	-16.38
228.553	-24.58
228.771	-26.62
228.989	86.01
229.206	4.1
229.424	-14.34
229.642	55.3
229.86	-67.58
230.077	-4.1
230.295	30.72
230.513	43.01
230.731	45.06
230.948	36.86
231.166	49.15
231.384	63.49
231.601	18.43
231.819	43.01
232.037	-14.34
232.254	16.38
232.472	38.91
232.689	2.05
232.907	86.01
233.125	65.54
233.342	71.68
233.56	30.72
233.777	18.43
233.995	8.19
234.213	55.3
234.43	18.43
234.648	-6.14
234.865	86.01
235.083	57.34
235.3	-34.82
235.518	45.06
235.735	69.63
235.953	57.34
236.17	4.1
236.388	18.43
236.605	2.05
236.822	18.43
237.04	-2.05
237.257	0
237.475	-34.82
237.692	24.58
237.909	-26.62
238.127	-28.67
238.344	-43.01
238.562	24.58
238.779	6.14
238.996	88.06
239.214	-20.48
239.431	20.48
239.648	-34.82
239.865	32.77
240.083	-49.15
240.3	49.15
240.517	16.38
240.735	63.49
240.952	30.72
241.169	10.24
241.386	-4.1
241.603	-16.38
241.821	-18.43
242.038	98.3
242.255	22.53
242.472	79.87
242.689	38.91
242.907	28.67
243.124	-34.82
243.341	51.2
243.558	26.62
243.775	22.53
243.992	61.44
244.209	51.2
244.426	34.82
244.643	69.63
244.86	38.91
245.078	67.58
245.295	22.53
245.512	40.96
245.729	40.96
245.946	-38.91
246.163	98.3
246.38	120.83
246.597	106.49
246.814	59.39
247.031	45.06
247.248	65.54
247.464	43.01
247.681	65.54
247.898	53.25
248.115	-6.14
248.332	-4.1
248.549	-8.19
248.766	65.54
248.983	49.15
249.2	-40.96
249.417	8.19
249.633	28.67
249.85	12.29
250.067	-30.72
250.284	-38.91
250.501	49.15
250.717	110.59
250.934	-2.05
251.151	63.49
251.368	55.3
251.585	57.34
251.801	63.49
252.018	4.1
252.235	47.1
252.451	-12.29
252.668	-10.24
252.885	77.82
253.102	77.82
253.318	98.3
253.535	2.05
253.752	-36.86
253.968	59.39
254.185	45.06
254.401	-8.19
254.618	18.43
254.835	-34.82
255.051	-2.05
255.268	16.38
255.484	10.24
255.701	4.1
255.917	36.86
256.134	-8.19
256.351	18.43
256.567	-30.72
256.784	-6.14
257	-53.25
257.217	71.68
257.433	-20.48
257.65	55.3
257.866	88.06
258.082	69.63
258.299	-43.01
258.515	-24.58
258.732	-4.1
258.948	94.21
259.165	6.14
259.381	86.01
259.597	30.72
259.814	-2.05
260.03	26.62
260.246	10.24
260.463	79.87
260.679	-2.05
260.895	38.91
261.112	108.54
261.328	71.68
261.544	32.77
261.761	30.72
261.977	57.34
262.193	-59.39
262.409	61.44
262.626	-18.43
262.842	6.14
263.058	-38.91
263.274	14.34
263.49	63.49
263.707	43.01
263.923	59.39
264.139	4.1
264.355	28.67
264.571	30.72
264.787	22.53
265.004	47.1
265.22	83.97
265.436	45.06
265.652	47.1
265.868	75.77
266.084	-36.86
266.3	-22.53
266.516	-28.67
266.732	55.3
266.948	22.53
267.164	2.05
267.38	53.25
267.596	108.54
267.812	116.73
268.028	47.1
268.244	10.24
268.46	18.43
268.676	28.67
268.892	83.97
269.108	26.62
269.324	-10.24
269.54	-16.38
269.756	106.49
269.972	-63.49
270.188	10.24
270.403	30.72
270.619	83.97
270.835	24.58
271.051	53.25
271.267	43.01
271.483	55.3
271.698	14.34
271.914	16.38
272.13	-10.24
272.346	96.25
272.562	-18.43
272.777	26.62
272.993	73.73
273.209	30.72
273.425	-14.34
273.64	-49.15
273.856	36.86
274.072	-40.96
274.287	-51.2
274.503	40.96
274.719	49.15
274.934	8.19
275.15	51.2
275.366	47.1
275.581	-57.34
275.797	43.01
276.012	43.01
276.228	-28.67
276.444	59.39
276.659	34.82
276.875	49.15
277.09	6.14
277.306	4.1
277.521	30.72
277.737	0
277.952	16.38
278.168	10.24
278.383	57.34
278.599	24.58
278.814	55.3
279.03	24.58
279.245	49.15
279.461	12.29
279.676	57.34
279.892	12.29
280.107	-10.24
280.322	-36.86
280.538	38.91
280.753	14.34
280.969	24.58
281.184	10.24
281.399	16.38
281.615	-18.43
281.83	83.97
282.045	-36.86
282.26	-36.86
282.476	73.73
282.691	102.4
282.906	-20.48
283.122	153.6
283.337	55.3
283.552	-12.29
283.767	-34.82
283.983	75.77
284.198	6.14
284.413	16.38
284.628	51.2
284.843	55.3
285.058	77.82
285.274	79.87
285.489	38.91
285.704	-14.34
285.919	6.14
286.134	-12.29
286.349	53.25
286.564	43.01
286.779	-6.14
286.995	57.34
287.21	-18.43
287.425	-18.43
287.64	12.29
287.855	6.14
288.07	-18.43
288.285	57.34
288.5	12.29
288.715	116.73
288.93	24.58
289.145	-38.91
289.36	51.2
289.575	43.01
289.79	114.69
290.004	40.96
290.219	61.44
290.434	-38.91
290.649	18.43
290.864	55.3
291.079	61.44
291.294	-22.53
291.509	-10.24
291.724	47.1
291.938	8.19
292.153	-63.49
292.368	22.53
292.583	-8.19
292.798	14.34
293.012	-26.62
293.227	71.68
293.442	14.34
293.657	104.45
293.871	59.39
294.086	71.68
294.301	96.25
294.516	65.54
294.73	-43.01
294.945	-34.82
295.16	8.19
295.374	71.68
295.589	40.96
295.804	4.1
296.018	45.06
296.233	40.96
296.447	59.39
296.662	34.82
296.877	-10.24
297.091	26.62
297.306	47.1
297.52	10.24
297.735	40.96
297.949	90.11
298.164	-2.05
298.378	71.68
298.593	-36.86
298.807	57.34
299.022	-4.1
299.236	81.92
299.451	32.77
299.665	61.44
299.88	90.11
300.094	51.2
300.309	-12.29
300.523	-88.06
300.737	38.91
300.952	57.34
301.166	40.96
301.381	36.86
301.595	49.15
301.809	24.58
302.024	-24.58
302.238	-14.34
302.452	2.05
302.667	0
302.881	112.64
303.095	10.24
303.309	28.67
303.524	32.77
303.738	4.1
303.952	-34.82
304.166	-40.96
304.381	-59.39
304.595	38.91
304.809	36.86
305.023	108.54
305.237	71.68
305.452	163.84
305.666	-12.29
305.88	53.25
306.094	30.72
306.308	26.62
306.522	4.1
306.736	88.06
306.95	6.14
307.164	0
307.379	14.34
307.593	100.35
307.807	106.49
308.021	36.86
308.235	4.1
308.449	-49.15
308.663	94.21
308.877	65.54
309.091	69.63
309.305	96.25
309.519	-86.01
309.733	45.06
309.947	90.11
310.161	88.06
310.374	24.58
310.588	71.68
310.802	4.1
311.016	14.34
311.23	12.29
311.444	-28.67
311.658	57.34
311.872	57.34
312.085	30.72
312.299	51.2
312.513	61.44
312.727	55.3
312.941	2.05
313.154	14.34
313.368	57.34
313.582	110.59
313.796	6.14
314.009	67.58
314.223	20.48
314.437	26.62
314.651	-2.05
314.864	22.53
315.078	-10.24
315.292	-38.91
315.505	6.14
315.719	79.87
315.933	57.34
316.146	18.43
316.36	26.62
316.573	59.39
316.787	71.68
317.001	-16.38
317.214	-10.24
317.428	73.73
317.641	-40.96
317.855	30.72
318.068	12.29
318.282	88.06
318.495	34.82
318.709	67.58
318.922	-12.29
319.136	61.44
319.349	16.38
319.563	22.53
319.776	10.24
319.99	-40.96
320.203	-2.05
320.417	53.25
320.63	12.29
320.843	77.82
321.057	-18.43
321.27	53.25
321.483	28.67
321.697	45.06
321.91	28.67
322.124	-28.67
322.337	30.72
322.55	24.58
322.763	79.87
322.977	40.96
323.19	79.87
323.403	53.25
323.617	-4.1
323.83	96.25
324.043	49.15
324.256	22.53
324.469	61.44
324.683	81.92
324.896	14.34
325.109	8.19
325.322	40.96
325.535	-20.48
325.748	40.96
325.962	4.1
326.175	10.24
326.388	2.05
326.601	36.86
326.814	63.49
327.027	-14.34
327.24	20.48
327.453	24.58
327.666	90.11
327.879	45.06
328.092	30.72
328.305	55.3
328.518	24.58
328.731	77.82
328.944	-32.77
329.157	-4.1
329.37	34.82
329.583	26.62
329.796	53.25
330.009	40.96
330.222	-4.1
330.435	63.49
330.648	96.25
330.861	12.29
331.073	24.58
331.286	22.53
331.499	16.38
331.712	45.06
331.925	12.29
332.138	83.97
332.35	77.82
332.563	77.82
332.776	51.2
332.989	-16.38
333.202	90.11
333.414	38.91
333.627	38.91
333.84	-14.34
334.053	32.77
334.265	-20.48
334.478	108.54
334.691	-43.01
334.903	-4.1
335.116	38.91
335.329	22.53
335.541	-20.48
335.754	108.54
335.966	43.01
336.179	45.06
336.392	43.01
336.604	77.82
336.817	49.15
337.029	55.3
337.242	32.77
337.454	83.97
337.667	86.01
337.88	59.39
338.092	79.87
338.305	94.21
338.517	26.62
338.729	45.06
338.942	51.2
339.154	14.34
339.367	69.63
339.579	36.86
339.792	6.14
340.004	73.73
340.217	6.14
340.429	126.97
340.641	8.19
340.854	4.1
341.066	79.87
341.278	118.78
341.491	96.25
341.703	83.97
341.915	14.34
342.128	65.54
342.34	14.34
342.552	43.01
342.764	65.54
342.977	40.96
343.189	26.62
343.401	38.91
343.613	49.15
343.826	20.48
344.038	-30.72
344.25	40.96
344.462	8.19
344.674	0
344.886	-4.1
345.099	18.43
345.311	47.1
345.523	34.82
345.735	-10.24
345.947	34.82
346.159	92.16
346.371	96.25
346.583	0
346.795	51.2
347.007	-8.19
347.219	-28.67
347.431	-12.29
347.643	55.3
347.855	75.77
348.067	94.21
348.279	53.25
348.491	6.14
348.703	-6.14
348.915	34.82
349.127	51.2
349.339	-2.05
349.551	47.1
349.763	92.16
349.975	40.96
350.187	55.3
350.399	32.77
350.61	45.06
350.822	14.34
351.034	36.86
351.246	2.05
351.458	20.48
351.669	-30.72
351.881	-12.29
352.093	26.62
352.305	22.53
352.517	34.82
352.728	180.22
352.94	67.58
353.152	32.77
353.363	55.3
353.575	63.49
353.787	6.14
353.999	38.91
354.21	90.11
354.422	-14.34
354.633	79.87
354.845	36.86
355.057	86.01
355.268	8.19
355.48	98.3
355.692	34.82
355.903	102.4
356.115	-22.53
356.326	-18.43
356.538	36.86
356.749	49.15
356.961	59.39
357.172	67.58
357.384	-16.38
357.595	65.54
357.807	49.15
358.018	47.1
358.23	73.73
358.441	53.25
358.653	36.86
358.864	40.96
359.075	38.91
359.287	22.53
359.498	73.73
359.709	71.68
359.921	55.3
360.132	32.77
360.344	75.77
360.555	47.1
360.766	153.6
360.977	112.64
361.189	118.78
361.4	-14.34
361.611	43.01
361.823	61.44
362.034	47.1
362.245	-43.01
362.456	26.62
362.667	45.06
362.879	124.93
363.09	28.67
363.301	92.16
363.512	36.86
363.723	51.2
363.935	71.68
364.146	-6.14
364.357	53.25
364.568	2.05
364.779	-28.67
364.99	8.19
365.201	20.48
365.412	45.06
365.623	-38.91
365.834	47.1
366.045	6.14
366.256	36.86
366.467	49.15
366.678	16.38
366.889	-16.38
367.1	34.82
367.311	126.97
367.522	57.34
367.733	65.54
367.944	57.34
368.155	59.39
368.366	65.54
368.577	79.87
368.788	43.01
368.999	47.1
369.209	45.06
369.42	96.25
369.631	81.92
369.842	40.96
370.053	83.97
370.264	24.58
370.474	30.72
370.685	-22.53
370.896	53.25
371.107	77.82
371.317	114.69
371.528	63.49
371.739	53.25
371.95	-16.38
372.16	75.77
372.371	30.72
372.582	53.25
372.792	30.72
373.003	90.11
373.214	-14.34
373.424	-14.34
373.635	2.05
373.846	100.35
374.056	34.82
374.267	51.2
374.477	14.34
374.688	24.58
374.898	40.96
375.109	61.44
375.319	30.72
375.53	61.44
375.74	83.97
375.951	16.38
376.161	20.48
376.372	34.82
376.582	-43.01
376.793	104.45
377.003	0
377.214	22.53
377.424	22.53
377.635	81.92
377.845	53.25
378.055	47.1
378.266	34.82
378.476	43.01
378.686	55.3
378.897	10.24
379.107	-4.1
379.317	61.44
379.528	73.73
379.738	77.82
379.948	14.34
380.158	49.15
380.369	12.29
380.579	94.21
380.789	-18.43
380.999	67.58
381.21	30.72
381.42	100.35
381.63	59.39
381.84	83.97
382.05	110.59
382.261	47.1
382.471	45.06
382.681	24.58
382.891	114.69
383.101	55.3
383.311	100.35
383.521	22.53
383.731	-10.24
383.941	38.91
384.151	90.11
384.361	116.73
384.571	-12.29
384.781	30.72
384.991	96.25
385.201	-24.58
385.411	2.05
385.621	34.82
385.831	26.62
386.041	18.43
386.251	-2.05
386.461	18.43
386.671	55.3
386.881	81.92
387.091	55.3
387.301	57.34
387.511	67.58
387.72	45.06
387.93	69.63
388.14	14.34
388.35	65.54
388.56	98.3
388.769	55.3
388.979	63.49
389.189	75.77
389.399	10.24
389.609	2.05
389.818	86.01
390.028	86.01
390.238	90.11
390.447	12.29
390.657	75.77
390.867	28.67
391.076	43.01
391.286	71.68
391.496	55.3
391.705	4.1
391.915	-32.77
392.125	40.96
392.334	43.01
392.544	49.15
392.753	22.53
392.963	88.06
393.172	124.93
393.382	24.58
393.591	90.11
393.801	110.59
394.01	71.68
394.22	40.96
394.429	79.87
394.639	120.83
394.848	86.01
395.058	110.59
395.267	36.86
395.477	120.83
395.686	83.97
395.895	69.63
396.105	102.4
396.314	96.25
396.524	110.59
396.733	108.54
396.942	118.78
397.152	83.97
397.361	81.92
397.57	90.11
397.78	53.25
397.989	83.97
398.198	100.35
398.407	100.35
398.617	83.97
398.826	73.73
399.035	100.35
399.244	96.25
399.453	102.4
399.663	67.58
399.872	26.62
400.081	65.54
400.29	61.44
400.499	-26.62
400.708	65.54
400.917	108.54
401.127	55.3
401.336	18.43
401.545	135.17
401.754	81.92
401.963	73.73
402.172	4.1
402.381	57.34
402.59	63.49
402.799	100.35
403.008	120.83
403.217	100.35
403.426	139.26
403.635	77.82
403.844	155.65
404.053	124.93
404.262	108.54
404.471	161.79
404.68	139.26
404.888	100.35
405.097	151.55
405.306	192.51
405.515	129.02
405.724	116.73
405.933	94.21
406.142	174.08
406.35	180.22
406.559	129.02
406.768	77.82
406.977	184.32
407.185	251.9
407.394	163.84
407.603	122.88
407.812	204.8
408.02	194.56
408.229	208.89
408.438	180.22
408.646	165.89
408.855	126.97
409.064	180.22
409.272	157.69
409.481	210.94
409.69	239.61
409.898	256
410.107	243.71
410.315	225.28
410.524	262.14
410.733	290.81
410.941	212.99
411.15	301.05
411.358	284.67
411.567	290.81
411.775	309.24
411.984	301.05
412.192	372.73
412.401	411.64
412.609	358.39
412.818	434.17
413.026	393.21
413.234	329.72
413.443	405.5
413.651	428.03
413.86	413.69
414.068	544.76
414.276	462.84
414.485	475.13
414.693	514.04
414.901	507.9
415.11	548.86
415.318	579.58
415.526	503.8
415.734	655.35
415.943	602.1
416.151	643.06
416.359	643.06
416.567	634.87
416.776	675.83
416.984	753.65
417.192	772.08
417.4	772.08
417.608	720.89
417.817	784.37
418.025	811
418.233	870.39
418.441	923.63
418.649	974.83
418.857	923.63
419.065	1023.98
419.273	1001.46
419.481	1044.46
419.689	1081.33
419.897	1097.71
420.105	1230.83
420.313	1183.73
420.521	1189.87
420.729	1390.57
420.937	1353.71
421.145	1253.36
421.353	1392.62
421.561	1376.24
421.769	1503.21
421.977	1464.3
422.185	1515.5
422.393	1693.67
422.601	1791.97
422.809	1894.37
423.017	1732.58
423.224	1888.23
423.432	1900.52
423.64	1929.19
423.848	2025.44
424.056	2099.17
424.263	2148.32
424.471	2187.23
424.679	2215.9
424.887	2404.32
425.094	2514.91
425.302	2500.57
425.51	2701.27
425.718	2615.26
425.925	2738.13
426.133	2703.32
426.341	2953.17
426.548	3055.57
426.756	2996.18
426.964	2971.6
427.171	3229.65
427.379	3274.7
427.586	3397.58
427.794	3571.66
428.001	3571.66
428.209	3938.24
428.417	3751.88
428.624	4040.64
428.832	4087.75
429.039	3985.35
429.247	3917.76
429.454	4235.2
429.662	4462.52
429.869	4345.79
430.076	4597.69
430.284	4519.87
430.491	4884.41
430.699	4954.04
430.906	5087.15
431.114	5085.11
431.321	5320.62
431.528	5429.17
431.736	5787.56
431.943	6070.18
432.15	5867.43
432.358	5683.11
432.565	6217.63
432.772	6145.95
432.979	6557.6
433.187	6614.94
433.394	6750.11
433.601	7028.63
433.808	7155.6
434.016	6905.75
434.223	7409.55
434.43	7888.78
434.637	7557
434.844	8144.77
435.052	8439.68
435.259	8228.74
435.466	8103.81
435.673	8339.33
435.88	8761.21
436.087	9242.48
436.294	9181.04
436.501	9037.69
436.708	9127.8
436.915	9441.14
437.122	9863.02
437.329	9944.94
437.537	10452.83
437.743	10202.98
437.95	10207.08
438.157	10895.19
438.364	11286.36
438.571	11269.97
438.778	11380.56
438.985	12365.64
439.192	11986.76
439.399	12431.17
439.606	11976.52
439.813	12406.59
440.02	13571.89
440.227	13037.37
440.433	12945.21
440.64	13500.21
440.847	13438.77
441.054	13766.45
441.261	14642.98
441.467	14294.82
441.674	14835.49
441.881	15222.55
442.088	15339.29
442.294	15163.16
442.501	15474.45
442.708	16019.21
442.914	16609.03
443.121	17190.65
443.328	16668.42
443.534	18050.8
443.741	17225.47
443.948	17164.03
444.154	18462.44
444.361	18380.52
444.568	18521.83
444.774	18239.21
444.981	18591.46
445.187	19390.17
445.394	20006.61
445.6	19545.81
445.807	21513.91
446.013	20713.16
446.22	21280.44
446.426	21909.17
446.633	22021.81
446.839	22636.2
447.046	22073.01
447.252	22990.5
447.459	22750.88
447.665	23201.44
447.871	23838.36
448.078	24876.68
448.284	23832.21
448.491	24688.26
448.697	25329.28
448.903	25757.3
449.11	25839.22
449.316	25425.53
449.522	26001.01
449.728	26318.45
449.935	26908.26
450.141	26513
450.347	27405.92
450.553	26572.39
450.76	26379.89
450.966	27283.04
451.172	27115.11
451.378	27954.77
451.584	27262.56
451.791	27973.21
451.997	27586.14
452.203	28335.7
452.409	28337.74
452.615	28194.39
452.821	26607.21
453.027	26908.26
453.233	28098.13
453.44	26732.14
453.646	27156.07
453.852	27141.73
454.058	27541.08
454.264	26351.21
454.47	26971.75
454.676	26754.66
454.882	27610.71
455.088	25011.84
455.294	25120.38
455.5	25613.95
455.705	25857.65
455.911	25050.75
456.117	24362.64
456.323	24051.35
456.529	22761.12
456.735	23766.68
456.941	22937.25
457.147	22658.73
457.352	21982.9
457.558	21778.1
457.764	21767.86
457.97	21343.93
458.176	20741.83
458.381	20817.6
458.587	19613.4
458.793	19877.58
458.999	18853.6
459.204	20080.33
459.41	19773.14
459.616	18278.12
459.821	18517.73
460.027	17952.49
460.233	17954.54
460.438	16881.41
460.644	17002.24
460.85	16520.96
461.055	16004.88
461.261	16115.47
461.466	14905.12
461.672	14501.67
461.878	15376.15
462.083	14282.53
462.289	14159.66
462.494	13981.48
462.7	13399.86
462.905	12924.73
463.111	13541.17
463.316	13655.86
463.522	13172.53
463.727	13319.99
463.932	13231.93
464.138	13098.81
464.343	13164.34
464.549	12595.01
464.754	13381.43
464.959	13276.98
465.165	13096.76
465.37	12433.22
465.575	12099.4
465.781	12736.32
465.986	12650.3
466.191	12109.64
466.397	11822.92
466.602	11464.53
466.807	12040.01
467.012	11958.09
467.218	11673.42
467.423	11679.57
467.628	11700.05
467.833	12056.39
468.038	11888.46
468.244	11237.2
468.449	11837.26
468.654	11663.18
468.859	11401.04
469.064	11259.73
469.269	11020.12
469.474	11147.09
469.679	11239.25
469.885	10856.28
470.09	11052.89
470.295	10889.05
470.5	10577.76
470.705	10674.01
470.91	10205.03
471.115	10354.53
471.32	10549.09
471.525	10315.62
471.73	10213.22
471.935	10319.71
472.139	9750.38
472.344	10045.29
472.549	9842.54
472.754	9801.58
472.959	9570.16
473.164	9318.26
473.369	9400.18
473.574	9750.38
473.778	9480.05
473.983	9457.52
474.188	9475.95
474.393	8726.39
474.598	9039.73
474.802	8931.19
475.007	8826.75
475.212	8667
475.417	8552.32
475.621	8406.91
475.826	8501.12
476.031	8234.88
476.235	8146.82
476.44	8320.9
476.645	8083.33
476.849	8220.55
477.054	8155.01
477.259	7907.21
477.463	8118.15
477.668	7669.64
477.872	7843.72
478.077	7565.2
478.282	7497.61
478.486	7679.88
478.691	7327.63
478.895	7470.99
479.1	7483.28
479.304	7405.46
479.509	7145.36
479.713	7260.05
479.918	6987.67
480.122	7212.95
480.326	7339.92
480.531	7344.02
480.735	6981.53
480.94	7057.3
481.144	7210.9
481.348	7133.08
481.553	6989.72
481.757	6784.92
481.961	7026.58
482.166	7055.25
482.37	6942.61
482.574	6750.11
482.778	6829.98
482.983	6985.62
483.187	6795.16
483.391	6856.6
483.595	6832.02
483.8	6774.68
484.004	6803.35
484.208	6973.33
484.412	6889.37
484.616	6875.03
484.821	7071.64
485.025	6889.37
485.229	6893.46
485.433	6809.5
485.637	6946.71
485.841	6846.36
486.045	6557.6
486.249	6905.75
486.453	6750.11
486.657	6850.46
486.861	6829.98
487.065	6762.39
487.269	6879.13
487.473	6864.79
487.677	7047.06
487.881	6797.21
488.085	6979.48
488.289	6981.53
488.493	6827.93
488.697	6881.18
488.901	6942.61
489.105	6782.87
489.309	6887.32
489.512	6926.23
489.716	6969.24
489.92	6825.88
490.124	6981.53
490.328	7059.35
490.531	6928.28
490.735	7038.87
490.939	7102.36
491.143	7085.97
491.346	7063.44
491.55	7489.42
491.754	7178.13
491.958	7278.48
492.161	7159.7
492.365	7370.64
492.569	7253.91
492.772	7284.62
492.976	7425.93
493.18	7321.49
493.383	7649.16
493.587	7495.57
493.79	7653.26
493.994	7499.66
494.197	7554.96
494.401	7835.53
494.605	7696.27
494.808	7788.43
495.012	7688.07
495.215	7759.75
495.419	8093.57
495.622	8171.4
495.825	8095.62
496.029	8054.66
496.232	8216.45
496.436	8187.78
496.639	8347.52
496.843	8351.62
497.046	8552.32
497.249	8611.71
497.453	8677.24
497.656	8765.31
497.859	8726.39
498.063	8920.95
498.266	9303.92
498.469	8990.58
498.673	8873.85
498.876	9398.13
499.079	9336.69
499.282	9412.46
499.485	9566.06
499.689	9582.45
499.892	9697.13
500.095	9678.7
500.298	9926.5
500.501	9875.31
500.705	10137.45
500.908	10534.75
501.111	10581.85
501.314	10631.01
501.517	10647.39
501.72	10850.14
501.923	10665.82
502.126	11018.07
502.329	11288.4
502.532	11253.59
502.735	11384.66
502.938	11616.08
503.141	11765.58
503.344	11669.33
503.547	11837.26
503.75	11968.33
503.953	12224.33
504.156	12175.17
504.359	12463.94
504.562	12480.32
504.765	12709.69
504.968	12848.96
505.17	13104.95
505.373	13061.94
505.576	13262.65
505.779	13369.14
505.982	13455.15
506.185	13690.67
506.387	13995.82
506.59	14008.11
506.793	14124.84
506.996	14212.9
507.198	14645.02
507.401	14372.64
507.604	14786.33
507.807	14939.93
508.009	15253.27
508.212	15077.15
508.415	15443.73
508.617	15527.7
508.82	15716.11
509.022	15847.18
509.225	16088.84
509.428	16076.55
509.63	16082.7
509.833	16129.8
510.035	17051.39
510.238	16594.69
510.44	16766.72
510.643	17194.75
510.845	17350.39
511.048	17073.92
511.25	17606.39
511.453	17673.97
511.655	18495.21
511.858	18052.84
512.06	17958.64
512.262	18663.14
512.465	18661.09
512.667	18915.04
512.87	19191.52
513.072	19310.3
513.274	19435.22
513.477	20012.75
513.679	19693.27
513.881	20033.23
514.084	20098.77
514.286	20211.4
514.488	20215.5
514.69	21212.86
514.893	20833.99
515.095	21022.4
515.297	21456.57
515.499	21321.4
515.701	21993.14
515.904	21819.06
516.106	22220.46
516.308	22429.35
516.51	22824.61
516.712	22546.09
516.914	22994.59
517.116	23365.28
517.318	23703.19
517.52	23582.36
517.722	23666.33
517.925	24161.94
518.127	24602.25
518.329	24477.32
518.531	24450.7
518.733	24952.45
518.935	25384.57
519.136	25376.38
519.338	25656.95
519.54	25937.52
519.742	26488.43
519.944	26205.81
520.146	26590.83
520.348	26685.03
520.55	26953.32
520.752	27020.9
520.954	27547.23
521.155	27524.7
521.357	28137.04
521.559	28042.84
521.761	28681.8
521.963	28382.8
522.164	28436.05
522.366	28853.83
522.568	29099.59
522.77	29417.02
522.971	30082.61
523.173	29662.78
523.375	30076.47
523.576	30047.8
523.778	30072.37
523.98	30570.03
524.181	30787.11
524.383	30971.43
524.584	31071.78
524.786	31092.26
524.988	30922.28
525.189	31936.02
525.391	31706.65
525.592	31870.49
525.794	32138.77
525.995	32034.33
526.197	32718.35
526.398	32179.73
526.6	32534.03
526.801	32873.99
527.003	32992.78
527.204	33033.74
527.406	33357.31
527.607	33330.69
527.808	33826.3
528.01	33279.49
528.211	33713.66
528.412	34209.27
528.614	33953.27
528.815	33869.31
529.016	34285.04
529.218	34323.96
529.419	34420.21
529.62	34194.93
529.822	34518.51
530.023	34790.89
530.224	34516.47
530.425	34520.56
530.626	34545.14
530.828	34653.68
531.029	35333.6
531.23	34764.27
531.431	35044.84
531.632	35036.65
531.833	35276.26
532.035	35216.87
532.236	35225.06
532.437	35503.59
532.638	35683.81
532.839	35659.23
533.04	35800.54
533.241	34889.2
533.442	35986.91
533.643	35436
533.844	35692
534.045	35968.48
534.246	35761.63
534.447	35894.75
534.648	35700.19
534.849	35575.27
535.05	35571.17
535.251	35935.71
535.451	35913.18
535.652	35972.57
535.853	36001.24
536.054	36296.15
536.255	36259.29
536.456	36003.29
536.657	36316.63
536.857	36128.22
537.058	35900.89
537.259	36300.25
537.46	36072.92
537.66	35993.05
537.861	36363.73
538.062	35827.17
538.263	35837.41
538.463	35685.86
538.664	35847.64
538.865	36152.79
539.065	36316.63
539.266	35945.95
539.466	36724.18
539.667	35739.1
539.868	36556.24
540.068	35986.91
540.269	36044.25
540.469	36627.92
540.67	35800.54
540.87	36212.18
541.071	36007.39
541.271	36056.54
541.472	36048.35
541.672	35935.71
541.873	35667.42
542.073	35855.84
542.274	36011.48
542.474	35810.78
542.675	35745.25
542.875	36455.89
543.075	35841.5
543.276	35200.49
543.476	36386.26
543.676	36009.43
543.877	36183.51
544.077	36173.27
544.277	36275.67
544.478	35880.41
544.678	36333.01
544.878	35823.07
545.078	35941.85
545.279	35562.98
545.479	35612.13
545.679	35792.35
545.879	35784.16
546.079	36056.54
546.28	35677.66
546.48	35511.78
546.68	35917.28
546.88	35712.48
547.08	36029.91
547.28	35739.1
547.48	35534.31
547.68	35880.41
547.88	35450.34
548.081	35769.82
548.281	36234.71
548.481	35601.89
548.681	35890.65
548.881	35812.83
549.081	36087.26
549.28	35667.42
549.48	35579.36
549.68	35698.14
549.88	36234.71
550.08	35837.41
550.28	35894.75
550.48	35804.64
550.68	36210.14
550.88	35454.43
551.08	35603.94
551.279	35648.99
551.479	35683.81
551.679	35491.3
551.879	35341.8
552.079	35739.1
552.278	35509.73
552.478	35624.42
552.678	35665.38
552.878	35390.95
553.077	35487.2
553.277	35141.1
553.477	36038.11
553.676	35528.16
553.876	35395.04
554.076	35192.29
554.275	35552.74
554.475	34942.44
554.674	35311.08
554.874	35378.66
555.074	35325.41
555.273	35511.78
555.473	35139.05
555.672	34864.62
555.872	35241.45
556.071	34870.76
556.271	35253.73
556.47	34885.1
556.67	34622.96
556.869	34995.69
557.068	35003.88
557.268	34770.41
557.467	35038.7
557.667	34868.72
557.866	34747.89
558.065	34733.55
558.265	34604.53
558.464	34319.86
558.663	34956.78
558.863	34070.01
559.062	34797.04
559.261	34008.57
559.461	34405.87
559.66	33959.42
559.859	34270.71
560.058	33959.42
560.258	34356.72
560.457	33916.41
560.656	34098.68
560.855	33297.92
561.054	34430.45
561.253	33613.31
561.453	33977.85
561.652	33332.74
561.851	33920.51
562.05	33545.73
562.249	33029.64
562.448	33803.77
562.647	33500.67
562.846	33332.74
563.045	33046.02
563.244	33021.45
563.443	33195.53
563.642	32730.64
563.841	32785.93
564.04	32828.94
564.239	33295.88
564.438	32667.15
564.637	32630.29
564.836	32427.54
565.035	32312.85
565.234	32869.9
565.432	31921.69
565.631	32128.53
565.83	32345.62
566.029	32210.45
566.228	32065.05
566.427	32126.49
566.625	31833.63
566.824	31503.9
567.023	31829.53
567.222	31161.89
567.42	31587.87
567.619	31516.19
567.818	31456.8
568.016	31012.39
568.215	31280.67
568.414	31067.69
568.612	31436.32
568.811	31034.92
569.01	31223.33
569.208	30621.23
569.407	30862.89
569.605	30520.88
569.804	30830.12
570.002	30350.9
570.201	30697
570.4	30475.82
570.598	30209.59
570.797	30023.22
570.995	30207.54
571.193	29871.67
571.392	30021.17
571.59	29767.23
571.789	29898.3
571.987	29693.5
572.186	29464.13
572.384	29218.37
572.582	29625.92
572.781	29605.44
572.979	29101.64
573.177	28980.81
573.376	29130.31
573.574	28884.55
573.772	29249.09
573.971	28771.91
574.169	28393.04
574.367	28909.13
574.565	28737.1
574.763	28237.39
574.962	28456.53
575.16	27993.68
575.358	28069.46
575.556	27715.16
575.754	28286.54
575.952	27725.4
576.151	27973.21
576.349	27719.26
576.547	27631.19
576.745	27674.2
576.943	27627.1
577.141	27555.42
577.339	27700.83
577.537	27287.14
577.735	27653.72
577.933	27080.29
578.131	27242.08
578.329	27020.9
578.527	26572.39
578.725	26965.6
578.923	26828.39
579.121	26822.25
579.319	26951.27
579.516	26721.9
579.714	26443.37
579.912	26291.82
580.11	26558.06
580.308	26363.5
580.506	26308.21
580.704	25683.58
580.901	25976.44
581.099	26099.31
581.297	25765.49
581.495	25857.65
581.692	26056.31
581.89	25607.8
582.088	25882.23
582.285	25534.07
582.483	25912.95
582.681	25468.54
582.878	25124.48
583.076	25482.88
583.274	25669.24
583.471	24897.16
583.669	25069.19
583.866	24895.11
584.064	25052.8
584.262	24661.64
584.459	25063.04
584.657	24858.24
584.854	24962.69
585.052	24213.13
585.249	24649.35
585.447	24387.21
585.644	24196.75
585.841	24489.61
586.039	24639.11
586.236	23885.46
586.434	24032.91
586.631	24010.39
586.828	24086.16
587.026	23938.71
587.223	23797.4
587.42	23766.68
587.618	23738.01
587.815	23297.69
588.012	23506.59
588.21	23471.77
588.407	23692.95
588.604	23359.13
588.801	23033.5
588.999	23211.68
589.196	23334.56
589.393	23148.19
589.59	22953.63
589.787	23008.93
589.984	22881.95
590.182	22820.52
590.379	22961.83
590.576	22232.75
590.773	22935.2
590.97	22443.69
591.167	22838.95
591.364	22322.86
591.561	22568.62
591.758	22312.62
591.955	22163.12
592.152	22181.55
592.349	21966.51
592.546	22040.24
592.743	22130.35
592.94	21778.1
593.137	21950.13
593.334	21481.14
593.531	21393.08
593.727	21823.15
593.924	21782.2
594.121	21384.89
594.318	21550.78
594.515	21292.73
594.712	21558.97
594.908	21313.21
595.105	21317.31
595.302	21245.63
595.499	20801.22
595.696	20897.47
595.892	20885.19
596.089	20870.85
596.286	20696.77
596.482	20518.6
596.679	20754.12
596.876	20606.66
597.072	20651.72
597.269	20719.3
597.466	20491.98
597.662	20088.53
597.859	20225.74
598.055	20260.55
598.252	20156.11
598.448	20039.37
598.645	20113.1
598.841	19810
599.038	20203.21
599.234	20043.47
599.431	19582.68
599.627	19717.84
599.824	19742.42
600.02	19644.12
600.217	19627.73
600.413	19398.36
600.609	19424.98
600.806	19349.21
601.002	19463.9
601.198	19158.75
601.395	19185.37
601.591	19173.08
601.787	19267.29
601.984	18980.57
602.18	19390.17
602.376	19058.4
602.572	18652.9
602.769	18753.25
602.965	18718.43
603.161	18601.7
603.357	18636.52
603.553	18722.53
603.75	18915.04
603.946	18464.49
604.142	18564.84
604.338	18263.79
604.534	18579.17
604.73	17946.35
604.926	18190.06
605.122	18245.35
605.318	18175.72
605.514	18067.18
605.71	17977.07
605.906	17917.68
606.102	18003.69
606.298	17938.16
606.494	17659.63
606.69	17741.55
606.886	17905.39
607.082	17596.15
607.278	17485.56
607.474	17420.02
607.67	17635.06
607.866	17276.66
608.062	17565.43
608.257	17106.68
608.453	17344.25
608.649	17325.82
608.845	17204.99
609.041	17250.04
609.236	17215.23
609.432	17145.59
609.628	17204.99
609.824	16828.16
610.019	16959.23
610.215	16985.85
610.411	16817.92
610.606	16756.48
610.802	16791.3
610.998	16762.62
611.193	16926.46
611.389	16514.82
611.584	16639.75
611.78	16822.02
611.976	16633.6
612.171	16525.06
612.367	16615.17
612.562	16410.37
612.758	16129.8
612.953	16430.85
613.149	16578.31
613.344	16111.37
613.539	16457.48
613.735	16377.61
613.93	16416.52
614.126	16060.17
614.321	16250.63
614.517	16170.76
614.712	15836.94
614.907	16035.6
615.103	16232.2
615.298	16064.27
615.493	16271.11
615.688	15939.34
615.884	16240.39
616.079	15777.55
616.274	15945.48
616.47	15820.56
616.665	15748.88
616.86	15722.26
617.055	15771.41
617.25	15761.17
617.445	15806.22
617.641	15384.34
617.836	15472.4
618.031	15359.77
618.226	15666.96
618.421	15263.51
618.616	15425.3
618.811	15214.36
619.006	15505.17
619.201	15056.67
619.396	15130.39
619.591	14884.64
619.786	15396.63
619.981	14862.11
620.176	14991.13
620.371	14708.51
620.566	14917.4
620.761	14747.42
620.956	14956.32
621.151	14366.5
621.346	14456.61
621.541	14470.95
621.735	14497.57
621.93	14245.67
622.125	14100.26
622.32	14118.7
622.515	14292.77
622.709	14192.42
622.904	13819.69
623.099	13756.21
623.294	13948.72
623.488	13625.14
623.683	13461.3
623.878	13522.74
624.072	13471.54
624.267	13748.01
624.462	13596.46
624.656	13414.2
624.851	13250.36
625.046	13373.24
625.24	13002.55
625.435	13025.08
625.629	13063.99
625.824	13098.81
626.018	12939.07
626.213	12564.29
626.407	12750.65
626.602	12472.13
626.796	12613.44
626.991	12513.09
627.185	12511.04
627.38	12416.83
627.574	12377.92
627.768	12119.88
627.963	12126.02
628.157	12164.93
628.352	12181.32
628.546	11906.89
628.74	12142.41
628.935	11833.16
629.129	11968.33
629.323	11521.87
629.517	11554.64
629.712	11450.19
629.906	11706.19
630.1	11450.19
630.294	11376.47
630.489	11134.81
630.683	11452.24
630.877	11253.59
631.071	11261.78
631.265	11229.01
631.459	11241.3
631.653	10962.78
631.848	11212.63
632.042	11044.7
632.236	10884.95
632.43	10903.39
632.624	10614.62
632.818	10616.67
633.012	10661.73
633.206	10510.18
633.4	10835.8
633.594	10581.85
633.788	10446.69
633.982	10565.47
634.176	10530.66
634.369	10131.3
634.563	10260.32
634.757	10291.04
634.951	10143.59
635.145	9934.7
635.339	10168.16
635.533	9846.63
635.726	9959.27
635.92	9764.71
636.114	9883.5
636.308	9674.6
636.501	9602.93
636.695	9504.62
636.889	9633.64
637.083	9607.02
637.276	9475.95
637.47	9561.97
637.664	9607.02
637.857	9207.67
638.051	9318.26
638.244	9164.66
638.438	9156.47
638.632	9152.37
638.825	9019.25
639.019	9066.36
639.212	8961.91
639.406	8976.25
639.599	8877.94
639.793	8828.79
639.986	8789.88
640.18	8810.36
640.373	8836.99
640.567	8558.46
640.76	8519.55
640.954	8468.35
641.147	8466.3
641.34	8347.52
641.534	8419.2
641.727	8509.31
641.92	8396.67
642.114	8071.04
642.307	8374.14
642.5	8202.11
642.694	8165.25
642.887	8118.15
643.08	8017.8
643.273	7937.93
643.467	7907.21
643.66	7907.21
643.853	7960.45
644.046	7726.99
644.239	7708.55
644.432	7704.46
644.626	7546.76
644.819	7683.98
645.012	7565.2
645.205	7649.16
645.398	7591.82
645.591	7450.51
645.784	7456.65
645.977	7546.76
646.17	7391.12
646.363	7317.39
646.556	7262.1
646.749	7278.48
646.942	7344.02
647.135	7051.16
647.328	7395.22
647.521	7124.88
647.714	7012.24
647.907	7051.16
648.099	7104.4
648.292	7067.54
648.485	6928.28
648.678	6889.37
648.871	6768.54
649.064	6807.45
649.256	6944.66
649.449	6858.65
649.642	6557.6
649.835	6647.71
650.027	6651.8
650.22	6494.11
650.413	6451.1
650.605	6565.79
650.798	6414.24
650.991	6395.81
651.183	6449.05
651.376	6272.93
651.568	6344.61
651.761	6541.21
651.954	6188.96
652.146	6301.6
652.339	6365.09
652.531	6117.28
652.724	6219.68
652.916	6092.71
653.109	6180.77
653.301	6139.81
653.494	6104.99
653.686	5846.95
653.879	5949.35
654.071	6027.17
654.263	6080.42
654.456	5885.86
654.648	5914.53
654.84	5740.46
655.033	5818.28
655.225	5750.7
655.417	5633.96
655.61	5693.35
655.802	5830.57
655.994	5754.79
656.186	5537.71
656.379	5580.71
656.571	5566.38
656.763	5695.4
656.955	5521.32
657.148	5572.52
657.34	5615.53
657.532	5468.08
657.724	5371.82
657.916	5277.62
658.108	5400.49
658.3	5314.48
658.492	5308.34
658.684	5330.86
658.876	5171.12
659.068	5271.47
659.26	5119.92
659.452	5224.37
659.644	5228.46
659.836	5052.34
660.028	5244.85
660.22	5019.57
660.412	5117.87
660.604	5005.24
660.796	4951.99
660.988	4880.31
661.18	5023.67
661.372	4816.82
661.563	4900.79
661.755	4831.16
661.947	4775.86
662.139	4956.08
662.331	4767.67
662.522	4753.34
662.714	4614.07
662.906	4841.4
663.097	4667.32
663.289	4646.84
663.481	4708.28
663.673	4634.55
663.864	4601.79
664.056	4581.31
664.247	4540.35
664.439	4425.66
664.631	4417.47
664.822	4556.73
665.014	4534.2
665.205	4390.85
665.397	4483
665.588	4523.96
665.78	4304.83
665.971	4376.51
666.163	4347.84
666.354	4284.35
666.546	4278.21
666.737	4120.51
666.929	4282.3
667.12	4290.49
667.311	4288.45
667.503	4257.73
667.694	4315.07
667.885	4075.46
668.077	4159.42
668.268	4239.3
668.459	4124.61
668.651	4130.75
668.842	4097.99
669.033	4069.31
669.224	3936.2
669.416	4153.28
669.607	4102.08
669.798	3913.67
669.989	4063.17
670.18	3899.33
670.371	3985.35
670.563	3954.63
670.754	3772.36
670.945	3921.86
671.136	3833.8
671.327	3852.23
671.518	3778.5
671.709	3817.41
671.9	3860.42
672.091	3897.28
672.282	3815.37
672.473	3735.5
672.664	3778.5
672.855	3676.1
673.046	3667.91
673.237	3772.36
673.428	3723.21
673.619	3745.73
673.809	3633.1
674	3829.7
674.191	3758.02
674.382	3585.99
674.573	3577.8
674.764	3602.38
674.954	3659.72
675.145	3491.79
675.336	3624.9
675.527	3672.01
675.717	3553.23
675.908	3545.03
676.099	3420.11
676.289	3624.9
676.48	3639.24
676.671	3538.89
676.861	3590.09
677.052	3497.93
677.243	3393.48
677.433	3493.83
677.624	3450.83
677.814	3547.08
678.005	3565.51
678.195	3504.07
678.386	3420.11
678.576	3448.78
678.767	3422.16
678.957	3420.11
679.148	3399.63
679.338	3407.82
679.529	3293.13
679.719	3520.46
679.909	3485.64
680.1	3438.54
680.29	3389.39
680.481	3381.2
680.671	3446.73
680.861	3360.72
681.052	3397.58
681.242	3327.95
681.432	3330
681.622	3256.27
681.813	3311.57
682.003	3420.11
682.193	3364.81
682.383	3196.88
682.573	3250.13
682.764	3299.28
682.954	3297.23
683.144	3213.26
683.334	3395.53
683.524	3264.46
683.714	3420.11
683.904	3325.9
684.094	3258.32
684.284	3305.42
684.474	3440.59
684.664	3213.26
684.854	3180.5
685.044	3141.58
685.234	3182.54
685.424	3180.5
685.614	3209.17
685.804	3096.53
685.994	3074
686.184	3141.58
686.374	3106.77
686.564	3125.2
686.753	3225.55
686.943	3213.26
687.133	3196.88
687.323	3127.25
687.513	3010.51
687.702	3004.37
687.892	2998.23
688.082	3088.34
688.272	3088.34
688.461	3086.29
688.651	3094.48
688.841	3037.14
689.03	3016.66
689.22	3000.27
689.41	2938.84
689.599	2916.31
689.789	2883.54
689.979	2985.94
690.168	2947.03
690.358	2879.44
690.547	2928.6
690.737	2895.83
690.926	2936.79
691.116	2940.88
691.305	2844.63
691.495	2883.54
691.684	2834.39
691.874	2777.05
692.063	2691.03
692.252	2801.62
692.442	2736.09
692.631	2713.56
692.82	2756.57
693.01	2762.71
693.199	2736.09
693.388	2787.29
693.578	2742.23
693.767	2744.28
693.956	2625.5
694.146	2686.94
694.335	2711.51
694.524	2600.92
694.713	2772.95
694.902	2699.22
695.092	2727.89
695.281	2527.19
695.47	2740.18
695.659	2709.46
695.848	2668.5
696.037	2693.08
696.226	2686.94
696.415	2682.84
696.604	2762.71
696.793	2693.08
696.982	2639.83
697.171	2803.67
697.36	2631.64
697.549	2658.26
697.738	2686.94
697.927	2549.72
698.116	2590.68
698.305	2564.06
698.494	2744.28
698.683	2631.64
698.872	2652.12
699.061	2684.89
699.25	2539.48
699.438	2553.82
699.627	2682.84
699.816	2670.55
700.005	2691.03
700.193	2707.41
700.382	2600.92
700.571	2656.22
700.76	2600.92
700.948	2719.7
701.137	2652.12
701.326	2580.44
701.514	2613.21
701.703	2609.11
701.892	2586.58
702.08	2688.98
702.269	2539.48
702.457	2559.96
702.646	2680.79
702.834	2670.55
703.023	2453.47
703.212	2578.39
703.4	2551.77
703.589	2486.23
703.777	2600.92
703.965	2531.29
704.154	2643.93
704.342	2559.96
704.531	2586.58
704.719	2625.5
704.907	2656.22
705.096	2570.2
705.284	2766.81
705.472	2574.3
705.661	2633.69
705.849	2672.6
706.037	2500.57
706.226	2670.55
706.414	2662.36
706.602	2584.54
706.79	2545.63
706.979	2625.5
707.167	2623.45
707.355	2447.32
707.543	2643.93
707.731	2629.59
707.919	2750.42
708.107	2715.61
708.296	2588.63
708.484	2514.91
708.672	2541.53
708.86	2715.61
709.048	2684.89
709.236	2658.26
709.424	2631.64
709.612	2590.68
709.8	2703.32
709.988	2533.34
710.176	2611.16
710.364	2473.95
710.551	2703.32
710.739	2760.66
710.927	2498.52
711.115	2574.3
711.303	2648.02
711.491	2652.12
711.679	2643.93
711.866	2645.98
712.054	2713.56
712.242	2605.02
712.43	2639.83
712.617	2541.53
712.805	2580.44
712.993	2574.3
713.181	2600.92
713.368	2543.58
713.556	2527.19
713.744	2547.67
713.931	2654.17
714.119	2496.47
714.306	2619.35
714.494	2602.97
714.682	2516.95
714.869	2463.71
715.057	2533.34
715.244	2566.1
715.432	2566.1
715.619	2525.15
715.807	2543.58
715.994	2545.63
716.182	2635.74
716.369	2478.04
716.556	2586.58
716.744	2578.39
716.931	2531.29
717.119	2615.26
717.306	2494.43
717.493	2531.29
717.681	2682.84
717.868	2562.01
718.055	2519
718.242	2617.3
718.43	2502.62
718.617	2475.99
718.804	2521.05
718.991	2545.63
719.179	2609.11
719.366	2555.87
719.553	2641.88
719.74	2480.09
719.927	2605.02
720.114	2600.92
720.301	2533.34
720.488	2545.63
720.676	2514.91
720.863	2441.18
721.05	2549.72
721.237	2537.43
721.424	2521.05
721.611	2527.19
721.798	2457.56
721.985	2568.15
722.172	2482.14
722.358	2525.15
722.545	2609.11
722.732	2387.93
722.919	2496.47
723.106	2506.71
723.293	2578.39
723.48	2580.44
723.667	2551.77
723.853	2492.38
724.04	2496.47
724.227	2488.28
724.414	2473.95
724.6	2443.23
724.787	2482.14
724.974	2580.44
725.161	2516.95
725.347	2510.81
725.534	2346.97
725.72	2553.82
725.907	2549.72
726.094	2498.52
726.28	2545.63
726.467	2559.96
726.653	2541.53
726.84	2510.81
727.027	2535.39
727.213	2359.26
727.4	2541.53
727.586	2435.03
727.773	2605.02
727.959	2494.43
728.145	2387.93
728.332	2441.18
728.518	2545.63
728.705	2643.93
728.891	2627.54
729.077	2471.9
729.264	2527.19
729.45	2484.19
729.636	2504.67
729.823	2432.99
730.009	2648.02
730.195	2551.77
730.382	2551.77
730.568	2422.75
730.754	2502.62
730.94	2445.27
731.126	2568.15
731.313	2559.96
731.499	2521.05
731.685	2533.34
731.871	2508.76
732.057	2510.81
732.243	2410.46
732.429	2623.45
732.615	2465.75
732.801	2523.1
732.987	2430.94
733.173	2412.51
733.359	2447.32
733.545	2519
733.731	2496.47
733.917	2467.8
734.103	2463.71
734.289	2504.67
734.475	2398.17
734.661	2564.06
734.847	2516.95
735.033	2521.05
735.219	2416.6
735.404	2435.03
735.59	2531.29
735.776	2443.23
735.962	2478.04
736.148	2549.72
736.333	2488.28
736.519	2398.17
736.705	2383.84
736.89	2529.24
737.076	2469.85
737.262	2330.59
737.447	2416.6
737.633	2416.6
737.819	2437.08
738.004	2422.75
738.19	2426.84
738.375	2263.01
738.561	2416.6
738.747	2308.06
738.932	2498.52
739.118	2531.29
739.303	2443.23
739.489	2471.9
739.674	2306.01
739.859	2277.34
740.045	2234.33
740.23	2389.98
740.416	2179.04
740.601	2363.36
740.786	2271.2
740.972	2287.58
741.157	2136.03
741.342	2228.19
741.528	2197.47
741.713	2344.92
741.898	2217.95
742.084	2326.49
742.269	2279.39
742.454	2250.72
742.639	2254.81
742.824	2373.6
743.01	2283.49
743.195	2256.86
743.38	2213.85
743.565	2136.03
743.75	2217.95
743.935	2260.96
744.12	2346.97
744.305	2111.46
744.49	2150.37
744.675	2113.5
744.86	2074.59
745.045	2162.66
745.23	2162.66
745.415	2129.89
745.6	2185.18
745.785	2113.5
745.97	2220
746.155	2033.63
746.34	2099.17
746.525	2052.06
746.71	2043.87
746.895	1994.72
747.079	2031.59
747.264	1884.13
747.449	1988.58
747.634	1949.67
747.819	2027.49
748.003	1984.48
748.188	2013.15
748.373	2082.78
748.557	2000.87
748.742	1964
748.927	1996.77
749.111	1955.81
749.296	1945.57
749.481	1841.12
749.665	1871.84
749.85	1787.88
750.034	1771.49
750.219	1759.21
750.404	1912.8
750.588	1771.49
750.773	1810.4
750.957	1783.78
751.141	1699.81
751.326	1929.19
751.51	1730.53
751.695	1712.1
751.879	1738.73
752.064	1681.38
752.248	1798.12
752.432	1673.19
752.617	1654.76
752.801	1701.86
752.985	1722.34
753.17	1669.09
753.354	1667.05
753.538	1566.7
753.722	1568.74
753.907	1503.21
754.091	1488.87
754.275	1523.69
754.459	1462.25
754.643	1556.46
754.828	1560.55
755.012	1593.32
755.196	1607.66
755.38	1568.74
755.564	1507.31
755.748	1478.63
755.932	1568.74
756.116	1402.86
756.3	1533.93
756.484	1441.77
756.668	1521.64
756.852	1331.18
757.036	1357.8
757.22	1396.71
757.404	1429.48
757.588	1359.85
757.772	1404.91
757.956	1386.47
758.14	1341.42
758.323	1316.84
758.507	1413.1
758.691	1241.07
758.875	1339.37
759.059	1372.14
759.242	1322.99
759.426	1196.01
759.61	1198.06
759.794	1261.55
759.977	1327.08
760.161	1353.71
760.345	1222.64
760.528	1255.4
760.712	1259.5
760.895	1230.83
761.079	1333.23
761.263	1214.45
761.446	1226.73
761.63	1251.31
761.813	1247.21
761.997	1146.86
762.18	1247.21
762.364	1239.02
762.547	1134.57
762.731	1181.68
762.914	1171.44
763.098	1077.23
763.281	1124.33
763.464	1130.48
763.648	1118.19
763.831	1083.38
764.015	1148.91
764.198	1101.81
764.381	1181.68
764.564	1161.2
764.748	1196.01
764.931	1140.72
765.114	1118.19
765.297	1107.95
765.481	1062.9
765.664	1083.38
765.847	1030.13
766.03	1042.42
766.213	1093.62
766.397	1144.81
766.58	1112.05
766.763	1089.52
766.946	1009.65
767.129	1093.62
767.312	1083.38
767.495	1028.08
767.678	1034.22
767.861	1005.55
768.044	1052.66
768.227	995.31
768.41	1019.89
768.593	995.31
768.776	1026.03
768.959	950.26
769.142	1097.71
769.324	1021.94
769.507	993.26
769.69	882.67
769.873	972.79
770.056	958.45
770.239	1026.03
770.421	1046.51
770.604	980.98
770.787	960.5
770.97	964.59
771.152	962.55
771.335	935.92
771.518	915.44
771.7	985.07
771.883	935.92
772.066	868.34
772.248	987.12
772.431	880.63
772.613	880.63
772.796	851.96
772.978	909.3
773.161	927.73
773.343	866.29
773.526	796.66
773.708	792.56
773.891	917.49
774.073	845.81
774.256	845.81
774.438	860.15
774.621	880.63
774.803	829.43
774.985	815.09
775.168	823.28
775.35	804.85
775.532	821.24
775.715	770.04
775.897	841.72
776.079	724.98
776.261	778.23
776.444	804.85
776.626	831.48
776.808	778.23
776.99	708.6
777.173	704.5
777.355	788.47
777.537	776.18
777.719	751.6
777.901	753.65
778.083	671.73
778.265	700.41
778.447	831.48
778.629	589.82
778.811	749.56
778.993	724.98
779.175	749.56
779.357	761.84
779.539	645.11
779.721	708.6
779.903	651.25
780.085	663.54
780.267	663.54
780.449	532.47
780.631	618.49
780.812	786.42
780.994	630.77
781.176	622.58
781.358	665.59
781.54	593.91
781.721	595.96
781.903	544.76
782.085	657.4
782.267	557.05
782.448	595.96
782.63	587.77
782.812	616.44
782.993	559.1
783.175	550.9
783.357	546.81
783.538	559.1
783.72	514.04
783.901	630.77
784.083	561.14
784.264	600.05
784.446	509.94
784.627	503.8
784.809	550.9
784.99	557.05
785.172	477.18
785.353	481.27
785.535	491.51
785.716	516.09
785.897	473.08
786.079	458.75
786.26	450.55
786.441	438.27
786.623	540.66
786.804	444.41
786.985	413.69
787.167	428.03
787.348	415.74
787.529	485.37
787.71	421.88
787.891	460.79
788.073	450.55
788.254	440.31
788.435	524.28
788.616	464.89
788.797	423.93
788.978	444.41
789.159	413.69
789.34	421.88
789.522	350.2
789.703	370.68
789.884	511.99
790.065	339.96
790.246	434.17
790.427	382.97
790.607	319.48
790.788	366.59
790.969	423.93
791.15	436.22
791.331	407.55
791.512	358.39
791.693	372.73
791.874	344.06
792.054	389.11
792.235	405.5
792.416	309.24
792.597	303.1
792.778	440.31
792.958	374.78
793.139	382.97
793.32	358.39
793.5	428.03
793.681	423.93
793.862	358.39
794.042	311.29
794.223	325.63
794.404	366.59
794.584	272.38
794.765	258.04
794.945	327.68
795.126	331.77
795.306	346.11
795.487	266.24
795.667	260.09
795.848	276.48
796.028	317.44
796.209	323.58
796.389	264.19
796.57	411.64
796.75	354.3
796.93	356.35
797.111	288.76
797.291	344.06
797.471	319.48
797.652	358.39
797.832	323.58
798.012	354.3
798.192	395.26
798.373	313.34
798.553	364.54
798.733	311.29
798.913	266.24
799.093	288.76
799.274	309.24
799.454	325.63
799.634	325.63
799.814	264.19
799.994	243.71
800.174	278.52
800.354	243.71
800.534	239.61
800.714	350.2
800.894	212.99
801.074	299
801.254	237.56
801.434	233.47
801.614	231.42
801.794	172.03
801.974	638.97
802.154	301.05
802.334	237.56
802.514	299
802.693	227.32
802.873	225.28
803.053	202.75
803.233	274.43
803.413	256
803.592	200.7
803.772	229.37
803.952	217.08
804.131	219.13
804.311	262.14
804.491	264.19
804.67	215.04
804.85	167.93
805.03	294.91
805.209	143.36
805.389	221.18
805.568	217.08
805.748	241.66
805.928	182.27
806.107	221.18
806.287	256
806.466	223.23
806.646	227.32
806.825	227.32
807.004	149.5
807.184	247.8
807.363	247.8
807.543	184.32
807.722	227.32
807.901	233.47
808.081	198.65
808.26	135.17
808.439	167.93
808.619	135.17
808.798	159.74
808.977	243.71
809.156	235.52
809.336	243.71
809.515	215.04
809.694	176.13
809.873	243.71
810.052	219.13
810.231	167.93
810.411	178.17
810.59	256
810.769	208.89
810.948	198.65
811.127	112.64
811.306	184.32
811.485	143.36
811.664	202.75
811.843	131.07
812.022	172.03
812.201	180.22
812.38	135.17
812.559	176.13
812.737	202.75
812.916	172.03
813.095	178.17
813.274	212.99
813.453	153.6
813.632	167.93
813.811	165.89
813.989	163.84
814.168	106.49
814.347	202.75
814.526	178.17
814.704	165.89
814.883	184.32
815.062	147.45
815.24	268.28
815.419	77.82
815.598	190.46
815.776	106.49
815.955	172.03
816.133	172.03
816.312	194.56
816.49	151.55
816.669	124.93
816.847	122.88
817.026	108.54
817.204	172.03
817.383	131.07
817.561	38.91
817.74	131.07
817.918	194.56
818.097	137.21
818.275	88.06
818.453	106.49
818.632	167.93
818.81	90.11
818.988	149.5
819.167	94.21
819.345	118.78
819.523	124.93
819.701	143.36
819.879	145.41
820.058	122.88
820.236	116.73
820.414	67.58
820.592	129.02
820.77	135.17
820.948	124.93
821.127	100.35
821.305	108.54
821.483	67.58
821.661	90.11
821.839	106.49
822.017	133.12
822.195	98.3
822.373	122.88
822.551	116.73
822.729	110.59
822.907	126.97
823.085	102.4
823.262	77.82
823.44	223.23
823.618	61.44
823.796	147.45
823.974	104.45
824.152	55.3
824.329	71.68
824.507	153.6
824.685	120.83
824.863	108.54
825.04	77.82
825.218	114.69
825.396	157.69
825.574	94.21
825.751	114.69
825.929	43.01
826.107	118.78
826.284	135.17
826.462	167.93
826.639	141.31
826.817	104.45
826.994	145.41
827.172	92.16
827.349	174.08
827.527	79.87
827.704	69.63
827.882	186.37
828.059	118.78
828.237	100.35
828.414	65.54
828.591	73.73
828.769	98.3
828.946	86.01
829.124	149.5
829.301	94.21
829.478	34.82
829.655	100.35
829.833	172.03
830.01	98.3
830.187	126.97
830.364	61.44
830.542	67.58
830.719	120.83
830.896	67.58
831.073	75.77
831.25	112.64
831.427	69.63
831.604	57.34
831.782	69.63
831.959	88.06
832.136	161.79
832.313	61.44
832.49	102.4
832.667	94.21
832.844	77.82
833.021	88.06
833.198	61.44
833.374	94.21
833.551	69.63
833.728	129.02
833.905	81.92
834.082	159.74
834.259	180.22
834.436	6.14
834.612	53.25
834.789	79.87
834.966	24.58
835.143	-16.38
835.319	98.3
835.496	75.77
835.673	63.49
835.85	96.25
836.026	116.73
836.203	40.96
836.38	110.59
836.556	34.82
836.733	6.14
836.909	96.25
837.086	59.39
837.262	112.64
837.439	63.49
837.616	86.01
837.792	88.06
837.968	118.78
838.145	55.3
838.321	81.92
838.498	98.3
838.674	141.31
838.851	-49.15
839.027	43.01
839.203	92.16
839.38	104.45
839.556	12.29
839.732	139.26
839.909	59.39
840.085	53.25
840.261	26.62
840.437	67.58
840.614	40.96
840.79	65.54
840.966	75.77
841.142	12.29
841.318	34.82
841.494	102.4
841.671	112.64
841.847	12.29
842.023	18.43
842.199	45.06
842.375	100.35
842.551	22.53
842.727	16.38
842.903	61.44
843.079	12.29
843.255	96.25
843.431	83.97
843.607	118.78
843.783	55.3
843.959	71.68
844.134	81.92
844.31	63.49
844.486	155.65
844.662	61.44
844.838	51.2
845.013	102.4
845.189	94.21
845.365	45.06
845.541	45.06
845.716	51.2
845.892	110.59
846.068	65.54
846.244	81.92
846.419	43.01
846.595	30.72
846.77	104.45
846.946	61.44
847.122	12.29
847.297	59.39
847.473	126.97
847.648	69.63
847.824	75.77
847.999	-61.44
848.175	67.58
848.35	14.34
848.526	67.58
848.701	-2.05
848.876	24.58
849.052	14.34
849.227	-28.67
849.403	-12.29
849.578	59.39
849.753	45.06
849.929	69.63
850.104	-18.43
850.279	36.86
850.454	73.73
850.63	100.35
850.805	-32.77
850.98	8.19
851.155	79.87
851.33	69.63
851.505	12.29
851.681	112.64
851.856	124.93
852.031	47.1
852.206	2.05
852.381	26.62
852.556	59.39
852.731	16.38
852.906	135.17
853.081	57.34
853.256	20.48
853.431	2.05
853.606	36.86
853.781	32.77
853.956	43.01
854.131	69.63
854.305	43.01
854.48	92.16
854.655	-2.05
854.83	-10.24
855.005	-14.34
855.18	14.34
855.354	59.39
855.529	65.54
855.704	53.25
855.879	12.29
856.053	75.77
856.228	65.54
856.403	-36.86
856.577	32.77
856.752	34.82
856.926	0
857.101	51.2
857.276	-6.14
857.45	6.14
857.625	32.77
857.799	63.49
857.974	28.67
858.148	28.67
858.323	-2.05
858.497	34.82
858.672	-4.1
858.846	-16.38
859.02	43.01
859.195	34.82
859.369	30.72
859.543	-16.38
859.718	-12.29
859.892	-18.43
860.066	59.39
860.241	26.62
860.415	122.88
860.589	-6.14
860.763	47.1
860.938	-20.48
861.112	24.58
861.286	-47.1
861.46	-2.05
861.634	-10.24
861.808	36.86
861.982	28.67
862.157	14.34
862.331	-8.19
862.505	20.48
862.679	-32.77
862.853	59.39
863.027	28.67
863.201	30.72
863.375	-53.25
863.549	34.82
863.722	8.19
863.896	75.77
864.07	28.67
864.244	-2.05
864.418	36.86
864.592	61.44
864.766	-22.53
864.939	43.01
865.113	45.06
865.287	45.06
865.461	-2.05
865.634	-4.1
865.808	28.67
865.982	-63.49
866.156	77.82
866.329	28.67
866.503	-4.1
866.676	63.49
866.85	49.15
867.024	-24.58
867.197	-10.24
867.371	12.29
867.544	34.82
867.718	14.34
867.891	51.2
868.065	-34.82
868.238	12.29
868.412	4.1
868.585	-2.05
868.759	26.62
868.932	69.63
869.105	30.72
869.279	6.14
869.452	-10.24
869.625	2.05
869.799	24.58
869.972	-98.3
870.145	24.58
870.319	-59.39
870.492	59.39
870.665	120.83
870.838	38.91
871.011	22.53
871.185	51.2
871.358	6.14
871.531	20.48
871.704	-2.05
871.877	-28.67
872.05	45.06
872.223	32.77
872.396	34.82
872.569	124.93
872.742	-16.38
872.915	98.3
873.088	47.1
873.261	26.62
873.434	59.39
873.607	6.14
873.78	49.15
873.953	-22.53
874.126	-8.19
874.299	71.68
874.471	47.1
874.644	51.2
874.817	49.15
874.99	75.77
875.163	12.29
875.335	10.24
875.508	-6.14
875.681	63.49
875.853	71.68
876.026	73.73
876.199	32.77
876.371	-8.19
876.544	47.1
876.717	-12.29
876.889	-14.34
877.062	57.34
877.234	-2.05
877.407	-10.24
877.579	36.86
877.752	40.96
877.924	30.72
878.097	24.58
878.269	-10.24
878.442	38.91
878.614	16.38
878.786	32.77
878.959	-43.01
879.131	49.15
879.303	-26.62
879.476	14.34
879.648	30.72
879.82	-55.3
879.993	-53.25
880.165	69.63
880.337	22.53
880.509	22.53
880.681	-67.58
880.854	6.14
881.026	40.96
881.198	88.06
881.37	8.19
881.542	28.67
881.714	16.38
881.886	18.43
882.058	-71.68
882.23	49.15
882.402	4.1
882.574	-40.96
882.746	2.05
882.918	0
883.09	69.63
883.262	-22.53
883.434	73.73
883.606	-14.34
883.778	10.24
883.95	69.63
884.122	-2.05
884.293	51.2
884.465	-6.14
884.637	57.34
884.809	55.3
884.98	18.43
885.152	24.58
885.324	-18.43
885.496	-34.82
885.667	51.2
885.839	22.53
886.011	69.63
886.182	8.19
886.354	55.3
886.525	45.06
886.697	-34.82
886.869	-51.2
887.04	36.86
887.212	112.64
887.383	12.29
887.555	53.25
887.726	2.05
887.897	-67.58
888.069	14.34
888.24	83.97
888.412	-51.2
888.583	10.24
888.754	6.14
888.926	-28.67
889.097	14.34
889.268	4.1
889.44	16.38
889.611	63.49
889.782	22.53
889.953	-18.43
890.125	16.38
890.296	-6.14
890.467	-86.01
890.638	20.48
890.809	61.44
890.98	-53.25
891.151	24.58
891.323	2.05
891.494	40.96
891.665	10.24
891.836	-36.86
892.007	24.58
892.178	8.19
892.349	-32.77
892.52	16.38
892.691	10.24
892.862	24.58
893.032	14.34
893.203	-14.34
893.374	0
893.545	8.19
893.716	-28.67
893.887	-2.05
894.057	16.38
894.228	-22.53
894.399	16.38
894.57	22.53
894.74	10.24
894.911	2.05
895.082	30.72
895.253	38.91
895.423	14.34
895.594	108.54
895.764	20.48
895.935	20.48
896.106	0
896.276	18.43
896.447	-40.96
896.617	-18.43
896.788	14.34
896.958	14.34
897.129	-86.01
897.299	-40.96
897.47	-51.2
897.64	47.1
897.81	20.48
897.981	90.11
898.151	-30.72
898.322	4.1
898.492	20.48
898.662	0
898.832	-34.82
899.003	-32.77
899.173	43.01
899.343	10.24
899.513	8.19
