Data from USB4F104151__183__11-09-39-662.txt Node

Date: Wed Mar 12 11:09:39 EDT 2025
User: louis
Spectrometer: USB4F10415
Trigger mode: 4
Integration Time (sec): 2.000000E-2
Scans to average: 1
Electric dark correction enabled: true
Nonlinearity correction enabled: false
Boxcar width: 0
XAxis mode: Wavelengths
Number of Pixels in Spectrum: 3648
>>>>>Begin Spectral Data<<<<<
178.204	-18.77
178.424	-18.77
178.644	-18.77
178.864	-137.56
179.084	24.23
179.304	3.75
179.524	-6.49
179.744	-6.49
179.964	28.33
180.184	-61.78
180.404	11.95
180.624	-8.53
180.844	26.28
181.064	34.47
181.283	-12.63
181.503	-49.49
181.723	40.62
181.943	-53.59
182.163	83.63
182.383	-49.49
182.602	30.38
182.822	-20.82
183.042	16.04
183.262	-47.44
183.482	-39.25
183.701	5.8
183.921	97.96
184.141	59.05
184.361	16.04
184.58	28.33
184.8	73.39
185.02	38.57
185.239	46.76
185.459	-16.73
185.679	11.95
185.898	30.38
186.118	38.57
186.338	34.47
186.557	93.87
186.777	-4.44
186.997	16.04
187.216	73.39
187.436	42.67
187.655	89.77
187.875	46.76
188.095	-12.63
188.314	63.15
188.534	75.43
188.753	16.04
188.973	20.14
189.192	87.72
189.412	9.9
189.631	-18.77
189.851	9.9
190.07	65.19
190.29	48.81
190.509	38.57
190.729	34.47
190.948	26.28
191.168	77.48
191.387	1.71
191.607	5.8
191.826	-20.82
192.045	-4.44
192.265	-20.82
192.484	48.81
192.704	63.15
192.923	13.99
193.142	69.29
193.362	36.52
193.581	32.43
193.8	-12.63
194.02	46.76
194.239	11.95
194.458	-39.25
194.678	57
194.897	-2.39
195.116	13.99
195.335	40.62
195.555	59.05
195.774	-43.35
195.993	-20.82
196.212	-2.39
196.432	-18.77
196.651	50.86
196.87	57
197.089	95.91
197.308	77.48
197.528	65.19
197.747	13.99
197.966	24.23
198.185	44.71
198.404	63.15
198.623	7.85
198.842	3.75
199.062	9.9
199.281	44.71
199.5	-8.53
199.719	95.91
199.938	46.76
200.157	40.62
200.376	11.95
200.595	24.23
200.814	-8.53
201.033	20.14
201.252	11.95
201.471	-22.87
201.69	-20.82
201.909	-14.68
202.128	1.71
202.347	40.62
202.566	48.81
202.785	-29.01
203.004	-18.77
203.223	34.47
203.442	50.86
203.661	7.85
203.879	48.81
204.098	54.95
204.317	38.57
204.536	48.81
204.755	16.04
204.974	28.33
205.193	63.15
205.411	77.48
205.63	13.99
205.849	30.38
206.068	-33.11
206.287	44.71
206.505	69.29
206.724	-4.44
206.943	1.71
207.162	-67.92
207.381	28.33
207.599	-33.11
207.818	-8.53
208.037	54.95
208.255	-37.2
208.474	-22.87
208.693	40.62
208.911	-26.96
209.13	-2.39
209.349	24.23
209.567	61.1
209.786	77.48
210.005	-12.63
210.223	-26.96
210.442	-26.96
210.661	73.39
210.879	20.14
211.098	-10.58
211.316	1.71
211.535	38.57
211.753	24.23
211.972	16.04
212.191	24.23
212.409	44.71
212.628	52.91
212.846	93.87
213.065	44.71
213.283	16.04
213.502	42.67
213.72	-0.34
213.938	67.24
214.157	-10.58
214.375	-37.2
214.594	-12.63
214.812	-4.44
215.031	38.57
215.249	61.1
215.467	38.57
215.686	36.52
215.904	65.19
216.122	13.99
216.341	81.58
216.559	-8.53
216.778	83.63
216.996	-12.63
217.214	11.95
217.432	9.9
217.651	57
217.869	11.95
218.087	-76.12
218.306	38.57
218.524	34.47
218.742	57
218.96	48.81
219.179	-4.44
219.397	67.24
219.615	46.76
219.833	24.23
220.051	-6.49
220.27	69.29
220.488	26.28
220.706	-39.25
220.924	-45.4
221.142	22.19
221.36	-61.78
221.578	89.77
221.796	22.19
222.015	-26.96
222.233	34.47
222.451	69.29
222.669	-18.77
222.887	81.58
223.105	95.91
223.323	63.15
223.541	32.43
223.759	5.8
223.977	1.71
224.195	52.91
224.413	59.05
224.631	24.23
224.849	44.71
225.067	102.06
225.285	32.43
225.503	36.52
225.721	-51.54
225.939	116.39
226.157	30.38
226.375	42.67
226.592	7.85
226.81	-69.97
227.028	38.57
227.246	54.95
227.464	-10.58
227.682	106.15
227.9	-31.06
228.117	-18.77
228.335	48.81
228.553	36.52
228.771	-37.2
228.989	50.86
229.206	28.33
229.424	67.24
229.642	18.09
229.86	24.23
230.077	85.67
230.295	28.33
230.513	89.77
230.731	9.9
230.948	-20.82
231.166	38.57
231.384	-4.44
231.601	69.29
231.819	28.33
232.037	52.91
232.254	-43.35
232.472	-10.58
232.689	40.62
232.907	22.19
233.125	1.71
233.342	36.52
233.56	13.99
233.777	-22.87
233.995	-8.53
234.213	11.95
234.43	69.29
234.648	-49.49
234.865	26.28
235.083	13.99
235.3	20.14
235.518	16.04
235.735	34.47
235.953	50.86
236.17	-86.36
236.388	42.67
236.605	24.23
236.822	67.24
237.04	52.91
237.257	108.2
237.475	50.86
237.692	65.19
237.909	5.8
238.127	-29.01
238.344	20.14
238.562	1.71
238.779	-20.82
238.996	7.85
239.214	48.81
239.431	34.47
239.648	-2.39
239.865	16.04
240.083	-22.87
240.3	42.67
240.517	20.14
240.735	30.38
240.952	52.91
241.169	36.52
241.386	61.1
241.603	44.71
241.821	34.47
242.038	34.47
242.255	-33.11
242.472	-26.96
242.689	106.15
242.907	-35.16
243.124	-37.2
243.341	61.1
243.558	20.14
243.775	61.1
243.992	18.09
244.209	89.77
244.426	38.57
244.643	18.09
244.86	28.33
245.078	9.9
245.295	-14.68
245.512	7.85
245.729	-22.87
245.946	-10.58
246.163	18.09
246.38	-12.63
246.597	20.14
246.814	3.75
247.031	13.99
247.248	1.71
247.464	-4.44
247.681	30.38
247.898	24.23
248.115	3.75
248.332	-37.2
248.549	18.09
248.766	85.67
248.983	59.05
249.2	-12.63
249.417	36.52
249.633	44.71
249.85	20.14
250.067	-22.87
250.284	-29.01
250.501	26.28
250.717	46.76
250.934	-20.82
251.151	50.86
251.368	16.04
251.585	50.86
251.801	-4.44
252.018	-4.44
252.235	22.19
252.451	-33.11
252.668	42.67
252.885	32.43
253.102	-12.63
253.318	30.38
253.535	67.24
253.752	16.04
253.968	-4.44
254.185	20.14
254.401	38.57
254.618	36.52
254.835	57
255.051	48.81
255.268	32.43
255.484	-4.44
255.701	-4.44
255.917	69.29
256.134	69.29
256.351	73.39
256.567	22.19
256.784	3.75
257	13.99
257.217	24.23
257.433	16.04
257.65	-22.87
257.866	32.43
258.082	48.81
258.299	-43.35
258.515	46.76
258.732	-49.49
258.948	40.62
259.165	36.52
259.381	100.01
259.597	26.28
259.814	-41.3
260.03	16.04
260.246	9.9
260.463	52.91
260.679	22.19
260.895	50.86
261.112	-10.58
261.328	30.38
261.544	16.04
261.761	81.58
261.977	11.95
262.193	-57.68
262.409	81.58
262.626	73.39
262.842	69.29
263.058	34.47
263.274	11.95
263.49	42.67
263.707	44.71
263.923	5.8
264.139	-57.68
264.355	-4.44
264.571	36.52
264.787	26.28
265.004	65.19
265.22	-8.53
265.436	-22.87
265.652	-47.44
265.868	65.19
266.084	-12.63
266.3	-31.06
266.516	1.71
266.732	20.14
266.948	24.23
267.164	67.24
267.38	59.05
267.596	-47.44
267.812	93.87
268.028	71.34
268.244	24.23
268.46	18.09
268.676	36.52
268.892	22.19
269.108	30.38
269.324	20.14
269.54	3.75
269.756	102.06
269.972	22.19
270.188	22.19
270.403	-35.16
270.619	22.19
270.835	71.34
271.051	73.39
271.267	30.38
271.483	1.71
271.698	7.85
271.914	81.58
272.13	108.2
272.346	-16.73
272.562	-20.82
272.777	97.96
272.993	-20.82
273.209	24.23
273.425	110.25
273.64	-4.44
273.856	-4.44
274.072	32.43
274.287	24.23
274.503	11.95
274.719	28.33
274.934	69.29
275.15	-47.44
275.366	-22.87
275.581	22.19
275.797	-16.73
276.012	48.81
276.228	16.04
276.444	36.52
276.659	-39.25
276.875	-26.96
277.09	65.19
277.306	26.28
277.521	-22.87
277.737	91.82
277.952	32.43
278.168	-12.63
278.383	63.15
278.599	-53.59
278.814	108.2
279.03	28.33
279.245	44.71
279.461	-31.06
279.676	77.48
279.892	54.95
280.107	46.76
280.322	-53.59
280.538	63.15
280.753	3.75
280.969	30.38
281.184	-61.78
281.399	102.06
281.615	-6.49
281.83	20.14
282.045	-12.63
282.26	32.43
282.476	30.38
282.691	26.28
282.906	-2.39
283.122	50.86
283.337	-63.83
283.552	26.28
283.767	-29.01
283.983	-16.73
284.198	36.52
284.413	28.33
284.628	44.71
284.843	54.95
285.058	30.38
285.274	50.86
285.489	-37.2
285.704	-0.34
285.919	48.81
286.134	1.71
286.349	9.9
286.564	42.67
286.779	81.58
286.995	34.47
287.21	-55.64
287.425	93.87
287.64	42.67
287.855	38.57
288.07	-47.44
288.285	3.75
288.5	46.76
288.715	32.43
288.93	-49.49
289.145	-20.82
289.36	57
289.575	71.34
289.79	16.04
290.004	38.57
290.219	-31.06
290.434	7.85
290.649	-35.16
290.864	13.99
291.079	-10.58
291.294	46.76
291.509	46.76
291.724	-47.44
291.938	65.19
292.153	87.72
292.368	-6.49
292.583	-2.39
292.798	57
293.012	34.47
293.227	-14.68
293.442	42.67
293.657	44.71
293.871	83.63
294.086	16.04
294.301	-35.16
294.516	20.14
294.73	11.95
294.945	-6.49
295.16	-51.54
295.374	1.71
295.589	-0.34
295.804	-55.64
296.018	61.1
296.233	52.91
296.447	52.91
296.662	16.04
296.877	46.76
297.091	13.99
297.306	16.04
297.52	77.48
297.735	18.09
297.949	-4.44
298.164	-53.59
298.378	5.8
298.593	52.91
298.807	30.38
299.022	46.76
299.236	-26.96
299.451	63.15
299.665	11.95
299.88	5.8
300.094	11.95
300.309	9.9
300.523	-12.63
300.737	42.67
300.952	36.52
301.166	22.19
301.381	-6.49
301.595	-10.58
301.809	-12.63
302.024	3.75
302.238	46.76
302.452	128.68
302.667	38.57
302.881	69.29
303.095	18.09
303.309	59.05
303.524	-4.44
303.738	54.95
303.952	42.67
304.166	20.14
304.381	-4.44
304.595	3.75
304.809	18.09
305.023	67.24
305.237	13.99
305.452	40.62
305.666	69.29
305.88	69.29
306.094	3.75
306.308	24.23
306.522	63.15
306.736	28.33
306.95	9.9
307.164	-33.11
307.379	63.15
307.593	32.43
307.807	65.19
308.021	100.01
308.235	-14.68
308.449	-10.58
308.663	-0.34
308.877	116.39
309.091	18.09
309.305	-37.2
309.519	-31.06
309.733	81.58
309.947	-41.3
310.161	112.3
310.374	36.52
310.588	69.29
310.802	-18.77
311.016	38.57
311.23	5.8
311.444	-18.77
311.658	36.52
311.872	16.04
312.085	40.62
312.299	-4.44
312.513	44.71
312.727	16.04
312.941	1.71
313.154	65.19
313.368	-0.34
313.582	-0.34
313.796	42.67
314.009	-4.44
314.223	69.29
314.437	-2.39
314.651	5.8
314.864	-2.39
315.078	44.71
315.292	-14.68
315.505	22.19
315.719	20.14
315.933	91.82
316.146	5.8
316.36	61.1
316.573	28.33
316.787	-53.59
317.001	102.06
317.214	11.95
317.428	-37.2
317.641	-37.2
317.855	38.57
318.068	1.71
318.282	16.04
318.495	-22.87
318.709	69.29
318.922	-10.58
319.136	71.34
319.349	32.43
319.563	44.71
319.776	-31.06
319.99	52.91
320.203	1.71
320.417	9.9
320.63	108.2
320.843	50.86
321.057	20.14
321.27	1.71
321.483	-4.44
321.697	52.91
321.91	75.43
322.124	-37.2
322.337	-16.73
322.55	40.62
322.763	30.38
322.977	-6.49
323.19	-18.77
323.403	3.75
323.617	-37.2
323.83	126.63
324.043	34.47
324.256	3.75
324.469	9.9
324.683	7.85
324.896	71.34
325.109	-24.92
325.322	-20.82
325.535	26.28
325.748	40.62
325.962	77.48
326.175	28.33
326.388	-0.34
326.601	-0.34
326.814	-18.77
327.027	-24.92
327.24	112.3
327.453	-37.2
327.666	-33.11
327.879	32.43
328.092	5.8
328.305	13.99
328.518	118.44
328.731	22.19
328.944	3.75
329.157	75.43
329.37	7.85
329.583	44.71
329.796	34.47
330.009	-12.63
330.222	44.71
330.435	63.15
330.648	46.76
330.861	59.05
331.073	26.28
331.286	44.71
331.499	1.71
331.712	7.85
331.925	5.8
332.138	5.8
332.35	91.82
332.563	54.95
332.776	81.58
332.989	18.09
333.202	1.71
333.414	20.14
333.627	7.85
333.84	3.75
334.053	13.99
334.265	36.52
334.478	-20.82
334.691	18.09
334.903	11.95
335.116	22.19
335.329	28.33
335.541	106.15
335.754	24.23
335.966	24.23
336.179	42.67
336.392	-0.34
336.604	-41.3
336.817	89.77
337.029	-6.49
337.242	71.34
337.454	79.53
337.667	54.95
337.88	65.19
338.092	26.28
338.305	32.43
338.517	-8.53
338.729	32.43
338.942	-0.34
339.154	-2.39
339.367	20.14
339.579	16.04
339.792	42.67
340.004	102.06
340.217	-18.77
340.429	3.75
340.641	-24.92
340.854	16.04
341.066	-6.49
341.278	16.04
341.491	122.54
341.703	-6.49
341.915	-26.96
342.128	30.38
342.34	11.95
342.552	63.15
342.764	46.76
342.977	30.38
343.189	65.19
343.401	-59.73
343.613	5.8
343.826	18.09
344.038	-0.34
344.25	-20.82
344.462	-29.01
344.674	73.39
344.886	-16.73
345.099	13.99
345.311	42.67
345.523	11.95
345.735	61.1
345.947	46.76
346.159	57
346.371	-31.06
346.583	71.34
346.795	124.58
347.007	22.19
347.219	22.19
347.431	3.75
347.643	69.29
347.855	32.43
348.067	89.77
348.279	-20.82
348.491	30.38
348.703	30.38
348.915	73.39
349.127	-80.21
349.339	3.75
349.551	81.58
349.763	-16.73
349.975	30.38
350.187	-31.06
350.399	75.43
350.61	-29.01
350.822	57
351.034	18.09
351.246	11.95
351.458	9.9
351.669	77.48
351.881	-35.16
352.093	63.15
352.305	7.85
352.517	22.19
352.728	-0.34
352.94	57
353.152	3.75
353.363	28.33
353.575	59.05
353.787	69.29
353.999	7.85
354.21	77.48
354.422	-14.68
354.633	26.28
354.845	-51.54
355.057	79.53
355.268	95.91
355.48	5.8
355.692	30.38
355.903	54.95
356.115	32.43
356.326	-76.12
356.538	32.43
356.749	1.71
356.961	104.11
357.172	-10.58
357.384	42.67
357.595	91.82
357.807	91.82
358.018	3.75
358.23	-6.49
358.441	54.95
358.653	93.87
358.864	26.28
359.075	13.99
359.287	69.29
359.498	7.85
359.709	24.23
359.921	108.2
360.132	26.28
360.344	61.1
360.555	42.67
360.766	34.47
360.977	1.71
361.189	30.38
361.4	-4.44
361.611	61.1
361.823	77.48
362.034	-0.34
362.245	9.9
362.456	-2.39
362.667	87.72
362.879	-4.44
363.09	32.43
363.301	-16.73
363.512	50.86
363.723	-49.49
363.935	97.96
364.146	67.24
364.357	-35.16
364.568	7.85
364.779	46.76
364.99	87.72
365.201	-0.34
365.412	42.67
365.623	36.52
365.834	-4.44
366.045	13.99
366.256	69.29
366.467	9.9
366.678	-22.87
366.889	-10.58
367.1	-29.01
367.311	-61.78
367.522	36.52
367.733	93.87
367.944	5.8
368.155	67.24
368.366	97.96
368.577	-4.44
368.788	65.19
368.999	65.19
369.209	34.47
369.42	95.91
369.631	73.39
369.842	-41.3
370.053	40.62
370.264	50.86
370.474	73.39
370.685	16.04
370.896	38.57
371.107	44.71
371.317	110.25
371.528	34.47
371.739	61.1
371.95	7.85
372.16	54.95
372.371	-10.58
372.582	34.47
372.792	65.19
373.003	11.95
373.214	-6.49
373.424	75.43
373.635	30.38
373.846	36.52
374.056	71.34
374.267	69.29
374.477	38.57
374.688	46.76
374.898	22.19
375.109	-2.39
375.319	3.75
375.53	59.05
375.74	59.05
375.951	11.95
376.161	-12.63
376.372	20.14
376.582	-4.44
376.793	89.77
377.003	1.71
377.214	73.39
377.424	5.8
377.635	69.29
377.845	-0.34
378.055	97.96
378.266	20.14
378.476	112.3
378.686	1.71
378.897	34.47
379.107	-39.25
379.317	65.19
379.528	95.91
379.738	65.19
379.948	-49.49
380.158	-4.44
380.369	-6.49
380.579	30.38
380.789	50.86
380.999	65.19
381.21	28.33
381.42	102.06
381.63	-37.2
381.84	40.62
382.05	36.52
382.261	54.95
382.471	69.29
382.681	30.38
382.891	24.23
383.101	24.23
383.311	30.38
383.521	36.52
383.731	63.15
383.941	61.1
384.151	38.57
384.361	5.8
384.571	13.99
384.781	50.86
384.991	40.62
385.201	151.21
385.411	81.58
385.621	69.29
385.831	48.81
386.041	57
386.251	-61.78
386.461	97.96
386.671	-2.39
386.881	89.77
387.091	57
387.301	22.19
387.511	81.58
387.72	20.14
387.93	106.15
388.14	71.34
388.35	34.47
388.56	87.72
388.769	73.39
388.979	11.95
389.189	28.33
389.399	13.99
389.609	57
389.818	34.47
390.028	26.28
390.238	28.33
390.447	18.09
390.657	3.75
390.867	36.52
391.076	-4.44
391.286	-20.82
391.496	122.54
391.705	24.23
391.915	65.19
392.125	20.14
392.334	44.71
392.544	52.91
392.753	11.95
392.963	69.29
393.172	77.48
393.382	104.11
393.591	69.29
393.801	36.52
394.01	89.77
394.22	100.01
394.429	104.11
394.639	91.82
394.848	122.54
395.058	24.23
395.267	24.23
395.477	116.39
395.686	-0.34
395.895	11.95
396.105	95.91
396.314	54.95
396.524	69.29
396.733	73.39
396.942	44.71
397.152	81.58
397.361	87.72
397.57	30.38
397.78	42.67
397.989	54.95
398.198	26.28
398.407	32.43
398.617	71.34
398.826	108.2
399.035	102.06
399.244	42.67
399.453	143.02
399.663	-61.78
399.872	44.71
400.081	153.26
400.29	83.63
400.499	26.28
400.708	52.91
400.917	61.1
401.127	89.77
401.336	54.95
401.545	85.67
401.754	159.4
401.963	114.34
402.172	85.67
402.381	57
402.59	26.28
402.799	97.96
403.008	59.05
403.217	67.24
403.426	50.86
403.635	79.53
403.844	112.3
404.053	194.22
404.262	71.34
404.471	57
404.68	42.67
404.888	57
405.097	38.57
405.306	36.52
405.515	249.51
405.724	102.06
405.933	110.25
406.142	75.43
406.35	65.19
406.559	171.69
406.768	59.05
406.977	130.73
407.185	44.71
407.394	93.87
407.603	130.73
407.812	100.01
408.02	67.24
408.229	63.15
408.438	34.47
408.646	153.26
408.855	138.92
409.064	132.78
409.272	143.02
409.481	163.5
409.69	165.54
409.898	145.06
410.107	120.49
410.315	210.6
410.524	163.5
410.733	218.79
410.941	186.02
411.15	198.31
411.358	286.37
411.567	216.74
411.775	290.47
411.984	204.46
412.192	272.04
412.401	267.94
412.609	282.28
412.818	304.81
413.026	214.7
413.234	267.94
413.443	313
413.651	272.04
413.86	366.25
414.068	388.77
414.276	327.33
414.485	274.09
414.693	368.29
414.901	423.59
415.11	382.63
415.318	396.96
415.526	399.01
415.734	362.15
415.943	476.84
416.151	472.74
416.359	472.74
416.567	439.97
416.776	517.79
416.984	460.45
417.192	544.42
417.4	491.17
417.608	536.23
417.817	538.27
418.025	564.9
418.233	661.15
418.441	560.8
418.649	693.92
418.857	581.28
419.065	702.11
419.273	659.1
419.481	728.74
419.689	765.6
419.897	820.89
420.105	724.64
420.313	874.14
420.521	874.14
420.729	851.61
420.937	904.86
421.145	947.87
421.353	990.88
421.561	1072.79
421.769	1017.5
421.977	1111.71
422.185	1083.03
422.393	1123.99
422.601	1191.58
422.809	1216.15
423.017	1201.82
423.224	1283.74
423.432	1214.1
423.64	1279.64
423.848	1439.38
424.056	1400.47
424.263	1466
424.471	1515.16
424.679	1519.25
424.887	1642.13
425.094	1611.41
425.302	1701.52
425.51	1681.04
425.718	1812.11
425.925	1724.05
426.133	1879.69
426.341	2033.29
426.548	2008.72
426.756	2002.57
426.964	2184.84
427.171	2102.92
427.379	2162.31
427.586	2289.29
427.794	2377.35
428.001	2446.98
428.209	2635.39
428.417	2426.5
428.624	2807.42
428.832	2635.39
429.039	2668.16
429.247	2713.22
429.454	2983.55
429.662	3294.84
429.869	2866.81
430.076	3128.95
430.284	2950.78
430.491	3188.35
430.699	3260.02
430.906	3364.47
431.114	3425.91
431.321	3544.69
431.528	3597.94
431.736	3884.66
431.943	4116.08
432.15	3909.23
432.358	3798.64
432.565	4046.44
432.772	4062.83
432.979	4296.3
433.187	4427.37
433.394	4279.91
433.601	4695.65
433.808	4752.99
434.016	4755.04
434.223	4886.11
434.43	5045.85
434.637	5203.55
434.844	5348.95
435.052	5611.09
435.259	5402.2
435.466	5455.45
435.673	5457.5
435.88	5897.81
436.087	6213.2
436.294	6145.61
436.501	6110.8
436.708	6145.61
436.915	6270.54
437.122	6512.2
437.329	6571.59
437.537	6796.87
437.743	6946.37
437.95	6893.12
438.157	7142.97
438.364	7345.72
438.571	7460.41
438.778	7437.88
438.985	8248.88
439.192	7671.35
439.399	8144.43
439.606	7786.04
439.813	8369.71
440.02	8918.56
440.227	8875.56
440.433	8676.9
440.64	8869.41
440.847	8709.67
441.054	8973.86
441.261	9582.1
441.467	9473.56
441.674	9752.09
441.881	10266.13
442.088	9874.96
442.294	10065.43
442.501	10235.41
442.708	10440.2
442.914	10862.08
443.121	11226.62
443.328	11105.79
443.534	11808.25
443.741	11476.48
443.948	11154.94
444.154	12180.98
444.361	12062.19
444.568	12326.38
444.774	12068.34
444.981	12254.7
445.187	12504.56
445.394	13114.85
445.6	13022.69
445.807	14185.94
446.013	13598.17
446.22	13704.67
446.426	14390.74
446.633	14650.83
446.839	14802.38
447.046	14480.85
447.252	14968.26
447.459	15134.15
447.665	15005.13
447.871	15832.51
448.078	16266.67
448.284	15455.68
448.491	15769.02
448.697	16520.62
448.903	16639.4
449.11	16711.08
449.316	16467.38
449.522	16788.91
449.728	17366.43
449.935	17421.73
450.141	17268.13
450.347	17733.02
450.553	17302.95
450.76	17388.96
450.966	17919.39
451.172	17651.1
451.378	18171.29
451.584	17911.19
451.791	18247.06
451.997	18300.31
452.203	18527.63
452.409	18357.65
452.615	18453.91
452.821	17685.92
453.027	17470.88
453.233	18644.37
453.44	17456.54
453.646	17921.43
453.852	18015.64
454.058	18386.32
454.264	17651.1
454.47	17970.58
454.676	17595.81
454.882	18210.2
455.088	16706.99
455.294	16594.35
455.5	16995.75
455.705	17110.44
455.911	16514.48
456.117	16127.41
456.323	15787.45
456.529	15400.38
456.735	15814.07
456.941	15324.61
457.147	15087.04
457.352	14679.5
457.558	14536.14
457.764	14308.82
457.97	13948.37
458.176	13954.52
458.381	13952.47
458.587	13239.78
458.793	13301.22
458.999	12516.84
459.204	13319.65
459.41	13170.15
459.616	12264.94
459.821	12045.81
460.027	12041.71
460.233	12017.14
460.438	11326.97
460.644	11316.73
460.85	10812.93
461.055	10927.62
461.261	10825.22
461.466	10026.51
461.672	9592.34
461.878	10366.48
462.083	9711.13
462.289	9498.14
462.494	9457.18
462.7	8965.67
462.905	8678.95
463.111	9023.01
463.316	8914.47
463.522	8853.03
463.727	8783.4
463.932	8891.94
464.138	8824.36
464.343	8672.81
464.549	8607.27
464.754	8805.92
464.959	8721.96
465.165	8685.09
465.37	8183.34
465.575	8164.91
465.781	8261.16
465.986	8465.96
466.191	8101.42
466.397	8154.67
466.602	7626.29
466.807	7974.45
467.012	7732.79
467.218	7900.72
467.423	7745.08
467.628	7743.03
467.833	8228.4
468.038	7712.31
468.244	7583.29
468.449	7902.77
468.654	7601.72
468.859	7671.35
469.064	7614.01
469.269	7228.99
469.474	7452.22
469.679	7614.01
469.885	7220.8
470.09	7456.31
470.295	7343.67
470.5	7329.34
470.705	7157.31
470.91	6966.85
471.115	7095.87
471.32	7110.21
471.525	6862.4
471.73	6815.3
471.935	6774.34
472.139	6379.08
472.344	6694.47
472.549	6655.56
472.754	6491.72
472.959	6426.18
473.164	6024.78
473.369	6223.44
473.574	6463.05
473.778	6202.96
473.983	6360.65
474.188	6102.61
474.393	5836.37
474.598	5975.63
474.802	5799.51
475.007	5989.97
475.212	5998.16
475.417	5658.2
475.621	5707.35
475.826	5680.72
476.031	5607
476.235	5621.33
476.44	5625.43
476.645	5533.27
476.849	5514.84
477.054	5412.44
477.259	5406.3
477.463	5297.75
477.668	5183.07
477.872	5219.93
478.077	5156.44
478.282	5047.9
478.486	5183.07
478.691	4949.6
478.895	4994.65
479.1	4886.11
479.304	4988.51
479.509	4658.79
479.713	4830.82
479.918	4736.61
480.122	4722.27
480.326	4824.67
480.531	4675.17
480.735	4853.34
480.94	4650.6
481.144	4982.37
481.348	4558.44
481.553	4785.76
481.757	4601.44
481.961	4497
482.166	4685.41
482.37	4546.15
482.574	4478.57
482.778	4574.82
482.983	4617.83
483.187	4654.69
483.391	4646.5
483.595	4542.05
483.8	4603.49
484.004	4757.09
484.208	4652.64
484.412	4646.5
484.616	4769.38
484.821	4560.49
485.025	4492.9
485.229	4652.64
485.433	4593.25
485.637	4642.4
485.841	4617.83
486.045	4517.48
486.249	4740.71
486.453	4542.05
486.657	4533.86
486.861	4568.68
487.065	4546.15
487.269	4632.16
487.473	4562.53
487.677	4603.49
487.881	4626.02
488.085	4687.46
488.289	4519.53
488.493	4607.59
488.697	4499.05
488.901	4656.74
489.105	4654.69
489.309	4431.46
489.512	4607.59
489.716	4726.37
489.92	4744.8
490.124	4689.51
490.328	4630.12
490.531	4767.33
490.735	4714.08
490.939	4615.78
491.143	4689.51
491.346	4714.08
491.55	4798.05
491.754	4630.12
491.958	4824.67
492.161	4752.99
492.365	4814.43
492.569	4828.77
492.772	4777.57
492.976	4879.97
493.18	4898.4
493.383	5043.81
493.587	4959.84
493.79	5027.42
493.994	4959.84
494.197	5033.57
494.401	5095
494.605	5052
494.808	5213.79
495.012	5170.78
495.215	4992.61
495.419	5334.62
495.622	5221.98
495.825	5115.48
496.029	5473.88
496.232	5375.58
496.436	5377.62
496.639	5543.51
496.843	5494.36
497.046	5709.4
497.249	5791.31
497.453	5586.52
497.656	5770.83
497.859	5928.53
498.063	5813.84
498.266	6133.33
498.469	5944.91
498.673	5944.91
498.876	6147.66
499.079	6127.18
499.282	6237.77
499.485	6346.31
499.689	6270.54
499.892	6542.92
500.095	6190.67
500.298	6561.35
500.501	6411.85
500.705	6860.35
500.908	6596.17
501.111	6884.93
501.314	6995.52
501.517	6942.27
501.72	7114.3
501.923	7028.29
502.126	7276.09
502.329	7308.86
502.532	7228.99
502.735	7482.94
502.938	7646.77
503.141	7536.18
503.344	7704.12
503.547	7634.49
503.75	7706.17
503.953	8203.82
504.156	7937.59
504.359	8154.67
504.562	8089.14
504.765	8377.9
504.968	8406.57
505.17	8515.11
505.373	8478.25
505.576	8488.49
505.779	8654.37
505.982	8769.06
506.185	8941.09
506.387	9154.08
506.59	8867.36
506.793	9381.4
506.996	9289.24
507.198	9692.69
507.401	9367.07
507.604	9637.4
507.807	9682.45
508.009	9778.71
508.212	9801.24
508.415	10018.32
508.617	9987.6
508.82	10305.04
509.022	9981.46
509.225	10432.01
509.428	10591.75
509.63	10380.81
509.833	10720.78
510.035	11021.83
510.238	10661.38
510.44	10878.47
510.643	11052.55
510.845	11206.14
511.048	11066.88
511.25	11304.45
511.453	11525.63
511.655	11814.39
511.858	11755
512.06	11877.88
512.262	11783.67
512.465	11828.73
512.667	12162.55
512.87	12447.21
513.072	12303.85
513.274	12705.26
513.477	12674.54
513.679	12832.23
513.881	13063.65
514.084	13024.74
514.286	13233.63
514.488	13362.65
514.69	13499.87
514.893	13608.41
515.095	13491.68
515.297	13827.54
515.499	14028.24
515.701	14159.31
515.904	14224.85
516.106	14450.13
516.308	14456.27
516.51	14577.1
516.712	14716.36
516.914	14966.21
517.116	15203.78
517.318	15150.53
517.52	15533.5
517.722	15158.72
517.925	15785.4
518.127	15738.3
518.329	15951.29
518.531	15998.39
518.733	16195
518.935	16260.53
519.136	16246.19
519.338	16508.33
519.54	16670.12
519.742	16977.32
519.944	17239.46
520.146	17118.63
520.348	17397.15
520.55	17610.14
520.752	17683.87
520.954	18029.98
521.155	17866.14
521.357	18181.53
521.559	18423.19
521.761	18417.04
521.963	18429.33
522.164	18787.72
522.366	18974.09
522.568	19064.2
522.77	19150.21
522.971	19463.55
523.173	19150.21
523.375	19496.32
523.576	19543.42
523.778	19594.62
523.98	20090.23
524.181	19942.78
524.383	20155.77
524.584	20034.94
524.786	20495.73
524.988	20192.63
525.189	20729.2
525.391	20878.7
525.592	20911.47
525.794	20850.03
525.995	20792.69
526.197	21071.21
526.398	21036.39
526.6	21560.67
526.801	21413.22
527.003	21359.97
527.204	21302.63
527.406	21425.51
527.607	21845.34
527.808	22127.96
528.01	21261.67
528.211	21906.78
528.412	22156.63
528.614	22256.98
528.815	22121.82
529.016	22420.82
529.218	22197.59
529.419	22357.33
529.62	22693.2
529.822	22654.29
530.023	22560.08
530.224	22762.83
530.425	22777.17
530.626	22793.55
530.828	22426.96
531.029	23272.78
531.23	22996.3
531.431	22762.83
531.632	22854.99
531.833	23031.12
532.035	22984.01
532.236	23014.73
532.437	23295.3
532.638	23041.36
532.839	22986.06
533.04	23465.28
533.241	22994.25
533.442	23536.96
533.643	23233.86
533.844	23639.36
534.045	23530.82
534.246	23014.73
534.447	23563.59
534.648	23268.68
534.849	23211.34
535.05	23401.8
535.251	23639.36
535.451	23446.85
535.652	23430.47
535.853	23655.75
536.054	23602.5
536.255	23680.32
536.456	23559.49
536.657	23881.02
536.857	23682.37
537.058	23412.04
537.259	23866.69
537.46	23754.05
537.66	23481.67
537.861	23536.96
538.062	23602.5
538.263	23584.07
538.463	23788.86
538.664	23682.37
538.865	23858.49
539.065	23721.28
539.266	23803.2
539.466	23631.17
539.667	23332.17
539.868	23883.07
540.068	23655.75
540.269	23668.03
540.469	23655.75
540.67	23393.61
540.87	23700.8
541.071	23962.94
541.271	23579.97
541.472	23717.18
541.672	23553.35
541.873	23455.04
542.073	23205.19
542.274	23866.69
542.474	23659.84
542.675	23385.41
542.875	23731.52
543.075	23684.42
543.276	23256.39
543.476	23723.33
543.676	23395.65
543.877	23780.67
544.077	23885.12
544.277	23496
544.478	23596.35
544.678	23735.62
544.878	23577.92
545.078	23682.37
545.279	23407.94
545.479	23670.08
545.679	23651.65
545.879	23737.66
546.079	23534.92
546.28	23412.04
546.48	23467.33
546.68	23661.89
546.88	23774.53
547.08	23844.16
547.28	23833.92
547.48	23287.11
547.68	23723.33
547.88	23174.47
548.081	23397.7
548.281	23180.62
548.481	23414.09
548.681	23539.01
548.881	23471.43
549.081	23414.09
549.28	23459.14
549.48	23672.13
549.68	23391.56
549.88	23833.92
550.08	23100.75
550.28	23727.42
550.48	23264.58
550.68	23237.96
550.88	23405.89
551.08	23385.41
551.279	23629.12
551.479	23643.46
551.679	23563.59
551.879	23280.97
552.079	23553.35
552.278	23383.37
552.478	23383.37
552.678	23397.7
552.878	23412.04
553.077	23399.75
553.277	23444.8
553.477	23567.68
553.676	23287.11
553.876	23510.34
554.076	22951.24
554.275	23301.45
554.475	23143.75
554.674	23209.29
554.874	23127.37
555.074	22994.25
555.273	23332.17
555.473	23186.76
555.672	22648.15
555.872	23049.55
556.071	23170.38
556.271	23115.08
556.47	22871.37
556.67	22848.85
556.869	22994.25
557.068	23096.65
557.268	22844.75
557.467	22902.09
557.667	22916.43
557.866	22787.41
558.065	22711.63
558.265	22822.22
558.464	22531.41
558.663	22871.37
558.863	22177.11
559.062	22658.38
559.261	22590.8
559.461	22668.62
559.66	22238.55
559.859	22439.25
560.058	22238.55
560.258	22416.72
560.457	22205.78
560.656	22615.38
560.855	22113.63
561.054	22263.13
561.253	21884.25
561.453	22187.35
561.652	22228.31
561.851	22091.1
562.05	21867.87
562.249	21626.21
562.448	22000.99
562.647	21792.09
562.846	21769.57
563.045	21534.05
563.244	21579.11
563.443	21759.33
563.642	21570.91
563.841	21599.59
564.04	21251.43
564.239	21491.04
564.438	21263.72
564.637	21220.71
564.836	21579.11
565.035	20921.71
565.234	21255.53
565.432	20768.11
565.631	20874.6
565.83	20761.97
566.029	20827.5
566.228	20700.53
566.427	20856.17
566.625	20690.29
566.824	20624.75
567.023	20450.67
567.222	20239.73
567.42	20460.91
567.619	20436.34
567.818	20217.21
568.016	20548.98
568.215	20446.58
568.414	20000.12
568.612	20510.07
568.811	19860.86
569.01	19893.63
569.208	19643.77
569.407	20168.05
569.605	19668.35
569.804	19752.32
570.002	19664.25
570.201	19619.2
570.4	19469.7
570.598	19350.92
570.797	19189.13
570.995	19486.08
571.193	19195.27
571.392	19514.75
571.59	19422.59
571.789	19258.76
571.987	18992.52
572.186	19115.4
572.384	18994.57
572.582	19242.37
572.781	18808.2
572.979	18595.21
573.177	18922.89
573.376	18623.89
573.574	18650.51
573.772	18660.75
573.971	18562.45
574.169	18396.56
574.367	18191.77
574.565	18423.19
574.763	18111.89
574.962	18220.44
575.16	17671.58
575.358	18283.92
575.556	17735.07
575.754	18181.53
575.952	17708.44
576.151	18062.74
576.349	17509.79
576.547	17747.36
576.745	17878.43
576.943	17780.12
577.141	17298.85
577.339	17532.32
577.537	17743.26
577.735	17409.44
577.933	17264.04
578.131	17423.78
578.329	17292.71
578.527	17085.86
578.725	17325.47
578.923	17212.84
579.121	17030.57
579.319	16893.35
579.516	17018.28
579.714	16905.64
579.912	17069.48
580.11	16983.46
580.308	16842.15
580.506	16563.63
580.704	16332.21
580.901	16465.33
581.099	16932.26
581.297	16424.37
581.495	16293.3
581.692	16750
581.89	16201.14
582.088	16350.64
582.285	16438.7
582.483	16399.79
582.681	16338.35
582.878	16352.69
583.076	15617.47
583.274	16002.49
583.471	15922.62
583.669	16061.88
583.866	15830.46
584.064	15928.76
584.262	15734.2
584.459	15576.51
584.657	15898.04
584.854	15678.91
585.052	15435.2
585.249	15519.17
585.447	15467.97
585.644	15687.1
585.841	15564.22
586.039	15527.36
586.236	15504.83
586.434	15259.07
586.631	15320.51
586.828	15060.42
587.026	15199.68
587.223	15003.08
587.42	15060.42
587.618	14808.52
587.815	14849.48
588.012	14943.69
588.21	14857.67
588.407	15007.17
588.604	14802.38
588.801	14573
588.999	14489.04
589.196	14738.89
589.393	14611.92
589.59	14689.74
589.787	14503.37
589.984	14685.64
590.182	14177.75
590.379	14384.59
590.576	14163.41
590.773	14429.65
590.97	14022.1
591.167	14474.7
591.364	14192.08
591.561	14065.11
591.758	13919.7
591.955	13825.5
592.152	14362.06
592.349	13919.7
592.546	13964.76
592.743	13995.48
592.94	13561.31
593.137	13716.95
593.334	13704.67
593.531	13491.68
593.727	13551.07
593.924	13743.58
594.121	13315.55
594.318	13671.9
594.515	13520.35
594.712	13436.38
594.908	13229.54
595.105	13469.15
595.302	13284.83
595.499	13463.01
595.696	13188.58
595.892	12842.47
596.089	13129.19
596.286	13213.15
596.482	13002.21
596.679	13010.4
596.876	13131.23
597.072	12748.26
597.269	12957.16
597.466	12705.26
597.662	12889.57
597.859	12746.22
598.055	13086.18
598.252	12635.63
598.448	12590.57
598.645	12731.88
598.841	12410.35
599.038	12647.91
599.234	12502.51
599.431	12459.5
599.627	12299.76
599.824	12469.74
600.02	12348.91
600.217	12283.38
600.413	12084.72
600.609	12037.62
600.806	12260.85
601.002	12062.19
601.198	12185.07
601.395	12056.05
601.591	12183.02
601.787	12080.63
601.984	11818.49
602.18	11806.2
602.376	11800.05
602.572	11771.38
602.769	11886.07
602.965	11716.09
603.161	11761.14
603.357	11709.94
603.553	11478.52
603.75	11664.89
603.946	11566.59
604.142	11578.87
604.338	11460.09
604.534	11412.99
604.73	11507.2
604.926	11249.15
605.122	11337.21
605.318	11150.85
605.514	11304.45
605.71	11265.53
605.906	11177.47
606.102	10978.82
606.298	11118.08
606.494	11120.13
606.69	11038.21
606.886	11326.97
607.082	10700.3
607.278	11122.18
607.474	10761.73
607.67	11183.62
607.866	10870.28
608.062	11085.31
608.257	10728.97
608.453	10833.41
608.649	10841.61
608.845	10735.11
609.041	10690.06
609.236	10806.79
609.432	10626.57
609.628	10614.28
609.824	10575.37
610.019	10518.03
610.215	10642.95
610.411	10677.77
610.606	10436.11
610.802	10728.97
610.998	10452.49
611.193	10624.52
611.389	10571.27
611.584	10520.07
611.78	10399.24
611.976	10483.21
612.171	10415.63
612.367	10323.47
612.562	10309.13
612.758	10110.48
612.953	10272.27
613.149	10436.11
613.344	10192.4
613.539	10286.61
613.735	10268.17
613.93	10034.71
614.126	10208.78
614.321	10112.53
614.517	10147.34
614.712	9844.24
614.907	9897.49
615.103	9899.54
615.298	9985.55
615.493	10094.1
615.688	9764.37
615.884	10096.14
616.079	9817.62
616.274	9872.92
616.47	9891.35
616.665	9829.91
616.86	9682.45
617.055	9741.85
617.25	9885.2
617.445	9754.13
617.641	9481.75
617.836	9793.05
618.031	9430.55
618.226	9842.2
618.421	9547.29
618.616	9680.41
618.811	9565.72
619.006	9653.78
619.201	9481.75
619.396	9428.51
619.591	9371.16
619.786	9340.44
619.981	9178.65
620.176	9440.79
620.371	9008.67
620.566	9029.15
620.761	9117.22
620.956	9322.01
621.151	8980
621.346	9055.78
621.541	8883.75
621.735	9086.5
621.93	8896.03
622.125	9020.96
622.32	8762.92
622.515	8699.43
622.709	8814.12
622.904	8529.45
623.099	8468.01
623.294	8580.65
623.488	8410.67
623.683	8390.19
623.878	8228.4
624.072	8234.54
624.267	8273.45
624.462	8300.08
624.656	8234.54
624.851	8150.57
625.046	8234.54
625.24	8191.53
625.435	8244.78
625.629	8068.66
625.824	7982.64
626.018	8183.34
626.213	7865.91
626.407	7951.92
626.602	7890.48
626.796	7833.14
626.991	7734.84
627.185	7728.69
627.38	7566.9
627.574	7654.97
627.768	7501.37
627.963	7622.2
628.157	7487.03
628.352	7622.2
628.546	7259.71
628.74	7360.06
628.935	7482.94
629.129	7304.76
629.323	7222.84
629.517	7114.3
629.712	7216.7
629.906	7204.41
630.1	7212.6
630.294	7077.44
630.489	7114.3
630.683	7126.59
630.877	6993.47
631.071	6880.83
631.265	6956.61
631.459	6878.79
631.653	6776.39
631.848	6807.11
632.042	6688.32
632.236	6637.13
632.43	6647.37
632.624	6583.88
632.818	6561.35
633.012	6708.8
633.206	6544.97
633.4	6567.49
633.594	6499.91
633.788	6340.17
633.982	6352.46
634.176	6407.75
634.369	6274.63
634.563	6321.74
634.757	6264.4
634.951	6266.44
635.145	6270.54
635.339	6037.07
635.533	6248.01
635.726	6082.13
635.92	6211.15
636.114	6215.24
636.308	6041.17
636.501	6157.9
636.695	5908.05
636.889	5955.15
637.083	5809.75
637.276	5846.61
637.47	5891.66
637.664	5762.64
637.857	5625.43
638.051	5838.42
638.244	5566.04
638.438	5688.92
638.632	5686.87
638.825	5672.53
639.019	5629.52
639.212	5609.05
639.406	5451.35
639.599	5480.02
639.793	5531.22
639.986	5455.45
640.18	5484.12
640.373	5473.88
640.567	5377.62
640.76	5283.42
640.954	5287.51
641.147	5303.9
641.34	5355.1
641.534	5340.76
641.727	5394.01
641.92	5111.39
642.114	5168.73
642.307	5107.29
642.5	5037.66
642.694	4912.74
642.887	5017.18
643.08	5107.29
643.273	4902.5
643.467	4920.93
643.66	4744.8
643.853	4802.15
644.046	4744.8
644.239	4804.19
644.432	4963.93
644.626	4785.76
644.819	4656.74
645.012	4671.08
645.205	4732.51
645.398	4699.75
645.591	4583.01
645.784	4615.78
645.977	4560.49
646.17	4656.74
646.363	4519.53
646.556	4429.42
646.749	4638.31
646.942	4501.09
647.135	4273.77
647.328	4523.62
647.521	4288.11
647.714	4124.27
647.907	4329.06
648.099	4435.56
648.292	4200.04
648.485	4157.04
648.678	4161.13
648.871	4277.87
649.064	4179.56
649.256	4130.41
649.449	4179.56
649.642	4148.84
649.835	4122.22
650.027	3985.01
650.22	4032.11
650.413	4071.02
650.605	4038.25
650.798	4005.49
650.991	4030.06
651.183	3999.34
651.376	3835.5
651.568	3919.47
651.761	3888.75
651.954	3958.38
652.146	3749.49
652.339	3853.94
652.531	3819.12
652.724	3782.26
652.916	3655.28
653.109	3651.19
653.301	3729.01
653.494	3817.07
653.686	3751.54
653.879	3530.36
654.071	3665.52
654.263	3538.55
654.456	3755.63
654.648	3522.16
654.84	3673.71
655.033	3423.86
655.225	3497.59
655.417	3456.63
655.61	3509.88
655.802	3440.25
655.994	3501.69
656.186	3405.43
656.379	3552.88
656.571	3380.86
656.763	3399.29
656.955	3362.42
657.148	3462.77
657.34	3380.86
657.532	3397.24
657.724	3214.97
657.916	3300.98
658.108	3399.29
658.3	3358.33
658.492	3128.95
658.684	3208.83
658.876	3227.26
659.068	3157.63
659.26	3051.13
659.452	3096.19
659.644	3210.87
659.836	3245.69
660.028	3024.51
660.22	3198.59
660.412	3059.32
660.604	3145.34
660.796	3020.41
660.988	3102.33
661.18	3073.66
661.372	2983.55
661.563	3108.48
661.755	2895.49
661.947	2846.34
662.139	2799.23
662.331	3028.6
662.522	2834.05
662.714	2850.43
662.906	2803.33
663.097	2788.99
663.289	2844.29
663.481	2780.8
663.673	2750.08
663.864	2805.38
664.056	2762.37
664.247	2981.5
664.439	2778.75
664.631	2645.63
664.822	2729.6
665.014	2725.51
665.205	2778.75
665.397	2666.11
665.588	2770.56
665.78	2655.87
665.971	2662.02
666.163	2504.32
666.354	2633.35
666.546	2594.44
666.737	2621.06
666.929	2553.48
667.12	2530.95
667.311	2555.52
667.503	2498.18
667.694	2514.56
667.885	2543.24
668.077	2559.62
668.268	2455.17
668.459	2506.37
668.651	2487.94
668.842	2537.09
669.033	2434.69
669.224	2442.89
669.416	2369.16
669.607	2438.79
669.798	2332.3
669.989	2487.94
670.18	2301.58
670.371	2440.84
670.563	2428.55
670.754	2369.16
670.945	2352.77
671.136	2262.66
671.327	2365.06
671.518	2397.83
671.709	2303.62
671.9	2426.5
672.091	2428.55
672.282	2207.37
672.473	2233.99
672.664	2289.29
672.855	2227.85
673.046	2373.25
673.237	2342.53
673.428	2377.35
673.619	2135.69
673.809	2242.18
674	2377.35
674.191	2215.56
674.382	2086.54
674.573	2207.37
674.764	2272.9
674.954	2133.64
675.145	2225.8
675.336	2211.46
675.527	2123.4
675.717	2137.74
675.908	2104.97
676.099	2141.83
676.289	2217.61
676.48	2135.69
676.671	2180.75
676.861	2121.35
677.052	2145.93
677.243	2096.78
677.433	2072.2
677.624	2098.83
677.814	2057.87
678.005	2123.4
678.195	2016.91
678.386	2170.51
678.576	2107.02
678.767	2084.49
678.957	2008.72
679.148	2006.67
679.338	2002.57
679.529	2141.83
679.719	1971.85
679.909	2154.12
680.1	2082.44
680.29	2059.92
680.481	1934.99
680.671	1975.95
680.861	2064.01
681.052	2025.1
681.242	2035.34
681.432	1922.7
681.622	2018.96
681.813	1992.33
682.003	2045.58
682.193	2014.86
682.383	2037.39
682.573	1951.37
682.764	1953.42
682.954	1941.13
683.144	1947.28
683.334	1883.79
683.524	1848.97
683.714	2027.15
683.904	1902.22
684.094	1861.26
684.284	1945.23
684.474	1834.64
684.664	1926.8
684.854	1928.85
685.044	1996.43
685.234	1816.21
685.424	1857.17
685.614	1889.93
685.804	1865.36
685.994	1855.12
686.184	1846.93
686.374	1838.73
686.564	1795.73
686.753	1783.44
686.943	1863.31
687.133	1799.82
687.323	1799.82
687.513	1666.71
687.702	1879.69
687.892	1810.06
688.082	1765.01
688.272	1777.3
688.461	1795.73
688.651	1941.13
688.841	1793.68
689.03	1756.82
689.22	1664.66
689.41	1808.02
689.599	1773.2
689.789	1773.2
689.979	1758.86
690.168	1707.66
690.358	1724.05
690.547	1703.57
690.737	1715.86
690.926	1678.99
691.116	1650.32
691.305	1685.14
691.495	1769.1
691.684	1650.32
691.874	1676.95
692.063	1578.64
692.252	1726.1
692.442	1695.38
692.631	1570.45
692.82	1560.21
693.01	1615.51
693.199	1678.99
693.388	1582.74
693.578	1554.07
693.767	1556.11
693.956	1455.76
694.146	1588.88
694.335	1656.47
694.524	1521.3
694.713	1662.61
694.902	1603.22
695.092	1590.93
695.281	1498.77
695.47	1568.4
695.659	1595.03
695.848	1619.6
696.037	1560.21
696.226	1570.45
696.415	1547.92
696.604	1640.08
696.793	1570.45
696.982	1556.11
697.171	1633.94
697.36	1709.71
697.549	1631.89
697.738	1463.96
697.927	1566.35
698.116	1511.06
698.305	1652.37
698.494	1592.98
698.683	1654.42
698.872	1603.22
699.061	1521.3
699.25	1576.59
699.438	1625.75
699.627	1625.75
699.816	1611.41
700.005	1533.59
700.193	1564.31
700.382	1562.26
700.571	1572.5
700.76	1689.23
700.948	1599.12
701.137	1543.83
701.326	1656.47
701.514	1566.35
701.703	1732.24
701.892	1461.91
702.08	1564.31
702.269	1605.27
702.457	1597.07
702.646	1648.27
702.834	1609.36
703.023	1672.85
703.212	1605.27
703.4	1640.08
703.589	1638.03
703.777	1627.79
703.965	1681.04
704.154	1656.47
704.342	1566.35
704.531	1713.81
704.719	1660.56
704.907	1726.1
705.096	1658.51
705.284	1603.22
705.472	1599.12
705.661	1629.84
705.849	1672.85
706.037	1685.14
706.226	1627.79
706.414	1607.31
706.602	1619.6
706.79	1580.69
706.979	1617.55
707.167	1566.35
707.355	1580.69
707.543	1558.16
707.731	1695.38
707.919	1601.17
708.107	1595.03
708.296	1646.23
708.484	1642.13
708.672	1644.18
708.86	1652.37
709.048	1648.27
709.236	1601.17
709.424	1588.88
709.612	1668.75
709.8	1707.66
709.988	1767.06
710.176	1638.03
710.364	1595.03
710.551	1617.55
710.739	1664.66
710.927	1638.03
711.115	1625.75
711.303	1709.71
711.491	1734.29
711.679	1707.66
711.866	1670.8
712.054	1564.31
712.242	1662.61
712.43	1576.59
712.617	1609.36
712.805	1613.46
712.993	1699.47
713.181	1625.75
713.368	1713.81
713.556	1607.31
713.744	1621.65
713.931	1736.34
714.119	1654.42
714.306	1635.99
714.494	1658.51
714.682	1670.8
714.869	1627.79
715.057	1592.98
715.244	1574.55
715.432	1689.23
715.619	1668.75
715.807	1777.3
715.994	1627.79
716.182	1754.77
716.369	1713.81
716.556	1789.58
716.744	1631.89
716.931	1574.55
717.119	1623.7
717.306	1722
717.493	1683.09
717.681	1635.99
717.868	1578.64
718.055	1615.51
718.242	1699.47
718.43	1683.09
718.617	1726.1
718.804	1666.71
718.991	1683.09
719.179	1732.24
719.366	1707.66
719.553	1584.79
719.74	1676.95
719.927	1736.34
720.114	1644.18
720.301	1740.43
720.488	1646.23
720.676	1779.34
720.863	1652.37
721.05	1756.82
721.237	1664.66
721.424	1762.96
721.611	1767.06
721.798	1633.94
721.985	1750.67
722.172	1650.32
722.358	1726.1
722.545	1635.99
722.732	1728.14
722.919	1707.66
723.106	1689.23
723.293	1717.9
723.48	1715.86
723.667	1762.96
723.853	1687.18
724.04	1732.24
724.227	1728.14
724.414	1658.51
724.6	1535.64
724.787	1687.18
724.974	1758.86
725.161	1691.28
725.347	1603.22
725.534	1754.77
725.72	1746.58
725.907	1775.25
726.094	1670.8
726.28	1635.99
726.467	1638.03
726.653	1666.71
726.84	1728.14
727.027	1730.19
727.213	1736.34
727.4	1771.15
727.586	1693.33
727.773	1662.61
727.959	1726.1
728.145	1812.11
728.332	1818.25
728.518	1549.97
728.705	1650.32
728.891	1711.76
729.077	1617.55
729.264	1619.6
729.45	1678.99
729.636	1666.71
729.823	1797.78
730.009	1609.36
730.195	1738.38
730.382	1652.37
730.568	1789.58
730.754	1660.56
730.94	1642.13
731.126	1705.62
731.313	1771.15
731.499	1527.44
731.685	1810.06
731.871	1746.58
732.057	1668.75
732.243	1699.47
732.429	1668.75
732.615	1691.28
732.801	1652.37
732.987	1654.42
733.173	1631.89
733.359	1715.86
733.545	1748.62
733.731	1670.8
733.917	1781.39
734.103	1685.14
734.289	1752.72
734.475	1621.65
734.661	1844.88
734.847	1734.29
735.033	1752.72
735.219	1689.23
735.404	1597.07
735.59	1703.57
735.776	1648.27
735.962	1629.84
736.148	1726.1
736.333	1613.46
736.519	1627.79
736.705	1724.05
736.89	1586.83
737.076	1642.13
737.262	1586.83
737.447	1648.27
737.633	1500.82
737.819	1691.28
738.004	1554.07
738.19	1539.73
738.375	1619.6
738.561	1631.89
738.747	1629.84
738.932	1640.08
739.118	1592.98
739.303	1574.55
739.489	1652.37
739.674	1732.24
739.859	1564.31
740.045	1605.27
740.23	1554.07
740.416	1545.88
740.601	1580.69
740.786	1545.88
740.972	1566.35
741.157	1574.55
741.342	1521.3
741.528	1592.98
741.713	1588.88
741.898	1554.07
742.084	1576.59
742.269	1527.44
742.454	1529.49
742.639	1592.98
742.824	1416.85
743.01	1525.4
743.195	1470.1
743.38	1472.15
743.565	1554.07
743.75	1480.34
743.935	1457.81
744.12	1437.33
744.305	1445.52
744.49	1472.15
744.675	1482.39
744.86	1359.51
745.045	1498.77
745.23	1420.95
745.415	1439.38
745.6	1435.28
745.785	1404.57
745.97	1564.31
746.155	1420.95
746.34	1482.39
746.525	1357.46
746.71	1375.89
746.895	1357.46
747.079	1343.13
747.264	1396.37
747.449	1320.6
747.634	1396.37
747.819	1330.84
748.003	1283.74
748.188	1232.54
748.373	1273.5
748.557	1394.33
748.742	1298.07
748.927	1293.97
749.111	1222.3
749.296	1259.16
749.481	1271.45
749.665	1289.88
749.85	1318.55
750.034	1232.54
750.219	1293.97
750.404	1183.38
750.588	1279.64
750.773	1226.39
750.957	1218.2
751.141	1236.63
751.326	1248.92
751.51	1242.78
751.695	1162.9
751.879	1195.67
752.064	1201.82
752.248	1265.3
752.432	1093.27
752.617	1115.8
752.801	1205.91
752.985	1167
753.17	1101.47
753.354	1142.43
753.538	1130.14
753.722	1099.42
753.907	1130.14
754.091	1099.42
754.275	1076.89
754.459	1123.99
754.643	1054.36
754.828	1103.51
755.012	984.73
755.196	994.97
755.38	976.54
755.564	1062.55
755.748	1013.4
755.932	1107.61
756.116	960.16
756.3	1007.26
756.484	927.39
756.668	947.87
756.852	982.68
757.036	908.96
757.22	960.16
757.404	970.4
757.588	882.33
757.772	970.4
757.956	980.64
758.14	927.39
758.323	892.57
758.507	908.96
758.691	913.05
758.875	982.68
759.059	976.54
759.242	890.53
759.426	915.1
759.61	931.48
759.794	943.77
759.977	917.15
760.161	951.96
760.345	898.72
760.528	900.76
760.712	745.12
760.895	880.29
761.079	917.15
761.263	882.33
761.446	822.94
761.63	833.18
761.813	896.67
761.997	855.71
762.18	777.89
762.364	745.12
762.547	837.28
762.731	784.03
762.914	775.84
763.098	818.85
763.281	718.5
763.464	818.85
763.648	755.36
763.831	820.89
764.015	755.36
764.198	730.78
764.381	790.17
764.564	775.84
764.748	712.35
764.931	802.46
765.114	804.51
765.297	757.41
765.481	722.59
765.664	769.69
765.847	759.46
766.03	730.78
766.213	712.35
766.397	710.3
766.58	722.59
766.763	738.98
766.946	728.74
767.129	796.32
767.312	702.11
767.495	720.54
767.678	683.68
767.861	673.44
768.044	726.69
768.227	644.77
768.41	753.31
768.593	685.73
768.776	665.25
768.959	710.3
769.142	718.5
769.324	716.45
769.507	646.82
769.69	679.58
769.873	630.43
770.056	702.11
770.239	667.3
770.421	741.02
770.604	669.34
770.787	605.86
770.97	667.3
771.152	691.87
771.335	618.15
771.518	556.71
771.7	646.82
771.883	728.74
772.066	724.64
772.248	681.63
772.431	593.57
772.613	601.76
772.796	698.02
772.978	646.82
773.161	624.29
773.343	648.86
773.526	583.33
773.708	554.66
773.891	601.76
774.073	581.28
774.256	566.95
774.438	675.49
774.621	581.28
774.803	552.61
774.985	624.29
775.168	605.86
775.35	499.36
775.532	620.19
775.715	583.33
775.897	519.84
776.079	538.27
776.261	530.08
776.444	511.65
776.626	556.71
776.808	444.07
776.99	556.71
777.173	589.47
777.355	550.56
777.537	462.5
777.719	446.12
777.901	468.64
778.083	542.37
778.265	493.22
778.447	577.19
778.629	411.3
778.811	583.33
778.993	425.64
779.175	560.8
779.357	499.36
779.539	507.55
779.721	474.79
779.903	466.6
780.085	548.51
780.267	505.51
780.449	480.93
780.631	450.21
780.812	456.36
780.994	444.07
781.176	454.31
781.358	485.03
781.54	413.35
781.721	362.15
781.903	478.88
782.085	396.96
782.267	415.4
782.448	474.79
782.63	319.14
782.812	478.88
782.993	437.92
783.175	411.3
783.357	458.4
783.538	409.25
783.72	323.24
783.901	421.54
784.083	394.92
784.264	429.73
784.446	374.44
784.627	442.02
784.809	331.43
784.99	347.81
785.172	337.57
785.353	353.96
785.535	343.72
785.716	321.19
785.897	380.58
786.079	376.48
786.26	358.05
786.441	327.33
786.623	392.87
786.804	321.19
786.985	421.54
787.167	310.95
787.348	306.85
787.529	347.81
787.71	288.42
787.891	296.61
788.073	315.05
788.254	290.47
788.435	356.01
788.616	274.09
788.797	327.33
788.978	376.48
789.159	220.84
789.34	296.61
789.522	351.91
789.703	286.37
789.884	335.53
790.065	302.76
790.246	386.72
790.427	284.33
790.607	298.66
790.788	317.09
790.969	231.08
791.15	386.72
791.331	267.94
791.512	267.94
791.693	272.04
791.874	241.32
792.054	280.23
792.235	274.09
792.416	272.04
792.597	274.09
792.778	263.85
792.958	278.18
793.139	276.13
793.32	333.48
793.5	282.28
793.681	317.09
793.862	218.79
794.042	224.94
794.223	210.6
794.404	315.05
794.584	194.22
794.765	229.03
794.945	267.94
795.126	345.77
795.306	190.12
795.487	218.79
795.667	181.93
795.848	257.7
796.028	214.7
796.209	200.36
796.389	280.23
796.57	241.32
796.75	118.44
796.93	257.7
797.111	212.65
797.291	224.94
797.471	292.52
797.652	229.03
797.832	188.07
798.012	224.94
798.192	143.02
798.373	159.4
798.553	157.35
798.733	280.23
798.913	190.12
799.093	202.41
799.274	202.41
799.454	200.36
799.634	208.55
799.814	192.17
799.994	183.98
800.174	188.07
800.354	210.6
800.534	208.55
800.714	181.93
800.894	163.5
801.074	165.54
801.254	204.46
801.434	181.93
801.614	239.27
801.794	200.36
801.974	546.47
802.154	206.5
802.334	237.22
802.514	198.31
802.693	257.7
802.873	130.73
803.053	151.21
803.233	124.58
803.413	226.98
803.592	155.3
803.772	140.97
803.952	183.98
804.131	200.36
804.311	183.98
804.491	167.59
804.67	175.78
804.85	118.44
805.03	143.02
805.209	175.78
805.389	89.77
805.568	140.97
805.748	186.02
805.928	245.41
806.107	163.5
806.287	220.84
806.466	143.02
806.646	204.46
806.825	138.92
807.004	122.54
807.184	206.5
807.363	157.35
807.543	181.93
807.722	126.63
807.901	202.41
808.081	89.77
808.26	124.58
808.439	181.93
808.619	132.78
808.798	134.82
808.977	202.41
809.156	194.22
809.336	132.78
809.515	183.98
809.694	93.87
809.873	143.02
810.052	167.59
810.231	155.3
810.411	159.4
810.59	198.31
810.769	116.39
810.948	181.93
811.127	138.92
811.306	85.67
811.485	140.97
811.664	226.98
811.843	124.58
812.022	161.45
812.201	93.87
812.38	153.26
812.559	138.92
812.737	190.12
812.916	128.68
813.095	138.92
813.274	126.63
813.453	206.5
813.632	149.16
813.811	196.26
813.989	83.63
814.168	120.49
814.347	122.54
814.526	83.63
814.704	149.16
814.883	102.06
815.062	85.67
815.24	95.91
815.419	120.49
815.598	163.5
815.776	120.49
815.955	138.92
816.133	67.24
816.312	147.11
816.49	95.91
816.669	106.15
816.847	42.67
817.026	87.72
817.204	118.44
817.383	149.16
817.561	67.24
817.74	87.72
817.918	61.1
818.097	106.15
818.275	-0.34
818.453	91.82
818.632	77.48
818.81	169.64
818.988	143.02
819.167	57
819.345	102.06
819.523	87.72
819.701	153.26
819.879	110.25
820.058	71.34
820.236	126.63
820.414	22.19
820.592	130.73
820.77	24.23
820.948	153.26
821.127	48.81
821.305	73.39
821.483	116.39
821.661	57
821.839	132.78
822.017	95.91
822.195	95.91
822.373	155.3
822.551	87.72
822.729	175.78
822.907	79.53
823.085	124.58
823.262	130.73
823.44	140.97
823.618	75.43
823.796	54.95
823.974	71.34
824.152	83.63
824.329	28.33
824.507	67.24
824.685	59.05
824.863	112.3
825.04	104.11
825.218	63.15
825.396	126.63
825.574	81.58
825.751	108.2
825.929	30.38
826.107	42.67
826.284	110.25
826.462	149.16
826.639	83.63
826.817	83.63
826.994	159.4
827.172	50.86
827.349	126.63
827.527	122.54
827.704	77.48
827.882	161.45
828.059	28.33
828.237	42.67
828.414	93.87
828.591	114.34
828.769	69.29
828.946	122.54
829.124	65.19
829.301	57
829.478	87.72
829.655	-0.34
829.833	75.43
830.01	24.23
830.187	153.26
830.364	52.91
830.542	75.43
830.719	134.82
830.896	106.15
831.073	69.29
831.25	91.82
831.427	71.34
831.604	85.67
831.782	77.48
831.959	36.52
832.136	75.43
832.313	75.43
832.49	69.29
832.667	102.06
832.844	26.28
833.021	95.91
833.198	85.67
833.374	75.43
833.551	50.86
833.728	108.2
833.905	69.29
834.082	44.71
834.259	77.48
834.436	63.15
834.612	9.9
834.789	102.06
834.966	110.25
835.143	34.47
835.319	20.14
835.496	89.77
835.673	73.39
835.85	3.75
836.026	71.34
836.203	7.85
836.38	26.28
836.556	93.87
836.733	-26.96
836.909	95.91
837.086	61.1
837.262	54.95
837.439	11.95
837.616	-14.68
837.792	97.96
837.968	-10.58
838.145	13.99
838.321	46.76
838.498	61.1
838.674	57
838.851	52.91
839.027	65.19
839.203	28.33
839.38	95.91
839.556	20.14
839.732	87.72
839.909	48.81
840.085	69.29
840.261	44.71
840.437	104.11
840.614	71.34
840.79	44.71
840.966	20.14
841.142	108.2
841.318	42.67
841.494	38.57
841.671	44.71
841.847	81.58
842.023	-18.77
842.199	46.76
842.375	75.43
842.551	30.38
842.727	-20.82
842.903	67.24
843.079	32.43
843.255	-0.34
843.431	61.1
843.607	69.29
843.783	26.28
843.959	18.09
844.134	-31.06
844.31	34.47
844.486	32.43
844.662	-16.73
844.838	100.01
845.013	-29.01
845.189	77.48
845.365	69.29
845.541	46.76
845.716	48.81
845.892	77.48
846.068	81.58
846.244	91.82
846.419	104.11
846.595	-12.63
846.77	24.23
846.946	44.71
847.122	-18.77
847.297	40.62
847.473	69.29
847.648	28.33
847.824	28.33
847.999	20.14
848.175	46.76
848.35	28.33
848.526	20.14
848.701	54.95
848.876	26.28
849.052	75.43
849.227	65.19
849.403	32.43
849.578	36.52
849.753	-18.77
849.929	81.58
850.104	42.67
850.279	69.29
850.454	18.09
850.63	71.34
850.805	-14.68
850.98	48.81
851.155	13.99
851.33	-8.53
851.505	-8.53
851.681	153.26
851.856	36.52
852.031	-8.53
852.206	20.14
852.381	34.47
852.556	11.95
852.731	134.82
852.906	40.62
853.081	50.86
853.256	16.04
853.431	7.85
853.606	28.33
853.781	87.72
853.956	11.95
854.131	77.48
854.305	5.8
854.48	61.1
854.655	-4.44
854.83	40.62
855.005	89.77
855.18	83.63
855.354	-4.44
855.529	16.04
855.704	24.23
855.879	95.91
856.053	28.33
856.228	50.86
856.403	18.09
856.577	54.95
856.752	-29.01
856.926	61.1
857.101	91.82
857.276	46.76
857.45	18.09
857.625	85.67
857.799	16.04
857.974	5.8
858.148	-4.44
858.323	89.77
858.497	16.04
858.672	63.15
858.846	-20.82
859.02	67.24
859.195	26.28
859.369	11.95
859.543	24.23
859.718	36.52
859.892	-31.06
860.066	38.57
860.241	28.33
860.415	-29.01
860.589	28.33
860.763	95.91
860.938	20.14
861.112	16.04
861.286	22.19
861.46	24.23
861.634	-18.77
861.808	67.24
861.982	44.71
862.157	5.8
862.331	24.23
862.505	26.28
862.679	20.14
862.853	11.95
863.027	36.52
863.201	52.91
863.375	61.1
863.549	34.47
863.722	-33.11
863.896	11.95
864.07	91.82
864.244	38.57
864.418	42.67
864.592	26.28
864.766	-37.2
864.939	61.1
865.113	-33.11
865.287	-33.11
865.461	-0.34
865.634	42.67
865.808	-14.68
865.982	24.23
866.156	-14.68
866.329	-22.87
866.503	75.43
866.676	26.28
866.85	18.09
867.024	20.14
867.197	69.29
867.371	59.05
867.544	32.43
867.718	-22.87
867.891	7.85
868.065	24.23
868.238	-24.92
868.412	61.1
868.585	36.52
868.759	-12.63
868.932	73.39
869.105	-35.16
869.279	-57.68
869.452	65.19
869.625	-12.63
869.799	48.81
869.972	11.95
870.145	-10.58
870.319	32.43
870.492	128.68
870.665	-59.73
870.838	34.47
871.011	-29.01
871.185	30.38
871.358	-2.39
871.531	132.78
871.704	61.1
871.877	79.53
872.05	124.58
872.223	83.63
872.396	44.71
872.569	65.19
872.742	-57.68
872.915	100.01
873.088	32.43
873.261	-92.5
873.434	-76.12
873.607	16.04
873.78	-41.3
873.953	50.86
874.126	20.14
874.299	134.82
874.471	-0.34
874.644	28.33
874.817	44.71
874.99	65.19
875.163	48.81
875.335	65.19
875.508	-18.77
875.681	34.47
875.853	-47.44
876.026	-39.25
876.199	61.1
876.371	7.85
876.544	28.33
876.717	-14.68
876.889	95.91
877.062	-49.49
877.234	9.9
877.407	-16.73
877.579	36.52
877.752	69.29
877.924	-90.45
878.097	-26.96
878.269	52.91
878.442	40.62
878.614	67.24
878.786	16.04
878.959	42.67
879.131	102.06
879.303	-57.68
879.476	52.91
879.648	65.19
879.82	42.67
879.993	-14.68
880.165	63.15
880.337	-39.25
880.509	-8.53
880.681	20.14
880.854	-0.34
881.026	-6.49
881.198	79.53
881.37	-33.11
881.542	38.57
881.714	-4.44
881.886	7.85
882.058	-14.68
882.23	-10.58
882.402	83.63
882.574	81.58
882.746	48.81
882.918	-18.77
883.09	-18.77
883.262	-10.58
883.434	-2.39
883.606	-41.3
883.778	3.75
883.95	-20.82
884.122	69.29
884.293	91.82
884.465	9.9
884.637	40.62
884.809	36.52
884.98	30.38
885.152	54.95
885.324	89.77
885.496	-20.82
885.667	54.95
885.839	-14.68
886.011	77.48
886.182	73.39
886.354	-57.68
886.525	-22.87
886.697	3.75
886.869	-20.82
887.04	81.58
887.212	73.39
887.383	46.76
887.555	1.71
887.726	28.33
887.897	-53.59
888.069	32.43
888.24	54.95
888.412	9.9
888.583	-80.21
888.754	34.47
888.926	28.33
889.097	-2.39
889.268	-37.2
889.44	28.33
889.611	11.95
889.782	-14.68
889.953	65.19
890.125	46.76
890.296	-18.77
890.467	-4.44
890.638	-43.35
890.809	-0.34
890.98	-53.59
891.151	91.82
891.323	36.52
891.494	1.71
891.665	5.8
891.836	-41.3
892.007	-18.77
892.178	-67.92
892.349	11.95
892.52	44.71
892.691	16.04
892.862	-12.63
893.032	-61.78
893.203	-37.2
893.374	-24.92
893.545	3.75
893.716	75.43
893.887	87.72
894.057	44.71
894.228	28.33
894.399	28.33
894.57	-6.49
894.74	1.71
894.911	-0.34
895.082	-14.68
895.253	-26.96
895.423	36.52
895.594	-24.92
895.764	44.71
895.935	-59.73
896.106	3.75
896.276	13.99
896.447	-65.88
896.617	7.85
896.788	-47.44
896.958	40.62
897.129	-2.39
897.299	-57.68
897.47	50.86
897.64	-10.58
897.81	-16.73
897.981	7.85
898.151	11.95
898.322	-37.2
898.492	50.86
898.662	-29.01
898.832	40.62
899.003	48.81
899.173	20.14
899.343	-10.58
899.513	-22.87
