Data from USB4F104151__200__11-10-07-899.txt Node

Date: Wed Mar 12 11:10:07 EDT 2025
User: louis
Spectrometer: USB4F10415
Trigger mode: 4
Integration Time (sec): 2.000000E-2
Scans to average: 1
Electric dark correction enabled: true
Nonlinearity correction enabled: false
Boxcar width: 0
XAxis mode: Wavelengths
Number of Pixels in Spectrum: 3648
>>>>>Begin Spectral Data<<<<<
178.204	-51.54
178.424	-51.54
178.644	-51.54
178.864	-61.78
179.084	-61.78
179.304	-0.34
179.524	-26.96
179.744	-18.77
179.964	71.34
180.184	-104.79
180.404	-8.53
180.624	-24.92
180.844	11.95
181.064	-6.49
181.283	48.81
181.503	16.04
181.723	42.67
181.943	-41.3
182.163	-12.63
182.383	26.28
182.602	7.85
182.822	16.04
183.042	73.39
183.262	28.33
183.482	18.09
183.701	26.28
183.921	-33.11
184.141	16.04
184.361	83.63
184.58	73.39
184.8	32.43
185.02	16.04
185.239	44.71
185.459	69.29
185.679	1.71
185.898	18.09
186.118	5.8
186.338	77.48
186.557	48.81
186.777	-49.49
186.997	18.09
187.216	1.71
187.436	46.76
187.655	34.47
187.875	16.04
188.095	-2.39
188.314	-41.3
188.534	16.04
188.753	40.62
188.973	40.62
189.192	50.86
189.412	22.19
189.631	13.99
189.851	85.67
190.07	83.63
190.29	-12.63
190.509	30.38
190.729	22.19
190.948	48.81
191.168	38.57
191.387	77.48
191.607	36.52
191.826	83.63
192.045	-2.39
192.265	42.67
192.484	9.9
192.704	48.81
192.923	5.8
193.142	59.05
193.362	-20.82
193.581	52.91
193.8	44.71
194.02	75.43
194.239	52.91
194.458	5.8
194.678	44.71
194.897	11.95
195.116	-35.16
195.335	32.43
195.555	34.47
195.774	67.24
195.993	-14.68
196.212	-2.39
196.432	-33.11
196.651	-43.35
196.87	44.71
197.089	59.05
197.308	36.52
197.528	-26.96
197.747	26.28
197.966	-6.49
198.185	63.15
198.404	-8.53
198.623	20.14
198.842	1.71
199.062	54.95
199.281	104.11
199.5	-67.92
199.719	42.67
199.938	52.91
200.157	11.95
200.376	16.04
200.595	46.76
200.814	7.85
201.033	-53.59
201.252	-6.49
201.471	-6.49
201.69	42.67
201.909	40.62
202.128	91.82
202.347	-35.16
202.566	11.95
202.785	48.81
203.004	13.99
203.223	57
203.442	48.81
203.661	-6.49
203.879	5.8
204.098	79.53
204.317	26.28
204.536	36.52
204.755	63.15
204.974	20.14
205.193	67.24
205.411	95.91
205.63	22.19
205.849	38.57
206.068	9.9
206.287	36.52
206.505	-4.44
206.724	1.71
206.943	42.67
207.162	34.47
207.381	40.62
207.599	34.47
207.818	30.38
208.037	11.95
208.255	-39.25
208.474	-6.49
208.693	-57.68
208.911	-2.39
209.13	46.76
209.349	34.47
209.567	13.99
209.786	59.05
210.005	128.68
210.223	44.71
210.442	-67.92
210.661	18.09
210.879	20.14
211.098	9.9
211.316	18.09
211.535	-14.68
211.753	81.58
211.972	-0.34
212.191	11.95
212.409	24.23
212.628	40.62
212.846	91.82
213.065	71.34
213.283	18.09
213.502	34.47
213.72	9.9
213.938	32.43
214.157	34.47
214.375	1.71
214.594	-12.63
214.812	63.15
215.031	5.8
215.249	13.99
215.467	42.67
215.686	-10.58
215.904	71.34
216.122	13.99
216.341	100.01
216.559	42.67
216.778	24.23
216.996	-4.44
217.214	48.81
217.432	54.95
217.651	-20.82
217.869	3.75
218.087	-4.44
218.306	42.67
218.524	73.39
218.742	-31.06
218.96	69.29
219.179	79.53
219.397	42.67
219.615	-22.87
219.833	50.86
220.051	-4.44
220.27	46.76
220.488	75.43
220.706	5.8
220.924	28.33
221.142	-8.53
221.36	-35.16
221.578	13.99
221.796	-31.06
222.015	-10.58
222.233	91.82
222.451	28.33
222.669	5.8
222.887	69.29
223.105	-18.77
223.323	7.85
223.541	-20.82
223.759	54.95
223.977	61.1
224.195	-2.39
224.413	67.24
224.631	16.04
224.849	36.52
225.067	54.95
225.285	-26.96
225.503	-12.63
225.721	-63.83
225.939	22.19
226.157	38.57
226.375	54.95
226.592	16.04
226.81	61.1
227.028	34.47
227.246	26.28
227.464	77.48
227.682	16.04
227.9	1.71
228.117	-4.44
228.335	9.9
228.553	104.11
228.771	18.09
228.989	-22.87
229.206	69.29
229.424	59.05
229.642	59.05
229.86	20.14
230.077	-26.96
230.295	5.8
230.513	1.71
230.731	-2.39
230.948	11.95
231.166	38.57
231.384	57
231.601	-35.16
231.819	-8.53
232.037	54.95
232.254	36.52
232.472	-6.49
232.689	34.47
232.907	44.71
233.125	-6.49
233.342	69.29
233.56	1.71
233.777	42.67
233.995	54.95
234.213	48.81
234.43	116.39
234.648	30.38
234.865	32.43
235.083	-0.34
235.3	73.39
235.518	59.05
235.735	34.47
235.953	48.81
236.17	-14.68
236.388	48.81
236.605	5.8
236.822	-39.25
237.04	44.71
237.257	16.04
237.475	-0.34
237.692	50.86
237.909	-4.44
238.127	20.14
238.344	42.67
238.562	61.1
238.779	28.33
238.996	81.58
239.214	22.19
239.431	-6.49
239.648	46.76
239.865	26.28
240.083	7.85
240.3	54.95
240.517	71.34
240.735	-4.44
240.952	3.75
241.169	13.99
241.386	59.05
241.603	-10.58
241.821	28.33
242.038	-6.49
242.255	-14.68
242.472	44.71
242.689	77.48
242.907	13.99
243.124	28.33
243.341	18.09
243.558	73.39
243.775	48.81
243.992	20.14
244.209	61.1
244.426	54.95
244.643	36.52
244.86	108.2
245.078	-4.44
245.295	54.95
245.512	-16.73
245.729	36.52
245.946	-37.2
246.163	3.75
246.38	5.8
246.597	-20.82
246.814	-24.92
247.031	40.62
247.248	61.1
247.464	22.19
247.681	-26.96
247.898	42.67
248.115	7.85
248.332	-22.87
248.549	59.05
248.766	61.1
248.983	9.9
249.2	-53.59
249.417	-22.87
249.633	1.71
249.85	46.76
250.067	20.14
250.284	48.81
250.501	24.23
250.717	54.95
250.934	61.1
251.151	38.57
251.368	44.71
251.585	59.05
251.801	1.71
252.018	46.76
252.235	-4.44
252.451	26.28
252.668	5.8
252.885	93.87
253.102	32.43
253.318	3.75
253.535	67.24
253.752	3.75
253.968	5.8
254.185	36.52
254.401	-31.06
254.618	52.91
254.835	-49.49
255.051	83.63
255.268	38.57
255.484	-18.77
255.701	-14.68
255.917	95.91
256.134	-24.92
256.351	3.75
256.567	52.91
256.784	42.67
257	30.38
257.217	32.43
257.433	-2.39
257.65	-10.58
257.866	34.47
258.082	-59.73
258.299	40.62
258.515	75.43
258.732	-31.06
258.948	20.14
259.165	40.62
259.381	-0.34
259.597	54.95
259.814	48.81
260.03	18.09
260.246	54.95
260.463	42.67
260.679	83.63
260.895	52.91
261.112	102.06
261.328	18.09
261.544	-31.06
261.761	97.96
261.977	-16.73
262.193	-47.44
262.409	67.24
262.626	34.47
262.842	26.28
263.058	-26.96
263.274	63.15
263.49	18.09
263.707	59.05
263.923	-61.78
264.139	-4.44
264.355	54.95
264.571	38.57
264.787	7.85
265.004	75.43
265.22	54.95
265.436	30.38
265.652	34.47
265.868	32.43
266.084	-61.78
266.3	28.33
266.516	18.09
266.732	9.9
266.948	59.05
267.164	20.14
267.38	22.19
267.596	-18.77
267.812	46.76
268.028	42.67
268.244	-2.39
268.46	22.19
268.676	-2.39
268.892	83.63
269.108	-6.49
269.324	50.86
269.54	13.99
269.756	91.82
269.972	63.15
270.188	-18.77
270.403	26.28
270.619	50.86
270.835	3.75
271.051	48.81
271.267	50.86
271.483	57
271.698	-16.73
271.914	32.43
272.13	38.57
272.346	52.91
272.562	42.67
272.777	-2.39
272.993	-0.34
273.209	-8.53
273.425	13.99
273.64	-33.11
273.856	100.01
274.072	-63.83
274.287	59.05
274.503	89.77
274.719	69.29
274.934	-18.77
275.15	-29.01
275.366	65.19
275.581	3.75
275.797	13.99
276.012	-26.96
276.228	36.52
276.444	7.85
276.659	65.19
276.875	-47.44
277.09	77.48
277.306	5.8
277.521	71.34
277.737	13.99
277.952	124.58
278.168	59.05
278.383	65.19
278.599	3.75
278.814	-6.49
279.03	-14.68
279.245	-22.87
279.461	-10.58
279.676	87.72
279.892	-6.49
280.107	-69.97
280.322	-18.77
280.538	18.09
280.753	59.05
280.969	46.76
281.184	20.14
281.399	89.77
281.615	-6.49
281.83	30.38
282.045	-14.68
282.26	48.81
282.476	-20.82
282.691	50.86
282.906	-6.49
283.122	-14.68
283.337	22.19
283.552	63.15
283.767	-10.58
283.983	46.76
284.198	9.9
284.413	7.85
284.628	16.04
284.843	-22.87
285.058	100.01
285.274	11.95
285.489	-24.92
285.704	44.71
285.919	57
286.134	1.71
286.349	52.91
286.564	5.8
286.779	30.38
286.995	11.95
287.21	-22.87
287.425	44.71
287.64	7.85
287.855	57
288.07	18.09
288.285	-0.34
288.5	30.38
288.715	18.09
288.93	-37.2
289.145	-10.58
289.36	-31.06
289.575	20.14
289.79	50.86
290.004	-20.82
290.219	28.33
290.434	11.95
290.649	-6.49
290.864	67.24
291.079	59.05
291.294	87.72
291.509	-8.53
291.724	-82.26
291.938	-12.63
292.153	69.29
292.368	-41.3
292.583	-2.39
292.798	11.95
293.012	24.23
293.227	32.43
293.442	52.91
293.657	54.95
293.871	48.81
294.086	28.33
294.301	122.54
294.516	24.23
294.73	-14.68
294.945	-2.39
295.16	-2.39
295.374	16.04
295.589	-4.44
295.804	-4.44
296.018	32.43
296.233	91.82
296.447	18.09
296.662	54.95
296.877	26.28
297.091	34.47
297.306	79.53
297.52	1.71
297.735	1.71
297.949	-47.44
298.164	13.99
298.378	7.85
298.593	20.14
298.807	3.75
299.022	42.67
299.236	-6.49
299.451	-0.34
299.665	-18.77
299.88	5.8
300.094	69.29
300.309	44.71
300.523	81.58
300.737	-0.34
300.952	7.85
301.166	-18.77
301.381	89.77
301.595	7.85
301.809	34.47
302.024	-14.68
302.238	-16.73
302.452	26.28
302.667	132.78
302.881	75.43
303.095	-26.96
303.309	42.67
303.524	-35.16
303.738	-12.63
303.952	22.19
304.166	-35.16
304.381	36.52
304.595	63.15
304.809	-2.39
305.023	20.14
305.237	-10.58
305.452	36.52
305.666	20.14
305.88	40.62
306.094	-35.16
306.308	26.28
306.522	61.1
306.736	36.52
306.95	-0.34
307.164	40.62
307.379	36.52
307.593	36.52
307.807	32.43
308.021	112.3
308.235	-26.96
308.449	-39.25
308.663	65.19
308.877	40.62
309.091	22.19
309.305	73.39
309.519	-26.96
309.733	75.43
309.947	-45.4
310.161	48.81
310.374	26.28
310.588	77.48
310.802	-12.63
311.016	63.15
311.23	-43.35
311.444	75.43
311.658	63.15
311.872	5.8
312.085	54.95
312.299	79.53
312.513	36.52
312.727	18.09
312.941	48.81
313.154	126.63
313.368	13.99
313.582	-2.39
313.796	30.38
314.009	130.73
314.223	44.71
314.437	95.91
314.651	71.34
314.864	5.8
315.078	-35.16
315.292	9.9
315.505	34.47
315.719	11.95
315.933	11.95
316.146	116.39
316.36	48.81
316.573	116.39
316.787	50.86
317.001	128.68
317.214	-26.96
317.428	-31.06
317.641	30.38
317.855	-35.16
318.068	65.19
318.282	26.28
318.495	108.2
318.709	16.04
318.922	-10.58
319.136	147.11
319.349	22.19
319.563	-22.87
319.776	-12.63
319.99	-41.3
320.203	18.09
320.417	22.19
320.63	5.8
320.843	67.24
321.057	9.9
321.27	46.76
321.483	42.67
321.697	24.23
321.91	28.33
322.124	34.47
322.337	85.67
322.55	67.24
322.763	22.19
322.977	-24.92
323.19	-16.73
323.403	-6.49
323.617	71.34
323.83	-18.77
324.043	30.38
324.256	63.15
324.469	24.23
324.683	20.14
324.896	40.62
325.109	108.2
325.322	1.71
325.535	30.38
325.748	-43.35
325.962	18.09
326.175	-47.44
326.388	28.33
326.601	63.15
326.814	50.86
327.027	-74.07
327.24	-16.73
327.453	7.85
327.666	54.95
327.879	54.95
328.092	13.99
328.305	30.38
328.518	93.87
328.731	-20.82
328.944	89.77
329.157	26.28
329.37	44.71
329.583	42.67
329.796	77.48
330.009	-6.49
330.222	7.85
330.435	9.9
330.648	38.57
330.861	-12.63
331.073	13.99
331.286	38.57
331.499	-49.49
331.712	50.86
331.925	16.04
332.138	34.47
332.35	100.01
332.563	73.39
332.776	57
332.989	9.9
333.202	22.19
333.414	30.38
333.627	-31.06
333.84	32.43
334.053	34.47
334.265	-29.01
334.478	-53.59
334.691	20.14
334.903	89.77
335.116	3.75
335.329	5.8
335.541	48.81
335.754	5.8
335.966	38.57
336.179	63.15
336.392	71.34
336.604	-4.44
336.817	52.91
337.029	34.47
337.242	71.34
337.454	114.34
337.667	1.71
337.88	130.73
338.092	63.15
338.305	46.76
338.517	-2.39
338.729	50.86
338.942	46.76
339.154	22.19
339.367	-10.58
339.579	63.15
339.792	59.05
340.004	-22.87
340.217	-10.58
340.429	93.87
340.641	34.47
340.854	20.14
341.066	26.28
341.278	9.9
341.491	32.43
341.703	-24.92
341.915	24.23
342.128	79.53
342.34	59.05
342.552	54.95
342.764	83.63
342.977	42.67
343.189	18.09
343.401	67.24
343.613	1.71
343.826	24.23
344.038	52.91
344.25	65.19
344.462	18.09
344.674	-10.58
344.886	9.9
345.099	18.09
345.311	77.48
345.523	83.63
345.735	-16.73
345.947	59.05
346.159	32.43
346.371	-6.49
346.583	-33.11
346.795	75.43
347.007	-45.4
347.219	1.71
347.431	42.67
347.643	18.09
347.855	9.9
348.067	63.15
348.279	116.39
348.491	-24.92
348.703	108.2
348.915	-6.49
349.127	30.38
349.339	91.82
349.551	32.43
349.763	89.77
349.975	48.81
350.187	85.67
350.399	87.72
350.61	65.19
350.822	104.11
351.034	71.34
351.246	-0.34
351.458	54.95
351.669	-37.2
351.881	140.97
352.093	-37.2
352.305	77.48
352.517	30.38
352.728	83.63
352.94	54.95
353.152	22.19
353.363	46.76
353.575	36.52
353.787	61.1
353.999	36.52
354.21	40.62
354.422	95.91
354.633	-2.39
354.845	7.85
355.057	36.52
355.268	40.62
355.48	50.86
355.692	24.23
355.903	34.47
356.115	3.75
356.326	-92.5
356.538	13.99
356.749	48.81
356.961	63.15
357.172	46.76
357.384	46.76
357.595	-4.44
357.807	100.01
358.018	-24.92
358.23	3.75
358.441	57
358.653	102.06
358.864	34.47
359.075	63.15
359.287	44.71
359.498	89.77
359.709	81.58
359.921	-2.39
360.132	32.43
360.344	50.86
360.555	9.9
360.766	85.67
360.977	73.39
361.189	-8.53
361.4	1.71
361.611	57
361.823	26.28
362.034	93.87
362.245	-6.49
362.456	32.43
362.667	20.14
362.879	24.23
363.09	50.86
363.301	20.14
363.512	83.63
363.723	20.14
363.935	59.05
364.146	13.99
364.357	34.47
364.568	36.52
364.779	-0.34
364.99	67.24
365.201	59.05
365.412	34.47
365.623	20.14
365.834	32.43
366.045	100.01
366.256	48.81
366.467	87.72
366.678	9.9
366.889	77.48
367.1	48.81
367.311	67.24
367.522	34.47
367.733	40.62
367.944	-16.73
368.155	54.95
368.366	34.47
368.577	75.43
368.788	77.48
368.999	40.62
369.209	36.52
369.42	-26.96
369.631	26.28
369.842	42.67
370.053	-80.21
370.264	93.87
370.474	50.86
370.685	1.71
370.896	36.52
371.107	22.19
371.317	-39.25
371.528	52.91
371.739	7.85
371.95	-2.39
372.16	-16.73
372.371	7.85
372.582	-0.34
372.792	91.82
373.003	26.28
373.214	-8.53
373.424	5.8
373.635	67.24
373.846	30.38
374.056	-6.49
374.267	40.62
374.477	114.34
374.688	-10.58
374.898	20.14
375.109	75.43
375.319	36.52
375.53	-22.87
375.74	-51.54
375.951	-2.39
376.161	63.15
376.372	38.57
376.582	83.63
376.793	-0.34
377.003	48.81
377.214	-2.39
377.424	26.28
377.635	42.67
377.845	46.76
378.055	71.34
378.266	34.47
378.476	48.81
378.686	5.8
378.897	95.91
379.107	112.3
379.317	7.85
379.528	18.09
379.738	79.53
379.948	18.09
380.158	65.19
380.369	22.19
380.579	122.54
380.789	-45.4
380.999	52.91
381.21	50.86
381.42	46.76
381.63	50.86
381.84	32.43
382.05	16.04
382.261	42.67
382.471	57
382.681	7.85
382.891	57
383.101	30.38
383.311	20.14
383.521	-45.4
383.731	-14.68
383.941	81.58
384.151	30.38
384.361	97.96
384.571	-26.96
384.781	91.82
384.991	18.09
385.201	75.43
385.411	48.81
385.621	26.28
385.831	42.67
386.041	48.81
386.251	13.99
386.461	36.52
386.671	81.58
386.881	71.34
387.091	36.52
387.301	48.81
387.511	52.91
387.72	85.67
387.93	44.71
388.14	-2.39
388.35	13.99
388.56	54.95
388.769	67.24
388.979	95.91
389.189	16.04
389.399	87.72
389.609	65.19
389.818	69.29
390.028	95.91
390.238	89.77
390.447	91.82
390.657	26.28
390.867	75.43
391.076	73.39
391.286	-0.34
391.496	83.63
391.705	104.11
391.915	11.95
392.125	85.67
392.334	73.39
392.544	40.62
392.753	73.39
392.963	36.52
393.172	1.71
393.382	11.95
393.591	50.86
393.801	40.62
394.01	81.58
394.22	13.99
394.429	46.76
394.639	73.39
394.848	71.34
395.058	13.99
395.267	26.28
395.477	122.54
395.686	93.87
395.895	149.16
396.105	104.11
396.314	83.63
396.524	18.09
396.733	22.19
396.942	50.86
397.152	102.06
397.361	108.2
397.57	71.34
397.78	54.95
397.989	91.82
398.198	85.67
398.407	38.57
398.617	73.39
398.826	67.24
399.035	69.29
399.244	30.38
399.453	83.63
399.663	34.47
399.872	95.91
400.081	81.58
400.29	87.72
400.499	-0.34
400.708	34.47
400.917	87.72
401.127	136.87
401.336	79.53
401.545	114.34
401.754	151.21
401.963	134.82
402.172	50.86
402.381	28.33
402.59	106.15
402.799	65.19
403.008	138.92
403.217	61.1
403.426	108.2
403.635	104.11
403.844	77.48
404.053	97.96
404.262	112.3
404.471	93.87
404.68	104.11
404.888	102.06
405.097	73.39
405.306	102.06
405.515	112.3
405.724	112.3
405.933	104.11
406.142	57
406.35	126.63
406.559	120.49
406.768	161.45
406.977	181.93
407.185	155.3
407.394	140.97
407.603	120.49
407.812	179.88
408.02	206.5
408.229	218.79
408.438	171.69
408.646	155.3
408.855	198.31
409.064	286.37
409.272	243.37
409.481	282.28
409.69	259.75
409.898	171.69
410.107	233.13
410.315	267.94
410.524	202.41
410.733	255.65
410.941	222.89
411.15	368.29
411.358	284.33
411.567	288.42
411.775	267.94
411.984	302.76
412.192	405.16
412.401	356.01
412.609	310.95
412.818	413.35
413.026	446.12
413.234	429.73
413.443	460.45
413.651	382.63
413.86	282.28
414.068	476.84
414.276	577.19
414.485	470.69
414.693	519.84
414.901	528.03
415.11	521.89
415.318	552.61
415.526	566.95
415.734	603.81
415.943	558.75
416.151	605.86
416.359	601.76
416.567	673.44
416.776	763.55
416.984	730.78
417.192	706.21
417.4	775.84
417.608	687.78
417.817	784.03
418.025	839.33
418.233	865.95
418.441	919.2
418.649	806.56
418.857	925.34
419.065	1011.36
419.273	1007.26
419.481	1013.4
419.689	1037.98
419.897	1160.86
420.105	1179.29
420.313	1201.82
420.521	1230.49
420.729	1271.45
420.937	1273.5
421.145	1324.69
421.353	1384.09
421.561	1433.24
421.769	1500.82
421.977	1535.64
422.185	1578.64
422.393	1777.3
422.601	1844.88
422.809	1769.1
423.017	1722
423.224	1883.79
423.432	1898.13
423.64	1943.18
423.848	2125.45
424.056	2037.39
424.263	2193.03
424.471	2229.9
424.679	2258.57
424.887	2344.58
425.094	2389.64
425.302	2463.37
425.51	2510.47
425.718	2647.68
425.925	2465.41
426.133	2805.38
426.341	2866.81
426.548	2936.45
426.756	3008.12
426.964	3040.89
427.171	3143.29
427.379	3352.18
427.586	3319.42
427.794	3378.81
428.001	3645.04
428.209	3657.33
428.417	3696.24
428.624	4007.53
428.832	3907.18
429.039	3962.48
429.247	3982.96
429.454	4322.92
429.662	4601.44
429.869	4197.99
430.076	4566.63
430.284	4552.29
430.491	4613.73
430.699	4961.89
430.906	4908.64
431.114	5060.19
431.321	5146.2
431.528	5246.55
431.736	5576.28
431.943	5817.94
432.15	5793.36
432.358	5805.65
432.565	5938.77
432.772	6010.45
432.979	6475.34
433.187	6379.08
433.394	6606.41
433.601	6884.93
433.808	7013.95
434.016	6760
434.223	7323.19
434.43	7800.37
434.637	7460.41
434.844	7970.35
435.052	8205.87
435.259	8138.29
435.466	8185.39
435.673	7882.29
435.88	8547.88
436.087	9010.72
436.294	9080.35
436.501	8719.91
436.708	8936.99
436.915	9256.48
437.122	9866.77
437.329	9809.43
437.537	9920.02
437.743	10075.66
437.95	10143.25
438.157	10446.35
438.364	10855.94
438.571	11005.44
438.778	11222.53
438.985	12006.9
439.192	11437.56
439.399	11828.73
439.606	11683.32
439.813	12357.1
440.02	13280.74
440.227	12695.02
440.433	12662.25
440.64	13104.61
440.847	13135.33
441.054	13354.46
441.261	14097.88
441.467	14077.4
441.674	14400.97
441.881	14960.07
442.088	14605.77
442.294	14396.88
442.501	15037.89
442.708	15433.15
442.914	16154.04
443.121	16561.58
443.328	16293.3
443.534	17479.07
443.741	16833.96
443.948	16373.17
444.154	18083.22
444.361	17440.16
444.568	17810.84
444.774	17851.8
444.981	18107.8
445.187	18277.78
445.394	19490.18
445.6	18982.28
445.807	21085.54
446.013	20016.51
446.22	20182.39
446.426	21030.25
446.633	21456.23
446.839	21929.31
447.046	20790.64
447.252	22173.02
447.459	22189.4
447.665	22064.47
447.871	23256.39
448.078	24069.44
448.284	22859.09
448.491	23453
448.697	24476.98
448.903	24915.25
449.11	25111.85
449.316	24423.73
449.522	24988.97
449.728	25322.79
449.935	25990.43
450.141	25683.23
450.347	26424.6
450.553	25206.06
450.76	25738.53
450.966	26393.88
451.172	26260.76
451.378	26641.68
451.584	26397.98
451.791	26936.59
451.997	26299.67
452.203	27360.52
452.409	27198.73
452.615	27108.62
452.821	26346.78
453.027	25457.96
453.233	27055.37
453.44	26066.2
453.646	26395.93
453.852	26369.3
454.058	26656.02
454.264	25896.22
454.47	26326.3
454.676	25595.17
454.882	26830.1
455.088	24235.32
455.294	24599.86
455.5	24718.64
455.705	25242.92
455.911	24370.49
456.117	23596.35
456.323	23381.32
456.529	22087
456.735	23149.9
456.941	22263.13
457.147	21974.36
457.352	21384.55
457.558	20964.71
457.764	21357.92
457.97	20850.03
458.176	20428.15
458.381	20284.79
458.587	18746.76
458.793	19277.19
458.999	18345.36
459.204	19830.14
459.41	19056.01
459.616	17941.91
459.821	17751.45
460.027	17640.86
460.233	17001.9
460.438	16373.17
460.644	16553.39
460.85	15732.15
461.055	15617.47
461.261	15562.17
461.466	14605.77
461.672	14110.16
461.878	14831.05
462.083	13911.51
462.289	13802.97
462.494	13673.95
462.7	13100.51
462.905	13043.17
463.111	13184.48
463.316	13256.16
463.522	13024.74
463.727	12899.81
463.932	12690.92
464.138	12805.61
464.343	12652.01
464.549	12629.48
464.754	12854.76
464.959	12983.78
465.165	12604.91
465.37	12127.73
465.575	11716.09
465.781	12250.61
465.986	12232.18
466.191	11884.02
466.397	11656.7
466.602	10954.24
466.807	11576.83
467.012	11474.43
467.218	11466.24
467.423	11460.09
467.628	11353.6
467.833	11967.99
468.038	11357.69
468.244	11296.25
468.449	11597.31
468.654	11222.53
468.859	11234.82
469.064	10966.53
469.269	10673.67
469.474	10819.08
469.679	10989.06
469.885	10751.49
470.09	10673.67
470.295	10632.71
470.5	10405.39
470.705	10470.92
470.91	10049.04
471.115	10249.74
471.32	10194.45
471.525	10249.74
471.73	9922.07
471.935	9776.66
472.139	9592.34
472.344	9453.08
472.549	9704.98
472.754	9405.98
472.959	9399.84
473.164	9020.96
473.369	8871.46
473.574	9352.73
473.778	9217.57
473.983	9170.46
474.188	9082.4
474.393	8623.66
474.598	8623.66
474.802	8773.16
475.007	8447.53
475.212	8535.59
475.417	8160.81
475.621	8314.41
475.826	8136.24
476.031	7919.15
476.235	7929.39
476.44	8238.64
476.645	7847.47
476.849	7945.78
477.054	7855.67
477.259	7849.52
477.463	7755.32
477.668	7654.97
477.872	7618.1
478.077	7343.67
478.282	7286.33
478.486	7261.76
478.691	7454.26
478.895	7282.24
479.1	7247.42
479.304	7315
479.509	6970.94
479.713	7108.16
479.918	6833.73
480.122	6868.55
480.326	7063.1
480.531	6985.28
480.735	6850.11
480.94	6870.59
481.144	7026.24
481.348	6762.05
481.553	6667.84
481.757	6651.46
481.961	6706.76
482.166	6798.91
482.37	6757.96
482.574	6520.39
482.778	6643.27
482.983	6809.15
483.187	6760
483.391	6817.35
483.595	6461
483.8	6569.54
484.004	6630.98
484.208	6780.48
484.412	6735.43
484.616	6567.49
484.821	6661.7
485.025	6747.72
485.229	6653.51
485.433	6583.88
485.637	6577.73
485.841	6686.28
486.045	6569.54
486.249	6536.77
486.453	6624.84
486.657	6717
486.861	6710.85
487.065	6604.36
487.269	6786.63
487.473	6448.71
487.677	6825.54
487.881	6807.11
488.085	6706.76
488.289	6739.52
488.493	6579.78
488.697	6815.3
488.901	6764.1
489.105	6676.04
489.309	6680.13
489.512	6872.64
489.716	6733.38
489.92	6905.41
490.124	6753.86
490.328	6905.41
490.531	6741.57
490.735	6966.85
490.939	6874.69
491.143	6745.67
491.346	6848.07
491.55	7013.95
491.754	7044.67
491.958	6991.42
492.161	6874.69
492.365	7046.72
492.569	6923.84
492.772	6821.44
492.976	7079.49
493.18	7112.25
493.383	7310.91
493.587	7085.63
493.79	7575.1
493.994	7157.31
494.197	7345.72
494.401	7370.3
494.605	7405.11
494.808	7626.29
495.012	7554.62
495.215	7573.05
495.419	7450.17
495.622	7640.63
495.825	7714.36
496.029	7652.92
496.232	7980.59
496.436	8078.9
496.639	8183.34
496.843	8201.77
497.046	8224.3
497.249	8257.07
497.453	8314.41
497.656	8271.4
497.859	8328.75
498.063	8545.83
498.266	8863.27
498.469	8619.56
498.673	8754.73
498.876	9168.41
499.079	8836.64
499.282	9025.06
499.485	9236
499.689	9430.55
499.892	9367.07
500.095	9383.45
500.298	9618.97
500.501	9491.99
500.705	9821.72
500.908	9793.05
501.111	9965.07
501.314	10051.09
501.517	10227.21
501.72	10511.88
501.923	10571.27
502.126	10536.46
502.329	10814.98
502.532	10796.55
502.735	11044.35
502.938	11128.32
503.141	11271.68
503.344	11273.73
503.547	11324.93
503.75	11400.7
503.953	11859.45
504.156	11841.01
504.359	11787.77
504.562	11646.46
504.765	12215.79
504.968	12166.64
505.17	12631.53
505.373	12531.18
505.576	12631.53
505.779	12858.85
505.982	12998.12
506.185	13047.27
506.387	13172.19
506.59	13436.38
506.793	13372.89
506.996	13405.66
507.198	13940.18
507.401	14095.83
507.604	14001.62
507.807	14161.36
508.009	14304.72
508.212	14362.06
508.415	14986.69
508.617	14888.39
508.82	14898.63
509.022	14808.52
509.225	15209.92
509.428	15433.15
509.63	15607.23
509.833	15541.69
510.035	16154.04
510.238	15898.04
510.44	16090.55
510.643	16688.56
510.845	16324.02
511.048	16385.46
511.25	16805.29
511.453	16938.41
511.655	17567.13
511.858	17245.6
512.06	17511.84
512.262	17644.96
512.465	17655.2
512.667	17993.11
512.87	18202
513.072	18371.99
513.274	18511.25
513.477	18922.89
513.679	18961.8
513.881	19103.11
514.084	19461.51
514.286	19547.52
514.488	19146.12
514.69	20010.36
514.893	20231.54
515.095	19821.95
515.297	20467.06
515.499	20469.11
515.701	20727.15
515.904	21073.26
516.106	21083.5
516.308	21333.35
516.51	21417.32
516.712	21607.78
516.914	21906.78
517.116	22306.13
517.318	22189.4
517.52	22345.05
517.722	22560.08
517.925	22502.74
518.127	23067.98
518.329	23424.33
518.531	23108.94
518.733	23622.98
518.935	23811.39
519.136	24026.43
519.338	24546.61
519.54	24380.73
519.742	24667.44
519.944	24534.32
520.146	25085.23
520.348	25529.64
520.55	25560.36
520.752	25558.31
520.954	26264.86
521.155	25963.81
521.357	26481.94
521.559	26772.75
521.761	26946.83
521.963	27141.39
522.164	27032.85
522.366	27258.12
522.568	27663.62
522.77	27587.85
522.971	27815.17
523.173	27895.04
523.375	28417.27
523.576	28136.7
523.778	28749.04
523.98	28966.13
524.181	29205.74
524.383	29046
524.584	29408.49
524.786	29265.13
524.988	29644.01
525.189	29883.62
525.391	29928.67
525.592	30219.49
525.794	30379.23
525.995	30063.84
526.197	30440.67
526.398	30117.09
526.6	30971.09
526.801	30971.09
527.003	30817.49
527.204	30950.61
527.406	31601.86
527.607	31200.46
527.808	31800.52
528.01	31112.4
528.211	31452.36
528.412	32369.85
528.614	31847.62
528.815	31954.12
529.016	31849.67
529.218	32040.13
529.419	32199.87
529.62	32214.21
529.822	32380.09
530.023	32083.14
530.224	32351.42
530.425	32804.02
530.626	32193.73
530.828	32296.13
531.029	33182.9
531.23	32605.37
531.431	33172.66
531.632	32928.95
531.833	33193.14
532.035	33098.93
532.236	33143.98
532.437	33256.62
532.638	33289.39
532.839	33252.53
533.04	33635.5
533.241	32984.24
533.442	34024.61
533.643	33524.91
533.844	33320.11
534.045	33512.62
534.246	33270.96
534.447	33848.49
534.648	33326.25
534.849	33715.37
535.05	33377.45
535.251	33889.45
535.451	33475.76
535.652	34041
535.853	33574.06
536.054	33451.18
536.255	33524.91
536.456	33533.1
536.657	33856.68
536.857	33572.01
537.058	33553.58
537.259	33969.32
537.46	34022.56
537.66	33885.35
537.861	33764.52
538.062	33625.26
538.263	33889.45
538.463	33520.81
538.664	33641.64
538.865	33991.84
539.065	33979.56
539.266	33541.29
539.466	34178.21
539.667	33223.86
539.868	34118.82
540.068	33932.45
540.269	33825.96
540.469	33934.5
540.67	33588.39
540.87	33803.43
541.071	33809.57
541.271	34008.23
541.472	33709.22
541.672	33596.59
541.873	33676.46
542.073	33326.25
542.274	33985.7
542.474	34071.71
542.675	33572.01
542.875	33895.59
543.075	33948.84
543.276	33555.63
543.476	34172.07
543.676	33813.67
543.877	34016.42
544.077	33592.49
544.277	33793.19
544.478	33629.35
544.678	33754.28
544.878	33696.94
545.078	33610.92
545.279	33465.52
545.479	33795.24
545.679	33672.36
545.879	33756.33
546.079	33664.17
546.28	33750.18
546.48	33574.06
546.68	33922.21
546.88	33758.38
547.08	33819.81
547.28	33938.6
547.48	33684.65
547.68	33789.1
547.88	33557.67
548.081	33680.55
548.281	34049.19
548.481	33586.35
548.681	33754.28
548.881	33635.5
549.081	33705.13
549.28	33868.97
549.48	33682.6
549.68	33594.54
549.88	33961.12
550.08	33127.6
550.28	33682.6
550.48	33354.93
550.68	33713.32
550.88	33512.62
551.08	33111.22
551.279	33526.96
551.479	33219.76
551.679	33377.45
551.879	33082.55
552.079	33629.35
552.278	33477.8
552.478	33584.3
552.678	33266.86
552.878	33733.8
553.077	33334.45
553.277	33184.94
553.477	33713.32
553.676	33395.89
553.876	33352.88
554.076	33010.87
554.275	33164.46
554.475	32631.99
554.674	33252.53
554.874	33133.75
555.074	32812.21
555.273	33133.75
555.473	33473.71
555.672	32775.35
555.872	33170.61
556.071	32810.17
556.271	33068.21
556.47	32824.5
556.67	32773.3
556.869	32775.35
557.068	32828.6
557.268	32535.74
557.467	33107.12
557.667	32625.85
557.866	32681.14
558.065	32062.66
558.265	32634.04
558.464	32048.32
558.663	32468.16
558.863	31870.15
559.062	32642.23
559.261	31825.09
559.461	32621.75
559.66	31712.45
559.859	32427.2
560.058	31827.14
560.258	32232.64
560.457	31780.04
560.656	31739.08
560.855	31665.35
561.054	31919.3
561.253	31548.62
561.453	31632.58
561.652	31722.69
561.851	31855.81
562.05	31454.41
562.249	31407.31
562.448	31503.56
562.647	31698.12
562.846	30954.71
563.045	31096.02
563.244	30874.84
563.443	31536.33
563.642	30876.88
563.841	30872.79
564.04	30932.18
564.239	30962.9
564.438	30377.18
564.637	30780.63
564.836	30395.61
565.035	30239.97
565.234	30323.93
565.432	30514.39
565.631	30231.77
565.83	29953.25
566.029	30090.46
566.228	29902.05
566.427	29918.43
566.625	29824.23
566.824	29242.6
567.023	30153.95
567.222	29265.13
567.42	29748.45
567.619	29250.8
567.818	29551.85
568.016	29449.45
568.215	29412.59
568.414	29193.45
568.612	29488.36
568.811	29144.3
569.01	29091.05
569.208	28423.42
569.407	29023.47
569.605	28318.97
569.804	28904.69
570.002	28382.46
570.201	28984.56
570.4	28312.83
570.598	28417.27
570.797	27761.92
570.995	28048.64
571.193	27878.66
571.392	28398.84
571.59	27757.83
571.789	27507.97
571.987	27372.81
572.186	27952.38
572.384	27583.75
572.582	27528.45
572.781	27641.09
572.979	27196.68
573.177	27168.01
573.376	27462.92
573.574	26869.01
573.772	27251.98
573.971	26627.35
574.169	26592.53
574.367	26322.2
574.565	27129.1
574.763	26879.25
574.962	26494.23
575.16	26375.45
575.358	26387.74
575.556	26131.74
575.754	26369.3
575.952	26092.83
576.151	26303.77
576.349	25677.09
576.547	25713.95
576.745	26041.63
576.943	25898.27
577.141	25855.26
577.339	25550.12
577.537	25529.64
577.735	25574.69
577.933	25204.01
578.131	25347.37
578.329	25175.34
578.527	25099.56
578.725	24972.59
578.923	24982.83
579.121	24935.73
579.319	24993.07
579.516	25023.79
579.714	24907.05
579.912	24169.79
580.11	24603.96
580.308	24835.38
580.506	24540.47
580.704	24116.54
580.901	24319.29
581.099	24503.6
581.297	24212.79
581.495	24059.2
581.692	23938.37
581.89	23829.82
582.088	24290.62
582.285	23823.68
582.483	24003.9
582.681	24077.63
582.878	23659.84
583.076	23557.44
583.274	23680.32
583.471	23379.27
583.669	23256.39
583.866	23385.41
584.064	23211.34
584.262	22820.17
584.459	23436.61
584.657	23080.27
584.854	23287.11
585.052	22744.4
585.249	22979.92
585.447	22992.2
585.644	22746.45
585.841	22754.64
586.039	22609.23
586.236	22168.92
586.434	22476.12
586.631	22312.28
586.828	22398.29
587.026	22238.55
587.223	22070.62
587.42	22035.8
587.618	22058.33
587.815	21646.69
588.012	21634.4
588.21	21851.49
588.407	21800.29
588.604	21658.98
588.801	21568.87
588.999	21601.63
589.196	21572.96
589.393	21452.13
589.59	21450.08
589.787	21075.31
589.984	21071.21
590.182	21149.03
590.379	21421.41
590.576	20929.9
590.773	21132.65
590.97	20907.37
591.167	20866.41
591.364	20804.97
591.561	20702.57
591.758	20305.27
591.955	20561.26
592.152	20667.76
592.349	20249.97
592.546	20348.28
592.743	20428.15
592.94	19719.55
593.137	20462.96
593.334	20434.29
593.531	19873.15
593.727	20069.75
593.924	20059.51
594.121	19819.9
594.318	20166.01
594.515	19678.59
594.712	19858.81
594.908	19385.73
595.105	19832.19
595.302	19584.38
595.499	19723.65
595.696	19473.79
595.892	19340.68
596.089	19422.59
596.286	19281.28
596.482	19176.84
596.679	19197.32
596.876	19164.55
597.072	18994.57
597.269	19006.86
597.466	18832.78
597.662	18918.79
597.859	18392.47
598.055	18986.38
598.252	18867.59
598.448	18511.25
598.645	18597.26
598.841	18148.76
599.038	18531.73
599.234	18435.47
599.431	18101.65
599.627	18331.03
599.824	18152.85
600.02	17958.3
600.217	18007.45
600.413	18214.29
600.609	17720.73
600.806	17853.85
601.002	17837.47
601.198	17628.57
601.395	17528.22
601.591	17569.18
601.787	17462.69
601.984	17507.74
602.18	17616.29
602.376	17255.84
602.572	17247.65
602.769	17567.13
602.965	17106.34
603.161	17251.75
603.357	17165.73
603.553	17012.14
603.75	17182.12
603.946	16870.83
604.142	17053.09
604.338	16795.05
604.534	17008.04
604.73	16473.52
604.926	16731.56
605.122	16872.87
605.318	16706.99
605.514	16715.18
605.71	16592.3
605.906	16375.22
606.102	16213.43
606.298	16508.33
606.494	16217.52
606.69	16291.25
606.886	16391.6
607.082	16113.08
607.278	16184.76
607.474	15867.32
607.67	16205.24
607.866	15828.41
608.062	15988.15
608.257	15850.94
608.453	15707.58
608.649	15881.66
608.845	15668.67
609.041	15836.6
609.236	15879.61
609.432	15660.48
609.628	15615.42
609.824	15427.01
610.019	15470.01
610.215	15676.86
610.411	15732.15
610.606	15562.17
610.802	15404.48
610.998	15203.78
611.193	15304.13
611.389	15050.18
611.584	15261.12
611.78	15214.02
611.976	14972.36
612.171	15189.44
612.367	15177.16
612.562	15054.28
612.758	14589.39
612.953	15019.46
613.149	15099.33
613.344	14587.34
613.539	15058.37
613.735	14941.64
613.93	14837.19
614.126	14665.16
614.321	14953.93
614.517	14781.9
614.712	14757.32
614.907	14751.18
615.103	14831.05
615.298	14509.52
615.493	14953.93
615.688	14269.9
615.884	14542.28
616.079	14278.1
616.274	14673.35
616.47	14255.57
616.665	14464.46
616.86	14298.58
617.055	14376.4
617.25	14196.18
617.445	14374.35
617.641	14079.44
617.836	14126.55
618.031	14089.68
618.226	14194.13
618.421	13975
618.616	13958.61
618.811	13891.03
619.006	14083.54
619.201	13673.95
619.396	13694.43
619.591	13499.87
619.786	13870.55
619.981	13432.29
620.176	13430.24
620.371	13200.87
620.566	13555.16
620.761	13395.42
620.956	13540.83
621.151	13184.48
621.346	13180.39
621.541	12854.76
621.735	13325.79
621.93	12936.68
622.125	13110.75
622.32	12848.61
622.515	12901.86
622.709	12854.76
622.904	12623.34
623.099	12619.24
623.294	12344.81
623.488	12457.45
623.683	12430.83
623.878	12293.62
624.072	12236.27
624.267	12266.99
624.462	12213.74
624.656	12072.43
624.851	12158.45
625.046	11945.46
625.24	11912.69
625.435	11716.09
625.629	11904.5
625.824	11681.27
626.018	11781.62
626.213	11574.78
626.407	11468.28
626.602	11386.36
626.796	11482.62
626.991	11218.43
627.185	11197.95
627.38	11206.14
627.574	11134.46
627.768	11265.53
627.963	10970.63
628.157	10962.44
628.352	10956.29
628.546	10542.6
628.74	10984.96
628.935	10544.65
629.129	10757.64
629.323	10536.46
629.517	10444.3
629.712	10655.24
629.906	10565.13
630.1	10448.4
630.294	10495.5
630.489	10393.1
630.683	10294.8
630.877	10161.68
631.071	10159.63
631.265	10118.67
631.459	9952.79
631.653	9874.96
631.848	9960.98
632.042	9707.03
632.236	9770.52
632.43	10151.44
632.624	9786.9
632.818	9524.76
633.012	9532.95
633.206	9369.12
633.4	9516.57
633.594	9377.31
633.788	9459.23
633.982	9410.08
634.176	9434.65
634.369	9102.88
634.563	9309.72
634.757	9143.84
634.951	9176.61
635.145	8975.91
635.339	8975.91
635.533	9131.55
635.726	8896.03
635.92	8812.07
636.114	8914.47
636.308	8603.18
636.501	8668.71
636.695	8832.55
636.889	8615.46
637.083	8611.37
637.276	8472.11
637.47	8486.44
637.664	8261.16
637.857	8455.72
638.051	8326.7
638.244	8422.95
638.438	8250.92
638.632	8228.4
638.825	8209.97
639.019	8142.38
639.212	8105.52
639.406	8027.7
639.599	8060.46
639.793	7894.58
639.986	7820.85
640.18	7939.63
640.373	7855.67
640.567	7804.47
640.76	7661.11
640.954	7693.88
641.147	7730.74
641.34	7607.86
641.534	7675.45
641.727	7673.4
641.92	7571
642.114	7398.97
642.307	7396.92
642.5	7245.37
642.694	7212.6
642.887	7259.71
643.08	7355.96
643.273	7171.65
643.467	7003.71
643.66	7067.2
643.853	7067.2
644.046	6927.94
644.239	7112.25
644.432	6884.93
644.626	7059.01
644.819	6846.02
645.012	6751.81
645.205	6743.62
645.398	6780.48
645.591	6727.24
645.784	6723.14
645.977	6602.31
646.17	6573.64
646.363	6450.76
646.556	6596.17
646.749	6551.11
646.942	6661.7
647.135	6407.75
647.328	6520.39
647.521	6276.68
647.714	6356.55
647.907	6198.86
648.099	6069.84
648.292	6264.4
648.485	6327.88
648.678	6094.41
648.871	6127.18
649.064	5973.58
649.256	6071.89
649.449	5971.54
649.642	5914.19
649.835	5789.27
650.027	5969.49
650.22	5783.12
650.413	5619.28
650.605	5774.93
650.798	5787.22
650.991	5582.42
651.183	5867.09
651.376	5660.24
651.568	5705.3
651.761	5742.16
651.954	5647.96
652.146	5523.03
652.339	5621.33
652.531	5545.56
652.724	5449.3
652.916	5318.23
653.109	5557.85
653.301	5398.1
653.494	5414.49
653.686	5123.68
653.879	5301.85
654.071	5312.09
654.263	5183.07
654.456	5158.49
654.648	5348.95
654.84	5164.64
655.033	5230.17
655.225	5162.59
655.417	5113.44
655.61	5158.49
655.802	4982.37
655.994	4931.17
656.186	5068.38
656.379	5092.96
656.571	4939.36
656.763	4861.54
656.955	4916.83
657.148	4832.86
657.34	4947.55
657.532	4849.25
657.724	4976.22
657.916	4793.95
658.108	4822.63
658.3	4671.08
658.492	4742.75
658.684	4517.48
658.876	4599.4
659.068	4490.85
659.26	4546.15
659.452	4548.2
659.644	4658.79
659.836	4462.18
660.028	4513.38
660.22	4341.35
660.412	4423.27
660.604	4349.54
660.796	4472.42
660.988	4300.39
661.18	4392.55
661.372	4298.35
661.563	4460.13
661.755	4331.11
661.947	4116.08
662.139	4329.06
662.331	4071.02
662.522	4230.76
662.714	4265.58
662.906	4046.44
663.097	4183.66
663.289	4079.21
663.481	3999.34
663.673	4007.53
663.864	4044.4
664.056	4075.12
664.247	3860.08
664.439	3858.03
664.631	3892.85
664.822	4007.53
665.014	3939.95
665.205	3765.87
665.397	3686
665.588	3888.75
665.78	3802.74
665.971	3745.39
666.163	3858.03
666.354	3798.64
666.546	3690.1
666.737	3651.19
666.929	3862.13
667.12	3552.88
667.311	3716.72
667.503	3548.79
667.694	3622.52
667.885	3620.47
668.077	3583.6
668.268	3585.65
668.459	3417.72
668.651	3688.05
668.842	3556.98
669.033	3538.55
669.224	3489.4
669.416	3462.77
669.607	3432.05
669.798	3413.62
669.989	3561.08
670.18	3339.9
670.371	3309.18
670.563	3534.45
670.754	3380.86
670.945	3423.86
671.136	3401.33
671.327	3343.99
671.518	3171.96
671.709	3366.52
671.9	3229.31
672.091	3268.22
672.282	3278.46
672.473	3251.83
672.664	3362.42
672.855	3110.52
673.046	3155.58
673.237	3161.72
673.428	3159.67
673.619	3081.85
673.809	3106.43
674	3110.52
674.191	3071.61
674.382	2983.55
674.573	3098.24
674.764	3083.9
674.954	2979.45
675.145	3034.75
675.336	3053.18
675.527	2967.17
675.717	3010.17
675.908	3001.98
676.099	3020.41
676.289	2940.54
676.48	2901.63
676.671	2778.75
676.861	2795.14
677.052	2897.53
677.243	2813.57
677.433	2817.66
677.624	2866.81
677.814	2889.34
678.005	2743.94
678.195	2784.9
678.386	2786.94
678.576	2852.48
678.767	2791.04
678.957	2823.81
679.148	2797.18
679.338	2750.08
679.529	2762.37
679.719	2653.83
679.909	2815.62
680.1	2657.92
680.29	2768.51
680.481	2719.36
680.671	2786.94
680.861	2719.36
681.052	2723.46
681.242	2741.89
681.432	2719.36
681.622	2608.77
681.813	2633.35
682.003	2643.59
682.193	2719.36
682.383	2629.25
682.573	2651.78
682.764	2625.15
682.954	2580.1
683.144	2678.4
683.334	2504.32
683.524	2637.44
683.714	2573.96
683.904	2584.2
684.094	2588.29
684.284	2520.71
684.474	2512.52
684.664	2641.54
684.854	2508.42
685.044	2557.57
685.234	2535.04
685.424	2385.54
685.614	2465.41
685.804	2510.47
685.994	2545.28
686.184	2375.3
686.374	2416.26
686.564	2463.37
686.753	2557.57
686.943	2303.62
687.133	2399.88
687.323	2520.71
687.513	2342.53
687.702	2320.01
687.892	2365.06
688.082	2360.97
688.272	2403.97
688.461	2270.86
688.651	2346.63
688.841	2301.58
689.03	2377.35
689.22	2360.97
689.41	2231.94
689.599	2426.5
689.789	2279.05
689.979	2477.7
690.168	2244.23
690.358	2326.15
690.547	2244.23
690.737	2252.42
690.926	2242.18
691.116	2227.85
691.305	2233.99
691.495	2229.9
691.684	2195.08
691.874	2201.23
692.063	2125.45
692.252	2227.85
692.442	2113.16
692.631	2160.27
692.82	2164.36
693.01	2113.16
693.199	2193.03
693.388	2115.21
693.578	2266.76
693.767	2084.49
693.956	2172.55
694.146	2195.08
694.335	2115.21
694.524	2242.18
694.713	2135.69
694.902	2203.27
695.092	2043.53
695.281	2158.22
695.47	2131.59
695.659	2023.05
695.848	2070.16
696.037	2000.52
696.226	2104.97
696.415	2051.72
696.604	2084.49
696.793	2055.82
696.982	2082.44
697.171	2250.38
697.36	2041.48
697.549	2133.64
697.738	2084.49
697.927	2043.53
698.116	2078.35
698.305	2119.31
698.494	2068.11
698.683	2135.69
698.872	2188.94
699.061	2057.87
699.25	2098.83
699.438	2049.68
699.627	2158.22
699.816	2133.64
700.005	2109.07
700.193	2059.92
700.382	2086.54
700.571	2076.3
700.76	2156.17
700.948	2104.97
701.137	2053.77
701.326	2123.4
701.514	2111.11
701.703	2033.29
701.892	2041.48
702.08	2168.46
702.269	2035.34
702.457	1963.66
702.646	2090.63
702.834	2039.44
703.023	2207.37
703.212	1992.33
703.4	2129.55
703.589	2111.11
703.777	2049.68
703.965	2109.07
704.154	2127.5
704.342	1990.28
704.531	2057.87
704.719	1965.71
704.907	2023.05
705.096	2025.1
705.284	2094.73
705.472	2014.86
705.661	2061.96
705.849	2029.2
706.037	2051.72
706.226	1973.9
706.414	2006.67
706.602	1986.19
706.79	2057.87
706.979	2070.16
707.167	2055.82
707.355	2102.92
707.543	2117.26
707.731	2078.35
707.919	2082.44
708.107	1957.52
708.296	2064.01
708.484	2051.72
708.672	2193.03
708.86	2078.35
709.048	2000.52
709.236	2111.11
709.424	2004.62
709.612	2139.79
709.8	2094.73
709.988	2072.2
710.176	2178.7
710.364	2018.96
710.551	2147.98
710.739	2111.11
710.927	2111.11
711.115	2076.3
711.303	2078.35
711.491	2094.73
711.679	2057.87
711.866	2098.83
712.054	2113.16
712.242	2008.72
712.43	2141.83
712.617	2129.55
712.805	2012.81
712.993	2008.72
713.181	2141.83
713.368	2104.97
713.556	2127.5
713.744	1943.18
713.931	2104.97
714.119	2057.87
714.306	2023.05
714.494	2035.34
714.682	1951.37
714.869	2158.22
715.057	1928.85
715.244	2117.26
715.432	2004.62
715.619	1990.28
715.807	2004.62
715.994	2041.48
716.182	2043.53
716.369	2119.31
716.556	2125.45
716.744	2039.44
716.931	2037.39
717.119	1957.52
717.306	1992.33
717.493	2016.91
717.681	1937.04
717.868	2141.83
718.055	2086.54
718.242	2078.35
718.43	1934.99
718.617	2045.58
718.804	2021
718.991	1963.66
719.179	2045.58
719.366	1971.85
719.553	2082.44
719.74	2078.35
719.927	2068.11
720.114	1937.04
720.301	1998.48
720.488	1986.19
720.676	1922.7
720.863	2045.58
721.05	1967.76
721.237	1937.04
721.424	1963.66
721.611	1889.93
721.798	1939.09
721.985	1898.13
722.172	1904.27
722.358	1953.42
722.545	2010.76
722.732	1928.85
722.919	1906.32
723.106	1816.21
723.293	1988.24
723.48	1984.14
723.667	1930.89
723.853	1924.75
724.04	1873.55
724.227	2021
724.414	2057.87
724.6	2002.57
724.787	1934.99
724.974	1797.78
725.161	1975.95
725.347	1967.76
725.534	1955.47
725.72	1990.28
725.907	1879.69
726.094	2043.53
726.28	1857.17
726.467	1914.51
726.653	1885.84
726.84	1885.84
727.027	1975.95
727.213	1848.97
727.4	1992.33
727.586	1865.36
727.773	1844.88
727.959	1904.27
728.145	1871.5
728.332	1930.89
728.518	1934.99
728.705	1912.46
728.891	1934.99
729.077	1906.32
729.264	1902.22
729.45	1834.64
729.636	1902.22
729.823	1879.69
730.009	1867.41
730.195	1871.5
730.382	1851.02
730.568	1828.49
730.754	1879.69
730.94	1881.74
731.126	1877.65
731.313	1898.13
731.499	1887.89
731.685	1971.85
731.871	1867.41
732.057	1953.42
732.243	2014.86
732.429	1914.51
732.615	1879.69
732.801	1816.21
732.987	1836.69
733.173	1787.54
733.359	1838.73
733.545	1867.41
733.731	1834.64
733.917	1887.89
734.103	1740.43
734.289	1857.17
734.475	1742.48
734.661	1881.74
734.847	1816.21
735.033	1857.17
735.219	1814.16
735.404	1857.17
735.59	1828.49
735.776	1732.24
735.962	1803.92
736.148	1851.02
736.333	1865.36
736.519	1711.76
736.705	1746.58
736.89	1760.91
737.076	1828.49
737.262	1734.29
737.447	1832.59
737.633	1734.29
737.819	1838.73
738.004	1654.42
738.19	1740.43
738.375	1756.82
738.561	1836.69
738.747	1738.38
738.932	1765.01
739.118	1758.86
739.303	1728.14
739.489	1742.48
739.674	1648.27
739.859	1685.14
740.045	1652.37
740.23	1687.18
740.416	1658.51
740.601	1748.62
740.786	1603.22
740.972	1633.94
741.157	1717.9
741.342	1615.51
741.528	1685.14
741.713	1672.85
741.898	1619.6
742.084	1521.3
742.269	1494.68
742.454	1658.51
742.639	1668.75
742.824	1509.01
743.01	1568.4
743.195	1711.76
743.38	1531.54
743.565	1615.51
743.75	1658.51
743.935	1562.26
744.12	1603.22
744.305	1459.86
744.49	1601.17
744.675	1498.77
744.86	1496.72
745.045	1517.2
745.23	1488.53
745.415	1580.69
745.6	1570.45
745.785	1500.82
745.97	1509.01
746.155	1468.05
746.34	1445.52
746.525	1515.16
746.71	1566.35
746.895	1386.13
747.079	1472.15
747.264	1353.37
747.449	1445.52
747.634	1455.76
747.819	1453.72
748.003	1429.14
748.188	1382.04
748.373	1394.33
748.557	1326.74
748.742	1345.17
748.927	1404.57
749.111	1410.71
749.296	1277.59
749.481	1320.6
749.665	1343.13
749.85	1273.5
750.034	1447.57
750.219	1353.37
750.404	1289.88
750.588	1234.58
750.773	1283.74
750.957	1318.55
751.141	1375.89
751.326	1410.71
751.51	1320.6
751.695	1238.68
751.879	1267.35
752.064	1240.73
752.248	1224.34
752.432	1343.13
752.617	1171.1
752.801	1259.16
752.985	1191.58
753.17	1236.63
753.354	1255.06
753.538	1201.82
753.722	1191.58
753.907	1121.95
754.091	1146.52
754.275	1101.47
754.459	1083.03
754.643	1070.75
754.828	1042.07
755.012	1109.66
755.196	1048.22
755.38	1109.66
755.564	1070.75
755.748	1058.46
755.932	1175.19
756.116	988.83
756.3	1050.27
756.484	974.49
756.668	1078.94
756.852	941.72
757.036	1062.55
757.22	960.16
757.404	1015.45
757.588	1011.36
757.772	980.64
757.956	1011.36
758.14	1080.99
758.323	1003.16
758.507	1076.89
758.691	978.59
758.875	988.83
759.059	1015.45
759.242	1029.79
759.426	1001.12
759.61	972.44
759.794	939.68
759.977	898.72
760.161	941.72
760.345	915.1
760.528	921.24
760.712	988.83
760.895	900.76
761.079	923.29
761.263	904.86
761.446	960.16
761.63	865.95
761.813	915.1
761.997	847.52
762.18	939.68
762.364	841.37
762.547	933.53
762.731	902.81
762.914	868
763.098	859.81
763.281	804.51
763.464	972.44
763.648	861.85
763.831	913.05
764.015	870.05
764.198	857.76
764.381	829.09
764.564	829.09
764.748	902.81
764.931	874.14
765.114	859.81
765.297	833.18
765.481	827.04
765.664	790.17
765.847	741.02
766.03	724.64
766.213	902.81
766.397	804.51
766.58	704.16
766.763	763.55
766.946	788.13
767.129	773.79
767.312	769.69
767.495	743.07
767.678	652.96
767.861	824.99
768.044	784.03
768.227	738.98
768.41	777.89
768.593	810.65
768.776	681.63
768.959	802.46
769.142	736.93
769.324	751.26
769.507	786.08
769.69	712.35
769.873	784.03
770.056	761.5
770.239	738.98
770.421	714.4
770.604	665.25
770.787	675.49
770.97	732.83
771.152	738.98
771.335	718.5
771.518	655.01
771.7	771.74
771.883	741.02
772.066	728.74
772.248	601.76
772.431	755.36
772.613	796.32
772.796	753.31
772.978	677.54
773.161	642.72
773.343	609.95
773.526	607.91
773.708	685.73
773.891	691.87
774.073	640.67
774.256	652.96
774.438	689.82
774.621	655.01
774.803	652.96
774.985	648.86
775.168	657.06
775.35	532.13
775.532	698.02
775.715	548.51
775.897	603.81
776.079	581.28
776.261	624.29
776.444	620.19
776.626	554.66
776.808	607.91
776.99	620.19
777.173	616.1
777.355	618.15
777.537	591.52
777.719	575.14
777.901	609.95
778.083	558.75
778.265	560.8
778.447	546.47
778.629	607.91
778.811	485.03
778.993	521.89
779.175	571.04
779.357	517.79
779.539	501.41
779.721	505.51
779.903	542.37
780.085	497.32
780.267	558.75
780.449	525.99
780.631	507.55
780.812	464.55
780.994	532.13
781.176	513.7
781.358	585.38
781.54	425.64
781.721	462.5
781.903	560.8
782.085	468.64
782.267	562.85
782.448	411.3
782.63	419.49
782.812	507.55
782.993	423.59
783.175	421.54
783.357	413.35
783.538	419.49
783.72	353.96
783.901	394.92
784.083	505.51
784.264	431.78
784.446	337.57
784.627	403.11
784.809	394.92
784.99	415.4
785.172	493.22
785.353	431.78
785.535	439.97
785.716	489.12
785.897	378.53
786.079	388.77
786.26	345.77
786.441	421.54
786.623	341.67
786.804	358.05
786.985	298.66
787.167	425.64
787.348	349.86
787.529	431.78
787.71	339.62
787.891	378.53
788.073	437.92
788.254	335.53
788.435	298.66
788.616	403.11
788.797	394.92
788.978	288.42
789.159	292.52
789.34	308.9
789.522	370.34
789.703	333.48
789.884	325.29
790.065	280.23
790.246	405.16
790.427	321.19
790.607	251.56
790.788	329.38
790.969	296.61
791.15	265.89
791.331	380.58
791.512	345.77
791.693	329.38
791.874	327.33
792.054	356.01
792.235	304.81
792.416	235.18
792.597	366.25
792.778	325.29
792.958	384.68
793.139	317.09
793.32	351.91
793.5	231.08
793.681	353.96
793.862	263.85
794.042	325.29
794.223	249.51
794.404	282.28
794.584	317.09
794.765	278.18
794.945	298.66
795.126	265.89
795.306	278.18
795.487	243.37
795.667	327.33
795.848	308.9
796.028	263.85
796.209	255.65
796.389	243.37
796.57	208.55
796.75	200.36
796.93	237.22
797.111	206.5
797.291	282.28
797.471	239.27
797.652	249.51
797.832	204.46
798.012	247.46
798.192	183.98
798.373	171.69
798.553	255.65
798.733	233.13
798.913	192.17
799.093	224.94
799.274	218.79
799.454	274.09
799.634	220.84
799.814	267.94
799.994	224.94
800.174	235.18
800.354	231.08
800.534	212.65
800.714	186.02
800.894	190.12
801.074	157.35
801.254	200.36
801.434	239.27
801.614	257.7
801.794	216.74
801.974	587.43
802.154	245.41
802.334	253.61
802.514	169.64
802.693	222.89
802.873	282.28
803.053	194.22
803.233	179.88
803.413	245.41
803.592	241.32
803.772	237.22
803.952	190.12
804.131	149.16
804.311	167.59
804.491	212.65
804.67	161.45
804.85	267.94
805.03	222.89
805.209	175.78
805.389	153.26
805.568	208.55
805.748	233.13
805.928	196.26
806.107	212.65
806.287	218.79
806.466	208.55
806.646	183.98
806.825	161.45
807.004	222.89
807.184	198.31
807.363	196.26
807.543	122.54
807.722	226.98
807.901	220.84
808.081	116.39
808.26	108.2
808.439	202.41
808.619	145.06
808.798	143.02
808.977	104.11
809.156	251.56
809.336	147.11
809.515	120.49
809.694	122.54
809.873	161.45
810.052	89.77
810.231	143.02
810.411	161.45
810.59	169.64
810.769	161.45
810.948	102.06
811.127	179.88
811.306	97.96
811.485	167.59
811.664	183.98
811.843	161.45
812.022	165.54
812.201	153.26
812.38	145.06
812.559	132.78
812.737	198.31
812.916	91.82
813.095	110.25
813.274	110.25
813.453	143.02
813.632	157.35
813.811	161.45
813.989	65.19
814.168	192.17
814.347	112.3
814.526	136.87
814.704	153.26
814.883	198.31
815.062	136.87
815.24	231.08
815.419	85.67
815.598	140.97
815.776	77.48
815.955	95.91
816.133	118.44
816.312	124.58
816.49	138.92
816.669	124.58
816.847	167.59
817.026	177.83
817.204	165.54
817.383	83.63
817.561	32.43
817.74	181.93
817.918	87.72
818.097	145.06
818.275	73.39
818.453	108.2
818.632	132.78
818.81	87.72
818.988	175.78
819.167	100.01
819.345	54.95
819.523	163.5
819.701	138.92
819.879	186.02
820.058	173.74
820.236	83.63
820.414	54.95
820.592	147.11
820.77	122.54
820.948	108.2
821.127	79.53
821.305	108.2
821.483	-35.16
821.661	83.63
821.839	89.77
822.017	89.77
822.195	13.99
822.373	95.91
822.551	13.99
822.729	102.06
822.907	63.15
823.085	69.29
823.262	69.29
823.44	91.82
823.618	71.34
823.796	36.52
823.974	93.87
824.152	151.21
824.329	124.58
824.507	120.49
824.685	91.82
824.863	110.25
825.04	132.78
825.218	30.38
825.396	28.33
825.574	93.87
825.751	11.95
825.929	93.87
826.107	63.15
826.284	122.54
826.462	91.82
826.639	87.72
826.817	-6.49
826.994	112.3
827.172	106.15
827.349	79.53
827.527	112.3
827.704	63.15
827.882	106.15
828.059	104.11
828.237	100.01
828.414	67.24
828.591	22.19
828.769	61.1
828.946	42.67
829.124	71.34
829.301	54.95
829.478	95.91
829.655	73.39
829.833	57
830.01	81.58
830.187	89.77
830.364	63.15
830.542	167.59
830.719	85.67
830.896	65.19
831.073	52.91
831.25	112.3
831.427	18.09
831.604	57
831.782	59.05
831.959	5.8
832.136	118.44
832.313	87.72
832.49	13.99
832.667	71.34
832.844	112.3
833.021	59.05
833.198	24.23
833.374	140.97
833.551	91.82
833.728	63.15
833.905	54.95
834.082	116.39
834.259	40.62
834.436	48.81
834.612	118.44
834.789	114.34
834.966	59.05
835.143	124.58
835.319	34.47
835.496	69.29
835.673	32.43
835.85	1.71
836.026	65.19
836.203	83.63
836.38	34.47
836.556	130.73
836.733	13.99
836.909	71.34
837.086	95.91
837.262	69.29
837.439	-24.92
837.616	20.14
837.792	34.47
837.968	93.87
838.145	26.28
838.321	9.9
838.498	71.34
838.674	59.05
838.851	69.29
839.027	18.09
839.203	73.39
839.38	34.47
839.556	32.43
839.732	159.4
839.909	54.95
840.085	-10.58
840.261	54.95
840.437	34.47
840.614	38.57
840.79	71.34
840.966	44.71
841.142	85.67
841.318	-31.06
841.494	106.15
841.671	63.15
841.847	42.67
842.023	63.15
842.199	50.86
842.375	73.39
842.551	30.38
842.727	28.33
842.903	73.39
843.079	83.63
843.255	38.57
843.431	46.76
843.607	77.48
843.783	65.19
843.959	18.09
844.134	83.63
844.31	85.67
844.486	63.15
844.662	22.19
844.838	87.72
845.013	38.57
845.189	40.62
845.365	-0.34
845.541	52.91
845.716	26.28
845.892	18.09
846.068	-10.58
846.244	100.01
846.419	71.34
846.595	112.3
846.77	-43.35
846.946	24.23
847.122	30.38
847.297	22.19
847.473	50.86
847.648	1.71
847.824	44.71
847.999	40.62
848.175	16.04
848.35	13.99
848.526	110.25
848.701	67.24
848.876	67.24
849.052	44.71
849.227	73.39
849.403	36.52
849.578	132.78
849.753	1.71
849.929	44.71
850.104	-8.53
850.279	30.38
850.454	67.24
850.63	-2.39
850.805	5.8
850.98	57
851.155	-51.54
851.33	3.75
851.505	-45.4
851.681	75.43
851.856	46.76
852.031	63.15
852.206	28.33
852.381	69.29
852.556	36.52
852.731	-39.25
852.906	65.19
853.081	71.34
853.256	32.43
853.431	-8.53
853.606	30.38
853.781	83.63
853.956	44.71
854.131	34.47
854.305	40.62
854.48	9.9
854.655	26.28
854.83	57
855.005	36.52
855.18	28.33
855.354	-16.73
855.529	65.19
855.704	-22.87
855.879	52.91
856.053	16.04
856.228	16.04
856.403	73.39
856.577	22.19
856.752	108.2
856.926	112.3
857.101	50.86
857.276	7.85
857.45	-20.82
857.625	63.15
857.799	-16.73
857.974	-16.73
858.148	36.52
858.323	71.34
858.497	-6.49
858.672	9.9
858.846	30.38
859.02	59.05
859.195	-33.11
859.369	-8.53
859.543	32.43
859.718	40.62
859.892	59.05
860.066	28.33
860.241	32.43
860.415	-49.49
860.589	97.96
860.763	-10.58
860.938	-2.39
861.112	40.62
861.286	9.9
861.46	1.71
861.634	-0.34
861.808	48.81
861.982	26.28
862.157	20.14
862.331	9.9
862.505	22.19
862.679	48.81
862.853	-6.49
863.027	16.04
863.201	83.63
863.375	95.91
863.549	38.57
863.722	13.99
863.896	54.95
864.07	-37.2
864.244	106.15
864.418	-6.49
864.592	34.47
864.766	-18.77
864.939	1.71
865.113	-37.2
865.287	75.43
865.461	38.57
865.634	52.91
865.808	9.9
865.982	-4.44
866.156	-78.16
866.329	69.29
866.503	26.28
866.676	52.91
866.85	1.71
867.024	85.67
867.197	24.23
867.371	24.23
867.544	28.33
867.718	46.76
867.891	63.15
868.065	106.15
868.238	-24.92
868.412	5.8
868.585	18.09
868.759	-10.58
868.932	-31.06
869.105	3.75
869.279	9.9
869.452	-57.68
869.625	30.38
869.799	18.09
869.972	32.43
870.145	-18.77
870.319	50.86
870.492	18.09
870.665	46.76
870.838	-8.53
871.011	-6.49
871.185	52.91
871.358	63.15
871.531	38.57
871.704	-20.82
871.877	26.28
872.05	7.85
872.223	71.34
872.396	18.09
872.569	61.1
872.742	22.19
872.915	13.99
873.088	-45.4
873.261	-53.59
873.434	3.75
873.607	24.23
873.78	104.11
873.953	-6.49
874.126	-33.11
874.299	36.52
874.471	30.38
874.644	-0.34
874.817	59.05
874.99	71.34
875.163	28.33
875.335	93.87
875.508	42.67
875.681	16.04
875.853	7.85
876.026	5.8
876.199	28.33
876.371	9.9
876.544	-24.92
876.717	52.91
876.889	-35.16
877.062	-0.34
877.234	-49.49
877.407	18.09
877.579	1.71
877.752	-33.11
877.924	26.28
878.097	120.49
878.269	-39.25
878.442	11.95
878.614	26.28
878.786	-8.53
878.959	-0.34
879.131	-14.68
879.303	-24.92
879.476	73.39
879.648	-22.87
879.82	26.28
879.993	9.9
880.165	34.47
880.337	-20.82
880.509	11.95
880.681	30.38
880.854	26.28
881.026	24.23
881.198	13.99
881.37	-61.78
881.542	-14.68
881.714	-22.87
881.886	18.09
882.058	-76.12
882.23	-10.58
882.402	-6.49
882.574	20.14
882.746	38.57
882.918	75.43
883.09	-6.49
883.262	5.8
883.434	-18.77
883.606	-51.54
883.778	-43.35
883.95	59.05
884.122	22.19
884.293	65.19
884.465	71.34
884.637	28.33
884.809	-20.82
884.98	34.47
885.152	-61.78
885.324	50.86
885.496	-37.2
885.667	73.39
885.839	-12.63
886.011	87.72
886.182	-43.35
886.354	67.24
886.525	-67.92
886.697	50.86
886.869	-12.63
887.04	3.75
887.212	34.47
887.383	5.8
887.555	44.71
887.726	52.91
887.897	-2.39
888.069	3.75
888.24	-4.44
888.412	-20.82
888.583	22.19
888.754	9.9
888.926	-22.87
889.097	-10.58
889.268	-18.77
889.44	40.62
889.611	18.09
889.782	3.75
889.953	-45.4
890.125	16.04
890.296	-8.53
890.467	-31.06
890.638	54.95
890.809	65.19
890.98	-10.58
891.151	9.9
891.323	112.3
891.494	18.09
891.665	-39.25
891.836	75.43
892.007	46.76
892.178	-18.77
892.349	-12.63
892.52	-0.34
892.691	48.81
892.862	34.47
893.032	-63.83
893.203	-67.92
893.374	38.57
893.545	5.8
893.716	7.85
893.887	79.53
894.057	-18.77
894.228	-6.49
894.399	54.95
894.57	16.04
894.74	-0.34
894.911	26.28
895.082	13.99
895.253	-43.35
895.423	20.14
895.594	9.9
895.764	42.67
895.935	-0.34
896.106	-4.44
896.276	-61.78
896.447	24.23
896.617	-10.58
896.788	48.81
896.958	13.99
897.129	-8.53
897.299	83.63
897.47	38.57
897.64	28.33
897.81	-6.49
897.981	-49.49
898.151	13.99
898.322	-26.96
898.492	32.43
898.662	-18.77
898.832	-18.77
899.003	16.04
899.173	79.53
899.343	-35.16
899.513	-6.49
