Data from USB4F104151__7__11-04-35-175.txt Node

Date: Wed Mar 12 11:04:35 EDT 2025
User: louis
Spectrometer: USB4F10415
Trigger mode: 4
Integration Time (sec): 2.000000E-2
Scans to average: 1
Electric dark correction enabled: true
Nonlinearity correction enabled: false
Boxcar width: 0
XAxis mode: Wavelengths
Number of Pixels in Spectrum: 3648
>>>>>Begin Spectral Data<<<<<
178.204	-15.36
178.424	-15.36
178.644	-15.36
178.864	-91.13
179.084	-70.65
179.304	1.02
179.524	3.07
179.744	9.22
179.964	19.46
180.184	9.22
180.404	-9.22
180.624	17.41
180.844	7.17
181.064	-33.79
181.283	-1.02
181.503	-31.74
181.723	9.22
181.943	23.55
182.163	130.05
182.383	-29.7
182.602	123.9
182.822	31.74
183.042	1.02
183.262	15.36
183.482	44.03
183.701	-5.12
183.921	1.02
184.141	29.7
184.361	95.23
184.58	27.65
184.8	11.26
185.02	-21.5
185.239	138.24
185.459	-1.02
185.679	74.75
185.898	11.26
186.118	62.46
186.338	3.07
186.557	-9.22
186.777	27.65
186.997	29.7
187.216	48.13
187.436	101.37
187.655	44.03
187.875	48.13
188.095	84.99
188.314	41.98
188.534	76.8
188.753	39.94
188.973	44.03
189.192	62.46
189.412	72.7
189.631	15.36
189.851	27.65
190.07	41.98
190.29	13.31
190.509	72.7
190.729	5.12
190.948	87.04
191.168	134.14
191.387	89.09
191.607	-60.42
191.826	46.08
192.045	-39.94
192.265	78.85
192.484	93.18
192.704	29.7
192.923	15.36
193.142	13.31
193.362	27.65
193.581	31.74
193.8	74.75
194.02	66.56
194.239	-54.27
194.458	97.28
194.678	21.5
194.897	-15.36
195.116	-3.07
195.335	101.37
195.555	70.65
195.774	56.32
195.993	37.89
196.212	-9.22
196.432	62.46
196.651	23.55
196.87	44.03
197.089	52.22
197.308	54.27
197.528	78.85
197.747	17.41
197.966	89.09
198.185	-1.02
198.404	27.65
198.623	56.32
198.842	107.52
199.062	7.17
199.281	89.09
199.5	121.85
199.719	44.03
199.938	19.46
200.157	25.6
200.376	27.65
200.595	105.47
200.814	29.7
201.033	-5.12
201.252	78.85
201.471	23.55
201.69	107.52
201.909	33.79
202.128	27.65
202.347	5.12
202.566	27.65
202.785	-1.02
203.004	-21.5
203.223	48.13
203.442	128
203.661	56.32
203.879	-17.41
204.098	82.94
204.317	107.52
204.536	11.26
204.755	44.03
204.974	41.98
205.193	23.55
205.411	87.04
205.63	44.03
205.849	72.7
206.068	-46.08
206.287	-11.26
206.505	109.57
206.724	-15.36
206.943	-3.07
207.162	-33.79
207.381	76.8
207.599	58.37
207.818	19.46
208.037	-17.41
208.255	-27.65
208.474	66.56
208.693	48.13
208.911	76.8
209.13	97.28
209.349	80.89
209.567	56.32
209.786	25.6
210.005	82.94
210.223	89.09
210.442	15.36
210.661	107.52
210.879	33.79
211.098	82.94
211.316	60.42
211.535	70.65
211.753	-25.6
211.972	9.22
212.191	-3.07
212.409	46.08
212.628	64.51
212.846	95.23
213.065	41.98
213.283	72.7
213.502	62.46
213.72	66.56
213.938	93.18
214.157	5.12
214.375	-3.07
214.594	29.7
214.812	48.13
215.031	78.85
215.249	41.98
215.467	48.13
215.686	25.6
215.904	19.46
216.122	27.65
216.341	19.46
216.559	52.22
216.778	101.37
216.996	27.65
217.214	56.32
217.432	39.94
217.651	39.94
217.869	-7.17
218.087	54.27
218.306	3.07
218.524	11.26
218.742	37.89
218.96	44.03
219.179	52.22
219.397	41.98
219.615	82.94
219.833	39.94
220.051	-3.07
220.27	142.33
220.488	56.32
220.706	27.65
220.924	19.46
221.142	68.61
221.36	64.51
221.578	72.7
221.796	11.26
222.015	33.79
222.233	82.94
222.451	48.13
222.669	84.99
222.887	97.28
223.105	-60.42
223.323	52.22
223.541	-25.6
223.759	11.26
223.977	35.84
224.195	103.42
224.413	-1.02
224.631	68.61
224.849	35.84
225.067	93.18
225.285	-37.89
225.503	39.94
225.721	-23.55
225.939	68.61
226.157	-5.12
226.375	109.57
226.592	66.56
226.81	54.27
227.028	35.84
227.246	56.32
227.464	19.46
227.682	52.22
227.9	37.89
228.117	29.7
228.335	7.17
228.553	46.08
228.771	-19.46
228.989	80.89
229.206	54.27
229.424	48.13
229.642	52.22
229.86	31.74
230.077	60.42
230.295	52.22
230.513	105.47
230.731	56.32
230.948	56.32
231.166	29.7
231.384	44.03
231.601	27.65
231.819	31.74
232.037	76.8
232.254	-3.07
232.472	35.84
232.689	-1.02
232.907	70.65
233.125	19.46
233.342	25.6
233.56	76.8
233.777	44.03
233.995	62.46
234.213	52.22
234.43	-9.22
234.648	91.13
234.865	11.26
235.083	97.28
235.3	27.65
235.518	70.65
235.735	21.5
235.953	74.75
236.17	35.84
236.388	97.28
236.605	23.55
236.822	70.65
237.04	23.55
237.257	74.75
237.475	25.6
237.692	76.8
237.909	35.84
238.127	78.85
238.344	17.41
238.562	68.61
238.779	13.31
238.996	35.84
239.214	29.7
239.431	97.28
239.648	-21.5
239.865	17.41
240.083	76.8
240.3	50.18
240.517	48.13
240.735	46.08
240.952	64.51
241.169	5.12
241.386	-3.07
241.603	29.7
241.821	72.7
242.038	23.55
242.255	68.61
242.472	66.56
242.689	82.94
242.907	25.6
243.124	66.56
243.341	58.37
243.558	72.7
243.775	-17.41
243.992	37.89
244.209	9.22
244.426	101.37
244.643	78.85
244.86	56.32
245.078	35.84
245.295	101.37
245.512	-35.84
245.729	29.7
245.946	29.7
246.163	21.5
246.38	25.6
246.597	54.27
246.814	-7.17
247.031	101.37
247.248	58.37
247.464	89.09
247.681	68.61
247.898	27.65
248.115	91.13
248.332	-74.75
248.549	93.18
248.766	84.99
248.983	64.51
249.2	52.22
249.417	29.7
249.633	52.22
249.85	58.37
250.067	-17.41
250.284	-1.02
250.501	37.89
250.717	132.09
250.934	-52.22
251.151	134.14
251.368	19.46
251.585	33.79
251.801	74.75
252.018	-21.5
252.235	-13.31
252.451	31.74
252.668	52.22
252.885	95.23
253.102	103.42
253.318	-5.12
253.535	15.36
253.752	70.65
253.968	44.03
254.185	3.07
254.401	84.99
254.618	27.65
254.835	9.22
255.051	-13.31
255.268	48.13
255.484	37.89
255.701	44.03
255.917	33.79
256.134	-1.02
256.351	66.56
256.567	-50.18
256.784	5.12
257	-54.27
257.217	33.79
257.433	64.51
257.65	17.41
257.866	76.8
258.082	-23.55
258.299	52.22
258.515	82.94
258.732	1.02
258.948	23.55
259.165	70.65
259.381	58.37
259.597	-39.94
259.814	29.7
260.03	33.79
260.246	17.41
260.463	23.55
260.679	35.84
260.895	25.6
261.112	46.08
261.328	58.37
261.544	46.08
261.761	80.89
261.977	23.55
262.193	23.55
262.409	-23.55
262.626	1.02
262.842	78.85
263.058	39.94
263.274	68.61
263.49	1.02
263.707	-1.02
263.923	52.22
264.139	54.27
264.355	115.71
264.571	-3.07
264.787	-9.22
265.004	103.42
265.22	-50.18
265.436	9.22
265.652	56.32
265.868	44.03
266.084	41.98
266.3	31.74
266.516	15.36
266.732	19.46
266.948	179.2
267.164	64.51
267.38	54.27
267.596	107.52
267.812	101.37
268.028	-1.02
268.244	-13.31
268.46	78.85
268.676	72.7
268.892	60.42
269.108	15.36
269.324	54.27
269.54	-17.41
269.756	-13.31
269.972	66.56
270.188	7.17
270.403	33.79
270.619	39.94
270.835	27.65
271.051	74.75
271.267	44.03
271.483	60.42
271.698	35.84
271.914	103.42
272.13	-5.12
272.346	35.84
272.562	25.6
272.777	64.51
272.993	66.56
273.209	9.22
273.425	60.42
273.64	13.31
273.856	39.94
274.072	5.12
274.287	35.84
274.503	62.46
274.719	3.07
274.934	68.61
275.15	72.7
275.366	62.46
275.581	-5.12
275.797	95.23
276.012	35.84
276.228	44.03
276.444	1.02
276.659	-5.12
276.875	-17.41
277.09	-1.02
277.306	-13.31
277.521	78.85
277.737	31.74
277.952	64.51
278.168	54.27
278.383	87.04
278.599	21.5
278.814	74.75
279.03	58.37
279.245	84.99
279.461	27.65
279.676	74.75
279.892	52.22
280.107	33.79
280.322	31.74
280.538	41.98
280.753	41.98
280.969	52.22
281.184	74.75
281.399	54.27
281.615	78.85
281.83	-17.41
282.045	9.22
282.26	19.46
282.476	64.51
282.691	25.6
282.906	64.51
283.122	84.99
283.337	37.89
283.552	31.74
283.767	82.94
283.983	3.07
284.198	50.18
284.413	48.13
284.628	21.5
284.843	-1.02
285.058	50.18
285.274	35.84
285.489	-48.13
285.704	68.61
285.919	39.94
286.134	37.89
286.349	29.7
286.564	56.32
286.779	99.33
286.995	-23.55
287.21	23.55
287.425	52.22
287.64	-1.02
287.855	68.61
288.07	39.94
288.285	113.66
288.5	39.94
288.715	115.71
288.93	41.98
289.145	-54.27
289.36	87.04
289.575	56.32
289.79	89.09
290.004	11.26
290.219	23.55
290.434	74.75
290.649	39.94
290.864	-5.12
291.079	103.42
291.294	3.07
291.509	11.26
291.724	46.08
291.938	70.65
292.153	44.03
292.368	7.17
292.583	128
292.798	68.61
293.012	9.22
293.227	138.24
293.442	91.13
293.657	44.03
293.871	80.89
294.086	44.03
294.301	37.89
294.516	46.08
294.73	27.65
294.945	101.37
295.16	44.03
295.374	62.46
295.589	95.23
295.804	64.51
296.018	23.55
296.233	35.84
296.447	128
296.662	9.22
296.877	68.61
297.091	29.7
297.306	-9.22
297.52	25.6
297.735	113.66
297.949	52.22
298.164	39.94
298.378	82.94
298.593	-64.51
298.807	54.27
299.022	134.14
299.236	105.47
299.451	29.7
299.665	-31.74
299.88	74.75
300.094	-11.26
300.309	-62.46
300.523	68.61
300.737	41.98
300.952	23.55
301.166	107.52
301.381	-13.31
301.595	54.27
301.809	66.56
302.024	82.94
302.238	111.61
302.452	76.8
302.667	-11.26
302.881	23.55
303.095	62.46
303.309	74.75
303.524	46.08
303.738	64.51
303.952	93.18
304.166	50.18
304.381	66.56
304.595	13.31
304.809	74.75
305.023	84.99
305.237	11.26
305.452	54.27
305.666	105.47
305.88	56.32
306.094	115.71
306.308	128
306.522	107.52
306.736	52.22
306.95	44.03
307.164	5.12
307.379	-39.94
307.593	109.57
307.807	37.89
308.021	70.65
308.235	113.66
308.449	60.42
308.663	27.65
308.877	60.42
309.091	44.03
309.305	41.98
309.519	-70.65
309.733	35.84
309.947	19.46
310.161	97.28
310.374	3.07
310.588	95.23
310.802	33.79
311.016	48.13
311.23	76.8
311.444	54.27
311.658	33.79
311.872	158.72
312.085	19.46
312.299	76.8
312.513	76.8
312.727	60.42
312.941	39.94
313.154	39.94
313.368	70.65
313.582	97.28
313.796	80.89
314.009	-17.41
314.223	44.03
314.437	7.17
314.651	46.08
314.864	44.03
315.078	68.61
315.292	66.56
315.505	27.65
315.719	74.75
315.933	60.42
316.146	31.74
316.36	-31.74
316.573	80.89
316.787	44.03
317.001	19.46
317.214	1.02
317.428	76.8
317.641	68.61
317.855	29.7
318.068	91.13
318.282	72.7
318.495	27.65
318.709	158.72
318.922	50.18
319.136	101.37
319.349	9.22
319.563	68.61
319.776	52.22
319.99	119.81
320.203	72.7
320.417	41.98
320.63	107.52
320.843	99.33
321.057	23.55
321.27	62.46
321.483	-23.55
321.697	113.66
321.91	7.17
322.124	41.98
322.337	101.37
322.55	56.32
322.763	-46.08
322.977	-23.55
323.19	-5.12
323.403	19.46
323.617	15.36
323.83	93.18
324.043	11.26
324.256	-1.02
324.469	39.94
324.683	-21.5
324.896	27.65
325.109	46.08
325.322	19.46
325.535	72.7
325.748	72.7
325.962	15.36
326.175	15.36
326.388	37.89
326.601	103.42
326.814	-37.89
327.027	84.99
327.24	99.33
327.453	-21.5
327.666	109.57
327.879	17.41
328.092	87.04
328.305	58.37
328.518	62.46
328.731	33.79
328.944	97.28
329.157	-19.46
329.37	70.65
329.583	-39.94
329.796	123.9
330.009	35.84
330.222	70.65
330.435	128
330.648	93.18
330.861	70.65
331.073	89.09
331.286	113.66
331.499	113.66
331.712	46.08
331.925	80.89
332.138	89.09
332.35	58.37
332.563	52.22
332.776	101.37
332.989	39.94
333.202	35.84
333.414	58.37
333.627	50.18
333.84	117.76
334.053	64.51
334.265	11.26
334.478	62.46
334.691	25.6
334.903	-25.6
335.116	5.12
335.329	80.89
335.541	27.65
335.754	60.42
335.966	48.13
336.179	82.94
336.392	27.65
336.604	25.6
336.817	31.74
337.029	87.04
337.242	50.18
337.454	76.8
337.667	95.23
337.88	76.8
338.092	33.79
338.305	19.46
338.517	31.74
338.729	23.55
338.942	64.51
339.154	-7.17
339.367	-31.74
339.579	68.61
339.792	64.51
340.004	72.7
340.217	9.22
340.429	35.84
340.641	-25.6
340.854	11.26
341.066	56.32
341.278	156.67
341.491	72.7
341.703	-5.12
341.915	15.36
342.128	128
342.34	87.04
342.552	58.37
342.764	60.42
342.977	62.46
343.189	101.37
343.401	121.85
343.613	27.65
343.826	70.65
344.038	44.03
344.25	74.75
344.462	25.6
344.674	144.38
344.886	56.32
345.099	76.8
345.311	58.37
345.523	54.27
345.735	-1.02
345.947	105.47
346.159	15.36
346.371	31.74
346.583	103.42
346.795	58.37
347.007	13.31
347.219	37.89
347.431	105.47
347.643	58.37
347.855	54.27
348.067	54.27
348.279	9.22
348.491	48.13
348.703	132.09
348.915	29.7
349.127	33.79
349.339	39.94
349.551	82.94
349.763	62.46
349.975	68.61
350.187	125.95
350.399	95.23
350.61	44.03
350.822	11.26
351.034	60.42
351.246	23.55
351.458	31.74
351.669	58.37
351.881	82.94
352.093	80.89
352.305	125.95
352.517	19.46
352.728	66.56
352.94	111.61
353.152	15.36
353.363	72.7
353.575	107.52
353.787	74.75
353.999	74.75
354.21	70.65
354.422	37.89
354.633	-3.07
354.845	58.37
355.057	15.36
355.268	39.94
355.48	35.84
355.692	48.13
355.903	105.47
356.115	76.8
356.326	9.22
356.538	113.66
356.749	66.56
356.961	160.77
357.172	93.18
357.384	89.09
357.595	95.23
357.807	19.46
358.018	62.46
358.23	64.51
358.441	111.61
358.653	97.28
358.864	80.89
359.075	54.27
359.287	-1.02
359.498	84.99
359.709	109.57
359.921	93.18
360.132	58.37
360.344	60.42
360.555	64.51
360.766	72.7
360.977	27.65
361.189	95.23
361.4	17.41
361.611	123.9
361.823	50.18
362.034	138.24
362.245	27.65
362.456	93.18
362.667	158.72
362.879	33.79
363.09	9.22
363.301	46.08
363.512	82.94
363.723	27.65
363.935	-29.7
364.146	121.85
364.357	-21.5
364.568	91.13
364.779	-41.98
364.99	68.61
365.201	27.65
365.412	113.66
365.623	-15.36
365.834	142.33
366.045	31.74
366.256	80.89
366.467	-46.08
366.678	82.94
366.889	39.94
367.1	68.61
367.311	60.42
367.522	44.03
367.733	109.57
367.944	52.22
368.155	35.84
368.366	84.99
368.577	72.7
368.788	66.56
368.999	78.85
369.209	89.09
369.42	60.42
369.631	105.47
369.842	56.32
370.053	46.08
370.264	58.37
370.474	27.65
370.685	64.51
370.896	78.85
371.107	76.8
371.317	80.89
371.528	74.75
371.739	91.13
371.95	39.94
372.16	50.18
372.371	33.79
372.582	50.18
372.792	101.37
373.003	134.14
373.214	50.18
373.424	140.29
373.635	33.79
373.846	23.55
374.056	-21.5
374.267	33.79
374.477	105.47
374.688	46.08
374.898	52.22
375.109	78.85
375.319	66.56
375.53	130.05
375.74	117.76
375.951	37.89
376.161	72.7
376.372	76.8
376.582	60.42
376.793	50.18
377.003	39.94
377.214	140.29
377.424	84.99
377.635	97.28
377.845	31.74
378.055	80.89
378.266	48.13
378.476	125.95
378.686	9.22
378.897	93.18
379.107	64.51
379.317	68.61
379.528	64.51
379.738	21.5
379.948	109.57
380.158	99.33
380.369	37.89
380.579	62.46
380.789	44.03
380.999	21.5
381.21	68.61
381.42	128
381.63	-3.07
381.84	101.37
382.05	44.03
382.261	109.57
382.471	39.94
382.681	-1.02
382.891	54.27
383.101	109.57
383.311	60.42
383.521	58.37
383.731	140.29
383.941	74.75
384.151	82.94
384.361	31.74
384.571	89.09
384.781	97.28
384.991	130.05
385.201	72.7
385.411	99.33
385.621	80.89
385.831	54.27
386.041	99.33
386.251	138.24
386.461	64.51
386.671	101.37
386.881	109.57
387.091	54.27
387.301	84.99
387.511	39.94
387.72	154.62
387.93	52.22
388.14	107.52
388.35	54.27
388.56	70.65
388.769	105.47
388.979	107.52
389.189	76.8
389.399	87.04
389.609	101.37
389.818	44.03
390.028	97.28
390.238	60.42
390.447	68.61
390.657	91.13
390.867	70.65
391.076	-3.07
391.286	54.27
391.496	80.89
391.705	17.41
391.915	105.47
392.125	142.33
392.334	44.03
392.544	101.37
392.753	128
392.963	54.27
393.172	82.94
393.382	64.51
393.591	105.47
393.801	119.81
394.01	134.14
394.22	74.75
394.429	82.94
394.639	115.71
394.848	103.42
395.058	101.37
395.267	91.13
395.477	78.85
395.686	173.05
395.895	97.28
396.105	187.39
396.314	97.28
396.524	158.72
396.733	185.34
396.942	132.09
397.152	78.85
397.361	158.72
397.57	134.14
397.78	111.61
397.989	171.01
398.198	142.33
398.407	95.23
398.617	52.22
398.826	142.33
399.035	160.77
399.244	107.52
399.453	132.09
399.663	130.05
399.872	101.37
400.081	138.24
400.29	220.16
400.499	117.76
400.708	148.48
400.917	142.33
401.127	134.14
401.336	150.53
401.545	91.13
401.754	152.57
401.963	164.86
402.172	142.33
402.381	144.38
402.59	103.42
402.799	132.09
403.008	121.85
403.217	140.29
403.426	142.33
403.635	101.37
403.844	150.53
404.053	230.4
404.262	144.38
404.471	279.55
404.68	175.1
404.888	209.92
405.097	132.09
405.306	97.28
405.515	189.44
405.724	230.4
405.933	164.86
406.142	160.77
406.35	271.36
406.559	152.57
406.768	230.4
406.977	308.22
407.185	275.45
407.394	281.6
407.603	185.34
407.812	252.92
408.02	160.77
408.229	277.5
408.438	277.5
408.646	242.68
408.855	279.55
409.064	271.36
409.272	287.74
409.481	379.9
409.69	334.84
409.898	314.36
410.107	304.12
410.315	445.43
410.524	375.8
410.733	369.66
410.941	429.05
411.15	467.96
411.358	437.24
411.567	504.82
411.775	375.8
411.984	418.81
412.192	510.97
412.401	596.98
412.609	527.35
412.818	500.73
413.026	627.7
413.234	590.84
413.443	525.3
413.651	642.04
413.86	633.85
414.068	721.91
414.276	689.14
414.485	771.06
414.693	717.81
414.901	883.7
415.11	781.3
415.318	709.62
415.526	836.6
415.734	904.18
415.943	910.32
416.151	928.75
416.359	982
416.567	953.33
416.776	992.24
416.984	1035.25
417.192	1162.22
417.4	1145.84
417.608	1051.63
417.817	1172.46
418.025	1211.37
418.233	1270.76
418.441	1272.81
418.649	1416.17
418.857	1375.21
419.065	1444.84
419.273	1455.08
419.481	1590.25
419.689	1629.16
419.897	1682.41
420.105	1784.8
420.313	1762.28
420.521	1905.63
420.729	1915.87
420.937	1971.17
421.145	2085.86
421.353	2079.71
421.561	2253.79
421.769	2339.8
421.977	2403.29
422.185	2384.86
422.393	2554.84
422.601	2669.53
422.809	2585.56
423.017	2624.47
423.224	2647
423.432	2864.08
423.64	2853.84
423.848	3122.13
424.056	3075.03
424.263	3273.68
424.471	3359.69
424.679	3296.21
424.887	3402.7
425.094	3599.31
425.302	3742.66
425.51	3775.43
425.718	3892.16
425.925	3945.41
426.133	4051.91
426.341	4324.29
426.548	4559.8
426.756	4592.57
426.964	4594.62
427.171	5063.6
427.379	5137.33
427.586	5053.36
427.794	5313.45
428.001	5460.91
428.209	5794.73
428.417	5671.85
428.624	6261.66
428.832	6089.64
429.039	6065.06
429.247	6140.83
429.454	6654.87
429.662	7244.69
429.869	6695.83
430.076	7091.09
430.284	6904.73
430.491	7261.07
430.699	7449.49
430.906	7633.8
431.114	7642
431.321	8086.4
431.528	8262.53
431.736	8618.88
431.943	9124.72
432.15	8850.3
432.358	8915.83
432.565	9610.09
432.772	9378.67
432.979	9821.03
433.187	9950.06
433.394	10068.84
433.601	10865.5
433.808	10750.81
434.016	10568.54
434.223	10830.68
434.43	11817.8
434.637	11570
434.844	12204.87
435.052	12561.22
435.259	12430.15
435.466	12563.26
435.673	12274.5
435.88	13095.74
436.087	14048.04
436.294	13916.97
436.501	13374.26
436.708	13884.2
436.915	14392.1
437.122	15129.37
437.329	14850.85
437.537	15348.5
437.743	15846.16
437.95	15713.04
438.157	16378.63
438.364	17021.69
438.571	17019.64
438.778	16907.01
438.985	18782.95
439.192	17984.24
439.399	18684.64
439.606	17951.47
439.813	19286.75
440.02	20325.07
440.227	19915.47
440.433	19657.43
440.64	20486.86
440.847	20441.8
441.054	20816.58
441.261	22205.1
441.467	21838.51
441.674	22733.48
441.881	23247.52
442.088	23149.21
442.294	23018.14
442.501	23523.99
442.708	24291.98
442.914	24998.53
443.121	26014.32
443.328	25389.69
443.534	27036.26
443.741	26186.35
443.948	25973.36
444.154	28176.98
444.361	27662.94
444.568	28015.19
444.774	28009.04
444.981	28283.47
445.187	29129.28
445.394	30364.21
445.6	29817.4
445.807	32918.03
446.013	31797.79
446.22	31947.29
446.426	33061.38
446.633	33837.56
446.839	34388.47
447.046	33350.15
447.252	34836.97
447.459	34927.08
447.665	34894.32
447.871	36415.96
448.078	37290.44
448.284	35783.13
448.491	36903.37
448.697	38042.04
448.903	38867.37
449.11	39088.56
449.316	38177.21
449.522	38871.47
449.728	40102.3
449.935	40262.04
450.141	40268.19
450.347	41261.45
450.553	39821.73
450.76	40155.55
450.966	41474.44
451.172	40962.45
451.378	41771.39
451.584	41089.42
451.791	42045.82
451.997	42037.63
452.203	42629.49
452.409	42690.93
452.615	41947.52
452.821	40505.75
453.027	39899.55
453.233	41898.37
453.44	40591.76
453.646	40849.81
453.852	41103.76
454.058	41462.15
454.264	40065.44
454.47	40933.78
454.676	40075.68
454.882	41449.86
455.088	37654.98
455.294	38048.19
455.5	38527.41
455.705	39207.34
455.911	37138.89
456.117	36745.68
456.323	36135.38
456.529	34150.9
456.735	35520.99
456.941	34673.13
457.147	34093.56
457.352	32819.72
457.558	32557.58
457.764	32758.28
457.97	31746.59
458.176	31152.68
458.381	30814.76
458.587	29614.65
458.793	29278.79
458.999	28111.44
459.204	29905.46
459.41	29356.61
459.616	27255.39
459.821	27314.78
460.027	27296.35
460.233	26413.68
460.438	25117.31
460.644	25119.36
460.85	24502.92
461.055	24236.69
461.261	23845.52
461.466	22110.89
461.672	21498.55
461.878	23057.06
462.083	21660.34
462.289	21449.4
462.494	21113.53
462.7	19970.77
462.905	19509.97
463.111	20122.32
463.316	20390.6
463.522	20030.16
463.727	20019.92
463.932	19856.08
464.138	19276.51
464.343	19718.87
464.549	19090.14
464.754	19692.24
464.959	19700.44
465.165	19294.94
465.37	18557.67
465.575	18236.14
465.781	19102.43
465.986	19065.57
466.191	18551.52
466.397	17955.57
466.602	17408.76
466.807	17836.78
467.012	17750.77
467.218	17484.53
467.423	17222.39
467.628	17740.53
467.833	18125.55
468.038	17740.53
468.244	17072.89
468.449	17621.75
468.654	17220.35
468.859	17076.99
469.064	17216.25
469.269	16302.86
469.474	16354.05
469.679	17001.21
469.885	16370.44
470.09	16435.97
470.295	16241.42
470.5	16079.63
470.705	16065.29
470.91	15706.9
471.115	15393.56
471.32	15973.13
471.525	15608.59
471.73	15305.49
471.935	15184.66
472.139	14760.73
472.344	14824.22
472.549	14748.45
472.754	14435.11
472.959	14177.06
473.164	13724.46
473.369	13890.35
473.574	14349.09
473.778	14103.34
473.983	13892.4
474.188	13898.54
474.393	13396.79
474.598	13507.38
474.802	13243.19
475.007	12991.29
475.212	13273.91
475.417	12471.11
475.621	12591.94
475.826	12698.43
476.031	12516.16
476.235	12317.51
476.44	12446.53
476.645	12170.05
476.849	12303.17
477.054	12036.94
477.259	11959.11
477.463	11723.6
477.668	11635.53
477.872	11494.22
478.077	11273.04
478.282	11215.7
478.486	11111.25
478.691	11252.56
478.895	10832.73
479.1	10939.23
479.304	10955.61
479.509	10466.14
479.713	10953.56
479.918	10468.19
480.122	10738.52
480.326	10785.63
480.531	10613.6
480.735	10507.1
480.94	10660.7
481.144	10732.38
481.348	10371.94
481.553	10492.77
481.757	10406.75
481.961	10464.1
482.166	10371.94
482.37	10361.7
482.574	10169.19
482.778	10376.03
482.983	10416.99
483.187	10445.66
483.391	10238.82
483.595	10357.6
483.8	10212.2
484.004	10161
484.208	10560.35
484.412	10101.61
484.616	10337.12
484.821	10333.03
485.025	9986.92
485.229	10353.51
485.433	9980.78
485.637	10220.39
485.841	10115.94
486.045	10339.17
486.249	10052.45
486.453	10171.24
486.657	10158.95
486.861	10400.61
487.065	9945.96
487.269	10193.76
487.473	9917.29
487.677	10255.2
487.881	10298.21
488.085	10283.88
488.289	10117.99
488.493	10240.87
488.697	10345.31
488.901	10212.2
489.105	10148.71
489.309	10292.07
489.512	10236.77
489.716	10261.35
489.92	10343.27
490.124	10343.27
490.328	10482.53
490.531	10210.15
490.735	10722.14
490.939	10654.56
491.143	10451.81
491.346	10421.09
491.55	10744.67
491.754	10640.22
491.958	10660.7
492.161	10644.32
492.365	10840.92
492.569	10761.05
492.772	10689.37
492.976	10890.07
493.18	10906.46
493.383	11101.01
493.587	11033.43
493.79	11365.2
493.994	11148.12
494.197	11242.32
494.401	11324.24
494.605	11391.83
494.808	11449.17
495.012	11578.19
495.215	11936.59
495.419	11662.16
495.622	11602.77
495.825	11737.93
496.029	12059.46
496.232	12256.07
496.436	12323.65
496.639	12448.58
496.843	12010.31
497.046	12718.91
497.249	12751.68
497.453	12667.71
497.656	13048.63
497.859	12958.52
498.063	13253.43
498.266	13384.5
498.469	13341.49
498.673	13433.65
498.876	13982.51
499.079	13853.48
499.282	14101.29
499.485	14289.7
499.689	14185.26
499.892	14369.57
500.095	14535.46
500.298	15024.92
500.501	14811.93
500.705	15110.94
500.908	15375.13
501.111	15506.2
501.314	15721.23
501.517	15649.55
501.72	15700.75
501.923	15887.12
502.126	16321.29
502.329	16595.71
502.532	16634.63
502.735	16704.26
502.938	16894.72
503.141	17136.38
503.344	17371.89
503.547	17308.41
503.75	17617.65
503.953	18039.53
504.156	18088.68
504.359	18211.56
504.562	18342.63
504.765	18793.19
504.968	19032.8
505.17	18954.97
505.373	19149.53
505.576	19448.54
505.779	19722.96
505.982	19786.45
506.185	20454.09
506.387	19946.19
506.59	20433.61
506.793	20921.02
506.996	20792
507.198	21383.87
507.401	21449.4
507.604	21443.26
507.807	21969.58
508.009	22133.42
508.212	22160.05
508.415	22727.33
508.617	22710.95
508.82	22766.24
509.022	22493.86
509.225	23505.56
509.428	23657.11
509.63	23743.13
509.833	23974.55
510.035	24357.52
510.238	23990.93
510.44	24482.44
510.643	25053.83
510.845	25332.35
511.048	25213.57
511.25	25854.58
511.453	25625.21
511.655	26509.93
511.858	26325.61
512.06	26757.74
512.262	26923.62
512.465	27128.42
512.667	27527.77
512.87	27740.76
513.072	27875.93
513.274	28181.07
513.477	28602.96
513.679	29002.31
513.881	29049.41
514.084	29256.26
514.286	29295.17
514.488	29682.24
514.69	30519.85
514.893	30237.23
515.095	30667.31
515.297	31095.33
515.499	31136.29
515.701	31736.35
515.904	31687.2
516.106	32182.8
516.308	31879.71
516.51	32705.04
516.712	32854.54
516.914	33077.77
517.116	33784.32
517.318	33626.62
517.52	34038.26
517.722	34015.74
517.925	34599.41
518.127	34666.99
518.329	35133.93
518.531	35461.6
518.733	35906.01
518.935	36272.6
519.136	36418
519.338	36846.03
519.54	36606.42
519.742	37568.96
519.944	37534.15
520.146	37867.97
520.348	38496.69
520.55	38455.73
520.752	38660.53
520.954	39049.64
521.155	39297.45
521.357	39481.77
521.559	39897.5
521.761	40554.9
521.963	40251.8
522.164	40749.46
522.366	40614.29
522.568	41191.82
522.77	41433.48
522.971	42195.32
523.173	41513.35
523.375	42142.08
523.576	42307.96
523.778	42307.96
523.98	43131.25
524.181	43020.66
524.383	43026.8
524.584	43710.82
524.786	43809.12
524.988	43581.8
525.189	43975.01
525.391	44552.54
525.592	44720.47
525.794	45021.52
525.995	44962.13
526.197	45080.91
526.398	45132.11
526.6	45476.17
526.801	45416.78
527.003	46014.79
527.204	45699.4
527.406	46281.02
527.607	46340.41
527.808	46653.75
528.01	46154.05
528.211	46717.24
528.412	47440.17
528.614	47157.55
528.815	47282.48
529.016	47837.48
529.218	47259.95
529.419	47284.53
529.62	47487.28
529.822	47751.46
530.023	47675.69
530.224	47706.41
530.425	47444.27
530.626	47937.83
530.828	47452.46
531.029	48679.19
531.23	47829.29
531.431	48044.32
531.632	48478.49
531.833	48521.5
532.035	48234.78
532.236	48517.4
532.437	48771.35
532.638	48218.4
532.839	48705.82
533.04	48972.05
533.241	48263.46
533.442	49482
533.643	48861.46
533.844	48625.95
534.045	49563.92
534.246	48746.78
534.447	49451.28
534.648	49299.73
534.849	49348.88
535.05	48945.43
535.251	49164.56
535.451	48935.19
535.652	49146.13
535.853	49461.52
536.054	49228.05
536.255	49637.64
536.456	49019.16
536.657	50049.28
536.857	48820.5
537.058	49271.06
537.259	49508.62
537.46	49324.3
537.66	49504.52
537.861	49365.26
538.062	49391.89
538.263	49086.74
538.463	49142.03
538.664	49107.22
538.865	49281.3
539.065	49502.48
539.266	48582.94
539.466	49770.76
539.667	48836.89
539.868	49592.59
540.068	49217.81
540.269	49328.4
540.469	49586.44
540.67	48943.38
540.87	49099.03
541.071	48664.86
541.271	49066.26
541.472	48652.57
541.672	48834.84
541.873	48974.1
542.073	48363.81
542.274	49574.16
542.474	49082.64
542.675	48857.37
542.875	49377.55
543.075	49213.71
543.276	48576.79
543.476	49324.3
543.676	48777.5
543.877	48804.12
544.077	48847.13
544.277	48845.08
544.478	48845.08
544.678	48816.41
544.878	48910.61
545.078	48476.44
545.279	48589.08
545.479	48453.92
545.679	48646.43
545.879	48949.53
546.079	48636.19
546.28	48511.26
546.48	48195.87
546.68	48828.69
546.88	48468.25
547.08	48808.22
547.28	48308.51
547.48	47894.82
547.68	48695.58
547.88	48505.12
548.081	48705.82
548.281	48623.9
548.481	48541.98
548.681	48664.86
548.881	48800.02
549.081	48589.08
549.28	48038.18
549.48	49027.35
549.68	48292.13
549.88	49213.71
550.08	48333.09
550.28	48345.37
550.48	47966.5
550.68	48546.08
550.88	48273.7
551.08	48206.11
551.279	48300.32
551.479	47958.31
551.679	48283.94
551.879	47999.27
552.079	48107.81
552.278	47837.48
552.478	47886.63
552.678	48161.06
552.878	48275.74
553.077	47919.4
553.277	47690.02
553.477	48353.57
553.676	48066.85
553.876	47935.78
554.076	47659.3
554.275	47579.43
554.475	47300.91
554.674	47831.33
554.874	47669.54
555.074	47626.54
555.273	48013.6
555.473	48347.42
555.672	47468.84
555.872	47173.94
556.071	47305.01
556.271	47585.58
556.47	47511.85
556.67	46575.93
556.869	47116.59
557.068	47520.04
557.268	47124.78
557.467	46891.32
557.667	47124.78
557.866	46508.35
558.065	46971.19
558.265	46719.29
558.464	46811.45
558.663	47262
558.863	46047.55
559.062	47270.19
559.261	46477.63
559.461	47003.95
559.66	45795.65
559.859	46479.67
560.058	46061.89
560.258	46098.75
560.457	46029.12
560.656	46309.69
560.855	45623.62
561.054	46106.94
561.253	45613.38
561.453	46358.84
561.652	45756.74
561.851	45650.25
562.05	45652.3
562.249	45261.13
562.448	45418.83
562.647	45568.33
562.846	45326.67
563.045	45216.08
563.244	44962.13
563.443	45058.38
563.642	44546.39
563.841	44595.54
564.04	44456.28
564.239	45128.02
564.438	44222.81
564.637	44677.46
564.836	44589.4
565.035	43991.39
565.234	44392.79
565.432	43817.32
565.631	43907.43
565.83	44101.98
566.029	43798.88
566.228	43741.54
566.427	43309.42
566.625	43065.71
566.824	42815.86
567.023	43202.92
567.222	42518.9
567.42	43311.47
567.619	43245.93
567.818	43204.97
568.016	42854.77
568.215	42946.93
568.414	42187.13
568.612	42977.65
568.811	42367.35
569.01	42187.13
569.208	42144.12
569.407	41996.67
569.605	41767.3
569.804	42332.54
570.002	41574.79
570.201	41892.22
570.4	41361.8
570.598	41130.38
570.797	41169.29
570.995	41273.74
571.193	40714.64
571.392	41515.4
571.59	40780.18
571.789	40661.4
571.987	40612.24
572.186	40315.29
572.384	40206.75
572.582	40513.94
572.781	40292.76
572.979	39803.3
573.177	40133.02
573.376	40012.19
573.574	39979.42
573.772	39817.63
573.971	39754.15
574.169	39596.45
574.367	38939.05
574.565	39082.41
574.763	39096.75
574.962	39141.8
575.16	38531.51
575.358	38666.67
575.556	38363.57
575.754	39395.75
575.952	38595
576.151	38480.31
576.349	38060.48
576.547	38498.74
576.745	38136.25
576.943	38257.08
577.141	37872.06
577.339	38203.83
577.537	37661.12
577.735	37896.64
577.933	37638.59
578.131	37732.8
578.329	37233.1
578.527	37259.72
578.725	37110.22
578.923	37237.19
579.121	36942.28
579.319	36901.32
579.516	36944.33
579.714	36899.28
579.912	36575.7
580.11	36342.23
580.308	36487.64
580.506	36481.49
580.704	35607.01
580.901	36004.31
581.099	36284.89
581.297	35467.75
581.495	35686.88
581.692	35858.91
581.89	35236.33
582.088	35631.58
582.285	35275.24
582.483	35426.79
582.681	35418.6
582.878	34847.21
583.076	34802.16
583.274	35391.97
583.471	34689.52
583.669	34589.17
583.866	34666.99
584.064	34773.49
584.262	34111.99
584.459	34415.09
584.657	34214.39
584.854	34306.55
585.052	33788.41
585.249	34079.22
585.447	33935.87
585.644	33518.08
585.841	33341.96
586.039	34034.17
586.236	33468.93
586.434	33567.23
586.631	33100.29
586.828	33448.45
587.026	33292.8
587.223	33188.36
587.42	32956.94
587.618	33092.1
587.815	32526.86
588.012	32494.1
588.21	32358.93
588.407	32619.02
588.604	31871.51
588.801	32178.71
588.999	32127.51
589.196	32111.13
589.393	31928.86
589.59	31861.27
589.787	31722.01
589.984	31380
590.182	31248.93
590.379	31476.26
590.576	31636
590.773	31283.75
590.97	31046.18
591.167	31437.34
591.364	30990.89
591.561	31494.69
591.758	30644.78
591.955	30794.28
592.152	31064.61
592.349	30376.5
592.546	30585.39
592.743	30300.72
592.94	30413.36
593.137	30331.44
593.334	30409.26
593.531	30220.85
593.727	30003.77
593.924	30126.64
594.121	29825.59
594.318	29762.11
594.515	29268.55
594.712	29866.55
594.908	29489.73
595.105	29520.45
595.302	29401.66
595.499	29264.45
595.696	29147.72
595.892	28990.02
596.089	28969.54
596.286	29098.56
596.482	28570.19
596.679	28668.49
596.876	28537.42
597.072	28545.61
597.269	28779.08
597.466	27902.55
597.662	28353.1
597.859	28103.25
598.055	28289.62
598.252	28023.38
598.448	28199.51
598.645	27908.69
598.841	27392.61
599.038	27597.4
599.234	27767.38
599.431	27378.27
599.627	27103.84
599.824	27531.87
600.02	27112.03
600.217	27542.11
600.413	27208.29
600.609	27155.04
600.806	26917.48
601.002	26882.66
601.198	26684.01
601.395	26729.06
601.591	26483.31
601.787	26321.52
601.984	26407.53
602.18	26716.78
602.376	26225.26
602.572	26217.07
602.769	26239.6
602.965	25707.13
603.161	25916.02
603.357	25922.16
603.553	26122.87
603.75	25592.44
603.946	25668.22
604.142	25674.36
604.338	25209.47
604.534	25492.09
604.73	24732.29
604.926	24988.29
605.122	25381.5
605.318	25238.14
605.514	24982.15
605.71	24865.41
605.906	24707.72
606.102	24855.17
606.298	24806.02
606.494	24967.81
606.69	24679.05
606.886	24482.44
607.082	24232.59
607.278	24500.87
607.474	23984.79
607.67	24322.7
607.866	23913.11
608.062	24363.66
608.257	23792.28
608.453	24380.04
608.649	24040.08
608.845	23587.48
609.041	23902.87
609.236	23931.54
609.432	23712.41
609.628	23808.66
609.824	23722.65
610.019	23679.64
610.215	23521.95
610.411	23618.2
610.606	23237.28
610.802	23497.37
610.998	23413.4
611.193	23349.92
611.389	23177.89
611.584	23059.1
611.78	23038.62
611.976	23188.13
612.171	22889.12
612.367	22997.67
612.562	23055.01
612.758	22614.69
612.953	22543.02
613.149	22903.46
613.344	22583.98
613.539	23079.58
613.735	22731.43
613.93	22500.01
614.126	22295.21
614.321	22624.93
614.517	22325.93
614.712	22325.93
614.907	22489.77
615.103	22614.69
615.298	22071.98
615.493	22620.84
615.688	21795.51
615.884	22354.6
616.079	21762.74
616.274	22221.48
616.47	22026.93
616.665	22067.89
616.86	22104.75
617.055	21973.68
617.25	21686.97
617.445	22166.19
617.641	21277.37
617.836	21779.12
618.031	21465.78
618.226	21621.43
618.421	21095.1
618.616	21490.36
618.811	21066.43
619.006	21234.36
619.201	20736.71
619.396	21172.92
619.591	20712.13
619.786	20902.59
619.981	20638.41
620.176	20732.61
620.371	20486.86
620.566	20499.14
620.761	20462.28
620.956	20619.97
621.151	20222.67
621.346	20341.45
621.541	19897.04
621.735	20320.97
621.93	19745.49
622.125	20067.02
622.32	19546.84
622.515	19720.92
622.709	19462.87
622.904	19446.49
623.099	18985.69
623.294	19366.62
623.488	19184.35
623.683	19380.95
623.878	18668.26
624.072	18950.88
624.267	18625.25
624.462	18723.55
624.656	18262.76
624.851	18682.59
625.046	18014.96
625.24	18045.68
625.435	18184.94
625.629	18180.84
625.824	17965.81
626.018	17830.64
626.213	17457.91
626.407	17801.97
626.602	17679.09
626.796	17773.3
626.991	17570.55
627.185	17480.44
627.38	17269.5
627.574	17173.24
627.768	17029.88
627.963	16915.2
628.157	16753.41
628.352	16777.98
628.546	16331.53
628.74	16497.41
628.935	16392.97
629.129	16349.96
629.323	16321.29
629.517	16132.87
629.712	15975.18
629.906	16001.8
630.1	15852.3
630.294	15627.03
630.489	15616.79
630.683	15821.58
630.877	15350.55
631.071	15483.67
631.265	15733.52
631.459	15358.74
631.653	15323.93
631.848	15125.27
632.042	15076.12
632.236	15088.41
632.43	15160.09
632.624	14947.1
632.818	14666.53
633.012	14637.86
633.206	14891.8
633.4	14891.8
633.594	14529.31
633.788	14388
633.982	14326.57
634.176	14414.63
634.369	14361.38
634.563	14254.89
634.757	14023.47
634.951	14203.69
635.145	14039.85
635.339	13816.62
635.533	13900.59
635.726	13837.1
635.92	13558.58
636.114	13751.09
636.308	13519.67
636.501	13421.36
636.695	13534
636.889	13253.43
637.083	13306.68
637.276	13103.93
637.47	13067.06
637.664	13103.93
637.857	13024.06
638.051	12962.62
638.244	12723.01
638.438	12495.68
638.632	12641.09
638.825	12569.41
639.019	12536.64
639.212	12487.49
639.406	12411.71
639.599	12462.91
639.793	12243.78
639.986	12090.18
640.18	12098.38
640.373	12145.48
640.567	12034.89
640.76	12051.27
640.954	11807.56
641.147	11658.06
641.34	11731.79
641.534	11828.04
641.727	11592.53
641.92	11496.27
642.114	11631.44
642.307	11584.34
642.5	11422.55
642.694	11318.1
642.887	11184.98
643.08	11197.27
643.273	11215.7
643.467	11062.1
643.66	10818.39
643.853	11045.72
644.046	10693.47
644.239	10855.26
644.432	10765.15
644.626	10804.06
644.819	10689.37
645.012	10640.22
645.205	10658.65
645.398	10443.62
645.591	10386.27
645.784	10421.09
645.977	10169.19
646.17	10312.55
646.363	10171.24
646.556	10040.17
646.749	10068.84
646.942	9960.3
647.135	10095.46
647.328	9796.46
647.521	9962.34
647.714	9726.83
647.907	9747.31
648.099	9841.51
648.292	9626.48
648.485	9628.53
648.678	9663.34
648.871	9460.59
649.064	9401.2
649.256	9587.57
649.449	9401.2
649.642	9350
649.835	9182.07
650.027	9358.19
650.22	9175.92
650.413	9053.05
650.605	9098.1
650.798	8993.65
650.991	8749.95
651.183	8940.41
651.376	8938.36
651.568	8964.98
651.761	8749.95
651.954	8743.8
652.146	8907.64
652.339	8792.95
652.531	8751.99
652.724	8555.39
652.916	8481.66
653.109	8520.57
653.301	8379.26
653.494	8348.54
653.686	8074.12
653.879	8350.59
654.071	8211.33
654.263	8143.75
654.456	8149.89
654.648	8141.7
654.84	8256.39
655.033	8010.63
655.225	8018.82
655.417	7979.91
655.61	7959.43
655.802	8018.82
655.994	7781.26
656.186	7850.89
656.379	7818.12
656.571	7627.66
656.763	7496.59
656.955	7592.84
657.148	7764.87
657.34	7621.52
657.532	7400.34
657.724	7531.41
657.916	7476.11
658.108	7502.73
658.3	7277.46
658.492	7297.94
658.684	7181.2
658.876	7326.61
659.068	7144.34
659.26	7254.93
659.452	7160.72
659.644	7199.63
659.836	7101.33
660.028	7138.2
660.22	7015.32
660.412	6986.65
660.604	6874.01
660.796	6919.06
660.988	6861.72
661.18	6693.79
661.372	6587.29
661.563	6894.49
661.755	6507.42
661.947	6599.58
662.139	6462.37
662.331	6480.8
662.522	6282.14
662.714	6341.54
662.906	6624.15
663.097	6529.95
663.289	6462.37
663.481	6341.54
663.673	6366.11
663.864	6253.47
664.056	6372.25
664.247	6103.97
664.439	6214.56
664.631	6308.77
664.822	6157.22
665.014	6243.23
665.205	6196.13
665.397	6114.21
665.588	6075.3
665.78	6007.72
665.971	6060.96
666.163	6192.03
666.354	5974.95
666.546	6028.2
666.737	5755.82
666.929	5882.79
667.12	5749.67
667.311	5688.23
667.503	5569.45
667.694	5850.02
667.885	5745.58
668.077	5817.26
668.268	5712.81
668.459	5796.78
668.651	5628.84
668.842	5634.99
669.033	5632.94
669.224	5473.2
669.416	5667.75
669.607	5448.62
669.798	5389.23
669.989	5569.45
670.18	5245.87
670.371	5483.44
670.563	5405.61
670.754	5315.5
670.945	5151.67
671.136	5338.03
671.327	5329.84
671.518	5303.22
671.709	5104.56
671.9	5368.75
672.091	5200.82
672.282	5202.86
672.473	5067.7
672.664	5329.84
672.855	5122.99
673.046	5094.32
673.237	5114.8
673.428	5098.42
673.619	5135.28
673.809	5002.16
674	4871.09
674.191	5100.47
674.382	5039.03
674.573	5045.17
674.764	4856.76
674.954	4918.2
675.145	4830.13
675.336	4836.28
675.527	4893.62
675.717	4793.27
675.908	4875.19
676.099	4707.26
676.289	4725.69
676.48	4701.11
676.671	4590.52
676.861	4864.95
677.052	4615.1
677.243	4567.99
677.433	4565.95
677.624	4619.19
677.814	4606.91
678.005	4639.67
678.195	4674.49
678.386	4623.29
678.576	4559.8
678.767	4539.32
678.957	4557.75
679.148	4680.63
679.338	4502.46
679.529	4514.75
679.719	4498.36
679.909	4651.96
680.1	4617.15
680.29	4418.49
680.481	4565.95
680.671	4467.64
680.861	4408.25
681.052	4422.59
681.242	4365.25
681.432	4520.89
681.622	4457.4
681.813	4459.45
682.003	4453.31
682.193	4330.43
682.383	4514.75
682.573	4299.71
682.764	4256.7
682.954	4312
683.144	4387.77
683.334	4254.66
683.524	3963.84
683.714	4488.12
683.904	4170.69
684.094	4301.76
684.284	4158.4
684.474	4283.33
684.664	4162.5
684.854	4361.15
685.044	4205.5
685.234	4176.83
685.424	4187.07
685.614	4133.82
685.804	4123.59
685.994	4268.99
686.184	4033.47
686.374	4111.3
686.564	4051.91
686.753	4203.46
686.943	4025.28
687.133	4168.64
687.323	4062.15
687.513	4125.63
687.702	4023.23
687.892	3931.08
688.082	3906.5
688.272	4074.43
688.461	3924.93
688.651	3853.25
688.841	3890.12
689.03	3980.23
689.22	3902.4
689.41	3820.49
689.599	3689.42
689.789	3840.97
689.979	3853.25
690.168	3886.02
690.358	3847.11
690.547	3695.56
690.737	3777.48
690.926	3822.53
691.116	3685.32
691.305	3824.58
691.495	3773.38
691.684	3783.62
691.874	3679.18
692.063	3705.8
692.252	3582.92
692.442	3521.48
692.631	3574.73
692.82	3544.01
693.01	3490.76
693.199	3574.73
693.388	3568.59
693.578	3546.06
693.767	3541.96
693.956	3574.73
694.146	3453.9
694.335	3529.67
694.524	3316.69
694.713	3578.83
694.902	3455.95
695.092	3410.89
695.281	3453.9
695.47	3529.67
695.659	3521.48
695.848	3435.47
696.037	3363.79
696.226	3406.8
696.415	3625.93
696.604	3425.23
696.793	3388.36
696.982	3380.17
697.171	3343.31
697.36	3558.35
697.549	3365.84
697.738	3318.73
697.927	3527.63
698.116	3365.84
698.305	3333.07
698.494	3447.76
698.683	3355.6
698.872	3441.61
699.061	3292.11
699.25	3390.41
699.438	3294.16
699.627	3324.88
699.816	3322.83
700.005	3396.56
700.193	3302.35
700.382	3277.77
700.571	3292.11
700.76	3249.1
700.948	3427.28
701.137	3273.68
701.326	3267.53
701.514	3347.4
701.703	3220.43
701.892	3234.77
702.08	3359.69
702.269	3288.01
702.457	3285.97
702.646	3275.73
702.834	3259.34
703.023	3302.35
703.212	3331.02
703.4	3302.35
703.589	3132.37
703.777	3189.71
703.965	3167.18
704.154	3304.4
704.342	3251.15
704.531	3339.21
704.719	3115.98
704.907	3263.44
705.096	3169.23
705.284	3111.89
705.472	3222.48
705.661	3189.71
705.849	3148.75
706.037	3345.36
706.226	3220.43
706.414	3089.36
706.602	3195.86
706.79	3324.88
706.979	3167.18
707.167	3371.98
707.355	3177.42
707.543	3218.38
707.731	3253.2
707.919	3351.5
708.107	3210.19
708.296	3308.49
708.484	3189.71
708.672	3163.09
708.86	3181.52
709.048	3214.29
709.236	3294.16
709.424	3175.38
709.612	3187.66
709.8	3324.88
709.988	3255.25
710.176	3124.18
710.364	3126.22
710.551	3218.38
710.739	3105.74
710.927	3183.57
711.115	3134.42
711.303	3259.34
711.491	3167.18
711.679	3265.49
711.866	3042.26
712.054	3242.96
712.242	3013.59
712.43	3107.79
712.617	3068.88
712.805	3103.7
712.993	3070.93
713.181	3169.23
713.368	3103.7
713.556	3218.38
713.744	3027.92
713.931	3228.62
714.119	3042.26
714.306	3148.75
714.494	3103.7
714.682	3183.57
714.869	3042.26
715.057	2995.15
715.244	3052.5
715.432	3013.59
715.619	3152.85
715.807	3058.64
715.994	3056.59
716.182	3161.04
716.369	3064.79
716.556	3105.74
716.744	3054.55
716.931	2972.63
717.119	3226.57
717.306	3058.64
717.493	2890.71
717.681	2968.53
717.868	3107.79
718.055	3032.02
718.242	3120.08
718.43	3048.4
718.617	2880.47
718.804	3046.35
718.991	3013.59
719.179	3087.31
719.366	2960.34
719.553	2997.2
719.74	2972.63
719.927	2878.42
720.114	2890.71
720.301	3034.07
720.488	3175.38
720.676	2909.14
720.863	2872.28
721.05	2939.86
721.237	3048.4
721.424	2974.67
721.611	3107.79
721.798	2993.11
721.985	2948.05
722.172	2909.14
722.358	2866.13
722.545	2982.87
722.732	2960.34
722.919	2939.86
723.106	2857.94
723.293	2935.76
723.48	2898.9
723.667	2986.96
723.853	3001.3
724.04	2862.04
724.227	2831.32
724.414	2919.38
724.6	2794.45
724.787	2935.76
724.974	2943.96
725.161	2909.14
725.347	2782.17
725.534	2812.89
725.72	2882.52
725.907	2882.52
726.094	2917.33
726.28	2835.41
726.467	2714.58
726.653	3007.44
726.84	2931.67
727.027	2780.12
727.213	2892.76
727.4	2909.14
727.586	2819.03
727.773	2823.12
727.959	2816.98
728.145	2952.15
728.332	2859.99
728.518	2898.9
728.705	2816.98
728.891	2839.51
729.077	2761.69
729.264	2804.69
729.45	2788.31
729.636	3040.21
729.823	2851.8
730.009	2923.48
730.195	3001.3
730.382	2903
730.568	2853.84
730.754	2819.03
730.94	2782.17
731.126	2730.97
731.313	2859.99
731.499	2892.76
731.685	2798.55
731.871	2778.07
732.057	2796.5
732.243	2800.6
732.429	2780.12
732.615	2890.71
732.801	2812.89
732.987	2755.54
733.173	2808.79
733.359	2778.07
733.545	2907.09
733.731	2800.6
733.917	2786.26
734.103	2642.9
734.289	2675.67
734.475	2728.92
734.661	2706.39
734.847	2763.73
735.033	2624.47
735.219	2749.4
735.404	2630.62
735.59	2751.45
735.776	2685.91
735.962	2862.04
736.148	2745.3
736.333	2698.2
736.519	2778.07
736.705	2706.39
736.89	2558.94
737.076	2614.23
737.262	2603.99
737.447	2704.34
737.633	2718.68
737.819	2745.3
738.004	2677.72
738.19	2741.21
738.375	2665.43
738.561	2780.12
738.747	2577.37
738.932	2663.38
739.118	2638.81
739.303	2726.87
739.489	2575.32
739.674	2616.28
739.859	2540.51
740.045	2642.9
740.23	2608.09
740.416	2501.59
740.601	2497.5
740.786	2526.17
740.972	2520.03
741.157	2526.17
741.342	2520.03
741.528	2474.97
741.713	2505.69
741.898	2423.77
742.084	2511.83
742.269	2509.79
742.454	2548.7
742.639	2501.59
742.824	2393.05
743.01	2481.11
743.195	2427.87
743.38	2370.52
743.565	2374.62
743.75	2444.25
743.935	2456.54
744.12	2405.34
744.305	2358.24
744.49	2380.76
744.675	2251.74
744.86	2204.64
745.045	2415.58
745.23	2241.5
745.415	2300.89
745.6	2304.99
745.785	2313.18
745.97	2311.13
746.155	2304.99
746.34	2257.89
746.525	2218.97
746.71	2284.51
746.895	2255.84
747.079	2255.84
747.264	2169.82
747.449	2216.93
747.634	2282.46
747.819	2253.79
748.003	2145.25
748.188	2196.45
748.373	2130.91
748.557	2087.9
748.742	2087.9
748.927	1997.79
749.111	2005.99
749.296	1981.41
749.481	2081.76
749.665	2065.38
749.85	1969.12
750.034	1879.01
750.219	1952.74
750.404	2077.66
750.588	1903.59
750.773	2053.09
750.957	1962.98
751.141	1958.88
751.326	1903.59
751.51	1915.87
751.695	1928.16
751.879	1842.15
752.064	1772.52
752.248	1883.11
752.432	1909.73
752.617	1731.56
752.801	1850.34
752.985	1821.67
753.17	1772.52
753.354	1764.33
753.538	1788.9
753.722	1852.39
753.907	1663.97
754.091	1827.81
754.275	1653.73
754.459	1723.37
754.643	1702.89
754.828	1649.64
755.012	1743.85
755.196	1747.94
755.38	1715.17
755.564	1692.65
755.748	1639.4
755.932	1602.54
756.116	1489.9
756.3	1514.47
756.484	1543.14
756.668	1563.62
756.852	1594.34
757.036	1485.8
757.22	1582.06
757.404	1534.95
757.588	1461.23
757.772	1459.18
757.956	1553.38
758.14	1479.66
758.323	1590.25
758.507	1461.23
758.691	1444.84
758.875	1493.99
759.059	1534.95
759.242	1432.55
759.426	1479.66
759.61	1309.68
759.794	1442.79
759.977	1418.22
760.161	1344.49
760.345	1377.26
760.528	1414.12
760.712	1442.79
760.895	1297.39
761.079	1377.26
761.263	1350.64
761.446	1313.77
761.63	1440.75
761.813	1328.11
761.997	1344.49
762.18	1248.24
762.364	1326.06
762.547	1186.8
762.731	1276.91
762.914	1197.04
763.098	1268.72
763.281	1203.18
763.464	1250.28
763.648	1254.38
763.831	1258.48
764.015	1272.81
764.198	1201.13
764.381	1186.8
764.564	1184.75
764.748	1248.24
764.931	1225.71
765.114	1252.33
765.297	1264.62
765.481	1174.51
765.664	1260.52
765.847	1147.89
766.03	1201.13
766.213	1076.21
766.397	1156.08
766.58	1223.66
766.763	1233.9
766.946	1051.63
767.129	1199.09
767.312	1080.3
767.495	1125.36
767.678	1125.36
767.861	1098.74
768.044	1178.61
768.227	1166.32
768.41	1178.61
768.593	1205.23
768.776	1115.12
768.959	1137.65
769.142	1043.44
769.324	1041.39
769.507	1039.34
769.69	1059.82
769.873	1092.59
770.056	1113.07
770.239	1051.63
770.421	1145.84
770.604	1092.59
770.787	1035.25
770.97	1025.01
771.152	1113.07
771.335	1078.26
771.518	941.04
771.7	941.04
771.883	1098.74
772.066	1053.68
772.248	1039.34
772.431	1002.48
772.613	969.71
772.796	941.04
772.978	1080.3
773.161	1039.34
773.343	965.62
773.526	986.1
773.708	928.75
773.891	945.14
774.073	928.75
774.256	924.66
774.438	943.09
774.621	846.84
774.803	949.23
774.985	967.67
775.168	926.71
775.35	869.36
775.532	969.71
775.715	926.71
775.897	965.62
776.079	885.75
776.261	867.31
776.444	883.7
776.626	834.55
776.808	826.36
776.99	812.02
777.173	812.02
777.355	857.07
777.537	832.5
777.719	818.16
777.901	771.06
778.083	719.86
778.265	769.01
778.447	797.68
778.629	717.81
778.811	916.47
778.993	775.16
779.175	754.68
779.357	746.48
779.539	715.77
779.721	771.06
779.903	789.49
780.085	658.42
780.267	773.11
780.449	678.9
780.631	797.68
780.812	701.43
780.994	629.75
781.176	672.76
781.358	670.71
781.54	660.47
781.721	762.87
781.903	676.85
782.085	646.13
782.267	590.84
782.448	623.61
782.63	599.03
782.812	582.65
782.993	683
783.175	609.27
783.357	609.27
783.538	695.29
783.72	588.79
783.901	623.61
784.083	633.85
784.264	564.22
784.446	539.64
784.627	594.93
784.809	607.22
784.99	590.84
785.172	560.12
785.353	582.65
785.535	541.69
785.716	539.64
785.897	502.78
786.079	553.98
786.26	531.45
786.441	498.68
786.623	480.25
786.804	494.58
786.985	551.93
787.167	529.4
787.348	533.5
787.529	515.06
787.71	537.59
787.891	539.64
788.073	531.45
788.254	472.06
788.435	596.98
788.616	476.15
788.797	441.34
788.978	533.5
789.159	506.87
789.34	451.58
789.522	519.16
789.703	545.78
789.884	467.96
790.065	492.54
790.246	541.69
790.427	459.77
790.607	478.2
790.788	504.82
790.969	467.96
791.15	470.01
791.331	437.24
791.512	400.38
791.693	402.43
791.874	482.3
792.054	506.87
792.235	496.63
792.416	377.85
792.597	373.75
792.778	418.81
792.958	457.72
793.139	424.95
793.32	396.28
793.5	359.42
793.681	482.3
793.862	361.47
794.042	470.01
794.223	373.75
794.404	381.95
794.584	429.05
794.765	408.57
794.945	412.67
795.126	363.51
795.306	363.51
795.487	375.8
795.667	357.37
795.848	326.65
796.028	355.32
796.209	357.37
796.389	404.47
796.57	340.99
796.75	386.04
796.93	363.51
797.111	336.89
797.291	285.69
797.471	355.32
797.652	392.19
797.832	363.51
798.012	304.12
798.192	267.26
798.373	316.41
798.553	336.89
798.733	320.51
798.913	363.51
799.093	293.88
799.274	312.32
799.454	373.75
799.634	357.37
799.814	390.14
799.994	277.5
800.174	271.36
800.354	349.18
800.534	250.88
800.714	340.99
800.894	314.36
801.074	392.19
801.254	330.75
801.434	359.42
801.614	306.17
801.794	293.88
801.974	642.04
802.154	261.12
802.334	291.84
802.514	285.69
802.693	261.12
802.873	254.97
803.053	295.93
803.233	195.58
803.413	306.17
803.592	289.79
803.772	250.88
803.952	289.79
804.131	332.79
804.311	306.17
804.491	343.03
804.67	289.79
804.85	236.54
805.03	306.17
805.209	322.56
805.389	207.87
805.568	273.4
805.748	295.93
805.928	244.73
806.107	291.84
806.287	271.36
806.466	304.12
806.646	199.68
806.825	297.98
807.004	269.31
807.184	261.12
807.363	304.12
807.543	244.73
807.722	261.12
807.901	297.98
808.081	248.83
808.26	205.82
808.439	246.78
808.619	234.49
808.798	224.25
808.977	228.35
809.156	273.4
809.336	173.05
809.515	240.64
809.694	269.31
809.873	197.63
810.052	205.82
810.231	254.97
810.411	259.07
810.59	207.87
810.769	189.44
810.948	117.76
811.127	222.2
811.306	230.4
811.485	146.43
811.664	257.02
811.843	197.63
812.022	199.68
812.201	181.25
812.38	162.81
812.559	218.11
812.737	240.64
812.916	207.87
813.095	60.42
813.274	222.2
813.453	185.34
813.632	216.06
813.811	132.09
813.989	117.76
814.168	222.2
814.347	222.2
814.526	160.77
814.704	228.35
814.883	277.5
815.062	99.33
815.24	244.73
815.419	195.58
815.598	154.62
815.776	232.44
815.955	218.11
816.133	211.96
816.312	205.82
816.49	144.38
816.669	191.49
816.847	156.67
817.026	189.44
817.204	101.37
817.383	168.96
817.561	211.96
817.74	246.78
817.918	226.3
818.097	175.1
818.275	259.07
818.453	177.15
818.632	140.29
818.81	211.96
818.988	162.81
819.167	142.33
819.345	154.62
819.523	166.91
819.701	175.1
819.879	183.29
820.058	226.3
820.236	164.86
820.414	97.28
820.592	99.33
820.77	123.9
820.948	203.77
821.127	152.57
821.305	195.58
821.483	179.2
821.661	259.07
821.839	162.81
822.017	207.87
822.195	128
822.373	195.58
822.551	148.48
822.729	173.05
822.907	93.18
823.085	150.53
823.262	97.28
823.44	187.39
823.618	220.16
823.796	99.33
823.974	48.13
824.152	107.52
824.329	125.95
824.507	78.85
824.685	156.67
824.863	164.86
825.04	152.57
825.218	111.61
825.396	181.25
825.574	117.76
825.751	156.67
825.929	109.57
826.107	125.95
826.284	154.62
826.462	146.43
826.639	121.85
826.817	35.84
826.994	119.81
827.172	134.14
827.349	218.11
827.527	199.68
827.704	138.24
827.882	111.61
828.059	95.23
828.237	128
828.414	191.49
828.591	142.33
828.769	119.81
828.946	74.75
829.124	125.95
829.301	168.96
829.478	109.57
829.655	87.04
829.833	177.15
830.01	44.03
830.187	156.67
830.364	138.24
830.542	125.95
830.719	142.33
830.896	189.44
831.073	144.38
831.25	144.38
831.427	193.53
831.604	162.81
831.782	130.05
831.959	93.18
832.136	97.28
832.313	160.77
832.49	179.2
832.667	146.43
832.844	82.94
833.021	99.33
833.198	150.53
833.374	140.29
833.551	185.34
833.728	72.7
833.905	152.57
834.082	121.85
834.259	138.24
834.436	84.99
834.612	91.13
834.789	162.81
834.966	52.22
835.143	74.75
835.319	152.57
835.496	146.43
835.673	52.22
835.85	93.18
836.026	103.42
836.203	78.85
836.38	31.74
836.556	123.9
836.733	21.5
836.909	72.7
837.086	84.99
837.262	97.28
837.439	37.89
837.616	9.22
837.792	125.95
837.968	64.51
838.145	123.9
838.321	78.85
838.498	66.56
838.674	115.71
838.851	64.51
839.027	95.23
839.203	103.42
839.38	52.22
839.556	35.84
839.732	52.22
839.909	68.61
840.085	115.71
840.261	64.51
840.437	103.42
840.614	113.66
840.79	93.18
840.966	80.89
841.142	136.19
841.318	58.37
841.494	128
841.671	3.07
841.847	58.37
842.023	74.75
842.199	158.72
842.375	58.37
842.551	107.52
842.727	72.7
842.903	150.53
843.079	72.7
843.255	52.22
843.431	44.03
843.607	93.18
843.783	93.18
843.959	72.7
844.134	78.85
844.31	107.52
844.486	101.37
844.662	93.18
844.838	50.18
845.013	44.03
845.189	60.42
845.365	60.42
845.541	82.94
845.716	58.37
845.892	93.18
846.068	91.13
846.244	7.17
846.419	91.13
846.595	146.43
846.77	99.33
846.946	119.81
847.122	19.46
847.297	117.76
847.473	107.52
847.648	-33.79
847.824	29.7
847.999	19.46
848.175	31.74
848.35	50.18
848.526	60.42
848.701	41.98
848.876	132.09
849.052	199.68
849.227	27.65
849.403	64.51
849.578	84.99
849.753	33.79
849.929	60.42
850.104	91.13
850.279	-3.07
850.454	130.05
850.63	89.09
850.805	89.09
850.98	58.37
851.155	125.95
851.33	48.13
851.505	19.46
851.681	64.51
851.856	54.27
852.031	11.26
852.206	41.98
852.381	68.61
852.556	72.7
852.731	72.7
852.906	84.99
853.081	-7.17
853.256	74.75
853.431	82.94
853.606	29.7
853.781	46.08
853.956	33.79
854.131	29.7
854.305	58.37
854.48	60.42
854.655	136.19
854.83	66.56
855.005	68.61
855.18	70.65
855.354	68.61
855.529	27.65
855.704	54.27
855.879	35.84
856.053	56.32
856.228	109.57
856.403	66.56
856.577	29.7
856.752	31.74
856.926	5.12
857.101	52.22
857.276	87.04
857.45	123.9
857.625	39.94
857.799	48.13
857.974	68.61
858.148	-91.13
858.323	89.09
858.497	62.46
858.672	89.09
858.846	17.41
859.02	140.29
859.195	52.22
859.369	68.61
859.543	23.55
859.718	1.02
859.892	123.9
860.066	66.56
860.241	89.09
860.415	97.28
860.589	17.41
860.763	128
860.938	35.84
861.112	44.03
861.286	56.32
861.46	72.7
861.634	97.28
861.808	44.03
861.982	78.85
862.157	41.98
862.331	19.46
862.505	74.75
862.679	-46.08
862.853	72.7
863.027	9.22
863.201	23.55
863.375	37.89
863.549	58.37
863.722	9.22
863.896	97.28
864.07	50.18
864.244	1.02
864.418	11.26
864.592	84.99
864.766	-50.18
864.939	37.89
865.113	72.7
865.287	117.76
865.461	35.84
865.634	29.7
865.808	76.8
865.982	46.08
866.156	25.6
866.329	37.89
866.503	99.33
866.676	68.61
866.85	105.47
867.024	41.98
867.197	27.65
867.371	23.55
867.544	72.7
867.718	-17.41
867.891	56.32
868.065	50.18
868.238	68.61
868.412	78.85
868.585	15.36
868.759	130.05
868.932	66.56
869.105	48.13
869.279	7.17
869.452	-9.22
869.625	31.74
869.799	62.46
869.972	13.31
870.145	11.26
870.319	27.65
870.492	89.09
870.665	41.98
870.838	27.65
871.011	-37.89
871.185	27.65
871.358	-1.02
871.531	46.08
871.704	7.17
871.877	74.75
872.05	7.17
872.223	-7.17
872.396	117.76
872.569	56.32
872.742	-21.5
872.915	35.84
873.088	74.75
873.261	19.46
873.434	25.6
873.607	56.32
873.78	35.84
873.953	15.36
874.126	41.98
874.299	101.37
874.471	39.94
874.644	60.42
874.817	111.61
874.99	97.28
875.163	41.98
875.335	78.85
875.508	97.28
875.681	48.13
875.853	142.33
876.026	58.37
876.199	-7.17
876.371	41.98
876.544	39.94
876.717	33.79
876.889	-15.36
877.062	60.42
877.234	-52.22
877.407	97.28
877.579	50.18
877.752	15.36
877.924	11.26
878.097	52.22
878.269	70.65
878.442	11.26
878.614	19.46
878.786	-48.13
878.959	-37.89
879.131	31.74
879.303	5.12
879.476	5.12
879.648	64.51
879.82	50.18
879.993	-29.7
880.165	39.94
880.337	-3.07
880.509	3.07
880.681	64.51
880.854	39.94
881.026	11.26
881.198	97.28
881.37	11.26
881.542	15.36
881.714	70.65
881.886	7.17
882.058	27.65
882.23	91.13
882.402	54.27
882.574	31.74
882.746	-15.36
882.918	44.03
883.09	39.94
883.262	27.65
883.434	15.36
883.606	66.56
883.778	7.17
883.95	-3.07
884.122	19.46
884.293	76.8
884.465	-21.5
884.637	-9.22
884.809	35.84
884.98	-21.5
885.152	58.37
885.324	93.18
885.496	23.55
885.667	91.13
885.839	44.03
886.011	39.94
886.182	31.74
886.354	-15.36
886.525	11.26
886.697	-31.74
886.869	-60.42
887.04	23.55
887.212	19.46
887.383	35.84
887.555	5.12
887.726	17.41
887.897	-7.17
888.069	9.22
888.24	72.7
888.412	113.66
888.583	-27.65
888.754	-7.17
888.926	-103.42
889.097	109.57
889.268	62.46
889.44	5.12
889.611	-17.41
889.782	-29.7
889.953	56.32
890.125	29.7
890.296	41.98
890.467	25.6
890.638	11.26
890.809	105.47
890.98	52.22
891.151	41.98
891.323	41.98
891.494	35.84
891.665	84.99
891.836	-13.31
892.007	-35.84
892.178	-1.02
892.349	11.26
892.52	-50.18
892.691	82.94
892.862	19.46
893.032	25.6
893.203	25.6
893.374	82.94
893.545	109.57
893.716	1.02
893.887	25.6
894.057	29.7
894.228	74.75
894.399	-52.22
894.57	23.55
894.74	33.79
894.911	9.22
895.082	54.27
895.253	41.98
895.423	-17.41
895.594	78.85
895.764	56.32
895.935	-25.6
896.106	29.7
896.276	-41.98
896.447	-31.74
896.617	23.55
896.788	25.6
896.958	72.7
897.129	-29.7
897.299	9.22
897.47	44.03
897.64	21.5
897.81	-13.31
897.981	-33.79
898.151	56.32
898.322	66.56
898.492	-5.12
898.662	5.12
898.832	-35.84
899.003	19.46
899.173	80.89
899.343	84.99
899.513	44.03
