Data from USB4F104151__122__11-07-30-176.txt Node

Date: Wed Mar 12 11:07:30 EDT 2025
User: louis
Spectrometer: USB4F10415
Trigger mode: 4
Integration Time (sec): 2.000000E-2
Scans to average: 1
Electric dark correction enabled: true
Nonlinearity correction enabled: false
Boxcar width: 0
XAxis mode: Wavelengths
Number of Pixels in Spectrum: 3648
>>>>>Begin Spectral Data<<<<<
178.204	-54.95
178.424	-54.95
178.644	-54.95
178.864	-85.67
179.084	-40.62
179.304	2.39
179.524	12.63
179.744	-44.71
179.964	31.06
180.184	12.63
180.404	12.63
180.624	-34.47
180.844	-24.23
181.064	8.53
181.283	16.73
181.503	-9.9
181.723	16.73
181.943	-28.33
182.163	51.54
182.383	2.39
182.602	31.06
182.822	26.96
183.042	-44.71
183.262	43.35
183.482	26.96
183.701	-36.52
183.921	8.53
184.141	-26.28
184.361	49.49
184.58	49.49
184.8	35.16
185.02	33.11
185.239	-7.85
185.459	-38.57
185.679	37.2
185.898	22.87
186.118	49.49
186.338	41.3
186.557	35.16
186.777	10.58
186.997	29.01
187.216	24.92
187.436	35.16
187.655	12.63
187.875	61.78
188.095	-20.14
188.314	63.83
188.534	-3.75
188.753	112.98
188.973	53.59
189.192	14.68
189.412	24.92
189.631	2.39
189.851	24.92
190.07	14.68
190.29	-32.43
190.509	20.82
190.729	72.02
190.948	14.68
191.168	65.88
191.387	-11.95
191.607	39.25
191.826	53.59
192.045	8.53
192.265	-16.04
192.484	29.01
192.704	47.44
192.923	6.49
193.142	37.2
193.362	29.01
193.581	49.49
193.8	33.11
194.02	-32.43
194.239	96.6
194.458	-20.14
194.678	12.63
194.897	69.97
195.116	8.53
195.335	24.92
195.555	-30.38
195.774	65.88
195.993	90.45
196.212	43.35
196.432	14.68
196.651	-34.47
196.87	2.39
197.089	18.77
197.308	43.35
197.528	112.98
197.747	-30.38
197.966	22.87
198.185	65.88
198.404	-11.95
198.623	24.92
198.842	45.4
199.062	-28.33
199.281	61.78
199.5	-26.28
199.719	-1.71
199.938	88.4
200.157	2.39
200.376	12.63
200.595	4.44
200.814	-28.33
201.033	-18.09
201.252	53.59
201.471	6.49
201.69	-30.38
201.909	51.54
202.128	14.68
202.347	33.11
202.566	8.53
202.785	49.49
203.004	-81.58
203.223	82.26
203.442	-44.71
203.661	2.39
203.879	0.34
204.098	43.35
204.317	63.83
204.536	55.64
204.755	39.25
204.974	-24.23
205.193	39.25
205.411	29.01
205.63	-59.05
205.849	-63.15
206.068	2.39
206.287	18.77
206.505	55.64
206.724	18.77
206.943	14.68
207.162	-18.09
207.381	26.96
207.599	18.77
207.818	-9.9
208.037	16.73
208.255	-3.75
208.474	65.88
208.693	47.44
208.911	2.39
209.13	-13.99
209.349	18.77
209.567	24.92
209.786	35.16
210.005	16.73
210.223	0.34
210.442	26.96
210.661	-50.86
210.879	-26.28
211.098	35.16
211.316	49.49
211.535	12.63
211.753	22.87
211.972	57.68
212.191	14.68
212.409	98.64
212.628	37.2
212.846	-40.62
213.065	86.36
213.283	80.21
213.502	49.49
213.72	-59.05
213.938	106.84
214.157	8.53
214.375	24.92
214.594	33.11
214.812	76.12
215.031	82.26
215.249	-22.19
215.467	16.73
215.686	6.49
215.904	65.88
216.122	6.49
216.341	67.92
216.559	-50.86
216.778	4.44
216.996	69.97
217.214	26.96
217.432	61.78
217.651	59.73
217.869	41.3
218.087	35.16
218.306	86.36
218.524	53.59
218.742	24.92
218.96	43.35
219.179	0.34
219.397	41.3
219.615	59.73
219.833	33.11
220.051	90.45
220.27	69.97
220.488	29.01
220.706	22.87
220.924	-38.57
221.142	-11.95
221.36	29.01
221.578	51.54
221.796	-54.95
222.015	18.77
222.233	0.34
222.451	106.84
222.669	26.96
222.887	-18.09
223.105	-1.71
223.323	14.68
223.541	47.44
223.759	33.11
223.977	69.97
224.195	2.39
224.413	53.59
224.631	84.31
224.849	-7.85
225.067	-61.1
225.285	12.63
225.503	35.16
225.721	-1.71
225.939	61.78
226.157	29.01
226.375	55.64
226.592	0.34
226.81	-18.09
227.028	4.44
227.246	2.39
227.464	72.02
227.682	37.2
227.9	98.64
228.117	33.11
228.335	31.06
228.553	2.39
228.771	-34.47
228.989	-13.99
229.206	4.44
229.424	86.36
229.642	2.39
229.86	-9.9
230.077	-20.14
230.295	14.68
230.513	94.55
230.731	45.4
230.948	43.35
231.166	20.82
231.384	2.39
231.601	-59.05
231.819	0.34
232.037	-24.23
232.254	84.31
232.472	26.96
232.689	-20.14
232.907	8.53
233.125	53.59
233.342	-30.38
233.56	57.68
233.777	37.2
233.995	18.77
234.213	82.26
234.43	104.79
234.648	4.44
234.865	49.49
235.083	35.16
235.3	29.01
235.518	84.31
235.735	24.92
235.953	-22.19
236.17	16.73
236.388	14.68
236.605	31.06
236.822	24.92
237.04	49.49
237.257	35.16
237.475	-11.95
237.692	100.69
237.909	2.39
238.127	59.73
238.344	2.39
238.562	57.68
238.779	-7.85
238.996	-16.04
239.214	16.73
239.431	18.77
239.648	-1.71
239.865	31.06
240.083	8.53
240.3	-24.23
240.517	-32.43
240.735	-40.62
240.952	65.88
241.169	47.44
241.386	-63.15
241.603	61.78
241.821	-7.85
242.038	37.2
242.255	29.01
242.472	-24.23
242.689	94.55
242.907	43.35
243.124	-13.99
243.341	33.11
243.558	-9.9
243.775	-32.43
243.992	39.25
244.209	-5.8
244.426	20.82
244.643	53.59
244.86	47.44
245.078	33.11
245.295	10.58
245.512	-1.71
245.729	76.12
245.946	20.82
246.163	-30.38
246.38	43.35
246.597	26.96
246.814	-7.85
247.031	24.92
247.248	51.54
247.464	117.08
247.681	26.96
247.898	59.73
248.115	-46.76
248.332	45.4
248.549	72.02
248.766	-54.95
248.983	33.11
249.2	37.2
249.417	12.63
249.633	37.2
249.85	63.83
250.067	24.92
250.284	-1.71
250.501	35.16
250.717	74.07
250.934	29.01
251.151	-30.38
251.368	14.68
251.585	53.59
251.801	8.53
252.018	-28.33
252.235	63.83
252.451	-32.43
252.668	-1.71
252.885	35.16
253.102	65.88
253.318	29.01
253.535	-9.9
253.752	-1.71
253.968	-20.14
254.185	26.96
254.401	57.68
254.618	67.92
254.835	49.49
255.051	69.97
255.268	2.39
255.484	-16.04
255.701	49.49
255.917	59.73
256.134	2.39
256.351	84.31
256.567	-7.85
256.784	-3.75
257	14.68
257.217	45.4
257.433	-5.8
257.65	102.74
257.866	24.92
258.082	37.2
258.299	-54.95
258.515	26.96
258.732	-5.8
258.948	26.96
259.165	-13.99
259.381	-75.43
259.597	65.88
259.814	-11.95
260.03	106.84
260.246	47.44
260.463	35.16
260.679	31.06
260.895	49.49
261.112	31.06
261.328	2.39
261.544	10.58
261.761	-1.71
261.977	6.49
262.193	-16.04
262.409	61.78
262.626	51.54
262.842	53.59
263.058	-18.09
263.274	33.11
263.49	57.68
263.707	-7.85
263.923	-63.15
264.139	65.88
264.355	41.3
264.571	8.53
264.787	24.92
265.004	53.59
265.22	96.6
265.436	-20.14
265.652	61.78
265.868	53.59
266.084	2.39
266.3	63.83
266.516	-34.47
266.732	14.68
266.948	51.54
267.164	31.06
267.38	82.26
267.596	127.32
267.812	33.11
268.028	43.35
268.244	24.92
268.46	22.87
268.676	0.34
268.892	10.58
269.108	-24.23
269.324	-44.71
269.54	4.44
269.756	8.53
269.972	-7.85
270.188	37.2
270.403	-26.28
270.619	-7.85
270.835	-18.09
271.051	47.44
271.267	-46.76
271.483	-1.71
271.698	65.88
271.914	0.34
272.13	47.44
272.346	100.69
272.562	41.3
272.777	35.16
272.993	69.97
273.209	74.07
273.425	49.49
273.64	-18.09
273.856	-3.75
274.072	20.82
274.287	26.96
274.503	-26.28
274.719	-3.75
274.934	-7.85
275.15	-44.71
275.366	37.2
275.581	-5.8
275.797	65.88
276.012	2.39
276.228	8.53
276.444	63.83
276.659	-9.9
276.875	86.36
277.09	-13.99
277.306	18.77
277.521	61.78
277.737	92.5
277.952	63.83
278.168	43.35
278.383	35.16
278.599	-28.33
278.814	18.77
279.03	-9.9
279.245	24.92
279.461	-67.24
279.676	82.26
279.892	-5.8
280.107	33.11
280.322	10.58
280.538	-7.85
280.753	24.92
280.969	29.01
281.184	-38.57
281.399	84.31
281.615	47.44
281.83	6.49
282.045	-3.75
282.26	37.2
282.476	0.34
282.691	-1.71
282.906	-20.14
283.122	-9.9
283.337	6.49
283.552	31.06
283.767	41.3
283.983	6.49
284.198	0.34
284.413	41.3
284.628	-81.58
284.843	65.88
285.058	0.34
285.274	8.53
285.489	8.53
285.704	4.44
285.919	10.58
286.134	143.7
286.349	0.34
286.564	-34.47
286.779	29.01
286.995	20.82
287.21	12.63
287.425	55.64
287.64	-7.85
287.855	65.88
288.07	6.49
288.285	-36.52
288.5	24.92
288.715	26.96
288.93	-3.75
289.145	16.73
289.36	94.55
289.575	31.06
289.79	14.68
290.004	4.44
290.219	82.26
290.434	-40.62
290.649	0.34
290.864	-1.71
291.079	49.49
291.294	37.2
291.509	76.12
291.724	4.44
291.938	22.87
292.153	59.73
292.368	-20.14
292.583	31.06
292.798	47.44
293.012	65.88
293.227	-11.95
293.442	33.11
293.657	63.83
293.871	45.4
294.086	-3.75
294.301	94.55
294.516	26.96
294.73	53.59
294.945	55.64
295.16	100.69
295.374	-46.76
295.589	47.44
295.804	-28.33
296.018	69.97
296.233	59.73
296.447	39.25
296.662	16.73
296.877	78.16
297.091	69.97
297.306	-34.47
297.52	16.73
297.735	-5.8
297.949	-18.09
298.164	43.35
298.378	45.4
298.593	86.36
298.807	45.4
299.022	24.92
299.236	88.4
299.451	86.36
299.665	88.4
299.88	33.11
300.094	-9.9
300.309	0.34
300.523	-73.39
300.737	4.44
300.952	33.11
301.166	-7.85
301.381	-16.04
301.595	-34.47
301.809	57.68
302.024	4.44
302.238	-7.85
302.452	26.96
302.667	-34.47
302.881	14.68
303.095	-22.19
303.309	53.59
303.524	51.54
303.738	61.78
303.952	59.73
304.166	29.01
304.381	24.92
304.595	53.59
304.809	20.82
305.023	-22.19
305.237	-57
305.452	33.11
305.666	112.98
305.88	45.4
306.094	55.64
306.308	127.32
306.522	61.78
306.736	102.74
306.95	24.92
307.164	82.26
307.379	31.06
307.593	39.25
307.807	69.97
308.021	57.68
308.235	8.53
308.449	14.68
308.663	84.31
308.877	24.92
309.091	84.31
309.305	63.83
309.519	-20.14
309.733	51.54
309.947	-20.14
310.161	65.88
310.374	-13.99
310.588	-13.99
310.802	55.64
311.016	-9.9
311.23	69.97
311.444	47.44
311.658	-18.09
311.872	-30.38
312.085	80.21
312.299	135.51
312.513	45.4
312.727	76.12
312.941	33.11
313.154	26.96
313.368	57.68
313.582	90.45
313.796	-3.75
314.009	41.3
314.223	72.02
314.437	45.4
314.651	82.26
314.864	12.63
315.078	35.16
315.292	82.26
315.505	-5.8
315.719	-36.52
315.933	61.78
316.146	16.73
316.36	-36.52
316.573	-1.71
316.787	0.34
317.001	55.64
317.214	-5.8
317.428	-7.85
317.641	-11.95
317.855	26.96
318.068	14.68
318.282	-38.57
318.495	108.88
318.709	41.3
318.922	10.58
319.136	76.12
319.349	104.79
319.563	-42.67
319.776	69.97
319.99	74.07
320.203	45.4
320.417	16.73
320.63	47.44
320.843	16.73
321.057	92.5
321.27	-38.57
321.483	18.77
321.697	22.87
321.91	63.83
322.124	14.68
322.337	67.92
322.55	100.69
322.763	65.88
322.977	72.02
323.19	24.92
323.403	0.34
323.617	-22.19
323.83	72.02
324.043	45.4
324.256	51.54
324.469	-13.99
324.683	16.73
324.896	59.73
325.109	47.44
325.322	-34.47
325.535	69.97
325.748	51.54
325.962	90.45
326.175	-28.33
326.388	37.2
326.601	41.3
326.814	69.97
327.027	-26.28
327.24	33.11
327.453	16.73
327.666	41.3
327.879	170.32
328.092	20.82
328.305	47.44
328.518	26.96
328.731	67.92
328.944	37.2
329.157	90.45
329.37	-48.81
329.583	98.64
329.796	104.79
330.009	69.97
330.222	39.25
330.435	20.82
330.648	49.49
330.861	65.88
331.073	45.4
331.286	72.02
331.499	-9.9
331.712	35.16
331.925	53.59
332.138	92.5
332.35	74.07
332.563	-22.19
332.776	96.6
332.989	8.53
333.202	55.64
333.414	47.44
333.627	2.39
333.84	102.74
334.053	-11.95
334.265	26.96
334.478	39.25
334.691	33.11
334.903	53.59
335.116	-44.71
335.329	20.82
335.541	-9.9
335.754	41.3
335.966	59.73
336.179	35.16
336.392	18.77
336.604	-3.75
336.817	63.83
337.029	63.83
337.242	47.44
337.454	20.82
337.667	37.2
337.88	82.26
338.092	98.64
338.305	-16.04
338.517	61.78
338.729	-28.33
338.942	76.12
339.154	33.11
339.367	67.92
339.579	39.25
339.792	82.26
340.004	63.83
340.217	55.64
340.429	20.82
340.641	51.54
340.854	45.4
341.066	-34.47
341.278	65.88
341.491	57.68
341.703	61.78
341.915	6.49
342.128	69.97
342.34	47.44
342.552	-38.57
342.764	-24.23
342.977	29.01
343.189	53.59
343.401	45.4
343.613	65.88
343.826	6.49
344.038	26.96
344.25	26.96
344.462	61.78
344.674	53.59
344.886	26.96
345.099	76.12
345.311	82.26
345.523	121.17
345.735	8.53
345.947	84.31
346.159	-40.62
346.371	53.59
346.583	-3.75
346.795	55.64
347.007	26.96
347.219	151.89
347.431	76.12
347.643	55.64
347.855	69.97
348.067	37.2
348.279	45.4
348.491	84.31
348.703	59.73
348.915	43.35
349.127	65.88
349.339	59.73
349.551	139.6
349.763	37.2
349.975	55.64
350.187	-9.9
350.399	110.93
350.61	45.4
350.822	51.54
351.034	57.68
351.246	51.54
351.458	-24.23
351.669	-20.14
351.881	76.12
352.093	49.49
352.305	69.97
352.517	18.77
352.728	47.44
352.94	96.6
353.152	61.78
353.363	24.92
353.575	78.16
353.787	0.34
353.999	53.59
354.21	74.07
354.422	20.82
354.633	24.92
354.845	18.77
355.057	12.63
355.268	-1.71
355.48	82.26
355.692	80.21
355.903	14.68
356.115	39.25
356.326	-1.71
356.538	45.4
356.749	112.98
356.961	24.92
357.172	-5.8
357.384	86.36
357.595	92.5
357.807	26.96
358.018	8.53
358.23	53.59
358.441	67.92
358.653	-32.43
358.864	37.2
359.075	6.49
359.287	43.35
359.498	57.68
359.709	43.35
359.921	26.96
360.132	67.92
360.344	65.88
360.555	49.49
360.766	74.07
360.977	53.59
361.189	41.3
361.4	39.25
361.611	24.92
361.823	53.59
362.034	53.59
362.245	4.44
362.456	-13.99
362.667	35.16
362.879	59.73
363.09	72.02
363.301	63.83
363.512	86.36
363.723	-11.95
363.935	-30.38
364.146	69.97
364.357	45.4
364.568	90.45
364.779	41.3
364.99	57.68
365.201	16.73
365.412	94.55
365.623	-1.71
365.834	55.64
366.045	63.83
366.256	49.49
366.467	82.26
366.678	69.97
366.889	129.36
367.1	92.5
367.311	14.68
367.522	69.97
367.733	2.39
367.944	10.58
368.155	10.58
368.366	26.96
368.577	131.41
368.788	90.45
368.999	117.08
369.209	-9.9
369.42	84.31
369.631	67.92
369.842	106.84
370.053	74.07
370.264	110.93
370.474	24.92
370.685	69.97
370.896	108.88
371.107	106.84
371.317	24.92
371.528	63.83
371.739	26.96
371.95	-38.57
372.16	31.06
372.371	31.06
372.582	14.68
372.792	22.87
373.003	76.12
373.214	65.88
373.424	98.64
373.635	90.45
373.846	110.93
374.056	65.88
374.267	22.87
374.477	26.96
374.688	49.49
374.898	-40.62
375.109	45.4
375.319	22.87
375.53	53.59
375.74	131.41
375.951	43.35
376.161	53.59
376.372	22.87
376.582	-1.71
376.793	98.64
377.003	53.59
377.214	24.92
377.424	65.88
377.635	102.74
377.845	76.12
378.055	117.08
378.266	-7.85
378.476	86.36
378.686	41.3
378.897	112.98
379.107	92.5
379.317	61.78
379.528	51.54
379.738	94.55
379.948	43.35
380.158	67.92
380.369	53.59
380.579	12.63
380.789	92.5
380.999	84.31
381.21	-13.99
381.42	104.79
381.63	49.49
381.84	8.53
382.05	67.92
382.261	65.88
382.471	90.45
382.681	35.16
382.891	33.11
383.101	57.68
383.311	67.92
383.521	106.84
383.731	106.84
383.941	92.5
384.151	47.44
384.361	12.63
384.571	76.12
384.781	8.53
384.991	41.3
385.201	123.22
385.411	57.68
385.621	94.55
385.831	22.87
386.041	10.58
386.251	65.88
386.461	74.07
386.671	78.16
386.881	78.16
387.091	53.59
387.301	22.87
387.511	110.93
387.72	41.3
387.93	72.02
388.14	59.73
388.35	98.64
388.56	141.65
388.769	65.88
388.979	-7.85
389.189	4.44
389.399	39.25
389.609	129.36
389.818	84.31
390.028	-1.71
390.238	137.56
390.447	0.34
390.657	47.44
390.867	94.55
391.076	69.97
391.286	65.88
391.496	-16.04
391.705	153.94
391.915	63.83
392.125	139.6
392.334	69.97
392.544	102.74
392.753	59.73
392.963	53.59
393.172	76.12
393.382	39.25
393.591	149.84
393.801	74.07
394.01	180.56
394.22	129.36
394.429	63.83
394.639	51.54
394.848	123.22
395.058	106.84
395.267	121.17
395.477	90.45
395.686	90.45
395.895	123.22
396.105	155.99
396.314	100.69
396.524	53.59
396.733	78.16
396.942	49.49
397.152	131.41
397.361	158.03
397.57	117.08
397.78	160.08
397.989	69.97
398.198	160.08
398.407	143.7
398.617	127.32
398.826	151.89
399.035	53.59
399.244	104.79
399.453	166.23
399.663	104.79
399.872	102.74
400.081	129.36
400.29	119.12
400.499	133.46
400.708	194.9
400.917	135.51
401.127	110.93
401.336	119.12
401.545	174.42
401.754	231.76
401.963	160.08
402.172	155.99
402.381	143.7
402.59	170.32
402.799	231.76
403.008	168.27
403.217	104.79
403.426	221.52
403.635	106.84
403.844	137.56
404.053	174.42
404.262	190.8
404.471	180.56
404.68	186.71
404.888	231.76
405.097	160.08
405.306	201.04
405.515	227.67
405.724	201.04
405.933	158.03
406.142	219.47
406.35	239.95
406.559	209.23
406.768	201.04
406.977	262.48
407.185	299.34
407.394	266.58
407.603	295.25
407.812	282.96
408.02	328.02
408.229	276.82
408.438	276.82
408.646	242
408.855	323.92
409.064	350.54
409.272	371.02
409.481	338.26
409.69	379.22
409.898	321.87
410.107	377.17
410.315	516.43
410.524	379.22
410.733	452.94
410.941	448.85
411.15	450.89
411.358	426.32
411.567	526.67
411.775	516.43
411.984	500.05
412.192	608.59
412.401	575.82
412.609	659.79
412.818	614.73
413.026	710.99
413.234	678.22
413.443	715.08
413.651	727.37
413.86	733.51
414.068	823.62
414.276	846.15
414.485	753.99
414.693	848.2
414.901	928.07
415.11	807.24
415.318	917.83
415.526	987.46
415.734	1038.66
415.943	1130.82
416.151	1110.34
416.359	1091.91
416.567	1157.44
416.776	1184.07
416.984	1192.26
417.192	1302.85
417.4	1249.6
417.608	1421.63
417.817	1372.48
418.025	1442.11
418.233	1605.95
418.441	1573.18
418.649	1562.94
418.857	1706.3
419.065	1724.73
419.273	1820.99
419.481	1823.03
419.689	1827.13
419.897	2060.6
420.105	2132.28
420.313	2160.95
420.521	2296.11
420.729	2228.53
420.937	2296.11
421.145	2398.51
421.353	2505.01
421.561	2539.82
421.769	2492.72
421.977	2777.39
422.185	2691.37
422.393	2941.22
422.601	3088.68
422.809	3057.96
423.017	3191.08
423.224	3244.32
423.432	3326.24
423.64	3412.26
423.848	3694.88
424.056	3459.36
424.263	3981.59
424.471	3965.21
424.679	3944.73
424.887	4301.08
425.094	4227.35
425.302	4196.63
425.51	4458.77
425.718	4544.78
425.925	4600.08
426.133	4894.99
426.341	5013.77
426.548	5187.85
426.756	5353.73
426.964	5390.6
427.171	5929.21
427.379	5873.92
427.586	5765.37
427.794	6113.53
428.001	6480.11
428.209	6856.94
428.417	6684.91
428.624	7096.55
428.832	7043.31
429.039	7080.17
429.247	7076.07
429.454	7753.95
429.662	8104.15
429.869	7776.48
430.076	8263.9
430.284	8138.97
430.491	8374.49
430.699	8997.07
430.906	8835.28
431.114	9140.43
431.321	9298.12
431.528	9570.5
431.736	10205.37
431.943	10541.24
432.15	10057.92
432.358	10363.06
432.565	10993.84
432.772	10815.66
432.979	11612.32
433.187	11845.79
433.394	11722.91
433.601	12585.11
433.808	12621.97
434.016	12368.02
434.223	12931.22
434.43	13654.15
434.637	13609.09
434.844	14395.51
435.052	14669.94
435.259	14415.99
435.466	14811.25
435.673	14628.98
435.88	15310.96
436.087	16128.1
436.294	16384.09
436.501	15771.75
436.708	16306.27
436.915	16969.81
437.122	17700.94
437.329	17442.89
437.537	18237.5
437.743	18290.75
437.95	18389.05
438.157	19138.61
438.364	19662.89
438.571	19765.29
438.778	19978.28
438.985	21841.93
439.192	21071.89
439.399	21790.73
439.606	21102.61
439.813	22243.33
440.02	23535.6
440.227	23308.27
440.433	22994.93
440.64	23691.24
440.847	23427.06
441.054	24133.61
441.261	25548.75
441.467	25454.54
441.674	25948.11
441.881	26924.99
442.088	26881.98
442.294	26818.49
442.501	27273.14
442.708	27695.02
442.914	29114.27
443.121	30070.67
443.328	29374.36
443.534	31498.1
443.741	30582.66
443.948	30285.7
444.154	32442.21
444.361	32098.16
444.568	32307.05
444.774	32474.98
444.981	32407.4
445.187	33513.3
445.394	35247.93
445.6	34375.5
445.807	37762.84
446.013	36091.69
446.22	36751.14
446.426	38397.71
446.633	38424.33
446.839	39522.04
447.046	37961.49
447.252	40386.29
447.459	40503.02
447.665	40023.79
447.871	41952.98
448.078	43386.56
448.284	41625.31
448.491	42368.72
448.697	44125.88
448.903	45123.24
449.11	44314.29
449.316	44220.08
449.522	44922.54
449.728	46069.4
449.935	46532.24
450.141	46384.79
450.347	47326.85
450.553	46190.23
450.76	46472.85
450.966	48111.22
451.172	47634.05
451.378	48285.3
451.584	47486.59
451.791	48387.7
451.997	48187
452.203	49200.74
452.409	49245.8
452.615	48772.72
452.821	47298.18
453.027	46780.04
453.233	48735.85
453.44	47148.68
453.646	47410.82
453.852	47711.87
454.058	48221.81
454.264	46515.86
454.47	47718.01
454.676	46747.28
454.882	48064.12
455.088	44158.64
455.294	44474.03
455.5	45565.6
455.705	45694.62
455.911	44009.14
456.117	42843.85
456.323	42331.86
456.529	40431.34
456.735	41862.87
456.941	41158.37
457.147	40320.75
457.352	39044.87
457.558	38416.14
457.764	38870.79
457.97	37701.4
458.176	37377.82
458.381	37211.93
458.587	35163.96
458.793	35383.1
458.999	33333.08
459.204	36079.41
459.41	34895.68
459.616	32427.88
459.821	32614.24
460.027	32505.7
460.233	31823.73
460.438	30443.4
460.644	30789.5
460.85	29265.81
461.055	28698.53
461.261	28792.73
461.466	26505.15
461.672	25731.02
461.878	27363.25
462.083	25733.07
462.289	25462.74
462.494	25216.98
462.7	23924.71
462.905	23453.68
463.111	24367.07
463.316	24455.14
463.522	23754.73
463.727	23816.17
463.932	23746.54
464.138	23459.82
464.343	23566.32
464.549	22941.69
464.754	23863.27
464.959	23459.82
465.165	23617.52
465.37	22282.24
465.575	21663.75
465.781	22505.47
465.986	22910.97
466.191	21960.71
466.397	21561.36
466.602	20680.73
466.807	21426.19
467.012	21483.53
467.218	21409.81
467.423	20885.53
467.628	21172.24
467.833	21911.56
468.038	20994.07
468.244	20592.67
468.449	21299.22
468.654	20703.26
468.859	20492.32
469.064	19982.37
469.269	19431.47
469.474	19562.54
469.679	20064.29
469.885	19390.51
470.09	19941.41
470.295	19621.93
470.5	18937.91
470.705	19277.87
470.91	18585.66
471.115	18446.4
471.32	18696.25
471.525	18704.44
471.73	18081.86
471.935	18257.98
472.139	17696.84
472.344	17745.99
472.549	17471.56
472.754	17383.5
472.959	17432.65
473.164	16986.19
473.369	16627.8
473.574	17174.61
473.778	17043.54
473.983	16742.49
474.188	16527.45
474.393	16076.9
474.598	16275.55
474.802	15857.76
475.007	15984.74
475.212	15732.84
475.417	15530.09
475.621	15220.85
475.826	15528.04
476.031	15011.95
476.235	14735.48
476.44	15095.92
476.645	14848.11
476.849	14397.56
477.054	14479.48
477.259	14415.99
477.463	14223.48
477.668	14203
477.872	14123.13
478.077	13662.34
478.282	13303.95
478.486	13326.47
478.691	13498.5
478.895	13336.71
479.1	13316.23
479.304	13344.91
479.509	12923.02
479.713	13015.18
479.918	12656.79
480.122	12675.22
480.326	12677.27
480.531	12869.78
480.735	12515.48
480.94	12654.74
481.144	13011.09
481.348	12413.08
481.553	12656.79
481.757	12155.04
481.961	12462.23
482.166	12710.04
482.37	12343.45
482.574	12253.34
482.778	12337.31
482.983	12497.05
483.187	12351.64
483.391	12286.11
483.595	12361.88
483.8	12071.07
484.004	12327.07
484.208	12380.31
484.412	12308.63
484.616	12347.54
484.821	12279.96
485.025	11995.29
485.229	12519.57
485.433	12347.54
485.637	12226.71
485.841	12046.49
486.045	11968.67
486.249	12320.92
486.453	12169.37
486.657	12173.47
486.861	12447.9
487.065	11942.05
487.269	12091.55
487.473	12210.33
487.677	12337.31
487.881	12499.09
488.085	12271.77
488.289	12257.43
488.493	12286.11
488.697	12316.83
488.901	12441.75
489.105	12355.74
489.309	12316.83
489.512	12370.07
489.716	12394.65
489.92	12296.35
490.124	12247.19
490.328	12523.67
490.531	12615.83
490.735	12458.14
490.939	12632.21
491.143	12331.16
491.346	12599.45
491.55	12742.8
491.754	12607.64
491.958	12914.83
492.161	12761.23
492.365	12880.02
492.569	12814.48
492.772	13017.23
492.976	12970.13
493.18	13093.01
493.383	13504.65
493.587	13404.3
493.79	13373.58
493.994	13222.03
494.197	13371.53
494.401	13699.2
494.605	13627.53
494.808	13836.42
495.012	13705.35
495.215	13817.99
495.419	13932.67
495.622	13969.54
495.825	14190.72
496.029	14415.99
496.232	14532.73
496.436	14495.86
496.639	14712.95
496.843	14862.45
497.046	15241.32
497.249	15005.81
497.453	15288.43
497.656	15298.67
497.859	15478.89
498.063	15603.82
498.266	16025.7
498.469	15710.31
498.673	16310.36
498.876	16197.73
499.079	16523.35
499.282	16509.02
499.485	16734.29
499.689	16814.16
499.892	17121.36
500.095	17156.18
500.298	17776.71
500.501	17573.96
500.705	17891.4
500.908	18317.37
501.111	18374.72
501.314	18282.56
501.517	18780.21
501.72	18950.2
501.923	18737.21
502.126	19177.52
502.329	19738.66
502.532	19644.46
502.735	19787.82
502.938	20056.1
503.141	20088.87
503.344	20408.35
503.547	20633.63
503.75	20906.01
503.953	21315.6
504.156	21383.18
504.359	21520.4
504.562	21831.69
504.765	22050.82
504.968	22233.09
505.17	22548.48
505.373	22685.69
505.576	22951.93
505.779	23066.61
505.982	23169.01
506.185	23676.91
506.387	23904.23
506.59	24258.53
506.793	24573.92
506.996	24246.24
507.198	25083.86
507.401	24868.83
507.604	25180.12
507.807	25909.19
508.009	26148.81
508.212	25905.1
508.415	26294.21
508.617	26703.81
508.82	26976.19
509.022	26912.7
509.225	27264.95
509.428	27647.92
509.63	28286.89
509.833	27750.32
510.035	28649.38
510.238	28540.83
510.44	28776.35
510.643	29581.2
510.845	29575.06
511.048	29374.36
511.25	30017.42
511.453	30396.29
511.655	31053.69
511.858	30803.84
512.06	31258.49
512.262	31393.65
512.465	31590.26
512.667	32143.21
512.87	32376.68
513.072	32483.17
513.274	33249.11
513.477	33392.47
513.679	33443.67
513.881	33720.15
514.084	33943.38
514.286	34017.1
514.488	34461.51
514.69	35428.15
514.893	35501.88
515.095	35567.41
515.297	36058.93
515.499	36063.02
515.701	36529.96
515.904	37119.77
516.106	37195.55
516.308	37422.87
516.51	37895.96
516.712	37717.78
516.914	37867.28
517.116	38948.61
517.318	39079.68
517.52	39184.13
517.722	39659.26
517.925	40195.82
518.127	40822.5
518.329	40687.34
518.531	40412.91
518.733	41281.25
518.935	41739.99
519.136	41600.73
519.338	42219.22
519.54	42333.9
519.742	43075.27
519.944	42952.39
520.146	43452.09
520.348	43675.32
520.55	44160.69
520.752	44422.83
520.954	44963.5
521.155	44258.99
521.357	45403.81
521.559	45651.61
521.761	46163.6
521.963	45893.27
522.164	46818.95
522.366	46274.2
522.568	47089.29
522.77	47216.26
522.971	47851.13
523.173	47394.43
523.375	47873.66
523.576	47953.53
523.778	48154.23
523.98	48719.47
524.181	48854.64
524.383	48860.78
524.584	49516.13
524.786	49129.06
524.988	49727.07
525.189	49970.78
525.391	50212.44
525.592	50247.25
525.794	50370.13
525.995	51029.58
526.197	50918.99
526.398	51162.7
526.6	51504.71
526.801	51969.6
527.003	52057.66
527.204	51906.11
527.406	52463.16
527.607	52545.08
527.808	52436.53
528.01	51947.07
528.211	52571.7
528.412	53659.17
528.614	53349.93
528.815	53274.15
529.016	53702.18
529.218	53118.51
529.419	53268.01
529.62	52930.09
529.822	53478.95
530.023	53331.5
530.224	53929.5
530.425	53655.07
530.626	53569.06
530.828	53587.49
531.029	54562.32
531.23	53986.85
531.431	54375.96
531.632	54253.08
531.833	54183.45
532.035	54019.61
532.236	54232.6
532.437	54806.03
532.638	54093.34
532.839	54765.07
533.04	55031.31
533.241	53812.77
533.442	55168.52
533.643	54959.63
533.844	54646.29
534.045	54930.96
534.246	54187.55
534.447	54887.95
534.648	54459.93
534.849	54935.06
535.05	54232.6
535.251	54941.2
535.451	54593.04
535.652	54740.5
535.853	54744.59
536.054	55051.79
536.255	55068.17
536.456	54699.54
536.657	55453.19
536.857	54650.39
537.058	54421.01
537.259	55211.53
537.46	54783.51
537.66	54480.41
537.861	54754.83
538.062	54781.46
538.263	55176.72
538.463	54765.07
538.664	54707.73
538.865	54992.4
539.065	55465.48
539.266	54646.29
539.466	54928.91
539.667	54470.17
539.868	54965.77
540.068	54654.48
540.269	54631.96
540.469	54959.63
540.67	54523.41
540.87	54894.1
541.071	54691.35
541.271	54969.87
541.472	54871.57
541.672	54572.56
541.873	54627.86
542.073	53753.38
542.274	54912.53
542.474	54791.7
542.675	54212.12
542.875	55031.31
543.075	54513.17
543.276	53724.71
543.476	54615.57
543.676	54437.4
543.877	54394.39
544.077	54203.93
544.277	54640.15
544.478	54052.38
544.678	54863.38
544.878	54595.09
545.078	54486.55
545.279	54212.12
545.479	54175.26
545.679	54285.85
545.879	53970.46
546.079	54560.28
546.28	54253.08
546.48	53552.68
546.68	54040.09
546.88	54677.01
547.08	54056.48
547.28	54007.33
547.48	53714.47
547.68	53915.17
547.88	53990.94
548.081	54267.42
548.281	54400.54
548.481	53597.73
548.681	54246.94
548.881	53564.96
549.081	54187.55
549.28	53794.34
549.48	54326.81
549.68	53816.86
549.88	54638.1
550.08	53710.37
550.28	54547.99
550.48	54017.57
550.68	54328.86
550.88	53642.79
551.08	53618.21
551.279	53898.78
551.479	53616.16
551.679	54050.33
551.879	53880.35
552.079	53976.61
552.278	53435.94
552.478	53448.23
552.678	53777.95
552.878	53929.5
553.077	53519.91
553.277	53079.6
553.477	54081.05
553.676	53462.57
553.876	53534.24
554.076	53270.06
554.275	53098.03
554.475	52547.12
554.674	53241.38
554.874	53167.66
555.074	52891.18
555.273	52985.39
555.473	53442.09
555.672	53265.96
555.872	52997.68
556.071	53057.07
556.271	53347.88
556.47	52446.77
556.67	52659.76
556.869	52565.56
557.068	53265.96
557.268	52577.84
557.467	52520.5
557.667	52723.25
557.866	52862.51
558.065	52414.01
558.265	52258.36
558.464	52237.88
558.663	52966.96
558.863	51471.94
559.062	52778.54
559.261	51537.47
559.461	52266.55
559.66	51451.46
559.859	52080.19
560.058	51621.44
560.258	51703.36
560.457	51338.82
560.656	51529.28
560.855	51377.73
561.054	51947.07
561.253	51277.38
561.453	51117.64
561.652	51621.44
561.851	51424.84
562.05	51017.29
562.249	50857.55
562.448	51316.29
562.647	51140.17
562.846	51201.61
563.045	50900.56
563.244	50355.8
563.443	51217.99
563.642	49852
563.841	50693.71
564.04	50050.65
564.239	50644.56
564.438	50341.46
564.637	50378.32
564.836	50075.23
565.035	49653.34
565.234	50361.94
565.432	49845.85
565.631	49628.77
565.83	49667.68
566.029	49610.34
566.228	49481.31
566.427	48981.61
566.625	49350.24
566.824	48797.29
567.023	49313.38
567.222	48293.49
567.42	49280.61
567.619	48690.8
567.818	48926.31
568.016	48395.89
568.215	48572.02
568.414	48346.74
568.612	48668.27
568.811	48430.71
569.01	47937.15
569.208	47707.77
569.407	48143.99
569.605	47384.19
569.804	48129.65
570.002	47421.06
570.201	47808.12
570.4	47203.97
570.598	46915.21
570.797	46837.39
570.995	47330.95
571.193	46716.56
571.392	46999.18
571.59	46573.2
571.789	46548.62
571.987	46519.95
572.186	46722.7
572.384	46354.07
572.582	46223
572.781	46401.17
572.979	46073.49
573.177	46134.93
573.376	46128.79
573.574	45637.28
573.772	46116.5
573.971	45395.62
574.169	45170.34
574.367	45254.31
574.565	45557.41
574.763	45180.58
574.962	44725.93
575.16	44385.97
575.358	44963.5
575.556	44230.32
575.754	44865.19
575.952	44199.6
576.151	44889.77
576.349	43781.82
576.547	44265.14
576.745	44054.2
576.943	44035.77
577.141	43980.47
577.339	44177.08
577.537	43538.11
577.735	43710.14
577.933	43630.27
578.131	43835.06
578.329	43067.08
578.527	43001.54
578.725	43364.03
578.923	42776.26
579.121	42823.37
579.319	42624.71
579.516	42927.81
579.714	42819.27
579.912	42594
580.11	42288.85
580.308	42288.85
580.506	42184.4
580.704	41826.01
580.901	41926.36
581.099	42176.21
581.297	41955.03
581.495	41512.67
581.692	41973.46
581.89	41694.94
582.088	41547.48
582.285	41547.48
582.483	41776.86
582.681	41342.69
582.878	40675.05
583.076	40974.05
583.274	41125.6
583.471	40773.35
583.669	40802.02
583.866	40138.48
584.064	40955.62
584.262	39896.82
584.459	40232.69
584.657	39614.2
584.854	40693.48
585.052	39380.73
585.249	39991.03
585.447	39565.05
585.644	39460.6
585.841	39712.5
586.039	39923.44
586.236	39356.16
586.434	38973.19
586.631	38653.7
586.828	39393.02
587.026	39008
587.223	38952.71
587.42	38639.37
587.618	38827.78
587.815	38383.37
588.012	38016.79
588.21	38385.42
588.407	38311.69
588.604	37986.07
588.801	38010.64
588.999	38119.18
589.196	37592.86
589.393	37418.78
589.59	37238.56
589.787	37580.57
589.984	37287.71
590.182	36951.84
590.379	37439.26
590.576	37377.82
590.773	36914.98
590.97	36687.65
591.167	37412.63
591.364	36484.9
591.561	36869.92
591.758	36259.63
591.955	36390.7
592.152	36599.59
592.349	35931.95
592.546	36214.57
592.743	36501.29
592.94	35620.66
593.137	35778.36
593.334	35802.93
593.531	35057.47
593.727	35626.81
593.924	35692.34
594.121	34889.54
594.318	35338.04
594.515	34817.86
594.712	35276.6
594.908	34733.89
595.105	35047.23
595.302	34488.14
595.499	34950.98
595.696	34506.57
595.892	33744.72
596.089	34369.35
596.286	34393.93
596.482	33851.22
596.679	34019.15
596.876	34027.34
597.072	33843.02
597.269	33845.07
597.466	33666.9
597.662	33634.13
597.859	33283.93
598.055	33697.62
598.252	33576.79
598.448	33261.4
598.645	32753.51
598.841	32843.62
599.038	33212.25
599.234	33054.56
599.431	32647.01
599.627	32274.28
599.824	32368.49
600.02	32165.74
600.217	32393.06
600.413	32153.45
600.609	31887.21
600.806	31731.57
601.002	32065.39
601.198	31618.93
601.395	31539.06
601.591	31668.08
601.787	31532.92
601.984	31266.68
602.18	31647.6
602.376	31055.74
602.572	31164.28
602.769	31313.78
602.965	31090.55
603.161	31170.43
603.357	30637.95
603.553	30424.97
603.75	31008.64
603.946	30375.81
604.142	30504.84
604.338	30300.04
604.534	30463.88
604.73	30273.42
604.926	30193.54
605.122	30281.61
605.318	29755.28
605.514	29775.76
605.71	29476.76
605.906	29804.43
606.102	29683.6
606.298	29847.44
606.494	29519.76
606.69	29380.5
606.886	29558.67
607.082	29317.01
607.278	29362.07
607.474	28950.43
607.67	29333.4
607.866	28925.85
608.062	29204.38
608.257	28708.77
608.453	28891.04
608.649	28919.71
608.845	28630.94
609.041	28712.86
609.236	28977.05
609.432	28409.76
609.628	28479.39
609.824	28454.82
610.019	28274.6
610.215	28669.86
610.411	28362.66
610.606	27965.35
610.802	28184.49
610.998	28100.52
611.193	28200.87
611.389	27639.73
611.584	28297.13
611.78	27711.41
611.976	27850.67
612.171	27588.53
612.367	27574.19
612.562	27527.09
612.758	27232.18
612.953	27449.27
613.149	27715.5
613.344	27176.89
613.539	27856.81
613.735	27312.05
613.93	27391.92
614.126	27232.18
614.321	27312.05
614.517	27049.91
614.712	27242.42
614.907	26599.36
615.103	27015.1
615.298	26881.98
615.493	27109.3
615.688	26630.08
615.884	27447.22
616.079	26494.91
616.274	26920.89
616.47	26496.96
616.665	26429.38
616.86	26339.27
617.055	26410.95
617.25	26415.04
617.445	26257.35
617.641	25876.43
617.836	26537.92
618.031	25939.91
618.226	26109.89
618.421	25767.88
618.616	25995.21
618.811	25595.85
619.006	26171.33
619.201	25411.54
619.396	25558.99
619.591	25311.19
619.786	25427.92
619.981	24870.87
620.176	25303
620.371	25083.86
620.566	25024.47
620.761	24989.66
620.956	25038.81
621.151	24578.01
621.346	24559.58
621.541	24055.78
621.735	24475.62
621.93	23959.53
622.125	24496.1
622.32	23805.93
622.515	23984.1
622.709	23754.73
622.904	23801.83
623.099	23738.35
623.294	23414.77
623.488	23402.48
623.683	23347.19
623.878	22890.49
624.072	22984.69
624.267	22923.26
624.462	22882.3
624.656	22679.55
624.851	22667.26
625.046	22722.55
625.24	22386.69
625.435	21985.29
625.629	22165.51
625.824	21772.3
626.018	21843.98
626.213	21295.12
626.407	21528.59
626.602	21258.26
626.796	21397.52
626.991	21293.07
627.185	21194.77
627.38	21172.24
627.574	20949.01
627.768	20650.01
627.963	20754.46
628.157	20678.68
628.352	20600.86
628.546	20355.1
628.74	20654.11
628.935	20305.95
629.129	20383.77
629.323	19769.38
629.517	20037.67
629.712	19863.59
629.906	19546.16
630.1	19515.44
630.294	19476.52
630.489	19396.65
630.683	19517.48
630.877	19324.97
631.071	18767.93
631.265	19238.96
631.459	18880.57
631.653	18817.08
631.848	18841.65
632.042	18593.85
632.236	18747.45
632.43	18352.19
632.624	18436.16
632.818	18339.9
633.012	18145.34
633.206	18176.06
633.4	18221.12
633.594	17903.68
633.788	18036.8
633.982	17741.89
634.176	17678.41
634.369	17795.14
634.563	17442.89
634.757	17213.52
634.951	17381.45
635.145	17098.83
635.339	17217.61
635.533	17064.02
635.726	17121.36
635.92	16556.12
636.114	16918.61
636.308	16793.69
636.501	16584.79
636.695	16529.5
636.889	16232.54
637.083	16441.43
637.276	16171.1
637.47	16226.4
637.664	16117.86
637.857	16046.18
638.051	15726.69
638.244	15679.59
638.438	15814.76
638.632	15837.28
638.825	15843.43
639.019	15505.51
639.212	15487.08
639.406	15274.09
639.599	15411.31
639.793	15321.2
639.986	15069.3
640.18	15134.83
640.373	14907.51
640.567	14778.48
640.76	14825.59
640.954	14698.61
641.147	14520.44
641.34	14526.58
641.534	14680.18
641.727	14635.13
641.92	14635.13
642.114	14270.59
642.307	14319.74
642.5	14241.92
642.694	14047.36
642.887	13820.03
643.08	14213.24
643.273	13744.26
643.467	14010.5
643.66	13734.02
643.853	13715.59
644.046	13584.52
644.239	13490.31
644.432	13680.77
644.626	13387.91
644.819	13414.54
645.012	13281.42
645.205	13353.1
645.398	13164.68
645.591	13174.92
645.784	13023.37
645.977	12900.5
646.17	12701.84
646.363	12837.01
646.556	12513.43
646.749	12609.68
646.942	12605.59
647.135	12632.21
647.328	12408.98
647.521	12239
647.714	12105.88
647.907	12337.31
648.099	12347.54
648.292	12152.99
648.485	12187.8
648.678	11790.5
648.871	12126.36
649.064	11825.31
649.256	11874.46
649.449	11585.7
649.642	11546.79
649.835	11714.72
650.027	11620.52
650.22	11628.71
650.413	11585.7
650.605	11274.41
650.798	11419.82
650.991	11417.77
651.183	11210.92
651.376	10922.16
651.568	10983.6
651.761	10889.39
651.954	11004.08
652.146	10854.58
652.339	10819.76
652.531	10942.64
652.724	10848.43
652.916	10670.26
653.109	10500.28
653.301	10440.89
653.494	10823.86
653.686	10467.51
653.879	10451.13
654.071	10485.94
654.263	10350.78
654.456	10401.97
654.648	10254.52
654.84	10184.89
655.033	10035.39
655.225	10254.52
655.417	10098.88
655.61	10049.72
655.802	9957.57
655.994	9713.86
656.186	9963.71
656.379	9691.33
656.571	9910.46
656.763	9803.97
656.955	9775.3
657.148	9564.36
657.34	9679.04
657.532	9547.97
657.724	9423.05
657.916	9373.89
658.108	9281.74
658.3	9365.7
658.492	9165
658.684	9316.55
658.876	9117.9
659.068	8982.73
659.26	9046.22
659.452	9103.56
659.644	8952.01
659.836	8896.72
660.028	9146.57
660.22	8896.72
660.412	8949.96
660.604	8646.87
660.796	8669.39
660.988	8751.31
661.18	8476.88
661.372	8534.23
661.563	8853.71
661.755	8382.68
661.947	8386.77
662.139	8417.49
662.331	8435.92
662.522	8323.29
662.714	8458.45
662.906	7989.47
663.097	8247.51
663.289	7997.66
663.481	7991.52
663.673	7885.02
663.864	7930.08
664.056	8055
664.247	7868.64
664.439	7893.21
664.631	7835.87
664.822	7844.06
665.014	7786.72
665.205	7891.16
665.397	7571.68
665.588	7796.96
665.78	7729.38
665.971	7434.47
666.163	7538.91
666.354	7561.44
666.546	7250.15
666.737	7526.63
666.929	7350.5
667.12	7241.96
667.311	7246.05
667.503	7217.38
667.694	7213.29
667.885	7188.71
668.077	7137.51
668.268	7094.51
668.459	7131.37
668.651	7080.17
668.842	6840.56
669.033	6848.75
669.224	7143.66
669.416	6908.14
669.607	6922.48
669.798	6756.59
669.989	6959.34
670.18	6863.08
670.371	6764.78
670.563	6746.35
670.754	6660.34
670.945	6676.72
671.136	6668.53
671.327	6660.34
671.518	6559.99
671.709	6527.22
671.9	6699.25
672.091	6482.16
672.282	6396.15
672.473	6566.13
672.664	6297.85
672.855	6336.76
673.046	6467.83
673.237	6385.91
673.428	6387.96
673.619	6428.92
673.809	6213.88
674	6039.8
674.191	6238.45
674.382	6287.61
674.573	6207.73
674.764	6195.45
674.954	6281.46
675.145	6154.49
675.336	5941.5
675.527	5826.81
675.717	6078.71
675.908	6023.42
676.099	5945.59
676.289	5880.06
676.48	5867.77
676.671	5826.81
676.861	5880.06
677.052	5845.24
677.243	5841.15
677.433	5810.43
677.624	5875.96
677.814	5753.09
678.005	5835
678.195	5667.07
678.386	5824.76
678.576	5484.8
678.767	5652.74
678.957	5677.31
679.148	5574.91
679.338	5740.8
679.529	5636.35
679.719	5517.57
679.909	5636.35
680.1	5689.6
680.29	5472.51
680.481	5554.43
680.671	5509.38
680.861	5449.99
681.052	5505.28
681.242	5282.05
681.432	5404.93
681.622	5402.88
681.813	5347.59
682.003	5327.11
682.193	5308.68
682.383	5380.36
682.573	5101.83
682.764	5210.37
682.954	5267.72
683.144	5265.67
683.334	5148.93
683.524	5253.38
683.714	5243.14
683.904	5060.87
684.094	5146.89
684.284	5144.84
684.474	5144.84
684.664	5259.53
684.854	5091.59
685.044	5046.54
685.234	5148.93
685.424	5001.48
685.614	5011.72
685.804	4999.43
685.994	4923.66
686.184	4929.8
686.374	5028.1
686.564	5099.78
686.753	4935.95
686.943	4823.31
687.133	4813.07
687.323	4790.54
687.513	4774.16
687.702	4884.75
687.892	4776.2
688.082	4768.01
688.272	4718.86
688.461	4737.29
688.651	4735.25
688.841	4675.85
689.03	4714.77
689.22	4714.77
689.41	4737.29
689.599	4796.68
689.789	4606.22
689.979	4565.26
690.168	4366.61
690.358	4573.46
690.547	4534.54
690.737	4446.48
690.926	4573.46
691.116	4469.01
691.305	4450.58
691.495	4319.51
691.684	4389.14
691.874	4301.08
692.063	4440.34
692.252	4292.88
692.442	4305.17
692.631	4249.88
692.82	4342.04
693.01	4215.06
693.199	4356.37
693.388	4172.05
693.578	4296.98
693.767	4135.19
693.956	4299.03
694.146	4192.53
694.335	4229.4
694.524	4231.44
694.713	4206.87
694.902	4190.49
695.092	4200.73
695.281	4202.77
695.47	4106.52
695.659	4159.77
695.848	4000.02
696.037	4077.85
696.226	4110.61
696.415	4022.55
696.604	4065.56
696.793	4081.94
696.982	4040.98
697.171	4120.85
697.36	3887.39
697.549	4051.22
697.738	4110.61
697.927	4006.17
698.116	3930.39
698.305	4008.22
698.494	4055.32
698.683	3864.86
698.872	4077.85
699.061	3973.4
699.25	3905.82
699.438	3909.91
699.627	3942.68
699.816	3914.01
700.005	3875.1
700.193	3983.64
700.382	3860.76
700.571	3844.38
700.76	4043.03
700.948	3875.1
701.137	3881.24
701.326	3946.78
701.514	3932.44
701.703	3737.88
701.892	3866.91
702.08	3916.06
702.269	3852.57
702.457	3817.76
702.646	3793.18
702.834	3623.2
703.023	3791.13
703.212	3873.05
703.4	3891.48
703.589	3682.59
703.777	3793.18
703.965	3717.4
704.154	3694.88
704.342	3707.16
704.531	3909.91
704.719	3553.57
704.907	3893.53
705.096	3731.74
705.284	3709.21
705.472	3815.71
705.661	3694.88
705.849	3723.55
706.037	3696.92
706.226	3686.69
706.414	3725.6
706.602	3701.02
706.79	3668.25
706.979	3584.29
707.167	3719.45
707.355	3629.34
707.543	3576.09
707.731	3565.85
707.919	3705.12
708.107	3545.38
708.296	3678.49
708.484	3539.23
708.672	3592.48
708.86	3602.72
709.048	3610.91
709.236	3451.17
709.424	3469.6
709.612	3555.62
709.8	3578.14
709.988	3498.27
710.176	3658.01
710.364	3502.37
710.551	3569.95
710.739	3576.09
710.927	3674.4
711.115	3469.6
711.303	3588.38
711.491	3504.42
711.679	3494.18
711.866	3492.13
712.054	3559.71
712.242	3436.83
712.43	3608.86
712.617	3387.68
712.805	3574.05
712.993	3506.46
713.181	3313.95
713.368	3549.47
713.556	3483.94
713.744	3330.34
713.931	3537.18
714.119	3369.25
714.306	3412.26
714.494	3451.17
714.682	3477.79
714.869	3445.02
715.057	3424.55
715.244	3512.61
715.432	3447.07
715.619	3363.11
715.807	3371.3
715.994	3447.07
716.182	3383.59
716.369	3316
716.556	3531.04
716.744	3201.32
716.931	3397.92
717.119	3350.82
717.306	3367.2
717.493	3434.78
717.681	3397.92
717.868	3393.83
718.055	3385.63
718.242	3332.39
718.43	3389.73
718.617	3324.19
718.804	3281.19
718.991	3316
719.179	3268.9
719.366	3189.03
719.553	3301.67
719.74	3215.65
719.927	3279.14
720.114	3303.71
720.301	3074.34
720.488	3295.52
720.676	3242.28
720.863	3264.8
721.05	3225.89
721.237	3350.82
721.424	3141.93
721.611	3211.56
721.798	3336.48
721.985	3152.17
722.172	3221.8
722.358	3256.61
722.545	3311.91
722.732	3129.64
722.919	3205.41
723.106	3209.51
723.293	3146.02
723.48	3143.97
723.667	3111.21
723.853	3209.51
724.04	3127.59
724.227	3139.88
724.414	3207.46
724.6	3084.58
724.787	3143.97
724.974	3275.04
725.161	3219.75
725.347	3037.48
725.534	3129.64
725.72	3207.46
725.907	3092.77
726.094	3154.21
726.28	3086.63
726.467	3105.06
726.653	3105.06
726.84	3180.84
727.027	3115.3
727.213	3041.57
727.4	3133.73
727.586	3047.72
727.773	3047.72
727.959	3072.29
728.145	3199.27
728.332	3039.53
728.518	3025.19
728.705	2978.09
728.891	2982.18
729.077	2873.64
729.264	3045.67
729.45	3072.29
729.636	3154.21
729.823	3029.29
730.009	2980.14
730.195	2937.13
730.382	3088.68
730.568	2982.18
730.754	2986.28
730.94	3078.44
731.126	2949.42
731.313	3096.87
731.499	3080.49
731.685	3039.53
731.871	3010.86
732.057	3004.71
732.243	3000.62
732.429	2939.18
732.615	2963.75
732.801	2945.32
732.987	2969.9
733.173	2916.65
733.359	2984.23
733.545	2980.14
733.731	2883.88
733.917	3014.95
734.103	2873.64
734.289	3019.05
734.475	2832.68
734.661	2935.08
734.847	2957.61
735.033	2988.33
735.219	2961.7
735.404	2875.69
735.59	2947.37
735.776	2953.51
735.962	2926.89
736.148	2791.72
736.333	2881.83
736.519	2881.83
736.705	2900.27
736.89	2826.54
737.076	2828.59
737.262	2828.59
737.447	2898.22
737.633	2916.65
737.819	2947.37
738.004	2814.25
738.19	2793.77
738.375	2816.3
738.561	2832.68
738.747	2797.87
738.932	2699.56
739.118	2795.82
739.303	2793.77
739.489	2824.49
739.674	2746.67
739.859	2806.06
740.045	2797.87
740.23	2738.48
740.416	2705.71
740.601	2703.66
740.786	2793.77
740.972	2640.17
741.157	2804.01
741.342	2674.99
741.528	2711.85
741.713	2677.04
741.898	2662.7
742.084	2711.85
742.269	2728.24
742.454	2576.69
742.639	2681.13
742.824	2619.69
743.01	2695.47
743.195	2761
743.38	2560.3
743.565	2476.34
743.75	2562.35
743.935	2476.34
744.12	2500.91
744.305	2390.32
744.49	2429.23
744.675	2545.97
744.86	2494.77
745.045	2423.09
745.23	2500.91
745.415	2545.97
745.6	2294.07
745.785	2408.75
745.97	2404.66
746.155	2369.84
746.34	2345.27
746.525	2343.22
746.71	2343.22
746.895	2322.74
747.079	2390.32
747.264	2175.28
747.449	2410.8
747.634	2402.61
747.819	2326.83
748.003	2271.54
748.188	2347.31
748.373	2173.24
748.557	2173.24
748.742	2234.68
748.927	2195.76
749.111	2183.48
749.296	2122.04
749.481	2197.81
749.665	2152.76
749.85	2167.09
750.034	2234.68
750.219	2126.13
750.404	2081.08
750.588	2218.29
750.773	1952.06
750.957	2074.93
751.141	2091.32
751.326	2038.07
751.51	1954.1
751.695	1929.53
751.879	2087.22
752.064	2023.73
752.248	1958.2
752.432	1909.05
752.617	1950.01
752.801	2003.25
752.985	1937.72
753.17	1962.3
753.354	1909.05
753.538	1863.99
753.722	1904.95
753.907	1935.67
754.091	1759.55
754.275	1816.89
754.459	1782.07
754.643	1716.54
754.828	1763.64
755.012	1677.63
755.196	1806.65
755.38	1743.16
755.564	1759.55
755.748	1782.07
755.932	1706.3
756.116	1714.49
756.3	1589.57
756.484	1640.76
756.668	1720.64
756.852	1675.58
757.036	1622.33
757.22	1622.33
757.404	1530.17
757.588	1630.52
757.772	1575.23
757.956	1603.9
758.14	1603.9
758.323	1552.7
758.507	1540.41
758.691	1487.17
758.875	1499.45
759.059	1538.37
759.242	1526.08
759.426	1581.37
759.61	1530.17
759.794	1519.93
759.977	1509.69
760.161	1483.07
760.345	1519.93
760.528	1415.49
760.712	1362.24
760.895	1536.32
761.079	1368.38
761.263	1456.45
761.446	1329.47
761.63	1433.92
761.813	1302.85
761.997	1411.39
762.18	1374.53
762.364	1610.04
762.547	1395.01
762.731	1315.14
762.914	1317.19
763.098	1403.2
763.281	1409.34
763.464	1308.99
763.648	1235.27
763.831	1384.77
764.015	1362.24
764.198	1280.32
764.381	1298.75
764.564	1345.86
764.748	1304.9
764.931	1210.69
765.114	1333.57
765.297	1255.75
765.481	1200.45
765.664	1263.94
765.847	1175.88
766.03	1349.95
766.213	1114.44
766.397	1214.79
766.58	1263.94
766.763	1159.49
766.946	1124.68
767.129	1233.22
767.312	1261.89
767.495	1147.2
767.678	1106.24
767.861	1239.36
768.044	1155.4
768.227	1112.39
768.41	1212.74
768.593	1237.31
768.776	1106.24
768.959	1171.78
769.142	1122.63
769.324	1227.07
769.507	1118.53
769.69	1077.57
769.873	1046.85
770.056	1112.39
770.239	1159.49
770.421	1179.97
770.604	1155.4
770.787	1014.09
770.97	946.5
771.152	1081.67
771.335	1059.14
771.518	1087.81
771.7	1096
771.883	1073.48
772.066	1102.15
772.248	1020.23
772.431	1073.48
772.613	1079.62
772.796	964.93
772.978	979.27
773.161	1028.42
773.343	1065.29
773.526	1044.81
773.708	954.69
773.891	944.45
774.073	1059.14
774.256	864.58
774.438	1030.47
774.621	901.45
774.803	950.6
774.985	919.88
775.168	956.74
775.35	878.92
775.532	952.65
775.715	913.74
775.897	821.58
776.079	928.07
776.261	858.44
776.444	780.62
776.626	923.98
776.808	854.34
776.99	870.73
777.173	950.6
777.355	872.78
777.537	850.25
777.719	887.11
777.901	880.97
778.083	815.43
778.265	809.29
778.447	868.68
778.629	768.33
778.811	794.95
778.993	848.2
779.175	782.67
779.357	731.47
779.539	778.57
779.721	827.72
779.903	837.96
780.085	751.95
780.267	688.46
780.449	768.33
780.631	794.95
780.812	706.89
780.994	725.32
781.176	674.12
781.358	643.4
781.54	667.98
781.721	745.8
781.903	661.84
782.085	665.93
782.267	688.46
782.448	604.49
782.63	717.13
782.812	567.63
782.993	708.94
783.175	696.65
783.357	610.64
783.538	645.45
783.72	674.12
783.901	618.83
784.083	614.73
784.264	627.02
784.446	563.53
784.627	690.51
784.809	635.21
784.99	565.58
785.172	596.3
785.353	645.45
785.535	624.97
785.716	508.24
785.897	532.81
786.079	577.87
786.26	528.72
786.441	602.44
786.623	571.72
786.804	598.35
786.985	518.48
787.167	448.85
787.348	524.62
787.529	528.72
787.71	614.73
787.891	555.34
788.073	538.96
788.254	522.57
788.435	538.96
788.616	518.48
788.797	440.65
788.978	405.84
789.159	506.19
789.34	508.24
789.522	418.13
789.703	487.76
789.884	426.32
790.065	584.01
790.246	516.43
790.427	409.94
790.607	489.81
790.788	465.23
790.969	364.88
791.15	444.75
791.331	549.2
791.512	524.62
791.693	397.65
791.874	403.79
792.054	483.66
792.235	436.56
792.416	403.79
792.597	422.22
792.778	373.07
792.958	418.13
793.139	459.09
793.32	387.41
793.5	381.26
793.681	368.98
793.862	418.13
794.042	397.65
794.223	364.88
794.404	459.09
794.584	426.32
794.765	407.89
794.945	373.07
795.126	375.12
795.306	344.4
795.487	340.3
795.667	399.7
795.848	311.63
796.028	358.74
796.209	430.41
796.389	360.78
796.57	342.35
796.75	354.64
796.93	344.4
797.111	270.67
797.291	448.85
797.471	368.98
797.652	260.43
797.832	340.3
798.012	332.11
798.192	305.49
798.373	307.54
798.553	229.71
798.733	297.3
798.913	354.64
799.093	301.39
799.274	299.34
799.454	364.88
799.634	323.92
799.814	266.58
799.994	272.72
800.174	299.34
800.354	248.15
800.534	321.87
800.714	328.02
800.894	321.87
801.074	299.34
801.254	307.54
801.434	297.3
801.614	285.01
801.794	280.91
801.974	641.36
802.154	274.77
802.334	217.43
802.514	264.53
802.693	317.78
802.873	239.95
803.053	276.82
803.233	246.1
803.413	319.82
803.592	242
803.772	311.63
803.952	278.87
804.131	274.77
804.311	311.63
804.491	266.58
804.67	278.87
804.85	272.72
805.03	252.24
805.209	319.82
805.389	250.19
805.568	242
805.748	233.81
805.928	260.43
806.107	336.21
806.287	264.53
806.466	244.05
806.646	223.57
806.825	151.89
807.004	250.19
807.184	252.24
807.363	235.86
807.543	252.24
807.722	276.82
807.901	215.38
808.081	207.19
808.26	209.23
808.439	309.58
808.619	219.47
808.798	198.99
808.977	221.52
809.156	258.39
809.336	231.76
809.515	235.86
809.694	153.94
809.873	219.47
810.052	221.52
810.231	242
810.411	184.66
810.59	229.71
810.769	164.18
810.948	160.08
811.127	162.13
811.306	221.52
811.485	225.62
811.664	285.01
811.843	172.37
812.022	248.15
812.201	196.95
812.38	151.89
812.559	190.8
812.737	246.1
812.916	174.42
813.095	219.47
813.274	211.28
813.453	188.75
813.632	239.95
813.811	198.99
813.989	149.84
814.168	223.57
814.347	149.84
814.526	219.47
814.704	217.43
814.883	196.95
815.062	180.56
815.24	133.46
815.419	192.85
815.598	155.99
815.776	207.19
815.955	194.9
816.133	139.6
816.312	168.27
816.49	168.27
816.669	155.99
816.847	209.23
817.026	219.47
817.204	162.13
817.383	117.08
817.561	106.84
817.74	145.75
817.918	147.8
818.097	211.28
818.275	110.93
818.453	137.56
818.632	115.03
818.81	117.08
818.988	186.71
819.167	125.27
819.345	112.98
819.523	158.03
819.701	108.88
819.879	162.13
820.058	188.75
820.236	119.12
820.414	170.32
820.592	96.6
820.77	162.13
820.948	127.32
821.127	164.18
821.305	141.65
821.483	139.6
821.661	192.85
821.839	129.36
822.017	125.27
822.195	88.4
822.373	180.56
822.551	145.75
822.729	106.84
822.907	72.02
823.085	205.14
823.262	100.69
823.44	166.23
823.618	127.32
823.796	100.69
823.974	141.65
824.152	76.12
824.329	104.79
824.507	115.03
824.685	125.27
824.863	84.31
825.04	78.16
825.218	125.27
825.396	117.08
825.574	229.71
825.751	143.7
825.929	98.64
826.107	96.6
826.284	139.6
826.462	96.6
826.639	88.4
826.817	129.36
826.994	147.8
827.172	123.22
827.349	151.89
827.527	139.6
827.704	127.32
827.882	166.23
828.059	149.84
828.237	43.35
828.414	108.88
828.591	61.78
828.769	131.41
828.946	90.45
829.124	147.8
829.301	86.36
829.478	102.74
829.655	74.07
829.833	133.46
830.01	63.83
830.187	110.93
830.364	160.08
830.542	119.12
830.719	59.73
830.896	133.46
831.073	135.51
831.25	88.4
831.427	180.56
831.604	96.6
831.782	94.55
831.959	20.82
832.136	92.5
832.313	53.59
832.49	92.5
832.667	123.22
832.844	96.6
833.021	104.79
833.198	102.74
833.374	139.6
833.551	63.83
833.728	117.08
833.905	55.64
834.082	133.46
834.259	63.83
834.436	112.98
834.612	94.55
834.789	117.08
834.966	39.25
835.143	133.46
835.319	110.93
835.496	33.11
835.673	74.07
835.85	133.46
836.026	84.31
836.203	90.45
836.38	45.4
836.556	61.78
836.733	112.98
836.909	149.84
837.086	78.16
837.262	-34.47
837.439	147.8
837.616	123.22
837.792	78.16
837.968	67.92
838.145	100.69
838.321	59.73
838.498	61.78
838.674	20.82
838.851	94.55
839.027	55.64
839.203	49.49
839.38	80.21
839.556	72.02
839.732	147.8
839.909	119.12
840.085	47.44
840.261	65.88
840.437	172.37
840.614	86.36
840.79	90.45
840.966	22.87
841.142	69.97
841.318	43.35
841.494	47.44
841.671	53.59
841.847	22.87
842.023	92.5
842.199	61.78
842.375	164.18
842.551	37.2
842.727	49.49
842.903	90.45
843.079	45.4
843.255	133.46
843.431	82.26
843.607	74.07
843.783	78.16
843.959	82.26
844.134	78.16
844.31	90.45
844.486	29.01
844.662	74.07
844.838	86.36
845.013	94.55
845.189	80.21
845.365	88.4
845.541	78.16
845.716	86.36
845.892	127.32
846.068	102.74
846.244	61.78
846.419	96.6
846.595	47.44
846.77	112.98
846.946	98.64
847.122	90.45
847.297	39.25
847.473	92.5
847.648	72.02
847.824	0.34
847.999	2.39
848.175	22.87
848.35	78.16
848.526	74.07
848.701	67.92
848.876	-9.9
849.052	61.78
849.227	47.44
849.403	112.98
849.578	86.36
849.753	61.78
849.929	14.68
850.104	57.68
850.279	53.59
850.454	24.92
850.63	76.12
850.805	2.39
850.98	45.4
851.155	-9.9
851.33	57.68
851.505	106.84
851.681	78.16
851.856	4.44
852.031	125.27
852.206	98.64
852.381	22.87
852.556	37.2
852.731	12.63
852.906	57.68
853.081	8.53
853.256	53.59
853.431	-9.9
853.606	47.44
853.781	20.82
853.956	55.64
854.131	35.16
854.305	98.64
854.48	16.73
854.655	63.83
854.83	35.16
855.005	-5.8
855.18	18.77
855.354	37.2
855.529	115.03
855.704	45.4
855.879	82.26
856.053	22.87
856.228	-7.85
856.403	37.2
856.577	69.97
856.752	-46.76
856.926	82.26
857.101	24.92
857.276	-11.95
857.45	78.16
857.625	61.78
857.799	2.39
857.974	55.64
858.148	-32.43
858.323	96.6
858.497	35.16
858.672	117.08
858.846	-81.58
859.02	-1.71
859.195	31.06
859.369	-42.67
859.543	24.92
859.718	12.63
859.892	-24.23
860.066	33.11
860.241	125.27
860.415	63.83
860.589	14.68
860.763	59.73
860.938	10.58
861.112	33.11
861.286	8.53
861.46	-18.09
861.634	20.82
861.808	-42.67
861.982	4.44
862.157	-13.99
862.331	26.96
862.505	39.25
862.679	31.06
862.853	16.73
863.027	16.73
863.201	74.07
863.375	6.49
863.549	18.77
863.722	-1.71
863.896	45.4
864.07	22.87
864.244	53.59
864.418	10.58
864.592	26.96
864.766	49.49
864.939	63.83
865.113	100.69
865.287	16.73
865.461	37.2
865.634	20.82
865.808	-5.8
865.982	6.49
866.156	65.88
866.329	22.87
866.503	39.25
866.676	45.4
866.85	-3.75
867.024	16.73
867.197	-20.14
867.371	-63.15
867.544	35.16
867.718	12.63
867.891	18.77
868.065	2.39
868.238	-30.38
868.412	98.64
868.585	-34.47
868.759	53.59
868.932	-16.04
869.105	-22.19
869.279	-24.23
869.452	10.58
869.625	29.01
869.799	-22.19
869.972	-1.71
870.145	14.68
870.319	63.83
870.492	63.83
870.665	-20.14
870.838	20.82
871.011	-11.95
871.185	-52.91
871.358	-16.04
871.531	-3.75
871.704	33.11
871.877	55.64
872.05	-63.15
872.223	45.4
872.396	-18.09
872.569	4.44
872.742	20.82
872.915	6.49
873.088	-1.71
873.261	18.77
873.434	49.49
873.607	69.97
873.78	96.6
873.953	104.79
874.126	0.34
874.299	-11.95
874.471	33.11
874.644	-54.95
874.817	-16.04
874.99	47.44
875.163	-48.81
875.335	112.98
875.508	12.63
875.681	8.53
875.853	-38.57
876.026	-28.33
876.199	-50.86
876.371	90.45
876.544	-50.86
876.717	0.34
876.889	-32.43
877.062	37.2
877.234	12.63
877.407	2.39
877.579	-24.23
877.752	65.88
877.924	18.77
878.097	-1.71
878.269	57.68
878.442	33.11
878.614	24.92
878.786	39.25
878.959	49.49
879.131	-13.99
879.303	8.53
879.476	10.58
879.648	2.39
879.82	-3.75
879.993	-3.75
880.165	49.49
880.337	43.35
880.509	69.97
880.681	10.58
880.854	0.34
881.026	-7.85
881.198	88.4
881.37	-28.33
881.542	22.87
881.714	-16.04
881.886	-18.09
882.058	6.49
882.23	2.39
882.402	2.39
882.574	-20.14
882.746	-1.71
882.918	10.58
883.09	18.77
883.262	-44.71
883.434	-20.14
883.606	-77.48
883.778	59.73
883.95	82.26
884.122	-44.71
884.293	63.83
884.465	8.53
884.637	121.17
884.809	-13.99
884.98	-9.9
885.152	57.68
885.324	-7.85
885.496	-97.96
885.667	-30.38
885.839	-32.43
886.011	-18.09
886.182	26.96
886.354	104.79
886.525	20.82
886.697	31.06
886.869	-42.67
887.04	51.54
887.212	10.58
887.383	26.96
887.555	-11.95
887.726	16.73
887.897	45.4
888.069	59.73
888.24	53.59
888.412	-13.99
888.583	-11.95
888.754	35.16
888.926	-7.85
889.097	-9.9
889.268	-34.47
889.44	-34.47
889.611	-42.67
889.782	16.73
889.953	24.92
890.125	-40.62
890.296	-7.85
890.467	-63.15
890.638	76.12
890.809	74.07
890.98	31.06
891.151	33.11
891.323	-11.95
891.494	37.2
891.665	51.54
891.836	-73.39
892.007	-7.85
892.178	-16.04
892.349	-16.04
892.52	6.49
892.691	24.92
892.862	-26.28
893.032	-32.43
893.203	57.68
893.374	29.01
893.545	-32.43
893.716	-5.8
893.887	-52.91
894.057	8.53
894.228	-50.86
894.399	-38.57
894.57	18.77
894.74	-97.96
894.911	63.83
895.082	-50.86
895.253	4.44
895.423	-26.28
895.594	10.58
895.764	10.58
895.935	-28.33
896.106	49.49
896.276	-9.9
896.447	45.4
896.617	4.44
896.788	-28.33
896.958	-3.75
897.129	-28.33
897.299	-5.8
897.47	18.77
897.64	-1.71
897.81	2.39
897.981	-11.95
898.151	-57
898.322	47.44
898.492	24.92
898.662	26.96
898.832	8.53
899.003	35.16
899.173	-1.71
899.343	-40.62
899.513	10.58
