Data from USB4F104151__181__11-09-31-943.txt Node

Date: Wed Mar 12 11:09:31 EDT 2025
User: louis
Spectrometer: USB4F10415
Trigger mode: 4
Integration Time (sec): 2.000000E-2
Scans to average: 1
Electric dark correction enabled: true
Nonlinearity correction enabled: false
Boxcar width: 0
XAxis mode: Wavelengths
Number of Pixels in Spectrum: 3648
>>>>>Begin Spectral Data<<<<<
178.204	43.69
178.424	43.69
178.644	43.69
178.864	-68.95
179.084	-62.8
179.304	35.5
179.524	-40.28
179.744	-13.65
179.964	-7.51
180.184	47.79
180.404	-11.61
180.624	6.83
180.844	-50.52
181.064	-54.61
181.283	-1.37
181.503	19.11
181.723	70.31
181.943	39.59
182.163	94.89
182.383	37.55
182.602	58.03
182.822	64.17
183.042	43.69
183.262	-30.04
183.482	2.73
183.701	55.98
183.921	-5.46
184.141	-25.94
184.361	41.64
184.58	10.92
184.8	66.22
185.02	53.93
185.239	78.51
185.459	21.16
185.679	29.35
185.898	-25.94
186.118	2.73
186.338	10.92
186.557	76.46
186.777	4.78
186.997	17.07
187.216	0.68
187.436	45.74
187.655	80.55
187.875	45.74
188.095	49.83
188.314	27.31
188.534	90.79
188.753	35.5
188.973	10.92
189.192	80.55
189.412	-21.85
189.631	-3.41
189.851	23.21
190.07	0.68
190.29	-13.65
190.509	15.02
190.729	41.64
190.948	-21.85
191.168	74.41
191.387	-23.89
191.607	17.07
191.826	4.78
192.045	33.45
192.265	76.46
192.484	43.69
192.704	33.45
192.923	27.31
193.142	94.89
193.362	23.21
193.581	109.22
193.8	31.4
194.02	88.75
194.239	17.07
194.458	-27.99
194.678	49.83
194.897	-3.41
195.116	31.4
195.335	15.02
195.555	49.83
195.774	53.93
195.993	-19.8
196.212	10.92
196.432	55.98
196.651	8.87
196.87	68.27
197.089	51.88
197.308	62.12
197.528	-71
197.747	-13.65
197.966	88.75
198.185	113.32
198.404	10.92
198.623	117.42
198.842	31.4
199.062	-19.8
199.281	107.18
199.5	-9.56
199.719	-68.95
199.938	-1.37
200.157	-5.46
200.376	31.4
200.595	80.55
200.814	-46.42
201.033	0.68
201.252	117.42
201.471	66.22
201.69	37.55
201.909	70.31
202.128	49.83
202.347	68.27
202.566	-30.04
202.785	-5.46
203.004	21.16
203.223	47.79
203.442	10.92
203.661	19.11
203.879	58.03
204.098	-42.32
204.317	60.07
204.536	49.83
204.755	27.31
204.974	88.75
205.193	76.46
205.411	66.22
205.63	19.11
205.849	41.64
206.068	12.97
206.287	0.68
206.505	41.64
206.724	49.83
206.943	70.31
207.162	62.12
207.381	15.02
207.599	25.26
207.818	55.98
208.037	19.11
208.255	31.4
208.474	12.97
208.693	60.07
208.911	25.26
209.13	-11.61
209.349	101.03
209.567	125.61
209.786	47.79
210.005	-85.33
210.223	12.97
210.442	0.68
210.661	121.51
210.879	88.75
211.098	-21.85
211.316	39.59
211.535	82.6
211.753	6.83
211.972	76.46
212.191	29.35
212.409	55.98
212.628	29.35
212.846	58.03
213.065	82.6
213.283	0.68
213.502	0.68
213.72	76.46
213.938	19.11
214.157	19.11
214.375	58.03
214.594	76.46
214.812	33.45
215.031	31.4
215.249	19.11
215.467	-9.56
215.686	10.92
215.904	51.88
216.122	6.83
216.341	4.78
216.559	82.6
216.778	47.79
216.996	6.83
217.214	41.64
217.432	31.4
217.651	31.4
217.869	6.83
218.087	41.64
218.306	-23.89
218.524	37.55
218.742	10.92
218.96	-34.13
219.179	-48.47
219.397	47.79
219.615	55.98
219.833	55.98
220.051	33.45
220.27	37.55
220.488	12.97
220.706	29.35
220.924	33.45
221.142	68.27
221.36	37.55
221.578	8.87
221.796	68.27
222.015	55.98
222.233	68.27
222.451	27.31
222.669	-3.41
222.887	62.12
223.105	12.97
223.323	41.64
223.541	17.07
223.759	76.46
223.977	62.12
224.195	51.88
224.413	23.21
224.631	45.74
224.849	17.07
225.067	84.65
225.285	58.03
225.503	2.73
225.721	-50.52
225.939	-34.13
226.157	88.75
226.375	43.69
226.592	-62.8
226.81	19.11
227.028	-36.18
227.246	55.98
227.464	-42.32
227.682	37.55
227.9	-7.51
228.117	37.55
228.335	-1.37
228.553	-21.85
228.771	19.11
228.989	64.17
229.206	10.92
229.424	64.17
229.642	-17.75
229.86	8.87
230.077	115.37
230.295	55.98
230.513	80.55
230.731	-9.56
230.948	8.87
231.166	82.6
231.384	19.11
231.601	90.79
231.819	15.02
232.037	105.13
232.254	49.83
232.472	-5.46
232.689	10.92
232.907	101.03
233.125	2.73
233.342	-13.65
233.56	37.55
233.777	60.07
233.995	-11.61
234.213	43.69
234.43	-50.52
234.648	33.45
234.865	-3.41
235.083	19.11
235.3	35.5
235.518	6.83
235.735	146.09
235.953	51.88
236.17	15.02
236.388	27.31
236.605	58.03
236.822	-9.56
237.04	17.07
237.257	33.45
237.475	31.4
237.692	35.5
237.909	98.99
238.127	-3.41
238.344	49.83
238.562	-13.65
238.779	-5.46
238.996	39.59
239.214	-75.09
239.431	-15.7
239.648	-9.56
239.865	55.98
240.083	2.73
240.3	-44.37
240.517	33.45
240.735	47.79
240.952	131.75
241.169	43.69
241.386	51.88
241.603	8.87
241.821	-15.7
242.038	49.83
242.255	43.69
242.472	2.73
242.689	15.02
242.907	2.73
243.124	19.11
243.341	-27.99
243.558	0.68
243.775	-15.7
243.992	31.4
244.209	27.31
244.426	8.87
244.643	82.6
244.86	33.45
245.078	15.02
245.295	39.59
245.512	19.11
245.729	35.5
245.946	-83.28
246.163	60.07
246.38	103.08
246.597	62.12
246.814	27.31
247.031	49.83
247.248	127.66
247.464	-64.85
247.681	-56.66
247.898	68.27
248.115	68.27
248.332	31.4
248.549	78.51
248.766	76.46
248.983	-25.94
249.2	10.92
249.417	58.03
249.633	74.41
249.85	35.5
250.067	37.55
250.284	29.35
250.501	45.74
250.717	35.5
250.934	-52.56
251.151	19.11
251.368	12.97
251.585	47.79
251.801	10.92
252.018	12.97
252.235	6.83
252.451	23.21
252.668	60.07
252.885	80.55
253.102	62.12
253.318	76.46
253.535	-11.61
253.752	35.5
253.968	27.31
254.185	-11.61
254.401	12.97
254.618	55.98
254.835	-5.46
255.051	31.4
255.268	80.55
255.484	-21.85
255.701	6.83
255.917	150.18
256.134	31.4
256.351	82.6
256.567	-56.66
256.784	74.41
257	-19.8
257.217	66.22
257.433	64.17
257.65	62.12
257.866	68.27
258.082	15.02
258.299	-34.13
258.515	15.02
258.732	35.5
258.948	19.11
259.165	17.07
259.381	15.02
259.597	55.98
259.814	49.83
260.03	6.83
260.246	-5.46
260.463	27.31
260.679	4.78
260.895	10.92
261.112	27.31
261.328	49.83
261.544	17.07
261.761	146.09
261.977	-36.18
262.193	-30.04
262.409	15.02
262.626	-34.13
262.842	25.26
263.058	103.08
263.274	64.17
263.49	-23.89
263.707	58.03
263.923	-11.61
264.139	-13.65
264.355	-13.65
264.571	92.84
264.787	-5.46
265.004	-9.56
265.22	94.89
265.436	25.26
265.652	23.21
265.868	76.46
266.084	29.35
266.3	68.27
266.516	76.46
266.732	45.74
266.948	25.26
267.164	58.03
267.38	51.88
267.596	107.18
267.812	135.85
268.028	-46.42
268.244	31.4
268.46	60.07
268.676	49.83
268.892	43.69
269.108	-15.7
269.324	17.07
269.54	2.73
269.756	47.79
269.972	29.35
270.188	74.41
270.403	-32.08
270.619	66.22
270.835	25.26
271.051	39.59
271.267	66.22
271.483	-13.65
271.698	-36.18
271.914	90.79
272.13	53.93
272.346	-25.94
272.562	49.83
272.777	35.5
272.993	47.79
273.209	94.89
273.425	-1.37
273.64	-17.75
273.856	10.92
274.072	10.92
274.287	-54.61
274.503	64.17
274.719	31.4
274.934	19.11
275.15	-32.08
275.366	21.16
275.581	45.74
275.797	-34.13
276.012	51.88
276.228	-5.46
276.444	-1.37
276.659	4.78
276.875	-1.37
277.09	23.21
277.306	80.55
277.521	27.31
277.737	37.55
277.952	64.17
278.168	-87.38
278.383	35.5
278.599	23.21
278.814	8.87
279.03	29.35
279.245	47.79
279.461	76.46
279.676	92.84
279.892	0.68
280.107	-32.08
280.322	60.07
280.538	2.73
280.753	-30.04
280.969	-5.46
281.184	23.21
281.399	25.26
281.615	8.87
281.83	35.5
282.045	-7.51
282.26	64.17
282.476	-19.8
282.691	27.31
282.906	27.31
283.122	45.74
283.337	-36.18
283.552	78.51
283.767	29.35
283.983	31.4
284.198	43.69
284.413	47.79
284.628	-11.61
284.843	17.07
285.058	-38.23
285.274	53.93
285.489	12.97
285.704	47.79
285.919	2.73
286.134	113.32
286.349	-13.65
286.564	62.12
286.779	43.69
286.995	45.74
287.21	-58.71
287.425	2.73
287.64	0.68
287.855	23.21
288.07	58.03
288.285	17.07
288.5	29.35
288.715	62.12
288.93	-25.94
289.145	35.5
289.36	90.79
289.575	35.5
289.79	43.69
290.004	47.79
290.219	-17.75
290.434	60.07
290.649	19.11
290.864	88.75
291.079	76.46
291.294	103.08
291.509	43.69
291.724	-40.28
291.938	70.31
292.153	-15.7
292.368	-30.04
292.583	84.65
292.798	19.11
293.012	-17.75
293.227	39.59
293.442	31.4
293.657	43.69
293.871	43.69
294.086	-46.42
294.301	10.92
294.516	33.45
294.73	2.73
294.945	25.26
295.16	23.21
295.374	0.68
295.589	109.22
295.804	-7.51
296.018	51.88
296.233	88.75
296.447	39.59
296.662	19.11
296.877	33.45
297.091	43.69
297.306	2.73
297.52	-23.89
297.735	60.07
297.949	-62.8
298.164	84.65
298.378	-30.04
298.593	37.55
298.807	-23.89
299.022	51.88
299.236	-1.37
299.451	-19.8
299.665	10.92
299.88	23.21
300.094	-13.65
300.309	-27.99
300.523	41.64
300.737	12.97
300.952	31.4
301.166	35.5
301.381	39.59
301.595	25.26
301.809	2.73
302.024	-21.85
302.238	-7.51
302.452	60.07
302.667	17.07
302.881	-5.46
303.095	21.16
303.309	31.4
303.524	107.18
303.738	-19.8
303.952	39.59
304.166	-9.56
304.381	25.26
304.595	74.41
304.809	17.07
305.023	8.87
305.237	21.16
305.452	19.11
305.666	15.02
305.88	-9.56
306.094	53.93
306.308	-25.94
306.522	-5.46
306.736	92.84
306.95	27.31
307.164	64.17
307.379	49.83
307.593	55.98
307.807	27.31
308.021	60.07
308.235	-13.65
308.449	60.07
308.663	27.31
308.877	94.89
309.091	72.36
309.305	129.7
309.519	2.73
309.733	25.26
309.947	-30.04
310.161	23.21
310.374	8.87
310.588	55.98
310.802	62.12
311.016	64.17
311.23	64.17
311.444	51.88
311.658	43.69
311.872	0.68
312.085	-13.65
312.299	64.17
312.513	31.4
312.727	64.17
312.941	27.31
313.154	66.22
313.368	55.98
313.582	-54.61
313.796	-3.41
314.009	33.45
314.223	80.55
314.437	39.59
314.651	17.07
314.864	27.31
315.078	41.64
315.292	60.07
315.505	64.17
315.719	76.46
315.933	47.79
316.146	27.31
316.36	62.12
316.573	80.55
316.787	49.83
317.001	2.73
317.214	-3.41
317.428	31.4
317.641	12.97
317.855	23.21
318.068	43.69
318.282	115.37
318.495	74.41
318.709	27.31
318.922	-13.65
319.136	74.41
319.349	15.02
319.563	-11.61
319.776	51.88
319.99	31.4
320.203	60.07
320.417	17.07
320.63	51.88
320.843	10.92
321.057	10.92
321.27	-40.28
321.483	-5.46
321.697	66.22
321.91	66.22
322.124	55.98
322.337	94.89
322.55	23.21
322.763	10.92
322.977	39.59
323.19	101.03
323.403	70.31
323.617	-11.61
323.83	109.22
324.043	64.17
324.256	76.46
324.469	80.55
324.683	35.5
324.896	55.98
325.109	103.08
325.322	21.16
325.535	27.31
325.748	68.27
325.962	4.78
326.175	64.17
326.388	21.16
326.601	27.31
326.814	-11.61
327.027	31.4
327.24	31.4
327.453	17.07
327.666	4.78
327.879	-11.61
328.092	45.74
328.305	45.74
328.518	45.74
328.731	21.16
328.944	94.89
329.157	41.64
329.37	88.75
329.583	76.46
329.796	35.5
330.009	15.02
330.222	64.17
330.435	27.31
330.648	66.22
330.861	23.21
331.073	10.92
331.286	37.55
331.499	31.4
331.712	33.45
331.925	19.11
332.138	-1.37
332.35	96.94
332.563	41.64
332.776	41.64
332.989	-21.85
333.202	37.55
333.414	25.26
333.627	6.83
333.84	51.88
334.053	12.97
334.265	19.11
334.478	60.07
334.691	17.07
334.903	21.16
335.116	55.98
335.329	-79.19
335.541	62.12
335.754	10.92
335.966	43.69
336.179	37.55
336.392	8.87
336.604	-25.94
336.817	49.83
337.029	66.22
337.242	60.07
337.454	19.11
337.667	35.5
337.88	39.59
338.092	37.55
338.305	8.87
338.517	82.6
338.729	43.69
338.942	35.5
339.154	-52.56
339.367	33.45
339.579	15.02
339.792	-46.42
340.004	47.79
340.217	43.69
340.429	47.79
340.641	19.11
340.854	-17.75
341.066	51.88
341.278	78.51
341.491	33.45
341.703	37.55
341.915	45.74
342.128	35.5
342.34	15.02
342.552	-9.56
342.764	2.73
342.977	37.55
343.189	64.17
343.401	37.55
343.613	-42.32
343.826	53.93
344.038	2.73
344.25	84.65
344.462	-7.51
344.674	94.89
344.886	33.45
345.099	37.55
345.311	23.21
345.523	-5.46
345.735	37.55
345.947	29.35
346.159	82.6
346.371	4.78
346.583	-21.85
346.795	53.93
347.007	31.4
347.219	15.02
347.431	55.98
347.643	76.46
347.855	27.31
348.067	19.11
348.279	51.88
348.491	62.12
348.703	49.83
348.915	72.36
349.127	12.97
349.339	27.31
349.551	58.03
349.763	103.08
349.975	31.4
350.187	109.22
350.399	51.88
350.61	-9.56
350.822	-1.37
351.034	39.59
351.246	51.88
351.458	105.13
351.669	19.11
351.881	125.61
352.093	78.51
352.305	88.75
352.517	43.69
352.728	35.5
352.94	8.87
353.152	27.31
353.363	37.55
353.575	49.83
353.787	33.45
353.999	70.31
354.21	84.65
354.422	-11.61
354.633	-3.41
354.845	58.03
355.057	76.46
355.268	31.4
355.48	51.88
355.692	-34.13
355.903	-30.04
356.115	66.22
356.326	41.64
356.538	115.37
356.749	23.21
356.961	60.07
357.172	-56.66
357.384	31.4
357.595	101.03
357.807	-19.8
358.018	2.73
358.23	41.64
358.441	25.26
358.653	103.08
358.864	-7.51
359.075	133.8
359.287	-36.18
359.498	25.26
359.709	70.31
359.921	82.6
360.132	41.64
360.344	39.59
360.555	29.35
360.766	74.41
360.977	23.21
361.189	53.93
361.4	25.26
361.611	64.17
361.823	64.17
362.034	82.6
362.245	-30.04
362.456	12.97
362.667	70.31
362.879	55.98
363.09	47.79
363.301	90.79
363.512	101.03
363.723	27.31
363.935	-9.56
364.146	76.46
364.357	86.7
364.568	21.16
364.779	8.87
364.99	39.59
365.201	2.73
365.412	47.79
365.623	35.5
365.834	78.51
366.045	88.75
366.256	35.5
366.467	39.59
366.678	92.84
366.889	47.79
367.1	-38.23
367.311	31.4
367.522	27.31
367.733	62.12
367.944	47.79
368.155	90.79
368.366	2.73
368.577	66.22
368.788	76.46
368.999	-9.56
369.209	37.55
369.42	119.46
369.631	111.27
369.842	39.59
370.053	-5.46
370.264	27.31
370.474	107.18
370.685	-1.37
370.896	8.87
371.107	58.03
371.317	-19.8
371.528	-17.75
371.739	39.59
371.95	21.16
372.16	101.03
372.371	-1.37
372.582	-42.32
372.792	35.5
373.003	62.12
373.214	23.21
373.424	37.55
373.635	41.64
373.846	144.04
374.056	23.21
374.267	51.88
374.477	0.68
374.688	31.4
374.898	29.35
375.109	64.17
375.319	90.79
375.53	29.35
375.74	27.31
375.951	-21.85
376.161	49.83
376.372	72.36
376.582	23.21
376.793	43.69
377.003	53.93
377.214	72.36
377.424	51.88
377.635	70.31
377.845	-1.37
378.055	25.26
378.266	-30.04
378.476	8.87
378.686	80.55
378.897	19.11
379.107	43.69
379.317	25.26
379.528	74.41
379.738	72.36
379.948	10.92
380.158	119.46
380.369	-52.56
380.579	166.57
380.789	2.73
380.999	58.03
381.21	39.59
381.42	-9.56
381.63	-27.99
381.84	43.69
382.05	94.89
382.261	33.45
382.471	51.88
382.681	6.83
382.891	10.92
383.101	-7.51
383.311	23.21
383.521	-56.66
383.731	98.99
383.941	41.64
384.151	58.03
384.361	6.83
384.571	-5.46
384.781	60.07
384.991	84.65
385.201	23.21
385.411	-23.89
385.621	15.02
385.831	6.83
386.041	37.55
386.251	60.07
386.461	21.16
386.671	6.83
386.881	35.5
387.091	35.5
387.301	51.88
387.511	55.98
387.72	121.51
387.93	55.98
388.14	68.27
388.35	25.26
388.56	39.59
388.769	60.07
388.979	51.88
389.189	33.45
389.399	53.93
389.609	58.03
389.818	39.59
390.028	27.31
390.238	64.17
390.447	0.68
390.657	35.5
390.867	82.6
391.076	31.4
391.286	74.41
391.496	45.74
391.705	45.74
391.915	10.92
392.125	-5.46
392.334	92.84
392.544	101.03
392.753	123.56
392.963	68.27
393.172	117.42
393.382	55.98
393.591	60.07
393.801	70.31
394.01	70.31
394.22	19.11
394.429	8.87
394.639	60.07
394.848	74.41
395.058	35.5
395.267	113.32
395.477	98.99
395.686	53.93
395.895	80.55
396.105	129.7
396.314	66.22
396.524	84.65
396.733	29.35
396.942	33.45
397.152	70.31
397.361	133.8
397.57	78.51
397.78	47.79
397.989	45.74
398.198	58.03
398.407	80.55
398.617	47.79
398.826	80.55
399.035	49.83
399.244	60.07
399.453	66.22
399.663	98.99
399.872	94.89
400.081	60.07
400.29	111.27
400.499	31.4
400.708	103.08
400.917	121.51
401.127	74.41
401.336	53.93
401.545	96.94
401.754	78.51
401.963	92.84
402.172	96.94
402.381	70.31
402.59	113.32
402.799	96.94
403.008	90.79
403.217	68.27
403.426	88.75
403.635	68.27
403.844	131.75
404.053	68.27
404.262	49.83
404.471	137.9
404.68	94.89
404.888	78.51
405.097	53.93
405.306	133.8
405.515	35.5
405.724	37.55
405.933	119.46
406.142	66.22
406.35	78.51
406.559	121.51
406.768	115.37
406.977	88.75
407.185	117.42
407.394	113.32
407.603	105.13
407.812	72.36
408.02	164.52
408.229	174.76
408.438	164.52
408.646	115.37
408.855	174.76
409.064	217.77
409.272	105.13
409.481	207.53
409.69	154.28
409.898	166.57
410.107	217.77
410.315	248.49
410.524	131.75
410.733	180.9
410.941	166.57
411.15	207.53
411.358	185
411.567	281.25
411.775	289.45
411.984	268.97
412.192	326.31
412.401	225.96
412.609	342.69
412.818	352.93
413.026	326.31
413.234	381.6
413.443	246.44
413.651	375.46
413.86	299.69
414.068	361.13
414.276	475.81
414.485	330.41
414.693	428.71
414.901	348.84
415.11	357.03
415.318	414.37
415.526	426.66
415.734	436.9
415.943	459.43
416.151	408.23
416.359	445.09
416.567	592.55
416.776	555.68
416.984	582.31
417.192	613.03
417.4	477.86
417.608	631.46
417.817	559.78
418.025	600.74
418.233	645.79
418.441	649.89
418.649	690.85
418.857	768.67
419.065	805.53
419.273	688.8
419.481	844.45
419.689	805.53
419.897	811.68
420.105	891.55
420.313	895.64
420.521	936.6
420.729	975.52
420.937	1053.34
421.145	1055.39
421.353	1088.15
421.561	1108.63
421.769	1114.78
421.977	1182.36
422.185	1254.04
422.393	1239.7
422.601	1370.77
422.809	1368.73
423.017	1391.25
423.224	1393.3
423.432	1452.69
423.64	1460.88
423.848	1534.61
424.056	1575.57
424.263	1657.49
424.471	1735.31
424.679	1649.3
424.887	1731.22
425.094	1786.51
425.302	1878.67
425.51	1862.29
425.718	2067.08
425.925	1929.87
426.133	2024.08
426.341	2112.14
426.548	2282.12
426.756	2394.76
426.964	2316.94
427.171	2439.81
427.379	2437.77
427.586	2435.72
427.794	2636.42
428.001	2671.23
428.209	2880.13
428.417	2851.46
428.624	2972.29
428.832	2949.76
429.039	2910.85
429.247	3064.44
429.454	3281.53
429.662	3424.89
429.869	3332.73
430.076	3506.81
430.284	3353.21
430.491	3474.04
430.699	3738.23
430.906	3768.95
431.114	3732.08
431.321	3803.76
431.528	4010.61
431.736	4256.36
431.943	4334.18
432.15	4319.85
432.358	4405.86
432.565	4655.72
432.772	4510.31
432.979	4809.31
433.187	4893.28
433.394	4854.37
433.601	5231.19
433.808	5136.99
434.016	5282.39
434.223	5452.38
434.43	5784.15
434.637	5679.7
434.844	5821.01
435.052	6132.3
435.259	6208.08
435.466	6064.72
435.673	6191.69
435.88	6593.09
436.087	6855.23
436.294	6722.12
436.501	6394.44
436.708	6773.32
436.915	7066.17
437.122	7170.62
437.329	7356.99
437.537	7643.7
437.743	7602.74
437.95	7688.76
438.157	8034.86
438.364	8317.48
438.571	8172.08
438.778	8198.7
438.985	9128.48
439.192	8641.06
439.399	8899.11
439.606	8704.55
439.813	9337.37
440.02	9628.18
440.227	9818.64
440.433	9628.18
440.64	9882.13
440.847	9761.3
441.054	10007.06
441.261	10707.46
441.467	10543.63
441.674	10646.02
441.881	11186.69
442.088	11147.78
442.294	11100.67
442.501	11237.89
442.708	11504.12
442.914	12091.89
443.121	12620.27
443.328	12012.02
443.534	13095.39
443.741	12669.42
443.948	12593.64
444.154	13470.17
444.361	13287.9
444.568	13443.55
444.774	13498.84
444.981	13461.98
445.187	14195.15
445.394	14567.88
445.6	14109.14
445.807	15628.73
446.013	14922.18
446.22	15434.18
446.426	15815.1
446.633	15911.35
446.839	16466.35
447.046	15878.58
447.252	16564.65
447.459	16933.29
447.665	16667.05
447.871	17441.18
448.078	18020.76
448.284	17152.42
448.491	17895.83
448.697	18336.15
448.903	18583.95
449.11	18905.48
449.316	18694.54
449.522	18983.3
449.728	19288.45
449.935	19626.37
450.141	19351.94
450.347	19980.67
450.553	19196.29
450.76	19366.28
450.966	20238.71
451.172	19712.38
451.378	20390.26
451.584	19689.85
451.791	20568.43
451.997	20459.89
452.203	21037.42
452.409	20812.14
452.615	20463.99
452.821	19999.1
453.027	19581.31
453.233	20484.47
453.44	19720.57
453.646	20199.8
453.852	20265.33
454.058	20453.75
454.264	19972.47
454.47	20228.47
454.676	19511.68
454.882	20353.4
455.088	18157.97
455.294	19018.12
455.5	19112.33
455.705	19263.88
455.911	18426.26
456.117	18364.82
456.323	18078.1
456.529	16980.39
456.735	17752.48
456.941	17277.35
457.147	17250.72
457.352	16417.2
457.558	16435.63
457.764	16173.49
457.97	16083.38
458.176	15577.53
458.381	15645.12
458.587	15067.59
458.793	14920.13
458.999	14189.01
459.204	14946.76
459.41	14686.67
459.616	13797.85
459.821	13799.9
460.027	13705.69
460.233	13468.13
460.438	12544.49
460.644	12890.6
460.85	12245.49
461.055	12126.71
461.261	12030.45
461.466	11348.48
461.672	10883.59
461.878	11571.71
462.083	10795.53
462.289	10705.42
462.494	10570.25
462.7	10127.89
462.905	9908.76
463.111	10195.47
463.316	10254.86
463.522	10125.84
463.727	9990.67
463.932	9726.49
464.138	9587.22
464.343	9826.84
464.549	9744.92
464.754	9818.64
464.959	9888.28
465.165	9591.32
465.37	9361.95
465.575	9069.09
465.781	9433.63
465.986	9263.65
466.191	9202.21
466.397	8931.87
466.602	8655.4
466.807	8794.66
467.012	8987.17
467.218	9032.22
467.423	8667.69
467.628	8786.47
467.833	8927.78
468.038	8774.18
468.244	8636.97
468.449	8843.81
468.654	8657.45
468.859	8555.05
469.064	8567.34
469.269	8057.39
469.474	8458.79
469.679	8335.92
469.885	8139.31
470.09	8294.96
470.295	8161.84
470.5	8016.43
470.705	8161.84
470.91	7830.07
471.115	7731.76
471.32	7866.93
471.525	7930.42
471.73	7707.19
471.935	7645.75
472.139	7281.21
472.344	7496.25
472.549	7305.79
472.754	7326.27
472.959	7379.51
473.164	7019.07
473.369	7064.13
473.574	7176.77
473.778	7133.76
473.983	7021.12
474.188	6957.63
474.393	6681.16
474.598	6752.84
474.802	6783.56
475.007	6666.82
475.212	6746.69
475.417	6265.42
475.621	6408.78
475.826	6466.12
476.031	6285.9
476.235	6281.8
476.44	6294.09
476.645	6273.61
476.849	6171.21
477.054	6218.32
477.259	5960.27
477.463	5986.9
477.668	5804.63
477.872	5898.83
478.077	5831.25
478.282	5706.32
478.486	5714.52
478.691	5700.18
478.895	5790.29
479.1	5501.53
479.304	5565.01
479.509	5431.9
479.713	5440.09
479.918	5376.6
480.122	5319.26
480.326	5364.31
480.531	5247.58
480.735	5241.43
480.94	5259.87
481.144	5390.94
481.348	5298.78
481.553	5317.21
481.757	5028.45
481.961	5145.18
482.166	5370.46
482.37	5206.62
482.574	5087.84
482.778	5206.62
482.983	5237.34
483.187	5190.24
483.391	5159.52
483.595	5122.65
483.8	5175.9
484.004	5263.96
484.208	5378.65
484.412	5128.8
484.616	5120.6
484.821	5218.91
485.025	5096.03
485.229	5388.89
485.433	5100.12
485.637	5198.43
485.841	5073.5
486.045	5040.73
486.249	5122.65
486.453	5177.95
486.657	5177.95
486.861	5161.56
487.065	5104.22
487.269	5163.61
487.473	5122.65
487.677	5151.32
487.881	5288.54
488.085	5124.7
488.289	5071.45
488.493	5306.97
488.697	5073.5
488.901	5177.95
489.105	5223
489.309	5397.08
489.512	5268.06
489.716	5223
489.92	5083.74
490.124	5188.19
490.328	5290.59
490.531	5192.28
490.735	5284.44
490.939	5452.38
491.143	5241.43
491.346	5196.38
491.55	5358.17
491.754	5425.75
491.958	5591.64
492.161	5335.64
492.365	5515.86
492.569	5450.33
492.772	5446.23
492.976	5517.91
493.18	5470.81
493.383	5581.4
493.587	5622.36
493.79	5542.49
493.994	5616.21
494.197	5958.22
494.401	5648.98
494.605	5677.65
494.808	5784.15
495.012	5769.81
495.215	5884.5
495.419	5890.64
495.622	5845.59
495.825	6013.52
496.029	5937.74
496.232	6101.58
496.436	6048.33
496.639	6306.38
496.843	6136.4
497.046	6318.67
497.249	6333
497.453	6550.09
497.656	6531.65
497.859	6496.84
498.063	6554.18
498.266	6713.92
498.469	6754.88
498.673	6920.77
498.876	6961.73
499.079	6943.3
499.282	6928.96
499.485	7176.77
499.689	7021.12
499.892	7182.91
500.095	7189.05
500.298	7281.21
500.501	7316.03
500.705	7508.54
500.908	7711.28
501.111	7756.34
501.314	7780.92
501.517	7895.6
501.72	7887.41
501.923	8098.35
502.126	8090.16
502.329	8290.86
502.532	8380.97
502.735	8321.58
502.938	8491.56
503.141	8634.92
503.344	8639.01
503.547	8702.5
503.75	8852
503.953	8882.72
504.156	8890.92
504.359	9243.17
504.562	9198.11
504.765	9380.38
504.968	9433.63
505.17	9648.66
505.373	9486.87
505.576	9677.33
505.779	10064.4
505.982	9896.47
506.185	9970.19
506.387	10254.86
506.59	10187.28
506.793	10457.61
506.996	10261.01
507.198	10680.84
507.401	10711.56
507.604	10770.95
507.807	10899.97
508.009	11002.37
508.212	11155.97
508.415	11174.4
508.617	11317.76
508.82	11598.33
509.022	11463.16
509.225	11764.22
509.428	11883
509.63	11813.37
509.833	11979.25
510.035	12382.7
510.238	12169.71
510.44	12466.67
510.643	12685.8
510.845	12892.65
511.048	12792.3
511.25	12718.57
511.453	13033.96
511.655	13466.08
511.858	13091.3
512.06	13441.5
512.262	13566.43
512.465	13345.25
512.667	13691.35
512.87	14045.65
513.072	14150.1
513.274	14240.21
513.477	14336.46
513.679	14547.4
513.881	14778.83
514.084	14985.67
514.286	14879.18
514.488	14832.07
514.69	15387.07
514.893	15557.05
515.095	15677.88
515.297	15731.13
515.499	15716.79
515.701	15962.55
515.904	16284.08
516.106	16136.63
516.308	16544.17
516.51	16552.37
516.712	16783.79
516.914	16906.66
517.116	17131.94
517.318	17244.58
517.52	17301.92
517.722	17234.34
517.925	17787.29
518.127	18037.14
518.329	17961.37
518.531	17844.63
518.733	18413.97
518.935	18717.07
519.136	18467.22
519.338	18743.69
519.54	18850.19
519.742	19063.18
519.944	19366.28
520.146	19296.64
520.348	19708.29
520.55	19429.76
520.752	19984.76
520.954	20341.11
521.155	20287.86
521.357	20427.12
521.559	20547.95
521.761	20615.54
521.963	21094.76
522.164	21092.71
522.366	21096.81
522.568	21346.66
522.77	21565.79
522.971	22022.49
523.173	21703.01
523.375	21850.46
523.576	22036.83
523.778	21991.77
523.98	22350.17
524.181	22894.93
524.383	22800.72
524.584	22729.04
524.786	22933.84
524.988	22772.05
525.189	22942.03
525.391	23206.22
525.592	23357.77
525.794	23572.8
525.995	23451.97
526.197	23505.22
526.398	23656.77
526.6	23824.7
526.801	23933.25
527.003	24346.94
527.204	24449.33
527.406	24547.64
527.607	24078.65
527.808	24625.46
528.01	24361.27
528.211	24598.84
528.412	25243.95
528.614	25041.2
528.815	25200.94
529.016	25424.17
529.218	25018.67
529.419	25413.93
529.62	25262.38
529.822	25409.83
530.023	25268.52
530.224	25631.01
530.425	25420.07
530.626	25272.62
530.828	25467.17
531.029	25794.85
531.23	25706.79
531.431	25798.94
531.632	25903.39
531.833	26114.33
532.035	25887.01
532.236	26151.2
532.437	26063.13
532.638	25805.09
532.839	26034.46
533.04	26204.44
533.241	25899.3
533.442	26861.84
533.643	26366.23
533.844	26212.63
534.045	26163.48
534.246	26222.87
534.447	26546.45
534.648	26298.65
534.849	26304.79
535.05	26245.4
535.251	26599.7
535.451	26190.11
535.652	26378.52
535.853	26237.21
536.054	26390.81
536.255	26321.18
536.456	26341.66
536.657	26747.15
536.857	26325.27
537.058	26208.54
537.259	26628.37
537.46	26388.76
537.66	26331.42
537.861	26366.23
538.062	26560.79
538.263	26392.86
538.463	26327.32
538.664	26949.9
538.865	26390.81
539.065	26949.9
539.266	26468.63
539.466	26913.04
539.667	26300.7
539.868	26800.4
540.068	26460.44
540.269	26683.67
540.469	26550.55
540.67	26407.19
540.87	26620.18
541.071	26534.17
541.271	26476.82
541.472	26761.49
541.672	26450.2
541.873	26542.36
542.073	26239.26
542.274	26824.98
542.474	26528.02
542.675	26429.72
542.875	26824.98
543.075	26292.51
543.276	26138.91
543.476	26747.15
543.676	26173.72
543.877	26392.86
544.077	26806.55
544.277	26394.9
544.478	26456.34
544.678	26581.27
544.878	26442.01
545.078	26521.88
545.279	26380.57
545.479	26136.86
545.679	26626.32
545.879	26493.21
546.079	26695.96
546.28	26523.93
546.48	26460.44
546.68	26544.41
546.88	26382.62
547.08	26589.46
547.28	26214.68
547.48	26251.55
547.68	26487.06
547.88	25983.26
548.081	26388.76
548.281	26339.61
548.481	26298.65
548.681	26353.94
548.881	26599.7
549.081	26525.97
549.28	26126.62
549.48	26394.9
549.68	26454.29
549.88	26702.1
550.08	26140.96
550.28	26134.81
550.48	26347.8
550.68	26368.28
550.88	26130.72
551.08	26421.53
551.279	26353.94
551.479	25997.6
551.679	26179.87
551.879	26186.01
552.079	26280.22
552.278	25874.72
552.478	26358.04
552.678	26470.68
552.878	26317.08
553.077	26190.11
553.277	26040.61
553.477	26296.6
553.676	25966.88
553.876	26171.68
554.076	25981.21
554.275	25880.86
554.475	25674.02
554.674	25790.75
554.874	25991.45
555.074	25870.62
555.273	26003.74
555.473	26034.46
555.672	26016.03
555.872	25719.07
556.071	25733.41
556.271	25903.39
556.47	25755.94
556.67	25483.56
556.869	25663.78
557.068	25848.1
557.268	25418.02
557.467	25493.8
557.667	25426.21
557.866	25297.19
558.065	25063.72
558.265	25436.45
558.464	25071.92
558.663	25411.88
558.863	24875.31
559.062	25352.49
559.261	25135.4
559.461	25403.69
559.66	24813.87
559.859	25190.7
560.058	25057.58
560.258	24981.81
560.457	24883.5
560.656	25057.58
560.855	24922.41
561.054	25026.86
561.253	24746.29
561.453	24912.17
561.652	24807.73
561.851	25020.72
562.05	24725.81
562.249	24299.83
562.448	24641.84
562.647	24584.5
562.846	24422.71
563.045	24406.33
563.244	24156.47
563.443	24633.65
563.642	24248.63
563.841	24238.39
564.04	24043.84
564.239	24287.54
564.438	24035.64
564.637	23945.53
564.836	23884.09
565.035	23656.77
565.234	23687.49
565.432	23619.91
565.631	23548.23
565.83	23732.54
566.029	23425.35
566.228	23548.23
566.427	23296.33
566.625	23413.06
566.824	22929.74
567.023	23230.79
567.222	22683.98
567.42	23419.21
567.619	23128.39
567.818	22718.8
568.016	22808.91
568.215	22821.2
568.414	22589.78
568.612	22927.69
568.811	22749.52
569.01	22544.72
569.208	22278.49
569.407	22376.79
569.605	22489.43
569.804	22317.4
570.002	22120.79
570.201	22505.81
570.4	22065.5
570.598	21940.57
570.797	21963.1
570.995	22104.41
571.193	21606.75
571.392	21918.04
571.59	21571.94
571.789	21461.35
571.987	21602.66
572.186	21580.13
572.384	21539.17
572.582	21467.49
572.781	21602.66
572.979	21170.54
573.177	21111.14
573.376	21363.04
573.574	21195.11
573.772	21043.56
573.971	21129.58
574.169	20910.44
574.367	20853.1
574.565	20887.92
574.763	20734.32
574.962	20904.3
575.16	20500.85
575.358	20543.86
575.556	20091.26
575.754	20449.65
575.952	20197.75
576.151	20681.07
576.349	20093.3
576.547	19890.56
576.745	20195.7
576.943	20214.13
577.141	19974.52
577.339	20078.97
577.537	20027.77
577.735	19855.74
577.933	19673.47
578.131	19618.18
578.329	19663.23
578.527	19790.2
578.725	19741.05
578.923	19401.09
579.121	19478.91
579.319	19370.37
579.516	19380.61
579.714	19196.29
579.912	19306.88
580.11	19253.64
580.308	18923.91
580.506	19159.43
580.704	18653.58
580.901	19112.33
581.099	18823.56
581.297	18821.52
581.495	18618.77
581.692	18762.12
581.89	18805.13
582.088	18735.5
582.285	18641.29
582.483	18774.41
582.681	18239.89
582.878	18330
583.076	18088.34
583.274	18381.2
583.471	18229.65
583.669	18399.63
583.866	17914.27
584.064	18076.05
584.262	18086.29
584.459	17875.35
584.657	17944.98
584.854	17793.44
585.052	17856.92
585.249	17904.03
585.447	17893.79
585.644	17572.25
585.841	17510.82
586.039	17934.74
586.236	17451.42
586.434	17260.96
586.631	17519.01
586.828	17451.42
587.026	17324.45
587.223	17283.49
587.42	17222.05
587.618	17050.02
587.815	17129.89
588.012	16941.48
588.21	16742.83
588.407	17140.13
588.604	16900.52
588.801	16791.98
588.999	16738.73
589.196	16820.65
589.393	16961.96
589.59	16785.83
589.787	16665
589.984	16423.34
590.182	16341.43
590.379	16613.81
590.576	16423.34
590.773	16284.08
590.97	16017.85
591.167	16243.12
591.364	15985.08
591.561	16308.66
591.758	15915.45
591.955	16138.68
592.152	16015.8
592.349	15917.5
592.546	15712.7
592.743	15925.69
592.94	15743.42
593.137	15735.23
593.334	15976.89
593.531	15643.07
593.727	15751.61
593.924	15583.68
594.121	15602.11
594.318	15714.75
594.515	15370.69
594.712	15260.1
594.908	15425.98
595.105	15376.83
595.302	15196.61
595.499	15299.01
595.696	15141.32
595.892	15083.97
596.089	15053.25
596.286	15106.5
596.482	14877.13
596.679	14942.66
596.876	14891.46
597.072	14596.56
597.269	14840.26
597.466	14612.94
597.662	14643.66
597.859	14574.03
598.055	14920.13
598.252	14516.69
598.448	14492.11
598.645	14414.29
598.841	14522.83
599.038	14416.33
599.234	14414.29
599.431	14358.99
599.627	14307.79
599.824	14260.69
600.02	14129.62
600.217	14182.87
600.413	14232.02
600.609	14029.27
600.806	13959.64
601.002	14113.24
601.198	13953.49
601.395	13670.87
601.591	13812.18
601.787	13717.98
601.984	13984.21
602.18	13812.18
602.376	13636.06
602.572	13545.95
602.769	13535.71
602.965	13371.87
603.161	13541.85
603.357	13433.31
603.553	13472.22
603.75	13545.95
603.946	13117.92
604.142	13265.38
604.338	13222.37
604.534	13089.25
604.73	13124.07
604.926	13093.35
605.122	13326.82
605.318	13193.7
605.514	12890.6
605.71	12796.39
605.906	12874.21
606.102	13054.44
606.298	13050.34
606.494	12868.07
606.69	12874.21
606.886	12671.47
607.082	12556.78
607.278	12610.03
607.474	12595.69
607.67	12683.75
607.866	12470.76
608.062	12820.97
608.257	12509.68
608.453	12349.93
608.649	12587.5
608.845	12593.64
609.041	12247.54
609.236	12460.52
609.432	12374.51
609.628	12577.26
609.824	12110.32
610.019	12145.14
610.215	12235.25
610.411	12149.23
610.606	12397.04
610.802	12093.94
610.998	12100.08
611.193	12091.89
611.389	12163.57
611.584	11940.34
611.78	11762.17
611.976	11969.01
612.171	11926
612.367	12128.75
612.562	11911.67
612.758	11540.99
612.953	11747.83
613.149	11823.61
613.344	11934.2
613.539	11751.93
613.735	11737.59
613.93	11678.2
614.126	11708.92
614.321	11672.06
614.517	11581.95
614.712	11643.38
614.907	11465.21
615.103	11475.45
615.298	11545.08
615.493	11614.71
615.688	11366.91
615.884	11516.41
616.079	11389.44
616.274	11491.84
616.47	11313.66
616.665	11321.85
616.86	11391.48
617.055	11246.08
617.25	11106.82
617.445	11307.52
617.641	11045.38
617.836	11008.51
618.031	10977.8
618.226	11039.23
618.421	11096.58
618.616	11180.54
618.811	10922.5
619.006	10988.03
619.201	10660.36
619.396	10893.83
619.591	10889.73
619.786	10775.05
619.981	10789.38
620.176	10940.93
620.371	10721.8
620.566	10940.93
620.761	10633.74
620.956	10469.9
621.151	10486.28
621.346	10420.75
621.541	10637.83
621.735	10283.53
621.93	10193.42
622.125	10197.52
622.32	10062.35
622.515	10203.66
622.709	10107.41
622.904	9994.77
623.099	9990.67
623.294	10076.69
623.488	9828.88
623.683	9804.31
623.878	9789.97
624.072	9663
624.267	9839.12
624.462	9753.11
624.656	9550.36
624.851	9454.11
625.046	9585.18
625.24	9452.06
625.435	9382.43
625.629	9212.45
625.824	9341.47
626.018	9259.55
626.213	9038.37
626.407	9136.67
626.602	8968.74
626.796	8993.31
626.991	9103.9
627.185	9341.47
627.38	8895.01
627.574	8860.2
627.768	8882.72
627.963	8784.42
628.157	8636.97
628.352	8741.41
628.546	8288.81
628.74	8602.15
628.935	8630.82
629.129	8469.03
629.323	8403.5
629.517	8575.53
629.712	8251.95
629.906	8337.96
630.1	8202.8
630.294	8186.41
630.489	8165.93
630.683	8045.1
630.877	7866.93
631.071	8145.45
631.265	8043.06
631.459	7989.81
631.653	7940.66
631.848	7801.4
632.042	7639.61
632.236	7774.77
632.43	7723.57
632.624	7813.68
632.818	7615.03
633.012	7559.74
633.206	7694.9
633.4	7539.26
633.594	7426.62
633.788	7496.25
633.982	7572.02
634.176	7445.05
634.369	7234.11
634.563	7268.92
634.757	7377.47
634.951	7189.05
635.145	7219.77
635.339	7254.59
635.533	7301.69
635.726	7090.75
635.92	7049.79
636.114	6969.92
636.308	6969.92
636.501	6943.3
636.695	6982.21
636.889	6799.94
637.083	6789.7
637.276	6924.86
637.47	6806.08
637.664	6736.45
637.857	6781.51
638.051	6695.49
638.244	6711.88
638.438	6656.58
638.632	6390.35
638.825	6572.61
639.019	6462.02
639.212	6310.47
639.406	6408.78
639.599	6408.78
639.793	6283.85
639.986	6122.06
640.18	6339.15
640.373	6365.77
640.567	6333
640.76	6179.4
640.954	6128.21
641.147	5986.9
641.34	6085.2
641.534	5851.73
641.727	5904.98
641.92	5966.42
642.114	5802.58
642.307	5679.7
642.5	6007.38
642.694	5737.04
642.887	5896.78
643.08	5816.91
643.273	5859.92
643.467	5646.93
643.66	5542.49
643.853	5747.28
644.046	5476.95
644.239	5681.75
644.432	5507.67
644.626	5534.29
644.819	5485.14
645.012	5579.35
645.205	5423.7
645.398	5085.79
645.591	5276.25
645.784	5245.53
645.977	5300.83
646.17	5167.71
646.363	5214.81
646.556	5073.5
646.749	5106.27
646.942	5091.93
647.135	5214.81
647.328	5149.28
647.521	4971.1
647.714	5075.55
647.907	5016.16
648.099	4991.58
648.292	5083.74
648.485	4942.43
648.678	4792.93
648.871	4782.69
649.064	4792.93
649.256	4754.02
649.449	4901.47
649.642	4670.05
649.835	4733.54
650.027	4674.15
650.22	4778.59
650.413	4639.33
650.605	4647.52
650.798	4635.24
650.991	4586.08
651.183	4584.04
651.376	4547.17
651.568	4532.84
651.761	4395.62
651.954	4459.11
652.146	4500.07
652.339	4383.34
652.531	4495.97
652.724	4287.08
652.916	4244.07
653.109	4262.51
653.301	4395.62
653.494	4280.94
653.686	4184.68
653.879	4465.25
654.071	4242.03
654.263	4282.99
654.456	4260.46
654.648	4221.55
654.84	4149.87
655.033	4078.19
655.225	4160.11
655.417	4037.23
655.61	4014.7
655.802	4057.71
655.994	3998.32
656.186	4125.29
656.379	4031.09
656.571	3971.69
656.763	3953.26
656.955	3791.47
657.148	3959.41
657.34	3848.82
657.532	3789.42
657.724	3770.99
657.916	3887.73
658.108	3912.3
658.3	3787.38
658.492	3760.75
658.684	3547.76
658.876	3795.57
659.068	3721.84
659.26	3760.75
659.452	3713.65
659.644	3666.55
659.836	3691.12
660.028	3562.1
660.22	3596.92
660.412	3619.44
660.604	3474.04
660.796	3428.98
660.988	3564.15
661.18	3478.13
661.372	3494.52
661.563	3553.91
661.755	3607.16
661.947	3394.17
662.139	3433.08
662.331	3213.95
662.522	3299.96
662.714	3404.41
662.906	3435.13
663.097	3256.95
663.289	3338.87
663.481	3367.54
663.673	3213.95
663.864	3279.48
664.056	3136.12
664.247	3254.9
664.439	3152.51
664.631	3123.84
664.822	3289.72
665.014	3160.7
665.205	3101.31
665.397	3099.26
665.588	3046.01
665.78	3160.7
665.971	3072.64
666.163	3166.84
666.354	3072.64
666.546	3211.9
666.737	2955.9
666.929	3076.73
667.12	2859.65
667.311	3226.23
667.503	2839.17
667.694	3000.96
667.885	2919.04
668.077	2980.48
668.268	3013.24
668.459	2953.85
668.651	2824.83
668.842	2947.71
669.033	2900.61
669.224	2929.28
669.416	2957.95
669.607	2867.84
669.798	2716.29
669.989	2869.89
670.18	2867.84
670.371	2763.39
670.563	2826.88
670.754	2816.64
670.945	2583.17
671.136	2820.74
671.327	2687.62
671.518	2800.26
671.709	2855.55
671.9	2783.87
672.091	2765.44
672.282	2781.82
672.473	2820.74
672.664	2677.38
672.855	2642.56
673.046	2757.25
673.237	2695.81
673.428	2660.99
673.619	2665.09
673.809	2607.75
674	2591.36
674.191	2732.67
674.382	2642.56
674.573	2607.75
674.764	2654.85
674.954	2585.22
675.145	2570.88
675.336	2599.55
675.527	2556.55
675.717	2503.3
675.908	2509.44
676.099	2527.88
676.289	2552.45
676.48	2517.64
676.671	2374.28
676.861	2462.34
677.052	2439.81
677.243	2355.85
677.433	2595.46
677.624	2470.53
677.814	2464.39
678.005	2476.68
678.195	2572.93
678.386	2437.77
678.576	2409.09
678.767	2460.29
678.957	2443.91
679.148	2601.6
679.338	2378.37
679.529	2402.95
679.719	2476.68
679.909	2431.62
680.1	2407.05
680.29	2450.05
680.481	2384.52
680.671	2378.37
680.861	2341.51
681.052	2437.77
681.242	2372.23
681.432	2392.71
681.622	2333.32
681.813	2370.18
682.003	2351.75
682.193	2372.23
682.383	2318.98
682.573	2378.37
682.764	2384.52
682.954	2464.39
683.144	2343.56
683.334	2411.14
683.524	2462.34
683.714	2294.41
683.904	2452.1
684.094	2435.72
684.284	2396.81
684.474	2368.13
684.664	2284.17
684.854	2478.72
685.044	2335.37
685.234	2200.2
685.424	2228.87
685.614	2144.91
685.804	2237.06
685.994	2288.26
686.184	2331.27
686.374	2210.44
686.564	2212.49
686.753	2185.87
686.943	2243.21
687.133	2175.63
687.323	2083.47
687.513	2155.15
687.702	2165.39
687.892	2085.51
688.082	2134.67
688.272	2167.43
688.461	2103.95
688.651	2077.32
688.841	2192.01
689.03	2140.81
689.22	2149
689.41	2181.77
689.599	2122.38
689.789	2202.25
689.979	2062.99
690.168	2087.56
690.358	2091.66
690.547	2091.66
690.737	2038.41
690.926	1938.06
691.116	2058.89
691.305	2235.02
691.495	1858.19
691.684	2038.41
691.874	2034.32
692.063	1960.59
692.252	1964.68
692.442	1931.92
692.631	1948.3
692.82	1858.19
693.01	2009.74
693.199	1931.92
693.388	2019.98
693.578	2007.69
693.767	1927.82
693.956	1958.54
694.146	1966.73
694.335	2034.32
694.524	1895.05
694.713	1858.19
694.902	1876.62
695.092	1874.57
695.281	2009.74
695.47	1933.97
695.659	1839.76
695.848	1884.81
696.037	1882.77
696.226	1954.44
696.415	1876.62
696.604	1962.64
696.793	1806.99
696.982	1821.33
697.171	1925.77
697.36	1847.95
697.549	1845.9
697.738	1856.14
697.927	1897.1
698.116	1946.25
698.305	1979.02
698.494	1958.54
698.683	1845.9
698.872	1835.66
699.061	1862.29
699.25	1886.86
699.438	1837.71
699.627	1770.13
699.816	1860.24
700.005	1823.37
700.193	1831.57
700.382	1763.98
700.571	1893.01
700.76	1841.81
700.948	1874.57
701.137	1862.29
701.326	1850
701.514	1841.81
701.703	1866.38
701.892	1899.15
702.08	1909.39
702.269	1774.22
702.457	1802.9
702.646	1942.16
702.834	1854.09
703.023	1933.97
703.212	1864.33
703.4	1940.11
703.589	1776.27
703.777	1708.69
703.965	1843.85
704.154	1936.01
704.342	1895.05
704.531	1915.53
704.719	1903.25
704.907	1847.95
705.096	1868.43
705.284	1864.33
705.472	1925.77
705.661	1835.66
705.849	1850
706.037	1938.06
706.226	1956.49
706.414	1909.39
706.602	1806.99
706.79	1850
706.979	1788.56
707.167	1809.04
707.355	1903.25
707.543	1858.19
707.731	1976.97
707.919	1845.9
708.107	1835.66
708.296	1815.18
708.484	1942.16
708.672	1839.76
708.86	1806.99
709.048	1888.91
709.236	1880.72
709.424	1929.87
709.612	2024.08
709.8	1866.38
709.988	1868.43
710.176	1831.57
710.364	1843.85
710.551	1788.56
710.739	1944.2
710.927	1843.85
711.115	1843.85
711.303	1847.95
711.491	1880.72
711.679	1843.85
711.866	1837.71
712.054	1850
712.242	1772.18
712.43	1837.71
712.617	1845.9
712.805	1983.12
712.993	1944.2
713.181	1786.51
713.368	1854.09
713.556	1757.84
713.744	1837.71
713.931	1956.49
714.119	1852.05
714.306	1911.44
714.494	1864.33
714.682	1919.63
714.869	1809.04
715.057	1731.22
715.244	1802.9
715.432	1850
715.619	1884.81
715.807	1860.24
715.994	1933.97
716.182	1895.05
716.369	1856.14
716.556	1954.44
716.744	1835.66
716.931	1809.04
717.119	1936.01
717.306	1845.9
717.493	1823.37
717.681	1858.19
717.868	1749.65
718.055	1864.33
718.242	1919.63
718.43	1897.1
718.617	1854.09
718.804	1868.43
718.991	1864.33
719.179	1782.42
719.366	1833.61
719.553	1954.44
719.74	1823.37
719.927	1845.9
720.114	1911.44
720.301	1907.34
720.488	1854.09
720.676	1794.7
720.863	1868.43
721.05	1878.67
721.237	1780.37
721.424	1854.09
721.611	1960.59
721.798	1829.52
721.985	1866.38
722.172	1886.86
722.358	1845.9
722.545	1870.48
722.732	1800.85
722.919	1933.97
723.106	1825.42
723.293	1895.05
723.48	1761.94
723.667	1903.25
723.853	1864.33
724.04	1911.44
724.227	1862.29
724.414	1784.46
724.6	1856.14
724.787	1862.29
724.974	1837.71
725.161	1753.74
725.347	1888.91
725.534	1833.61
725.72	1768.08
725.907	1874.57
726.094	1772.18
726.28	1876.62
726.467	1927.82
726.653	1850
726.84	1782.42
727.027	1956.49
727.213	1829.52
727.4	1850
727.586	1931.92
727.773	1774.22
727.959	1784.46
728.145	1864.33
728.332	1843.85
728.518	1903.25
728.705	1766.03
728.891	1886.86
729.077	1800.85
729.264	1895.05
729.45	1833.61
729.636	1815.18
729.823	1839.76
730.009	1913.49
730.195	1911.44
730.382	1772.18
730.568	1768.08
730.754	1774.22
730.94	1784.46
731.126	1954.44
731.313	1804.94
731.499	1827.47
731.685	1899.15
731.871	1901.2
732.057	1895.05
732.243	1794.7
732.429	1831.57
732.615	1899.15
732.801	1878.67
732.987	1763.98
733.173	1792.66
733.359	1872.53
733.545	1749.65
733.731	1856.14
733.917	1837.71
734.103	1890.96
734.289	1843.85
734.475	1886.86
734.661	1858.19
734.847	1825.42
735.033	1843.85
735.219	1796.75
735.404	1804.94
735.59	1919.63
735.776	1784.46
735.962	1884.81
736.148	1804.94
736.333	1784.46
736.519	1841.81
736.705	1858.19
736.89	1809.04
737.076	1766.03
737.262	1882.77
737.447	1677.97
737.633	1819.28
737.819	1786.51
738.004	1823.37
738.19	1712.78
738.375	1825.42
738.561	1788.56
738.747	1774.22
738.932	1827.47
739.118	1882.77
739.303	1749.65
739.489	1706.64
739.674	1698.45
739.859	1729.17
740.045	1735.31
740.23	1723.02
740.416	1784.46
740.601	1624.72
740.786	1718.93
740.972	1632.91
741.157	1669.78
741.342	1761.94
741.528	1616.53
741.713	1741.46
741.898	1712.78
742.084	1661.59
742.269	1663.63
742.454	1669.78
742.639	1690.26
742.824	1704.59
743.01	1706.64
743.195	1772.18
743.38	1657.49
743.565	1634.96
743.75	1573.52
743.935	1612.43
744.12	1622.67
744.305	1608.34
744.49	1548.95
744.675	1598.1
744.86	1524.37
745.045	1608.34
745.23	1591.95
745.415	1479.32
745.6	1632.91
745.785	1514.13
745.97	1632.91
746.155	1557.14
746.34	1567.38
746.525	1567.38
746.71	1526.42
746.895	1534.61
747.079	1530.52
747.264	1487.51
747.449	1456.79
747.634	1536.66
747.819	1434.26
748.003	1428.12
748.188	1376.92
748.373	1548.95
748.557	1350.29
748.742	1434.26
748.927	1421.97
749.111	1454.74
749.296	1338.01
749.481	1374.87
749.665	1387.16
749.85	1370.77
750.034	1405.59
750.219	1360.53
750.404	1295
750.588	1295
750.773	1249.94
750.957	1407.64
751.141	1288.86
751.326	1305.24
751.51	1219.22
751.695	1301.14
751.879	1288.86
752.064	1374.87
752.248	1381.01
752.432	1219.22
752.617	1258.14
752.801	1288.86
752.985	1213.08
753.17	1225.37
753.354	1217.18
753.538	1249.94
753.722	1235.61
753.907	1251.99
754.091	1118.87
754.275	1251.99
754.459	1161.88
754.643	1141.4
754.828	1110.68
755.012	1086.11
755.196	1127.07
755.38	1231.51
755.564	1133.21
755.748	1045.15
755.932	1026.71
756.116	1137.31
756.3	1010.33
756.484	1094.3
756.668	1065.63
756.852	1073.82
757.036	1065.63
757.22	1133.21
757.404	1053.34
757.588	1057.43
757.772	1002.14
757.956	1104.54
758.14	989.85
758.323	957.08
758.507	1141.4
758.691	1094.3
758.875	1034.91
759.059	1075.87
759.242	987.8
759.426	955.04
759.61	991.9
759.794	989.85
759.977	977.56
760.161	1055.39
760.345	901.79
760.528	938.65
760.712	938.65
760.895	991.9
761.079	918.17
761.263	860.83
761.446	891.55
761.63	1020.57
761.813	893.6
761.997	924.32
762.18	895.64
762.364	971.42
762.547	903.84
762.731	930.46
762.914	946.84
763.098	860.83
763.281	858.78
763.464	955.04
763.648	946.84
763.831	852.64
764.015	848.54
764.198	795.29
764.381	807.58
764.564	858.78
764.748	856.73
764.931	866.97
765.114	803.49
765.297	928.41
765.481	797.34
765.664	764.57
765.847	772.77
766.03	856.73
766.213	740
766.397	787.1
766.58	770.72
766.763	838.3
766.946	793.25
767.129	737.95
767.312	828.06
767.495	750.24
767.678	766.62
767.861	764.57
768.044	879.26
768.227	826.01
768.41	701.09
768.593	799.39
768.776	819.87
768.959	821.92
769.142	735.9
769.324	740
769.507	656.03
769.69	678.56
769.873	653.98
770.056	807.58
770.239	766.62
770.421	762.53
770.604	715.42
770.787	670.37
770.97	758.43
771.152	690.85
771.335	707.23
771.518	676.51
771.7	686.75
771.883	819.87
772.066	707.23
772.248	735.9
772.431	733.86
772.613	758.43
772.796	746.14
772.978	635.55
773.161	735.9
773.343	719.52
773.526	596.64
773.708	649.89
773.891	594.59
774.073	647.84
774.256	649.89
774.438	701.09
774.621	533.15
774.803	658.08
774.985	594.59
775.168	633.51
775.35	565.92
775.532	713.38
775.715	578.21
775.897	615.07
776.079	608.93
776.261	604.83
776.444	537.25
776.626	615.07
776.808	594.59
776.99	563.87
777.173	586.4
777.355	594.59
777.537	555.68
777.719	608.93
777.901	604.83
778.083	524.96
778.265	522.91
778.447	621.22
778.629	606.88
778.811	567.97
778.993	567.97
779.175	514.72
779.357	504.48
779.539	502.43
779.721	535.2
779.903	510.63
780.085	434.85
780.267	502.43
780.449	518.82
780.631	586.4
780.812	514.72
780.994	463.52
781.176	547.49
781.358	463.52
781.54	461.48
781.721	459.43
781.903	455.33
782.085	477.86
782.267	422.56
782.448	453.28
782.63	465.57
782.812	406.18
782.993	455.33
783.175	416.42
783.357	426.66
783.538	473.76
783.72	432.8
783.901	424.61
784.083	408.23
784.264	408.23
784.446	494.24
784.627	350.89
784.809	377.51
784.99	334.5
785.172	453.28
785.353	373.41
785.535	393.89
785.716	438.95
785.897	379.56
786.079	365.22
786.26	344.74
786.441	375.46
786.623	328.36
786.804	344.74
786.985	408.23
787.167	391.84
787.348	324.26
787.529	318.12
787.71	369.32
787.891	277.16
788.073	391.84
788.254	336.55
788.435	426.66
788.616	428.71
788.797	289.45
788.978	318.12
789.159	352.93
789.34	346.79
789.522	346.79
789.703	340.65
789.884	279.21
790.065	354.98
790.246	400.04
790.427	307.88
790.607	404.13
790.788	258.73
790.969	314.02
791.15	316.07
791.331	277.16
791.512	326.31
791.693	244.39
791.874	377.51
792.054	395.94
792.235	359.08
792.416	193.19
792.597	301.73
792.778	311.97
792.958	311.97
793.139	281.25
793.32	279.21
793.5	199.34
793.681	320.17
793.862	225.96
794.042	242.34
794.223	273.06
794.404	207.53
794.584	268.97
794.765	193.19
794.945	307.88
795.126	311.97
795.306	277.16
795.487	334.5
795.667	234.15
795.848	275.11
796.028	262.82
796.209	275.11
796.389	293.54
796.57	291.49
796.75	248.49
796.93	256.68
797.111	256.68
797.291	232.1
797.471	191.14
797.652	246.44
797.832	256.68
798.012	279.21
798.192	211.62
798.373	273.06
798.553	242.34
798.733	271.01
798.913	205.48
799.093	170.66
799.274	207.53
799.454	248.49
799.634	236.2
799.814	164.52
799.994	203.43
800.174	217.77
800.354	248.49
800.534	209.58
800.714	203.43
800.894	268.97
801.074	207.53
801.254	203.43
801.434	223.91
801.614	187.05
801.794	264.87
801.974	543.39
802.154	201.38
802.334	201.38
802.514	201.38
802.693	242.34
802.873	150.18
803.053	176.81
803.233	197.29
803.413	195.24
803.592	139.94
803.772	217.77
803.952	176.81
804.131	211.62
804.311	207.53
804.491	180.9
804.67	174.76
804.85	228.01
805.03	166.57
805.209	215.72
805.389	180.9
805.568	105.13
805.748	152.23
805.928	189.1
806.107	197.29
806.287	201.38
806.466	154.28
806.646	141.99
806.825	154.28
807.004	164.52
807.184	258.73
807.363	170.66
807.543	127.66
807.722	113.32
807.901	166.57
808.081	205.48
808.26	156.33
808.439	164.52
808.619	160.42
808.798	164.52
808.977	168.62
809.156	197.29
809.336	174.76
809.515	230.06
809.694	144.04
809.873	107.18
810.052	199.34
810.231	117.42
810.411	168.62
810.59	148.14
810.769	131.75
810.948	258.73
811.127	158.38
811.306	164.52
811.485	84.65
811.664	187.05
811.843	160.42
812.022	164.52
812.201	109.22
812.38	144.04
812.559	92.84
812.737	117.42
812.916	94.89
813.095	119.46
813.274	131.75
813.453	168.62
813.632	123.56
813.811	131.75
813.989	49.83
814.168	156.33
814.347	158.38
814.526	82.6
814.704	221.86
814.883	158.38
815.062	137.9
815.24	115.37
815.419	144.04
815.598	121.51
815.776	127.66
815.955	127.66
816.133	139.94
816.312	119.46
816.49	115.37
816.669	80.55
816.847	92.84
817.026	154.28
817.204	58.03
817.383	133.8
817.561	90.79
817.74	185
817.918	111.27
818.097	152.23
818.275	148.14
818.453	205.48
818.632	107.18
818.81	129.7
818.988	141.99
819.167	133.8
819.345	185
819.523	166.57
819.701	111.27
819.879	84.65
820.058	123.56
820.236	135.85
820.414	37.55
820.592	58.03
820.77	96.94
820.948	92.84
821.127	117.42
821.305	135.85
821.483	148.14
821.661	25.26
821.839	101.03
822.017	49.83
822.195	141.99
822.373	115.37
822.551	80.55
822.729	72.36
822.907	133.8
823.085	156.33
823.262	90.79
823.44	49.83
823.618	98.99
823.796	76.46
823.974	35.5
824.152	58.03
824.329	74.41
824.507	49.83
824.685	76.46
824.863	90.79
825.04	53.93
825.218	70.31
825.396	121.51
825.574	127.66
825.751	86.7
825.929	115.37
826.107	127.66
826.284	125.61
826.462	68.27
826.639	119.46
826.817	74.41
826.994	21.16
827.172	39.59
827.349	111.27
827.527	129.7
827.704	105.13
827.882	105.13
828.059	45.74
828.237	35.5
828.414	80.55
828.591	23.21
828.769	148.14
828.946	62.12
829.124	94.89
829.301	141.99
829.478	68.27
829.655	62.12
829.833	101.03
830.01	51.88
830.187	92.84
830.364	84.65
830.542	111.27
830.719	105.13
830.896	68.27
831.073	125.61
831.25	98.99
831.427	101.03
831.604	170.66
831.782	92.84
831.959	121.51
832.136	90.79
832.313	150.18
832.49	62.12
832.667	96.94
832.844	17.07
833.021	129.7
833.198	19.11
833.374	53.93
833.551	23.21
833.728	12.97
833.905	86.7
834.082	51.88
834.259	84.65
834.436	88.75
834.612	88.75
834.789	19.11
834.966	39.59
835.143	154.28
835.319	86.7
835.496	98.99
835.673	43.69
835.85	88.75
836.026	156.33
836.203	160.42
836.38	121.51
836.556	58.03
836.733	74.41
836.909	119.46
837.086	31.4
837.262	74.41
837.439	33.45
837.616	43.69
837.792	51.88
837.968	74.41
838.145	53.93
838.321	47.79
838.498	-3.41
838.674	49.83
838.851	39.59
839.027	31.4
839.203	-7.51
839.38	41.64
839.556	15.02
839.732	43.69
839.909	84.65
840.085	60.07
840.261	80.55
840.437	74.41
840.614	60.07
840.79	25.26
840.966	55.98
841.142	31.4
841.318	39.59
841.494	82.6
841.671	35.5
841.847	74.41
842.023	66.22
842.199	88.75
842.375	74.41
842.551	74.41
842.727	60.07
842.903	121.51
843.079	2.73
843.255	29.35
843.431	125.61
843.607	37.55
843.783	-3.41
843.959	82.6
844.134	8.87
844.31	119.46
844.486	39.59
844.662	133.8
844.838	62.12
845.013	76.46
845.189	127.66
845.365	70.31
845.541	74.41
845.716	94.89
845.892	17.07
846.068	41.64
846.244	82.6
846.419	17.07
846.595	4.78
846.77	27.31
846.946	41.64
847.122	35.5
847.297	12.97
847.473	76.46
847.648	-15.7
847.824	-3.41
847.999	10.92
848.175	23.21
848.35	47.79
848.526	43.69
848.701	12.97
848.876	84.65
849.052	90.79
849.227	27.31
849.403	23.21
849.578	-34.13
849.753	25.26
849.929	109.22
850.104	8.87
850.279	51.88
850.454	31.4
850.63	60.07
850.805	15.02
850.98	23.21
851.155	10.92
851.33	43.69
851.505	29.35
851.681	0.68
851.856	-7.51
852.031	25.26
852.206	15.02
852.381	98.99
852.556	109.22
852.731	-25.94
852.906	12.97
853.081	25.26
853.256	70.31
853.431	19.11
853.606	19.11
853.781	88.75
853.956	-44.37
854.131	35.5
854.305	43.69
854.48	12.97
854.655	31.4
854.83	86.7
855.005	23.21
855.18	15.02
855.354	66.22
855.529	33.45
855.704	-5.46
855.879	10.92
856.053	10.92
856.228	78.51
856.403	-54.61
856.577	86.7
856.752	41.64
856.926	12.97
857.101	35.5
857.276	96.94
857.45	82.6
857.625	70.31
857.799	33.45
857.974	6.83
858.148	6.83
858.323	33.45
858.497	-52.56
858.672	45.74
858.846	-36.18
859.02	51.88
859.195	-13.65
859.369	6.83
859.543	27.31
859.718	58.03
859.892	55.98
860.066	82.6
860.241	35.5
860.415	117.42
860.589	27.31
860.763	-42.32
860.938	84.65
861.112	70.31
861.286	62.12
861.46	88.75
861.634	35.5
861.808	43.69
861.982	-36.18
862.157	-19.8
862.331	72.36
862.505	4.78
862.679	39.59
862.853	53.93
863.027	27.31
863.201	49.83
863.375	-23.89
863.549	74.41
863.722	86.7
863.896	21.16
864.07	19.11
864.244	39.59
864.418	6.83
864.592	-36.18
864.766	12.97
864.939	23.21
865.113	35.5
865.287	51.88
865.461	31.4
865.634	4.78
865.808	19.11
865.982	-1.37
866.156	25.26
866.329	-13.65
866.503	-5.46
866.676	92.84
866.85	-19.8
867.024	35.5
867.197	35.5
867.371	23.21
867.544	15.02
867.718	-3.41
867.891	8.87
868.065	80.55
868.238	17.07
868.412	86.7
868.585	17.07
868.759	21.16
868.932	39.59
869.105	-11.61
869.279	72.36
869.452	33.45
869.625	62.12
869.799	84.65
869.972	-42.32
870.145	15.02
870.319	39.59
870.492	31.4
870.665	-3.41
870.838	25.26
871.011	-27.99
871.185	4.78
871.358	-15.7
871.531	60.07
871.704	51.88
871.877	21.16
872.05	-5.46
872.223	29.35
872.396	31.4
872.569	55.98
872.742	25.26
872.915	51.88
873.088	25.26
873.261	-32.08
873.434	68.27
873.607	101.03
873.78	47.79
873.953	41.64
874.126	-48.47
874.299	78.51
874.471	49.83
874.644	90.79
874.817	51.88
874.99	33.45
875.163	-52.56
875.335	25.26
875.508	-11.61
875.681	17.07
875.853	39.59
876.026	33.45
876.199	64.17
876.371	33.45
876.544	-87.38
876.717	2.73
876.889	10.92
877.062	51.88
877.234	-54.61
877.407	82.6
877.579	43.69
877.752	62.12
877.924	15.02
878.097	12.97
878.269	37.55
878.442	-34.13
878.614	25.26
878.786	82.6
878.959	51.88
879.131	66.22
879.303	2.73
879.476	6.83
879.648	92.84
879.82	76.46
879.993	-38.23
880.165	80.55
880.337	68.27
880.509	-23.89
880.681	-54.61
880.854	-19.8
881.026	-7.51
881.198	-1.37
881.37	-19.8
881.542	0.68
881.714	17.07
881.886	41.64
882.058	37.55
882.23	31.4
882.402	27.31
882.574	-21.85
882.746	10.92
882.918	45.74
883.09	45.74
883.262	-9.56
883.434	19.11
883.606	4.78
883.778	-9.56
883.95	105.13
884.122	-1.37
884.293	80.55
884.465	21.16
884.637	8.87
884.809	17.07
884.98	39.59
885.152	43.69
885.324	88.75
885.496	-1.37
885.667	-27.99
885.839	-36.18
886.011	15.02
886.182	-25.94
886.354	27.31
886.525	37.55
886.697	62.12
886.869	33.45
887.04	62.12
887.212	-9.56
887.383	12.97
887.555	-52.56
887.726	-3.41
887.897	51.88
888.069	33.45
888.24	23.21
888.412	70.31
888.583	33.45
888.754	15.02
888.926	47.79
889.097	70.31
889.268	-79.19
889.44	43.69
889.611	2.73
889.782	51.88
889.953	-3.41
890.125	80.55
890.296	-9.56
890.467	27.31
890.638	-5.46
890.809	12.97
890.98	6.83
891.151	62.12
891.323	27.31
891.494	-5.46
891.665	-50.52
891.836	-27.99
892.007	15.02
892.178	33.45
892.349	35.5
892.52	39.59
892.691	19.11
892.862	-27.99
893.032	6.83
893.203	88.75
893.374	4.78
893.545	82.6
893.716	60.07
893.887	4.78
894.057	-17.75
894.228	-17.75
894.399	60.07
894.57	-21.85
894.74	8.87
894.911	-32.08
895.082	-30.04
895.253	-44.37
895.423	29.35
895.594	25.26
895.764	-19.8
895.935	25.26
896.106	39.59
896.276	6.83
896.447	45.74
896.617	-15.7
896.788	-5.46
896.958	-9.56
897.129	19.11
897.299	-34.13
897.47	96.94
897.64	-1.37
897.81	39.59
897.981	10.92
898.151	74.41
898.322	51.88
898.492	23.21
898.662	-50.52
898.832	-9.56
899.003	-17.75
899.173	-7.51
899.343	21.16
899.513	0.68
