Data from USB4F104151__111__11-07-17-978.txt Node

Date: Wed Mar 12 11:07:17 EDT 2025
User: louis
Spectrometer: USB4F10415
Trigger mode: 4
Integration Time (sec): 2.000000E-2
Scans to average: 1
Electric dark correction enabled: true
Nonlinearity correction enabled: false
Boxcar width: 0
XAxis mode: Wavelengths
Number of Pixels in Spectrum: 3648
>>>>>Begin Spectral Data<<<<<
178.204	-57.86
178.424	-57.86
178.644	-57.86
178.864	-41.47
179.084	-113.15
179.304	36.35
179.524	-61.95
179.744	-0.51
179.964	-23.04
180.184	-51.71
180.404	19.97
180.624	3.58
180.844	32.26
181.064	9.73
181.283	13.82
181.503	5.63
181.723	15.87
181.943	-43.52
182.163	62.98
182.383	-37.38
182.602	11.78
182.822	-37.38
183.042	108.03
183.262	62.98
183.482	13.82
183.701	-18.94
183.921	-12.8
184.141	26.11
184.361	42.5
184.58	69.12
184.8	50.69
185.02	1.54
185.239	19.97
185.459	-33.28
185.679	65.02
185.898	-115.2
186.118	48.64
186.338	11.78
186.557	19.97
186.777	56.83
186.997	22.02
187.216	17.92
187.436	-37.38
187.655	17.92
187.875	62.98
188.095	-25.09
188.314	-20.99
188.534	-29.18
188.753	60.93
188.973	36.35
189.192	1.54
189.412	11.78
189.631	22.02
189.851	9.73
190.07	56.83
190.29	32.26
190.509	-18.94
190.729	38.4
190.948	-2.56
191.168	89.6
191.387	22.02
191.607	101.89
191.826	-14.85
192.045	7.68
192.265	56.83
192.484	-0.51
192.704	3.58
192.923	-25.09
193.142	103.93
193.362	36.35
193.581	58.88
193.8	13.82
194.02	-4.61
194.239	15.87
194.458	44.54
194.678	28.16
194.897	-37.38
195.116	36.35
195.335	48.64
195.555	9.73
195.774	15.87
195.993	89.6
196.212	-113.15
196.432	22.02
196.651	-0.51
196.87	11.78
197.089	130.56
197.308	1.54
197.528	15.87
197.747	5.63
197.966	5.63
198.185	69.12
198.404	19.97
198.623	28.16
198.842	-8.7
199.062	79.36
199.281	3.58
199.5	9.73
199.719	93.69
199.938	34.3
200.157	38.4
200.376	28.16
200.595	-18.94
200.814	97.79
201.033	116.22
201.252	-6.66
201.471	32.26
201.69	50.69
201.909	-16.9
202.128	11.78
202.347	36.35
202.566	48.64
202.785	17.92
203.004	46.59
203.223	58.88
203.442	44.54
203.661	-10.75
203.879	46.59
204.098	28.16
204.317	3.58
204.536	38.4
204.755	17.92
204.974	22.02
205.193	26.11
205.411	-8.7
205.63	17.92
205.849	95.74
206.068	44.54
206.287	56.83
206.505	34.3
206.724	-55.81
206.943	-31.23
207.162	17.92
207.381	34.3
207.599	9.73
207.818	-39.42
208.037	15.87
208.255	38.4
208.474	-8.7
208.693	44.54
208.911	1.54
209.13	30.21
209.349	-35.33
209.567	44.54
209.786	75.26
210.005	-29.18
210.223	24.06
210.442	36.35
210.661	40.45
210.879	34.3
211.098	-8.7
211.316	13.82
211.535	46.59
211.753	-18.94
211.972	32.26
212.191	-37.38
212.409	-47.62
212.628	-16.9
212.846	81.41
213.065	62.98
213.283	87.55
213.502	-10.75
213.72	83.45
213.938	77.31
214.157	36.35
214.375	17.92
214.594	46.59
214.812	-0.51
215.031	-20.99
215.249	3.58
215.467	32.26
215.686	79.36
215.904	120.32
216.122	13.82
216.341	44.54
216.559	-6.66
216.778	19.97
216.996	52.74
217.214	30.21
217.432	-16.9
217.651	-16.9
217.869	-18.94
218.087	-0.51
218.306	32.26
218.524	36.35
218.742	-20.99
218.96	13.82
219.179	28.16
219.397	75.26
219.615	79.36
219.833	28.16
220.051	60.93
220.27	-31.23
220.488	38.4
220.706	67.07
220.924	-14.85
221.142	24.06
221.36	-18.94
221.578	5.63
221.796	15.87
222.015	46.59
222.233	22.02
222.451	9.73
222.669	15.87
222.887	30.21
223.105	-25.09
223.323	32.26
223.541	7.68
223.759	77.31
223.977	11.78
224.195	81.41
224.413	1.54
224.631	75.26
224.849	32.26
225.067	73.21
225.285	28.16
225.503	65.02
225.721	11.78
225.939	-64
226.157	30.21
226.375	85.5
226.592	-16.9
226.81	11.78
227.028	-37.38
227.246	7.68
227.464	-31.23
227.682	65.02
227.9	87.55
228.117	-23.04
228.335	-35.33
228.553	56.83
228.771	-2.56
228.989	17.92
229.206	42.5
229.424	26.11
229.642	1.54
229.86	34.3
230.077	-4.61
230.295	42.5
230.513	67.07
230.731	97.79
230.948	40.45
231.166	-10.75
231.384	15.87
231.601	44.54
231.819	-20.99
232.037	-8.7
232.254	40.45
232.472	-25.09
232.689	36.35
232.907	28.16
233.125	-25.09
233.342	-45.57
233.56	-25.09
233.777	46.59
233.995	-0.51
234.213	118.27
234.43	50.69
234.648	1.54
234.865	46.59
235.083	1.54
235.3	56.83
235.518	56.83
235.735	-14.85
235.953	7.68
236.17	15.87
236.388	-8.7
236.605	22.02
236.822	40.45
237.04	19.97
237.257	24.06
237.475	-39.42
237.692	40.45
237.909	-2.56
238.127	-20.99
238.344	116.22
238.562	-4.61
238.779	44.54
238.996	13.82
239.214	-31.23
239.431	3.58
239.648	48.64
239.865	17.92
240.083	7.68
240.3	15.87
240.517	-16.9
240.735	3.58
240.952	95.74
241.169	-4.61
241.386	30.21
241.603	34.3
241.821	9.73
242.038	75.26
242.255	13.82
242.472	58.88
242.689	11.78
242.907	34.3
243.124	26.11
243.341	36.35
243.558	-27.14
243.775	-0.51
243.992	-61.95
244.209	11.78
244.426	83.45
244.643	52.74
244.86	42.5
245.078	-25.09
245.295	32.26
245.512	30.21
245.729	11.78
245.946	-0.51
246.163	44.54
246.38	89.6
246.597	52.74
246.814	24.06
247.031	36.35
247.248	-2.56
247.464	32.26
247.681	38.4
247.898	105.98
248.115	19.97
248.332	15.87
248.549	112.13
248.766	11.78
248.983	71.17
249.2	42.5
249.417	69.12
249.633	-27.14
249.85	17.92
250.067	-6.66
250.284	65.02
250.501	-23.04
250.717	17.92
250.934	-25.09
251.151	26.11
251.368	-86.53
251.585	17.92
251.801	36.35
252.018	-14.85
252.235	40.45
252.451	11.78
252.668	-92.67
252.885	110.08
253.102	110.08
253.318	38.4
253.535	56.83
253.752	-23.04
253.968	26.11
254.185	32.26
254.401	7.68
254.618	15.87
254.835	34.3
255.051	71.17
255.268	75.26
255.484	62.98
255.701	15.87
255.917	75.26
256.134	-98.81
256.351	-23.04
256.567	-10.75
256.784	28.16
257	-12.8
257.217	-0.51
257.433	17.92
257.65	91.65
257.866	-4.61
258.082	-61.95
258.299	-12.8
258.515	19.97
258.732	52.74
258.948	11.78
259.165	-27.14
259.381	26.11
259.597	-70.14
259.814	17.92
260.03	44.54
260.246	24.06
260.463	24.06
260.679	9.73
260.895	-29.18
261.112	50.69
261.328	40.45
261.544	26.11
261.761	50.69
261.977	34.3
262.193	-37.38
262.409	65.02
262.626	38.4
262.842	44.54
263.058	11.78
263.274	93.69
263.49	60.93
263.707	81.41
263.923	65.02
264.139	13.82
264.355	101.89
264.571	65.02
264.787	-10.75
265.004	42.5
265.22	36.35
265.436	-14.85
265.652	-8.7
265.868	-2.56
266.084	3.58
266.3	9.73
266.516	-4.61
266.732	54.78
266.948	-4.61
267.164	30.21
267.38	48.64
267.596	56.83
267.812	75.26
268.028	32.26
268.244	42.5
268.46	-33.28
268.676	-18.94
268.892	40.45
269.108	-53.76
269.324	-0.51
269.54	26.11
269.756	54.78
269.972	-2.56
270.188	11.78
270.403	15.87
270.619	26.11
270.835	32.26
271.051	50.69
271.267	42.5
271.483	36.35
271.698	17.92
271.914	85.5
272.13	15.87
272.346	13.82
272.562	-23.04
272.777	32.26
272.993	67.07
273.209	24.06
273.425	48.64
273.64	1.54
273.856	110.08
274.072	54.78
274.287	40.45
274.503	73.21
274.719	44.54
274.934	52.74
275.15	-25.09
275.366	5.63
275.581	19.97
275.797	-35.33
276.012	30.21
276.228	-6.66
276.444	13.82
276.659	15.87
276.875	-39.42
277.09	-0.51
277.306	99.84
277.521	17.92
277.737	-31.23
277.952	60.93
278.168	48.64
278.383	85.5
278.599	38.4
278.814	85.5
279.03	22.02
279.245	24.06
279.461	-29.18
279.676	50.69
279.892	46.59
280.107	11.78
280.322	22.02
280.538	52.74
280.753	-8.7
280.969	22.02
281.184	65.02
281.399	71.17
281.615	28.16
281.83	28.16
282.045	54.78
282.26	-4.61
282.476	7.68
282.691	-2.56
282.906	30.21
283.122	32.26
283.337	-31.23
283.552	44.54
283.767	15.87
283.983	54.78
284.198	30.21
284.413	85.5
284.628	69.12
284.843	89.6
285.058	3.58
285.274	22.02
285.489	-12.8
285.704	60.93
285.919	79.36
286.134	24.06
286.349	-37.38
286.564	122.37
286.779	15.87
286.995	38.4
287.21	-12.8
287.425	67.07
287.64	50.69
287.855	73.21
288.07	52.74
288.285	65.02
288.5	69.12
288.715	7.68
288.93	7.68
289.145	52.74
289.36	28.16
289.575	-4.61
289.79	30.21
290.004	19.97
290.219	3.58
290.434	26.11
290.649	56.83
290.864	54.78
291.079	-25.09
291.294	54.78
291.509	46.59
291.724	65.02
291.938	44.54
292.153	-16.9
292.368	-0.51
292.583	-12.8
292.798	7.68
293.012	-31.23
293.227	40.45
293.442	-27.14
293.657	-4.61
293.871	58.88
294.086	36.35
294.301	81.41
294.516	9.73
294.73	67.07
294.945	28.16
295.16	-45.57
295.374	13.82
295.589	46.59
295.804	30.21
296.018	-25.09
296.233	58.88
296.447	58.88
296.662	-8.7
296.877	-4.61
297.091	56.83
297.306	3.58
297.52	52.74
297.735	95.74
297.949	69.12
298.164	36.35
298.378	89.6
298.593	60.93
298.807	3.58
299.022	11.78
299.236	13.82
299.451	46.59
299.665	-8.7
299.88	-29.18
300.094	11.78
300.309	48.64
300.523	30.21
300.737	62.98
300.952	-25.09
301.166	13.82
301.381	60.93
301.595	69.12
301.809	-37.38
302.024	3.58
302.238	-8.7
302.452	40.45
302.667	73.21
302.881	-0.51
303.095	67.07
303.309	11.78
303.524	19.97
303.738	-16.9
303.952	-8.7
304.166	32.26
304.381	1.54
304.595	9.73
304.809	-0.51
305.023	69.12
305.237	50.69
305.452	30.21
305.666	50.69
305.88	-6.66
306.094	77.31
306.308	83.45
306.522	42.5
306.736	75.26
306.95	52.74
307.164	-6.66
307.379	-8.7
307.593	103.93
307.807	32.26
308.021	52.74
308.235	-25.09
308.449	24.06
308.663	26.11
308.877	22.02
309.091	19.97
309.305	58.88
309.519	-20.99
309.733	3.58
309.947	50.69
310.161	87.55
310.374	5.63
310.588	-16.9
310.802	9.73
311.016	-18.94
311.23	28.16
311.444	24.06
311.658	-37.38
311.872	-61.95
312.085	73.21
312.299	73.21
312.513	50.69
312.727	13.82
312.941	62.98
313.154	-2.56
313.368	62.98
313.582	34.3
313.796	-10.75
314.009	24.06
314.223	15.87
314.437	11.78
314.651	38.4
314.864	50.69
315.078	-6.66
315.292	19.97
315.505	-25.09
315.719	38.4
315.933	-14.85
316.146	17.92
316.36	118.27
316.573	36.35
316.787	-0.51
317.001	30.21
317.214	26.11
317.428	28.16
317.641	44.54
317.855	19.97
318.068	7.68
318.282	24.06
318.495	58.88
318.709	30.21
318.922	40.45
319.136	40.45
319.349	1.54
319.563	52.74
319.776	28.16
319.99	-29.18
320.203	19.97
320.417	50.69
320.63	65.02
320.843	22.02
321.057	3.58
321.27	46.59
321.483	44.54
321.697	93.69
321.91	116.22
322.124	32.26
322.337	36.35
322.55	7.68
322.763	67.07
322.977	17.92
323.19	-20.99
323.403	58.88
323.617	-0.51
323.83	81.41
324.043	19.97
324.256	7.68
324.469	-23.04
324.683	15.87
324.896	7.68
325.109	38.4
325.322	44.54
325.535	69.12
325.748	-8.7
325.962	-70.14
326.175	101.89
326.388	17.92
326.601	50.69
326.814	-8.7
327.027	28.16
327.24	15.87
327.453	9.73
327.666	95.74
327.879	52.74
328.092	32.26
328.305	-51.71
328.518	40.45
328.731	62.98
328.944	-10.75
329.157	105.98
329.37	-8.7
329.583	24.06
329.796	40.45
330.009	34.3
330.222	40.45
330.435	-43.52
330.648	3.58
330.861	67.07
331.073	19.97
331.286	42.5
331.499	77.31
331.712	67.07
331.925	46.59
332.138	-45.57
332.35	122.37
332.563	17.92
332.776	13.82
332.989	28.16
333.202	-18.94
333.414	42.5
333.627	89.6
333.84	52.74
334.053	17.92
334.265	-16.9
334.478	54.78
334.691	50.69
334.903	-8.7
335.116	-23.04
335.329	67.07
335.541	42.5
335.754	-0.51
335.966	13.82
336.179	19.97
336.392	44.54
336.604	9.73
336.817	46.59
337.029	-2.56
337.242	81.41
337.454	50.69
337.667	19.97
337.88	75.26
338.092	101.89
338.305	-6.66
338.517	44.54
338.729	34.3
338.942	97.79
339.154	44.54
339.367	54.78
339.579	34.3
339.792	24.06
340.004	3.58
340.217	56.83
340.429	22.02
340.641	24.06
340.854	44.54
341.066	11.78
341.278	151.04
341.491	24.06
341.703	65.02
341.915	22.02
342.128	19.97
342.34	36.35
342.552	46.59
342.764	15.87
342.977	50.69
343.189	-88.57
343.401	83.45
343.613	28.16
343.826	56.83
344.038	40.45
344.25	103.93
344.462	-6.66
344.674	7.68
344.886	73.21
345.099	-8.7
345.311	65.02
345.523	-23.04
345.735	62.98
345.947	-14.85
346.159	22.02
346.371	-14.85
346.583	-8.7
346.795	22.02
347.007	-6.66
347.219	65.02
347.431	30.21
347.643	128.51
347.855	50.69
348.067	36.35
348.279	42.5
348.491	30.21
348.703	54.78
348.915	50.69
349.127	24.06
349.339	19.97
349.551	38.4
349.763	15.87
349.975	93.69
350.187	-2.56
350.399	15.87
350.61	11.78
350.822	71.17
351.034	101.89
351.246	36.35
351.458	11.78
351.669	44.54
351.881	83.45
352.093	40.45
352.305	3.58
352.517	-45.57
352.728	34.3
352.94	-20.99
353.152	-23.04
353.363	28.16
353.575	128.51
353.787	60.93
353.999	-2.56
354.21	32.26
354.422	-0.51
354.633	56.83
354.845	48.64
355.057	52.74
355.268	71.17
355.48	1.54
355.692	-16.9
355.903	-12.8
356.115	9.73
356.326	42.5
356.538	73.21
356.749	50.69
356.961	67.07
357.172	36.35
357.384	101.89
357.595	112.13
357.807	34.3
358.018	22.02
358.23	130.56
358.441	99.84
358.653	54.78
358.864	71.17
359.075	15.87
359.287	54.78
359.498	132.61
359.709	50.69
359.921	67.07
360.132	77.31
360.344	34.3
360.555	15.87
360.766	22.02
360.977	17.92
361.189	34.3
361.4	52.74
361.611	97.79
361.823	24.06
362.034	42.5
362.245	42.5
362.456	52.74
362.667	75.26
362.879	-39.42
363.09	28.16
363.301	32.26
363.512	17.92
363.723	5.63
363.935	81.41
364.146	69.12
364.357	67.07
364.568	97.79
364.779	17.92
364.99	40.45
365.201	-29.18
365.412	101.89
365.623	73.21
365.834	11.78
366.045	13.82
366.256	32.26
366.467	40.45
366.678	-0.51
366.889	-37.38
367.1	7.68
367.311	60.93
367.522	13.82
367.733	-0.51
367.944	42.5
368.155	48.64
368.366	15.87
368.577	58.88
368.788	32.26
368.999	-12.8
369.209	11.78
369.42	73.21
369.631	89.6
369.842	36.35
370.053	13.82
370.264	60.93
370.474	40.45
370.685	36.35
370.896	58.88
371.107	34.3
371.317	67.07
371.528	93.69
371.739	42.5
371.95	83.45
372.16	73.21
372.371	9.73
372.582	19.97
372.792	40.45
373.003	79.36
373.214	89.6
373.424	65.02
373.635	24.06
373.846	34.3
374.056	13.82
374.267	97.79
374.477	26.11
374.688	79.36
374.898	19.97
375.109	-10.75
375.319	19.97
375.53	-8.7
375.74	58.88
375.951	46.59
376.161	65.02
376.372	62.98
376.582	67.07
376.793	44.54
377.003	-14.85
377.214	24.06
377.424	3.58
377.635	42.5
377.845	54.78
378.055	73.21
378.266	5.63
378.476	97.79
378.686	69.12
378.897	56.83
379.107	32.26
379.317	73.21
379.528	69.12
379.738	95.74
379.948	9.73
380.158	58.88
380.369	44.54
380.579	50.69
380.789	48.64
380.999	32.26
381.21	79.36
381.42	48.64
381.63	73.21
381.84	38.4
382.05	-25.09
382.261	69.12
382.471	56.83
382.681	42.5
382.891	19.97
383.101	44.54
383.311	11.78
383.521	30.21
383.731	56.83
383.941	83.45
384.151	30.21
384.361	69.12
384.571	89.6
384.781	93.69
384.991	81.41
385.201	122.37
385.411	22.02
385.621	44.54
385.831	46.59
386.041	65.02
386.251	75.26
386.461	54.78
386.671	30.21
386.881	67.07
387.091	91.65
387.301	75.26
387.511	58.88
387.72	19.97
387.93	77.31
388.14	32.26
388.35	38.4
388.56	81.41
388.769	91.65
388.979	56.83
389.189	103.93
389.399	1.54
389.609	54.78
389.818	83.45
390.028	-10.75
390.238	77.31
390.447	3.58
390.657	114.17
390.867	99.84
391.076	44.54
391.286	60.93
391.496	136.7
391.705	124.41
391.915	81.41
392.125	116.22
392.334	28.16
392.544	50.69
392.753	24.06
392.963	19.97
393.172	56.83
393.382	-41.47
393.591	185.85
393.801	30.21
394.01	126.46
394.22	71.17
394.429	-8.7
394.639	83.45
394.848	79.36
395.058	83.45
395.267	69.12
395.477	40.45
395.686	136.7
395.895	81.41
396.105	122.37
396.314	-6.66
396.524	67.07
396.733	-23.04
396.942	22.02
397.152	105.98
397.361	77.31
397.57	71.17
397.78	204.28
397.989	99.84
398.198	134.65
398.407	95.74
398.617	95.74
398.826	132.61
399.035	161.28
399.244	77.31
399.453	79.36
399.663	34.3
399.872	132.61
400.081	-20.99
400.29	148.99
400.499	103.93
400.708	171.52
400.917	118.27
401.127	122.37
401.336	99.84
401.545	77.31
401.754	105.98
401.963	87.55
402.172	159.23
402.381	128.51
402.59	155.13
402.799	130.56
403.008	89.6
403.217	105.98
403.426	124.41
403.635	54.78
403.844	95.74
404.053	198.14
404.262	95.74
404.471	159.23
404.68	130.56
404.888	198.14
405.097	110.08
405.306	99.84
405.515	185.85
405.724	157.18
405.933	146.94
406.142	198.14
406.35	134.65
406.559	99.84
406.768	157.18
406.977	181.76
407.185	142.85
407.394	228.86
407.603	183.81
407.812	140.8
408.02	265.72
408.229	206.33
408.438	183.81
408.646	146.94
408.855	235
409.064	210.43
409.272	239.1
409.481	273.92
409.69	302.59
409.898	269.82
410.107	212.48
410.315	280.06
410.524	345.59
410.733	368.12
410.941	198.14
411.15	345.59
411.358	318.97
411.567	398.84
411.775	433.66
411.984	372.22
412.192	435.71
412.401	388.6
412.609	472.57
412.818	402.94
413.026	417.27
413.234	474.62
413.443	445.95
413.651	513.53
413.86	476.66
414.068	570.87
414.276	572.92
414.485	675.32
414.693	601.59
414.901	626.17
415.11	665.08
415.318	687.61
415.526	572.92
415.734	740.85
415.943	755.19
416.151	769.52
416.359	757.24
416.567	916.98
416.776	843.25
416.984	962.03
417.192	951.79
417.4	894.45
417.608	951.79
417.817	964.08
418.025	1046
418.233	1095.15
418.441	1115.63
418.649	1146.35
418.857	1156.59
419.065	1234.41
419.273	1129.97
419.481	1244.65
419.689	1342.96
419.897	1398.25
420.105	1367.53
420.313	1490.41
420.521	1506.79
420.729	1594.86
420.937	1629.67
421.145	1553.9
421.353	1697.25
421.561	1785.32
421.769	1830.37
421.977	1930.72
422.185	1867.24
422.393	2080.22
422.601	2065.89
422.809	2127.33
423.017	2176.48
423.224	2278.88
423.432	2393.56
423.64	2233.82
423.848	2483.67
424.056	2504.15
424.263	2639.32
424.471	2627.03
424.679	2698.71
424.887	2854.36
425.094	2874.84
425.302	3001.81
425.51	2993.62
425.718	3143.12
425.925	3227.09
426.133	3333.58
426.341	3485.13
426.548	3675.59
426.756	3679.69
426.964	3845.57
427.171	3921.35
427.379	4027.84
427.586	4058.56
427.794	4134.34
428.001	4482.49
428.209	4537.79
428.417	4591.03
428.624	4842.93
428.832	4982.2
429.039	4789.69
429.247	4832.69
429.454	5367.21
429.662	5578.15
429.869	5336.49
430.076	5588.39
430.284	5590.44
430.491	5864.87
430.699	6176.16
430.906	5979.56
431.114	6063.52
431.321	6346.14
431.528	6522.27
431.736	6884.76
431.943	7353.74
432.15	6970.77
432.358	7017.88
432.565	7564.68
432.772	7226.77
432.979	7845.26
433.187	7964.04
433.394	8181.12
433.601	8562.05
433.808	8641.92
434.016	8605.05
434.223	9080.18
434.43	9586.03
434.637	9145.72
434.844	9948.52
435.052	9964.9
435.259	9858.41
435.466	10063.21
435.673	9839.98
435.88	10718.56
436.087	11218.26
436.294	11236.69
436.501	10958.17
436.708	11230.55
436.915	11705.68
437.122	12035.4
437.329	11957.58
437.537	12496.19
437.743	12604.74
437.95	12385.6
438.157	13116.73
438.364	13759.79
438.571	13389.11
438.778	13425.97
438.985	14957.85
439.192	14454.05
439.399	14800.16
439.606	14476.58
439.813	15293.72
440.02	16471.3
440.227	15983.88
440.433	15914.25
440.64	16422.15
440.847	16215.3
441.054	16540.93
441.261	17595.64
441.467	17306.87
441.674	18054.38
441.881	18554.08
442.088	18486.5
442.294	18140.4
442.501	18896.1
442.708	19131.61
442.914	19963.09
443.121	20671.68
443.328	20210.89
443.534	21587.13
443.741	21025.98
443.948	20665.54
444.154	22529.19
444.361	22103.21
444.568	22113.45
444.774	22418.6
444.981	22619.3
445.187	23260.32
445.394	24196.24
445.6	23745.69
445.807	25967.73
446.013	24859.78
446.22	25345.15
446.426	26350.7
446.633	26649.71
446.839	27509.85
447.046	26330.22
447.252	28142.67
447.459	27939.93
447.665	27628.63
447.871	28943.43
448.078	29873.21
448.284	29068.36
448.491	29500.48
448.697	30829.61
448.903	30821.42
449.11	31290.4
449.316	30581.81
449.522	31228.96
449.728	32267.28
449.935	32494.61
450.141	32396.31
450.347	32951.31
450.553	32273.43
450.76	32412.69
450.966	33399.81
451.172	33246.21
451.378	34044.92
451.584	33475.59
451.791	33692.67
451.997	33696.77
452.203	34546.67
452.409	34339.83
452.615	34196.47
452.821	33008.65
453.027	32943.11
453.233	34206.71
453.44	32797.71
453.646	33498.11
453.852	33514.5
454.058	33760.25
454.264	32824.33
454.47	33580.03
454.676	32914.44
454.882	33893.37
455.088	30762.03
455.294	31007.78
455.5	31829.02
455.705	32115.73
455.911	30659.63
456.117	30331.95
456.323	29662.27
456.529	27903.06
456.735	29668.41
456.941	28615.76
457.147	28118.1
457.352	27509.85
457.558	27124.83
457.764	27171.94
457.97	26641.51
458.176	25918.58
458.381	26258.54
458.587	24716.42
458.793	24626.31
458.999	23483.55
459.204	25437.31
459.41	24444.04
459.616	23100.58
459.821	23102.62
460.027	22594.73
460.233	22254.76
460.438	21451.96
460.644	21269.69
460.85	20600.01
461.055	20266.19
461.261	20141.26
461.466	18902.24
461.672	18218.22
461.878	19477.72
462.083	18382.06
462.289	17911.02
462.494	17708.27
462.7	17134.84
462.905	16422.15
463.111	17069.31
463.316	17091.84
463.522	16610.56
463.727	16760.06
463.932	16514.31
464.138	16416.01
464.343	16616.71
464.549	16241.93
464.754	16813.31
464.959	16383.24
465.165	16196.87
465.37	15940.88
465.575	15373.59
465.781	16307.46
465.986	16252.17
466.191	15455.51
466.397	15265.05
466.602	14519.59
466.807	15131.93
467.012	14978.33
467.218	14703.9
467.423	14621.98
467.628	14730.53
467.833	15410.45
468.038	15064.35
468.244	14374.18
468.449	15037.72
468.654	14671.14
468.859	14482.72
469.064	14341.41
469.269	13731.12
469.474	14028.07
469.679	14288.17
469.885	13761.84
470.09	13880.62
470.295	13636.91
470.5	13575.47
470.705	13677.87
470.91	13415.73
471.115	13120.82
471.32	13511.99
471.525	13217.08
471.73	13059.38
471.935	13079.86
472.139	12547.39
472.344	12760.38
472.549	12375.36
472.754	12596.54
472.959	12315.97
473.164	11795.79
473.369	11851.08
473.574	12162.37
473.778	12133.7
473.983	12039.5
474.188	12053.83
474.393	11359.57
474.598	11464.02
474.802	11230.55
475.007	11261.27
475.212	11169.11
475.417	10665.31
475.621	10866.01
475.826	10771.8
476.031	10710.36
476.235	10640.73
476.44	10866.01
476.645	10521.95
476.849	10595.68
477.054	10351.97
477.259	10300.77
477.463	10311.01
477.668	10057.06
477.872	10055.01
478.077	9919.85
478.282	9522.54
478.486	9665.9
478.691	9538.93
478.895	9311.6
479.1	9553.26
479.304	9450.86
479.509	9287.03
479.713	9366.9
479.918	9268.59
480.122	8912.25
480.326	9231.73
480.531	9190.77
480.735	8928.63
480.94	9006.45
481.144	9295.22
481.348	9041.27
481.553	8928.63
481.757	8574.33
481.961	9022.84
482.166	9084.28
482.37	8938.87
482.574	8809.85
482.778	8815.99
482.983	9018.74
483.187	8848.76
483.391	8707.45
483.595	8648.06
483.8	8723.83
484.004	8678.78
484.208	8813.95
484.412	8654.2
484.616	8781.18
484.821	8848.76
485.025	8656.25
485.229	8891.77
485.433	8629.63
485.637	8920.44
485.841	8514.94
486.045	8541.57
486.249	8803.71
486.453	8695.16
486.657	8729.98
486.861	8916.34
487.065	8557.95
487.269	8914.3
487.473	8672.64
487.677	8729.98
487.881	9061.75
488.085	8930.68
488.289	8836.47
488.493	8797.56
488.697	9121.14
488.901	8981.88
489.105	8883.58
489.309	8822.14
489.512	8859
489.716	8893.82
489.92	8891.77
490.124	8910.2
490.328	9012.6
490.531	8875.38
490.735	8988.02
490.939	9055.61
491.143	8916.34
491.346	9186.68
491.55	9067.89
491.754	9209.2
491.958	9207.16
492.161	9106.81
492.365	9434.48
492.569	9457.01
492.772	9260.4
492.976	9409.9
493.18	9467.25
493.383	9567.6
493.587	9661.8
493.79	9715.05
493.994	9649.52
494.197	9717.1
494.401	9729.39
494.605	9899.37
494.808	10167.65
495.012	9948.52
495.215	9882.99
495.419	10284.39
495.622	10042.73
495.825	10286.44
496.029	10308.96
496.232	10505.57
496.436	10560.86
496.639	10796.38
496.843	10827.1
497.046	10964.31
497.249	11033.94
497.453	11083.09
497.656	11257.17
497.859	11291.99
498.063	11388.24
498.266	11590.99
498.469	11371.86
498.673	11738.44
498.876	11810.12
499.079	12137.8
499.282	11943.24
499.485	12281.16
499.689	12287.3
499.892	12543.3
500.095	12528.96
500.298	12578.11
500.501	12600.64
500.705	13241.65
500.908	13092.15
501.111	13241.65
501.314	13514.03
501.517	13403.44
501.72	13684.02
501.923	13630.77
502.126	14124.33
502.329	14409
502.532	14271.78
502.735	14265.64
502.938	14609.7
503.141	14560.55
503.344	14943.52
503.547	14898.46
503.75	15428.88
503.953	15686.93
504.156	15557.91
504.359	15809.81
504.562	15875.34
504.765	16313.61
504.968	16133.39
505.17	16596.23
505.373	16383.24
505.576	17071.36
505.779	16991.48
505.982	16909.57
506.185	17464.57
506.387	17411.32
506.59	17677.55
506.793	18205.93
506.996	18173.16
507.198	18371.82
507.401	18216.17
507.604	18582.76
507.807	19035.36
508.009	19172.57
508.212	19070.17
508.415	19426.52
508.617	19987.66
508.82	19981.52
509.022	19627.22
509.225	20194.51
509.428	20575.43
509.63	20473.03
509.833	20780.23
510.035	21130.43
510.238	20923.58
510.44	21353.66
510.643	21691.57
510.845	21898.42
511.048	21800.12
511.25	22035.63
511.453	22381.74
511.655	23315.61
511.858	22865.06
512.06	22924.45
512.262	23350.43
512.465	23430.3
512.667	23891.09
512.87	24093.84
513.072	24374.41
513.274	24386.7
513.477	24745.09
513.679	24741
513.881	25777.27
514.084	25760.89
514.286	25730.17
514.488	25900.15
514.69	26434.67
514.893	26729.58
515.095	26874.98
515.297	27102.31
515.499	26899.56
515.701	27223.14
515.904	27604.06
516.106	27901.01
516.308	28066.9
516.51	28404.81
516.712	28918.85
516.914	28838.98
517.116	29271.11
517.318	29578.3
517.52	29822.01
517.722	29920.31
517.925	30200.88
518.127	30608.43
518.329	30802.99
518.531	30596.14
518.733	31163.43
518.935	31265.83
519.136	31753.24
519.338	31880.22
519.54	32136.21
519.742	32539.66
519.944	32599.05
520.146	32977.93
520.348	33592.32
520.55	33551.36
520.752	33778.68
520.954	34356.21
521.155	34178.04
521.357	34927.6
521.559	34874.35
521.761	35398.63
521.963	35140.58
522.164	35521.51
522.366	35884
522.568	35959.77
522.77	36144.09
522.971	36643.79
523.173	36639.7
523.375	37090.25
523.576	36772.81
523.778	37041.1
523.98	37927.87
524.181	37979.07
524.383	37925.82
524.584	38355.89
524.786	38450.1
524.988	38177.72
525.189	39031.72
525.391	38904.75
525.592	39140.27
525.794	39377.83
525.995	39680.93
526.197	39556
526.398	39621.54
526.6	39986.08
526.801	40184.73
527.003	40375.19
527.204	40367
527.406	40786.83
527.607	40932.24
527.808	41603.97
528.01	40573.84
528.211	40930.19
528.412	41812.87
528.614	41247.63
528.815	41780.1
529.016	42075.01
529.218	41874.31
529.419	42251.13
529.62	42244.99
529.822	42081.15
530.023	42163.07
530.224	42259.32
530.425	42333.05
530.626	42236.8
530.828	41911.17
531.029	42793.84
531.23	42374.01
531.431	42816.37
531.632	42689.4
531.833	43051.89
532.035	42890.1
532.236	43066.22
532.437	43361.13
532.638	43012.98
532.839	43324.27
533.04	43389.8
533.241	42746.74
533.442	43707.24
533.643	43465.58
533.844	43111.28
534.045	43557.74
534.246	43367.27
534.447	43438.95
534.648	42906.48
534.849	43563.88
535.05	43195.24
535.251	43725.67
535.451	43115.37
535.652	43545.45
535.853	43758.44
536.054	43643.75
536.255	43674.47
536.456	43049.84
536.657	44487.51
536.857	43729.76
537.058	43441
537.259	44307.29
537.46	43758.44
537.66	43697
537.861	43762.53
538.062	43692.9
538.263	44389.21
538.463	43846.5
538.664	44067.68
538.865	44045.15
539.065	44092.26
539.266	43381.61
539.466	44510.04
539.667	43160.43
539.868	44118.88
540.068	44104.54
540.269	43359.08
540.469	44157.79
540.67	43746.15
540.87	44141.41
541.071	43750.24
541.271	44202.85
541.472	43819.88
541.672	43670.37
541.873	43610.98
542.073	43105.13
542.274	44045.15
542.474	43621.22
542.675	43449.19
542.875	44004.19
543.075	43637.61
543.276	43385.71
543.476	43940.71
543.676	43598.69
543.877	43502.44
544.077	43776.87
544.277	43905.89
544.478	43760.48
544.678	44194.65
544.878	43823.97
545.078	44301.15
545.279	43869.03
545.479	43234.16
545.679	43879.27
545.879	43365.23
546.079	43522.92
546.28	43725.67
546.48	43125.61
546.68	43637.61
546.88	43873.12
547.08	43776.87
547.28	43598.69
547.48	43465.58
547.68	43357.03
547.88	43441
548.081	43791.2
548.281	43471.72
548.481	43447.15
548.681	44258.14
548.881	43576.17
549.081	43666.28
549.28	43430.76
549.48	43594.6
549.68	43365.23
549.88	44467.03
550.08	43238.25
550.28	43596.65
550.48	43430.76
550.68	43635.56
550.88	43402.09
551.08	43760.48
551.279	43338.6
551.479	42894.19
551.679	43717.48
551.879	43557.74
552.079	43537.26
552.278	43588.45
552.478	43301.74
552.678	43543.4
552.878	43703.14
553.077	43465.58
553.277	43037.55
553.477	43619.17
553.676	43045.74
553.876	43162.48
554.076	43287.4
554.275	43168.62
554.475	42871.67
554.674	43248.49
554.874	43254.64
555.074	42998.64
555.273	43098.99
555.473	43103.09
555.672	42652.53
555.872	42924.91
556.071	42851.19
556.271	43115.37
556.47	42582.9
556.67	42474.36
556.869	42619.77
557.068	43039.6
557.268	42881.91
557.467	42580.85
557.667	42535.8
557.866	42664.82
558.065	42546.04
558.265	42236.8
558.464	42630.01
558.663	42660.73
558.863	42023.81
559.062	42638.2
559.261	41933.7
559.461	42312.57
559.66	41714.56
559.859	42009.47
560.058	41595.78
560.258	42052.48
560.457	41499.53
560.656	42216.32
560.855	41489.29
561.054	41679.75
561.253	41347.98
561.453	41560.97
561.652	41393.03
561.851	41464.71
562.05	41286.54
562.249	41012.11
562.448	41218.96
562.647	41343.88
562.846	40915.86
563.045	41112.46
563.244	40962.96
563.443	41288.59
563.642	40485.78
563.841	40801.17
564.04	40686.48
564.239	40788.88
564.438	40729.49
564.637	40481.69
564.836	40414.1
565.035	39969.69
565.234	39867.3
565.432	40381.34
565.631	40391.58
565.83	40199.07
566.029	39801.76
566.228	39568.29
566.427	39822.24
566.625	39371.69
566.824	39349.16
567.023	39609.25
567.222	38777.78
567.42	39666.59
567.619	39281.58
567.818	39121.84
568.016	38953.9
568.215	39156.65
568.414	38929.33
568.612	39125.93
568.811	38462.39
569.01	38730.67
569.208	38501.3
569.407	38831.02
569.605	38206.39
569.804	38478.77
570.002	38118.33
570.201	38564.79
570.4	38042.56
570.598	37999.55
570.797	37731.26
570.995	37737.41
571.193	37426.12
571.392	37807.04
571.59	37694.4
571.789	37530.56
571.987	37340.1
572.186	37290.95
572.384	36766.67
572.582	37356.49
572.781	37245.9
572.979	36637.65
573.177	36756.43
573.376	37047.24
573.574	36803.53
573.772	36690.9
573.971	36606.93
574.169	36365.27
574.367	36324.31
574.565	36230.1
574.763	36072.41
574.962	36086.75
575.16	35490.79
575.358	36004.83
575.556	35589.09
575.754	35902.43
575.952	35365.86
576.151	36127.7
576.349	35126.25
576.547	34763.76
576.745	35505.12
576.943	35468.26
577.141	35296.23
577.339	35238.89
577.537	35064.81
577.735	34497.52
577.933	34493.43
578.131	34737.13
578.329	34624.5
578.527	34563.06
578.725	34503.67
578.923	34382.84
579.121	34343.92
579.319	34180.09
579.516	34333.68
579.714	34044.92
579.912	34165.75
580.11	33592.32
580.308	34161.65
580.506	33494.02
580.704	33178.63
580.901	33614.85
581.099	33707.01
581.297	33252.36
581.495	33330.18
581.692	33594.37
581.89	32990.22
582.088	33303.56
582.285	33250.31
582.483	33119.24
582.681	32807.95
582.878	32537.62
583.076	32492.56
583.274	32818.19
583.471	32384.02
583.669	32273.43
583.866	32183.32
584.064	32502.8
584.262	31853.59
584.459	32211.99
584.657	32255
584.854	32056.34
585.052	31544.35
585.249	31685.66
585.447	31826.97
585.644	31271.97
585.841	31429.66
586.039	31659.04
586.236	31323.17
586.434	31052.84
586.631	31003.69
586.828	31140.9
587.026	31079.46
587.223	31028.26
587.42	30813.23
587.618	30858.28
587.815	30448.69
588.012	30450.74
588.21	30624.81
588.407	30641.2
588.604	30174.26
588.801	30489.65
588.999	29865.02
589.196	30211.12
589.393	29779
589.59	29869.11
589.787	29414.46
589.984	29559.87
590.182	29334.59
590.379	29631.55
590.576	29355.07
590.773	29373.5
590.97	29092.93
591.167	29023.3
591.364	29232.19
591.561	29121.6
591.758	29019.21
591.955	28800.07
592.152	29119.56
592.349	28902.47
592.546	28963.91
592.743	28605.52
592.94	28353.62
593.137	28804.17
593.334	28673.1
593.531	27993.17
593.727	28056.66
593.924	28257.36
594.121	27882.58
594.318	28226.64
594.515	27747.42
594.712	27776.09
594.908	27763.8
595.105	27542.62
595.302	27429.98
595.499	27370.59
595.696	27632.73
595.892	27386.97
596.089	27311.2
596.286	27370.59
596.482	27130.98
596.679	26991.72
596.876	26758.25
597.072	26774.63
597.269	26977.38
597.466	26649.71
597.662	26698.86
597.859	26561.64
598.055	26768.49
598.252	26680.42
598.448	26338.41
598.645	25879.67
598.841	26139.76
599.038	26170.48
599.234	26174.58
599.431	25851
599.627	25834.61
599.824	26330.22
600.02	25408.64
600.217	25863.29
600.413	25486.46
600.609	25279.61
600.806	25764.98
601.002	25117.82
601.198	25326.72
601.395	25115.78
601.591	24937.6
601.787	25195.65
601.984	24974.47
602.18	25334.91
602.376	24917.12
602.572	24792.2
602.769	24622.22
602.965	24349.84
603.161	24536.2
603.357	24759.43
603.553	24566.92
603.75	24159.38
603.946	23983.25
604.142	24419.47
604.338	24013.97
604.534	24147.09
604.73	23753.88
604.926	23854.23
605.122	23925.91
605.318	23534.74
605.514	23614.62
605.71	23653.53
605.906	23653.53
606.102	23522.46
606.298	23735.45
606.494	23360.67
606.69	23696.53
606.886	23424.15
607.082	22871.2
607.278	23626.9
607.474	22951.07
607.67	23196.83
607.866	22906.02
608.062	23239.84
608.257	22877.35
608.453	22996.13
608.649	22844.58
608.845	22762.66
609.041	22721.7
609.236	22635.69
609.432	22660.26
609.628	22684.84
609.824	22482.09
610.019	22381.74
610.215	22744.23
610.411	22645.93
610.606	22545.58
610.802	22408.36
610.998	22518.95
611.193	22523.05
611.389	22205.61
611.584	21963.95
611.78	22013.1
611.976	22244.52
612.171	21939.38
612.367	21925.04
612.562	21634.23
612.758	21652.66
612.953	21818.55
613.149	21738.68
613.344	21376.19
613.539	21961.9
613.735	21658.81
613.93	21607.61
614.126	21451.96
614.321	21462.2
614.517	21615.8
614.712	21515.45
614.907	21273.79
615.103	21513.4
615.298	21398.71
615.493	21572.79
615.688	21124.29
615.884	21654.71
616.079	21116.09
616.274	21142.72
616.47	21281.98
616.665	20974.78
616.86	21066.94
617.055	21169.34
617.25	20858.05
617.445	21089.47
617.641	20780.23
617.836	20825.28
618.031	20182.22
618.226	20751.56
618.421	20554.95
618.616	20610.25
618.811	20110.54
619.006	20780.23
619.201	20174.03
619.396	20608.2
619.591	20045.01
619.786	20526.28
619.981	19813.59
620.176	20061.39
620.371	19737.81
620.566	19963.09
620.761	19760.34
620.956	19780.82
621.151	19303.64
621.346	19502.29
621.541	19186.91
621.735	19485.91
621.93	19197.15
622.125	19315.93
622.32	18871.52
622.515	19029.21
622.709	18992.35
622.904	18816.22
623.099	18650.34
623.294	18470.12
623.488	18435.3
623.683	18543.85
623.878	18412.78
624.072	18242.79
624.267	17933.55
624.462	17863.92
624.656	17782
624.851	17958.13
625.046	17708.27
625.24	17863.92
625.435	17544.44
625.629	17679.6
625.824	17614.07
626.018	17546.48
626.213	17143.03
626.407	17186.04
626.602	17132.79
626.796	17161.47
626.991	17081.6
627.185	16772.35
627.38	16637.19
627.574	16643.33
627.768	16395.53
627.963	16516.36
628.157	16141.58
628.352	16313.61
628.546	16123.15
628.74	16397.57
628.935	15922.45
629.129	15719.7
629.323	15559.95
629.517	15695.12
629.712	15826.19
629.906	15547.67
630.1	15611.15
630.294	15449.36
630.489	15336.73
630.683	15381.78
630.877	15277.33
631.071	14886.17
631.265	15234.33
631.459	15045.91
631.653	14839.07
631.848	14890.27
632.042	14751.01
632.236	14757.15
632.43	14642.46
632.624	14660.9
632.818	14652.7
633.012	14445.86
633.206	14388.52
633.4	14703.9
633.594	14112.04
633.788	14337.32
633.982	14173.48
634.176	13886.76
634.369	13813.04
634.563	13757.74
634.757	13700.4
634.951	13790.51
635.145	13878.57
635.339	13645.1
635.533	13659.44
635.726	13385.01
635.92	13385.01
636.114	13301.05
636.308	12950.84
636.501	13126.97
636.695	13346.1
636.889	13006.14
637.083	12950.84
637.276	12883.26
637.47	12918.07
637.664	12868.92
637.857	12762.43
638.051	12799.29
638.244	12698.94
638.438	12426.56
638.632	12397.89
638.825	12223.81
639.019	12348.74
639.212	12133.7
639.406	12238.15
639.599	12252.49
639.793	12008.78
639.986	11879.75
640.18	12111.18
640.373	11881.8
640.567	11949.39
640.76	11713.87
640.954	11582.8
641.147	11470.16
641.34	11521.36
641.534	11459.92
641.727	11507.02
641.92	11590.99
642.114	11271.51
642.307	11291.99
642.5	11332.95
642.694	10923.35
642.887	11146.58
643.08	11173.21
643.273	11150.68
643.467	11003.22
643.66	10724.7
643.853	10823
644.046	10589.53
644.239	10591.58
644.432	10753.37
644.626	10702.17
644.819	10456.42
645.012	10579.29
645.205	10767.71
645.398	10583.39
645.591	10192.23
645.784	10319.2
645.977	10095.97
646.17	10270.05
646.363	10100.07
646.556	9864.55
646.749	10003.82
646.942	10018.15
647.135	10118.5
647.328	9864.55
647.521	9743.72
647.714	9645.42
647.907	9862.51
648.099	9678.19
648.292	9749.87
648.485	9487.73
648.678	9600.37
648.871	9592.17
649.064	9459.06
649.256	9377.14
649.449	9393.52
649.642	9178.48
649.835	9325.94
650.027	9258.35
650.22	9127.28
650.413	9198.96
650.605	9020.79
650.798	8971.64
650.991	8807.8
651.183	8922.49
651.376	9063.8
651.568	8783.23
651.761	8801.66
651.954	8527.23
652.146	8713.6
652.339	8752.51
652.531	8779.13
652.724	8762.75
652.916	8437.12
653.109	8449.41
653.301	8306.05
653.494	8560
653.686	8514.94
653.879	8418.69
654.071	8297.86
654.263	8158.6
654.456	8045.96
654.648	8283.52
654.84	8041.86
655.033	8070.53
655.225	8101.25
655.417	8062.34
655.61	8009.09
655.802	8052.1
655.994	7949.7
656.186	7814.54
656.379	7579.02
656.571	7763.34
656.763	7665.04
656.955	7667.08
657.148	7712.14
657.34	7628.17
657.532	7466.38
657.724	7368.08
657.916	7529.87
658.108	7607.69
658.3	7396.75
658.492	7546.25
658.684	7394.7
658.876	7355.79
659.068	7382.42
659.26	7226.77
659.452	7210.39
659.644	7050.64
659.836	6999.45
660.028	7161.23
660.22	6929.81
660.412	7015.83
660.604	7005.59
660.796	7007.64
660.988	7089.56
661.18	6983.06
661.372	6757.78
661.563	6876.57
661.755	6819.22
661.947	6993.3
662.139	6856.09
662.331	6761.88
662.522	6616.48
662.714	6434.21
662.906	6591.9
663.097	6587.8
663.289	6393.25
663.481	6483.36
663.673	6444.45
663.864	6337.95
664.056	6200.74
664.247	6247.84
664.439	6284.7
664.631	6331.81
664.822	6176.16
665.014	6368.67
665.205	6237.6
665.397	5952.93
665.588	6241.7
665.78	6065.57
665.971	5959.08
666.163	6133.15
666.354	5926.31
666.546	6057.38
666.737	5918.12
666.929	6221.22
667.12	5959.08
667.311	5911.97
667.503	5809.58
667.694	5930.41
667.885	5840.29
668.077	6020.52
668.268	5850.53
668.459	5586.35
668.651	5633.45
668.842	5524.91
669.033	5635.5
669.224	5619.11
669.416	5651.88
669.607	5674.41
669.798	5502.38
669.989	5680.55
670.18	5459.37
670.371	5428.65
670.563	5307.82
670.754	5529
670.945	5412.27
671.136	5453.23
671.327	5359.02
671.518	5363.12
671.709	5354.93
671.9	5307.82
672.091	5082.55
672.282	5322.16
672.473	5139.89
672.664	5197.23
672.855	5232.05
673.046	5197.23
673.237	5209.52
673.428	5164.47
673.619	5103.03
673.809	5012.92
674	5184.94
674.191	4996.53
674.382	5035.44
674.573	5010.87
674.764	4971.96
674.954	4996.53
675.145	4980.15
675.336	4668.86
675.527	4898.23
675.717	4902.33
675.908	4777.4
676.099	4869.56
676.289	4935.09
676.48	4728.25
676.671	4851.13
676.861	4926.9
677.052	4742.58
677.243	4765.11
677.433	4789.69
677.624	4918.71
677.814	4793.78
678.005	4644.28
678.195	4726.2
678.386	4808.12
678.576	4601.27
678.767	4738.49
678.957	4677.05
679.148	4545.98
679.338	4593.08
679.529	4353.47
679.719	4468.16
679.909	4701.62
680.1	4365.76
680.29	4629.95
680.481	4433.34
680.671	4570.55
680.861	4488.64
681.052	4609.47
681.242	4347.33
681.432	4478.4
681.622	4363.71
681.813	4611.51
682.003	4376
682.193	4400.57
682.383	4437.44
682.573	4492.73
682.764	4431.29
682.954	4421.05
683.144	4421.05
683.334	4267.45
683.524	4353.47
683.714	4283.84
683.904	4367.81
684.094	4351.42
684.284	4326.85
684.474	4281.79
684.664	4322.75
684.854	4230.59
685.044	4261.31
685.234	4353.47
685.424	4310.46
685.614	4203.97
685.804	4193.73
685.994	4199.87
686.184	4224.45
686.374	4089.28
686.564	4105.67
686.753	4253.12
686.943	3933.64
687.133	4048.32
687.323	4025.79
687.513	4173.25
687.702	4181.44
687.892	4056.51
688.082	4083.14
688.272	3988.93
688.461	4013.51
688.651	4046.27
688.841	3972.55
689.03	3999.17
689.22	3853.77
689.41	3904.96
689.599	3968.45
689.789	3827.14
689.979	3956.16
690.168	3921.35
690.358	3829.19
690.547	3888.58
690.737	3714.5
690.926	3745.22
691.116	3771.85
691.305	3771.85
691.495	3847.62
691.684	3704.26
691.874	3747.27
692.063	3603.91
692.252	3730.89
692.442	3644.87
692.631	3550.67
692.82	3714.5
693.01	3720.65
693.199	3620.3
693.388	3644.87
693.578	3708.36
693.767	3730.89
693.956	3622.34
694.146	3620.3
694.335	3587.53
694.524	3546.57
694.713	3542.47
694.902	3587.53
695.092	3558.86
695.281	3370.44
695.47	3352.01
695.659	3587.53
695.848	3489.23
696.037	3608.01
696.226	3552.71
696.415	3358.16
696.604	3435.98
696.793	3515.85
696.982	3521.99
697.171	3542.47
697.36	3433.93
697.549	3403.21
697.738	3395.02
697.927	3323.34
698.116	3470.8
698.305	3345.87
698.494	3356.11
698.683	3290.57
698.872	3548.62
699.061	3327.44
699.25	3300.81
699.438	3388.88
699.627	3241.42
699.816	3358.16
700.005	3511.75
700.193	3358.16
700.382	3298.77
700.571	3280.33
700.76	3431.88
700.948	3386.83
701.137	3392.97
701.326	3446.22
701.514	3304.91
701.703	3405.26
701.892	3349.96
702.08	3405.26
702.269	3349.96
702.457	3306.96
702.646	3315.15
702.834	3333.58
703.023	3325.39
703.212	3372.49
703.4	3253.71
703.589	3335.63
703.777	3343.82
703.965	3136.98
704.154	3259.85
704.342	3272.14
704.531	3255.76
704.719	3200.46
704.907	3257.81
705.096	3204.56
705.284	3165.65
705.472	3329.49
705.661	3276.24
705.849	3343.82
706.037	3321.29
706.226	3198.42
706.414	3270.09
706.602	3329.49
706.79	3235.28
706.979	3157.46
707.167	3233.23
707.355	3245.52
707.543	3186.13
707.731	3182.03
707.919	3270.09
708.107	3089.87
708.296	3186.13
708.484	3081.68
708.672	3184.08
708.86	3247.57
709.048	3106.26
709.236	3143.12
709.424	3147.22
709.612	3132.88
709.8	3204.56
709.988	3177.94
710.176	3132.88
710.364	3319.25
710.551	3235.28
710.739	3057.11
710.927	3055.06
711.115	3216.85
711.303	3233.23
711.491	3063.25
711.679	3163.6
711.866	3145.17
712.054	3159.5
712.242	2993.62
712.43	3108.3
712.617	3134.93
712.805	3053.01
712.993	3007.95
713.181	3093.97
713.368	3229.13
713.556	3227.09
713.744	2948.56
713.931	3173.84
714.119	3177.94
714.306	3132.88
714.494	2962.9
714.682	3118.54
714.869	3085.78
715.057	3007.95
715.244	2952.66
715.432	3147.22
715.619	2948.56
715.807	2948.56
715.994	3040.72
716.182	2936.28
716.369	3030.48
716.556	2952.66
716.744	3069.39
716.931	2969.04
717.119	2973.14
717.306	3012.05
717.493	3003.86
717.681	3106.26
717.868	2960.85
718.055	3016.15
718.242	2964.95
718.43	3053.01
718.617	2975.19
718.804	2975.19
718.991	2903.51
719.179	3071.44
719.366	2868.69
719.553	3012.05
719.74	2827.73
719.927	3100.11
720.114	2960.85
720.301	2852.31
720.488	2956.75
720.676	2858.45
720.863	2971.09
721.05	2958.8
721.237	2895.32
721.424	2909.65
721.611	2825.68
721.798	2891.22
721.985	2928.08
722.172	2801.11
722.358	2866.64
722.545	2948.56
722.732	2844.12
722.919	2999.76
723.106	2938.32
723.293	2729.43
723.48	2778.58
723.667	2807.25
723.853	2835.92
724.04	2809.3
724.227	2805.21
724.414	2758.1
724.6	2813.4
724.787	2743.77
724.974	2850.26
725.161	2729.43
725.347	2825.68
725.534	2899.41
725.72	2866.64
725.907	2901.46
726.094	2868.69
726.28	2768.34
726.467	2799.06
726.653	2930.13
726.84	2715.09
727.027	2971.09
727.213	2735.57
727.4	2850.26
727.586	2921.94
727.773	2825.68
727.959	2895.32
728.145	2854.36
728.332	2835.92
728.518	2768.34
728.705	2790.87
728.891	2737.62
729.077	2659.8
729.264	2743.77
729.45	2907.6
729.636	2731.48
729.823	2651.61
730.009	2754.01
730.195	2805.21
730.382	2872.79
730.568	2717.14
730.754	2825.68
730.94	2645.46
731.126	2704.85
731.313	2792.92
731.499	2813.4
731.685	2751.96
731.871	2674.14
732.057	2811.35
732.243	2743.77
732.429	2635.22
732.615	2743.77
732.801	2708.95
732.987	2633.18
733.173	2721.24
733.359	2661.85
733.545	2739.67
733.731	2700.76
733.917	2661.85
734.103	2672.09
734.289	2727.38
734.475	2674.14
734.661	2719.19
734.847	2598.36
735.033	2784.73
735.219	2725.33
735.404	2659.8
735.59	2706.9
735.776	2561.5
735.962	2659.8
736.148	2588.12
736.333	2616.79
736.519	2618.84
736.705	2649.56
736.89	2575.83
737.076	2678.23
737.262	2543.07
737.447	2567.64
737.633	2532.83
737.819	2717.14
738.004	2547.16
738.19	2665.94
738.375	2536.92
738.561	2594.26
738.747	2498.01
738.932	2584.02
739.118	2541.02
739.303	2469.34
739.489	2534.87
739.674	2489.82
739.859	2465.24
740.045	2616.79
740.23	2420.19
740.416	2342.36
740.601	2586.07
740.786	2524.63
740.972	2379.23
741.157	2442.71
741.342	2356.7
741.528	2446.81
741.713	2375.13
741.898	2344.41
742.084	2442.71
742.269	2473.43
742.454	2485.72
742.639	2412
742.824	2325.98
743.01	2381.28
743.195	2309.6
743.38	2330.08
743.565	2434.52
743.75	2405.85
743.935	2262.49
744.12	2340.32
744.305	2352.6
744.49	2299.36
744.675	2321.88
744.86	2293.21
745.045	2266.59
745.23	2237.92
745.415	2299.36
745.6	2207.2
745.785	2242.01
745.97	2287.07
746.155	2192.86
746.34	2174.43
746.525	2184.67
746.71	2229.73
746.895	2061.79
747.079	2235.87
747.264	2151.9
747.449	2186.72
747.634	2000.35
747.819	2080.22
748.003	2014.69
748.188	2078.18
748.373	2153.95
748.557	2067.94
748.742	2010.59
748.927	2149.86
749.111	2012.64
749.296	1947.11
749.481	1986.02
749.665	1988.07
749.85	2043.36
750.034	1973.73
750.219	1990.11
750.404	1854.95
750.588	1940.96
750.773	1873.38
750.957	2008.55
751.141	1730.02
751.326	1951.2
751.51	1830.37
751.695	1803.75
751.879	1803.75
752.064	1836.52
752.248	1805.8
752.432	1885.67
752.617	1789.41
752.801	1797.6
752.985	1844.71
753.17	1678.82
753.354	1785.32
753.538	1736.17
753.722	1662.44
753.907	1701.35
754.091	1732.07
754.275	1625.58
754.459	1580.52
754.643	1691.11
754.828	1678.82
755.012	1572.33
755.196	1605.1
755.38	1646.05
755.564	1584.62
755.748	1555.94
755.932	1629.67
756.116	1512.94
756.3	1476.07
756.484	1410.54
756.668	1541.61
756.852	1498.6
757.036	1459.69
757.22	1428.97
757.404	1480.17
757.588	1443.31
757.772	1461.74
757.956	1553.9
758.14	1433.07
758.323	1400.3
758.507	1402.35
758.691	1334.76
758.875	1324.52
759.059	1396.2
759.242	1418.73
759.426	1220.08
759.61	1482.22
759.794	1265.13
759.977	1392.11
760.161	1439.21
760.345	1375.72
760.528	1330.67
760.712	1234.41
760.895	1371.63
761.079	1302
761.263	1355.24
761.446	1261.04
761.63	1263.08
761.813	1320.43
761.997	1267.18
762.18	1218.03
762.364	1295.85
762.547	1261.04
762.731	1183.21
762.914	1322.48
763.098	1285.61
763.281	1205.74
763.464	1097.2
763.648	1134.06
763.831	1203.69
764.015	1170.93
764.198	1220.08
764.381	1238.51
764.564	1218.03
764.748	1093.1
764.931	1209.84
765.114	1140.21
765.297	1070.58
765.481	1166.83
765.664	1183.21
765.847	1109.49
766.03	1146.35
766.213	1209.84
766.397	1158.64
766.58	1162.73
766.763	1115.63
766.946	1093.1
767.129	1072.62
767.312	1170.93
767.495	1033.71
767.678	1152.49
767.861	1166.83
768.044	1086.96
768.227	1093.1
768.41	1121.77
768.593	1056.24
768.776	988.66
768.959	916.98
769.142	1035.76
769.324	986.61
769.507	937.46
769.69	982.51
769.873	1052.14
770.056	994.8
770.239	1076.72
770.421	968.18
770.604	1007.09
770.787	990.7
770.97	939.51
771.152	1002.99
771.335	921.07
771.518	951.79
771.7	1072.62
771.883	1015.28
772.066	1029.62
772.248	931.31
772.431	902.64
772.613	988.66
772.796	931.31
772.978	974.32
773.161	927.22
773.343	921.07
773.526	867.83
773.708	900.59
773.891	865.78
774.073	951.79
774.256	824.82
774.438	941.55
774.621	861.68
774.803	898.55
774.985	830.96
775.168	747
775.35	773.62
775.532	863.73
775.715	734.71
775.897	871.92
776.079	839.16
776.261	927.22
776.444	810.48
776.626	845.3
776.808	847.35
776.99	728.56
777.173	757.24
777.355	796.15
777.537	749.04
777.719	867.83
777.901	787.96
778.083	742.9
778.265	671.22
778.447	767.48
778.629	683.51
778.811	736.76
778.993	759.28
779.175	706.04
779.357	783.86
779.539	708.09
779.721	742.9
779.903	714.23
780.085	755.19
780.267	718.33
780.449	679.41
780.631	650.74
780.812	669.17
780.994	558.58
781.176	605.69
781.358	654.84
781.54	577.02
781.721	679.41
781.903	634.36
782.085	609.78
782.267	673.27
782.448	658.93
782.63	597.49
782.812	593.4
782.993	620.02
783.175	730.61
783.357	654.84
783.538	581.11
783.72	601.59
783.901	640.5
784.083	626.17
784.264	622.07
784.446	577.02
784.627	488.95
784.809	579.06
784.99	595.45
785.172	531.96
785.353	583.16
785.535	517.62
785.716	566.78
785.897	513.53
786.079	536.06
786.26	519.67
786.441	531.96
786.623	421.37
786.804	491
786.985	517.62
787.167	513.53
787.348	439.8
787.529	513.53
787.71	523.77
787.891	521.72
788.073	452.09
788.254	439.8
788.435	460.28
788.616	499.19
788.797	439.8
788.978	511.48
789.159	441.85
789.34	413.18
789.522	458.23
789.703	409.08
789.884	486.9
790.065	480.76
790.246	495.1
790.427	374.27
790.607	450.04
790.788	478.71
790.969	441.85
791.15	493.05
791.331	411.13
791.512	427.51
791.693	349.69
791.874	325.12
792.054	343.55
792.235	460.28
792.416	339.45
792.597	278.01
792.778	372.22
792.958	351.74
793.139	345.59
793.32	312.83
793.5	343.55
793.681	368.12
793.862	325.12
794.042	388.6
794.223	335.35
794.404	400.89
794.584	325.12
794.765	423.42
794.945	368.12
795.126	308.73
795.306	370.17
795.487	364.03
795.667	306.68
795.848	368.12
796.028	318.97
796.209	308.73
796.389	310.78
796.57	341.5
796.75	302.59
796.93	382.46
797.111	259.58
797.291	267.77
797.471	302.59
797.652	331.26
797.832	271.87
798.012	357.88
798.192	241.15
798.373	345.59
798.553	253.44
798.733	282.11
798.913	329.21
799.093	335.35
799.274	273.92
799.454	357.88
799.634	347.64
799.814	300.54
799.994	306.68
800.174	257.53
800.354	247.29
800.534	210.43
800.714	333.31
800.894	282.11
801.074	278.01
801.254	237.05
801.434	347.64
801.614	308.73
801.794	327.16
801.974	560.63
802.154	230.91
802.334	306.68
802.514	216.57
802.693	296.44
802.873	335.35
803.053	316.92
803.233	230.91
803.413	273.92
803.592	310.78
803.772	331.26
803.952	204.28
804.131	237.05
804.311	198.14
804.491	302.59
804.67	204.28
804.85	216.57
805.03	200.19
805.209	286.2
805.389	192
805.568	212.48
805.748	263.68
805.928	273.92
806.107	216.57
806.287	284.16
806.466	282.11
806.646	194.05
806.825	185.85
807.004	216.57
807.184	228.86
807.363	278.01
807.543	183.81
807.722	218.62
807.901	214.52
808.081	237.05
808.26	220.67
808.439	210.43
808.619	232.96
808.798	212.48
808.977	185.85
809.156	206.33
809.336	200.19
809.515	187.9
809.694	259.58
809.873	216.57
810.052	208.38
810.231	181.76
810.411	239.1
810.59	183.81
810.769	157.18
810.948	241.15
811.127	159.23
811.306	216.57
811.485	185.85
811.664	198.14
811.843	204.28
812.022	208.38
812.201	173.57
812.38	177.66
812.559	124.41
812.737	181.76
812.916	159.23
813.095	189.95
813.274	222.72
813.453	196.09
813.632	200.19
813.811	208.38
813.989	194.05
814.168	142.85
814.347	169.47
814.526	181.76
814.704	189.95
814.883	118.27
815.062	226.81
815.24	179.71
815.419	159.23
815.598	105.98
815.776	171.52
815.955	175.61
816.133	130.56
816.312	183.81
816.49	136.7
816.669	144.89
816.847	132.61
817.026	183.81
817.204	148.99
817.383	187.9
817.561	165.37
817.74	148.99
817.918	132.61
818.097	214.52
818.275	161.28
818.453	89.6
818.632	151.04
818.81	142.85
818.988	151.04
819.167	122.37
819.345	105.98
819.523	185.85
819.701	71.17
819.879	151.04
820.058	142.85
820.236	118.27
820.414	132.61
820.592	108.03
820.77	118.27
820.948	157.18
821.127	249.34
821.305	9.73
821.483	122.37
821.661	138.75
821.839	89.6
822.017	146.94
822.195	108.03
822.373	204.28
822.551	140.8
822.729	159.23
822.907	173.57
823.085	210.43
823.262	108.03
823.44	75.26
823.618	108.03
823.796	171.52
823.974	93.69
824.152	179.71
824.329	151.04
824.507	171.52
824.685	99.84
824.863	83.45
825.04	126.46
825.218	148.99
825.396	46.59
825.574	146.94
825.751	118.27
825.929	226.81
826.107	30.21
826.284	87.55
826.462	169.47
826.639	93.69
826.817	83.45
826.994	112.13
827.172	77.31
827.349	105.98
827.527	148.99
827.704	105.98
827.882	95.74
828.059	99.84
828.237	116.22
828.414	81.41
828.591	73.21
828.769	71.17
828.946	77.31
829.124	93.69
829.301	85.5
829.478	42.5
829.655	101.89
829.833	99.84
830.01	54.78
830.187	81.41
830.364	79.36
830.542	83.45
830.719	132.61
830.896	67.07
831.073	65.02
831.25	124.41
831.427	73.21
831.604	83.45
831.782	48.64
831.959	189.95
832.136	77.31
832.313	105.98
832.49	79.36
832.667	71.17
832.844	85.5
833.021	108.03
833.198	87.55
833.374	167.42
833.551	-10.75
833.728	159.23
833.905	95.74
834.082	48.64
834.259	54.78
834.436	122.37
834.612	114.17
834.789	130.56
834.966	105.98
835.143	81.41
835.319	93.69
835.496	54.78
835.673	62.98
835.85	101.89
836.026	105.98
836.203	44.54
836.38	65.02
836.556	50.69
836.733	-18.94
836.909	95.74
837.086	73.21
837.262	60.93
837.439	128.51
837.616	26.11
837.792	38.4
837.968	54.78
838.145	28.16
838.321	126.46
838.498	60.93
838.674	56.83
838.851	36.35
839.027	42.5
839.203	60.93
839.38	-4.61
839.556	99.84
839.732	85.5
839.909	34.3
840.085	77.31
840.261	67.07
840.437	120.32
840.614	28.16
840.79	134.65
840.966	60.93
841.142	44.54
841.318	62.98
841.494	77.31
841.671	52.74
841.847	95.74
842.023	48.64
842.199	97.79
842.375	97.79
842.551	48.64
842.727	54.78
842.903	116.22
843.079	81.41
843.255	142.85
843.431	75.26
843.607	89.6
843.783	81.41
843.959	46.59
844.134	48.64
844.31	110.08
844.486	-33.28
844.662	-14.85
844.838	83.45
845.013	60.93
845.189	71.17
845.365	30.21
845.541	65.02
845.716	24.06
845.892	-25.09
846.068	69.12
846.244	-14.85
846.419	132.61
846.595	42.5
846.77	77.31
846.946	24.06
847.122	-18.94
847.297	26.11
847.473	99.84
847.648	-16.9
847.824	56.83
847.999	110.08
848.175	60.93
848.35	91.65
848.526	71.17
848.701	60.93
848.876	110.08
849.052	-14.85
849.227	36.35
849.403	77.31
849.578	-25.09
849.753	-20.99
849.929	48.64
850.104	-18.94
850.279	101.89
850.454	89.6
850.63	5.63
850.805	38.4
850.98	52.74
851.155	38.4
851.33	60.93
851.505	42.5
851.681	91.65
851.856	40.45
852.031	101.89
852.206	26.11
852.381	24.06
852.556	30.21
852.731	-12.8
852.906	54.78
853.081	60.93
853.256	110.08
853.431	52.74
853.606	-0.51
853.781	15.87
853.956	-39.42
854.131	52.74
854.305	-16.9
854.48	60.93
854.655	-4.61
854.83	32.26
855.005	5.63
855.18	62.98
855.354	22.02
855.529	44.54
855.704	-2.56
855.879	44.54
856.053	24.06
856.228	56.83
856.403	89.6
856.577	24.06
856.752	52.74
856.926	19.97
857.101	15.87
857.276	24.06
857.45	99.84
857.625	11.78
857.799	67.07
857.974	48.64
858.148	-41.47
858.323	42.5
858.497	-6.66
858.672	-12.8
858.846	99.84
859.02	110.08
859.195	-41.47
859.369	7.68
859.543	83.45
859.718	-4.61
859.892	62.98
860.066	-51.71
860.241	-8.7
860.415	-2.56
860.589	58.88
860.763	11.78
860.938	54.78
861.112	13.82
861.286	-2.56
861.46	40.45
861.634	17.92
861.808	101.89
861.982	9.73
862.157	17.92
862.331	73.21
862.505	-41.47
862.679	-10.75
862.853	-12.8
863.027	15.87
863.201	108.03
863.375	-31.23
863.549	17.92
863.722	-18.94
863.896	46.59
864.07	48.64
864.244	17.92
864.418	40.45
864.592	95.74
864.766	30.21
864.939	62.98
865.113	-76.29
865.287	32.26
865.461	91.65
865.634	5.63
865.808	26.11
865.982	-29.18
866.156	-6.66
866.329	5.63
866.503	7.68
866.676	42.5
866.85	40.45
867.024	-25.09
867.197	69.12
867.371	50.69
867.544	3.58
867.718	50.69
867.891	-18.94
868.065	-10.75
868.238	44.54
868.412	3.58
868.585	50.69
868.759	24.06
868.932	17.92
869.105	69.12
869.279	71.17
869.452	30.21
869.625	-100.86
869.799	54.78
869.972	71.17
870.145	42.5
870.319	-0.51
870.492	44.54
870.665	-2.56
870.838	3.58
871.011	-20.99
871.185	44.54
871.358	77.31
871.531	19.97
871.704	-20.99
871.877	3.58
872.05	-8.7
872.223	-8.7
872.396	83.45
872.569	50.69
872.742	5.63
872.915	44.54
873.088	-20.99
873.261	36.35
873.434	28.16
873.607	58.88
873.78	60.93
873.953	67.07
874.126	5.63
874.299	46.59
874.471	15.87
874.644	11.78
874.817	7.68
874.99	-29.18
875.163	15.87
875.335	-18.94
875.508	56.83
875.681	110.08
875.853	-0.51
876.026	32.26
876.199	22.02
876.371	13.82
876.544	-27.14
876.717	65.02
876.889	-12.8
877.062	11.78
877.234	7.68
877.407	-76.29
877.579	26.11
877.752	-10.75
877.924	11.78
878.097	13.82
878.269	-37.38
878.442	-31.23
878.614	-20.99
878.786	36.35
878.959	52.74
879.131	-4.61
879.303	-29.18
879.476	46.59
879.648	-23.04
879.82	52.74
879.993	13.82
880.165	-4.61
880.337	-41.47
880.509	11.78
880.681	24.06
880.854	-51.71
881.026	-8.7
881.198	60.93
881.37	-0.51
881.542	3.58
881.714	-16.9
881.886	19.97
882.058	34.3
882.23	110.08
882.402	-18.94
882.574	28.16
882.746	79.36
882.918	15.87
883.09	-25.09
883.262	24.06
883.434	19.97
883.606	-66.05
883.778	-25.09
883.95	52.74
884.122	3.58
884.293	-2.56
884.465	62.98
884.637	1.54
884.809	-47.62
884.98	1.54
885.152	69.12
885.324	-6.66
885.496	-10.75
885.667	19.97
885.839	15.87
886.011	56.83
886.182	-35.33
886.354	83.45
886.525	50.69
886.697	-4.61
886.869	11.78
887.04	-31.23
887.212	36.35
887.383	58.88
887.555	-55.81
887.726	-33.28
887.897	22.02
888.069	-68.09
888.24	42.5
888.412	-4.61
888.583	-8.7
888.754	-25.09
888.926	73.21
889.097	42.5
889.268	-18.94
889.44	67.07
889.611	-66.05
889.782	-2.56
889.953	11.78
890.125	85.5
890.296	1.54
890.467	87.55
890.638	3.58
890.809	5.63
890.98	-8.7
891.151	34.3
891.323	15.87
891.494	-18.94
891.665	-33.28
891.836	-31.23
892.007	-2.56
892.178	69.12
892.349	-20.99
892.52	93.69
892.691	-45.57
892.862	97.79
893.032	-0.51
893.203	36.35
893.374	-33.28
893.545	-2.56
893.716	-27.14
893.887	36.35
894.057	17.92
894.228	3.58
894.399	-55.81
894.57	-27.14
894.74	85.5
894.911	3.58
895.082	-16.9
895.253	97.79
895.423	42.5
895.594	-18.94
895.764	11.78
895.935	-33.28
896.106	-4.61
896.276	11.78
896.447	-43.52
896.617	-10.75
896.788	-29.18
896.958	19.97
897.129	-31.23
897.299	-59.9
897.47	77.31
897.64	28.16
897.81	-35.33
897.981	3.58
898.151	9.73
898.322	79.36
898.492	13.82
898.662	-80.38
898.832	-4.61
899.003	-4.61
899.173	67.07
899.343	19.97
899.513	48.64
