Data from USB4F104151__92__11-06-47-161.txt Node

Date: Wed Mar 12 11:06:47 EDT 2025
User: louis
Spectrometer: USB4F10415
Trigger mode: 4
Integration Time (sec): 2.000000E-2
Scans to average: 1
Electric dark correction enabled: true
Nonlinearity correction enabled: false
Boxcar width: 0
XAxis mode: Wavelengths
Number of Pixels in Spectrum: 3648
>>>>>Begin Spectral Data<<<<<
178.204	-56.15
178.424	-56.15
178.644	-56.15
178.864	-60.24
179.084	-9.05
179.304	-19.29
179.524	36.01
179.744	-43.86
179.964	66.73
180.184	3.24
180.404	85.16
180.624	31.91
180.844	-37.72
181.064	-54.1
181.283	5.29
181.503	-56.15
181.723	-17.24
181.943	-2.9
182.163	19.63
182.383	-0.85
182.602	-9.05
182.822	52.39
183.042	-64.34
183.262	42.15
183.482	-4.95
183.701	-39.76
183.921	27.82
184.141	-70.48
184.361	66.73
184.58	72.87
184.8	29.87
185.02	-82.77
185.239	124.07
185.459	-76.63
185.679	19.63
185.898	-0.85
186.118	89.26
186.338	-13.14
186.557	-47.96
186.777	40.11
186.997	-37.72
187.216	7.34
187.436	76.97
187.655	-9.05
187.875	42.15
188.095	-19.29
188.314	40.11
188.534	38.06
188.753	27.82
188.973	38.06
189.192	140.46
189.412	-47.96
189.631	48.3
189.851	25.77
190.07	31.91
190.29	23.72
190.509	38.06
190.729	1.19
190.948	81.07
191.168	109.74
191.387	134.31
191.607	42.15
191.826	60.59
192.045	42.15
192.265	13.48
192.484	13.48
192.704	79.02
192.923	5.29
193.142	-21.33
193.362	15.53
193.581	60.59
193.8	13.48
194.02	3.24
194.239	23.72
194.458	79.02
194.678	9.39
194.897	21.67
195.116	-62.29
195.335	23.72
195.555	58.54
195.774	-62.29
195.993	42.15
196.212	44.2
196.432	29.87
196.651	50.35
196.87	13.48
197.089	-7
197.308	23.72
197.528	70.83
197.747	19.63
197.966	-0.85
198.185	31.91
198.404	-23.38
198.623	21.67
198.842	13.48
199.062	50.35
199.281	52.39
199.5	60.59
199.719	5.29
199.938	1.19
200.157	64.68
200.376	62.63
200.595	50.35
200.814	-23.38
201.033	17.58
201.252	-4.95
201.471	-27.48
201.69	27.82
201.909	-21.33
202.128	3.24
202.347	7.34
202.566	1.19
202.785	7.34
203.004	62.63
203.223	17.58
203.442	68.78
203.661	31.91
203.879	58.54
204.098	50.35
204.317	17.58
204.536	72.87
204.755	17.58
204.974	38.06
205.193	42.15
205.411	103.59
205.63	50.35
205.849	-9.05
206.068	85.16
206.287	-33.62
206.505	74.92
206.724	-27.48
206.943	27.82
207.162	83.11
207.381	31.91
207.599	9.39
207.818	15.53
208.037	1.19
208.255	42.15
208.474	50.35
208.693	19.63
208.911	-58.2
209.13	122.02
209.349	5.29
209.567	36.01
209.786	72.87
210.005	48.3
210.223	40.11
210.442	-31.57
210.661	66.73
210.879	-27.48
211.098	33.96
211.316	-11.09
211.535	66.73
211.753	-4.95
211.972	40.11
212.191	-2.9
212.409	76.97
212.628	50.35
212.846	21.67
213.065	60.59
213.283	25.77
213.502	46.25
213.72	68.78
213.938	46.25
214.157	83.11
214.375	31.91
214.594	15.53
214.812	-2.9
215.031	11.43
215.249	-4.95
215.467	72.87
215.686	-0.85
215.904	83.11
216.122	42.15
216.341	1.19
216.559	17.58
216.778	50.35
216.996	-33.62
217.214	-4.95
217.432	13.48
217.651	-0.85
217.869	54.44
218.087	17.58
218.306	42.15
218.524	56.49
218.742	-21.33
218.96	99.5
219.179	40.11
219.397	-17.24
219.615	25.77
219.833	50.35
220.051	-23.38
220.27	33.96
220.488	-13.14
220.706	58.54
220.924	5.29
221.142	29.87
221.36	21.67
221.578	-31.57
221.796	27.82
222.015	-4.95
222.233	27.82
222.451	27.82
222.669	7.34
222.887	31.91
223.105	29.87
223.323	91.31
223.541	3.24
223.759	29.87
223.977	31.91
224.195	132.26
224.413	60.59
224.631	15.53
224.849	42.15
225.067	44.2
225.285	27.82
225.503	74.92
225.721	13.48
225.939	29.87
226.157	31.91
226.375	103.59
226.592	19.63
226.81	58.54
227.028	40.11
227.246	101.55
227.464	-25.43
227.682	62.63
227.9	87.21
228.117	29.87
228.335	-7
228.553	13.48
228.771	29.87
228.989	-25.43
229.206	21.67
229.424	-2.9
229.642	23.72
229.86	-72.53
230.077	54.44
230.295	23.72
230.513	111.78
230.731	23.72
230.948	40.11
231.166	42.15
231.384	50.35
231.601	62.63
231.819	60.59
232.037	-66.39
232.254	79.02
232.472	23.72
232.689	38.06
232.907	50.35
233.125	-11.09
233.342	-29.52
233.56	21.67
233.777	-21.33
233.995	-0.85
234.213	31.91
234.43	1.19
234.648	21.67
234.865	21.67
235.083	52.39
235.3	62.63
235.518	13.48
235.735	87.21
235.953	58.54
236.17	7.34
236.388	-54.1
236.605	109.74
236.822	15.53
237.04	38.06
237.257	17.58
237.475	-72.53
237.692	3.24
237.909	29.87
238.127	31.91
238.344	33.96
238.562	5.29
238.779	44.2
238.996	91.31
239.214	-19.29
239.431	54.44
239.648	56.49
239.865	19.63
240.083	-13.14
240.3	-21.33
240.517	-43.86
240.735	-19.29
240.952	119.98
241.169	31.91
241.386	42.15
241.603	95.4
241.821	-27.48
242.038	23.72
242.255	52.39
242.472	15.53
242.689	-35.67
242.907	36.01
243.124	3.24
243.341	42.15
243.558	-43.86
243.775	36.01
243.992	1.19
244.209	-2.9
244.426	93.35
244.643	29.87
244.86	-9.05
245.078	85.16
245.295	-37.72
245.512	44.2
245.729	31.91
245.946	68.78
246.163	79.02
246.38	52.39
246.597	25.77
246.814	27.82
247.031	-19.29
247.248	76.97
247.464	60.59
247.681	15.53
247.898	91.31
248.115	48.3
248.332	31.91
248.549	33.96
248.766	117.93
248.983	25.77
249.2	81.07
249.417	27.82
249.633	-11.09
249.85	27.82
250.067	-4.95
250.284	17.58
250.501	3.24
250.717	-19.29
250.934	-47.96
251.151	9.39
251.368	-2.9
251.585	3.24
251.801	11.43
252.018	-4.95
252.235	9.39
252.451	31.91
252.668	3.24
252.885	-64.34
253.102	-9.05
253.318	36.01
253.535	13.48
253.752	5.29
253.968	-50
254.185	-4.95
254.401	-37.72
254.618	54.44
254.835	13.48
255.051	19.63
255.268	25.77
255.484	29.87
255.701	11.43
255.917	-39.76
256.134	-2.9
256.351	1.19
256.567	7.34
256.784	-7
257	-17.24
257.217	56.49
257.433	74.92
257.65	1.19
257.866	70.83
258.082	-7
258.299	19.63
258.515	42.15
258.732	-4.95
258.948	38.06
259.165	60.59
259.381	46.25
259.597	-13.14
259.814	21.67
260.03	-13.14
260.246	46.25
260.463	19.63
260.679	33.96
260.895	36.01
261.112	44.2
261.328	50.35
261.544	54.44
261.761	87.21
261.977	25.77
262.193	64.68
262.409	76.97
262.626	17.58
262.842	44.2
263.058	13.48
263.274	36.01
263.49	72.87
263.707	19.63
263.923	76.97
264.139	11.43
264.355	-58.2
264.571	54.44
264.787	29.87
265.004	40.11
265.22	5.29
265.436	25.77
265.652	36.01
265.868	33.96
266.084	27.82
266.3	46.25
266.516	54.44
266.732	-52.05
266.948	-35.67
267.164	1.19
267.38	31.91
267.596	54.44
267.812	60.59
268.028	27.82
268.244	29.87
268.46	21.67
268.676	81.07
268.892	-37.72
269.108	52.39
269.324	7.34
269.54	-68.44
269.756	79.02
269.972	25.77
270.188	15.53
270.403	81.07
270.619	-0.85
270.835	81.07
271.051	64.68
271.267	21.67
271.483	40.11
271.698	3.24
271.914	-0.85
272.13	29.87
272.346	38.06
272.562	31.91
272.777	85.16
272.993	52.39
273.209	15.53
273.425	9.39
273.64	-11.09
273.856	52.39
274.072	25.77
274.287	42.15
274.503	-9.05
274.719	66.73
274.934	44.2
275.15	-43.86
275.366	54.44
275.581	36.01
275.797	-29.52
276.012	124.07
276.228	-13.14
276.444	25.77
276.659	3.24
276.875	-13.14
277.09	70.83
277.306	-2.9
277.521	81.07
277.737	-0.85
277.952	38.06
278.168	21.67
278.383	56.49
278.599	-25.43
278.814	-29.52
279.03	107.69
279.245	64.68
279.461	-21.33
279.676	25.77
279.892	-68.44
280.107	9.39
280.322	19.63
280.538	42.15
280.753	-7
280.969	11.43
281.184	15.53
281.399	142.5
281.615	-4.95
281.83	40.11
282.045	58.54
282.26	-17.24
282.476	7.34
282.691	60.59
282.906	-7
283.122	-15.19
283.337	13.48
283.552	-9.05
283.767	21.67
283.983	68.78
284.198	1.19
284.413	54.44
284.628	-41.81
284.843	50.35
285.058	52.39
285.274	11.43
285.489	46.25
285.704	-31.57
285.919	3.24
286.134	44.2
286.349	42.15
286.564	-2.9
286.779	11.43
286.995	15.53
287.21	-43.86
287.425	-39.76
287.64	17.58
287.855	-43.86
288.07	-52.05
288.285	58.54
288.5	-7
288.715	44.2
288.93	15.53
289.145	42.15
289.36	7.34
289.575	23.72
289.79	40.11
290.004	25.77
290.219	46.25
290.434	-7
290.649	1.19
290.864	-15.19
291.079	19.63
291.294	97.45
291.509	52.39
291.724	-0.85
291.938	15.53
292.153	33.96
292.368	-21.33
292.583	-35.67
292.798	15.53
293.012	107.69
293.227	31.91
293.442	62.63
293.657	52.39
293.871	54.44
294.086	-21.33
294.301	13.48
294.516	68.78
294.73	25.77
294.945	-11.09
295.16	-31.57
295.374	109.74
295.589	33.96
295.804	68.78
296.018	42.15
296.233	-0.85
296.447	-29.52
296.662	72.87
296.877	17.58
297.091	21.67
297.306	-25.43
297.52	54.44
297.735	46.25
297.949	5.29
298.164	93.35
298.378	5.29
298.593	-45.91
298.807	-35.67
299.022	99.5
299.236	62.63
299.451	36.01
299.665	79.02
299.88	-0.85
300.094	33.96
300.309	1.19
300.523	97.45
300.737	-17.24
300.952	-23.38
301.166	-13.14
301.381	17.58
301.595	9.39
301.809	29.87
302.024	5.29
302.238	-33.62
302.452	17.58
302.667	36.01
302.881	50.35
303.095	56.49
303.309	31.91
303.524	1.19
303.738	38.06
303.952	13.48
304.166	70.83
304.381	27.82
304.595	66.73
304.809	27.82
305.023	11.43
305.237	-7
305.452	-60.24
305.666	42.15
305.88	60.59
306.094	74.92
306.308	21.67
306.522	25.77
306.736	79.02
306.95	46.25
307.164	50.35
307.379	-7
307.593	97.45
307.807	44.2
308.021	66.73
308.235	72.87
308.449	-43.86
308.663	17.58
308.877	58.54
309.091	1.19
309.305	19.63
309.519	7.34
309.733	15.53
309.947	-23.38
310.161	111.78
310.374	9.39
310.588	40.11
310.802	25.77
311.016	-37.72
311.23	33.96
311.444	46.25
311.658	11.43
311.872	52.39
312.085	64.68
312.299	72.87
312.513	64.68
312.727	-0.85
312.941	-2.9
313.154	68.78
313.368	25.77
313.582	17.58
313.796	70.83
314.009	7.34
314.223	42.15
314.437	-62.29
314.651	48.3
314.864	-31.57
315.078	-27.48
315.292	-39.76
315.505	38.06
315.719	66.73
315.933	1.19
316.146	40.11
316.36	85.16
316.573	27.82
316.787	-21.33
317.001	31.91
317.214	33.96
317.428	21.67
317.641	-17.24
317.855	9.39
318.068	62.63
318.282	13.48
318.495	56.49
318.709	79.02
318.922	-7
319.136	142.5
319.349	48.3
319.563	42.15
319.776	21.67
319.99	-31.57
320.203	3.24
320.417	-9.05
320.63	-7
320.843	13.48
321.057	64.68
321.27	19.63
321.483	107.69
321.697	17.58
321.91	13.48
322.124	17.58
322.337	11.43
322.55	21.67
322.763	52.39
322.977	5.29
323.19	13.48
323.403	15.53
323.617	-19.29
323.83	-11.09
324.043	48.3
324.256	44.2
324.469	27.82
324.683	25.77
324.896	52.39
325.109	56.49
325.322	-68.44
325.535	87.21
325.748	70.83
325.962	-7
326.175	1.19
326.388	23.72
326.601	29.87
326.814	5.29
327.027	76.97
327.24	1.19
327.453	33.96
327.666	-4.95
327.879	31.91
328.092	25.77
328.305	23.72
328.518	25.77
328.731	-15.19
328.944	74.92
329.157	-33.62
329.37	-33.62
329.583	52.39
329.796	13.48
330.009	54.44
330.222	15.53
330.435	3.24
330.648	89.26
330.861	21.67
331.073	23.72
331.286	-25.43
331.499	7.34
331.712	1.19
331.925	-4.95
332.138	40.11
332.35	89.26
332.563	21.67
332.776	44.2
332.989	-52.05
333.202	5.29
333.414	15.53
333.627	44.2
333.84	46.25
334.053	33.96
334.265	3.24
334.478	79.02
334.691	29.87
334.903	115.88
335.116	21.67
335.329	7.34
335.541	-43.86
335.754	87.21
335.966	-19.29
336.179	23.72
336.392	70.83
336.604	13.48
336.817	1.19
337.029	-9.05
337.242	-41.81
337.454	9.39
337.667	122.02
337.88	50.35
338.092	40.11
338.305	50.35
338.517	38.06
338.729	-60.24
338.942	44.2
339.154	-50
339.367	-43.86
339.579	105.64
339.792	9.39
340.004	54.44
340.217	-7
340.429	50.35
340.641	-37.72
340.854	23.72
341.066	-52.05
341.278	36.01
341.491	-25.43
341.703	97.45
341.915	27.82
342.128	68.78
342.34	70.83
342.552	48.3
342.764	5.29
342.977	40.11
343.189	-31.57
343.401	-2.9
343.613	-9.05
343.826	21.67
344.038	-19.29
344.25	-4.95
344.462	91.31
344.674	44.2
344.886	58.54
345.099	-9.05
345.311	-19.29
345.523	44.2
345.735	-50
345.947	64.68
346.159	-2.9
346.371	56.49
346.583	13.48
346.795	91.31
347.007	19.63
347.219	1.19
347.431	1.19
347.643	99.5
347.855	-37.72
348.067	48.3
348.279	58.54
348.491	5.29
348.703	1.19
348.915	33.96
349.127	9.39
349.339	48.3
349.551	29.87
349.763	79.02
349.975	48.3
350.187	23.72
350.399	11.43
350.61	25.77
350.822	5.29
351.034	-17.24
351.246	-37.72
351.458	33.96
351.669	5.29
351.881	33.96
352.093	-9.05
352.305	17.58
352.517	40.11
352.728	70.83
352.94	36.01
353.152	29.87
353.363	15.53
353.575	42.15
353.787	52.39
353.999	42.15
354.21	74.92
354.422	-2.9
354.633	-27.48
354.845	38.06
355.057	-11.09
355.268	17.58
355.48	25.77
355.692	33.96
355.903	13.48
356.115	-23.38
356.326	11.43
356.538	117.93
356.749	89.26
356.961	-9.05
357.172	33.96
357.384	15.53
357.595	66.73
357.807	38.06
358.018	5.29
358.23	7.34
358.441	11.43
358.653	-31.57
358.864	21.67
359.075	36.01
359.287	74.92
359.498	70.83
359.709	15.53
359.921	38.06
360.132	33.96
360.344	3.24
360.555	21.67
360.766	13.48
360.977	-2.9
361.189	89.26
361.4	13.48
361.611	48.3
361.823	-2.9
362.034	17.58
362.245	54.44
362.456	72.87
362.667	68.78
362.879	-11.09
363.09	-25.43
363.301	56.49
363.512	72.87
363.723	3.24
363.935	-35.67
364.146	70.83
364.357	3.24
364.568	3.24
364.779	-9.05
364.99	95.4
365.201	11.43
365.412	97.45
365.623	99.5
365.834	-19.29
366.045	44.2
366.256	33.96
366.467	44.2
366.678	58.54
366.889	72.87
367.1	42.15
367.311	52.39
367.522	3.24
367.733	-19.29
367.944	91.31
368.155	46.25
368.366	64.68
368.577	7.34
368.788	21.67
368.999	-64.34
369.209	9.39
369.42	60.59
369.631	52.39
369.842	56.49
370.053	50.35
370.264	85.16
370.474	-45.91
370.685	29.87
370.896	48.3
371.107	70.83
371.317	42.15
371.528	48.3
371.739	109.74
371.95	87.21
372.16	-23.38
372.371	66.73
372.582	-11.09
372.792	-21.33
373.003	25.77
373.214	60.59
373.424	-19.29
373.635	33.96
373.846	54.44
374.056	21.67
374.267	31.91
374.477	-17.24
374.688	74.92
374.898	58.54
375.109	91.31
375.319	25.77
375.53	81.07
375.74	93.35
375.951	33.96
376.161	64.68
376.372	48.3
376.582	40.11
376.793	52.39
377.003	27.82
377.214	52.39
377.424	17.58
377.635	62.63
377.845	3.24
378.055	-11.09
378.266	7.34
378.476	33.96
378.686	25.77
378.897	-21.33
379.107	44.2
379.317	9.39
379.528	-19.29
379.738	17.58
379.948	27.82
380.158	29.87
380.369	60.59
380.579	36.01
380.789	38.06
380.999	89.26
381.21	-19.29
381.42	89.26
381.63	62.63
381.84	27.82
382.05	9.39
382.261	64.68
382.471	62.63
382.681	19.63
382.891	56.49
383.101	13.48
383.311	15.53
383.521	25.77
383.731	60.59
383.941	42.15
384.151	42.15
384.361	29.87
384.571	7.34
384.781	-37.72
384.991	36.01
385.201	74.92
385.411	29.87
385.621	-17.24
385.831	11.43
386.041	56.49
386.251	50.35
386.461	124.07
386.671	-11.09
386.881	83.11
387.091	-2.9
387.301	-2.9
387.511	5.29
387.72	79.02
387.93	21.67
388.14	7.34
388.35	-7
388.56	105.64
388.769	85.16
388.979	66.73
389.189	31.91
389.399	-23.38
389.609	36.01
389.818	27.82
390.028	54.44
390.238	31.91
390.447	42.15
390.657	60.59
390.867	17.58
391.076	13.48
391.286	3.24
391.496	-39.76
391.705	13.48
391.915	36.01
392.125	-11.09
392.334	52.39
392.544	62.63
392.753	-13.14
392.963	-52.05
393.172	29.87
393.382	5.29
393.591	74.92
393.801	38.06
394.01	64.68
394.22	38.06
394.429	68.78
394.639	48.3
394.848	89.26
395.058	-23.38
395.267	54.44
395.477	66.73
395.686	89.26
395.895	97.45
396.105	5.29
396.314	79.02
396.524	5.29
396.733	68.78
396.942	70.83
397.152	33.96
397.361	5.29
397.57	15.53
397.78	62.63
397.989	23.72
398.198	105.64
398.407	52.39
398.617	36.01
398.826	66.73
399.035	76.97
399.244	54.44
399.453	15.53
399.663	62.63
399.872	58.54
400.081	-9.05
400.29	89.26
400.499	-21.33
400.708	70.83
400.917	-19.29
401.127	33.96
401.336	79.02
401.545	91.31
401.754	68.78
401.963	48.3
402.172	93.35
402.381	126.12
402.59	21.67
402.799	40.11
403.008	54.44
403.217	29.87
403.426	70.83
403.635	89.26
403.844	15.53
404.053	76.97
404.262	23.72
404.471	117.93
404.68	3.24
404.888	3.24
405.097	40.11
405.306	165.03
405.515	64.68
405.724	-13.14
405.933	76.97
406.142	15.53
406.35	72.87
406.559	66.73
406.768	79.02
406.977	68.78
407.185	105.64
407.394	74.92
407.603	142.5
407.812	66.73
408.02	5.29
408.229	115.88
408.438	87.21
408.646	83.11
408.855	-31.57
409.064	99.5
409.272	132.26
409.481	142.5
409.69	81.07
409.898	58.54
410.107	103.59
410.315	146.6
410.524	58.54
410.733	111.78
410.941	62.63
411.15	119.98
411.358	173.22
411.567	150.7
411.775	142.5
411.984	91.31
412.192	158.89
412.401	-21.33
412.609	210.09
412.818	232.62
413.026	179.37
413.234	142.5
413.443	234.66
413.651	126.12
413.86	126.12
414.068	146.6
414.276	212.14
414.485	212.14
414.693	189.61
414.901	230.57
415.11	218.28
415.318	191.66
415.526	199.85
415.734	267.43
415.943	234.66
416.151	242.85
416.359	240.81
416.567	205.99
416.776	249
416.984	371.88
417.192	398.5
417.4	162.98
417.608	240.81
417.817	335.01
418.025	320.68
418.233	439.46
418.441	328.87
418.649	423.08
418.857	474.28
419.065	390.31
419.273	439.46
419.481	435.36
419.689	523.43
419.897	478.37
420.105	476.32
420.313	611.49
420.521	451.75
420.729	494.76
420.937	509.09
421.145	535.71
421.353	599.2
421.561	578.72
421.769	623.78
421.977	576.67
422.185	611.49
422.393	677.02
422.601	785.57
422.809	699.55
423.017	783.52
423.224	664.74
423.432	670.88
423.64	738.46
423.848	939.16
424.056	777.37
424.263	978.08
424.471	851.1
424.679	838.81
424.887	941.21
425.094	939.16
425.302	945.31
425.51	996.51
425.718	1021.08
425.925	1049.75
426.133	1111.19
426.341	1127.58
426.548	1168.54
426.756	1211.54
426.964	1195.16
427.171	1256.6
427.379	1301.65
427.586	1338.52
427.794	1381.53
428.001	1508.5
428.209	1496.21
428.417	1541.27
428.624	1557.65
428.832	1500.31
429.039	1604.75
429.247	1592.47
429.454	1793.17
429.662	1830.03
429.869	1682.58
430.076	1770.64
430.284	1778.83
430.491	1907.85
430.699	1940.62
430.906	1760.4
431.114	2010.25
431.321	2141.32
431.528	2024.59
431.736	2106.51
431.943	2290.82
432.15	2249.86
432.358	2354.31
432.565	2430.09
432.772	2397.32
432.979	2559.11
433.187	2428.04
433.394	2641.03
433.601	2792.58
433.808	2763.9
434.016	2798.72
434.223	2917.5
434.43	2946.17
434.637	2886.78
434.844	3089.53
435.052	3193.98
435.259	3130.49
435.466	3331.19
435.673	3210.36
435.88	3325.05
436.087	3585.14
436.294	3511.41
436.501	3441.78
436.708	3466.36
436.915	3654.77
437.122	3857.52
437.329	3826.8
437.537	3845.23
437.743	3957.87
437.95	4060.27
438.157	4146.28
438.364	4293.74
438.571	4363.37
438.778	4357.22
438.985	4754.53
439.192	4562.02
439.399	4750.43
439.606	4654.18
439.813	4850.78
440.02	5035.1
440.227	4942.94
440.433	5018.72
440.64	5098.59
440.847	5026.91
441.054	5440.6
441.261	5665.88
441.467	5395.54
441.674	5727.32
441.881	5960.78
442.088	5903.44
442.294	5821.52
442.501	5993.55
442.708	6011.98
442.914	6349.9
443.121	6657.09
443.328	6286.41
443.534	6765.64
443.741	6710.34
443.948	6427.72
444.154	6999.1
444.361	7042.11
444.568	7089.21
444.774	7134.27
444.981	7023.68
445.187	7400.51
445.394	7640.12
445.6	7437.37
445.807	8274.99
446.013	7732.28
446.22	7898.16
446.426	8266.8
446.633	8449.07
446.839	8666.15
447.046	8455.21
447.252	8799.27
447.459	8893.47
447.665	8729.64
447.871	8965.15
448.078	9479.19
448.284	9128.99
448.491	9196.57
448.697	9610.26
448.903	9868.31
449.11	9874.45
449.316	9630.74
449.522	9993.23
449.728	10091.54
449.935	10294.29
450.141	9999.38
450.347	10554.38
450.553	10220.56
450.76	10267.66
450.966	10761.22
451.172	10581
451.378	10816.52
451.584	10738.69
451.791	10837
451.997	10824.71
452.203	10914.82
452.409	10839.05
452.615	11004.93
452.821	10564.62
453.027	10511.37
453.233	11029.51
453.44	10540.04
453.646	10523.66
453.852	10597.38
454.058	10755.08
454.264	10585.1
454.47	10699.78
454.676	10664.97
454.882	10800.13
455.088	9819.16
455.294	10048.53
455.5	10081.3
455.705	10150.93
455.911	9933.84
456.117	9653.27
456.323	9716.76
456.529	9038.88
456.735	9481.24
456.941	9186.33
457.147	8999.97
457.352	8862.76
457.558	8905.76
457.764	8873
457.97	8608.81
458.176	8510.5
458.381	8270.89
458.587	7980.08
458.793	7877.68
458.999	7459.9
459.204	8119.34
459.41	7875.63
459.616	7334.97
459.821	7259.2
460.027	7357.5
460.233	7242.81
460.438	6923.33
460.644	6845.51
460.85	6591.56
461.055	6468.68
461.261	6478.92
461.466	5995.6
461.672	5819.47
461.878	6161.48
462.083	5766.23
462.289	5682.26
462.494	5772.37
462.7	5520.47
462.905	5248.09
463.111	5428.31
463.316	5547.09
463.522	5299.29
463.727	5336.15
463.932	5311.58
464.138	5194.84
464.343	5332.06
464.549	5041.25
464.754	5262.43
464.959	5291.1
465.165	5246.04
465.37	5067.87
465.575	4983.9
465.781	5026.91
465.986	5088.35
466.191	4944.99
466.397	4756.58
466.602	4535.4
466.807	4711.52
467.012	4717.67
467.218	4564.07
467.423	4746.34
467.628	4805.73
467.833	4877.41
468.038	4750.43
468.244	4476.01
468.449	4793.44
468.654	4738.15
468.859	4508.77
469.064	4613.22
469.269	4404.33
469.474	4396.14
469.679	4453.48
469.885	4426.86
470.09	4490.34
470.295	4572.26
470.5	4258.92
470.705	4324.46
470.91	4226.15
471.115	4291.69
471.32	4367.46
471.525	4291.69
471.73	4269.16
471.935	4000.88
472.139	3953.77
472.344	4015.21
472.549	3976.3
472.754	3898.48
472.959	3886.19
473.164	3705.97
473.369	3738.74
473.574	3767.41
473.778	3894.38
473.983	3824.75
474.188	3794.03
474.393	3560.56
474.598	3599.48
474.802	3558.52
475.007	3544.18
475.212	3550.32
475.417	3456.12
475.621	3568.76
475.826	3363.96
476.031	3533.94
476.235	3308.66
476.44	3382.39
476.645	3331.19
476.849	3198.07
477.054	3263.61
477.259	3249.27
477.463	3148.92
477.668	3204.22
477.872	3310.71
478.077	3144.83
478.282	3077.24
478.486	3071.1
478.691	2921.6
478.895	3001.47
479.1	3105.92
479.304	3087.48
479.509	2942.08
479.713	2985.09
479.918	2944.13
480.122	2894.97
480.326	2983.04
480.531	2880.64
480.735	2796.67
480.94	2794.62
481.144	2978.94
481.348	2899.07
481.553	2776.19
481.757	2712.71
481.961	2749.57
482.166	2954.37
482.37	2878.59
482.574	2804.86
482.778	2706.56
482.983	2862.21
483.187	2724.99
483.391	2870.4
483.595	2708.61
483.8	2782.34
484.004	2843.78
484.208	2860.16
484.412	2806.91
484.616	2813.06
484.821	2827.39
485.025	2804.86
485.229	2768
485.433	2755.71
485.637	2724.99
485.841	2788.48
486.045	2638.98
486.249	2864.25
486.453	2772.1
486.657	2649.22
486.861	2724.99
487.065	2831.49
487.269	2837.63
487.473	2759.81
487.677	2694.27
487.881	2946.17
488.085	2632.83
488.289	2774.14
488.493	2772.1
488.697	2737.28
488.901	2860.16
489.105	2747.52
489.309	2944.13
489.512	2790.53
489.716	2886.78
489.92	2788.48
490.124	2892.93
490.328	2915.45
490.531	2755.71
490.735	2966.65
490.939	2917.5
491.143	2800.77
491.346	2761.86
491.55	2876.54
491.754	2851.97
491.958	2923.65
492.161	2870.4
492.365	2997.37
492.569	3042.43
492.772	3028.09
492.976	3024
493.18	2995.32
493.383	3026.04
493.587	3069.05
493.79	3093.63
493.994	3142.78
494.197	3126.39
494.401	3169.4
494.605	3163.26
494.808	3146.87
495.012	3173.5
495.215	3120.25
495.419	3222.65
495.622	3269.75
495.825	3150.97
496.029	3370.1
496.232	3427.45
496.436	3392.63
496.639	3421.3
496.843	3341.43
497.046	3423.35
497.249	3646.58
497.453	3437.69
497.656	3490.93
497.859	3533.94
498.063	3554.42
498.266	3665.01
498.469	3642.48
498.673	3742.83
498.876	3714.16
499.079	3744.88
499.282	3769.46
499.485	3834.99
499.689	3931.25
499.892	3931.25
500.095	4070.51
500.298	3949.68
500.501	4097.13
500.705	4195.43
500.908	4117.61
501.111	4123.76
501.314	4289.64
501.517	4293.74
501.72	4428.9
501.923	4471.91
502.126	4494.44
502.329	4559.97
502.532	4543.59
502.735	4543.59
502.938	4629.6
503.141	4613.22
503.344	4742.24
503.547	4850.78
503.75	4725.86
503.953	4947.04
504.156	4891.74
504.359	5067.87
504.562	5016.67
504.765	5153.88
504.968	5243.99
505.17	5131.36
505.373	5268.57
505.576	5465.18
505.779	5350.49
505.982	5592.15
506.185	5737.56
506.387	5737.56
506.59	5694.55
506.793	5809.23
506.996	5735.51
507.198	5919.82
507.401	5872.72
507.604	5942.35
507.807	6108.24
508.009	6089.81
508.212	6028.37
508.415	6343.75
508.617	6401.1
508.82	6364.23
509.022	6528.07
509.225	6612.04
509.428	6665.28
509.63	6741.06
509.833	6906.95
510.035	6980.67
510.238	6884.42
510.44	6761.54
510.643	7111.74
510.845	7025.73
511.048	7099.45
511.25	7148.61
511.453	7267.39
511.655	7627.83
511.858	7599.16
512.06	7388.22
512.262	7709.75
512.465	7556.15
512.667	7824.44
512.87	7808.05
513.072	7965.75
513.274	8180.78
513.477	8236.08
513.679	8172.59
513.881	8283.18
514.084	8533.03
514.286	8547.37
514.488	8524.84
514.69	8829.99
514.893	8789.03
515.095	8795.17
515.297	8971.3
515.499	8950.82
515.701	9085.98
515.904	9184.29
516.106	9344.03
516.308	9323.55
516.51	9583.64
516.712	9454.62
516.914	9640.98
517.116	9991.19
517.318	9894.93
517.52	10071.06
517.722	10095.63
517.925	10175.5
518.127	10351.63
518.329	10427.4
518.531	10294.29
518.733	10664.97
518.935	10703.88
519.136	10816.52
519.338	11103.23
519.54	10890.24
519.742	11305.98
519.944	11305.98
520.146	11566.07
520.348	11379.71
520.55	11441.15
520.752	11504.64
520.954	11750.39
521.155	11842.55
521.357	12184.56
521.559	12059.63
521.761	12323.82
521.963	12387.31
522.164	12583.91
522.366	12430.32
522.568	12733.42
522.77	12981.22
522.971	12852.2
523.173	12854.25
523.375	13108.19
523.576	13181.92
523.778	13204.45
523.98	13528.03
524.181	13444.06
524.383	13505.5
524.584	13446.11
524.786	13786.07
524.988	13755.35
525.189	14179.28
525.391	14052.31
525.592	14078.93
525.794	14060.5
525.995	14367.7
526.197	14336.98
526.398	14363.6
526.6	14588.88
526.801	14683.08
527.003	14625.74
527.204	14607.31
527.406	14922.69
527.607	15064
527.808	14951.37
528.01	14875.59
528.211	15369.15
528.412	15164.36
528.614	15578.04
528.815	15268.8
529.016	15367.1
529.218	15377.34
529.419	15449.02
529.62	15684.54
529.822	15520.7
530.023	15612.86
530.224	15676.35
530.425	15702.97
530.626	15813.56
530.828	15754.17
531.029	16110.52
531.23	16145.33
531.431	15922.1
531.632	16163.76
531.833	15997.88
532.035	16167.86
532.236	16176.05
532.437	16204.72
532.638	16108.47
532.839	16247.73
533.04	16348.08
533.241	16241.59
533.442	16487.34
533.643	16665.52
533.844	16405.42
534.045	16599.98
534.246	16276.4
534.447	16421.81
534.648	16565.17
534.849	16583.6
535.05	16538.54
535.251	16708.52
535.451	16606.13
535.652	16300.98
535.853	16417.71
536.054	16669.61
536.255	16593.84
536.456	16520.11
536.657	16847.79
536.857	16380.85
537.058	16565.17
537.259	16786.35
537.46	16489.39
537.66	16686
537.861	16911.27
538.062	16878.51
538.263	17091.49
538.463	16561.07
538.664	16677.8
538.865	16769.96
539.065	16757.67
539.266	16632.75
539.466	16991.14
539.667	16591.79
539.868	16917.42
540.068	16737.2
540.269	16796.59
540.469	16987.05
540.67	16833.45
540.87	16589.74
541.071	16651.18
541.271	16815.02
541.472	16858.03
541.672	16790.44
541.873	16941.99
542.073	16452.53
542.274	16720.81
542.474	16686
542.675	16761.77
542.875	17015.72
543.075	16919.46
543.276	16675.76
543.476	16970.66
543.676	16745.39
543.877	16921.51
544.077	16987.05
544.277	16919.46
544.478	16815.02
544.678	16753.58
544.878	16993.19
545.078	16808.87
545.279	16757.67
545.479	16653.23
545.679	16802.73
545.879	16700.33
546.079	16962.47
546.28	16716.72
546.48	16589.74
546.68	16702.38
546.88	16681.9
547.08	16724.91
547.28	16739.24
547.48	16573.36
547.68	16913.32
547.88	16763.82
548.081	16905.13
548.281	16794.54
548.481	16696.24
548.681	16872.36
548.881	16798.63
549.081	16700.33
549.28	16794.54
549.48	16941.99
549.68	16823.21
549.88	16956.33
550.08	16843.69
550.28	16890.79
550.48	16798.63
550.68	16737.2
550.88	16806.83
551.08	16679.85
551.279	16776.11
551.479	16769.96
551.679	16540.59
551.879	16661.42
552.079	16763.82
552.278	16532.4
552.478	16913.32
552.678	16860.07
552.878	16737.2
553.077	16536.49
553.277	16499.63
553.477	16839.59
553.676	16485.3
553.876	16573.36
554.076	16698.28
554.275	16567.21
554.475	16460.72
554.674	16595.89
554.874	16499.63
555.074	16405.42
555.273	16526.25
555.473	16546.73
555.672	16384.94
555.872	16440.24
556.071	16466.86
556.271	16524.21
556.47	16460.72
556.67	16343.99
556.869	16225.2
557.068	16333.75
557.268	16114.61
557.467	16184.24
557.667	16270.26
557.866	16087.99
558.065	16061.37
558.265	16049.08
558.464	15942.58
558.663	16341.94
558.863	16047.03
559.062	16210.87
559.261	15864.76
559.461	15934.39
559.66	15707.07
559.859	16044.98
560.058	15850.42
560.258	15858.62
560.457	15662.01
560.656	15969.21
560.855	15743.93
561.054	15485.89
561.253	15637.44
561.453	15836.09
561.652	15860.66
561.851	15772.6
562.05	15475.65
562.249	15541.18
562.448	15522.75
562.647	15567.81
562.846	15379.39
563.045	15291.33
563.244	15221.7
563.443	15707.07
563.642	15072.2
563.841	15403.97
564.04	14996.42
564.239	15268.8
564.438	15184.83
564.637	14957.51
564.836	15055.81
565.035	14932.93
565.234	14961.61
565.432	14908.36
565.631	14822.34
565.83	14707.66
566.029	14752.71
566.228	14666.7
566.427	14683.08
566.625	14316.5
566.824	14193.62
567.023	14541.77
567.222	14218.19
567.42	14287.82
567.619	14158.8
567.818	14138.32
568.016	14320.59
568.215	14394.32
568.414	14248.91
568.612	14152.66
568.811	13908.95
569.01	13951.96
569.208	13659.1
569.407	13956.05
569.605	13829.08
569.804	13734.87
570.002	13587.42
570.201	13908.95
570.4	13597.66
570.598	13646.81
570.797	13435.87
570.995	13480.92
571.193	13403.1
571.392	13433.82
571.59	13341.66
571.789	13263.84
571.987	13122.53
572.186	13104.1
572.384	13257.7
572.582	13214.69
572.781	13083.62
572.979	12794.86
573.177	13022.18
573.376	13083.62
573.574	12792.81
573.772	12968.93
573.971	12825.57
574.169	12651.5
574.367	12649.45
574.565	12772.33
574.763	12747.75
574.962	12725.22
575.16	12633.07
575.358	12841.96
575.556	12278.77
575.754	12590.06
575.952	12338.16
576.151	12198.9
576.349	12307.44
576.547	12358.64
576.745	12377.07
576.943	12344.3
577.141	12305.39
577.339	12184.56
577.537	12041.2
577.735	12037.11
577.933	12043.25
578.131	12112.88
578.329	11787.25
578.527	11936.76
578.725	11889.65
578.923	11824.12
579.121	11832.31
579.319	11707.38
579.516	11570.17
579.714	11774.97
579.912	11785.21
580.11	11660.28
580.308	11641.85
580.506	11506.68
580.704	11254.78
580.901	11492.35
581.099	11478.01
581.297	11312.13
581.495	11322.37
581.692	11398.14
581.89	11297.79
582.088	11064.32
582.285	11146.24
582.483	11052.03
582.681	11248.64
582.878	11052.03
583.076	11049.99
583.274	11002.88
583.471	10902.53
583.669	10929.16
583.866	10814.47
584.064	10896.39
584.262	10740.74
584.459	10767.37
584.657	10853.38
584.854	10896.39
585.052	10820.61
585.249	10761.22
585.447	10619.91
585.644	10607.62
585.841	10722.31
586.039	10564.62
586.236	10484.75
586.434	10497.03
586.631	10322.96
586.828	10392.59
587.026	10558.47
587.223	10368.01
587.42	10384.4
587.618	10198.03
587.815	10169.36
588.012	10302.48
588.21	10040.34
588.407	10507.27
588.604	9970.71
588.801	9976.85
588.999	10042.39
589.196	9999.38
589.393	9831.44
589.59	10005.52
589.787	9997.33
589.984	9964.56
590.182	9640.98
590.379	9878.55
590.576	9737.24
590.773	9700.37
590.97	9438.23
591.167	9794.58
591.364	9614.36
591.561	9763.86
591.758	9647.13
591.955	9415.71
592.152	9751.57
592.349	9542.68
592.546	9645.08
592.743	9540.63
592.94	9464.86
593.137	9352.22
593.334	9372.7
593.531	9401.37
593.727	9233.44
593.924	9233.44
594.121	9178.14
594.318	9245.73
594.515	9176.09
594.712	9188.38
594.908	9022.5
595.105	9176.09
595.302	9165.85
595.499	9186.33
595.696	8946.72
595.892	8993.83
596.089	9053.22
596.286	9016.35
596.482	8916
596.679	9071.65
596.876	8854.56
597.072	8696.87
597.269	8750.12
597.466	8733.73
597.662	8762.4
597.859	8883.24
598.055	8838.18
598.252	8737.83
598.448	8809.51
598.645	8778.79
598.841	8508.46
599.038	8434.73
599.234	8700.97
599.431	8461.35
599.627	8573.99
599.824	8504.36
600.02	8301.61
600.217	8485.93
600.413	8238.12
600.609	8197.17
600.806	8596.52
601.002	8301.61
601.198	8373.29
601.395	8197.17
601.591	8047.66
601.787	8320.04
601.984	8135.73
602.18	8199.21
602.376	8119.34
602.572	8246.32
602.769	8135.73
602.965	8096.82
603.161	8096.82
603.357	7965.75
603.553	8023.09
603.75	7998.51
603.946	7855.15
604.142	7941.17
604.338	7758.9
604.534	8125.49
604.73	7787.57
604.926	7906.35
605.122	7859.25
605.318	7818.29
605.514	7568.44
605.71	7842.87
605.906	7765.04
606.102	7681.08
606.298	7564.34
606.494	7529.53
606.69	7851.06
606.886	7603.25
607.082	7504.95
607.278	7480.38
607.474	7316.54
607.67	7388.22
607.866	7470.14
608.062	7615.54
608.257	7547.96
608.453	7480.38
608.649	7418.94
608.845	7324.73
609.041	7302.2
609.236	7259.2
609.432	7222.33
609.628	7279.68
609.824	7263.29
610.019	7179.33
610.215	7277.63
610.411	7318.59
610.606	7224.38
610.802	7228.48
610.998	7212.09
611.193	7060.54
611.389	7167.04
611.584	7138.37
611.78	7107.65
611.976	7142.46
612.171	7027.78
612.367	7060.54
612.562	6915.14
612.758	7035.97
612.953	6921.28
613.149	7189.56
613.344	7003.2
613.539	7142.46
613.735	6790.21
613.93	6833.22
614.126	6857.79
614.321	6917.19
614.517	6952
614.712	6646.85
614.907	6927.42
615.103	6880.32
615.298	6849.6
615.493	6845.51
615.688	6624.33
615.884	6904.9
616.079	6919.23
616.274	7017.54
616.47	6736.96
616.665	6530.12
616.86	6700.1
617.055	6687.81
617.25	6646.85
617.445	6761.54
617.641	6497.35
617.836	6605.89
618.031	6573.13
618.226	6513.74
618.421	6507.59
618.616	6628.42
618.811	6468.68
619.006	6571.08
619.201	6495.3
619.396	6460.49
619.591	6310.99
619.786	6472.78
619.981	6321.23
620.176	6255.69
620.371	6177.87
620.566	6298.7
620.761	6310.99
620.956	6188.11
621.151	6319.18
621.346	6239.31
621.541	6126.67
621.735	6192.2
621.93	6104.14
622.125	5952.59
622.32	5842
622.515	6132.81
622.709	6036.56
622.904	5975.12
623.099	5772.37
623.294	6030.41
623.488	5780.56
623.683	5917.78
623.878	5745.75
624.072	5803.09
624.267	5635.16
624.462	5583.96
624.656	5624.92
624.851	5766.23
625.046	5635.16
625.24	5524.57
625.435	5409.88
625.629	5616.72
625.824	5520.47
626.018	5497.94
626.213	5289.05
626.407	5508.18
626.602	5444.7
626.796	5336.15
626.991	5381.21
627.185	5209.18
627.38	5153.88
627.574	5237.85
627.768	5272.67
627.963	5203.04
628.157	5196.89
628.352	5213.28
628.546	5086.3
628.74	5002.33
628.935	5155.93
629.129	5203.04
629.323	5018.72
629.517	4912.22
629.712	4988
629.906	4750.43
630.1	4994.14
630.294	4795.49
630.489	4879.46
630.683	4750.43
630.877	4654.18
631.071	4770.91
631.265	4752.48
631.459	4699.23
631.653	4779.11
631.848	4613.22
632.042	4754.53
632.236	4748.39
632.43	4729.95
632.624	4648.04
632.818	4643.94
633.012	4396.14
633.206	4486.25
633.4	4580.45
633.594	4482.15
633.788	4435.05
633.982	4570.21
634.176	4430.95
634.369	4377.7
634.563	4392.04
634.757	4400.23
634.951	4312.17
635.145	4375.66
635.339	4293.74
635.533	4299.88
635.726	4240.49
635.92	4140.14
636.114	4273.26
636.308	4105.32
636.501	4041.84
636.695	4232.3
636.889	4152.43
637.083	4119.66
637.276	4076.65
637.47	3978.35
637.664	4056.17
637.857	4064.36
638.051	3925.1
638.244	3998.83
638.438	3921.01
638.632	3947.63
638.825	3851.38
639.019	3798.13
639.212	3769.46
639.406	3740.79
639.599	3724.4
639.793	3771.51
639.986	3746.93
640.18	3705.97
640.373	3716.21
640.567	3810.42
640.76	3761.27
640.954	3691.63
641.147	3677.3
641.34	3691.63
641.534	3662.96
641.727	3552.37
641.92	3630.2
642.114	3624.05
642.307	3511.41
642.5	3517.56
642.694	3482.74
642.887	3400.82
643.08	3454.07
643.273	3361.91
643.467	3314.81
643.66	3359.86
643.853	3347.58
644.046	3327.1
644.239	3337.34
644.432	3251.32
644.626	3361.91
644.819	3376.25
645.012	3302.52
645.205	3159.16
645.398	3150.97
645.591	3202.17
645.784	3204.22
645.977	3083.39
646.17	3148.92
646.363	3204.22
646.556	3067
646.749	3003.52
646.942	3077.24
647.135	3069.05
647.328	3101.82
647.521	3009.66
647.714	3067
647.907	3056.76
648.099	3083.39
648.292	2892.93
648.485	3036.28
648.678	2872.45
648.871	2892.93
649.064	2927.74
649.256	2958.46
649.449	2854.02
649.642	2897.02
649.835	2798.72
650.027	2892.93
650.22	2874.49
650.413	2886.78
650.605	2817.15
650.798	2720.9
650.991	2833.54
651.183	2817.15
651.376	2880.64
651.568	2839.68
651.761	2765.95
651.954	2720.9
652.146	2559.11
652.339	2706.56
652.531	2690.18
652.724	2700.42
652.916	2550.92
653.109	2526.34
653.301	2622.59
653.494	2471.04
653.686	2569.35
653.879	2606.21
654.071	2757.76
654.263	2624.64
654.456	2598.02
654.648	2512
654.84	2591.88
655.033	2516.1
655.225	2532.48
655.417	2577.54
655.61	2499.72
655.802	2423.94
655.994	2536.58
656.186	2393.22
656.379	2493.57
656.571	2450.57
656.763	2428.04
656.955	2360.45
657.148	2350.21
657.34	2284.68
657.532	2339.97
657.724	2237.58
657.916	2403.46
658.108	2208.9
658.3	2307.21
658.492	2266.25
658.684	2229.38
658.876	2301.06
659.068	2229.38
659.26	2301.06
659.452	2278.54
659.644	2294.92
659.836	2319.5
660.028	2327.69
660.22	2213
660.412	2231.43
660.604	2028.68
660.796	2276.49
660.988	2096.27
661.18	2106.51
661.372	2096.27
661.563	2129.03
661.755	2094.22
661.947	2053.26
662.139	2114.7
662.331	2094.22
662.522	2176.14
662.714	2159.75
662.906	2083.98
663.097	1997.96
663.289	2088.07
663.481	2026.64
663.673	1961.1
663.864	2061.45
664.056	2016.4
664.247	2043.02
664.439	1985.68
664.631	1993.87
664.822	2043.02
665.014	1924.24
665.205	1965.2
665.397	1985.68
665.588	2024.59
665.78	2079.88
665.971	1881.23
666.163	1981.58
666.354	1903.76
666.546	1944.72
666.737	1827.98
666.929	1995.92
667.12	1885.33
667.311	1909.9
667.503	1903.76
667.694	1930.38
667.885	1922.19
668.077	1834.13
668.268	1889.42
668.459	1860.75
668.651	1922.19
668.842	1850.51
669.033	1813.65
669.224	1877.13
669.416	1850.51
669.607	1797.26
669.798	1793.17
669.989	1778.83
670.18	1809.55
670.371	1768.59
670.563	1811.6
670.754	1846.41
670.945	1750.16
671.136	1762.45
671.327	1766.54
671.518	1762.45
671.709	1823.89
671.9	1799.31
672.091	1836.17
672.282	1780.88
672.473	1795.22
672.664	1719.44
672.855	1684.62
673.046	1698.96
673.237	1778.83
673.428	1766.54
673.619	1784.98
673.809	1713.3
674	1780.88
674.191	1698.96
674.382	1803.41
674.573	1766.54
674.764	1784.98
674.954	1741.97
675.145	1608.85
675.336	1774.74
675.527	1750.16
675.717	1692.82
675.908	1727.63
676.099	1768.59
676.289	1729.68
676.48	1733.78
676.671	1662.1
676.861	1741.97
677.052	1627.28
677.243	1709.2
677.433	1571.99
677.624	1672.34
677.814	1764.5
678.005	1643.67
678.195	1684.62
678.386	1713.3
678.576	1707.15
678.767	1643.67
678.957	1668.24
679.148	1666.19
679.338	1733.78
679.529	1680.53
679.719	1674.39
679.909	1690.77
680.1	1719.44
680.29	1754.26
680.481	1604.75
680.671	1715.34
680.861	1588.37
681.052	1645.71
681.242	1660.05
681.432	1772.69
681.622	1746.06
681.813	1584.27
682.003	1668.24
682.193	1744.02
682.383	1739.92
682.573	1729.68
682.764	1651.86
682.954	1768.59
683.144	1748.11
683.334	1680.53
683.524	1715.34
683.714	1604.75
683.904	1744.02
684.094	1719.44
684.284	1705.1
684.474	1674.39
684.664	1614.99
684.854	1778.83
685.044	1631.38
685.234	1664.15
685.424	1674.39
685.614	1584.27
685.804	1696.91
685.994	1631.38
686.184	1631.38
686.374	1658
686.564	1621.14
686.753	1668.24
686.943	1610.9
687.133	1660.05
687.323	1606.8
687.513	1776.78
687.702	1647.76
687.892	1559.7
688.082	1701.01
688.272	1559.7
688.461	1567.89
688.651	1608.85
688.841	1541.27
689.03	1701.01
689.22	1551.51
689.41	1473.68
689.599	1567.89
689.789	1590.42
689.979	1565.84
690.168	1553.55
690.358	1600.66
690.547	1479.83
690.737	1440.92
690.926	1528.98
691.116	1526.93
691.305	1576.08
691.495	1549.46
691.684	1526.93
691.874	1524.88
692.063	1494.16
692.252	1563.79
692.442	1508.5
692.631	1442.96
692.82	1561.75
693.01	1492.12
693.199	1430.68
693.388	1512.6
693.578	1379.48
693.767	1547.41
693.956	1496.21
694.146	1469.59
694.335	1430.68
694.524	1506.45
694.713	1477.78
694.902	1526.93
695.092	1436.82
695.281	1494.16
695.47	1375.38
695.659	1520.79
695.848	1541.27
696.037	1354.9
696.226	1465.49
696.415	1457.3
696.604	1391.77
696.793	1545.36
696.982	1471.64
697.171	1479.83
697.36	1475.73
697.549	1447.06
697.738	1520.79
697.927	1442.96
698.116	1531.03
698.305	1379.48
698.494	1490.07
698.683	1498.26
698.872	1457.3
699.061	1516.69
699.25	1399.96
699.438	1459.35
699.627	1436.82
699.816	1502.36
700.005	1469.59
700.193	1420.44
700.382	1430.68
700.571	1604.75
700.76	1467.54
700.948	1506.45
701.137	1383.57
701.326	1459.35
701.514	1461.4
701.703	1518.74
701.892	1418.39
702.08	1490.07
702.269	1483.92
702.457	1496.21
702.646	1496.21
702.834	1451.16
703.023	1512.6
703.212	1492.12
703.4	1504.4
703.589	1531.03
703.777	1553.55
703.965	1434.77
704.154	1467.54
704.342	1436.82
704.531	1535.12
704.719	1574.03
704.907	1522.84
705.096	1436.82
705.284	1420.44
705.472	1531.03
705.661	1567.89
705.849	1512.6
706.037	1533.08
706.226	1537.17
706.414	1494.16
706.602	1512.6
706.79	1559.7
706.979	1414.29
707.167	1522.84
707.355	1520.79
707.543	1479.83
707.731	1502.36
707.919	1582.23
708.107	1438.87
708.296	1588.37
708.484	1545.36
708.672	1524.88
708.86	1490.07
709.048	1492.12
709.236	1631.38
709.424	1555.6
709.612	1664.15
709.8	1465.49
709.988	1541.27
710.176	1545.36
710.364	1606.8
710.551	1586.32
710.739	1602.71
710.927	1553.55
711.115	1604.75
711.303	1559.7
711.491	1465.49
711.679	1602.71
711.866	1547.41
712.054	1518.74
712.242	1533.08
712.43	1565.84
712.617	1596.56
712.805	1533.08
712.993	1643.67
713.181	1574.03
713.368	1569.94
713.556	1602.71
713.744	1565.84
713.931	1645.71
714.119	1606.8
714.306	1481.88
714.494	1580.18
714.682	1586.32
714.869	1557.65
715.057	1606.8
715.244	1596.56
715.432	1578.13
715.619	1731.73
715.807	1514.64
715.994	1698.96
716.182	1653.91
716.369	1578.13
716.556	1563.79
716.744	1651.86
716.931	1576.08
717.119	1639.57
717.306	1551.51
717.493	1557.65
717.681	1541.27
717.868	1707.15
718.055	1555.6
718.242	1600.66
718.43	1574.03
718.617	1518.74
718.804	1617.04
718.991	1533.08
719.179	1610.9
719.366	1614.99
719.553	1647.76
719.74	1696.91
719.927	1545.36
720.114	1660.05
720.301	1625.23
720.488	1651.86
720.676	1666.19
720.863	1610.9
721.05	1731.73
721.237	1647.76
721.424	1725.58
721.611	1658
721.798	1559.7
721.985	1514.64
722.172	1574.03
722.358	1674.39
722.545	1582.23
722.732	1574.03
722.919	1643.67
723.106	1608.85
723.293	1617.04
723.48	1588.37
723.667	1576.08
723.853	1649.81
724.04	1608.85
724.227	1576.08
724.414	1651.86
724.6	1512.6
724.787	1590.42
724.974	1731.73
725.161	1592.47
725.347	1631.38
725.534	1727.63
725.72	1680.53
725.907	1639.57
726.094	1723.54
726.28	1555.6
726.467	1600.66
726.653	1694.86
726.84	1504.4
727.027	1639.57
727.213	1686.67
727.4	1678.48
727.586	1592.47
727.773	1739.92
727.959	1723.54
728.145	1651.86
728.332	1565.84
728.518	1655.95
728.705	1705.1
728.891	1649.81
729.077	1645.71
729.264	1614.99
729.45	1719.44
729.636	1633.43
729.823	1705.1
730.009	1709.2
730.195	1672.34
730.382	1584.27
730.568	1682.58
730.754	1610.9
730.94	1596.56
731.126	1694.86
731.313	1664.15
731.499	1676.43
731.685	1651.86
731.871	1680.53
732.057	1709.2
732.243	1723.54
732.429	1643.67
732.615	1684.62
732.801	1727.63
732.987	1721.49
733.173	1733.78
733.359	1674.39
733.545	1662.1
733.731	1660.05
733.917	1694.86
734.103	1619.09
734.289	1684.62
734.475	1606.8
734.661	1676.43
734.847	1651.86
735.033	1688.72
735.219	1619.09
735.404	1586.32
735.59	1625.23
735.776	1668.24
735.962	1619.09
736.148	1588.37
736.333	1676.43
736.519	1733.78
736.705	1655.95
736.89	1688.72
737.076	1647.76
737.262	1578.13
737.447	1645.71
737.633	1610.9
737.819	1631.38
738.004	1619.09
738.19	1701.01
738.375	1637.52
738.561	1612.95
738.747	1623.19
738.932	1668.24
739.118	1619.09
739.303	1682.58
739.489	1666.19
739.674	1512.6
739.859	1571.99
740.045	1668.24
740.23	1506.45
740.416	1516.69
740.601	1612.95
740.786	1584.27
740.972	1606.8
741.157	1586.32
741.342	1633.43
741.528	1623.19
741.713	1522.84
741.898	1494.16
742.084	1553.55
742.269	1531.03
742.454	1567.89
742.639	1565.84
742.824	1578.13
743.01	1506.45
743.195	1610.9
743.38	1545.36
743.565	1563.79
743.75	1455.25
743.935	1531.03
744.12	1526.93
744.305	1457.3
744.49	1498.26
744.675	1434.77
744.86	1371.29
745.045	1492.12
745.23	1479.83
745.415	1346.71
745.6	1455.25
745.785	1516.69
745.97	1451.16
746.155	1373.33
746.34	1422.48
746.525	1463.44
746.71	1410.2
746.895	1385.62
747.079	1336.47
747.264	1504.4
747.449	1449.11
747.634	1395.86
747.819	1340.57
748.003	1418.39
748.188	1299.61
748.373	1412.25
748.557	1289.37
748.742	1397.91
748.927	1260.7
749.111	1281.18
749.296	1293.46
749.481	1367.19
749.665	1311.89
749.85	1377.43
750.034	1299.61
750.219	1156.25
750.404	1203.35
750.588	1148.06
750.773	1240.22
750.957	1272.98
751.141	1311.89
751.326	1254.55
751.51	1242.26
751.695	1184.92
751.879	1105.05
752.064	1125.53
752.248	1197.21
752.432	1211.54
752.617	1066.14
752.801	1207.45
752.985	1152.15
753.17	1107.1
753.354	1186.97
753.538	1086.62
753.722	1113.24
753.907	1084.57
754.091	1084.57
754.275	1109.15
754.459	1070.23
754.643	1127.58
754.828	957.6
755.012	1025.18
755.196	1012.89
755.38	1019.04
755.564	1049.75
755.748	1008.8
755.932	1031.32
756.116	998.56
756.3	963.74
756.484	951.45
756.668	961.69
756.852	928.92
757.036	998.56
757.22	1027.23
757.404	879.77
757.588	967.84
757.772	945.31
757.956	933.02
758.14	908.44
758.323	890.01
758.507	1037.47
758.691	947.36
758.875	1019.04
759.059	935.07
759.242	904.35
759.426	867.49
759.61	756.9
759.794	939.16
759.977	910.49
760.161	939.16
760.345	834.72
760.528	840.86
760.712	808.09
760.895	869.53
761.079	902.3
761.263	867.49
761.446	822.43
761.63	806.05
761.813	928.92
761.997	808.09
762.18	812.19
762.364	752.8
762.547	799.9
762.731	756.9
762.914	793.76
763.098	767.13
763.281	775.33
763.464	779.42
763.648	769.18
763.831	746.66
764.015	754.85
764.198	773.28
764.381	765.09
764.564	754.85
764.748	754.85
764.931	740.51
765.114	838.81
765.297	713.89
765.481	703.65
765.664	760.99
765.847	720.03
766.03	849.05
766.213	750.75
766.397	771.23
766.58	709.79
766.763	715.94
766.946	660.64
767.129	666.78
767.312	697.5
767.495	679.07
767.678	636.06
767.861	736.42
768.044	779.42
768.227	695.46
768.41	656.54
768.593	660.64
768.776	644.26
768.959	660.64
769.142	742.56
769.324	687.26
769.507	697.5
769.69	642.21
769.873	668.83
770.056	677.02
770.239	677.02
770.421	638.11
770.604	674.98
770.787	726.18
770.97	603.3
771.152	685.22
771.335	603.3
771.518	679.07
771.7	668.83
771.883	707.74
772.066	586.91
772.248	580.77
772.431	617.63
772.613	607.39
772.796	591.01
772.978	545.95
773.161	607.39
773.343	605.35
773.526	531.62
773.708	591.01
773.891	507.04
774.073	545.95
774.256	603.3
774.438	617.63
774.621	478.37
774.803	586.91
774.985	517.28
775.168	625.83
775.35	572.58
775.532	591.01
775.715	521.38
775.897	554.15
776.079	533.67
776.261	584.87
776.444	531.62
776.626	502.95
776.808	515.23
776.99	451.75
777.173	504.99
777.355	500.9
777.537	566.43
777.719	482.47
777.901	513.19
778.083	482.47
778.265	519.33
778.447	552.1
778.629	431.27
778.811	513.19
778.993	470.18
779.175	492.71
779.357	439.46
779.539	443.56
779.721	361.64
779.903	418.98
780.085	468.13
780.267	472.23
780.449	404.64
780.631	470.18
780.812	408.74
780.994	349.35
781.176	437.41
781.358	418.98
781.54	416.93
781.721	427.17
781.903	464.04
782.085	425.12
782.267	396.45
782.448	349.35
782.63	365.73
782.812	468.13
782.993	380.07
783.175	332.97
783.357	396.45
783.538	398.5
783.72	361.64
783.901	396.45
784.083	455.84
784.264	408.74
784.446	292.01
784.627	390.31
784.809	320.68
784.99	365.73
785.172	345.25
785.353	375.97
785.535	265.38
785.716	345.25
785.897	275.62
786.079	320.68
786.26	314.53
786.441	269.48
786.623	326.82
786.804	234.66
786.985	261.29
787.167	341.16
787.348	322.73
787.529	302.25
787.71	365.73
787.891	271.53
788.073	308.39
788.254	275.62
788.435	355.49
788.616	337.06
788.797	279.72
788.978	253.09
789.159	298.15
789.34	281.77
789.522	249
789.703	335.01
789.884	292.01
790.065	251.05
790.246	242.85
790.427	304.29
790.607	269.48
790.788	316.58
790.969	244.9
791.15	253.09
791.331	306.34
791.512	341.16
791.693	212.14
791.874	339.11
792.054	294.05
792.235	310.44
792.416	212.14
792.597	257.19
792.778	224.42
792.958	222.38
793.139	292.01
793.32	265.38
793.5	257.19
793.681	251.05
793.862	232.62
794.042	253.09
794.223	208.04
794.404	259.24
794.584	208.04
794.765	232.62
794.945	212.14
795.126	238.76
795.306	236.71
795.487	179.37
795.667	165.03
795.848	193.7
796.028	261.29
796.209	289.96
796.389	226.47
796.57	238.76
796.75	162.98
796.93	199.85
797.111	240.81
797.291	195.75
797.471	214.18
797.652	181.42
797.832	230.57
798.012	253.09
798.192	236.71
798.373	267.43
798.553	169.13
798.733	169.13
798.913	175.27
799.093	187.56
799.274	224.42
799.454	193.7
799.634	175.27
799.814	181.42
799.994	218.28
800.174	195.75
800.354	183.46
800.534	136.36
800.714	199.85
800.894	171.18
801.074	150.7
801.254	189.61
801.434	167.08
801.614	140.46
801.794	144.55
801.974	535.71
802.154	134.31
802.334	208.04
802.514	152.74
802.693	140.46
802.873	214.18
803.053	148.65
803.233	203.94
803.413	150.7
803.592	93.35
803.772	140.46
803.952	152.74
804.131	167.08
804.311	205.99
804.491	119.98
804.67	187.56
804.85	173.22
805.03	115.88
805.209	160.94
805.389	222.38
805.568	244.9
805.748	122.02
805.928	179.37
806.107	160.94
806.287	81.07
806.466	119.98
806.646	99.5
806.825	134.31
807.004	189.61
807.184	140.46
807.363	177.32
807.543	173.22
807.722	74.92
807.901	154.79
808.081	177.32
808.26	140.46
808.439	169.13
808.619	115.88
808.798	146.6
808.977	115.88
809.156	158.89
809.336	130.22
809.515	79.02
809.694	101.55
809.873	113.83
810.052	173.22
810.231	136.36
810.411	132.26
810.59	89.26
810.769	68.78
810.948	177.32
811.127	79.02
811.306	107.69
811.485	66.73
811.664	81.07
811.843	95.4
812.022	117.93
812.201	140.46
812.38	119.98
812.559	85.16
812.737	175.27
812.916	38.06
813.095	83.11
813.274	117.93
813.453	72.87
813.632	162.98
813.811	146.6
813.989	25.77
814.168	148.65
814.347	44.2
814.526	158.89
814.704	193.7
814.883	117.93
815.062	58.54
815.24	146.6
815.419	128.17
815.598	36.01
815.776	148.65
815.955	140.46
816.133	54.44
816.312	183.46
816.49	64.68
816.669	87.21
816.847	64.68
817.026	132.26
817.204	136.36
817.383	105.64
817.561	68.78
817.74	83.11
817.918	138.41
818.097	76.97
818.275	83.11
818.453	76.97
818.632	167.08
818.81	148.65
818.988	72.87
819.167	115.88
819.345	111.78
819.523	117.93
819.701	126.12
819.879	105.64
820.058	150.7
820.236	87.21
820.414	70.83
820.592	81.07
820.77	95.4
820.948	140.46
821.127	74.92
821.305	83.11
821.483	83.11
821.661	101.55
821.839	93.35
822.017	66.73
822.195	33.96
822.373	160.94
822.551	79.02
822.729	17.58
822.907	64.68
823.085	119.98
823.262	66.73
823.44	5.29
823.618	58.54
823.796	97.45
823.974	-9.05
824.152	66.73
824.329	68.78
824.507	38.06
824.685	103.59
824.863	87.21
825.04	107.69
825.218	126.12
825.396	95.4
825.574	23.72
825.751	148.65
825.929	115.88
826.107	46.25
826.284	109.74
826.462	50.35
826.639	42.15
826.817	70.83
826.994	107.69
827.172	72.87
827.349	91.31
827.527	50.35
827.704	113.83
827.882	136.36
828.059	68.78
828.237	74.92
828.414	40.11
828.591	103.59
828.769	91.31
828.946	9.39
829.124	81.07
829.301	58.54
829.478	136.36
829.655	21.67
829.833	38.06
830.01	83.11
830.187	95.4
830.364	93.35
830.542	66.73
830.719	79.02
830.896	95.4
831.073	81.07
831.25	56.49
831.427	-13.14
831.604	17.58
831.782	9.39
831.959	91.31
832.136	87.21
832.313	29.87
832.49	76.97
832.667	40.11
832.844	7.34
833.021	103.59
833.198	130.22
833.374	89.26
833.551	99.5
833.728	23.72
833.905	70.83
834.082	111.78
834.259	19.63
834.436	130.22
834.612	48.3
834.789	160.94
834.966	140.46
835.143	17.58
835.319	-60.24
835.496	74.92
835.673	48.3
835.85	7.34
836.026	140.46
836.203	103.59
836.38	27.82
836.556	74.92
836.733	70.83
836.909	36.01
837.086	54.44
837.262	76.97
837.439	66.73
837.616	-2.9
837.792	72.87
837.968	36.01
838.145	-13.14
838.321	46.25
838.498	74.92
838.674	7.34
838.851	29.87
839.027	19.63
839.203	-25.43
839.38	115.88
839.556	38.06
839.732	83.11
839.909	-41.81
840.085	42.15
840.261	-9.05
840.437	11.43
840.614	29.87
840.79	173.22
840.966	36.01
841.142	68.78
841.318	17.58
841.494	79.02
841.671	13.48
841.847	15.53
842.023	70.83
842.199	50.35
842.375	74.92
842.551	42.15
842.727	-11.09
842.903	74.92
843.079	-2.9
843.255	11.43
843.431	1.19
843.607	60.59
843.783	13.48
843.959	21.67
844.134	95.4
844.31	46.25
844.486	74.92
844.662	-0.85
844.838	23.72
845.013	42.15
845.189	93.35
845.365	40.11
845.541	13.48
845.716	9.39
845.892	42.15
846.068	70.83
846.244	33.96
846.419	-31.57
846.595	36.01
846.77	119.98
846.946	111.78
847.122	40.11
847.297	38.06
847.473	72.87
847.648	31.91
847.824	72.87
847.999	5.29
848.175	9.39
848.35	87.21
848.526	-7
848.701	11.43
848.876	76.97
849.052	46.25
849.227	81.07
849.403	42.15
849.578	21.67
849.753	-13.14
849.929	68.78
850.104	33.96
850.279	21.67
850.454	40.11
850.63	91.31
850.805	81.07
850.98	7.34
851.155	40.11
851.33	74.92
851.505	19.63
851.681	91.31
851.856	1.19
852.031	-2.9
852.206	5.29
852.381	-21.33
852.556	-39.76
852.731	50.35
852.906	21.67
853.081	83.11
853.256	95.4
853.431	29.87
853.606	-7
853.781	72.87
853.956	23.72
854.131	17.58
854.305	9.39
854.48	64.68
854.655	-7
854.83	42.15
855.005	70.83
855.18	25.77
855.354	-2.9
855.529	58.54
855.704	-15.19
855.879	97.45
856.053	52.39
856.228	66.73
856.403	-2.9
856.577	-7
856.752	13.48
856.926	58.54
857.101	7.34
857.276	13.48
857.45	25.77
857.625	103.59
857.799	-35.67
857.974	66.73
858.148	74.92
858.323	66.73
858.497	-19.29
858.672	85.16
858.846	42.15
859.02	17.58
859.195	36.01
859.369	-7
859.543	-9.05
859.718	-7
859.892	11.43
860.066	87.21
860.241	36.01
860.415	60.59
860.589	19.63
860.763	-19.29
860.938	25.77
861.112	-19.29
861.286	-29.52
861.46	31.91
861.634	5.29
861.808	103.59
861.982	66.73
862.157	9.39
862.331	36.01
862.505	-43.86
862.679	3.24
862.853	31.91
863.027	42.15
863.201	19.63
863.375	1.19
863.549	62.63
863.722	-15.19
863.896	17.58
864.07	36.01
864.244	38.06
864.418	-78.68
864.592	31.91
864.766	70.83
864.939	-7
865.113	46.25
865.287	-0.85
865.461	-56.15
865.634	72.87
865.808	-47.96
865.982	27.82
866.156	1.19
866.329	27.82
866.503	79.02
866.676	70.83
866.85	25.77
867.024	-27.48
867.197	70.83
867.371	81.07
867.544	11.43
867.718	5.29
867.891	9.39
868.065	31.91
868.238	36.01
868.412	17.58
868.585	-39.76
868.759	-9.05
868.932	-11.09
869.105	-9.05
869.279	25.77
869.452	60.59
869.625	58.54
869.799	-13.14
869.972	29.87
870.145	72.87
870.319	52.39
870.492	117.93
870.665	42.15
870.838	46.25
871.011	-15.19
871.185	79.02
871.358	36.01
871.531	-31.57
871.704	-23.38
871.877	38.06
872.05	-0.85
872.223	29.87
872.396	56.49
872.569	-19.29
872.742	-4.95
872.915	-19.29
873.088	21.67
873.261	50.35
873.434	-0.85
873.607	70.83
873.78	21.67
873.953	46.25
874.126	64.68
874.299	33.96
874.471	-25.43
874.644	68.78
874.817	-23.38
874.99	103.59
875.163	31.91
875.335	31.91
875.508	42.15
875.681	85.16
875.853	-60.24
876.026	44.2
876.199	62.63
876.371	-11.09
876.544	-60.24
876.717	25.77
876.889	1.19
877.062	17.58
877.234	25.77
877.407	64.68
877.579	-2.9
877.752	50.35
877.924	52.39
878.097	11.43
878.269	50.35
878.442	52.39
878.614	52.39
878.786	-56.15
878.959	17.58
879.131	5.29
879.303	-56.15
879.476	62.63
879.648	42.15
879.82	38.06
879.993	81.07
880.165	38.06
880.337	-17.24
880.509	72.87
880.681	50.35
880.854	-74.58
881.026	7.34
881.198	29.87
881.37	27.82
881.542	3.24
881.714	9.39
881.886	-27.48
882.058	5.29
882.23	-23.38
882.402	21.67
882.574	-11.09
882.746	-11.09
882.918	-9.05
883.09	-2.9
883.262	-2.9
883.434	64.68
883.606	31.91
883.778	60.59
883.95	60.59
884.122	31.91
884.293	48.3
884.465	31.91
884.637	-11.09
884.809	11.43
884.98	9.39
885.152	-37.72
885.324	54.44
885.496	68.78
885.667	19.63
885.839	54.44
886.011	134.31
886.182	-23.38
886.354	5.29
886.525	-17.24
886.697	46.25
886.869	-23.38
887.04	97.45
887.212	40.11
887.383	66.73
887.555	-11.09
887.726	17.58
887.897	-47.96
888.069	7.34
888.24	-23.38
888.412	-2.9
888.583	-29.52
888.754	1.19
888.926	-21.33
889.097	-0.85
889.268	40.11
889.44	25.77
889.611	-0.85
889.782	-37.72
889.953	-43.86
890.125	15.53
890.296	-17.24
890.467	56.49
890.638	31.91
890.809	3.24
890.98	-52.05
891.151	68.78
891.323	-27.48
891.494	36.01
891.665	66.73
891.836	36.01
892.007	72.87
892.178	7.34
892.349	79.02
892.52	-2.9
892.691	-31.57
892.862	42.15
893.032	-13.14
893.203	-37.72
893.374	-2.9
893.545	-31.57
893.716	-27.48
893.887	52.39
894.057	-13.14
894.228	7.34
894.399	-47.96
894.57	19.63
894.74	-19.29
894.911	48.3
895.082	-2.9
895.253	-37.72
895.423	40.11
895.594	58.54
895.764	-4.95
895.935	19.63
896.106	52.39
896.276	-27.48
896.447	-21.33
896.617	29.87
896.788	-70.48
896.958	-50
897.129	21.67
897.299	31.91
897.47	107.69
897.64	-27.48
897.81	54.44
897.981	9.39
898.151	-54.1
898.322	68.78
898.492	62.63
898.662	1.19
898.832	5.29
899.003	-31.57
899.173	-11.09
899.343	54.44
899.513	-15.19
