Data from USB4F104151__61__11-06-00-467.txt Node

Date: Wed Mar 12 11:06:00 EDT 2025
User: louis
Spectrometer: USB4F10415
Trigger mode: 4
Integration Time (sec): 2.000000E-2
Scans to average: 1
Electric dark correction enabled: true
Nonlinearity correction enabled: false
Boxcar width: 0
XAxis mode: Wavelengths
Number of Pixels in Spectrum: 3648
>>>>>Begin Spectral Data<<<<<
178.204	-52.56
178.424	-52.56
178.644	-52.56
178.864	-32.08
179.084	-77.14
179.304	-68.95
179.524	-36.18
179.744	10.92
179.964	25.26
180.184	31.4
180.404	-7.51
180.624	103.08
180.844	-40.28
181.064	-116.05
181.283	39.59
181.503	25.26
181.723	33.45
181.943	-93.52
182.163	64.17
182.383	17.07
182.602	45.74
182.822	62.12
183.042	51.88
183.262	-11.61
183.482	74.41
183.701	-3.41
183.921	49.83
184.141	-9.56
184.361	43.69
184.58	12.97
184.8	29.35
185.02	60.07
185.239	37.55
185.459	15.02
185.679	53.93
185.898	-46.42
186.118	-36.18
186.338	-9.56
186.557	37.55
186.777	19.11
186.997	8.87
187.216	12.97
187.436	66.22
187.655	37.55
187.875	6.83
188.095	-7.51
188.314	12.97
188.534	4.78
188.753	-7.51
188.973	-36.18
189.192	8.87
189.412	-3.41
189.631	-7.51
189.851	8.87
190.07	90.79
190.29	12.97
190.509	103.08
190.729	25.26
190.948	141.99
191.168	137.9
191.387	-60.76
191.607	8.87
191.826	12.97
192.045	94.89
192.265	53.93
192.484	12.97
192.704	45.74
192.923	66.22
193.142	84.65
193.362	4.78
193.581	0.68
193.8	53.93
194.02	10.92
194.239	12.97
194.458	-25.94
194.678	103.08
194.897	31.4
195.116	60.07
195.335	41.64
195.555	-5.46
195.774	31.4
195.993	74.41
196.212	-15.7
196.432	-11.61
196.651	-17.75
196.87	78.51
197.089	39.59
197.308	17.07
197.528	4.78
197.747	6.83
197.966	25.26
198.185	33.45
198.404	70.31
198.623	10.92
198.842	15.02
199.062	12.97
199.281	41.64
199.5	19.11
199.719	25.26
199.938	45.74
200.157	49.83
200.376	31.4
200.595	-25.94
200.814	8.87
201.033	74.41
201.252	-21.85
201.471	45.74
201.69	-11.61
201.909	49.83
202.128	64.17
202.347	-38.23
202.566	29.35
202.785	74.41
203.004	-9.56
203.223	160.42
203.442	58.03
203.661	88.75
203.879	-1.37
204.098	23.21
204.317	-7.51
204.536	23.21
204.755	0.68
204.974	39.59
205.193	45.74
205.411	-30.04
205.63	103.08
205.849	55.98
206.068	78.51
206.287	10.92
206.505	31.4
206.724	-21.85
206.943	62.12
207.162	6.83
207.381	43.69
207.599	47.79
207.818	8.87
208.037	17.07
208.255	62.12
208.474	31.4
208.693	84.65
208.911	10.92
209.13	25.26
209.349	60.07
209.567	-17.75
209.786	80.55
210.005	53.93
210.223	68.27
210.442	47.79
210.661	43.69
210.879	27.31
211.098	8.87
211.316	47.79
211.535	39.59
211.753	45.74
211.972	8.87
212.191	139.94
212.409	17.07
212.628	-5.46
212.846	23.21
213.065	8.87
213.283	45.74
213.502	8.87
213.72	19.11
213.938	0.68
214.157	8.87
214.375	39.59
214.594	8.87
214.812	96.94
215.031	72.36
215.249	2.73
215.467	82.6
215.686	58.03
215.904	25.26
216.122	23.21
216.341	47.79
216.559	39.59
216.778	49.83
216.996	70.31
217.214	58.03
217.432	-7.51
217.651	49.83
217.869	-23.89
218.087	-48.47
218.306	37.55
218.524	21.16
218.742	78.51
218.96	86.7
219.179	31.4
219.397	10.92
219.615	62.12
219.833	45.74
220.051	25.26
220.27	-64.85
220.488	33.45
220.706	94.89
220.924	49.83
221.142	88.75
221.36	15.02
221.578	17.07
221.796	60.07
222.015	23.21
222.233	-23.89
222.451	131.75
222.669	74.41
222.887	64.17
223.105	39.59
223.323	-1.37
223.541	8.87
223.759	-3.41
223.977	-3.41
224.195	84.65
224.413	33.45
224.631	41.64
224.849	33.45
225.067	103.08
225.285	68.27
225.503	78.51
225.721	-5.46
225.939	-23.89
226.157	-46.42
226.375	-7.51
226.592	19.11
226.81	-34.13
227.028	-11.61
227.246	51.88
227.464	19.11
227.682	15.02
227.9	33.45
228.117	51.88
228.335	29.35
228.553	107.18
228.771	25.26
228.989	72.36
229.206	2.73
229.424	-27.99
229.642	-19.8
229.86	-11.61
230.077	37.55
230.295	74.41
230.513	39.59
230.731	72.36
230.948	78.51
231.166	29.35
231.384	10.92
231.601	12.97
231.819	31.4
232.037	49.83
232.254	-36.18
232.472	-19.8
232.689	-13.65
232.907	10.92
233.125	2.73
233.342	29.35
233.56	4.78
233.777	-32.08
233.995	2.73
234.213	31.4
234.43	35.5
234.648	47.79
234.865	-19.8
235.083	33.45
235.3	23.21
235.518	43.69
235.735	8.87
235.953	45.74
236.17	82.6
236.388	0.68
236.605	-7.51
236.822	53.93
237.04	-9.56
237.257	-15.7
237.475	-38.23
237.692	60.07
237.909	25.26
238.127	29.35
238.344	-11.61
238.562	-27.99
238.779	51.88
238.996	-21.85
239.214	0.68
239.431	53.93
239.648	72.36
239.865	60.07
240.083	-3.41
240.3	35.5
240.517	-7.51
240.735	62.12
240.952	29.35
241.169	37.55
241.386	21.16
241.603	68.27
241.821	33.45
242.038	8.87
242.255	66.22
242.472	21.16
242.689	62.12
242.907	78.51
243.124	-38.23
243.341	-13.65
243.558	-38.23
243.775	47.79
243.992	72.36
244.209	115.37
244.426	35.5
244.643	74.41
244.86	-27.99
245.078	45.74
245.295	-11.61
245.512	23.21
245.729	129.7
245.946	-3.41
246.163	-11.61
246.38	62.12
246.597	98.99
246.814	-30.04
247.031	-23.89
247.248	76.46
247.464	105.13
247.681	15.02
247.898	27.31
248.115	33.45
248.332	-23.89
248.549	-7.51
248.766	12.97
248.983	64.17
249.2	103.08
249.417	55.98
249.633	31.4
249.85	33.45
250.067	37.55
250.284	12.97
250.501	43.69
250.717	88.75
250.934	21.16
251.151	-11.61
251.368	66.22
251.585	47.79
251.801	70.31
252.018	12.97
252.235	82.6
252.451	23.21
252.668	-5.46
252.885	49.83
253.102	60.07
253.318	60.07
253.535	45.74
253.752	10.92
253.968	-50.52
254.185	29.35
254.401	21.16
254.618	-3.41
254.835	-15.7
255.051	62.12
255.268	105.13
255.484	-9.56
255.701	78.51
255.917	84.65
256.134	58.03
256.351	-15.7
256.567	-11.61
256.784	60.07
257	-44.37
257.217	15.02
257.433	35.5
257.65	37.55
257.866	58.03
258.082	25.26
258.299	19.11
258.515	23.21
258.732	68.27
258.948	74.41
259.165	-7.51
259.381	70.31
259.597	35.5
259.814	62.12
260.03	21.16
260.246	17.07
260.463	64.17
260.679	29.35
260.895	37.55
261.112	0.68
261.328	8.87
261.544	2.73
261.761	37.55
261.977	-21.85
262.193	45.74
262.409	21.16
262.626	47.79
262.842	74.41
263.058	29.35
263.274	-7.51
263.49	-13.65
263.707	-30.04
263.923	29.35
264.139	31.4
264.355	-17.75
264.571	27.31
264.787	10.92
265.004	60.07
265.22	80.55
265.436	15.02
265.652	62.12
265.868	49.83
266.084	10.92
266.3	74.41
266.516	-66.9
266.732	60.07
266.948	115.37
267.164	-1.37
267.38	23.21
267.596	74.41
267.812	129.7
268.028	55.98
268.244	-7.51
268.46	47.79
268.676	-19.8
268.892	113.32
269.108	10.92
269.324	51.88
269.54	4.78
269.756	86.7
269.972	-64.85
270.188	51.88
270.403	-5.46
270.619	0.68
270.835	45.74
271.051	23.21
271.267	-5.46
271.483	25.26
271.698	113.32
271.914	21.16
272.13	21.16
272.346	64.17
272.562	29.35
272.777	115.37
272.993	10.92
273.209	51.88
273.425	68.27
273.64	41.64
273.856	10.92
274.072	31.4
274.287	-21.85
274.503	78.51
274.719	84.65
274.934	17.07
275.15	0.68
275.366	45.74
275.581	-50.52
275.797	27.31
276.012	8.87
276.228	-19.8
276.444	58.03
276.659	47.79
276.875	37.55
277.09	6.83
277.306	10.92
277.521	62.12
277.737	68.27
277.952	25.26
278.168	62.12
278.383	-27.99
278.599	37.55
278.814	21.16
279.03	45.74
279.245	94.89
279.461	17.07
279.676	49.83
279.892	-3.41
280.107	8.87
280.322	-13.65
280.538	76.46
280.753	27.31
280.969	113.32
281.184	-5.46
281.399	39.59
281.615	53.93
281.83	29.35
282.045	21.16
282.26	96.94
282.476	45.74
282.691	74.41
282.906	103.08
283.122	82.6
283.337	39.59
283.552	55.98
283.767	33.45
283.983	80.55
284.198	2.73
284.413	62.12
284.628	45.74
284.843	23.21
285.058	58.03
285.274	27.31
285.489	12.97
285.704	53.93
285.919	0.68
286.134	33.45
286.349	94.89
286.564	66.22
286.779	-3.41
286.995	49.83
287.21	82.6
287.425	17.07
287.64	41.64
287.855	115.37
288.07	-5.46
288.285	62.12
288.5	12.97
288.715	141.99
288.93	37.55
289.145	4.78
289.36	58.03
289.575	-27.99
289.79	86.7
290.004	72.36
290.219	-19.8
290.434	-5.46
290.649	78.51
290.864	-9.56
291.079	8.87
291.294	-50.52
291.509	-19.8
291.724	109.22
291.938	76.46
292.153	41.64
292.368	39.59
292.583	41.64
292.798	74.41
293.012	21.16
293.227	43.69
293.442	60.07
293.657	19.11
293.871	170.66
294.086	47.79
294.301	76.46
294.516	70.31
294.73	-21.85
294.945	6.83
295.16	51.88
295.374	21.16
295.589	53.93
295.804	-27.99
296.018	35.5
296.233	58.03
296.447	33.45
296.662	70.31
296.877	47.79
297.091	37.55
297.306	111.27
297.52	4.78
297.735	78.51
297.949	51.88
298.164	0.68
298.378	12.97
298.593	80.55
298.807	-36.18
299.022	68.27
299.236	19.11
299.451	-17.75
299.665	15.02
299.88	55.98
300.094	-7.51
300.309	55.98
300.523	55.98
300.737	51.88
300.952	60.07
301.166	33.45
301.381	-15.7
301.595	60.07
301.809	-11.61
302.024	17.07
302.238	-27.99
302.452	86.7
302.667	29.35
302.881	-1.37
303.095	31.4
303.309	43.69
303.524	8.87
303.738	8.87
303.952	45.74
304.166	6.83
304.381	-11.61
304.595	78.51
304.809	-15.7
305.023	47.79
305.237	98.99
305.452	-58.71
305.666	60.07
305.88	98.99
306.094	33.45
306.308	92.84
306.522	37.55
306.736	53.93
306.95	86.7
307.164	27.31
307.379	23.21
307.593	37.55
307.807	53.93
308.021	-19.8
308.235	35.5
308.449	-23.89
308.663	107.18
308.877	94.89
309.091	21.16
309.305	84.65
309.519	58.03
309.733	55.98
309.947	-15.7
310.161	2.73
310.374	6.83
310.588	103.08
310.802	60.07
311.016	70.31
311.23	-17.75
311.444	66.22
311.658	33.45
311.872	123.56
312.085	88.75
312.299	72.36
312.513	70.31
312.727	8.87
312.941	21.16
313.154	41.64
313.368	-1.37
313.582	74.41
313.796	37.55
314.009	29.35
314.223	66.22
314.437	49.83
314.651	-1.37
314.864	35.5
315.078	35.5
315.292	6.83
315.505	70.31
315.719	8.87
315.933	19.11
316.146	17.07
316.36	43.69
316.573	92.84
316.787	-13.65
317.001	53.93
317.214	53.93
317.428	90.79
317.641	62.12
317.855	60.07
318.068	66.22
318.282	72.36
318.495	86.7
318.709	64.17
318.922	72.36
319.136	82.6
319.349	62.12
319.563	0.68
319.776	78.51
319.99	49.83
320.203	39.59
320.417	19.11
320.63	21.16
320.843	78.51
321.057	8.87
321.27	23.21
321.483	43.69
321.697	72.36
321.91	41.64
322.124	47.79
322.337	82.6
322.55	35.5
322.763	4.78
322.977	53.93
323.19	-32.08
323.403	117.42
323.617	66.22
323.83	101.03
324.043	98.99
324.256	-32.08
324.469	31.4
324.683	-11.61
324.896	-5.46
325.109	127.66
325.322	43.69
325.535	45.74
325.748	74.41
325.962	37.55
326.175	8.87
326.388	37.55
326.601	103.08
326.814	6.83
327.027	12.97
327.24	78.51
327.453	-1.37
327.666	66.22
327.879	-15.7
328.092	21.16
328.305	-7.51
328.518	131.75
328.731	37.55
328.944	25.26
329.157	47.79
329.37	51.88
329.583	62.12
329.796	35.5
330.009	17.07
330.222	8.87
330.435	43.69
330.648	-5.46
330.861	98.99
331.073	17.07
331.286	37.55
331.499	19.11
331.712	29.35
331.925	58.03
332.138	27.31
332.35	49.83
332.563	62.12
332.776	37.55
332.989	58.03
333.202	27.31
333.414	45.74
333.627	68.27
333.84	76.46
334.053	92.84
334.265	58.03
334.478	19.11
334.691	84.65
334.903	27.31
335.116	12.97
335.329	148.14
335.541	80.55
335.754	64.17
335.966	-7.51
336.179	-11.61
336.392	8.87
336.604	58.03
336.817	-3.41
337.029	90.79
337.242	117.42
337.454	35.5
337.667	88.75
337.88	55.98
338.092	72.36
338.305	27.31
338.517	121.51
338.729	66.22
338.942	12.97
339.154	23.21
339.367	43.69
339.579	64.17
339.792	19.11
340.004	33.45
340.217	80.55
340.429	33.45
340.641	35.5
340.854	43.69
341.066	53.93
341.278	45.74
341.491	68.27
341.703	86.7
341.915	51.88
342.128	0.68
342.34	101.03
342.552	80.55
342.764	58.03
342.977	-7.51
343.189	25.26
343.401	74.41
343.613	68.27
343.826	43.69
344.038	76.46
344.25	12.97
344.462	-32.08
344.674	84.65
344.886	70.31
345.099	74.41
345.311	31.4
345.523	125.61
345.735	53.93
345.947	156.33
346.159	8.87
346.371	76.46
346.583	41.64
346.795	47.79
347.007	80.55
347.219	84.65
347.431	47.79
347.643	51.88
347.855	43.69
348.067	90.79
348.279	19.11
348.491	92.84
348.703	117.42
348.915	86.7
349.127	55.98
349.339	-1.37
349.551	-25.94
349.763	101.03
349.975	62.12
350.187	51.88
350.399	39.59
350.61	76.46
350.822	37.55
351.034	8.87
351.246	64.17
351.458	82.6
351.669	37.55
351.881	35.5
352.093	-58.71
352.305	29.35
352.517	70.31
352.728	82.6
352.94	66.22
353.152	80.55
353.363	0.68
353.575	47.79
353.787	82.6
353.999	39.59
354.21	33.45
354.422	10.92
354.633	139.94
354.845	92.84
355.057	25.26
355.268	68.27
355.48	60.07
355.692	25.26
355.903	29.35
356.115	62.12
356.326	53.93
356.538	35.5
356.749	78.51
356.961	66.22
357.172	64.17
357.384	-5.46
357.595	105.13
357.807	121.51
358.018	72.36
358.23	64.17
358.441	45.74
358.653	94.89
358.864	6.83
359.075	41.64
359.287	12.97
359.498	31.4
359.709	0.68
359.921	146.09
360.132	94.89
360.344	29.35
360.555	4.78
360.766	80.55
360.977	-48.47
361.189	41.64
361.4	76.46
361.611	25.26
361.823	78.51
362.034	-23.89
362.245	17.07
362.456	70.31
362.667	58.03
362.879	82.6
363.09	86.7
363.301	60.07
363.512	70.31
363.723	23.21
363.935	70.31
364.146	-27.99
364.357	49.83
364.568	135.85
364.779	-3.41
364.99	119.46
365.201	-30.04
365.412	29.35
365.623	-15.7
365.834	17.07
366.045	90.79
366.256	62.12
366.467	35.5
366.678	72.36
366.889	0.68
367.1	35.5
367.311	41.64
367.522	115.37
367.733	113.32
367.944	47.79
368.155	60.07
368.366	66.22
368.577	119.46
368.788	49.83
368.999	80.55
369.209	37.55
369.42	135.85
369.631	29.35
369.842	10.92
370.053	58.03
370.264	135.85
370.474	4.78
370.685	49.83
370.896	62.12
371.107	49.83
371.317	23.21
371.528	23.21
371.739	39.59
371.95	-30.04
372.16	60.07
372.371	37.55
372.582	-9.56
372.792	70.31
373.003	88.75
373.214	29.35
373.424	111.27
373.635	-71
373.846	117.42
374.056	94.89
374.267	103.08
374.477	33.45
374.688	-11.61
374.898	60.07
375.109	64.17
375.319	76.46
375.53	80.55
375.74	88.75
375.951	60.07
376.161	88.75
376.372	103.08
376.582	111.27
376.793	53.93
377.003	27.31
377.214	45.74
377.424	31.4
377.635	84.65
377.845	82.6
378.055	62.12
378.266	25.26
378.476	103.08
378.686	74.41
378.897	90.79
379.107	68.27
379.317	111.27
379.528	12.97
379.738	15.02
379.948	94.89
380.158	70.31
380.369	107.18
380.579	29.35
380.789	25.26
380.999	94.89
381.21	37.55
381.42	66.22
381.63	-7.51
381.84	27.31
382.05	105.13
382.261	39.59
382.471	51.88
382.681	8.87
382.891	76.46
383.101	139.94
383.311	29.35
383.521	21.16
383.731	121.51
383.941	35.5
384.151	19.11
384.361	111.27
384.571	103.08
384.781	64.17
384.991	74.41
385.201	19.11
385.411	33.45
385.621	74.41
385.831	53.93
386.041	105.13
386.251	53.93
386.461	35.5
386.671	72.36
386.881	117.42
387.091	39.59
387.301	58.03
387.511	53.93
387.72	43.69
387.93	51.88
388.14	96.94
388.35	43.69
388.56	35.5
388.769	70.31
388.979	135.85
389.189	6.83
389.399	45.74
389.609	66.22
389.818	117.42
390.028	88.75
390.238	92.84
390.447	80.55
390.657	39.59
390.867	64.17
391.076	45.74
391.286	78.51
391.496	8.87
391.705	27.31
391.915	62.12
392.125	49.83
392.334	-27.99
392.544	12.97
392.753	8.87
392.963	62.12
393.172	82.6
393.382	129.7
393.591	109.22
393.801	76.46
394.01	49.83
394.22	119.46
394.429	166.57
394.639	119.46
394.848	72.36
395.058	0.68
395.267	156.33
395.477	60.07
395.686	58.03
395.895	162.47
396.105	211.62
396.314	62.12
396.524	39.59
396.733	92.84
396.942	119.46
397.152	131.75
397.361	103.08
397.57	139.94
397.78	53.93
397.989	78.51
398.198	148.14
398.407	111.27
398.617	141.99
398.826	41.64
399.035	74.41
399.244	82.6
399.453	86.7
399.663	92.84
399.872	135.85
400.081	33.45
400.29	123.56
400.499	51.88
400.708	105.13
400.917	172.71
401.127	174.76
401.336	98.99
401.545	129.7
401.754	174.76
401.963	51.88
402.172	70.31
402.381	174.76
402.59	111.27
402.799	74.41
403.008	78.51
403.217	146.09
403.426	121.51
403.635	189.1
403.844	148.14
404.053	101.03
404.262	78.51
404.471	156.33
404.68	137.9
404.888	144.04
405.097	154.28
405.306	182.95
405.515	172.71
405.724	164.52
405.933	135.85
406.142	180.9
406.35	246.44
406.559	201.38
406.768	201.38
406.977	185
407.185	162.47
407.394	193.19
407.603	160.42
407.812	211.62
408.02	172.71
408.229	230.06
408.438	219.82
408.646	240.29
408.855	305.83
409.064	240.29
409.272	234.15
409.481	262.82
409.69	275.11
409.898	283.3
410.107	277.16
410.315	285.35
410.524	301.73
410.733	397.99
410.941	322.21
411.15	338.6
411.358	291.49
411.567	400.04
411.775	354.98
411.984	455.33
412.192	459.43
412.401	373.41
412.609	469.67
412.818	496.29
413.026	461.48
413.234	451.24
413.443	510.63
413.651	461.48
413.86	565.92
414.068	580.26
414.276	572.07
414.485	653.98
414.693	627.36
414.901	635.55
415.11	727.71
415.318	604.83
415.526	744.1
415.734	699.04
415.943	819.87
416.151	742.05
416.359	760.48
416.567	877.21
416.776	811.68
416.984	987.8
417.192	899.74
417.4	928.41
417.608	930.46
417.817	1012.38
418.025	1053.34
418.233	1059.48
418.441	1061.53
418.649	1229.46
418.857	1172.12
419.065	1284.76
419.273	1163.93
419.481	1184.41
419.689	1448.6
419.897	1372.82
420.105	1526.42
420.313	1467.03
420.521	1538.71
420.729	1462.93
420.937	1600.15
421.145	1690.26
421.353	1704.59
421.561	1755.79
421.769	1917.58
421.977	1946.25
422.185	1915.53
422.393	2091.66
422.601	2167.43
422.809	2073.23
423.017	2177.67
423.224	2347.65
423.432	2456.2
423.64	2386.57
423.848	2570.88
424.056	2556.55
424.263	2738.82
424.471	2679.43
424.679	2814.59
424.887	3017.34
425.094	2986.62
425.302	2968.19
425.51	3074.68
425.718	3291.77
425.925	3326.58
426.133	3385.97
426.341	3641.97
426.548	3668.59
426.756	3715.7
426.964	3914.35
427.171	4041.32
427.379	4143.72
427.586	4156.01
427.794	4211.31
428.001	4463.21
428.209	4731.49
428.417	4631.14
428.624	4905.57
428.832	5050.97
429.039	4749.92
429.247	4891.23
429.454	5458.52
429.662	5792.34
429.869	5444.18
430.076	5720.66
430.284	5616.21
430.491	5952.08
430.699	6120.01
430.906	6169.16
431.114	6269.51
431.321	6554.18
431.528	6662.72
431.736	7084.61
431.943	7227.96
432.15	7033.41
432.358	7291.45
432.565	7729.72
432.772	7563.83
432.979	8038.96
433.187	8184.37
433.394	8249.9
433.601	8755.75
433.808	8827.43
434.016	8544.81
434.223	9079.33
434.43	9591.32
434.637	9536.03
434.844	10185.23
435.052	10281.49
435.259	10107.41
435.466	10269.2
435.673	10177.04
435.88	11004.42
436.087	11579.9
436.294	11305.47
436.501	11098.63
436.708	11422.2
436.915	12016.12
437.122	12313.07
437.329	12370.41
437.537	12460.52
437.743	12708.33
437.95	12966.37
438.157	13625.82
438.364	14139.86
438.571	13947.35
438.778	13947.35
438.985	15194.56
439.192	14694.86
439.399	15155.65
439.606	14520.78
439.813	15765.95
440.02	16572.85
440.227	16136.63
440.433	16058.81
440.64	16591.28
440.847	16644.52
441.054	16888.23
441.261	18303.38
441.467	18028.95
441.674	18170.26
441.881	18962.83
442.088	18747.79
442.294	18758.03
442.501	19425.67
442.708	19628.42
442.914	20410.74
443.121	21399.91
443.328	20717.93
443.534	22169.94
443.741	21541.22
443.948	21150.06
444.154	22677.84
444.361	22712.66
444.568	22808.91
444.774	22649.17
444.981	22931.79
445.187	23816.51
445.394	24734
445.6	24625.46
445.807	26480.92
446.013	25583.91
446.22	25940.25
446.426	27091.21
446.633	27248.91
446.839	28197.12
447.046	27111.69
447.252	28449.02
447.459	28719.35
447.665	28295.42
447.871	29661.41
448.078	30974.16
448.284	29542.63
448.491	30304.48
448.697	31467.72
448.903	32127.17
449.11	31838.4
449.316	31680.71
449.522	31951.04
449.728	33198.26
449.935	33468.59
450.141	32925.88
450.347	33570.99
450.553	32864.44
450.76	33394.86
450.966	34230.43
451.172	33683.62
451.378	34365.6
451.584	33849.51
451.791	34621.59
451.997	34588.83
452.203	35274.9
452.409	35031.19
452.615	34578.59
452.821	33622.19
453.027	33237.17
453.233	34805.91
453.44	33257.65
453.646	33792.17
453.852	34003.11
454.058	34967.7
454.264	33091.76
454.47	33986.72
454.676	33472.68
454.882	34465.95
455.088	31164.62
455.294	31645.9
455.5	31824.07
455.705	32610.49
455.911	31385.8
456.117	30806.23
456.323	30300.38
456.529	28178.68
456.735	29767.91
456.941	28840.18
457.147	28420.34
457.352	27617.54
457.558	27273.48
457.764	27296.01
457.97	26773.78
458.176	26331.42
458.381	26167.58
458.587	25022.76
458.793	24926.51
458.999	23818.56
459.204	25461.03
459.41	24496.44
459.616	23198.02
459.821	23216.46
460.027	22810.96
460.233	22143.32
460.438	21231.97
460.644	21694.82
460.85	20771.18
461.055	20189.56
461.261	20306.29
461.466	18960.78
461.672	18143.64
461.878	19401.09
462.083	18362.77
462.289	17977.75
462.494	17967.51
462.7	17054.12
462.905	16224.69
463.111	17162.66
463.316	17205.67
463.522	16794.03
463.727	16742.83
463.932	16705.96
464.138	16740.78
464.343	16701.87
464.549	16212.4
464.754	16622
464.959	16599.47
465.165	16437.68
465.37	15882.68
465.575	15309.25
465.781	15874.49
465.986	16370.1
466.191	15489.47
466.397	14987.72
466.602	14578.12
466.807	15180.23
467.012	15147.46
467.218	15294.91
467.423	14729.67
467.628	14889.42
467.833	15634.88
468.038	14932.42
468.244	14334.42
468.449	14887.37
468.654	14641.61
468.859	14580.17
469.064	14383.57
469.269	13750.74
469.474	13849.05
469.679	14254.55
469.885	13732.31
470.09	14025.17
470.295	13982.17
470.5	13640.15
470.705	13791.7
470.91	13306.34
471.115	13267.42
471.32	13541.85
471.525	13279.71
471.73	12960.23
471.935	12900.84
472.139	12552.68
472.344	12591.59
472.549	12601.83
472.754	12669.42
472.959	12151.28
473.164	11897.33
473.369	11796.98
473.574	12153.33
473.778	12063.22
473.983	11844.09
474.188	11774.45
474.393	11420.16
474.598	11516.41
474.802	11272.7
475.007	11362.81
475.212	11244.03
475.417	10738.18
475.621	10975.75
475.826	10897.92
476.031	10811.91
476.235	10416.65
476.44	10816.01
476.645	10580.49
476.849	10273.29
477.054	10199.57
477.259	10138.13
477.463	10062.35
477.668	9824.79
477.872	10060.31
478.077	9769.49
478.282	9583.13
478.486	9679.38
478.691	9689.62
478.895	9517.59
479.1	9531.93
479.304	9515.55
479.509	9099.81
479.713	9349.66
479.918	9177.63
480.122	9079.33
480.326	8960.55
480.531	9175.58
480.735	8985.12
480.94	8833.57
481.144	9191.97
481.348	8630.82
481.553	8933.92
481.757	8669.73
481.961	8751.65
482.166	9064.99
482.37	8878.63
482.574	8878.63
482.778	8878.63
482.983	8809
483.187	8925.73
483.391	8745.51
483.595	8911.39
483.8	8729.13
484.004	8847.91
484.208	8925.73
484.412	8811.04
484.616	8716.84
484.821	8970.79
485.025	8933.92
485.229	8964.64
485.433	8722.98
485.637	9024.03
485.841	8786.47
486.045	8643.11
486.249	8796.71
486.453	8702.5
486.657	8856.1
486.861	8915.49
487.065	8618.54
487.269	8608.3
487.473	8659.49
487.677	8778.28
487.881	8923.68
488.085	8550.95
488.289	8880.68
488.493	8909.35
488.697	8944.16
488.901	8958.5
489.105	8811.04
489.309	8819.24
489.512	8763.94
489.716	9087.52
489.92	8774.18
490.124	8956.45
490.328	8974.88
490.531	8911.39
490.735	9181.73
490.939	9155.1
491.143	9081.38
491.346	9161.25
491.55	9204.25
491.754	9251.36
491.958	9431.58
492.161	9175.58
492.365	9320.99
492.569	9411.1
492.772	9333.28
492.976	9288.22
493.18	9275.93
493.383	9718.29
493.587	9611.8
493.79	9603.61
493.994	9613.85
494.197	9714.2
494.401	9722.39
494.605	9929.24
494.808	10127.89
495.012	10029.59
495.215	9972.24
495.419	10277.39
495.622	9929.24
495.825	10359.31
496.029	10060.31
496.232	10603.02
496.436	10461.71
496.639	10867.2
496.843	10779.14
497.046	10988.03
497.249	11121.15
497.453	11125.25
497.656	11414.01
497.859	11252.22
498.063	11403.77
498.266	11536.89
498.469	11549.18
498.673	11706.87
498.876	11833.85
499.079	12016.12
499.282	12059.12
499.485	12368.37
499.689	12433.9
499.892	12481
500.095	12632.55
500.298	12954.08
500.501	12841.45
500.705	13148.64
500.908	13292
501.111	13287.9
501.314	13681.11
501.517	13691.35
501.72	13861.34
501.923	13545.95
502.126	14008.79
502.329	14135.76
502.532	14195.15
502.735	14402
502.938	14729.67
503.141	14862.79
503.344	15092.16
503.547	15149.51
503.75	15333.82
503.953	15540.67
504.156	15735.23
504.359	15796.67
504.562	16011.7
504.765	16431.54
504.968	16279.99
505.17	16366
505.373	16609.71
505.576	17109.41
505.779	17078.69
505.982	17056.17
506.185	17678.75
506.387	17674.65
506.59	17684.89
506.793	18188.69
506.996	18155.93
507.198	18676.11
507.401	18418.07
507.604	18530.7
507.807	18919.82
508.009	19325.32
508.212	19245.44
508.415	19489.15
508.617	19753.34
508.82	19970.43
509.022	19962.23
509.225	20388.21
509.428	20513.14
509.63	20547.95
509.833	20816.24
510.035	21397.86
510.238	21244.26
510.44	21363.04
510.643	21862.75
510.845	22139.22
511.048	22155.61
511.25	22419.8
511.453	22264.15
511.655	23415.11
511.858	23171.4
512.06	23069
512.262	23503.17
512.465	23615.81
512.667	24111.42
512.87	24256.82
513.072	24279.35
513.274	24832.3
513.477	24979.76
513.679	25102.64
513.881	25579.81
514.084	25768.23
514.286	25723.17
514.488	25995.55
514.69	26736.91
514.893	26771.73
515.095	27142.41
515.297	27117.84
515.499	27207.95
515.701	27857.15
515.904	28057.85
516.106	27836.67
516.308	28631.29
516.51	29030.64
516.712	28879.09
516.914	29544.68
517.116	29542.63
517.318	29815.01
517.52	29657.32
517.722	30138.59
517.925	30666.97
518.127	31295.69
518.329	30914.77
518.531	31066.32
518.733	31432.91
518.935	32174.27
519.136	31938.76
519.338	32803
519.54	32731.32
519.742	32991.41
519.944	33077.43
520.146	33693.86
520.348	33487.02
520.55	33968.29
520.752	33933.48
520.954	35004.56
521.155	34707.61
521.357	35002.52
521.559	35457.17
521.761	35893.38
521.963	35711.11
522.164	36466.81
522.366	36149.38
522.568	36558.97
522.77	36644.99
522.971	37120.12
523.173	37259.38
523.375	37443.7
523.576	37734.51
523.778	37779.56
523.98	38377.57
524.181	38684.76
524.383	38209.64
524.584	38901.85
524.786	38785.11
524.988	38652
525.189	39919.69
525.391	39149.65
525.592	40065.1
525.794	40200.26
525.995	40267.84
526.197	40515.65
526.398	40454.21
526.6	40519.74
526.801	41154.61
527.003	41308.21
527.204	41060.41
527.406	41639.98
527.607	41424.95
527.808	41957.42
528.01	41351.22
528.211	42223.65
528.412	42674.21
528.614	42139.69
528.815	42356.77
529.016	42569.76
529.218	42371.11
529.419	43251.73
529.62	42915.87
529.822	42588.19
530.023	42764.32
530.224	42944.54
530.425	42608.67
530.626	42930.2
530.828	43307.03
531.029	43933.71
531.23	43128.86
531.431	43405.33
531.632	43227.16
531.833	43839.5
532.035	43800.59
532.236	43741.2
532.437	43859.98
532.638	43567.12
532.839	44138.51
533.04	43976.72
533.241	43657.23
533.442	44783.62
533.643	44142.6
533.844	44541.95
534.045	44478.47
534.246	44144.65
534.447	44664.83
534.648	44429.32
534.849	44386.31
535.05	44234.76
535.251	44627.97
535.451	44152.84
535.652	44709.89
535.853	44564.48
536.054	44177.42
536.255	44718.08
536.456	43802.64
536.657	44988.41
536.857	44541.95
537.058	44613.63
537.259	44965.88
537.46	44881.92
537.66	44521.48
537.861	44701.7
538.062	44550.15
538.263	44517.38
538.463	44544
538.664	44802.05
538.865	44892.16
539.065	44859.39
539.266	44113.93
539.466	44732.42
539.667	44402.69
539.868	44816.38
540.068	44808.19
540.269	44503.04
540.469	44810.24
540.67	44400.65
540.87	44818.43
541.071	44472.32
541.271	44611.59
541.472	44462.08
541.672	44662.79
541.873	44511.24
542.073	44148.74
542.274	44599.3
542.474	44511.24
542.675	44283.91
542.875	44775.42
543.075	44535.81
543.276	44285.96
543.476	44789.76
543.676	44457.99
543.877	44802.05
544.077	44105.74
544.277	44640.26
544.478	44220.42
544.678	44658.69
544.878	44541.95
545.078	44560.39
545.279	44285.96
545.479	44355.59
545.679	44675.07
545.879	44410.88
546.079	44746.75
546.28	44595.2
546.48	43790.35
546.68	44505.09
546.88	44574.72
547.08	44345.35
547.28	44343.3
547.48	44349.45
547.68	44783.62
547.88	44253.19
548.081	44476.42
548.281	44562.43
548.481	43927.56
548.681	44771.33
548.881	44562.43
549.081	44800
549.28	44222.47
549.48	44369.93
549.68	44105.74
549.88	44759.04
550.08	43980.81
550.28	44722.18
550.48	44136.46
550.68	44756.99
550.88	44199.94
551.08	44275.72
551.279	44304.39
551.479	43907.08
551.679	44255.24
551.879	44472.32
552.079	44197.9
552.278	43993.1
552.478	43923.47
552.678	44238.86
552.878	44312.58
553.077	44267.53
553.277	43577.36
553.477	44441.6
553.676	43468.82
553.876	43673.62
554.076	43837.45
554.275	43653.14
554.475	43472.92
554.674	43931.66
554.874	44032.01
555.074	43452.44
555.273	44021.77
555.473	43880.46
555.672	43554.83
555.872	43872.27
556.071	43616.27
556.271	44163.08
556.47	43286.55
556.67	43231.25
556.869	43356.18
557.068	43264.02
557.268	43413.52
557.467	43354.13
557.667	43259.93
557.866	43675.66
558.065	43423.76
558.265	42979.35
558.464	43044.89
558.663	43544.59
558.863	42524.71
559.062	43339.8
559.261	42625.06
559.461	43309.08
559.66	42162.22
559.859	42360.87
560.058	42498.08
560.258	42594.34
560.457	41998.38
560.656	42633.25
560.855	42573.86
561.054	42334.24
561.253	41869.36
561.453	42188.84
561.652	42264.61
561.851	42254.37
562.05	42209.32
562.249	42094.63
562.448	42129.45
562.647	41715.76
562.846	41789.48
563.045	41465.91
563.244	41426.99
563.443	42041.39
563.642	41465.91
563.841	41314.36
564.04	41220.15
564.239	41369.65
564.438	40828.99
564.637	41515.06
564.836	41297.97
565.035	40644.67
565.234	40900.67
565.432	40724.54
565.631	40433.73
565.83	40974.39
566.029	40429.63
566.228	40378.43
566.427	39848.01
566.625	40228.93
566.824	39698.51
567.023	40566.85
567.222	39497.81
567.42	40212.55
567.619	39581.77
567.818	39706.7
568.016	39659.6
568.215	39979.08
568.414	39315.54
568.612	39745.61
568.811	39110.74
569.01	39168.08
569.208	38559.84
569.407	39098.45
569.605	38594.65
569.804	39319.63
570.002	38680.67
570.201	39032.92
570.4	38643.8
570.598	38287.46
570.797	38158.44
570.995	38645.85
571.193	38037.61
571.392	38097
571.59	37853.29
571.789	37902.44
571.987	38047.85
572.186	37783.66
572.384	37400.69
572.582	37505.13
572.781	37746.79
572.979	37265.52
573.177	37034.1
573.376	37222.51
573.574	37269.62
573.772	37099.64
573.971	36929.66
574.169	36776.06
574.367	36370.56
574.565	36755.58
574.763	36563.07
574.962	36524.16
575.16	36110.47
575.358	36370.56
575.556	35838.09
575.754	36393.09
575.952	35833.99
576.151	36249.73
576.349	35717.26
576.547	35696.78
576.745	35686.54
576.943	35745.93
577.141	35631.24
577.339	35506.32
577.537	35045.52
577.735	35635.34
577.933	35117.2
578.131	35051.67
578.329	34900.12
578.527	34885.78
578.725	34484.38
578.923	34814.1
579.121	34271.39
579.319	34625.69
579.516	34666.65
579.714	34197.66
579.912	34093.22
580.11	33900.71
580.308	34015.4
580.506	33839.27
580.704	33456.3
580.901	33890.47
581.099	33849.51
581.297	33896.61
581.495	33478.83
581.692	33462.44
581.89	33185.97
582.088	33468.59
582.285	33022.13
582.483	33134.77
582.681	33216.69
582.878	32995.51
583.076	32936.12
583.274	33243.31
583.471	32608.44
583.669	32995.51
583.866	32706.74
584.064	32649.4
584.262	32198.85
584.459	32680.12
584.657	31938.76
584.854	32344.25
585.052	31733.96
585.249	32184.51
585.447	31959.23
585.644	31879.36
585.841	31680.71
586.039	31961.28
586.236	31547.59
586.434	31490.25
586.631	31248.59
586.828	31482.06
587.026	31301.84
587.223	31181.01
587.42	30890.2
587.618	30918.87
587.815	30812.37
588.012	30460.12
588.21	30607.58
588.407	31215.82
588.604	30382.3
588.801	30494.94
588.999	30296.28
589.196	30372.06
589.393	30402.78
589.59	30394.59
589.787	29898.98
589.984	30087.39
590.182	29911.27
590.379	30005.47
590.576	29704.42
590.773	29675.75
590.97	29405.42
591.167	29587.69
591.364	29001.97
591.561	29620.45
591.758	29100.27
591.955	29081.84
592.152	29030.64
592.349	28987.63
592.546	28784.88
592.743	28952.82
592.94	28573.94
593.137	28756.21
593.334	28862.71
593.531	28195.07
593.727	28412.15
593.924	28537.08
594.121	28016.9
594.318	28610.81
594.515	27971.84
594.712	28348.67
594.908	27930.88
595.105	27998.46
595.302	27592.97
595.499	28104.96
595.696	27969.79
595.892	27611.4
596.089	27580.68
596.286	27613.45
596.482	27418.89
596.679	27629.83
596.876	27123.98
597.072	27040.01
597.269	27255.05
597.466	27091.21
597.662	26579.22
597.859	27007.25
598.055	27060.49
598.252	26689.81
598.448	26585.36
598.645	26669.33
598.841	26464.53
599.038	26415.38
599.234	26489.11
599.431	26120.48
599.627	26212.63
599.824	26210.59
600.02	25790.75
600.217	26298.65
600.413	26134.81
600.609	25798.94
600.806	25565.48
601.002	25559.33
601.198	25532.71
601.395	25659.68
601.591	25319.72
601.787	25551.14
601.984	25217.32
602.18	25639.2
602.376	25270.57
602.572	25112.88
602.769	25245.99
602.965	24623.41
603.161	24830.26
603.357	24969.52
603.553	24856.88
603.75	24768.82
603.946	24293.69
604.142	24332.6
604.338	24248.63
604.534	24748.34
604.73	24283.45
604.926	24054.08
605.122	24318.26
605.318	23738.69
605.514	23832.9
605.71	23984.44
605.906	23626.05
606.102	23923.01
606.298	23513.41
606.494	23636.29
606.69	23699.78
606.886	23884.09
607.082	23529.8
607.278	23755.07
607.474	22870.35
607.67	23615.81
607.866	23044.43
608.062	23640.39
608.257	23628.1
608.453	23241.03
608.649	23296.33
608.845	23087.43
609.041	23054.67
609.236	23095.63
609.432	23103.82
609.628	22962.51
609.824	22911.31
610.019	23155.02
610.215	22790.48
610.411	22864.21
610.606	22698.32
610.802	22706.51
610.998	22636.88
611.193	22528.34
611.389	22403.41
611.584	22634.83
611.78	22194.52
611.976	22389.08
612.171	22313.3
612.367	22073.69
612.562	22217.05
612.758	21856.61
612.953	22192.47
613.149	22163.8
613.344	21967.2
613.539	22245.72
613.735	21916
613.93	21952.86
614.126	21911.9
614.321	21926.24
614.517	21850.46
614.712	21875.04
614.907	21598.56
615.103	21864.8
615.298	21477.73
615.493	21780.83
615.688	21610.85
615.884	21559.65
616.079	21467.49
616.274	21627.23
616.47	21555.55
616.665	21455.2
616.86	21481.83
617.055	21066.09
617.25	21236.07
617.445	21510.5
617.641	20660.59
617.836	21414.24
618.031	20855.15
618.226	21258.6
618.421	20509.04
618.616	20857.2
618.811	20543.86
619.006	21006.7
619.201	20332.92
619.396	20687.22
619.591	20130.17
619.786	20083.06
619.981	20099.45
620.176	20474.23
620.371	19970.43
620.566	19982.71
620.761	19919.23
620.956	20214.13
621.151	19804.54
621.346	19669.37
621.541	19384.71
621.735	19724.67
621.93	19423.62
622.125	19247.49
622.32	19159.43
622.515	19036.55
622.709	19028.36
622.904	18977.16
623.099	18846.09
623.294	18762.12
623.488	18684.3
623.683	18745.74
623.878	18569.62
624.072	18749.84
624.267	18393.49
624.462	18407.83
624.656	18309.52
624.851	18241.94
625.046	18035.1
625.24	18190.74
625.435	17752.48
625.629	17613.21
625.824	17480.1
626.018	17670.56
626.213	17119.65
626.407	17486.24
626.602	17295.78
626.796	17236.39
626.991	17279.4
627.185	16777.64
627.38	16933.29
627.574	16712.11
627.768	16593.33
627.963	16824.75
628.157	16578.99
628.352	16669.1
628.546	16310.71
628.74	16454.06
628.935	16249.27
629.129	16312.75
629.323	16005.56
629.517	16007.61
629.712	15890.87
629.906	16161.2
630.1	15628.73
630.294	15700.41
630.489	15516.09
630.683	15288.77
630.877	15354.3
631.071	15385.02
631.265	15327.68
631.459	15272.39
631.653	15053.25
631.848	15032.77
632.042	15243.71
632.236	15194.56
632.43	14701
632.624	14688.71
632.818	14834.12
633.012	14578.12
633.206	14445.01
633.4	14250.45
633.594	14178.77
633.788	14477.77
633.982	14334.42
634.176	14070.23
634.369	14164.43
634.563	13976.02
634.757	13838.81
634.951	14133.72
635.145	13908.44
635.339	13865.43
635.533	13570.52
635.726	13586.91
635.92	13498.84
636.114	13517.28
636.308	13525.47
636.501	13242.85
636.695	13322.72
636.889	13222.37
637.083	13095.39
637.276	13136.35
637.47	13259.23
637.664	12769.77
637.857	12935.65
638.051	12816.87
638.244	12720.62
638.438	12569.07
638.632	12390.89
638.825	12542.44
639.019	12575.21
639.212	12327.41
639.406	12390.89
639.599	12241.39
639.793	12161.52
639.986	12018.16
640.18	12165.62
640.373	12161.52
640.567	11923.96
640.76	11561.47
640.954	11788.79
641.147	11381.24
641.34	11579.9
641.534	11735.54
641.727	11328
641.92	11352.57
642.114	11581.95
642.307	11391.48
642.5	11459.07
642.694	11100.67
642.887	11215.36
643.08	11098.63
643.273	11033.09
643.467	11196.93
643.66	10920.45
643.853	10797.57
644.046	10846.73
644.239	10668.55
644.432	10760.71
644.626	10627.59
644.819	10492.43
645.012	10500.62
645.205	10469.9
645.398	10496.52
645.591	10281.49
645.784	10406.41
645.977	10277.39
646.17	10099.22
646.363	10062.35
646.556	10117.65
646.749	9998.87
646.942	10172.94
647.135	9853.46
647.328	9935.38
647.521	9947.67
647.714	9458.2
647.907	9685.53
648.099	9695.77
648.292	9595.42
648.485	9611.8
648.678	9480.73
648.871	9579.03
649.064	9427.48
649.256	9320.99
649.449	9277.98
649.642	9411.1
649.835	9099.81
650.027	9368.09
650.22	9050.66
650.413	8987.17
650.605	9148.96
650.798	9077.28
650.991	8933.92
651.183	8976.93
651.376	8718.89
651.568	8991.27
651.761	8811.04
651.954	8827.43
652.146	8782.37
652.339	8528.42
652.531	8698.41
652.724	8604.2
652.916	8305.2
653.109	8571.43
653.301	8479.27
653.494	8546.86
653.686	8178.22
653.879	8358.44
654.071	8063.54
654.263	8110.64
654.456	8245.8
654.648	8241.71
654.84	7938.61
655.033	8047.15
655.225	8006.19
655.417	7963.19
655.61	7987.76
655.802	7899.7
655.994	7998
656.186	7866.93
656.379	7701.05
656.571	7799.35
656.763	7752.24
656.955	7754.29
657.148	7627.32
657.34	7617.08
657.532	7479.86
657.724	7490.1
657.916	7647.8
658.108	7539.26
658.3	7416.38
658.492	7508.54
658.684	7318.07
658.876	7383.61
659.068	7066.17
659.26	7373.37
659.452	7184.96
659.644	7139.9
659.836	7234.11
660.028	7176.77
660.22	6881.86
660.412	6931.01
660.604	6898.24
660.796	6922.82
660.988	6793.8
661.18	6765.12
661.372	6726.21
661.563	6769.22
661.755	6707.78
661.947	6758.98
662.139	6689.35
662.331	6521.42
662.522	6607.43
662.714	6558.28
662.906	6373.96
663.097	6429.26
663.289	6416.97
663.481	6373.96
663.673	6365.77
663.864	6220.36
664.056	6224.46
664.247	6259.28
664.439	6259.28
664.631	6236.75
664.822	6117.97
665.014	6154.83
665.205	6277.71
665.397	6095.44
665.588	6097.49
665.78	6107.73
665.971	5894.74
666.163	5997.14
666.354	5982.8
666.546	6007.38
666.737	5841.49
666.929	5874.26
667.12	5966.42
667.311	5763.67
667.503	5857.87
667.694	5851.73
667.885	5798.48
668.077	5800.53
668.268	5616.21
668.459	5859.92
668.651	5657.17
668.842	5624.4
669.033	5442.14
669.224	5589.59
669.416	5608.02
669.607	5524.05
669.798	5407.32
669.989	5507.67
670.18	5509.72
670.371	5403.22
670.563	5286.49
670.754	5319.26
670.945	5384.79
671.136	5231.19
671.327	5435.99
671.518	5255.77
671.709	5384.79
671.9	5319.26
672.091	5272.15
672.282	5245.53
672.473	5022.3
672.664	5112.41
672.855	5075.55
673.046	5198.43
673.237	5306.97
673.428	5001.82
673.619	5157.47
673.809	5073.5
674	5085.79
674.191	4971.1
674.382	5057.12
674.573	5050.97
674.764	4934.24
674.954	4962.91
675.145	4967.01
675.336	4835.94
675.527	4964.96
675.717	4932.19
675.908	5046.88
676.099	4876.9
676.289	4794.98
676.48	4823.65
676.671	4704.87
676.861	4565.6
677.052	4688.48
677.243	4682.34
677.433	4670.05
677.624	4743.78
677.814	4645.48
678.005	4723.3
678.195	4670.05
678.386	4692.58
678.576	4395.62
678.767	4637.28
678.957	4545.13
679.148	4584.04
679.338	4541.03
679.529	4463.21
679.719	4493.93
679.909	4770.4
680.1	4653.67
680.29	4518.5
680.481	4475.49
680.671	4565.6
680.861	4571.75
681.052	4387.43
681.242	4477.54
681.432	4510.31
681.622	4137.58
681.813	4207.21
682.003	4332.14
682.193	4348.52
682.383	4422.25
682.573	4403.82
682.764	4256.36
682.954	4328.04
683.144	4403.82
683.334	4303.47
683.524	4375.14
683.714	4328.04
683.904	4248.17
684.094	4178.54
684.284	4192.87
684.474	4356.71
684.664	4037.23
684.854	4223.59
685.044	4170.35
685.234	4174.44
685.424	4180.59
685.614	4381.29
685.804	4229.74
685.994	4164.2
686.184	4084.33
686.374	4108.91
686.564	4063.85
686.753	4117.1
686.943	3959.41
687.133	4094.57
687.323	3994.22
687.513	4186.73
687.702	4123.24
687.892	4053.61
688.082	4113
688.272	4051.56
688.461	3938.93
688.651	3854.96
688.841	3916.4
689.03	3897.97
689.22	3967.6
689.41	3943.02
689.599	3883.63
689.789	3867.25
689.979	3846.77
690.168	3861.1
690.358	3920.49
690.547	3781.23
690.737	3996.27
690.926	3809.9
691.116	3711.6
691.305	3826.29
691.495	3897.97
691.684	3820.14
691.874	3826.29
692.063	3795.57
692.252	3633.78
692.442	3666.55
692.631	3627.64
692.82	3709.55
693.01	3662.45
693.199	3734.13
693.388	3586.68
693.578	3660.4
693.767	3572.34
693.956	3539.57
694.146	3641.97
694.335	3682.93
694.524	3617.4
694.713	3592.82
694.902	3601.01
695.092	3519.09
695.281	3461.75
695.47	3594.87
695.659	3519.09
695.848	3463.8
696.037	3611.25
696.226	3500.66
696.415	3453.56
696.604	3584.63
696.793	3478.13
696.982	3543.67
697.171	3437.17
697.36	3478.13
697.549	3461.75
697.738	3469.94
697.927	3433.08
698.116	3494.52
698.305	3494.52
698.494	3471.99
698.683	3406.45
698.872	3529.33
699.061	3461.75
699.25	3304.06
699.438	3351.16
699.627	3433.08
699.816	3424.89
700.005	3388.02
700.193	3449.46
700.382	3406.45
700.571	3392.12
700.76	3381.88
700.948	3455.61
701.137	3467.89
701.326	3422.84
701.514	3459.7
701.703	3359.35
701.892	3359.35
702.08	3471.99
702.269	3451.51
702.457	3342.97
702.646	3519.09
702.834	3404.41
703.023	3447.41
703.212	3297.91
703.4	3459.7
703.589	3351.16
703.777	3400.31
703.965	3342.97
704.154	3398.26
704.342	3371.64
704.531	3422.84
704.719	3232.38
704.907	3347.06
705.096	3269.24
705.284	3422.84
705.472	3388.02
705.661	3187.32
705.849	3332.73
706.037	3338.87
706.226	3351.16
706.414	3420.79
706.602	3226.23
706.79	3383.93
706.979	3396.21
707.167	3316.34
707.355	3209.85
707.543	3271.29
707.731	3347.06
707.919	3447.41
708.107	3347.06
708.296	3316.34
708.484	3232.38
708.672	3312.25
708.86	3226.23
709.048	3248.76
709.236	3285.62
709.424	3189.37
709.612	3207.8
709.8	3127.93
709.988	3273.34
710.176	3236.47
710.364	3308.15
710.551	3211.9
710.739	3193.47
710.927	3336.82
711.115	3273.34
711.303	3261.05
711.491	3213.95
711.679	3129.98
711.866	3222.14
712.054	3254.9
712.242	3152.51
712.43	3195.51
712.617	3295.86
712.805	3183.23
712.993	3224.19
713.181	3215.99
713.368	3252.86
713.556	3183.23
713.744	3078.78
713.931	3275.38
714.119	3177.08
714.306	3132.03
714.494	3297.91
714.682	3093.12
714.869	3039.87
715.057	3207.8
715.244	3242.62
715.432	3244.67
715.619	3191.42
715.807	3222.14
715.994	3084.92
716.182	3205.75
716.369	3082.88
716.556	3240.57
716.744	3007.1
716.931	3109.5
717.119	3148.41
717.306	3105.4
717.493	3164.79
717.681	3043.96
717.868	3000.96
718.055	3066.49
718.242	3064.44
718.43	3113.6
718.617	3089.02
718.804	3066.49
718.991	3076.73
719.179	3166.84
719.366	3041.92
719.553	3129.98
719.74	3068.54
719.927	2974.33
720.114	3103.36
720.301	3039.87
720.488	3058.3
720.676	3064.44
720.863	2945.66
721.05	3003
721.237	2990.72
721.424	3113.6
721.611	3099.26
721.798	3041.92
721.985	2929.28
722.172	3027.58
722.358	2937.47
722.545	3080.83
722.732	3037.82
722.919	3009.15
723.106	2927.23
723.293	3052.16
723.48	3039.87
723.667	2927.23
723.853	2914.94
724.04	3039.87
724.227	3039.87
724.414	2876.03
724.6	2867.84
724.787	2994.81
724.974	3005.05
725.161	3017.34
725.347	2953.85
725.534	2898.56
725.72	2929.28
725.907	2818.69
726.094	3003
726.28	2960
726.467	2865.79
726.653	2976.38
726.84	2990.72
727.027	3000.96
727.213	2857.6
727.4	2912.89
727.586	2876.03
727.773	2931.33
727.959	2878.08
728.145	2894.46
728.332	2873.98
728.518	2937.47
728.705	2890.37
728.891	2841.22
729.077	2753.15
729.264	2837.12
729.45	2919.04
729.636	3035.77
729.823	2914.94
730.009	2984.57
730.195	2869.89
730.382	2943.61
730.568	2818.69
730.754	2910.85
730.94	2945.66
731.126	2790.02
731.313	2855.55
731.499	2892.41
731.685	2652.8
731.871	2937.47
732.057	2939.52
732.243	2773.63
732.429	2945.66
732.615	2710.15
732.801	2886.27
732.987	2843.26
733.173	2790.02
733.359	2738.82
733.545	2851.46
733.731	2763.39
733.917	2720.39
734.103	2869.89
734.289	2835.07
734.475	2681.47
734.661	2857.6
734.847	2830.98
735.033	2769.54
735.219	2808.45
735.404	2740.86
735.59	2781.82
735.776	2779.78
735.962	2747.01
736.148	2863.74
736.333	2740.86
736.519	2595.46
736.705	2775.68
736.89	2695.81
737.076	2693.76
737.262	2663.04
737.447	2691.71
737.633	2742.91
737.819	2636.42
738.004	2566.79
738.19	2677.38
738.375	2783.87
738.561	2599.55
738.747	2722.43
738.932	2646.66
739.118	2613.89
739.303	2687.62
739.489	2685.57
739.674	2546.31
739.859	2630.27
740.045	2679.43
740.23	2577.03
740.416	2566.79
740.601	2515.59
740.786	2527.88
740.972	2577.03
741.157	2615.94
741.342	2458.25
741.528	2515.59
741.713	2542.21
741.898	2372.23
742.084	2593.41
742.269	2566.79
742.454	2452.1
742.639	2552.45
742.824	2466.44
743.01	2603.65
743.195	2501.25
743.38	2536.07
743.565	2439.81
743.75	2574.98
743.935	2347.65
744.12	2450.05
744.305	2445.96
744.49	2394.76
744.675	2450.05
744.86	2316.94
745.045	2488.96
745.23	2351.75
745.415	2415.24
745.6	2349.7
745.785	2325.13
745.97	2343.56
746.155	2267.78
746.34	2329.22
746.525	2105.99
746.71	2308.74
746.895	2429.57
747.079	2269.83
747.264	2210.44
747.449	2339.46
747.634	2273.93
747.819	2134.67
748.003	2132.62
748.188	2181.77
748.373	2079.37
748.557	2153.1
748.742	2130.57
748.927	2099.85
749.111	2093.71
749.296	1995.4
749.481	2034.32
749.665	1981.07
749.85	2118.28
750.034	2052.75
750.219	1983.12
750.404	2052.75
750.588	1972.88
750.773	1858.19
750.957	1979.02
751.141	1927.82
751.326	1931.92
751.51	1936.01
751.695	1837.71
751.879	1862.29
752.064	1968.78
752.248	1952.4
752.432	1972.88
752.617	1800.85
752.801	1790.61
752.985	1780.37
753.17	1749.65
753.354	1806.99
753.538	1741.46
753.722	1772.18
753.907	1747.6
754.091	1811.09
754.275	1720.98
754.459	1751.7
754.643	1749.65
754.828	1690.26
755.012	1747.6
755.196	1727.12
755.38	1653.39
755.564	1639.06
755.748	1692.3
755.932	1663.63
756.116	1643.15
756.3	1624.72
756.484	1569.43
756.668	1637.01
756.852	1565.33
757.036	1520.28
757.22	1612.43
757.404	1534.61
757.588	1536.66
757.772	1561.23
757.956	1587.86
758.14	1434.26
758.323	1542.8
758.507	1448.6
758.691	1342.1
758.875	1401.49
759.059	1526.42
759.242	1489.56
759.426	1360.53
759.61	1471.12
759.794	1426.07
759.977	1436.31
760.161	1348.25
760.345	1368.73
760.528	1452.69
760.712	1344.15
760.895	1460.88
761.079	1360.53
761.263	1344.15
761.446	1251.99
761.63	1266.33
761.813	1458.84
761.997	1299.09
762.18	1409.69
762.364	1282.71
762.547	1155.74
762.731	1229.46
762.914	1309.33
763.098	1239.7
763.281	1282.71
763.464	1299.09
763.648	1338.01
763.831	1321.62
764.015	1243.8
764.198	1276.57
764.381	1260.18
764.564	1180.31
764.748	1266.33
764.931	1168.02
765.114	1147.55
765.297	1313.43
765.481	1168.02
765.664	1192.6
765.847	1120.92
766.03	1231.51
766.213	1149.59
766.397	1165.98
766.58	1133.21
766.763	1100.44
766.946	1086.11
767.129	1168.02
767.312	1184.41
767.495	1106.59
767.678	1133.21
767.861	1161.88
768.044	1129.11
768.227	1057.43
768.41	1120.92
768.593	1116.83
768.776	1151.64
768.959	1094.3
769.142	1204.89
769.324	1059.48
769.507	1073.82
769.69	1045.15
769.873	1110.68
770.056	1090.2
770.239	993.95
770.421	1118.87
770.604	965.28
770.787	979.61
770.97	1036.95
771.152	1024.67
771.335	1100.44
771.518	987.8
771.7	1057.43
771.883	1026.71
772.066	1053.34
772.248	967.32
772.431	959.13
772.613	1032.86
772.796	952.99
772.978	944.8
773.161	1028.76
773.343	1125.02
773.526	879.26
773.708	998.04
773.891	926.36
774.073	952.99
774.256	918.17
774.438	1000.09
774.621	889.5
774.803	938.65
774.985	821.92
775.168	938.65
775.35	901.79
775.532	924.32
775.715	936.6
775.897	873.12
776.079	832.16
776.261	852.64
776.444	823.97
776.626	850.59
776.808	813.73
776.99	727.71
777.173	862.88
777.355	789.15
777.537	803.49
777.719	897.69
777.901	819.87
778.083	723.62
778.265	762.53
778.447	811.68
778.629	721.57
778.811	791.2
778.993	672.42
779.175	723.62
779.357	750.24
779.539	742.05
779.721	756.38
779.903	735.9
780.085	770.72
780.267	715.42
780.449	721.57
780.631	823.97
780.812	647.84
780.994	742.05
781.176	692.9
781.358	670.37
781.54	690.85
781.721	639.65
781.903	627.36
782.085	649.89
782.267	662.18
782.448	699.04
782.63	617.12
782.812	680.61
782.993	658.08
783.175	645.79
783.357	535.2
783.538	631.46
783.72	578.21
783.901	553.63
784.083	594.59
784.264	592.55
784.446	539.3
784.627	510.63
784.809	551.59
784.99	541.35
785.172	598.69
785.353	512.67
785.535	514.72
785.716	565.92
785.897	598.69
786.079	572.07
786.26	529.06
786.441	574.11
786.623	516.77
786.804	584.35
786.985	549.54
787.167	537.25
787.348	588.45
787.529	516.77
787.71	529.06
787.891	447.14
788.073	527.01
788.254	481.96
788.435	588.45
788.616	436.9
788.797	438.95
788.978	434.85
789.159	424.61
789.34	516.77
789.522	426.66
789.703	414.37
789.884	424.61
790.065	508.58
790.246	416.42
790.427	522.91
790.607	451.24
790.788	434.85
790.969	422.56
791.15	463.52
791.331	416.42
791.512	451.24
791.693	408.23
791.874	535.2
792.054	481.96
792.235	424.61
792.416	422.56
792.597	443.04
792.778	430.76
792.958	395.94
793.139	381.6
793.32	389.8
793.5	340.65
793.681	385.7
793.862	459.43
794.042	359.08
794.223	420.52
794.404	357.03
794.584	342.69
794.765	414.37
794.945	363.17
795.126	361.13
795.306	369.32
795.487	451.24
795.667	373.41
795.848	397.99
796.028	367.27
796.209	395.94
796.389	357.03
796.57	307.88
796.75	354.98
796.93	344.74
797.111	379.56
797.291	397.99
797.471	365.22
797.652	344.74
797.832	328.36
798.012	379.56
798.192	342.69
798.373	258.73
798.553	260.77
798.733	371.36
798.913	295.59
799.093	277.16
799.274	264.87
799.454	328.36
799.634	301.73
799.814	340.65
799.994	332.45
800.174	305.83
800.354	219.82
800.534	236.2
800.714	297.64
800.894	213.67
801.074	250.53
801.254	268.97
801.434	254.63
801.614	291.49
801.794	299.69
801.974	588.45
802.154	299.69
802.334	346.79
802.514	273.06
802.693	285.35
802.873	314.02
803.053	346.79
803.233	264.87
803.413	287.4
803.592	275.11
803.772	318.12
803.952	252.58
804.131	258.73
804.311	324.26
804.491	266.92
804.67	281.25
804.85	223.91
805.03	242.34
805.209	277.16
805.389	260.77
805.568	324.26
805.748	287.4
805.928	252.58
806.107	242.34
806.287	213.67
806.466	185
806.646	273.06
806.825	199.34
807.004	299.69
807.184	207.53
807.363	268.97
807.543	266.92
807.722	252.58
807.901	248.49
808.081	254.63
808.26	199.34
808.439	307.88
808.619	264.87
808.798	205.48
808.977	240.29
809.156	244.39
809.336	203.43
809.515	254.63
809.694	248.49
809.873	187.05
810.052	215.72
810.231	264.87
810.411	260.77
810.59	185
810.769	281.25
810.948	201.38
811.127	133.8
811.306	199.34
811.485	246.44
811.664	283.3
811.843	328.36
812.022	203.43
812.201	209.58
812.38	213.67
812.559	139.94
812.737	205.48
812.916	162.47
813.095	168.62
813.274	209.58
813.453	185
813.632	215.72
813.811	172.71
813.989	133.8
814.168	230.06
814.347	117.42
814.526	219.82
814.704	230.06
814.883	211.62
815.062	172.71
815.24	291.49
815.419	182.95
815.598	158.38
815.776	94.89
815.955	195.24
816.133	182.95
816.312	174.76
816.49	225.96
816.669	107.18
816.847	119.46
817.026	254.63
817.204	135.85
817.383	240.29
817.561	135.85
817.74	264.87
817.918	185
818.097	164.52
818.275	225.96
818.453	133.8
818.632	131.75
818.81	121.51
818.988	137.9
819.167	127.66
819.345	146.09
819.523	152.23
819.701	92.84
819.879	215.72
820.058	180.9
820.236	195.24
820.414	193.19
820.592	180.9
820.77	144.04
820.948	162.47
821.127	176.81
821.305	146.09
821.483	137.9
821.661	176.81
821.839	160.42
822.017	185
822.195	160.42
822.373	107.18
822.551	148.14
822.729	111.27
822.907	135.85
823.085	168.62
823.262	178.86
823.44	201.38
823.618	92.84
823.796	160.42
823.974	74.41
824.152	113.32
824.329	154.28
824.507	152.23
824.685	88.75
824.863	109.22
825.04	156.33
825.218	148.14
825.396	111.27
825.574	88.75
825.751	127.66
825.929	105.13
826.107	115.37
826.284	174.76
826.462	98.99
826.639	84.65
826.817	168.62
826.994	45.74
827.172	98.99
827.349	178.86
827.527	137.9
827.704	144.04
827.882	187.05
828.059	103.08
828.237	111.27
828.414	98.99
828.591	101.03
828.769	162.47
828.946	152.23
829.124	197.29
829.301	80.55
829.478	115.37
829.655	146.09
829.833	123.56
830.01	76.46
830.187	107.18
830.364	152.23
830.542	170.66
830.719	117.42
830.896	154.28
831.073	105.13
831.25	84.65
831.427	68.27
831.604	78.51
831.782	96.94
831.959	94.89
832.136	135.85
832.313	170.66
832.49	88.75
832.667	72.36
832.844	60.07
833.021	133.8
833.198	60.07
833.374	117.42
833.551	107.18
833.728	74.41
833.905	133.8
834.082	121.51
834.259	146.09
834.436	90.79
834.612	33.45
834.789	148.14
834.966	160.42
835.143	27.31
835.319	45.74
835.496	185
835.673	125.61
835.85	131.75
836.026	51.88
836.203	115.37
836.38	49.83
836.556	160.42
836.733	76.46
836.909	58.03
837.086	41.64
837.262	123.56
837.439	133.8
837.616	86.7
837.792	19.11
837.968	168.62
838.145	103.08
838.321	82.6
838.498	125.61
838.674	74.41
838.851	66.22
839.027	154.28
839.203	92.84
839.38	90.79
839.556	68.27
839.732	115.37
839.909	115.37
840.085	86.7
840.261	68.27
840.437	47.79
840.614	72.36
840.79	39.59
840.966	49.83
841.142	107.18
841.318	41.64
841.494	160.42
841.671	23.21
841.847	49.83
842.023	72.36
842.199	74.41
842.375	156.33
842.551	88.75
842.727	125.61
842.903	133.8
843.079	37.55
843.255	94.89
843.431	76.46
843.607	98.99
843.783	45.74
843.959	72.36
844.134	68.27
844.31	43.69
844.486	62.12
844.662	101.03
844.838	41.64
845.013	53.93
845.189	37.55
845.365	129.7
845.541	180.9
845.716	131.75
845.892	119.46
846.068	64.17
846.244	51.88
846.419	115.37
846.595	119.46
846.77	23.21
846.946	-11.61
847.122	45.74
847.297	21.16
847.473	35.5
847.648	82.6
847.824	47.79
847.999	43.69
848.175	78.51
848.35	39.59
848.526	129.7
848.701	64.17
848.876	41.64
849.052	88.75
849.227	96.94
849.403	45.74
849.578	17.07
849.753	76.46
849.929	68.27
850.104	45.74
850.279	53.93
850.454	90.79
850.63	55.98
850.805	107.18
850.98	113.32
851.155	90.79
851.33	27.31
851.505	-40.28
851.681	53.93
851.856	4.78
852.031	60.07
852.206	-15.7
852.381	15.02
852.556	84.65
852.731	2.73
852.906	88.75
853.081	33.45
853.256	125.61
853.431	168.62
853.606	29.35
853.781	-7.51
853.956	88.75
854.131	25.26
854.305	70.31
854.48	45.74
854.655	62.12
854.83	78.51
855.005	33.45
855.18	41.64
855.354	66.22
855.529	64.17
855.704	115.37
855.879	21.16
856.053	51.88
856.228	12.97
856.403	37.55
856.577	53.93
856.752	78.51
856.926	41.64
857.101	86.7
857.276	49.83
857.45	29.35
857.625	37.55
857.799	55.98
857.974	55.98
858.148	49.83
858.323	84.65
858.497	2.73
858.672	74.41
858.846	47.79
859.02	-9.56
859.195	47.79
859.369	68.27
859.543	125.61
859.718	-44.37
859.892	8.87
860.066	25.26
860.241	-34.13
860.415	21.16
860.589	60.07
860.763	31.4
860.938	64.17
861.112	41.64
861.286	-13.65
861.46	53.93
861.634	35.5
861.808	49.83
861.982	-40.28
862.157	33.45
862.331	33.45
862.505	-13.65
862.679	27.31
862.853	72.36
863.027	6.83
863.201	66.22
863.375	49.83
863.549	49.83
863.722	-17.75
863.896	53.93
864.07	-34.13
864.244	12.97
864.418	49.83
864.592	35.5
864.766	76.46
864.939	127.66
865.113	-9.56
865.287	105.13
865.461	31.4
865.634	2.73
865.808	29.35
865.982	33.45
866.156	6.83
866.329	-9.56
866.503	58.03
866.676	33.45
866.85	23.21
867.024	35.5
867.197	45.74
867.371	27.31
867.544	37.55
867.718	43.69
867.891	33.45
868.065	37.55
868.238	29.35
868.412	98.99
868.585	19.11
868.759	-3.41
868.932	-3.41
869.105	37.55
869.279	0.68
869.452	15.02
869.625	23.21
869.799	27.31
869.972	53.93
870.145	72.36
870.319	45.74
870.492	58.03
870.665	66.22
870.838	8.87
871.011	12.97
871.185	51.88
871.358	-21.85
871.531	-36.18
871.704	49.83
871.877	60.07
872.05	25.26
872.223	17.07
872.396	74.41
872.569	53.93
872.742	-23.89
872.915	-11.61
873.088	41.64
873.261	84.65
873.434	10.92
873.607	98.99
873.78	121.51
873.953	4.78
874.126	45.74
874.299	47.79
874.471	27.31
874.644	78.51
874.817	0.68
874.99	43.69
875.163	72.36
875.335	27.31
875.508	-17.75
875.681	107.18
875.853	-3.41
876.026	53.93
876.199	45.74
876.371	6.83
876.544	6.83
876.717	41.64
876.889	58.03
877.062	51.88
877.234	-46.42
877.407	-15.7
877.579	-23.89
877.752	58.03
877.924	25.26
878.097	103.08
878.269	2.73
878.442	74.41
878.614	43.69
878.786	58.03
878.959	23.21
879.131	8.87
879.303	-9.56
879.476	-5.46
879.648	-3.41
879.82	53.93
879.993	23.21
880.165	58.03
880.337	-48.47
880.509	23.21
880.681	64.17
880.854	8.87
881.026	23.21
881.198	109.22
881.37	-46.42
881.542	10.92
881.714	4.78
881.886	2.73
882.058	8.87
882.23	45.74
882.402	51.88
882.574	68.27
882.746	43.69
882.918	51.88
883.09	15.02
883.262	-19.8
883.434	41.64
883.606	31.4
883.778	10.92
883.95	135.85
884.122	-36.18
884.293	70.31
884.465	-19.8
884.637	-5.46
884.809	-21.85
884.98	37.55
885.152	-11.61
885.324	98.99
885.496	45.74
885.667	-15.7
885.839	-17.75
886.011	55.98
886.182	0.68
886.354	70.31
886.525	25.26
886.697	37.55
886.869	92.84
887.04	53.93
887.212	78.51
887.383	55.98
887.555	0.68
887.726	0.68
887.897	-15.7
888.069	35.5
888.24	19.11
888.412	49.83
888.583	25.26
888.754	58.03
888.926	-52.56
889.097	-21.85
889.268	-7.51
889.44	45.74
889.611	-23.89
889.782	21.16
889.953	-23.89
890.125	64.17
890.296	-7.51
890.467	-11.61
890.638	17.07
890.809	43.69
890.98	-5.46
891.151	-21.85
891.323	105.13
891.494	-9.56
891.665	-54.61
891.836	-5.46
892.007	70.31
892.178	39.59
892.349	-30.04
892.52	49.83
892.691	0.68
892.862	107.18
893.032	8.87
893.203	8.87
893.374	-5.46
893.545	55.98
893.716	-9.56
893.887	-15.7
894.057	2.73
894.228	80.55
894.399	2.73
894.57	94.89
894.74	41.64
894.911	8.87
895.082	33.45
895.253	10.92
895.423	8.87
895.594	78.51
895.764	-9.56
895.935	29.35
896.106	58.03
896.276	0.68
896.447	17.07
896.617	51.88
896.788	-13.65
896.958	6.83
897.129	41.64
897.299	-11.61
897.47	92.84
897.64	-3.41
897.81	2.73
897.981	-30.04
898.151	-34.13
898.322	72.36
898.492	33.45
898.662	62.12
898.832	39.59
899.003	12.97
899.173	-34.13
899.343	15.02
899.513	62.12
