Data from USB4F104151__164__11-08-48-028.txt Node

Date: Wed Mar 12 11:08:48 EDT 2025
User: louis
Spectrometer: USB4F10415
Trigger mode: 4
Integration Time (sec): 2.000000E-2
Scans to average: 1
Electric dark correction enabled: true
Nonlinearity correction enabled: false
Boxcar width: 0
XAxis mode: Wavelengths
Number of Pixels in Spectrum: 3648
>>>>>Begin Spectral Data<<<<<
178.204	-45.4
178.424	-45.4
178.644	-45.4
178.864	-65.88
179.084	-100.69
179.304	3.75
179.524	-8.53
179.744	-41.3
179.964	13.99
180.184	34.47
180.404	-26.96
180.624	-4.44
180.844	-8.53
181.064	48.81
181.283	-2.39
181.503	-59.73
181.723	50.86
181.943	3.75
182.163	71.34
182.383	-29.01
182.602	102.06
182.822	36.52
183.042	-20.82
183.262	-8.53
183.482	-4.44
183.701	69.29
183.921	63.15
184.141	30.38
184.361	57
184.58	13.99
184.8	22.19
185.02	5.8
185.239	32.43
185.459	30.38
185.679	-29.01
185.898	-12.63
186.118	65.19
186.338	11.95
186.557	81.58
186.777	36.52
186.997	13.99
187.216	28.33
187.436	-4.44
187.655	-22.87
187.875	61.1
188.095	3.75
188.314	89.77
188.534	9.9
188.753	38.57
188.973	100.01
189.192	89.77
189.412	50.86
189.631	77.48
189.851	59.05
190.07	11.95
190.29	63.15
190.509	22.19
190.729	24.23
190.948	30.38
191.168	145.06
191.387	63.15
191.607	9.9
191.826	50.86
192.045	73.39
192.265	54.95
192.484	-8.53
192.704	50.86
192.923	5.8
193.142	7.85
193.362	30.38
193.581	87.72
193.8	34.47
194.02	16.04
194.239	32.43
194.458	54.95
194.678	1.71
194.897	40.62
195.116	28.33
195.335	93.87
195.555	110.25
195.774	59.05
195.993	44.71
196.212	20.14
196.432	7.85
196.651	20.14
196.87	63.15
197.089	24.23
197.308	-16.73
197.528	30.38
197.747	-31.06
197.966	20.14
198.185	46.76
198.404	36.52
198.623	18.09
198.842	95.91
199.062	-0.34
199.281	-18.77
199.5	28.33
199.719	13.99
199.938	16.04
200.157	20.14
200.376	61.1
200.595	44.71
200.814	-4.44
201.033	30.38
201.252	34.47
201.471	110.25
201.69	42.67
201.909	20.14
202.128	3.75
202.347	91.82
202.566	28.33
202.785	48.81
203.004	36.52
203.223	22.19
203.442	71.34
203.661	61.1
203.879	50.86
204.098	13.99
204.317	20.14
204.536	73.39
204.755	7.85
204.974	32.43
205.193	22.19
205.411	52.91
205.63	24.23
205.849	44.71
206.068	57
206.287	59.05
206.505	46.76
206.724	52.91
206.943	1.71
207.162	-0.34
207.381	42.67
207.599	28.33
207.818	26.28
208.037	-8.53
208.255	44.71
208.474	48.81
208.693	-4.44
208.911	73.39
209.13	22.19
209.349	-10.58
209.567	32.43
209.786	57
210.005	22.19
210.223	48.81
210.442	32.43
210.661	91.82
210.879	13.99
211.098	54.95
211.316	57
211.535	26.28
211.753	-8.53
211.972	65.19
212.191	-33.11
212.409	91.82
212.628	34.47
212.846	-2.39
213.065	30.38
213.283	52.91
213.502	59.05
213.72	32.43
213.938	-8.53
214.157	1.71
214.375	-29.01
214.594	28.33
214.812	102.06
215.031	118.44
215.249	46.76
215.467	42.67
215.686	-37.2
215.904	24.23
216.122	9.9
216.341	93.87
216.559	-10.58
216.778	112.3
216.996	9.9
217.214	79.53
217.432	79.53
217.651	73.39
217.869	42.67
218.087	-59.73
218.306	79.53
218.524	-35.16
218.742	18.09
218.96	20.14
219.179	-18.77
219.397	-35.16
219.615	106.15
219.833	52.91
220.051	-24.92
220.27	42.67
220.488	114.34
220.706	20.14
220.924	61.1
221.142	1.71
221.36	32.43
221.578	-2.39
221.796	61.1
222.015	75.43
222.233	48.81
222.451	61.1
222.669	-47.44
222.887	77.48
223.105	48.81
223.323	48.81
223.541	73.39
223.759	9.9
223.977	20.14
224.195	50.86
224.413	24.23
224.631	61.1
224.849	57
225.067	32.43
225.285	11.95
225.503	77.48
225.721	61.1
225.939	44.71
226.157	13.99
226.375	89.77
226.592	81.58
226.81	24.23
227.028	95.91
227.246	93.87
227.464	1.71
227.682	30.38
227.9	-2.39
228.117	-4.44
228.335	30.38
228.553	38.57
228.771	69.29
228.989	57
229.206	102.06
229.424	34.47
229.642	-57.68
229.86	5.8
230.077	44.71
230.295	46.76
230.513	22.19
230.731	75.43
230.948	26.28
231.166	75.43
231.384	-2.39
231.601	-4.44
231.819	7.85
232.037	59.05
232.254	57
232.472	28.33
232.689	-26.96
232.907	50.86
233.125	75.43
233.342	-20.82
233.56	54.95
233.777	-20.82
233.995	100.01
234.213	79.53
234.43	-6.49
234.648	-53.59
234.865	57
235.083	81.58
235.3	-80.21
235.518	104.11
235.735	108.2
235.953	93.87
236.17	61.1
236.388	28.33
236.605	-37.2
236.822	-16.73
237.04	40.62
237.257	-29.01
237.475	-61.78
237.692	110.25
237.909	57
238.127	-37.2
238.344	44.71
238.562	57
238.779	-4.44
238.996	20.14
239.214	-14.68
239.431	77.48
239.648	11.95
239.865	36.52
240.083	38.57
240.3	-20.82
240.517	-8.53
240.735	-20.82
240.952	81.58
241.169	163.5
241.386	81.58
241.603	-22.87
241.821	61.1
242.038	108.2
242.255	75.43
242.472	81.58
242.689	50.86
242.907	-4.44
243.124	30.38
243.341	44.71
243.558	24.23
243.775	67.24
243.992	16.04
244.209	-0.34
244.426	16.04
244.643	97.96
244.86	28.33
245.078	57
245.295	59.05
245.512	-18.77
245.729	-12.63
245.946	63.15
246.163	48.81
246.38	18.09
246.597	46.76
246.814	-4.44
247.031	34.47
247.248	75.43
247.464	50.86
247.681	-6.49
247.898	28.33
248.115	11.95
248.332	42.67
248.549	93.87
248.766	52.91
248.983	26.28
249.2	13.99
249.417	9.9
249.633	57
249.85	-0.34
250.067	13.99
250.284	52.91
250.501	40.62
250.717	59.05
250.934	54.95
251.151	-57.68
251.368	-10.58
251.585	44.71
251.801	52.91
252.018	22.19
252.235	69.29
252.451	5.8
252.668	89.77
252.885	46.76
253.102	46.76
253.318	50.86
253.535	30.38
253.752	67.24
253.968	81.58
254.185	71.34
254.401	9.9
254.618	50.86
254.835	67.24
255.051	59.05
255.268	89.77
255.484	83.63
255.701	-18.77
255.917	40.62
256.134	87.72
256.351	20.14
256.567	30.38
256.784	40.62
257	22.19
257.217	65.19
257.433	36.52
257.65	65.19
257.866	85.67
258.082	11.95
258.299	-31.06
258.515	69.29
258.732	-2.39
258.948	32.43
259.165	93.87
259.381	75.43
259.597	24.23
259.814	40.62
260.03	22.19
260.246	5.8
260.463	65.19
260.679	100.01
260.895	77.48
261.112	89.77
261.328	130.73
261.544	118.44
261.761	95.91
261.977	-35.16
262.193	59.05
262.409	65.19
262.626	24.23
262.842	-10.58
263.058	63.15
263.274	149.16
263.49	40.62
263.707	100.01
263.923	20.14
264.139	73.39
264.355	5.8
264.571	75.43
264.787	38.57
265.004	93.87
265.22	13.99
265.436	89.77
265.652	-0.34
265.868	16.04
266.084	-24.92
266.3	-45.4
266.516	48.81
266.732	59.05
266.948	20.14
267.164	57
267.38	16.04
267.596	93.87
267.812	57
268.028	57
268.244	13.99
268.46	63.15
268.676	-35.16
268.892	44.71
269.108	32.43
269.324	7.85
269.54	-0.34
269.756	73.39
269.972	16.04
270.188	20.14
270.403	1.71
270.619	44.71
270.835	38.57
271.051	16.04
271.267	-6.49
271.483	48.81
271.698	-12.63
271.914	63.15
272.13	26.28
272.346	-8.53
272.562	32.43
272.777	44.71
272.993	9.9
273.209	20.14
273.425	16.04
273.64	61.1
273.856	-29.01
274.072	-24.92
274.287	52.91
274.503	69.29
274.719	1.71
274.934	5.8
275.15	7.85
275.366	5.8
275.581	-51.54
275.797	71.34
276.012	-2.39
276.228	1.71
276.444	3.75
276.659	48.81
276.875	44.71
277.09	-4.44
277.306	-8.53
277.521	46.76
277.737	34.47
277.952	91.82
278.168	44.71
278.383	50.86
278.599	-2.39
278.814	28.33
279.03	34.47
279.245	-20.82
279.461	81.58
279.676	110.25
279.892	77.48
280.107	36.52
280.322	16.04
280.538	54.95
280.753	-6.49
280.969	16.04
281.184	97.96
281.399	7.85
281.615	13.99
281.83	59.05
282.045	-26.96
282.26	65.19
282.476	44.71
282.691	73.39
282.906	30.38
283.122	89.77
283.337	40.62
283.552	87.72
283.767	67.24
283.983	83.63
284.198	32.43
284.413	71.34
284.628	44.71
284.843	54.95
285.058	36.52
285.274	-24.92
285.489	22.19
285.704	-0.34
285.919	24.23
286.134	24.23
286.349	-29.01
286.564	11.95
286.779	16.04
286.995	48.81
287.21	1.71
287.425	63.15
287.64	18.09
287.855	77.48
288.07	-55.64
288.285	89.77
288.5	36.52
288.715	61.1
288.93	38.57
289.145	-14.68
289.36	42.67
289.575	44.71
289.79	75.43
290.004	77.48
290.219	1.71
290.434	93.87
290.649	71.34
290.864	38.57
291.079	13.99
291.294	95.91
291.509	110.25
291.724	48.81
291.938	-31.06
292.153	83.63
292.368	-37.2
292.583	38.57
292.798	75.43
293.012	93.87
293.227	-45.4
293.442	30.38
293.657	18.09
293.871	85.67
294.086	-20.82
294.301	20.14
294.516	11.95
294.73	20.14
294.945	46.76
295.16	20.14
295.374	-8.53
295.589	83.63
295.804	77.48
296.018	-8.53
296.233	73.39
296.447	32.43
296.662	69.29
296.877	71.34
297.091	83.63
297.306	28.33
297.52	54.95
297.735	71.34
297.949	89.77
298.164	36.52
298.378	32.43
298.593	-2.39
298.807	-24.92
299.022	-51.54
299.236	77.48
299.451	-2.39
299.665	81.58
299.88	38.57
300.094	-0.34
300.309	30.38
300.523	-12.63
300.737	-18.77
300.952	9.9
301.166	57
301.381	16.04
301.595	20.14
301.809	32.43
302.024	50.86
302.238	26.28
302.452	-0.34
302.667	16.04
302.881	50.86
303.095	5.8
303.309	-12.63
303.524	73.39
303.738	-2.39
303.952	-33.11
304.166	61.1
304.381	7.85
304.595	71.34
304.809	-18.77
305.023	11.95
305.237	73.39
305.452	54.95
305.666	20.14
305.88	34.47
306.094	32.43
306.308	61.1
306.522	11.95
306.736	69.29
306.95	65.19
307.164	59.05
307.379	16.04
307.593	102.06
307.807	40.62
308.021	54.95
308.235	59.05
308.449	140.97
308.663	1.71
308.877	93.87
309.091	71.34
309.305	44.71
309.519	50.86
309.733	67.24
309.947	34.47
310.161	110.25
310.374	95.91
310.588	-22.87
310.802	5.8
311.016	22.19
311.23	46.76
311.444	18.09
311.658	-2.39
311.872	77.48
312.085	91.82
312.299	79.53
312.513	50.86
312.727	-2.39
312.941	16.04
313.154	71.34
313.368	-8.53
313.582	57
313.796	52.91
314.009	5.8
314.223	28.33
314.437	24.23
314.651	24.23
314.864	36.52
315.078	-18.77
315.292	11.95
315.505	30.38
315.719	95.91
315.933	73.39
316.146	100.01
316.36	104.11
316.573	57
316.787	89.77
317.001	30.38
317.214	11.95
317.428	30.38
317.641	24.23
317.855	18.09
318.068	81.58
318.282	16.04
318.495	-31.06
318.709	128.68
318.922	75.43
319.136	91.82
319.349	120.49
319.563	20.14
319.776	20.14
319.99	28.33
320.203	7.85
320.417	52.91
320.63	7.85
320.843	81.58
321.057	-8.53
321.27	38.57
321.483	87.72
321.697	106.15
321.91	57
322.124	52.91
322.337	54.95
322.55	81.58
322.763	24.23
322.977	73.39
323.19	87.72
323.403	30.38
323.617	28.33
323.83	79.53
324.043	11.95
324.256	69.29
324.469	-0.34
324.683	118.44
324.896	71.34
325.109	-20.82
325.322	16.04
325.535	-0.34
325.748	89.77
325.962	34.47
326.175	89.77
326.388	5.8
326.601	65.19
326.814	9.9
327.027	54.95
327.24	-41.3
327.453	-8.53
327.666	50.86
327.879	-45.4
328.092	7.85
328.305	106.15
328.518	5.8
328.731	52.91
328.944	91.82
329.157	48.81
329.37	42.67
329.583	89.77
329.796	28.33
330.009	20.14
330.222	-16.73
330.435	-10.58
330.648	69.29
330.861	81.58
331.073	52.91
331.286	63.15
331.499	63.15
331.712	73.39
331.925	34.47
332.138	87.72
332.35	63.15
332.563	16.04
332.776	36.52
332.989	5.8
333.202	67.24
333.414	73.39
333.627	-72.02
333.84	-6.49
334.053	50.86
334.265	-26.96
334.478	175.78
334.691	54.95
334.903	73.39
335.116	16.04
335.329	22.19
335.541	69.29
335.754	22.19
335.966	57
336.179	34.47
336.392	57
336.604	-18.77
336.817	5.8
337.029	36.52
337.242	22.19
337.454	100.01
337.667	87.72
337.88	97.96
338.092	46.76
338.305	18.09
338.517	89.77
338.729	24.23
338.942	63.15
339.154	-0.34
339.367	38.57
339.579	149.16
339.792	69.29
340.004	20.14
340.217	71.34
340.429	30.38
340.641	44.71
340.854	-24.92
341.066	-29.01
341.278	65.19
341.491	100.01
341.703	32.43
341.915	32.43
342.128	75.43
342.34	97.96
342.552	46.76
342.764	-35.16
342.977	32.43
343.189	5.8
343.401	40.62
343.613	32.43
343.826	38.57
344.038	50.86
344.25	-47.44
344.462	34.47
344.674	65.19
344.886	65.19
345.099	46.76
345.311	22.19
345.523	57
345.735	1.71
345.947	30.38
346.159	83.63
346.371	28.33
346.583	28.33
346.795	81.58
347.007	-16.73
347.219	34.47
347.431	85.67
347.643	48.81
347.855	59.05
348.067	71.34
348.279	-2.39
348.491	22.19
348.703	87.72
348.915	30.38
349.127	16.04
349.339	42.67
349.551	13.99
349.763	13.99
349.975	81.58
350.187	104.11
350.399	36.52
350.61	1.71
350.822	1.71
351.034	81.58
351.246	83.63
351.458	46.76
351.669	89.77
351.881	114.34
352.093	11.95
352.305	85.67
352.517	73.39
352.728	65.19
352.94	7.85
353.152	71.34
353.363	16.04
353.575	-8.53
353.787	18.09
353.999	59.05
354.21	114.34
354.422	50.86
354.633	-26.96
354.845	38.57
355.057	11.95
355.268	95.91
355.48	22.19
355.692	40.62
355.903	-2.39
356.115	52.91
356.326	54.95
356.538	26.28
356.749	44.71
356.961	69.29
357.172	13.99
357.384	-0.34
357.595	106.15
357.807	63.15
358.018	46.76
358.23	89.77
358.441	91.82
358.653	42.67
358.864	100.01
359.075	-20.82
359.287	42.67
359.498	-8.53
359.709	67.24
359.921	-2.39
360.132	50.86
360.344	20.14
360.555	63.15
360.766	-0.34
360.977	20.14
361.189	75.43
361.4	42.67
361.611	132.78
361.823	32.43
362.034	13.99
362.245	18.09
362.456	65.19
362.667	42.67
362.879	69.29
363.09	54.95
363.301	52.91
363.512	22.19
363.723	18.09
363.935	26.28
364.146	9.9
364.357	28.33
364.568	50.86
364.779	-47.44
364.99	50.86
365.201	5.8
365.412	38.57
365.623	-35.16
365.834	106.15
366.045	104.11
366.256	81.58
366.467	20.14
366.678	50.86
366.889	65.19
367.1	18.09
367.311	118.44
367.522	83.63
367.733	48.81
367.944	134.82
368.155	18.09
368.366	85.67
368.577	-18.77
368.788	34.47
368.999	3.75
369.209	100.01
369.42	120.49
369.631	28.33
369.842	24.23
370.053	112.3
370.264	5.8
370.474	32.43
370.685	102.06
370.896	91.82
371.107	20.14
371.317	63.15
371.528	16.04
371.739	73.39
371.95	36.52
372.16	5.8
372.371	-12.63
372.582	77.48
372.792	100.01
373.003	42.67
373.214	46.76
373.424	26.28
373.635	5.8
373.846	65.19
374.056	50.86
374.267	24.23
374.477	3.75
374.688	52.91
374.898	93.87
375.109	50.86
375.319	89.77
375.53	126.63
375.74	106.15
375.951	24.23
376.161	65.19
376.372	102.06
376.582	-4.44
376.793	73.39
377.003	52.91
377.214	81.58
377.424	32.43
377.635	30.38
377.845	13.99
378.055	87.72
378.266	30.38
378.476	52.91
378.686	44.71
378.897	65.19
379.107	65.19
379.317	136.87
379.528	34.47
379.738	118.44
379.948	24.23
380.158	69.29
380.369	81.58
380.579	95.91
380.789	32.43
380.999	38.57
381.21	11.95
381.42	59.05
381.63	63.15
381.84	102.06
382.05	124.58
382.261	44.71
382.471	91.82
382.681	5.8
382.891	57
383.101	44.71
383.311	-8.53
383.521	40.62
383.731	61.1
383.941	122.54
384.151	7.85
384.361	44.71
384.571	59.05
384.781	73.39
384.991	32.43
385.201	32.43
385.411	69.29
385.621	83.63
385.831	34.47
386.041	-2.39
386.251	69.29
386.461	79.53
386.671	81.58
386.881	77.48
387.091	5.8
387.301	97.96
387.511	63.15
387.72	40.62
387.93	69.29
388.14	-16.73
388.35	-24.92
388.56	-12.63
388.769	69.29
388.979	40.62
389.189	59.05
389.399	34.47
389.609	28.33
389.818	140.97
390.028	128.68
390.238	11.95
390.447	7.85
390.657	128.68
390.867	-4.44
391.076	42.67
391.286	114.34
391.496	87.72
391.705	61.1
391.915	118.44
392.125	40.62
392.334	69.29
392.544	120.49
392.753	34.47
392.963	69.29
393.172	102.06
393.382	-2.39
393.591	147.11
393.801	136.87
394.01	63.15
394.22	93.87
394.429	71.34
394.639	79.53
394.848	85.67
395.058	116.39
395.267	81.58
395.477	130.73
395.686	40.62
395.895	75.43
396.105	102.06
396.314	138.92
396.524	116.39
396.733	65.19
396.942	110.25
397.152	36.52
397.361	57
397.57	81.58
397.78	46.76
397.989	192.17
398.198	100.01
398.407	65.19
398.617	85.67
398.826	-8.53
399.035	59.05
399.244	118.44
399.453	100.01
399.663	57
399.872	81.58
400.081	124.58
400.29	183.98
400.499	65.19
400.708	85.67
400.917	100.01
401.127	155.3
401.336	65.19
401.545	149.16
401.754	77.48
401.963	91.82
402.172	97.96
402.381	63.15
402.59	87.72
402.799	89.77
403.008	118.44
403.217	75.43
403.426	81.58
403.635	108.2
403.844	173.74
404.053	171.69
404.262	114.34
404.471	181.93
404.68	147.11
404.888	73.39
405.097	163.5
405.306	235.18
405.515	118.44
405.724	100.01
405.933	194.22
406.142	95.91
406.35	231.08
406.559	179.88
406.768	173.74
406.977	171.69
407.185	147.11
407.394	114.34
407.603	179.88
407.812	218.79
408.02	179.88
408.229	226.98
408.438	202.41
408.646	196.26
408.855	214.7
409.064	253.61
409.272	272.04
409.481	249.51
409.69	247.46
409.898	251.56
410.107	315.05
410.315	321.19
410.524	196.26
410.733	220.84
410.941	272.04
411.15	323.24
411.358	304.81
411.567	286.37
411.775	294.57
411.984	380.58
412.192	315.05
412.401	458.4
412.609	382.63
412.818	513.7
413.026	411.3
413.234	405.16
413.443	433.83
413.651	458.4
413.86	358.05
414.068	536.23
414.276	478.88
414.485	474.79
414.693	587.43
414.901	515.75
415.11	513.7
415.318	566.95
415.526	607.91
415.734	612
415.943	691.87
416.151	636.58
416.359	667.3
416.567	806.56
416.776	761.5
416.984	726.69
417.192	802.46
417.4	708.26
417.608	792.22
417.817	784.03
418.025	845.47
418.233	943.77
418.441	933.53
418.649	954.01
418.857	1011.36
419.065	1076.89
419.273	1044.12
419.481	1099.42
419.689	1089.18
419.897	1156.76
420.105	1203.86
420.313	1205.91
420.521	1285.78
420.729	1306.26
420.937	1406.61
421.145	1363.61
421.353	1474.2
421.561	1453.72
421.769	1578.64
421.977	1699.47
422.185	1576.59
422.393	1674.9
422.601	1826.45
422.809	1756.82
423.017	1752.72
423.224	1840.78
423.432	2006.67
423.64	1914.51
423.848	2193.03
424.056	1969.8
424.263	2221.7
424.471	2256.52
424.679	2164.36
424.887	2492.04
425.094	2510.47
425.302	2604.67
425.51	2649.73
425.718	2612.87
425.925	2619.01
426.133	2817.66
426.341	3038.84
426.548	3141.24
426.756	2940.54
426.964	3169.91
427.171	3280.5
427.379	3372.66
427.586	3462.77
427.794	3595.89
428.001	3774.07
428.209	3812.98
428.417	3882.61
428.624	4263.53
428.832	4208.23
429.039	4011.63
429.247	4052.59
429.454	4466.28
429.662	4691.56
429.869	4367.98
430.076	4808.29
430.284	4730.47
430.491	4699.75
430.699	5178.97
430.906	5049.95
431.114	5144.16
431.321	5437.02
431.528	5443.16
431.736	5797.46
431.943	6010.45
432.15	5891.66
432.358	5848.66
432.565	6303.31
432.772	6334.03
432.979	6692.42
433.187	6831.68
433.394	6725.19
433.601	7157.31
433.808	7202.36
434.016	7198.27
434.223	7296.57
434.43	8064.56
434.637	7667.25
434.844	8199.73
435.052	8449.58
435.259	8306.22
435.466	8474.15
435.673	8175.15
435.88	8949.28
436.087	9342.49
436.294	9426.46
436.501	9225.76
436.708	9420.31
436.915	9565.72
437.122	9901.59
437.329	9991.7
437.537	10194.45
437.743	10645
437.95	10567.18
438.157	10933.76
438.364	11441.66
438.571	11126.27
438.778	11312.64
438.985	12520.94
439.192	11900.41
439.399	12391.92
439.606	12084.72
439.813	12711.4
440.02	13532.64
440.227	13116.9
440.433	13014.5
440.64	13719
440.847	13589.98
441.054	13762.01
441.261	14554.57
441.467	14411.21
441.674	14996.93
441.881	15470.01
442.088	15281.6
442.294	15179.2
442.501	15404.48
442.708	16057.78
442.914	16776.62
443.121	17231.27
443.328	16821.67
443.534	17804.7
443.741	17288.61
443.948	17163.68
444.154	18636.17
444.361	18269.59
444.568	18638.22
444.774	18341.27
444.981	18515.34
445.187	19074.44
445.394	20024.7
445.6	19891.58
445.807	21607.78
446.013	20614.51
446.22	21163.37
446.426	21943.64
446.633	22039.9
446.839	22531.41
447.046	21792.09
447.252	23049.55
447.459	23260.49
447.665	23285.06
447.871	23663.94
448.078	24714.55
448.284	23493.96
448.491	24366.39
448.697	25273.64
448.903	25955.61
449.11	25605.41
449.316	25191.72
449.522	26088.73
449.728	26586.39
449.935	26805.52
450.141	26598.68
450.347	27161.87
450.553	26469.65
450.76	26494.23
450.966	27536.65
451.172	27297.03
451.378	28157.18
451.584	27499.78
451.791	28015.87
451.997	27888.9
452.203	28392.7
452.409	28273.92
452.615	28159.23
452.821	26821.91
453.027	27006.22
453.233	28255.48
453.44	27043.09
453.646	27671.81
453.852	27630.85
454.058	27905.28
454.264	26533.14
454.47	27553.03
454.676	26819.86
454.882	27819.27
455.088	25224.49
455.294	25816.35
455.5	25980.19
455.705	26389.78
455.911	25316.65
456.117	24782.13
456.323	24470.84
456.529	22992.2
456.735	23942.46
456.941	23053.64
457.147	22969.68
457.352	22097.24
457.558	22154.58
457.764	22230.36
457.97	21857.63
458.176	21253.48
458.381	21054.83
458.587	20188.53
458.793	20292.98
458.999	19047.82
459.204	20663.66
459.41	19914.11
459.616	18517.39
459.821	18421.14
460.027	18548.11
460.233	18017.69
460.438	17159.59
460.644	17548.7
460.85	16489.9
461.055	16571.82
461.261	16307.63
461.466	15187.39
461.672	14626.25
461.878	15728.06
462.083	14466.51
462.289	14409.17
462.494	14181.84
462.7	13665.75
462.905	13463.01
463.111	14007.76
463.316	14009.81
463.522	13526.49
463.727	13669.85
463.932	13467.1
464.138	13385.18
464.343	13350.37
464.549	13030.88
464.754	13524.44
464.959	13534.68
465.165	13092.32
465.37	12840.42
465.575	12447.21
465.781	12877.29
465.986	13053.41
466.191	12531.18
466.397	12260.85
466.602	11552.25
466.807	12154.35
467.012	12152.31
467.218	12088.82
467.423	11953.65
467.628	12113.39
467.833	12332.53
468.038	12080.63
468.244	11689.46
468.449	12201.46
468.654	11851.25
468.859	11746.81
469.064	11488.76
469.269	11152.9
469.474	11224.58
469.679	11695.61
469.885	11136.51
470.09	11189.76
470.295	11083.27
470.5	11025.92
470.705	10966.53
470.91	10692.1
471.115	10548.75
471.32	10847.75
471.525	10626.57
471.73	10573.32
471.935	10395.15
472.139	10120.72
472.344	10243.6
472.549	10067.47
472.754	10098.19
472.959	9795.09
473.164	9432.6
473.369	9369.12
473.574	9913.88
473.778	9704.98
473.983	9528.86
474.188	9657.88
474.393	9037.34
474.598	9125.41
474.802	9135.65
475.007	8963.62
475.212	9162.27
475.417	8805.92
475.621	8740.39
475.826	8873.51
476.031	8525.35
476.235	8455.72
476.44	8617.51
476.645	8271.4
476.849	8359.47
477.054	8343.08
477.259	8107.57
477.463	8205.87
477.668	8076.85
477.872	8080.94
478.077	8052.27
478.282	7693.88
478.486	7788.08
478.691	7487.03
478.895	7759.41
479.1	7644.73
479.304	7474.74
479.509	7345.72
479.713	7497.27
479.918	7347.77
480.122	7362.11
480.326	7382.59
480.531	7411.26
480.735	7470.65
480.94	7218.75
481.144	7413.31
481.348	7112.25
481.553	7290.43
481.757	7065.15
481.961	7108.16
482.166	7233.08
482.37	7288.38
482.574	6956.61
482.778	7071.29
482.983	7157.31
483.187	7050.82
483.391	7132.73
483.595	7089.73
483.8	6958.66
484.004	6995.52
484.208	7181.89
484.412	7097.92
484.616	6882.88
484.821	7032.38
485.025	6919.75
485.229	7044.67
485.433	7050.82
485.637	7228.99
485.841	7065.15
486.045	6907.46
486.249	7069.25
486.453	6899.27
486.657	6970.94
486.861	6952.51
487.065	6964.8
487.269	7095.87
487.473	6948.42
487.677	7120.45
487.881	7128.64
488.085	6901.31
488.289	7054.91
488.493	7102.01
488.697	7220.8
488.901	6958.66
489.105	7159.36
489.309	7022.14
489.512	7202.36
489.716	7085.63
489.92	7085.63
490.124	7032.38
490.328	7280.19
490.531	7241.28
490.735	7243.32
490.939	7251.52
491.143	7530.04
491.346	7241.28
491.55	7333.43
491.754	7394.87
491.958	7175.74
492.161	7429.69
492.365	7652.92
492.569	7476.79
492.772	7417.4
492.976	7394.87
493.18	7489.08
493.383	7640.63
493.587	7685.69
493.79	7691.83
493.994	7642.68
494.197	7781.94
494.401	7722.55
494.605	7777.84
494.808	7915.06
495.012	7837.24
495.215	8097.33
495.419	8093.23
495.622	7978.54
495.825	8150.57
496.029	8212.01
496.232	8205.87
496.436	8185.39
496.639	8619.56
496.843	8674.85
497.046	8621.61
497.249	8900.13
497.453	8597.03
497.656	8939.04
497.859	9006.63
498.063	8967.71
498.266	9319.96
498.469	8941.09
498.673	9334.3
498.876	8984.1
499.079	9541.15
499.282	9487.9
499.485	9920.02
499.689	9555.48
499.892	9887.25
500.095	9950.74
500.298	10145.3
500.501	10020.37
500.705	10171.92
500.908	10470.92
501.111	10391.05
501.314	10468.87
501.517	10688.01
501.72	10817.03
501.923	10825.22
502.126	11175.42
502.329	11101.7
502.532	11298.3
502.735	11361.79
502.938	11585.02
503.141	11552.25
503.344	11757.05
503.547	11724.28
503.75	11861.49
503.953	12154.35
504.156	12170.74
504.359	12203.5
504.562	12555.76
504.765	12549.61
504.968	12676.59
505.17	12834.28
505.373	12875.24
505.576	13133.28
505.779	13297.12
505.982	13350.37
506.185	13866.46
506.387	13692.38
506.59	13827.54
506.793	14355.92
506.996	14167.51
507.198	14411.21
507.401	14448.08
507.604	14446.03
507.807	14816.71
508.009	14910.92
508.212	14984.65
508.415	15052.23
508.617	15427.01
508.82	15408.58
509.022	15214.02
509.225	15615.42
509.428	15826.36
509.63	15961.53
509.833	16340.4
510.035	16264.63
510.238	16145.84
510.44	16590.25
510.643	16840.11
510.845	17083.81
511.048	16827.82
511.25	17323.43
511.453	17245.6
511.655	17694.11
511.858	17558.94
512.06	17950.1
512.262	18025.88
512.465	17960.34
512.667	18226.58
512.87	18486.67
513.072	18398.61
513.274	19008.9
513.477	19078.54
513.679	19111.3
513.881	19416.45
514.084	19527.04
514.286	19406.21
514.488	20024.7
514.69	20268.41
514.893	20297.08
515.095	20071.8
515.297	20708.72
515.499	20671.86
515.701	20989.29
515.904	21257.57
516.106	21366.12
516.308	21570.91
516.51	21630.3
516.712	21601.63
516.914	21980.51
517.116	22228.31
517.318	22334.81
517.52	22898
517.722	22465.88
517.925	23108.94
518.127	23250.25
518.329	22895.95
518.531	23278.92
518.733	24008
518.935	23803.2
519.136	23600.45
519.338	24184.12
519.54	24450.36
519.742	24792.37
519.944	24806.7
520.146	24945.97
520.348	25064.75
520.55	25257.26
520.752	25257.26
520.954	26144.03
521.155	25840.93
521.357	26174.75
521.559	26230.04
521.761	26899.73
521.963	26713.36
522.164	26658.07
522.366	27096.33
522.568	27194.64
522.77	27051.28
522.971	27976.96
523.173	27575.56
523.375	27870.47
523.576	27479.3
523.778	27987.2
523.98	28140.8
524.181	28284.16
524.383	28411.13
524.584	28460.28
524.786	28873.97
524.988	28742.9
525.189	29074.67
525.391	29363.43
525.592	29218.03
525.794	29220.08
525.995	29607.14
526.197	29637.86
526.398	30065.89
526.6	30012.64
526.801	29975.78
527.003	30170.33
527.204	30174.43
527.406	30418.14
527.607	30262.49
527.808	30751.96
528.01	30119.14
528.211	30477.53
528.412	31343.82
528.614	31157.46
528.815	30872.79
529.016	31327.44
529.218	30745.81
529.419	30741.72
529.62	31098.06
529.822	31147.22
530.023	31042.77
530.224	31392.97
530.425	31210.7
530.626	31059.15
530.828	31001.81
531.029	32113.86
531.23	31266
531.431	31245.52
531.632	31706.31
531.833	31724.74
532.035	31601.86
532.236	31401.16
532.437	31769.8
532.638	31591.62
532.839	32246.97
533.04	32163.01
533.241	31161.55
533.442	32330.94
533.643	32267.45
533.844	31687.88
534.045	31921.35
534.246	31857.86
534.447	32404.67
534.648	31730.89
534.849	31741.13
535.05	32046.27
535.251	31784.13
535.451	31810.76
535.652	31896.77
535.853	32376
536.054	32099.52
536.255	32234.69
536.456	31851.72
536.657	32042.18
536.857	31861.96
537.058	31710.41
537.259	32113.86
537.46	32122.05
537.66	31870.15
537.861	32236.73
538.062	31780.04
538.263	32326.85
538.463	31720.65
538.664	32031.94
538.865	31904.96
539.065	32199.87
539.266	31575.24
539.466	32130.24
539.667	31718.6
539.868	32292.03
540.068	31894.72
540.269	31952.07
540.469	32279.74
540.67	31847.62
540.87	32158.91
541.071	32062.66
541.271	31958.21
541.472	31993.03
541.672	31923.4
541.873	31769.8
542.073	31962.31
542.274	32361.66
542.474	31958.21
542.675	31569.1
542.875	31691.98
543.075	31925.44
543.276	31370.44
543.476	32038.08
543.676	31642.82
543.877	31878.34
544.077	31896.77
544.277	31751.37
544.478	31521.99
544.678	32310.46
544.878	31532.23
545.078	31759.56
545.279	31491.27
545.479	31540.43
545.679	32212.16
545.879	31907.01
546.079	31546.57
546.28	31657.16
546.48	31376.59
546.68	31599.82
546.88	31567.05
547.08	31720.65
547.28	31503.56
547.48	31132.88
547.68	31562.95
547.88	31386.83
548.081	31691.98
548.281	31694.02
548.481	31136.98
548.681	31866.05
548.881	31569.1
549.081	31376.59
549.28	31565
549.48	31784.13
549.68	31202.51
549.88	31755.46
550.08	31456.46
550.28	31321.29
550.48	31255.76
550.68	31816.9
550.88	31233.23
551.08	31536.33
551.279	31247.57
551.479	31288.53
551.679	31315.15
551.879	31124.69
552.079	31485.13
552.278	31120.59
552.478	31073.49
552.678	31257.81
552.878	31302.86
553.077	31270.09
553.277	31106.26
553.477	31562.95
553.676	30835.92
553.876	31272.14
554.076	30971.09
554.275	31042.77
554.475	30629.08
554.674	30885.08
554.874	30956.75
555.074	30848.21
555.273	31016.15
555.473	31040.72
555.672	30604.5
555.872	30504.15
556.071	30792.92
556.271	31282.38
556.47	30778.58
556.67	30571.74
556.869	30930.13
557.068	30698.71
557.268	30395.61
557.467	30688.47
557.667	30565.59
557.866	30545.11
558.065	30411.99
558.265	30524.63
558.464	30350.56
558.663	30547.16
558.863	29859.04
559.062	30700.76
559.261	30127.33
559.461	30094.56
559.66	29949.15
559.859	30153.95
560.058	29947.11
560.258	30158.05
560.457	29752.55
560.656	30131.42
560.855	30041.31
561.054	30190.81
561.253	29406.44
561.453	29955.3
561.652	29840.61
561.851	30246.11
562.05	29785.32
562.249	29396.2
562.448	29990.11
562.647	29502.7
562.846	29699.3
563.045	29461.74
563.244	28933.36
563.443	29781.22
563.642	28990.7
563.841	29132.01
564.04	29039.86
564.239	29445.35
564.438	28941.55
564.637	29459.69
564.836	29019.38
565.035	28744.95
565.234	28949.74
565.432	28677.37
565.631	29099.25
565.83	28779.76
566.029	28194.04
566.228	28691.7
566.427	28552.44
566.625	28646.65
566.824	27925.76
567.023	28531.96
567.222	27917.57
567.42	28460.28
567.619	28165.37
567.818	27974.91
568.016	27882.75
568.215	28130.56
568.414	28062.97
568.612	27917.57
568.811	27874.56
569.01	27766.02
569.208	27620.61
569.407	27880.71
569.605	27276.55
569.804	27596.04
570.002	27307.27
570.201	27606.28
570.4	27403.53
570.598	26897.68
570.797	27112.72
570.995	27342.09
571.193	26895.63
571.392	27145.48
571.59	26922.26
571.789	26838.29
571.987	26500.37
572.186	26873.1
572.384	26733.84
572.582	26725.65
572.781	26692.88
572.979	26252.57
573.177	26522.9
573.376	26514.71
573.574	26563.86
573.772	26578.2
573.971	26383.64
574.169	26227.99
574.367	25986.33
574.565	26107.16
574.763	26148.12
574.962	25869.6
575.16	25443.62
575.358	25937.18
575.556	25349.42
575.754	25867.55
575.952	25324.84
576.151	25314.6
576.349	25228.59
576.547	25150.76
576.745	25171.24
576.943	25208.11
577.141	25417
577.339	25355.56
577.537	24995.12
577.735	25189.67
577.933	24716.59
578.131	24972.59
578.329	24751.41
578.527	24761.65
578.725	24503.6
578.923	24847.66
579.121	24565.04
579.319	24388.92
579.516	24747.31
579.714	24384.82
579.912	24173.88
580.11	24382.77
580.308	24311.1
580.506	23895.36
580.704	23842.11
580.901	23942.46
581.099	23932.22
581.297	23690.56
581.495	23522.63
581.692	23770.43
581.89	23729.47
582.088	23850.3
582.285	23625.03
582.483	23579.97
582.681	23762.24
582.878	23301.45
583.076	23078.22
583.274	23328.07
583.471	23346.5
583.669	23280.97
583.866	23035.21
584.064	23221.58
584.262	22533.46
584.459	23264.58
584.657	22746.45
584.854	23217.48
585.052	22396.24
585.249	22947.15
585.447	22738.26
585.644	22541.65
585.841	22644.05
586.039	22627.67
586.236	22402.39
586.434	22355.29
586.631	22480.21
586.828	22207.83
587.026	22054.23
587.223	21806.43
587.42	21796.19
587.618	22213.98
587.815	22197.59
588.012	21701.98
588.21	21773.66
588.407	21919.07
588.604	21482.85
588.801	21728.61
588.999	21562.72
589.196	21611.87
589.393	21439.84
589.59	21261.67
589.787	21568.87
589.984	21421.41
590.182	21202.28
590.379	21286.25
590.576	21251.43
590.773	21063.02
590.97	21159.27
591.167	21099.88
591.364	20680.05
591.561	20790.64
591.758	20618.61
591.955	20907.37
592.152	20770.16
592.349	20569.46
592.546	20411.76
592.743	20770.16
592.94	20123
593.137	20278.65
593.334	20622.7
593.531	20272.5
593.727	20172.15
593.924	20026.75
594.121	19678.59
594.318	19996.03
594.515	19500.42
594.712	20176.25
594.908	19793.28
595.105	19713.41
595.302	19496.32
595.499	19920.25
595.696	19733.89
595.892	19434.88
596.089	19590.53
596.286	19402.11
596.482	19314.05
596.679	19545.47
596.876	19416.45
597.072	18869.64
597.269	19234.18
597.466	19129.73
597.662	18918.79
597.859	19013
598.055	18908.55
598.252	18900.36
598.448	18808.2
598.645	18709.9
598.841	18404.75
599.038	18931.08
599.234	18802.06
599.431	18435.47
599.627	18328.98
599.824	18453.91
600.02	18341.27
600.217	18525.58
600.413	18208.15
600.609	18189.72
600.806	18064.79
601.002	18275.73
601.198	17884.57
601.395	17921.43
601.591	18048.41
601.787	18042.26
601.984	17849.75
602.18	17995.16
602.376	17421.73
602.572	17540.51
602.769	17499.55
602.965	17565.09
603.161	17608.09
603.357	17452.45
603.553	17431.97
603.75	17565.09
603.946	17087.91
604.142	17382.82
604.338	17141.16
604.534	17200.55
604.73	17051.05
604.926	16977.32
605.122	16829.87
605.318	16799.15
605.514	16940.46
605.71	16940.46
605.906	16739.76
606.102	16938.41
606.298	16862.63
606.494	16485.81
606.69	16821.67
606.886	16901.54
607.082	16342.45
607.278	16580.01
607.474	16375.22
607.67	16623.02
607.866	16238
608.062	16307.63
608.257	16289.2
608.453	16299.44
608.649	16475.57
608.845	16111.03
609.041	16115.12
609.236	16334.26
609.432	16039.35
609.628	16192.95
609.824	15918.52
610.019	16207.28
610.215	16068.02
610.411	15934.9
610.606	15871.42
610.802	15814.07
610.998	15889.85
611.193	16090.55
611.389	15861.18
611.584	15820.22
611.78	15627.71
611.976	15633.85
612.171	15779.26
612.367	15687.1
612.562	15482.3
612.758	15347.14
612.953	15406.53
613.149	15343.04
613.344	15119.81
613.539	15248.83
613.735	15420.86
613.93	15359.42
614.126	15453.63
614.321	15312.32
614.517	15439.3
614.712	15050.18
614.907	15459.77
615.103	15136.2
615.298	15224.26
615.493	15451.58
615.688	15001.03
615.884	15099.33
616.079	15013.32
616.274	15183.3
616.47	15015.37
616.665	14992.84
616.86	14794.18
617.055	14824.9
617.25	14738.89
617.445	14910.92
617.641	14542.28
617.836	14880.2
618.031	14650.83
618.226	14536.14
618.421	14460.37
618.616	14788.04
618.811	14212.56
619.006	14810.57
619.201	14212.56
619.396	14622.16
619.591	14007.76
619.786	14396.88
619.981	13981.14
620.176	14486.99
620.371	13927.89
620.566	14364.11
620.761	13829.59
620.956	14306.77
621.151	13850.07
621.346	13768.15
621.541	13491.68
621.735	13825.5
621.93	13506.01
622.125	13684.19
622.32	13217.25
622.515	13528.54
622.709	13325.79
622.904	13493.72
623.099	13184.48
623.294	13399.52
623.488	13213.15
623.683	13102.56
623.878	12793.32
624.072	12977.64
624.267	12656.11
624.462	12768.74
624.656	12565.99
624.851	12762.6
625.046	12406.25
625.24	12510.7
625.435	12422.64
625.629	12275.18
625.824	12367.34
626.018	12244.46
626.213	11982.32
626.407	12324.33
626.602	11949.56
626.796	11929.08
626.991	12023.28
627.185	11939.32
627.38	11861.49
627.574	11685.37
627.768	11558.39
627.963	11437.56
628.157	11488.76
628.352	11650.55
628.546	11132.42
628.74	11380.22
628.935	11230.72
629.129	11247.1
629.323	11277.82
629.517	11034.11
629.712	11087.36
629.906	11193.86
630.1	10843.65
630.294	10898.95
630.489	10657.29
630.683	10833.41
630.877	10550.79
631.071	10554.89
631.265	10585.61
631.459	10520.07
631.653	10436.11
631.848	10432.01
632.042	10415.63
632.236	10321.42
632.43	10194.45
632.624	10335.76
632.818	10137.1
633.012	9895.44
633.206	10075.66
633.4	10077.71
633.594	9885.2
633.788	10038.8
633.982	9666.07
634.176	9819.67
634.369	9778.71
634.563	9883.16
634.757	9549.34
634.951	9571.86
635.145	9463.32
635.339	9500.19
635.533	9475.61
635.726	9561.62
635.92	9287.2
636.114	9391.64
636.308	9274.91
636.501	9287.2
636.695	9279.01
636.889	8891.94
637.083	9092.64
637.276	8863.27
637.47	8920.61
637.664	8977.95
637.857	8912.42
638.051	8855.08
638.244	8605.22
638.438	8746.53
638.632	8746.53
638.825	8502.82
639.019	8715.81
639.212	8541.74
639.406	8705.57
639.599	8490.54
639.793	8369.71
639.986	8222.25
640.18	8320.56
640.373	8375.85
640.567	8199.73
640.76	8359.47
640.954	8080.94
641.147	8156.72
641.34	8123.95
641.534	8046.13
641.727	7937.59
641.92	8105.52
642.114	7956.02
642.307	7894.58
642.5	7939.63
642.694	7638.58
642.887	7816.76
643.08	7720.5
643.273	7603.77
643.467	7505.46
643.66	7444.03
643.853	7534.14
644.046	7745.08
644.239	7591.48
644.432	7360.06
644.626	7642.68
644.819	7417.4
645.012	7362.11
645.205	7327.29
645.398	7452.22
645.591	7163.45
645.784	7267.9
645.977	7122.49
646.17	7061.05
646.363	7013.95
646.556	6991.42
646.749	6934.08
646.942	6897.22
647.135	7030.34
647.328	6760
647.521	6874.69
647.714	6686.28
647.907	6778.44
648.099	6723.14
648.292	6870.59
648.485	6651.46
648.678	6643.27
648.871	6559.3
649.064	6608.45
649.256	6379.08
649.449	6544.97
649.642	6442.57
649.835	6411.85
650.027	6446.66
650.22	6317.64
650.413	6225.48
650.605	6248.01
650.798	6143.56
650.991	6329.93
651.183	6317.64
651.376	6151.76
651.568	6133.33
651.761	6159.95
651.954	6080.08
652.146	6104.65
652.339	5916.24
652.531	6166.09
652.724	5828.18
652.916	5916.24
653.109	5711.44
653.301	5799.51
653.494	5750.35
653.686	5801.55
653.879	5865.04
654.071	5584.47
654.263	5721.68
654.456	5637.72
654.648	5561.94
654.84	5609.05
655.033	5563.99
655.225	5443.16
655.417	5441.11
655.61	5428.82
655.802	5445.21
655.994	5377.62
656.186	5432.92
656.379	5371.48
656.571	5162.59
656.763	5324.38
656.955	5299.8
657.148	5303.9
657.34	5207.64
657.532	5191.26
657.724	5148.25
657.916	5107.29
658.108	5095
658.3	4927.07
658.492	5039.71
658.684	5111.39
658.876	5006.94
659.068	4986.46
659.26	4898.4
659.452	4963.93
659.644	4957.79
659.836	4712.03
660.028	4949.6
660.22	4806.24
660.412	4898.4
660.604	4763.23
660.796	4738.66
660.988	4683.36
661.18	4591.2
661.372	4595.3
661.563	4617.83
661.755	4591.2
661.947	4509.29
662.139	4568.68
662.331	4591.2
662.522	4540.01
662.714	4488.81
662.906	4353.64
663.097	4451.94
663.289	4486.76
663.481	4308.58
663.673	4437.61
663.864	4476.52
664.056	4345.45
664.247	4339.3
664.439	4206.19
664.631	4335.21
664.822	4357.74
665.014	4363.88
665.205	4154.99
665.397	4056.68
665.588	4263.53
665.78	4173.42
665.971	4122.22
666.163	4128.36
666.354	4107.88
666.546	4054.64
666.737	4021.87
666.929	3931.76
667.12	3970.67
667.311	3968.62
667.503	3870.32
667.694	3946.09
667.885	4034.16
668.077	3931.76
668.268	3831.41
668.459	3870.32
668.651	3911.28
668.842	3866.22
669.033	3778.16
669.224	3853.94
669.416	3819.12
669.607	3792.5
669.798	3665.52
669.989	3747.44
670.18	3737.2
670.371	3714.67
670.563	3665.52
670.754	3841.65
670.945	3743.35
671.136	3729.01
671.327	3487.35
671.518	3577.46
671.709	3681.91
671.9	3647.09
672.091	3567.22
672.282	3587.7
672.473	3583.6
672.664	3464.82
672.855	3513.97
673.046	3350.14
673.237	3554.93
673.428	3538.55
673.619	3427.96
673.809	3593.84
674	3378.81
674.191	3276.41
674.382	3337.85
674.573	3397.24
674.764	3397.24
674.954	3397.24
675.145	3319.42
675.336	3452.53
675.527	3389.05
675.717	3341.94
675.908	3337.85
676.099	3298.94
676.289	3221.11
676.48	3176.06
676.671	3126.91
676.861	3292.79
677.052	3200.63
677.243	3106.43
677.433	3202.68
677.624	3137.15
677.814	3137.15
678.005	3161.72
678.195	3131
678.386	3223.16
678.576	3141.24
678.767	3077.76
678.957	3038.84
679.148	3135.1
679.338	3108.48
679.529	3090.04
679.719	3169.91
679.909	3167.87
680.1	2954.88
680.29	3088
680.481	3042.94
680.671	2948.73
680.861	2915.97
681.052	2997.88
681.242	3065.47
681.432	2993.79
681.622	3071.61
681.813	2981.5
682.003	2963.07
682.193	2852.48
682.383	2842.24
682.573	2983.55
682.764	2924.16
682.954	2868.86
683.144	3063.42
683.334	2922.11
683.524	2930.3
683.714	2989.69
683.904	2858.62
684.094	2780.8
684.284	2862.72
684.474	2854.53
684.664	2733.7
684.854	2924.16
685.044	2827.9
685.234	2832
685.424	2862.72
685.614	2711.17
685.804	2782.85
685.994	2657.92
686.184	2862.72
686.374	2625.15
686.564	2694.79
686.753	2614.91
686.943	2655.87
687.133	2700.93
687.323	2641.54
687.513	2694.79
687.702	2686.59
687.892	2604.67
688.082	2610.82
688.272	2614.91
688.461	2637.44
688.651	2645.63
688.841	2584.2
689.03	2633.35
689.22	2496.13
689.41	2496.13
689.599	2498.18
689.789	2588.29
689.979	2547.33
690.168	2535.04
690.358	2385.54
690.547	2481.8
690.737	2479.75
690.926	2494.08
691.116	2422.41
691.305	2434.69
691.495	2432.65
691.684	2440.84
691.874	2358.92
692.063	2305.67
692.252	2379.4
692.442	2477.7
692.631	2246.28
692.82	2373.25
693.01	2317.96
693.199	2260.62
693.388	2258.57
693.578	2289.29
693.767	2307.72
693.956	2309.77
694.146	2233.99
694.335	2285.19
694.524	2256.52
694.713	2268.81
694.902	2152.07
695.092	2117.26
695.281	2168.46
695.47	2266.76
695.659	2305.67
695.848	2170.51
696.037	2133.64
696.226	2350.73
696.415	2256.52
696.604	2252.42
696.793	2133.64
696.982	2201.23
697.171	2244.23
697.36	2119.31
697.549	2139.79
697.738	2160.27
697.927	2117.26
698.116	2139.79
698.305	2193.03
698.494	2088.59
698.683	2229.9
698.872	2174.6
699.061	2090.63
699.25	2209.42
699.438	2029.2
699.627	1980.04
699.816	2152.07
700.005	2145.93
700.193	2047.63
700.382	2250.38
700.571	2133.64
700.76	2074.25
700.948	2047.63
701.137	2064.01
701.326	2074.25
701.514	2035.34
701.703	2215.56
701.892	1908.37
702.08	2145.93
702.269	2231.94
702.457	2049.68
702.646	1975.95
702.834	2088.59
703.023	2061.96
703.212	1990.28
703.4	2076.3
703.589	1984.14
703.777	2061.96
703.965	2119.31
704.154	2066.06
704.342	2023.05
704.531	2031.24
704.719	2059.92
704.907	2074.25
705.096	1932.94
705.284	2023.05
705.472	2051.72
705.661	1980.04
705.849	1922.7
706.037	2029.2
706.226	1949.32
706.414	1953.42
706.602	2012.81
706.79	2006.67
706.979	1955.47
707.167	2000.52
707.355	2109.07
707.543	1945.23
707.731	1914.51
707.919	1951.37
708.107	1875.6
708.296	1963.66
708.484	2012.81
708.672	1937.04
708.86	1986.19
709.048	1926.8
709.236	1900.17
709.424	1998.48
709.612	1900.17
709.8	1961.61
709.988	1926.8
710.176	2014.86
710.364	2014.86
710.551	1932.94
710.739	1994.38
710.927	2023.05
711.115	2023.05
711.303	1851.02
711.491	2045.58
711.679	1955.47
711.866	1949.32
712.054	2012.81
712.242	1959.56
712.43	1994.38
712.617	1957.52
712.805	1998.48
712.993	1998.48
713.181	2000.52
713.368	1912.46
713.556	1975.95
713.744	1947.28
713.931	2008.72
714.119	1908.37
714.306	1959.56
714.494	1934.99
714.682	1896.08
714.869	1934.99
715.057	1920.65
715.244	1879.69
715.432	1965.71
715.619	1955.47
715.807	2006.67
715.994	1889.93
716.182	1984.14
716.369	1930.89
716.556	1906.32
716.744	1760.91
716.931	1846.93
717.119	1986.19
717.306	1951.37
717.493	1836.69
717.681	1861.26
717.868	1824.4
718.055	1955.47
718.242	1844.88
718.43	1828.49
718.617	1955.47
718.804	1879.69
718.991	1810.06
719.179	1908.37
719.366	1928.85
719.553	1801.87
719.74	1840.78
719.927	1904.27
720.114	1775.25
720.301	1834.64
720.488	1896.08
720.676	1871.5
720.863	1887.89
721.05	1963.66
721.237	1699.47
721.424	1922.7
721.611	1879.69
721.798	1973.9
721.985	1771.15
722.172	1885.84
722.358	1805.97
722.545	1799.82
722.732	1887.89
722.919	1848.97
723.106	1816.21
723.293	1785.49
723.48	1855.12
723.667	1889.93
723.853	1762.96
724.04	1789.58
724.227	1883.79
724.414	1920.65
724.6	1812.11
724.787	1906.32
724.974	1777.3
725.161	1965.71
725.347	1803.92
725.534	1851.02
725.72	1986.19
725.907	1826.45
726.094	1826.45
726.28	1795.73
726.467	1816.21
726.653	1738.38
726.84	1932.94
727.027	1887.89
727.213	1777.3
727.4	1750.67
727.586	1699.47
727.773	1963.66
727.959	1810.06
728.145	1875.6
728.332	1795.73
728.518	1820.3
728.705	1785.49
728.891	1822.35
729.077	1842.83
729.264	1797.78
729.45	1830.54
729.636	1797.78
729.823	1826.45
730.009	1775.25
730.195	1812.11
730.382	1795.73
730.568	1758.86
730.754	1769.1
730.94	1740.43
731.126	1834.64
731.313	1736.34
731.499	1812.11
731.685	1730.19
731.871	1900.17
732.057	1740.43
732.243	1885.84
732.429	1754.77
732.615	1842.83
732.801	1812.11
732.987	1769.1
733.173	1775.25
733.359	1777.3
733.545	1740.43
733.731	1822.35
733.917	1715.86
734.103	1676.95
734.289	1861.26
734.475	1656.47
734.661	1812.11
734.847	1687.18
735.033	1881.74
735.219	1791.63
735.404	1711.76
735.59	1728.14
735.776	1685.14
735.962	1736.34
736.148	1732.24
736.333	1746.58
736.519	1756.82
736.705	1773.2
736.89	1758.86
737.076	1801.87
737.262	1646.23
737.447	1732.24
737.633	1724.05
737.819	1754.77
738.004	1607.31
738.19	1644.18
738.375	1666.71
738.561	1711.76
738.747	1777.3
738.932	1750.67
739.118	1691.28
739.303	1801.87
739.489	1719.95
739.674	1695.38
739.859	1670.8
740.045	1703.57
740.23	1777.3
740.416	1658.51
740.601	1676.95
740.786	1597.07
740.972	1719.95
741.157	1664.66
741.342	1672.85
741.528	1621.65
741.713	1707.66
741.898	1627.79
742.084	1644.18
742.269	1570.45
742.454	1687.18
742.639	1529.49
742.824	1566.35
743.01	1717.9
743.195	1623.7
743.38	1523.35
743.565	1539.73
743.75	1599.12
743.935	1656.47
744.12	1633.94
744.305	1547.92
744.49	1498.77
744.675	1523.35
744.86	1500.82
745.045	1453.72
745.23	1547.92
745.415	1472.15
745.6	1597.07
745.785	1613.46
745.97	1611.41
746.155	1498.77
746.34	1492.63
746.525	1406.61
746.71	1547.92
746.895	1478.29
747.079	1461.91
747.264	1377.94
747.449	1429.14
747.634	1455.76
747.819	1390.23
748.003	1466
748.188	1379.99
748.373	1394.33
748.557	1343.13
748.742	1375.89
748.927	1361.56
749.111	1296.02
749.296	1349.27
749.481	1332.89
749.665	1314.45
749.85	1339.03
750.034	1271.45
750.219	1216.15
750.404	1224.34
750.588	1377.94
750.773	1312.41
750.957	1289.88
751.141	1330.84
751.326	1291.93
751.51	1177.24
751.695	1302.17
751.879	1240.73
752.064	1207.96
752.248	1232.54
752.432	1191.58
752.617	1185.43
752.801	1181.34
752.985	1164.95
753.17	1173.14
753.354	1234.58
753.538	1175.19
753.722	1214.1
753.907	1220.25
754.091	1097.37
754.275	1103.51
754.459	1142.43
754.643	1195.67
754.828	1136.28
755.012	1044.12
755.196	1066.65
755.38	1126.04
755.564	1171.1
755.748	1050.27
755.932	990.88
756.116	990.88
756.3	966.3
756.484	1093.27
756.668	990.88
756.852	988.83
757.036	1058.46
757.22	1042.07
757.404	1031.83
757.588	1009.31
757.772	1060.51
757.956	1070.75
758.14	917.15
758.323	1023.64
758.507	1029.79
758.691	984.73
758.875	982.68
759.059	1052.31
759.242	970.4
759.426	974.49
759.61	921.24
759.794	947.87
759.977	994.97
760.161	954.01
760.345	863.9
760.528	974.49
760.712	976.54
760.895	988.83
761.079	941.72
761.263	784.03
761.446	945.82
761.63	906.91
761.813	931.48
761.997	876.19
762.18	784.03
762.364	941.72
762.547	792.22
762.731	863.9
762.914	878.24
763.098	870.05
763.281	841.37
763.464	876.19
763.648	865.95
763.831	806.56
764.015	747.17
764.198	931.48
764.381	929.44
764.564	814.75
764.748	814.75
764.931	792.22
765.114	755.36
765.297	857.76
765.481	827.04
765.664	738.98
765.847	706.21
766.03	847.52
766.213	667.3
766.397	757.41
766.58	835.23
766.763	792.22
766.946	720.54
767.129	872.09
767.312	732.83
767.495	757.41
767.678	837.28
767.861	761.5
768.044	679.58
768.227	806.56
768.41	730.78
768.593	751.26
768.776	763.55
768.959	738.98
769.142	804.51
769.324	788.13
769.507	706.21
769.69	671.39
769.873	738.98
770.056	779.93
770.239	716.45
770.421	689.82
770.604	761.5
770.787	681.63
770.97	757.41
771.152	677.54
771.335	734.88
771.518	661.15
771.7	749.22
771.883	779.93
772.066	585.38
772.248	663.2
772.431	650.91
772.613	657.06
772.796	648.86
772.978	644.77
773.161	732.83
773.343	655.01
773.526	689.82
773.708	560.8
773.891	652.96
774.073	708.26
774.256	632.48
774.438	628.39
774.621	675.49
774.803	630.43
774.985	605.86
775.168	632.48
775.35	587.43
775.532	605.86
775.715	609.95
775.897	667.3
776.079	538.27
776.261	587.43
776.444	577.19
776.626	661.15
776.808	571.04
776.99	560.8
777.173	528.03
777.355	525.99
777.537	634.53
777.719	566.95
777.901	564.9
778.083	478.88
778.265	532.13
778.447	593.57
778.629	487.08
778.811	480.93
778.993	521.89
779.175	507.55
779.357	591.52
779.539	509.6
779.721	525.99
779.903	485.03
780.085	548.51
780.267	474.79
780.449	525.99
780.631	415.4
780.812	497.32
780.994	478.88
781.176	501.41
781.358	454.31
781.54	458.4
781.721	378.53
781.903	458.4
782.085	442.02
782.267	482.98
782.448	427.68
782.63	482.98
782.812	356.01
782.993	577.19
783.175	425.64
783.357	433.83
783.538	417.44
783.72	376.48
783.901	423.59
784.083	444.07
784.264	419.49
784.446	409.25
784.627	376.48
784.809	378.53
784.99	382.63
785.172	458.4
785.353	372.39
785.535	364.2
785.716	450.21
785.897	347.81
786.079	321.19
786.26	384.68
786.441	345.77
786.623	394.92
786.804	331.43
786.985	358.05
787.167	364.2
787.348	366.25
787.529	335.53
787.71	345.77
787.891	302.76
788.073	394.92
788.254	345.77
788.435	327.33
788.616	427.68
788.797	331.43
788.978	310.95
789.159	325.29
789.34	323.24
789.522	317.09
789.703	331.43
789.884	335.53
790.065	360.1
790.246	425.64
790.427	327.33
790.607	284.33
790.788	325.29
790.969	249.51
791.15	339.62
791.331	364.2
791.512	329.38
791.693	329.38
791.874	329.38
792.054	335.53
792.235	337.57
792.416	284.33
792.597	337.57
792.778	222.89
792.958	339.62
793.139	339.62
793.32	241.32
793.5	276.13
793.681	339.62
793.862	276.13
794.042	286.37
794.223	257.7
794.404	368.29
794.584	177.83
794.765	243.37
794.945	226.98
795.126	290.47
795.306	282.28
795.487	206.5
795.667	257.7
795.848	188.07
796.028	257.7
796.209	212.65
796.389	290.47
796.57	235.18
796.75	272.04
796.93	155.3
797.111	229.03
797.291	241.32
797.471	263.85
797.652	284.33
797.832	218.79
798.012	224.94
798.192	188.07
798.373	224.94
798.553	284.33
798.733	241.32
798.913	296.61
799.093	233.13
799.274	249.51
799.454	282.28
799.634	282.28
799.814	241.32
799.994	194.22
800.174	308.9
800.354	241.32
800.534	226.98
800.714	272.04
800.894	149.16
801.074	255.65
801.254	218.79
801.434	198.31
801.614	204.46
801.794	181.93
801.974	525.99
802.154	192.17
802.334	181.93
802.514	194.22
802.693	173.74
802.873	173.74
803.053	259.75
803.233	167.59
803.413	173.74
803.592	229.03
803.772	218.79
803.952	169.64
804.131	179.88
804.311	143.02
804.491	210.6
804.67	138.92
804.85	167.59
805.03	204.46
805.209	200.36
805.389	155.3
805.568	161.45
805.748	186.02
805.928	210.6
806.107	212.65
806.287	200.36
806.466	212.65
806.646	151.21
806.825	224.94
807.004	188.07
807.184	120.49
807.363	208.55
807.543	179.88
807.722	71.34
807.901	163.5
808.081	194.22
808.26	126.63
808.439	222.89
808.619	226.98
808.798	161.45
808.977	218.79
809.156	151.21
809.336	95.91
809.515	186.02
809.694	145.06
809.873	110.25
810.052	186.02
810.231	134.82
810.411	157.35
810.59	212.65
810.769	134.82
810.948	95.91
811.127	114.34
811.306	212.65
811.485	161.45
811.664	214.7
811.843	46.76
812.022	83.63
812.201	130.73
812.38	89.77
812.559	87.72
812.737	151.21
812.916	79.53
813.095	204.46
813.274	106.15
813.453	218.79
813.632	212.65
813.811	167.59
813.989	83.63
814.168	194.22
814.347	93.87
814.526	212.65
814.704	173.74
814.883	165.54
815.062	183.98
815.24	153.26
815.419	57
815.598	145.06
815.776	81.58
815.955	200.36
816.133	136.87
816.312	151.21
816.49	71.34
816.669	118.44
816.847	175.78
817.026	106.15
817.204	114.34
817.383	87.72
817.561	95.91
817.74	112.3
817.918	104.11
818.097	114.34
818.275	120.49
818.453	130.73
818.632	126.63
818.81	151.21
818.988	157.35
819.167	83.63
819.345	93.87
819.523	155.3
819.701	114.34
819.879	159.4
820.058	122.54
820.236	83.63
820.414	77.48
820.592	87.72
820.77	100.01
820.948	112.3
821.127	102.06
821.305	106.15
821.483	100.01
821.661	116.39
821.839	85.67
822.017	140.97
822.195	97.96
822.373	120.49
822.551	124.58
822.729	57
822.907	155.3
823.085	151.21
823.262	73.39
823.44	140.97
823.618	79.53
823.796	5.8
823.974	57
824.152	52.91
824.329	44.71
824.507	120.49
824.685	134.82
824.863	138.92
825.04	30.38
825.218	106.15
825.396	155.3
825.574	67.24
825.751	110.25
825.929	11.95
826.107	65.19
826.284	67.24
826.462	79.53
826.639	100.01
826.817	87.72
826.994	48.81
827.172	102.06
827.349	128.68
827.527	155.3
827.704	130.73
827.882	130.73
828.059	122.54
828.237	89.77
828.414	93.87
828.591	97.96
828.769	106.15
828.946	114.34
829.124	77.48
829.301	122.54
829.478	157.35
829.655	-2.39
829.833	75.43
830.01	30.38
830.187	77.48
830.364	59.05
830.542	106.15
830.719	73.39
830.896	114.34
831.073	32.43
831.25	163.5
831.427	124.58
831.604	95.91
831.782	38.57
831.959	153.26
832.136	65.19
832.313	120.49
832.49	61.1
832.667	124.58
832.844	36.52
833.021	87.72
833.198	130.73
833.374	81.58
833.551	40.62
833.728	67.24
833.905	110.25
834.082	134.82
834.259	79.53
834.436	151.21
834.612	54.95
834.789	114.34
834.966	151.21
835.143	59.05
835.319	54.95
835.496	73.39
835.673	65.19
835.85	36.52
836.026	95.91
836.203	67.24
836.38	42.67
836.556	110.25
836.733	71.34
836.909	118.44
837.086	87.72
837.262	63.15
837.439	93.87
837.616	-47.44
837.792	75.43
837.968	48.81
838.145	130.73
838.321	46.76
838.498	93.87
838.674	18.09
838.851	118.44
839.027	28.33
839.203	108.2
839.38	61.1
839.556	54.95
839.732	128.68
839.909	54.95
840.085	93.87
840.261	48.81
840.437	87.72
840.614	28.33
840.79	83.63
840.966	93.87
841.142	-4.44
841.318	63.15
841.494	112.3
841.671	114.34
841.847	44.71
842.023	81.58
842.199	114.34
842.375	106.15
842.551	11.95
842.727	11.95
842.903	128.68
843.079	50.86
843.255	75.43
843.431	34.47
843.607	67.24
843.783	-10.58
843.959	67.24
844.134	46.76
844.31	85.67
844.486	48.81
844.662	85.67
844.838	40.62
845.013	57
845.189	120.49
845.365	93.87
845.541	34.47
845.716	77.48
845.892	85.67
846.068	61.1
846.244	61.1
846.419	81.58
846.595	36.52
846.77	9.9
846.946	69.29
847.122	81.58
847.297	38.57
847.473	54.95
847.648	36.52
847.824	65.19
847.999	34.47
848.175	128.68
848.35	104.11
848.526	126.63
848.701	7.85
848.876	85.67
849.052	69.29
849.227	73.39
849.403	59.05
849.578	81.58
849.753	1.71
849.929	77.48
850.104	161.45
850.279	48.81
850.454	59.05
850.63	54.95
850.805	-4.44
850.98	57
851.155	59.05
851.33	-18.77
851.505	5.8
851.681	28.33
851.856	-0.34
852.031	67.24
852.206	28.33
852.381	32.43
852.556	1.71
852.731	91.82
852.906	71.34
853.081	110.25
853.256	73.39
853.431	73.39
853.606	20.14
853.781	95.91
853.956	3.75
854.131	42.67
854.305	52.91
854.48	42.67
854.655	-16.73
854.83	40.62
855.005	54.95
855.18	67.24
855.354	50.86
855.529	69.29
855.704	-26.96
855.879	30.38
856.053	-14.68
856.228	-18.77
856.403	26.28
856.577	-31.06
856.752	34.47
856.926	24.23
857.101	-4.44
857.276	-8.53
857.45	48.81
857.625	143.02
857.799	77.48
857.974	61.1
858.148	-24.92
858.323	50.86
858.497	28.33
858.672	93.87
858.846	73.39
859.02	46.76
859.195	-47.44
859.369	85.67
859.543	54.95
859.718	22.19
859.892	22.19
860.066	50.86
860.241	28.33
860.415	26.28
860.589	38.57
860.763	69.29
860.938	120.49
861.112	18.09
861.286	9.9
861.46	112.3
861.634	42.67
861.808	36.52
861.982	30.38
862.157	73.39
862.331	22.19
862.505	48.81
862.679	7.85
862.853	20.14
863.027	54.95
863.201	100.01
863.375	-10.58
863.549	93.87
863.722	-31.06
863.896	71.34
864.07	61.1
864.244	67.24
864.418	7.85
864.592	93.87
864.766	-35.16
864.939	-12.63
865.113	44.71
865.287	-18.77
865.461	32.43
865.634	65.19
865.808	9.9
865.982	42.67
866.156	34.47
866.329	-29.01
866.503	-31.06
866.676	-59.73
866.85	87.72
867.024	22.19
867.197	16.04
867.371	57
867.544	-10.58
867.718	59.05
867.891	57
868.065	91.82
868.238	81.58
868.412	7.85
868.585	24.23
868.759	38.57
868.932	36.52
869.105	38.57
869.279	48.81
869.452	7.85
869.625	-59.73
869.799	128.68
869.972	57
870.145	26.28
870.319	85.67
870.492	-6.49
870.665	-24.92
870.838	3.75
871.011	-2.39
871.185	-37.2
871.358	32.43
871.531	-4.44
871.704	59.05
871.877	44.71
872.05	61.1
872.223	-26.96
872.396	40.62
872.569	16.04
872.742	63.15
872.915	110.25
873.088	-24.92
873.261	48.81
873.434	1.71
873.607	3.75
873.78	54.95
873.953	-41.3
874.126	28.33
874.299	89.77
874.471	-18.77
874.644	36.52
874.817	18.09
874.99	48.81
875.163	13.99
875.335	-45.4
875.508	-4.44
875.681	77.48
875.853	28.33
876.026	54.95
876.199	57
876.371	100.01
876.544	-45.4
876.717	34.47
876.889	9.9
877.062	32.43
877.234	-8.53
877.407	61.1
877.579	16.04
877.752	-2.39
877.924	-24.92
878.097	18.09
878.269	30.38
878.442	40.62
878.614	5.8
878.786	34.47
878.959	-22.87
879.131	-41.3
879.303	75.43
879.476	26.28
879.648	16.04
879.82	34.47
879.993	59.05
880.165	24.23
880.337	-16.73
880.509	11.95
880.681	3.75
880.854	16.04
881.026	54.95
881.198	38.57
881.37	-76.12
881.542	61.1
881.714	22.19
881.886	24.23
882.058	106.15
882.23	71.34
882.402	-22.87
882.574	-0.34
882.746	73.39
882.918	83.63
883.09	65.19
883.262	-4.44
883.434	46.76
883.606	-39.25
883.778	-35.16
883.95	71.34
884.122	24.23
884.293	81.58
884.465	42.67
884.637	79.53
884.809	-29.01
884.98	28.33
885.152	26.28
885.324	32.43
885.496	-47.44
885.667	-35.16
885.839	-4.44
886.011	52.91
886.182	30.38
886.354	-0.34
886.525	-29.01
886.697	61.1
886.869	-8.53
887.04	-0.34
887.212	54.95
887.383	57
887.555	-10.58
887.726	-39.25
887.897	20.14
888.069	-4.44
888.24	44.71
888.412	-4.44
888.583	-24.92
888.754	26.28
888.926	-37.2
889.097	9.9
889.268	18.09
889.44	44.71
889.611	-24.92
889.782	44.71
889.953	-16.73
890.125	89.77
890.296	38.57
890.467	-65.88
890.638	-22.87
890.809	30.38
890.98	3.75
891.151	61.1
891.323	20.14
891.494	48.81
891.665	28.33
891.836	28.33
892.007	-24.92
892.178	69.29
892.349	-24.92
892.52	20.14
892.691	87.72
892.862	-8.53
893.032	16.04
893.203	16.04
893.374	-18.77
893.545	5.8
893.716	-57.68
893.887	5.8
894.057	50.86
894.228	100.01
894.399	54.95
894.57	30.38
894.74	13.99
894.911	26.28
895.082	3.75
895.253	34.47
895.423	20.14
895.594	97.96
895.764	38.57
895.935	11.95
896.106	36.52
896.276	87.72
896.447	54.95
896.617	44.71
896.788	30.38
896.958	79.53
897.129	52.91
897.299	40.62
897.47	20.14
897.64	32.43
897.81	50.86
897.981	46.76
898.151	50.86
898.322	50.86
898.492	-14.68
898.662	30.38
898.832	-24.92
899.003	-4.44
899.173	1.71
899.343	44.71
899.513	-12.63
