Data from USB4F104151__139__11-07-58-373.txt Node

Date: Wed Mar 12 11:07:58 EDT 2025
User: louis
Spectrometer: USB4F10415
Trigger mode: 4
Integration Time (sec): 2.000000E-2
Scans to average: 1
Electric dark correction enabled: true
Nonlinearity correction enabled: false
Boxcar width: 0
XAxis mode: Wavelengths
Number of Pixels in Spectrum: 3648
>>>>>Begin Spectral Data<<<<<
178.204	-19.29
178.424	-19.29
178.644	-19.29
178.864	-170.83
179.084	-129.88
179.304	5.29
179.524	-19.29
179.744	9.39
179.964	-17.24
180.184	33.96
180.404	-35.67
180.624	27.82
180.844	25.77
181.064	-25.43
181.283	17.58
181.503	-9.05
181.723	-13.14
181.943	7.34
182.163	46.25
182.383	21.67
182.602	-11.09
182.822	50.35
183.042	42.15
183.262	-19.29
183.482	17.58
183.701	-7
183.921	11.43
184.141	64.68
184.361	23.72
184.58	-9.05
184.8	-9.05
185.02	23.72
185.239	-9.05
185.459	9.39
185.679	122.02
185.898	3.24
186.118	13.48
186.338	62.63
186.557	21.67
186.777	-41.81
186.997	54.44
187.216	-39.76
187.436	29.87
187.655	25.77
187.875	17.58
188.095	76.97
188.314	15.53
188.534	-31.57
188.753	-84.82
188.973	25.77
189.192	21.67
189.412	-19.29
189.631	-33.62
189.851	1.19
190.07	27.82
190.29	36.01
190.509	11.43
190.729	-0.85
190.948	7.34
191.168	128.17
191.387	27.82
191.607	31.91
191.826	-13.14
192.045	-4.95
192.265	60.59
192.484	-25.43
192.704	-7
192.923	-19.29
193.142	21.67
193.362	38.06
193.581	54.44
193.8	-4.95
194.02	42.15
194.239	-41.81
194.458	-23.38
194.678	-23.38
194.897	-58.2
195.116	29.87
195.335	-68.44
195.555	-4.95
195.774	11.43
195.993	64.68
196.212	-37.72
196.432	-4.95
196.651	-4.95
196.87	68.78
197.089	107.69
197.308	-4.95
197.528	17.58
197.747	19.63
197.966	27.82
198.185	-0.85
198.404	40.11
198.623	23.72
198.842	-41.81
199.062	33.96
199.281	42.15
199.5	36.01
199.719	31.91
199.938	15.53
200.157	-43.86
200.376	19.63
200.595	74.92
200.814	27.82
201.033	-11.09
201.252	7.34
201.471	25.77
201.69	7.34
201.909	23.72
202.128	117.93
202.347	-31.57
202.566	29.87
202.785	-21.33
203.004	-13.14
203.223	76.97
203.442	56.49
203.661	44.2
203.879	-21.33
204.098	40.11
204.317	-31.57
204.536	25.77
204.755	1.19
204.974	27.82
205.193	36.01
205.411	-4.95
205.63	23.72
205.849	31.91
206.068	33.96
206.287	-13.14
206.505	7.34
206.724	-21.33
206.943	46.25
207.162	-2.9
207.381	13.48
207.599	23.72
207.818	9.39
208.037	56.49
208.255	-39.76
208.474	-29.52
208.693	5.29
208.911	40.11
209.13	3.24
209.349	52.39
209.567	42.15
209.786	-11.09
210.005	40.11
210.223	-25.43
210.442	7.34
210.661	72.87
210.879	40.11
211.098	36.01
211.316	-7
211.535	13.48
211.753	27.82
211.972	1.19
212.191	33.96
212.409	3.24
212.628	44.2
212.846	-43.86
213.065	68.78
213.283	85.16
213.502	-7
213.72	-2.9
213.938	3.24
214.157	27.82
214.375	-0.85
214.594	-47.96
214.812	11.43
215.031	40.11
215.249	42.15
215.467	25.77
215.686	52.39
215.904	50.35
216.122	11.43
216.341	101.55
216.559	-19.29
216.778	40.11
216.996	15.53
217.214	1.19
217.432	50.35
217.651	23.72
217.869	115.88
218.087	-15.19
218.306	21.67
218.524	-15.19
218.742	1.19
218.96	3.24
219.179	42.15
219.397	62.63
219.615	89.26
219.833	44.2
220.051	-29.52
220.27	11.43
220.488	9.39
220.706	17.58
220.924	25.77
221.142	52.39
221.36	9.39
221.578	-4.95
221.796	64.68
222.015	-62.29
222.233	7.34
222.451	-27.48
222.669	-45.91
222.887	-9.05
223.105	1.19
223.323	52.39
223.541	-0.85
223.759	58.54
223.977	46.25
224.195	-2.9
224.413	-41.81
224.631	3.24
224.849	38.06
225.067	68.78
225.285	-86.87
225.503	48.3
225.721	-84.82
225.939	52.39
226.157	33.96
226.375	89.26
226.592	27.82
226.81	-2.9
227.028	68.78
227.246	36.01
227.464	-0.85
227.682	56.49
227.9	29.87
228.117	-4.95
228.335	-25.43
228.553	23.72
228.771	31.91
228.989	42.15
229.206	76.97
229.424	-17.24
229.642	-17.24
229.86	25.77
230.077	13.48
230.295	1.19
230.513	64.68
230.731	-9.05
230.948	38.06
231.166	52.39
231.384	-0.85
231.601	38.06
231.819	48.3
232.037	-9.05
232.254	-27.48
232.472	17.58
232.689	-35.67
232.907	89.26
233.125	13.48
233.342	40.11
233.56	3.24
233.777	11.43
233.995	13.48
234.213	58.54
234.43	29.87
234.648	29.87
234.865	66.73
235.083	-0.85
235.3	52.39
235.518	-11.09
235.735	60.59
235.953	-31.57
236.17	44.2
236.388	-0.85
236.605	29.87
236.822	38.06
237.04	27.82
237.257	9.39
237.475	-11.09
237.692	72.87
237.909	27.82
238.127	5.29
238.344	60.59
238.562	36.01
238.779	-62.29
238.996	19.63
239.214	33.96
239.431	81.07
239.648	9.39
239.865	31.91
240.083	17.58
240.3	-17.24
240.517	7.34
240.735	19.63
240.952	9.39
241.169	9.39
241.386	1.19
241.603	11.43
241.821	36.01
242.038	-0.85
242.255	-7
242.472	-15.19
242.689	-7
242.907	13.48
243.124	64.68
243.341	-9.05
243.558	-17.24
243.775	62.63
243.992	44.2
244.209	38.06
244.426	17.58
244.643	25.77
244.86	19.63
245.078	-15.19
245.295	60.59
245.512	-19.29
245.729	21.67
245.946	15.53
246.163	-58.2
246.38	25.77
246.597	-4.95
246.814	83.11
247.031	56.49
247.248	46.25
247.464	5.29
247.681	44.2
247.898	40.11
248.115	31.91
248.332	23.72
248.549	93.35
248.766	19.63
248.983	68.78
249.2	9.39
249.417	31.91
249.633	70.83
249.85	21.67
250.067	-17.24
250.284	-23.38
250.501	83.11
250.717	85.16
250.934	-4.95
251.151	-4.95
251.368	31.91
251.585	-4.95
251.801	-0.85
252.018	-0.85
252.235	-33.62
252.451	-4.95
252.668	3.24
252.885	-9.05
253.102	93.35
253.318	-31.57
253.535	-23.38
253.752	36.01
253.968	70.83
254.185	19.63
254.401	-19.29
254.618	23.72
254.835	-11.09
255.051	-13.14
255.268	36.01
255.484	56.49
255.701	38.06
255.917	17.58
256.134	19.63
256.351	38.06
256.567	44.2
256.784	27.82
257	-2.9
257.217	-2.9
257.433	31.91
257.65	5.29
257.866	70.83
258.082	-4.95
258.299	33.96
258.515	5.29
258.732	27.82
258.948	-4.95
259.165	54.44
259.381	-70.48
259.597	9.39
259.814	60.59
260.03	-37.72
260.246	11.43
260.463	21.67
260.679	17.58
260.895	19.63
261.112	-50
261.328	-74.58
261.544	-23.38
261.761	-4.95
261.977	33.96
262.193	-17.24
262.409	62.63
262.626	-25.43
262.842	36.01
263.058	38.06
263.274	25.77
263.49	64.68
263.707	5.29
263.923	99.5
264.139	19.63
264.355	38.06
264.571	38.06
264.787	97.45
265.004	25.77
265.22	64.68
265.436	-70.48
265.652	25.77
265.868	42.15
266.084	-15.19
266.3	48.3
266.516	23.72
266.732	19.63
266.948	11.43
267.164	-39.76
267.38	31.91
267.596	83.11
267.812	-58.2
268.028	74.92
268.244	52.39
268.46	27.82
268.676	25.77
268.892	-15.19
269.108	11.43
269.324	-58.2
269.54	48.3
269.756	5.29
269.972	33.96
270.188	23.72
270.403	-37.72
270.619	54.44
270.835	-0.85
271.051	-41.81
271.267	3.24
271.483	52.39
271.698	-15.19
271.914	70.83
272.13	25.77
272.346	-4.95
272.562	-25.43
272.777	50.35
272.993	5.29
273.209	-21.33
273.425	54.44
273.64	23.72
273.856	-37.72
274.072	-56.15
274.287	-47.96
274.503	19.63
274.719	42.15
274.934	19.63
275.15	11.43
275.366	29.87
275.581	-0.85
275.797	25.77
276.012	74.92
276.228	-13.14
276.444	56.49
276.659	-0.85
276.875	-4.95
277.09	-27.48
277.306	1.19
277.521	50.35
277.737	-25.43
277.952	-0.85
278.168	42.15
278.383	31.91
278.599	7.34
278.814	58.54
279.03	17.58
279.245	58.54
279.461	-31.57
279.676	21.67
279.892	54.44
280.107	23.72
280.322	-25.43
280.538	64.68
280.753	-39.76
280.969	1.19
281.184	36.01
281.399	27.82
281.615	54.44
281.83	42.15
282.045	-4.95
282.26	-11.09
282.476	-37.72
282.691	27.82
282.906	56.49
283.122	17.58
283.337	-37.72
283.552	48.3
283.767	36.01
283.983	54.44
284.198	-41.81
284.413	56.49
284.628	46.25
284.843	50.35
285.058	66.73
285.274	36.01
285.489	60.59
285.704	-39.76
285.919	-4.95
286.134	95.4
286.349	5.29
286.564	56.49
286.779	31.91
286.995	17.58
287.21	-23.38
287.425	36.01
287.64	60.59
287.855	1.19
288.07	-62.29
288.285	52.39
288.5	72.87
288.715	54.44
288.93	21.67
289.145	-25.43
289.36	42.15
289.575	25.77
289.79	15.53
290.004	9.39
290.219	54.44
290.434	-35.67
290.649	58.54
290.864	44.2
291.079	36.01
291.294	27.82
291.509	-13.14
291.724	25.77
291.938	-29.52
292.153	-33.62
292.368	-7
292.583	68.78
292.798	-13.14
293.012	9.39
293.227	36.01
293.442	9.39
293.657	7.34
293.871	17.58
294.086	-0.85
294.301	38.06
294.516	68.78
294.73	29.87
294.945	1.19
295.16	46.25
295.374	25.77
295.589	79.02
295.804	70.83
296.018	7.34
296.233	60.59
296.447	60.59
296.662	5.29
296.877	5.29
297.091	33.96
297.306	38.06
297.52	66.73
297.735	33.96
297.949	52.39
298.164	36.01
298.378	7.34
298.593	13.48
298.807	-13.14
299.022	-60.24
299.236	107.69
299.451	52.39
299.665	58.54
299.88	-29.52
300.094	-9.05
300.309	46.25
300.523	1.19
300.737	17.58
300.952	-60.24
301.166	15.53
301.381	3.24
301.595	-60.24
301.809	48.3
302.024	46.25
302.238	-4.95
302.452	-4.95
302.667	48.3
302.881	93.35
303.095	64.68
303.309	7.34
303.524	-0.85
303.738	3.24
303.952	19.63
304.166	95.4
304.381	9.39
304.595	13.48
304.809	-13.14
305.023	40.11
305.237	11.43
305.452	-13.14
305.666	23.72
305.88	31.91
306.094	-9.05
306.308	7.34
306.522	-11.09
306.736	27.82
306.95	19.63
307.164	-15.19
307.379	17.58
307.593	50.35
307.807	42.15
308.021	87.21
308.235	-9.05
308.449	23.72
308.663	83.11
308.877	81.07
309.091	44.2
309.305	40.11
309.519	-0.85
309.733	60.59
309.947	1.19
310.161	89.26
310.374	-0.85
310.588	99.5
310.802	13.48
311.016	-4.95
311.23	38.06
311.444	-50
311.658	42.15
311.872	15.53
312.085	-39.76
312.299	62.63
312.513	11.43
312.727	40.11
312.941	52.39
313.154	-4.95
313.368	42.15
313.582	-27.48
313.796	11.43
314.009	56.49
314.223	40.11
314.437	-11.09
314.651	-23.38
314.864	58.54
315.078	40.11
315.292	-19.29
315.505	7.34
315.719	-15.19
315.933	5.29
316.146	36.01
316.36	3.24
316.573	-9.05
316.787	52.39
317.001	19.63
317.214	-35.67
317.428	13.48
317.641	-29.52
317.855	-35.67
318.068	15.53
318.282	33.96
318.495	40.11
318.709	89.26
318.922	40.11
319.136	101.55
319.349	19.63
319.563	-15.19
319.776	44.2
319.99	52.39
320.203	76.97
320.417	-19.29
320.63	11.43
320.843	27.82
321.057	25.77
321.27	36.01
321.483	7.34
321.697	38.06
321.91	36.01
322.124	70.83
322.337	-21.33
322.55	21.67
322.763	15.53
322.977	11.43
323.19	9.39
323.403	52.39
323.617	-2.9
323.83	13.48
324.043	-11.09
324.256	-25.43
324.469	-13.14
324.683	48.3
324.896	-7
325.109	72.87
325.322	38.06
325.535	29.87
325.748	36.01
325.962	-25.43
326.175	52.39
326.388	3.24
326.601	23.72
326.814	60.59
327.027	-33.62
327.24	87.21
327.453	-66.39
327.666	46.25
327.879	93.35
328.092	19.63
328.305	27.82
328.518	3.24
328.731	17.58
328.944	-23.38
329.157	122.02
329.37	29.87
329.583	15.53
329.796	70.83
330.009	-70.48
330.222	74.92
330.435	-15.19
330.648	1.19
330.861	81.07
331.073	23.72
331.286	52.39
331.499	101.55
331.712	15.53
331.925	29.87
332.138	-7
332.35	3.24
332.563	46.25
332.776	-2.9
332.989	36.01
333.202	27.82
333.414	17.58
333.627	11.43
333.84	52.39
334.053	27.82
334.265	115.88
334.478	72.87
334.691	11.43
334.903	-41.81
335.116	38.06
335.329	58.54
335.541	60.59
335.754	89.26
335.966	48.3
336.179	31.91
336.392	-7
336.604	60.59
336.817	81.07
337.029	74.92
337.242	21.67
337.454	62.63
337.667	3.24
337.88	124.07
338.092	7.34
338.305	17.58
338.517	48.3
338.729	68.78
338.942	56.49
339.154	15.53
339.367	-2.9
339.579	23.72
339.792	-19.29
340.004	19.63
340.217	25.77
340.429	1.19
340.641	13.48
340.854	64.68
341.066	48.3
341.278	-41.81
341.491	44.2
341.703	-15.19
341.915	1.19
342.128	-31.57
342.34	48.3
342.552	-13.14
342.764	99.5
342.977	-13.14
343.189	19.63
343.401	33.96
343.613	1.19
343.826	44.2
344.038	3.24
344.25	74.92
344.462	7.34
344.674	33.96
344.886	19.63
345.099	33.96
345.311	79.02
345.523	-0.85
345.735	-37.72
345.947	-7
346.159	33.96
346.371	-19.29
346.583	7.34
346.795	70.83
347.007	-58.2
347.219	54.44
347.431	101.55
347.643	72.87
347.855	3.24
348.067	-2.9
348.279	25.77
348.491	-0.85
348.703	64.68
348.915	-31.57
349.127	-9.05
349.339	23.72
349.551	9.39
349.763	27.82
349.975	21.67
350.187	19.63
350.399	87.21
350.61	58.54
350.822	1.19
351.034	62.63
351.246	-0.85
351.458	31.91
351.669	21.67
351.881	11.43
352.093	46.25
352.305	79.02
352.517	70.83
352.728	70.83
352.94	9.39
353.152	23.72
353.363	-41.81
353.575	29.87
353.787	7.34
353.999	132.26
354.21	72.87
354.422	31.91
354.633	72.87
354.845	25.77
355.057	-13.14
355.268	13.48
355.48	72.87
355.692	70.83
355.903	-35.67
356.115	-21.33
356.326	-45.91
356.538	81.07
356.749	54.44
356.961	-15.19
357.172	44.2
357.384	7.34
357.595	27.82
357.807	36.01
358.018	68.78
358.23	17.58
358.441	132.26
358.653	31.91
358.864	-45.91
359.075	44.2
359.287	54.44
359.498	44.2
359.709	81.07
359.921	29.87
360.132	66.73
360.344	-2.9
360.555	38.06
360.766	25.77
360.977	48.3
361.189	52.39
361.4	-9.05
361.611	87.21
361.823	103.59
362.034	50.35
362.245	-27.48
362.456	21.67
362.667	46.25
362.879	-35.67
363.09	58.54
363.301	27.82
363.512	81.07
363.723	-35.67
363.935	5.29
364.146	52.39
364.357	-25.43
364.568	54.44
364.779	48.3
364.99	1.19
365.201	56.49
365.412	68.78
365.623	-39.76
365.834	50.35
366.045	105.64
366.256	33.96
366.467	42.15
366.678	68.78
366.889	-4.95
367.1	11.43
367.311	33.96
367.522	-0.85
367.733	-0.85
367.944	58.54
368.155	38.06
368.366	66.73
368.577	-2.9
368.788	19.63
368.999	-2.9
369.209	50.35
369.42	50.35
369.631	17.58
369.842	76.97
370.053	19.63
370.264	72.87
370.474	-9.05
370.685	36.01
370.896	38.06
371.107	21.67
371.317	19.63
371.528	83.11
371.739	38.06
371.95	15.53
372.16	72.87
372.371	42.15
372.582	23.72
372.792	33.96
373.003	25.77
373.214	17.58
373.424	29.87
373.635	46.25
373.846	27.82
374.056	19.63
374.267	79.02
374.477	81.07
374.688	38.06
374.898	21.67
375.109	-29.52
375.319	70.83
375.53	36.01
375.74	-62.29
375.951	25.77
376.161	79.02
376.372	27.82
376.582	48.3
376.793	130.22
377.003	70.83
377.214	-13.14
377.424	134.31
377.635	68.78
377.845	66.73
378.055	29.87
378.266	23.72
378.476	23.72
378.686	87.21
378.897	52.39
379.107	-2.9
379.317	13.48
379.528	13.48
379.738	-19.29
379.948	48.3
380.158	93.35
380.369	-41.81
380.579	64.68
380.789	36.01
380.999	89.26
381.21	15.53
381.42	66.73
381.63	46.25
381.84	17.58
382.05	76.97
382.261	74.92
382.471	21.67
382.681	46.25
382.891	66.73
383.101	60.59
383.311	44.2
383.521	44.2
383.731	-21.33
383.941	40.11
384.151	66.73
384.361	21.67
384.571	91.31
384.781	-9.05
384.991	60.59
385.201	36.01
385.411	54.44
385.621	44.2
385.831	54.44
386.041	44.2
386.251	19.63
386.461	-11.09
386.671	83.11
386.881	91.31
387.091	54.44
387.301	50.35
387.511	27.82
387.72	25.77
387.93	5.29
388.14	40.11
388.35	62.63
388.56	27.82
388.769	62.63
388.979	54.44
389.189	66.73
389.399	33.96
389.609	-25.43
389.818	-43.86
390.028	-9.05
390.238	105.64
390.447	13.48
390.657	101.55
390.867	54.44
391.076	52.39
391.286	42.15
391.496	36.01
391.705	25.77
391.915	23.72
392.125	58.54
392.334	1.19
392.544	91.31
392.753	52.39
392.963	27.82
393.172	60.59
393.382	50.35
393.591	103.59
393.801	52.39
394.01	60.59
394.22	54.44
394.429	25.77
394.639	33.96
394.848	85.16
395.058	44.2
395.267	105.64
395.477	25.77
395.686	50.35
395.895	185.51
396.105	99.5
396.314	68.78
396.524	124.07
396.733	99.5
396.942	52.39
397.152	93.35
397.361	109.74
397.57	52.39
397.78	85.16
397.989	52.39
398.198	144.55
398.407	93.35
398.617	103.59
398.826	140.46
399.035	91.31
399.244	105.64
399.453	11.43
399.663	64.68
399.872	81.07
400.081	66.73
400.29	83.11
400.499	66.73
400.708	109.74
400.917	36.01
401.127	50.35
401.336	54.44
401.545	150.7
401.754	36.01
401.963	83.11
402.172	44.2
402.381	107.69
402.59	68.78
402.799	109.74
403.008	103.59
403.217	138.41
403.426	119.98
403.635	72.87
403.844	124.07
404.053	72.87
404.262	109.74
404.471	89.26
404.68	142.5
404.888	109.74
405.097	85.16
405.306	111.78
405.515	115.88
405.724	64.68
405.933	107.69
406.142	142.5
406.35	152.74
406.559	107.69
406.768	138.41
406.977	191.66
407.185	105.64
407.394	181.42
407.603	193.7
407.812	187.56
408.02	193.7
408.229	167.08
408.438	265.38
408.646	208.04
408.855	228.52
409.064	244.9
409.272	218.28
409.481	228.52
409.69	208.04
409.898	210.09
410.107	304.29
410.315	251.05
410.524	232.62
410.733	246.95
410.941	261.29
411.15	310.44
411.358	253.09
411.567	273.57
411.775	314.53
411.984	363.69
412.192	402.6
412.401	392.36
412.609	382.12
412.818	404.64
413.026	347.3
413.234	394.4
413.443	328.87
413.651	439.46
413.86	429.22
414.068	396.45
414.276	390.31
414.485	414.88
414.693	496.8
414.901	535.71
415.11	601.25
415.318	515.23
415.526	543.91
415.734	550.05
415.943	580.77
416.151	613.54
416.359	576.67
416.567	666.78
416.776	666.78
416.984	756.9
417.192	746.66
417.4	826.53
417.608	765.09
417.817	865.44
418.025	834.72
418.233	873.63
418.441	904.35
418.649	967.84
418.857	988.32
419.065	961.69
419.273	978.08
419.481	890.01
419.689	998.56
419.897	1160.34
420.105	1186.97
420.313	1236.12
420.521	1133.72
420.729	1242.26
420.937	1272.98
421.145	1422.48
421.353	1387.67
421.561	1528.98
421.769	1582.23
421.977	1518.74
422.185	1539.22
422.393	1627.28
422.601	1694.86
422.809	1827.98
423.017	1887.37
423.224	1840.27
423.432	1903.76
423.64	1973.39
423.848	2143.37
424.056	2055.31
424.263	2139.27
424.471	2262.15
424.679	2237.58
424.887	2475.14
425.094	2364.55
425.302	2413.7
425.51	2477.19
425.718	2595.97
425.925	2675.84
426.133	2686.08
426.341	2948.22
426.548	3038.33
426.756	3015.8
426.964	2933.89
427.171	3196.03
427.379	3308.66
427.586	3390.58
427.794	3488.89
428.001	3615.86
428.209	3828.85
428.417	3552.37
428.624	3964.01
428.832	4099.18
429.039	4088.94
429.247	3972.21
429.454	4478.05
429.662	4623.46
429.869	4367.46
430.076	4678.76
430.284	4512.87
430.491	4904.03
430.699	5008.48
430.906	5213.28
431.114	4973.66
431.321	5287
431.528	5459.03
431.736	5690.45
431.943	5960.78
432.15	5827.67
432.358	5772.37
432.565	6014.03
432.772	6009.93
432.979	6458.44
433.187	6390.86
433.394	6665.28
433.601	7009.34
433.808	7136.32
434.016	7052.35
434.223	7334.97
434.43	7797.81
434.637	7615.54
434.844	8117.29
435.052	8244.27
435.259	8166.45
435.466	8297.52
435.673	8338.48
435.88	8817.7
436.087	9327.64
436.294	9237.53
436.501	8965.15
436.708	9194.53
436.915	9514.01
437.122	10128.4
437.329	10073.1
437.537	10226.7
437.743	10386.44
437.95	10152.98
438.157	10908.68
438.364	11439.1
438.571	11156.48
438.778	11379.71
438.985	12424.17
439.192	11934.71
439.399	12454.89
439.606	12037.11
439.813	12671.98
440.02	13454.3
440.227	13177.83
440.433	13063.14
440.64	13650.91
440.847	13456.35
441.054	13831.13
441.261	14547.92
441.467	14476.24
441.674	14617.55
441.881	15233.99
442.088	14873.54
442.294	14896.07
442.501	15514.56
442.708	15836.09
442.914	16421.81
443.121	16911.27
443.328	16692.14
443.534	17886.11
443.741	17060.77
443.948	16966.57
444.154	18426.77
444.361	18051.99
444.568	18312.08
444.774	18074.52
444.981	18512.78
445.187	19069.83
445.394	20104.06
445.6	19602.3
445.807	21787.49
446.013	20491.12
446.22	21068.65
446.426	21914.46
446.633	22051.67
446.839	22631.25
447.046	21562.21
447.252	22936.4
447.459	23087.95
447.665	23042.89
447.871	23825.22
448.078	24967.98
448.284	23915.33
448.491	24517.43
448.697	25637.67
448.903	25719.59
449.11	25836.32
449.316	25486.12
449.522	25785.12
449.728	26589.97
449.935	26723.09
450.141	26694.42
450.347	27069.2
450.553	26897.17
450.76	27226.89
450.966	27734.79
451.172	27466.5
451.378	27900.67
451.584	26972.94
451.791	28422.9
451.997	28205.82
452.203	28332.79
452.409	28277.5
452.615	28666.61
452.821	27368.2
453.027	27194.12
453.233	28398.33
453.44	27210.51
453.646	27499.27
453.852	27867.91
454.058	28072.7
454.264	26948.37
454.47	27808.51
454.676	27230.99
454.882	27898.62
455.088	25731.87
455.294	25592.61
455.5	26243.87
455.705	26594.07
455.911	25410.34
456.117	25109.29
456.323	24771.38
456.529	23368.52
456.735	24304.44
456.941	23667.52
457.147	23003.98
457.352	22924.11
457.558	22149.98
457.764	22795.09
457.97	21939.04
458.176	21121.9
458.381	21521.25
458.587	20315
458.793	20224.89
458.999	19739.52
459.204	20837.23
459.41	20317.04
459.616	18836.36
459.821	18903.95
460.027	19018.63
460.233	18537.36
460.438	17429.41
460.644	18121.62
460.85	16905.13
461.055	16718.76
461.261	16651.18
461.466	15623.1
461.672	15094.72
461.878	16018.36
462.083	15104.96
462.289	14877.64
462.494	14549.96
462.7	13886.42
462.905	13605.85
463.111	14117.84
463.316	14105.56
463.522	13865.94
463.727	13775.83
463.932	13794.26
464.138	13517.79
464.343	13650.91
464.549	13370.33
464.754	13841.37
464.959	13497.31
465.165	13571.04
465.37	12964.84
465.575	12297.2
465.781	13325.28
465.986	13102.05
466.191	12854.25
466.397	12491.76
466.602	11985.91
466.807	12381.17
467.012	12803.05
467.218	12348.4
467.423	11969.52
467.628	12372.97
467.833	12874.73
468.038	12268.53
468.244	12006.39
468.449	12303.34
468.654	11875.32
468.859	11832.31
469.064	11838.45
469.269	11697.14
469.474	11316.22
469.679	11607.03
469.885	11273.21
470.09	11469.82
470.295	11408.38
470.5	11181.06
470.705	11320.32
470.91	10826.76
471.115	10759.17
471.32	11201.54
471.525	11066.37
471.73	10933.25
471.935	10789.89
472.139	10310.67
472.344	10353.68
472.549	10279.95
472.754	10343.44
472.959	9946.13
473.164	9870.36
473.369	9831.44
473.574	10052.63
473.778	9813.01
473.983	9980.95
474.188	9671.7
474.393	9157.66
474.598	9421.85
474.802	9335.84
475.007	9221.15
475.212	9268.25
475.417	8971.3
475.621	9075.74
475.826	8961.06
476.031	8799.27
476.235	8737.83
476.44	8772.64
476.645	8592.42
476.849	8563.75
477.054	8612.9
477.259	8307.76
477.463	8395.82
477.668	8254.51
477.872	8371.24
478.077	8248.36
478.282	8016.94
478.486	7947.31
478.691	7900.21
478.895	7765.04
479.1	7855.15
479.304	7765.04
479.509	7722.04
479.713	7863.35
479.918	7470.14
480.122	7343.16
480.326	7457.85
480.531	7650.36
480.735	7459.9
480.94	7552.06
481.144	7629.88
481.348	7337.02
481.553	7404.6
481.757	7298.11
481.961	7406.65
482.166	7273.53
482.37	7164.99
482.574	7124.03
482.778	7300.16
482.983	7402.55
483.187	7361.59
483.391	7359.55
483.595	7224.38
483.8	7273.53
484.004	7208
484.208	7296.06
484.412	7351.35
484.616	7474.23
484.821	7259.2
485.025	7066.69
485.229	7224.38
485.433	7152.7
485.637	7402.55
485.841	7199.8
486.045	7304.25
486.249	7216.19
486.453	7312.44
486.657	7119.93
486.861	7371.83
487.065	7107.65
487.269	7332.92
487.473	7038.02
487.677	7359.55
487.881	7353.4
488.085	7195.71
488.289	7341.11
488.493	7179.33
488.697	7312.44
488.901	7199.8
489.105	7248.96
489.309	7601.21
489.512	7369.79
489.716	7347.26
489.92	7228.48
490.124	7459.9
490.328	7398.46
490.531	7412.79
490.735	7527.48
490.939	7511.1
491.143	7482.42
491.346	7457.85
491.55	7429.18
491.754	7588.92
491.958	7623.73
492.161	7613.49
492.365	7646.26
492.569	7599.16
492.772	7666.74
492.976	7808.05
493.18	7806
493.383	7928.88
493.587	7869.49
493.79	8076.34
493.994	8074.29
494.197	8135.73
494.401	8168.49
494.605	8231.98
494.808	8256.56
495.012	8373.29
495.215	8215.6
495.419	8408.11
495.622	8248.36
495.825	8479.79
496.029	8553.51
496.232	8649.77
496.436	8717.35
496.639	9022.5
496.843	8864.8
497.046	9100.32
497.249	9124.9
497.453	9147.42
497.656	9229.34
497.859	9112.61
498.063	9589.78
498.266	9663.51
498.469	9505.82
498.673	9563.16
498.876	9679.89
499.079	10062.87
499.282	9856.02
499.485	10325.01
499.689	10314.77
499.892	10406.92
500.095	10447.88
500.298	10664.97
500.501	10486.79
500.705	10875.91
500.908	10830.85
501.111	11004.93
501.314	11074.56
501.517	11209.73
501.72	11400.19
501.923	11301.89
502.126	11774.97
502.329	11846.65
502.532	11924.47
502.735	11873.27
502.938	12162.03
503.141	12264.43
503.344	12467.18
503.547	12332.01
503.75	12631.02
503.953	12872.68
504.156	12745.7
504.359	12934.12
504.562	13151.2
504.765	13341.66
504.968	13550.56
505.17	13695.96
505.373	13716.44
505.576	13923.29
505.779	13941.72
505.982	14185.43
506.185	14529.48
506.387	14666.7
506.59	14717.9
506.793	15104.96
506.996	14808.01
507.198	15446.97
507.401	15188.93
507.604	15444.93
507.807	16012.21
508.009	15791.03
508.212	15750.07
508.415	16333.75
508.617	16370.61
508.82	16665.52
509.022	16546.73
509.225	16985
509.428	17107.88
509.63	17189.8
509.833	17351.59
510.035	17546.14
510.238	17531.81
510.44	17836.95
510.643	17937.3
510.845	18275.22
511.048	18174.87
511.25	18705.29
511.453	18686.86
511.655	19209.09
511.858	19225.48
512.06	19245.96
512.262	19469.19
512.465	19614.59
512.667	19835.77
512.87	19880.83
513.072	20009.85
513.274	20560.75
513.477	20740.97
513.679	21080.94
513.881	20931.44
514.084	21238.63
514.286	21336.93
514.488	21468
514.69	22053.72
514.893	22025.05
515.095	22168.41
515.297	22578
515.499	22586.19
515.701	23085.9
515.904	23503.68
516.106	23098.19
516.308	23788.35
516.51	23690.05
516.712	23778.11
516.914	24474.42
517.116	24808.24
517.318	24605.49
517.52	24994.61
517.722	24847.15
517.925	25146.15
518.127	25531.17
518.329	25903.9
518.531	25817.89
518.733	26157.85
518.935	26426.14
519.136	26596.12
519.338	26964.75
519.54	27241.23
519.742	27642.63
519.944	27505.41
520.146	27874.05
520.348	28185.34
520.55	28179.2
520.752	28427
520.954	28721.91
521.155	28547.83
521.357	29240.04
521.559	29342.44
521.761	30153.44
521.963	29868.77
522.164	29909.73
522.366	29719.27
522.568	30683.86
522.77	30579.42
522.971	31183.57
523.173	30802.64
523.375	31249.1
523.576	31042.26
523.778	31468.23
523.98	31830.72
524.181	31931.08
524.383	32080.58
524.584	32668.34
524.786	32555.71
524.988	32862.9
525.189	33163.95
525.391	33211.06
525.592	32989.88
525.794	33460.91
525.995	33727.14
526.197	33610.41
526.398	33766.06
526.6	34417.31
526.801	34431.65
527.003	34486.94
527.204	34644.63
527.406	34632.35
527.607	34818.71
527.808	34554.52
528.01	34443.93
528.211	34984.6
528.412	35510.92
528.614	35682.95
528.815	35474.06
529.016	35611.28
529.218	35508.88
529.419	35627.66
529.62	35838.6
529.822	35793.54
530.023	35887.75
530.224	35975.81
530.425	36029.06
530.626	36110.98
530.828	36104.84
531.029	36938.36
531.23	36242.05
531.431	36045.44
531.632	36340.35
531.833	36672.12
532.035	36758.14
532.236	36817.53
532.437	36704.89
532.638	36485.76
532.839	36829.82
533.04	37270.13
533.241	36612.73
533.442	37214.83
533.643	37460.59
533.844	37177.97
534.045	37130.87
534.246	36717.18
534.447	37243.51
534.648	37184.12
534.849	37167.73
535.05	37409.39
535.251	36999.8
535.451	37190.26
535.652	37599.85
535.853	37245.55
536.054	37575.28
536.255	37233.27
536.456	37532.27
536.657	37941.86
536.857	37137.01
537.058	37323.38
537.259	37632.62
537.46	37489.26
537.66	37370.48
537.861	37769.83
538.062	37587.57
538.263	37491.31
538.463	37347.95
538.664	37663.34
538.865	37853.8
539.065	37468.78
539.266	37038.71
539.466	38003.3
539.667	37190.26
539.868	37687.92
540.068	37499.5
540.269	37646.96
540.469	37911.14
540.67	37339.76
540.87	37526.13
541.071	37755.5
541.271	37595.76
541.472	37503.6
541.672	37757.55
541.873	37368.43
542.073	37171.83
542.274	37843.56
542.474	37268.08
542.675	37395.06
542.875	37845.61
543.075	37642.86
543.276	37261.94
543.476	37550.7
543.676	37022.33
543.877	37419.63
544.077	37401.2
544.277	37888.62
544.478	37429.87
544.678	37712.49
544.878	37737.07
545.078	37474.93
545.279	37016.18
545.479	37546.61
545.679	37655.15
545.879	37382.77
546.079	37483.12
546.28	37352.05
546.48	37247.6
546.68	37618.28
546.88	37591.66
547.08	37276.27
547.28	37546.61
547.48	37108.34
547.68	37397.1
547.88	37225.07
548.081	37567.09
548.281	37810.79
548.481	37450.35
548.681	37724.78
548.881	37190.26
549.081	37331.57
549.28	37231.22
549.48	37571.18
549.68	37495.41
549.88	38005.35
550.08	37016.18
550.28	37489.26
550.48	37466.73
550.68	37735.02
550.88	37450.35
551.08	37261.94
551.279	37667.44
551.479	36962.93
551.679	37470.83
551.879	37069.43
552.079	37634.67
552.278	37120.63
552.478	37192.31
552.678	37231.22
552.878	37540.46
553.077	37436.02
553.277	37249.65
553.477	37708.4
553.676	36934.26
553.876	37165.68
554.076	36823.67
554.275	36893.3
554.475	36414.08
554.674	37143.16
554.874	37104.24
555.074	36942.45
555.273	36905.59
555.473	37296.75
555.672	36715.13
555.872	36835.96
556.071	36921.98
556.271	37132.92
556.47	36651.64
556.67	36674.17
556.869	36760.19
557.068	37003.89
557.268	36491.9
557.467	36366.98
557.667	36612.73
557.866	36491.9
558.065	36700.79
558.265	36399.74
558.464	35867.27
558.663	36612.73
558.863	35951.24
559.062	36778.62
559.261	35887.75
559.461	36547.2
559.66	35922.57
559.859	36199.04
560.058	35996.29
560.258	35785.35
560.457	35699.34
560.656	36002.44
560.855	35601.04
561.054	36125.32
561.253	35625.61
561.453	35502.73
561.652	35998.34
561.851	35793.54
562.05	35504.78
562.249	35351.18
562.448	35441.29
562.647	35588.75
562.846	34978.45
563.045	35445.39
563.244	35175.06
563.443	35732.11
563.642	34722.46
563.841	34951.83
564.04	34607.77
564.239	35345.04
564.438	34101.92
564.637	34460.32
564.836	34828.95
565.035	34558.62
565.234	35087
565.432	34251.42
565.631	34329.25
565.83	34517.66
566.029	34013.86
566.228	34183.84
566.427	34247.33
566.625	33817.25
566.824	33485.48
567.023	34099.87
567.222	33319.6
567.42	33788.58
567.619	33503.92
567.818	33350.32
568.016	33442.48
568.215	33682.09
568.414	33567.4
568.612	33401.52
568.811	32930.48
569.01	33254.06
569.208	32412.35
569.407	33122.99
569.605	32752.31
569.804	32875.19
570.002	32457.4
570.201	32752.31
570.4	32404.16
570.598	32281.28
570.797	31670.98
570.995	32395.96
571.193	31908.55
571.392	32142.02
571.59	31795.91
571.789	32051.91
571.987	31939.27
572.186	31826.63
572.384	31515.34
572.582	31519.43
572.781	31328.97
572.979	31474.38
573.177	31560.39
573.376	31625.93
573.574	30870.23
573.772	31199.95
573.971	30905.04
574.169	30579.42
574.367	30675.67
574.565	30933.71
574.763	30819.03
574.962	30558.94
575.16	30151.39
575.358	30773.97
575.556	30147.29
575.754	30743.25
575.952	29836
576.151	30550.74
576.349	29795.04
576.547	29784.8
576.745	30077.66
576.943	30089.95
577.141	29467.37
577.339	30094.05
577.537	29569.77
577.735	29600.49
577.933	29315.82
578.131	29651.69
578.329	29604.58
578.527	29215.47
578.725	29487.85
578.923	29391.59
579.121	28920.56
579.319	29133.55
579.516	29340.39
579.714	29020.91
579.912	29027.06
580.11	28547.83
580.308	28769.01
580.506	28478.2
580.704	28132.09
580.901	28590.84
581.099	28893.94
581.297	28412.67
581.495	28398.33
581.692	28187.39
581.89	28168.96
582.088	28328.7
582.285	28027.65
582.483	28037.89
582.681	27882.24
582.878	27814.66
583.076	27519.75
583.274	28048.13
583.471	27503.37
583.669	27564.81
583.866	27276.04
584.064	27796.23
584.262	26925.84
584.459	27308.81
584.657	27087.63
584.854	27175.69
585.052	26573.59
585.249	26899.22
585.447	27220.75
585.644	26557.21
585.841	26721.04
586.039	26682.13
586.236	26448.66
586.434	26532.63
586.631	26417.94
586.828	26544.92
587.026	26450.71
587.223	26235.67
587.42	26133.28
587.618	26379.03
587.815	25961.25
588.012	25987.87
588.21	25860.9
588.407	26393.37
588.604	25762.59
588.801	25522.98
588.999	25502.5
589.196	25361.19
589.393	25514.79
589.59	25391.91
589.787	25553.7
589.984	25299.75
590.182	24845.1
590.379	25248.55
590.576	24967.98
590.773	25232.17
590.97	24732.47
591.167	24550.2
591.364	24591.16
591.561	24795.95
591.758	24605.49
591.955	24496.95
592.152	24601.4
592.349	24453.94
592.546	24535.86
592.743	24347.45
592.94	23964.48
593.137	24394.55
593.334	24187.71
593.531	24281.91
593.727	24152.89
593.924	24212.28
594.121	23958.33
594.318	24030.01
594.515	23540.55
594.712	23843.65
594.908	23526.21
595.105	23360.33
595.302	23401.29
595.499	23792.45
595.696	23219.02
595.892	22928.2
596.089	23204.68
596.286	23038.8
596.482	23053.13
596.679	23114.57
596.876	23192.39
597.072	22799.18
597.269	22979.4
597.466	22743.89
597.662	22745.94
597.859	22805.33
598.055	22690.64
598.252	22756.18
598.448	22365.01
598.645	22397.78
598.841	22434.64
599.038	22461.27
599.234	22283.09
599.431	22088.54
599.627	22084.44
599.824	22037.34
600.02	21844.83
600.217	21781.34
600.413	21807.97
600.609	21689.18
600.806	21752.67
601.002	21963.61
601.198	21478.24
601.395	21498.72
601.591	21377.89
601.787	21437.28
601.984	21316.45
602.18	21590.88
602.376	21302.12
602.572	21048.17
602.769	20949.87
602.965	21039.98
603.161	20927.34
603.357	20751.21
603.553	20743.02
603.75	20808.56
603.946	20849.52
604.142	20712.3
604.338	20462.45
604.534	20804.46
604.73	20118.39
604.926	20423.54
605.122	20495.22
605.318	20167.54
605.514	20183.93
605.71	20255.61
605.906	20185.97
606.102	20222.84
606.298	20059
606.494	19966.84
606.69	20433.78
606.886	20288.37
607.082	19751.81
607.278	19792.76
607.474	19395.46
607.67	19747.71
607.866	19493.76
608.062	19874.68
608.257	19583.87
608.453	19536.77
608.649	19667.84
608.845	19647.36
609.041	19571.58
609.236	19284.87
609.432	19250.05
609.628	19411.84
609.824	19078.02
610.019	18932.62
610.215	19348.36
610.411	19301.25
610.606	19248
610.802	19094.41
610.998	18850.7
611.193	18813.84
611.389	19166.09
611.584	18654.09
611.78	18807.69
611.976	19075.98
612.171	18889.61
612.367	18996.1
612.562	18711.44
612.758	18387.86
612.953	18367.38
613.149	18682.77
613.344	18330.51
613.539	18844.56
613.735	18590.61
613.93	18748.3
614.126	18447.25
614.321	18525.07
614.517	18434.96
614.712	18469.78
614.907	18336.66
615.103	18504.59
615.298	18295.7
615.493	18645.9
615.688	18176.92
615.884	18617.23
616.079	18031.51
616.274	18332.56
616.47	18008.98
616.665	18041.75
616.86	18031.51
617.055	18103.19
617.25	17816.47
617.445	18039.7
617.641	17839
617.836	17916.83
618.031	17390.5
618.226	17597.34
618.421	17615.77
618.616	17666.97
618.811	17392.55
619.006	17732.51
619.201	17181.6
619.396	17228.71
619.591	17167.27
619.786	17591.2
619.981	16769.96
620.176	17241
620.371	16974.76
620.566	17122.21
620.761	17208.23
620.956	17138.6
621.151	16651.18
621.346	17157.03
621.541	16501.68
621.735	16849.83
621.93	16282.55
622.125	16571.31
622.32	16223.16
622.515	16403.38
622.709	15983.54
622.904	16204.72
623.099	15705.02
623.294	16063.41
623.488	15860.66
623.683	15928.25
623.878	15553.47
624.072	15578.04
624.267	15651.77
624.462	15305.67
624.656	15367.1
624.851	15395.78
625.046	15356.86
625.24	15115.2
625.435	15168.45
625.629	14994.37
625.824	14959.56
626.018	14990.28
626.213	14529.48
626.407	14982.09
626.602	14646.22
626.796	14666.7
626.991	14701.51
627.185	14457.81
627.38	14224.34
627.574	14218.19
627.768	14154.71
627.963	14351.31
628.157	13931.48
628.352	13972.44
628.546	13829.08
628.74	13851.61
628.935	13755.35
629.129	13876.18
629.323	13460.45
629.517	13566.94
629.712	13525.98
629.906	13429.73
630.1	13474.78
630.294	13276.13
630.489	13323.23
630.683	13312.99
630.877	13034.47
631.071	12915.69
631.265	13063.14
631.459	12831.72
631.653	12940.26
631.848	12628.97
632.042	12581.87
632.236	12520.43
632.43	12618.73
632.624	12522.48
632.818	12418.03
633.012	12286.96
633.206	12317.68
633.4	12469.23
633.594	12299.25
633.788	12170.22
633.982	12323.82
634.176	12147.7
634.369	11811.83
634.563	11873.27
634.757	11738.1
634.951	11901.94
635.145	11686.9
635.339	11783.16
635.533	11592.7
635.726	11686.9
635.92	11506.68
636.114	11467.77
636.308	11482.11
636.501	11394.04
636.695	11375.61
636.889	11258.88
637.083	11056.13
637.276	11041.79
637.47	11113.47
637.664	11076.61
637.857	11037.7
638.051	10843.14
638.244	10720.26
638.438	10847.24
638.632	10793.99
638.825	10757.13
639.019	10701.83
639.212	10628.1
639.406	10724.36
639.599	10335.24
639.793	10517.51
639.986	10120.21
640.18	10132.5
640.373	10333.2
640.567	10114.06
640.76	10284.05
640.954	10032.15
641.147	9833.49
641.34	9925.65
641.534	9839.64
641.727	9915.41
641.92	9847.83
642.114	9677.85
642.307	9612.31
642.5	9815.06
642.694	9700.37
642.887	9425.95
643.08	9559.06
643.273	9536.54
643.467	9446.43
643.66	9229.34
643.853	9223.2
644.046	9135.14
644.239	9317.4
644.432	9100.32
644.626	9120.8
644.819	9081.89
645.012	9022.5
645.205	8975.39
645.398	9079.84
645.591	8743.97
645.784	9036.83
645.977	8629.29
646.17	8737.83
646.363	8553.51
646.556	8688.68
646.749	8561.7
646.942	8582.18
647.135	8543.27
647.328	8514.6
647.521	8412.2
647.714	8391.72
647.907	8342.57
648.099	8367.15
648.292	8125.49
648.485	8270.89
648.678	8074.29
648.871	8229.93
649.064	8010.8
649.256	8164.4
649.449	7969.84
649.642	7963.7
649.835	7947.31
650.027	7750.71
650.22	7791.67
650.413	7842.87
650.605	7806
650.798	7924.79
650.991	7752.76
651.183	7732.28
651.376	7576.63
651.568	7681.08
651.761	7416.89
651.954	7400.51
652.146	7486.52
652.339	7365.69
652.531	7355.45
652.724	7410.75
652.916	7271.48
653.109	7269.44
653.301	7113.79
653.494	7263.29
653.686	7085.12
653.879	7171.13
654.071	7046.21
654.263	7154.75
654.456	7093.31
654.648	6915.14
654.84	6939.71
655.033	6956.1
655.225	6906.95
655.417	6794.31
655.61	6825.03
655.802	6931.52
655.994	6718.53
656.186	6679.62
656.379	6673.48
656.571	6679.62
656.763	6483.02
656.955	6476.87
657.148	6489.16
657.34	6597.7
657.532	6616.13
657.724	6540.36
657.916	6564.93
658.108	6364.23
658.3	6378.57
658.492	6343.75
658.684	6407.24
658.876	6247.5
659.068	6327.37
659.26	6130.77
659.452	6216.78
659.644	6110.29
659.836	6218.83
660.028	6184.01
660.22	6173.77
660.412	6046.8
660.604	6102.09
660.796	6048.85
660.988	6059.09
661.18	5774.42
661.372	5864.53
661.563	5940.3
661.755	5895.25
661.947	5768.27
662.139	5872.72
662.331	5563.48
662.522	5751.89
662.714	5739.6
662.906	5721.17
663.097	5655.64
663.289	5608.53
663.481	5508.18
663.673	5600.34
663.864	5454.94
664.056	5395.54
664.247	5532.76
664.439	5373.02
664.631	5471.32
664.822	5295.19
665.014	5416.02
665.205	5311.58
665.397	5192.8
665.588	5227.61
665.78	5252.19
665.971	5082.21
666.163	5373.02
666.354	5086.3
666.546	5020.77
666.737	5086.3
666.929	4916.32
667.12	5024.86
667.311	5192.8
667.503	5043.29
667.694	4988
667.885	4928.61
668.077	5037.15
668.268	4795.49
668.459	4965.47
668.651	4899.94
668.842	4924.51
669.033	4787.3
669.224	4852.83
669.416	4787.3
669.607	4879.46
669.798	4701.28
669.989	4703.33
670.18	4582.5
670.371	4691.04
670.563	4652.13
670.754	4637.8
670.945	4686.95
671.136	4678.76
671.327	4504.68
671.518	4570.21
671.709	4602.98
671.9	4717.67
672.091	4484.2
672.282	4465.77
672.473	4502.63
672.664	4459.62
672.855	4525.16
673.046	4486.25
673.237	4346.98
673.428	4394.09
673.619	4500.58
673.809	4312.17
674	4389.99
674.191	4273.26
674.382	4322.41
674.573	4379.75
674.764	4334.7
674.954	4349.03
675.145	4326.5
675.336	4316.26
675.527	4119.66
675.717	4293.74
675.908	4199.53
676.099	4080.75
676.289	4244.59
676.48	4127.85
676.671	4078.7
676.861	4101.23
677.052	4080.75
677.243	3935.34
677.433	4123.76
677.624	4109.42
677.814	4109.42
678.005	4154.48
678.195	3955.82
678.386	4000.88
678.576	4174.95
678.767	4066.41
678.957	3982.45
679.148	4090.99
679.338	3994.73
679.529	3961.97
679.719	3984.49
679.909	3988.59
680.1	3929.2
680.29	3935.34
680.481	3896.43
680.671	3826.8
680.861	3894.38
681.052	3906.67
681.242	3929.2
681.432	3996.78
681.622	3794.03
681.813	3892.34
682.003	3863.66
682.193	3728.5
682.383	3787.89
682.573	3837.04
682.764	3726.45
682.954	3755.12
683.144	3798.13
683.334	3779.7
683.524	3654.77
683.714	3656.82
683.904	3624.05
684.094	3654.77
684.284	3583.09
684.474	3742.83
684.664	3560.56
684.854	3581.04
685.044	3597.43
685.234	3589.24
685.424	3476.6
685.614	3654.77
685.804	3665.01
685.994	3599.48
686.184	3570.8
686.374	3630.2
686.564	3538.04
686.753	3548.28
686.943	3517.56
687.133	3529.84
687.323	3501.17
687.513	3431.54
687.702	3476.6
687.892	3370.1
688.082	3411.06
688.272	3402.87
688.461	3449.97
688.651	3429.49
688.841	3402.87
689.03	3415.16
689.22	3308.66
689.41	3419.25
689.599	3296.38
689.789	3429.49
689.979	3351.67
690.168	3456.12
690.358	3286.14
690.547	3277.94
690.737	3243.13
690.926	3304.57
691.116	3253.37
691.305	3288.18
691.495	3124.35
691.684	3136.63
691.874	3198.07
692.063	3218.55
692.252	3062.91
692.442	3226.75
692.631	3163.26
692.82	3122.3
693.01	3122.3
693.199	2997.37
693.388	3048.57
693.578	3052.67
693.767	3224.7
693.956	2952.32
694.146	3028.09
694.335	3030.14
694.524	3005.56
694.713	3126.39
694.902	3083.39
695.092	2964.61
695.281	2901.12
695.47	2880.64
695.659	3112.06
695.848	2886.78
696.037	3069.05
696.226	3003.52
696.415	2964.61
696.604	3056.76
696.793	2995.32
696.982	3001.47
697.171	2978.94
697.36	2983.04
697.549	3040.38
697.738	2929.79
697.927	2958.46
698.116	3042.43
698.305	2983.04
698.494	2944.13
698.683	3040.38
698.872	3017.85
699.061	2931.84
699.25	2978.94
699.438	2950.27
699.627	2993.28
699.816	2989.18
700.005	2858.11
700.193	3089.53
700.382	2890.88
700.571	2913.41
700.76	2980.99
700.948	2950.27
701.137	2950.27
701.326	2821.25
701.514	2927.74
701.703	2884.73
701.892	2851.97
702.08	3021.95
702.269	2989.18
702.457	2978.94
702.646	2899.07
702.834	2858.11
703.023	2864.25
703.212	2966.65
703.4	2933.89
703.589	2874.49
703.777	2890.88
703.965	2815.1
704.154	2974.85
704.342	2841.73
704.531	2825.34
704.719	2874.49
704.907	2827.39
705.096	2968.7
705.284	2794.62
705.472	2862.21
705.661	2831.49
705.849	2968.7
706.037	2913.41
706.226	2888.83
706.414	2952.32
706.602	2884.73
706.79	2966.65
706.979	2878.59
707.167	2919.55
707.355	2864.25
707.543	2868.35
707.731	2970.75
707.919	2880.64
708.107	2776.19
708.296	2731.14
708.484	2835.58
708.672	2718.85
708.86	2845.82
709.048	2886.78
709.236	2780.29
709.424	2821.25
709.612	2727.04
709.8	2841.73
709.988	2710.66
710.176	2915.45
710.364	2882.69
710.551	2747.52
710.739	2776.19
710.927	2870.4
711.115	2870.4
711.303	2829.44
711.491	2835.58
711.679	2776.19
711.866	2821.25
712.054	2735.23
712.242	2784.38
712.43	2800.77
712.617	2729.09
712.805	2755.71
712.993	2702.47
713.181	2841.73
713.368	2710.66
713.556	2899.07
713.744	2747.52
713.931	2862.21
714.119	2804.86
714.306	2811.01
714.494	2792.58
714.682	2833.54
714.869	2747.52
715.057	2632.83
715.244	2696.32
715.432	2688.13
715.619	2694.27
715.807	2686.08
715.994	2786.43
716.182	2817.15
716.369	2776.19
716.556	2706.56
716.744	2735.23
716.931	2714.75
717.119	2788.48
717.306	2819.2
717.493	2731.14
717.681	2696.32
717.868	2733.18
718.055	2636.93
718.242	2751.62
718.43	2759.81
718.617	2686.08
718.804	2847.87
718.991	2698.37
719.179	2620.55
719.366	2661.51
719.553	2796.67
719.74	2651.27
719.927	2626.69
720.114	2677.89
720.301	2643.07
720.488	2671.75
720.676	2643.07
720.863	2747.52
721.05	2698.37
721.237	2708.61
721.424	2778.24
721.611	2647.17
721.798	2696.32
721.985	2579.59
722.172	2702.47
722.358	2614.4
722.545	2681.99
722.732	2704.51
722.919	2747.52
723.106	2626.69
723.293	2638.98
723.48	2579.59
723.667	2540.68
723.853	2626.69
724.04	2561.16
724.227	2626.69
724.414	2589.83
724.6	2643.07
724.787	2673.79
724.974	2466.95
725.161	2567.3
725.347	2647.17
725.534	2563.2
725.72	2692.23
725.907	2438.28
726.094	2567.3
726.28	2552.96
726.467	2641.03
726.653	2628.74
726.84	2598.02
727.027	2526.34
727.213	2495.62
727.4	2616.45
727.586	2579.59
727.773	2509.96
727.959	2593.92
728.145	2677.89
728.332	2507.91
728.518	2653.31
728.705	2526.34
728.891	2534.53
729.077	2583.68
729.264	2602.11
729.45	2571.4
729.636	2665.6
729.823	2624.64
730.009	2667.65
730.195	2643.07
730.382	2620.55
730.568	2552.96
730.754	2573.44
730.94	2610.31
731.126	2591.88
731.313	2604.16
731.499	2585.73
731.685	2559.11
731.871	2598.02
732.057	2563.2
732.243	2591.88
732.429	2638.98
732.615	2567.3
732.801	2548.87
732.987	2483.33
733.173	2493.57
733.359	2514.05
733.545	2522.24
733.731	2536.58
733.917	2444.42
734.103	2528.39
734.289	2555.01
734.475	2403.46
734.661	2544.77
734.847	2403.46
735.033	2610.31
735.219	2514.05
735.404	2407.56
735.59	2493.57
735.776	2456.71
735.962	2483.33
736.148	2491.52
736.333	2460.81
736.519	2522.24
736.705	2364.55
736.89	2462.85
737.076	2546.82
737.262	2421.89
737.447	2444.42
737.633	2378.89
737.819	2440.33
738.004	2370.69
738.19	2540.68
738.375	2442.37
738.561	2452.61
738.747	2458.76
738.932	2346.12
739.118	2382.98
739.303	2294.92
739.489	2436.23
739.674	2362.5
739.859	2407.56
740.045	2358.41
740.23	2413.7
740.416	2364.55
740.601	2397.32
740.786	2389.13
740.972	2292.87
741.157	2393.22
741.342	2219.14
741.528	2403.46
741.713	2264.2
741.898	2229.38
742.084	2280.58
742.269	2192.52
742.454	2223.24
742.639	2149.51
742.824	2190.47
743.01	2161.8
743.195	2182.28
743.38	2258.06
743.565	2256.01
743.75	2229.38
743.935	2184.33
744.12	2204.81
744.305	2210.95
744.49	2219.14
744.675	2147.47
744.86	2088.07
745.045	2147.47
745.23	2079.88
745.415	2036.88
745.6	2204.81
745.785	2114.7
745.97	2213
746.155	2153.61
746.34	2094.22
746.525	2122.89
746.71	2108.55
746.895	2028.68
747.079	2014.35
747.264	1920.14
747.449	2057.36
747.634	1903.76
747.819	1977.48
748.003	1924.24
748.188	1858.7
748.373	1981.58
748.557	1909.9
748.742	1811.6
748.927	1942.67
749.111	1926.29
749.296	1846.41
749.481	1889.42
749.665	1772.69
749.85	1811.6
750.034	1897.61
750.219	1879.18
750.404	1830.03
750.588	1766.54
750.773	1797.26
750.957	1805.46
751.141	1678.48
751.326	1762.45
751.51	1584.27
751.695	1725.58
751.879	1756.3
752.064	1727.63
752.248	1748.11
752.432	1655.95
752.617	1729.68
752.801	1721.49
752.985	1660.05
753.17	1721.49
753.354	1752.21
753.538	1539.22
753.722	1485.97
753.907	1658
754.091	1565.84
754.275	1531.03
754.459	1453.2
754.643	1627.28
754.828	1449.11
755.012	1526.93
755.196	1533.08
755.38	1551.51
755.564	1449.11
755.748	1502.36
755.932	1440.92
756.116	1563.79
756.3	1455.25
756.484	1467.54
756.668	1416.34
756.852	1490.07
757.036	1391.77
757.22	1379.48
757.404	1447.06
757.588	1367.19
757.772	1383.57
757.956	1445.01
758.14	1436.82
758.323	1315.99
758.507	1363.09
758.691	1332.37
758.875	1365.14
759.059	1393.81
759.242	1234.07
759.426	1313.94
759.61	1281.18
759.794	1293.46
759.977	1305.75
760.161	1320.09
760.345	1279.13
760.528	1227.93
760.712	1213.59
760.895	1295.51
761.079	1209.5
761.263	1211.54
761.446	1189.02
761.63	1219.74
761.813	1232.02
761.997	1146.01
762.18	1182.87
762.364	1164.44
762.547	1035.42
762.731	1197.21
762.914	1098.91
763.098	1107.1
763.281	1117.34
763.464	1285.27
763.648	1143.96
763.831	1084.57
764.015	1115.29
764.198	1074.33
764.381	1115.29
764.564	1125.53
764.748	1166.49
764.931	1066.14
765.114	1150.11
765.297	1150.11
765.481	1135.77
765.664	1084.57
765.847	1070.23
766.03	1137.82
766.213	1072.28
766.397	1051.8
766.58	1035.42
766.763	1090.71
766.946	1103
767.129	1010.84
767.312	1088.67
767.495	1100.95
767.678	947.36
767.861	941.21
768.044	1062.04
768.227	1021.08
768.41	1078.43
768.593	1062.04
768.776	1078.43
768.959	1012.89
769.142	1002.65
769.324	978.08
769.507	976.03
769.69	984.22
769.873	998.56
770.056	865.44
770.239	992.41
770.421	998.56
770.604	978.08
770.787	928.92
770.97	994.46
771.152	992.41
771.335	947.36
771.518	1004.7
771.7	943.26
771.883	896.16
772.066	971.93
772.248	906.4
772.431	941.21
772.613	924.83
772.796	912.54
772.978	914.59
773.161	916.64
773.343	957.6
773.526	789.66
773.708	896.16
773.891	857.25
774.073	806.05
774.256	781.47
774.438	875.68
774.621	822.43
774.803	865.44
774.985	732.32
775.168	896.16
775.35	853.15
775.532	853.15
775.715	695.46
775.897	812.19
776.079	787.61
776.261	820.38
776.444	746.66
776.626	842.91
776.808	687.26
776.99	734.37
777.173	781.47
777.355	754.85
777.537	748.7
777.719	760.99
777.901	734.37
778.083	781.47
778.265	781.47
778.447	724.13
778.629	660.64
778.811	744.61
778.993	674.98
779.175	629.92
779.357	677.02
779.539	691.36
779.721	642.21
779.903	715.94
780.085	666.78
780.267	629.92
780.449	715.94
780.631	670.88
780.812	666.78
780.994	660.64
781.176	552.1
781.358	711.84
781.54	566.43
781.721	603.3
781.903	695.46
782.085	619.68
782.267	636.06
782.448	601.25
782.63	588.96
782.812	672.93
782.993	545.95
783.175	556.19
783.357	621.73
783.538	554.15
783.72	511.14
783.901	644.26
784.083	502.95
784.264	517.28
784.446	509.09
784.627	531.62
784.809	548
784.99	482.47
785.172	509.09
785.353	609.44
785.535	527.52
785.716	455.84
785.897	519.33
786.079	498.85
786.26	488.61
786.441	519.33
786.623	418.98
786.804	390.31
786.985	486.56
787.167	521.38
787.348	482.47
787.529	511.14
787.71	445.6
787.891	490.66
788.073	408.74
788.254	468.13
788.435	470.18
788.616	494.76
788.797	416.93
788.978	488.61
789.159	375.97
789.34	457.89
789.522	394.4
789.703	480.42
789.884	408.74
790.065	355.49
790.246	421.03
790.427	390.31
790.607	396.45
790.788	441.51
790.969	357.54
791.15	355.49
791.331	382.12
791.512	398.5
791.693	410.79
791.874	306.34
792.054	404.64
792.235	474.28
792.416	398.5
792.597	337.06
792.778	363.69
792.958	404.64
793.139	418.98
793.32	335.01
793.5	367.78
793.681	318.63
793.862	343.21
794.042	302.25
794.223	322.73
794.404	341.16
794.584	343.21
794.765	388.26
794.945	249
795.126	406.69
795.306	357.54
795.487	289.96
795.667	361.64
795.848	394.4
796.028	292.01
796.209	341.16
796.389	308.39
796.57	263.33
796.75	335.01
796.93	306.34
797.111	306.34
797.291	365.73
797.471	289.96
797.652	261.29
797.832	306.34
798.012	359.59
798.192	271.53
798.373	318.63
798.553	330.92
798.733	298.15
798.913	259.24
799.093	318.63
799.274	263.33
799.454	304.29
799.634	271.53
799.814	267.43
799.994	269.48
800.174	228.52
800.354	287.91
800.534	224.42
800.714	240.81
800.894	281.77
801.074	212.14
801.254	249
801.434	337.06
801.614	230.57
801.794	222.38
801.974	658.59
802.154	246.95
802.334	185.51
802.514	244.9
802.693	261.29
802.873	249
803.053	218.28
803.233	187.56
803.413	236.71
803.592	257.19
803.772	238.76
803.952	269.48
804.131	285.86
804.311	246.95
804.491	199.85
804.67	224.42
804.85	226.47
805.03	242.85
805.209	298.15
805.389	263.33
805.568	259.24
805.748	212.14
805.928	181.42
806.107	265.38
806.287	255.14
806.466	265.38
806.646	197.8
806.825	212.14
807.004	203.94
807.184	218.28
807.363	257.19
807.543	218.28
807.722	267.43
807.901	271.53
808.081	191.66
808.26	162.98
808.439	224.42
808.619	222.38
808.798	208.04
808.977	220.33
809.156	128.17
809.336	203.94
809.515	242.85
809.694	179.37
809.873	216.23
810.052	203.94
810.231	167.08
810.411	177.32
810.59	201.9
810.769	105.64
810.948	140.46
811.127	156.84
811.306	173.22
811.485	156.84
811.664	222.38
811.843	152.74
812.022	87.21
812.201	150.7
812.38	144.55
812.559	197.8
812.737	193.7
812.916	146.6
813.095	146.6
813.274	165.03
813.453	154.79
813.632	124.07
813.811	255.14
813.989	117.93
814.168	160.94
814.347	142.5
814.526	146.6
814.704	93.35
814.883	152.74
815.062	138.41
815.24	152.74
815.419	142.5
815.598	222.38
815.776	113.83
815.955	179.37
816.133	162.98
816.312	181.42
816.49	177.32
816.669	183.46
816.847	142.5
817.026	142.5
817.204	60.59
817.383	185.51
817.561	93.35
817.74	173.22
817.918	115.88
818.097	122.02
818.275	160.94
818.453	158.89
818.632	203.94
818.81	179.37
818.988	142.5
819.167	130.22
819.345	97.45
819.523	142.5
819.701	97.45
819.879	105.64
820.058	140.46
820.236	99.5
820.414	56.49
820.592	103.59
820.77	146.6
820.948	173.22
821.127	111.78
821.305	158.89
821.483	99.5
821.661	150.7
821.839	91.31
822.017	105.64
822.195	140.46
822.373	173.22
822.551	150.7
822.729	134.31
822.907	113.83
823.085	130.22
823.262	58.54
823.44	70.83
823.618	97.45
823.796	119.98
823.974	85.16
824.152	79.02
824.329	134.31
824.507	156.84
824.685	113.83
824.863	107.69
825.04	54.44
825.218	126.12
825.396	113.83
825.574	97.45
825.751	60.59
825.929	138.41
826.107	93.35
826.284	160.94
826.462	68.78
826.639	68.78
826.817	58.54
826.994	165.03
827.172	138.41
827.349	109.74
827.527	140.46
827.704	105.64
827.882	113.83
828.059	158.89
828.237	89.26
828.414	91.31
828.591	27.82
828.769	50.35
828.946	68.78
829.124	95.4
829.301	50.35
829.478	146.6
829.655	95.4
829.833	70.83
830.01	54.44
830.187	105.64
830.364	72.87
830.542	87.21
830.719	101.55
830.896	134.31
831.073	160.94
831.25	107.69
831.427	107.69
831.604	103.59
831.782	68.78
831.959	83.11
832.136	97.45
832.313	138.41
832.49	72.87
832.667	115.88
832.844	72.87
833.021	115.88
833.198	154.79
833.374	11.43
833.551	119.98
833.728	70.83
833.905	148.65
834.082	56.49
834.259	76.97
834.436	85.16
834.612	97.45
834.789	175.27
834.966	132.26
835.143	50.35
835.319	87.21
835.496	130.22
835.673	68.78
835.85	31.91
836.026	181.42
836.203	23.72
836.38	54.44
836.556	81.07
836.733	44.2
836.909	148.65
837.086	76.97
837.262	58.54
837.439	-0.85
837.616	89.26
837.792	87.21
837.968	132.26
838.145	97.45
838.321	83.11
838.498	72.87
838.674	154.79
838.851	66.73
839.027	85.16
839.203	64.68
839.38	79.02
839.556	7.34
839.732	134.31
839.909	81.07
840.085	89.26
840.261	44.2
840.437	64.68
840.614	1.19
840.79	76.97
840.966	126.12
841.142	89.26
841.318	1.19
841.494	36.01
841.671	3.24
841.847	40.11
842.023	-4.95
842.199	74.92
842.375	9.39
842.551	95.4
842.727	27.82
842.903	52.39
843.079	27.82
843.255	62.63
843.431	50.35
843.607	156.84
843.783	9.39
843.959	21.67
844.134	40.11
844.31	38.06
844.486	11.43
844.662	68.78
844.838	36.01
845.013	52.39
845.189	-2.9
845.365	93.35
845.541	23.72
845.716	144.55
845.892	105.64
846.068	52.39
846.244	36.01
846.419	62.63
846.595	52.39
846.77	46.25
846.946	46.25
847.122	-13.14
847.297	29.87
847.473	15.53
847.648	5.29
847.824	85.16
847.999	31.91
848.175	46.25
848.35	54.44
848.526	33.96
848.701	48.3
848.876	36.01
849.052	117.93
849.227	36.01
849.403	64.68
849.578	9.39
849.753	85.16
849.929	101.55
850.104	27.82
850.279	52.39
850.454	105.64
850.63	72.87
850.805	36.01
850.98	85.16
851.155	95.4
851.33	23.72
851.505	19.63
851.681	95.4
851.856	62.63
852.031	48.3
852.206	52.39
852.381	7.34
852.556	119.98
852.731	79.02
852.906	60.59
853.081	11.43
853.256	99.5
853.431	17.58
853.606	81.07
853.781	60.59
853.956	-13.14
854.131	62.63
854.305	-29.52
854.48	42.15
854.655	-41.81
854.83	5.29
855.005	58.54
855.18	81.07
855.354	66.73
855.529	-21.33
855.704	19.63
855.879	50.35
856.053	72.87
856.228	-27.48
856.403	-70.48
856.577	70.83
856.752	42.15
856.926	52.39
857.101	-25.43
857.276	56.49
857.45	31.91
857.625	58.54
857.799	-9.05
857.974	9.39
858.148	40.11
858.323	115.88
858.497	-4.95
858.672	29.87
858.846	5.29
859.02	52.39
859.195	-9.05
859.369	27.82
859.543	21.67
859.718	89.26
859.892	33.96
860.066	42.15
860.241	15.53
860.415	-15.19
860.589	9.39
860.763	-9.05
860.938	3.24
861.112	-0.85
861.286	1.19
861.46	31.91
861.634	40.11
861.808	46.25
861.982	38.06
862.157	-37.72
862.331	-43.86
862.505	1.19
862.679	19.63
862.853	13.48
863.027	-9.05
863.201	38.06
863.375	23.72
863.549	9.39
863.722	17.58
863.896	85.16
864.07	-25.43
864.244	56.49
864.418	52.39
864.592	64.68
864.766	33.96
864.939	-105.3
865.113	9.39
865.287	72.87
865.461	-9.05
865.634	27.82
865.808	50.35
865.982	36.01
866.156	-31.57
866.329	11.43
866.503	44.2
866.676	23.72
866.85	-47.96
867.024	-13.14
867.197	1.19
867.371	44.2
867.544	-4.95
867.718	33.96
867.891	83.11
868.065	7.34
868.238	-29.52
868.412	68.78
868.585	-31.57
868.759	-21.33
868.932	-19.29
869.105	42.15
869.279	5.29
869.452	15.53
869.625	3.24
869.799	13.48
869.972	17.58
870.145	85.16
870.319	15.53
870.492	44.2
870.665	17.58
870.838	-54.1
871.011	19.63
871.185	-45.91
871.358	-2.9
871.531	83.11
871.704	-33.62
871.877	40.11
872.05	44.2
872.223	3.24
872.396	64.68
872.569	44.2
872.742	9.39
872.915	13.48
873.088	-4.95
873.261	13.48
873.434	7.34
873.607	-27.48
873.78	23.72
873.953	17.58
874.126	-31.57
874.299	31.91
874.471	-41.81
874.644	60.59
874.817	23.72
874.99	-0.85
875.163	-17.24
875.335	-33.62
875.508	-23.38
875.681	95.4
875.853	-4.95
876.026	-0.85
876.199	52.39
876.371	89.26
876.544	-17.24
876.717	97.45
876.889	38.06
877.062	-19.29
877.234	-41.81
877.407	11.43
877.579	23.72
877.752	-7
877.924	60.59
878.097	25.77
878.269	-11.09
878.442	40.11
878.614	-52.05
878.786	72.87
878.959	-29.52
879.131	-21.33
879.303	-21.33
879.476	-9.05
879.648	-4.95
879.82	62.63
879.993	-54.1
880.165	44.2
880.337	-17.24
880.509	42.15
880.681	15.53
880.854	-9.05
881.026	60.59
881.198	93.35
881.37	38.06
881.542	-4.95
881.714	23.72
881.886	54.44
882.058	3.24
882.23	-19.29
882.402	19.63
882.574	5.29
882.746	5.29
882.918	17.58
883.09	-17.24
883.262	29.87
883.434	3.24
883.606	-27.48
883.778	-25.43
883.95	11.43
884.122	29.87
884.293	97.45
884.465	-45.91
884.637	25.77
884.809	-7
884.98	-9.05
885.152	-33.62
885.324	-4.95
885.496	-15.19
885.667	-4.95
885.839	15.53
886.011	-0.85
886.182	42.15
886.354	29.87
886.525	-80.72
886.697	27.82
886.869	-11.09
887.04	-15.19
887.212	-31.57
887.383	52.39
887.555	1.19
887.726	-17.24
887.897	9.39
888.069	58.54
888.24	-33.62
888.412	-0.85
888.583	17.58
888.754	33.96
888.926	-82.77
889.097	11.43
889.268	-29.52
889.44	13.48
889.611	40.11
889.782	-4.95
889.953	-25.43
890.125	13.48
890.296	-33.62
890.467	17.58
890.638	-45.91
890.809	13.48
890.98	-11.09
891.151	-13.14
891.323	23.72
891.494	-50
891.665	66.73
891.836	44.2
892.007	40.11
892.178	60.59
892.349	11.43
892.52	-29.52
892.691	64.68
892.862	-54.1
893.032	-7
893.203	13.48
893.374	17.58
893.545	38.06
893.716	-19.29
893.887	-4.95
894.057	-2.9
894.228	89.26
894.399	-0.85
894.57	-7
894.74	-15.19
894.911	21.67
895.082	3.24
895.253	3.24
895.423	5.29
895.594	19.63
895.764	3.24
895.935	-21.33
896.106	7.34
896.276	-17.24
896.447	-68.44
896.617	50.35
896.788	19.63
896.958	13.48
897.129	1.19
897.299	-58.2
897.47	19.63
897.64	85.16
897.81	27.82
897.981	-15.19
898.151	-45.91
898.322	-43.86
898.492	13.48
898.662	58.54
898.832	-52.05
899.003	-23.38
899.173	-47.96
899.343	21.67
899.513	-31.57
