Data from USB4F104151__177__11-09-25-264.txt Node

Date: Wed Mar 12 11:09:25 EDT 2025
User: louis
Spectrometer: USB4F10415
Trigger mode: 4
Integration Time (sec): 2.000000E-2
Scans to average: 1
Electric dark correction enabled: true
Nonlinearity correction enabled: false
Boxcar width: 0
XAxis mode: Wavelengths
Number of Pixels in Spectrum: 3648
>>>>>Begin Spectral Data<<<<<
178.204	-105.3
178.424	-105.3
178.644	-105.3
178.864	-125.78
179.084	-21.33
179.304	-35.67
179.524	-2.9
179.744	-11.09
179.964	11.43
180.184	-29.52
180.404	-7
180.624	17.58
180.844	-7
181.064	50.35
181.283	-0.85
181.503	-29.52
181.723	44.2
181.943	-9.05
182.163	-29.52
182.383	-0.85
182.602	-62.29
182.822	7.34
183.042	-13.14
183.262	-15.19
183.482	-27.48
183.701	17.58
183.921	64.68
184.141	-4.95
184.361	62.63
184.58	-4.95
184.8	46.25
185.02	58.54
185.239	91.31
185.459	-25.43
185.679	44.2
185.898	44.2
186.118	95.4
186.338	-0.85
186.557	76.97
186.777	38.06
186.997	-9.05
187.216	-35.67
187.436	62.63
187.655	64.68
187.875	38.06
188.095	-23.38
188.314	85.16
188.534	11.43
188.753	-0.85
188.973	64.68
189.192	72.87
189.412	15.53
189.631	23.72
189.851	33.96
190.07	44.2
190.29	42.15
190.509	36.01
190.729	19.63
190.948	74.92
191.168	46.25
191.387	46.25
191.607	60.59
191.826	50.35
192.045	21.67
192.265	23.72
192.484	31.91
192.704	21.67
192.923	11.43
193.142	50.35
193.362	1.19
193.581	97.45
193.8	107.69
194.02	62.63
194.239	46.25
194.458	66.73
194.678	40.11
194.897	56.49
195.116	25.77
195.335	-25.43
195.555	134.31
195.774	70.83
195.993	62.63
196.212	11.43
196.432	44.2
196.651	58.54
196.87	-15.19
197.089	52.39
197.308	-2.9
197.528	27.82
197.747	31.91
197.966	42.15
198.185	27.82
198.404	99.5
198.623	11.43
198.842	72.87
199.062	13.48
199.281	5.29
199.5	68.78
199.719	48.3
199.938	-23.38
200.157	29.87
200.376	1.19
200.595	54.44
200.814	58.54
201.033	40.11
201.252	54.44
201.471	31.91
201.69	46.25
201.909	27.82
202.128	58.54
202.347	31.91
202.566	-4.95
202.785	64.68
203.004	66.73
203.223	72.87
203.442	27.82
203.661	46.25
203.879	72.87
204.098	50.35
204.317	25.77
204.536	72.87
204.755	-21.33
204.974	48.3
205.193	-9.05
205.411	50.35
205.63	19.63
205.849	48.3
206.068	54.44
206.287	33.96
206.505	29.87
206.724	21.67
206.943	1.19
207.162	-35.67
207.381	5.29
207.599	60.59
207.818	5.29
208.037	72.87
208.255	31.91
208.474	19.63
208.693	29.87
208.911	83.11
209.13	-2.9
209.349	76.97
209.567	42.15
209.786	-45.91
210.005	-19.29
210.223	105.64
210.442	19.63
210.661	13.48
210.879	44.2
211.098	-45.91
211.316	7.34
211.535	36.01
211.753	27.82
211.972	-19.29
212.191	11.43
212.409	17.58
212.628	31.91
212.846	76.97
213.065	3.24
213.283	89.26
213.502	3.24
213.72	81.07
213.938	25.77
214.157	-31.57
214.375	48.3
214.594	17.58
214.812	50.35
215.031	52.39
215.249	27.82
215.467	27.82
215.686	95.4
215.904	58.54
216.122	17.58
216.341	74.92
216.559	52.39
216.778	68.78
216.996	54.44
217.214	46.25
217.432	-23.38
217.651	99.5
217.869	15.53
218.087	27.82
218.306	29.87
218.524	101.55
218.742	54.44
218.96	-25.43
219.179	64.68
219.397	17.58
219.615	-4.95
219.833	54.44
220.051	66.73
220.27	62.63
220.488	-25.43
220.706	-2.9
220.924	-4.95
221.142	29.87
221.36	23.72
221.578	13.48
221.796	27.82
222.015	58.54
222.233	66.73
222.451	48.3
222.669	54.44
222.887	21.67
223.105	38.06
223.323	52.39
223.541	-31.57
223.759	-9.05
223.977	-0.85
224.195	19.63
224.413	58.54
224.631	27.82
224.849	-58.2
225.067	-7
225.285	9.39
225.503	7.34
225.721	-19.29
225.939	17.58
226.157	17.58
226.375	44.2
226.592	23.72
226.81	50.35
227.028	13.48
227.246	48.3
227.464	44.2
227.682	58.54
227.9	-62.29
228.117	27.82
228.335	40.11
228.553	27.82
228.771	56.49
228.989	74.92
229.206	25.77
229.424	68.78
229.642	44.2
229.86	-4.95
230.077	27.82
230.295	60.59
230.513	93.35
230.731	56.49
230.948	5.29
231.166	9.39
231.384	58.54
231.601	25.77
231.819	19.63
232.037	27.82
232.254	64.68
232.472	60.59
232.689	-9.05
232.907	124.07
233.125	64.68
233.342	36.01
233.56	13.48
233.777	91.31
233.995	17.58
234.213	103.59
234.43	58.54
234.648	64.68
234.865	3.24
235.083	48.3
235.3	23.72
235.518	3.24
235.735	-4.95
235.953	44.2
236.17	56.49
236.388	-2.9
236.605	62.63
236.822	-17.24
237.04	99.5
237.257	70.83
237.475	-15.19
237.692	44.2
237.909	83.11
238.127	-15.19
238.344	54.44
238.562	25.77
238.779	70.83
238.996	-33.62
239.214	17.58
239.431	27.82
239.648	64.68
239.865	23.72
240.083	42.15
240.3	64.68
240.517	9.39
240.735	52.39
240.952	83.11
241.169	60.59
241.386	44.2
241.603	-35.67
241.821	7.34
242.038	115.88
242.255	29.87
242.472	54.44
242.689	60.59
242.907	72.87
243.124	-4.95
243.341	7.34
243.558	48.3
243.775	64.68
243.992	44.2
244.209	70.83
244.426	87.21
244.643	83.11
244.86	23.72
245.078	-23.38
245.295	-2.9
245.512	83.11
245.729	7.34
245.946	115.88
246.163	46.25
246.38	-17.24
246.597	29.87
246.814	54.44
247.031	36.01
247.248	13.48
247.464	31.91
247.681	-0.85
247.898	-0.85
248.115	154.79
248.332	56.49
248.549	36.01
248.766	23.72
248.983	-39.76
249.2	70.83
249.417	23.72
249.633	23.72
249.85	36.01
250.067	13.48
250.284	1.19
250.501	117.93
250.717	44.2
250.934	23.72
251.151	38.06
251.368	-19.29
251.585	109.74
251.801	97.45
252.018	15.53
252.235	31.91
252.451	15.53
252.668	31.91
252.885	50.35
253.102	23.72
253.318	76.97
253.535	-31.57
253.752	72.87
253.968	62.63
254.185	29.87
254.401	25.77
254.618	-2.9
254.835	23.72
255.051	3.24
255.268	93.35
255.484	15.53
255.701	54.44
255.917	38.06
256.134	-21.33
256.351	105.64
256.567	-13.14
256.784	99.5
257	5.29
257.217	17.58
257.433	74.92
257.65	91.31
257.866	52.39
258.082	62.63
258.299	15.53
258.515	66.73
258.732	13.48
258.948	-9.05
259.165	-25.43
259.381	36.01
259.597	17.58
259.814	-9.05
260.03	76.97
260.246	81.07
260.463	17.58
260.679	50.35
260.895	60.59
261.112	103.59
261.328	31.91
261.544	-29.52
261.761	83.11
261.977	62.63
262.193	-27.48
262.409	17.58
262.626	40.11
262.842	25.77
263.058	72.87
263.274	15.53
263.49	68.78
263.707	134.31
263.923	48.3
264.139	-11.09
264.355	64.68
264.571	103.59
264.787	44.2
265.004	-29.52
265.22	-9.05
265.436	62.63
265.652	76.97
265.868	134.31
266.084	-37.72
266.3	31.91
266.516	46.25
266.732	-17.24
266.948	89.26
267.164	21.67
267.38	1.19
267.596	46.25
267.812	87.21
268.028	56.49
268.244	31.91
268.46	11.43
268.676	17.58
268.892	3.24
269.108	52.39
269.324	91.31
269.54	21.67
269.756	66.73
269.972	33.96
270.188	103.59
270.403	7.34
270.619	11.43
270.835	42.15
271.051	97.45
271.267	3.24
271.483	119.98
271.698	83.11
271.914	-37.72
272.13	25.77
272.346	-7
272.562	7.34
272.777	81.07
272.993	-17.24
273.209	25.77
273.425	19.63
273.64	-25.43
273.856	91.31
274.072	15.53
274.287	87.21
274.503	76.97
274.719	23.72
274.934	23.72
275.15	-35.67
275.366	5.29
275.581	27.82
275.797	-33.62
276.012	-39.76
276.228	-17.24
276.444	33.96
276.659	25.77
276.875	54.44
277.09	74.92
277.306	85.16
277.521	-39.76
277.737	66.73
277.952	-7
278.168	7.34
278.383	17.58
278.599	21.67
278.814	29.87
279.03	76.97
279.245	33.96
279.461	52.39
279.676	-0.85
279.892	29.87
280.107	-70.48
280.322	42.15
280.538	40.11
280.753	31.91
280.969	19.63
281.184	15.53
281.399	50.35
281.615	115.88
281.83	31.91
282.045	29.87
282.26	9.39
282.476	33.96
282.691	36.01
282.906	7.34
283.122	50.35
283.337	-4.95
283.552	70.83
283.767	27.82
283.983	76.97
284.198	52.39
284.413	21.67
284.628	70.83
284.843	91.31
285.058	81.07
285.274	87.21
285.489	-52.05
285.704	-13.14
285.919	-9.05
286.134	-13.14
286.349	-0.85
286.564	-0.85
286.779	72.87
286.995	36.01
287.21	-9.05
287.425	-2.9
287.64	31.91
287.855	-19.29
288.07	-39.76
288.285	56.49
288.5	64.68
288.715	91.31
288.93	23.72
289.145	15.53
289.36	44.2
289.575	9.39
289.79	42.15
290.004	74.92
290.219	58.54
290.434	21.67
290.649	19.63
290.864	76.97
291.079	13.48
291.294	-2.9
291.509	11.43
291.724	15.53
291.938	-2.9
292.153	29.87
292.368	31.91
292.583	87.21
292.798	-7
293.012	29.87
293.227	60.59
293.442	46.25
293.657	-7
293.871	70.83
294.086	-9.05
294.301	58.54
294.516	-21.33
294.73	-27.48
294.945	-0.85
295.16	21.67
295.374	23.72
295.589	64.68
295.804	-64.34
296.018	62.63
296.233	46.25
296.447	-9.05
296.662	17.58
296.877	33.96
297.091	58.54
297.306	83.11
297.52	81.07
297.735	-13.14
297.949	72.87
298.164	50.35
298.378	117.93
298.593	64.68
298.807	36.01
299.022	117.93
299.236	48.3
299.451	31.91
299.665	54.44
299.88	-50
300.094	60.59
300.309	54.44
300.523	29.87
300.737	68.78
300.952	97.45
301.166	44.2
301.381	-29.52
301.595	56.49
301.809	130.22
302.024	9.39
302.238	52.39
302.452	58.54
302.667	36.01
302.881	85.16
303.095	42.15
303.309	-17.24
303.524	-7
303.738	29.87
303.952	-60.24
304.166	40.11
304.381	-11.09
304.595	-9.05
304.809	42.15
305.023	52.39
305.237	70.83
305.452	9.39
305.666	33.96
305.88	109.74
306.094	85.16
306.308	40.11
306.522	7.34
306.736	17.58
306.95	85.16
307.164	25.77
307.379	50.35
307.593	33.96
307.807	76.97
308.021	81.07
308.235	52.39
308.449	50.35
308.663	58.54
308.877	107.69
309.091	-15.19
309.305	-17.24
309.519	17.58
309.733	33.96
309.947	-23.38
310.161	74.92
310.374	38.06
310.588	17.58
310.802	-15.19
311.016	138.41
311.23	40.11
311.444	81.07
311.658	74.92
311.872	52.39
312.085	113.83
312.299	81.07
312.513	50.35
312.727	54.44
312.941	46.25
313.154	64.68
313.368	58.54
313.582	72.87
313.796	-9.05
314.009	46.25
314.223	52.39
314.437	31.91
314.651	9.39
314.864	62.63
315.078	36.01
315.292	48.3
315.505	19.63
315.719	76.97
315.933	27.82
316.146	89.26
316.36	25.77
316.573	66.73
316.787	27.82
317.001	1.19
317.214	31.91
317.428	42.15
317.641	19.63
317.855	64.68
318.068	-17.24
318.282	52.39
318.495	54.44
318.709	40.11
318.922	52.39
319.136	117.93
319.349	107.69
319.563	85.16
319.776	-2.9
319.99	62.63
320.203	117.93
320.417	119.98
320.63	46.25
320.843	15.53
321.057	72.87
321.27	9.39
321.483	79.02
321.697	66.73
321.91	-4.95
322.124	109.74
322.337	68.78
322.55	5.29
322.763	36.01
322.977	-31.57
323.19	-15.19
323.403	-0.85
323.617	52.39
323.83	66.73
324.043	23.72
324.256	60.59
324.469	-4.95
324.683	29.87
324.896	1.19
325.109	105.64
325.322	36.01
325.535	1.19
325.748	36.01
325.962	21.67
326.175	62.63
326.388	29.87
326.601	68.78
326.814	36.01
327.027	11.43
327.24	46.25
327.453	-17.24
327.666	44.2
327.879	17.58
328.092	52.39
328.305	33.96
328.518	52.39
328.731	31.91
328.944	122.02
329.157	27.82
329.37	76.97
329.583	76.97
329.796	40.11
330.009	-43.86
330.222	81.07
330.435	-33.62
330.648	74.92
330.861	64.68
331.073	48.3
331.286	79.02
331.499	-37.72
331.712	-17.24
331.925	44.2
332.138	1.19
332.35	48.3
332.563	60.59
332.776	38.06
332.989	9.39
333.202	19.63
333.414	107.69
333.627	40.11
333.84	-60.24
334.053	60.59
334.265	42.15
334.478	126.12
334.691	7.34
334.903	68.78
335.116	5.29
335.329	54.44
335.541	-2.9
335.754	19.63
335.966	-7
336.179	74.92
336.392	42.15
336.604	21.67
336.817	70.83
337.029	74.92
337.242	5.29
337.454	70.83
337.667	97.45
337.88	132.26
338.092	76.97
338.305	19.63
338.517	62.63
338.729	56.49
338.942	40.11
339.154	40.11
339.367	-4.95
339.579	3.24
339.792	52.39
340.004	19.63
340.217	46.25
340.429	74.92
340.641	17.58
340.854	33.96
341.066	36.01
341.278	31.91
341.491	9.39
341.703	101.55
341.915	-9.05
342.128	44.2
342.34	36.01
342.552	68.78
342.764	19.63
342.977	70.83
343.189	95.4
343.401	68.78
343.613	-33.62
343.826	85.16
344.038	-4.95
344.25	27.82
344.462	74.92
344.674	33.96
344.886	19.63
345.099	76.97
345.311	29.87
345.523	3.24
345.735	56.49
345.947	31.91
346.159	-23.38
346.371	44.2
346.583	-4.95
346.795	64.68
347.007	9.39
347.219	13.48
347.431	36.01
347.643	115.88
347.855	17.58
348.067	74.92
348.279	21.67
348.491	93.35
348.703	62.63
348.915	93.35
349.127	76.97
349.339	46.25
349.551	29.87
349.763	72.87
349.975	-2.9
350.187	60.59
350.399	64.68
350.61	54.44
350.822	56.49
351.034	31.91
351.246	31.91
351.458	31.91
351.669	44.2
351.881	117.93
352.093	19.63
352.305	93.35
352.517	13.48
352.728	15.53
352.94	3.24
353.152	48.3
353.363	-88.92
353.575	99.5
353.787	54.44
353.999	91.31
354.21	64.68
354.422	79.02
354.633	11.43
354.845	42.15
355.057	27.82
355.268	89.26
355.48	38.06
355.692	58.54
355.903	-7
356.115	119.98
356.326	-29.52
356.538	60.59
356.749	-7
356.961	85.16
357.172	29.87
357.384	36.01
357.595	105.64
357.807	40.11
358.018	31.91
358.23	36.01
358.441	91.31
358.653	54.44
358.864	38.06
359.075	76.97
359.287	46.25
359.498	36.01
359.709	52.39
359.921	81.07
360.132	11.43
360.344	38.06
360.555	7.34
360.766	81.07
360.977	66.73
361.189	111.78
361.4	50.35
361.611	83.11
361.823	70.83
362.034	60.59
362.245	7.34
362.456	66.73
362.667	31.91
362.879	46.25
363.09	27.82
363.301	52.39
363.512	56.49
363.723	-4.95
363.935	-0.85
364.146	19.63
364.357	50.35
364.568	21.67
364.779	52.39
364.99	99.5
365.201	25.77
365.412	48.3
365.623	19.63
365.834	-4.95
366.045	31.91
366.256	38.06
366.467	66.73
366.678	42.15
366.889	-23.38
367.1	-9.05
367.311	58.54
367.522	76.97
367.733	33.96
367.944	17.58
368.155	40.11
368.366	87.21
368.577	89.26
368.788	85.16
368.999	27.82
369.209	19.63
369.42	124.07
369.631	76.97
369.842	60.59
370.053	66.73
370.264	3.24
370.474	-13.14
370.685	-4.95
370.896	21.67
371.107	74.92
371.317	46.25
371.528	66.73
371.739	119.98
371.95	70.83
372.16	-9.05
372.371	40.11
372.582	70.83
372.792	7.34
373.003	105.64
373.214	87.21
373.424	115.88
373.635	83.11
373.846	89.26
374.056	17.58
374.267	58.54
374.477	42.15
374.688	89.26
374.898	27.82
375.109	60.59
375.319	25.77
375.53	76.97
375.74	130.22
375.951	29.87
376.161	7.34
376.372	52.39
376.582	74.92
376.793	33.96
377.003	31.91
377.214	25.77
377.424	99.5
377.635	13.48
377.845	17.58
378.055	40.11
378.266	56.49
378.476	56.49
378.686	-17.24
378.897	38.06
379.107	66.73
379.317	72.87
379.528	42.15
379.738	38.06
379.948	66.73
380.158	68.78
380.369	21.67
380.579	54.44
380.789	33.96
380.999	89.26
381.21	130.22
381.42	95.4
381.63	31.91
381.84	13.48
382.05	66.73
382.261	54.44
382.471	17.58
382.681	62.63
382.891	105.64
383.101	68.78
383.311	-52.05
383.521	93.35
383.731	54.44
383.941	48.3
384.151	-19.29
384.361	68.78
384.571	68.78
384.781	42.15
384.991	62.63
385.201	15.53
385.411	107.69
385.621	48.3
385.831	40.11
386.041	70.83
386.251	60.59
386.461	74.92
386.671	76.97
386.881	31.91
387.091	5.29
387.301	142.5
387.511	19.63
387.72	68.78
387.93	58.54
388.14	-13.14
388.35	109.74
388.56	87.21
388.769	132.26
388.979	79.02
389.189	56.49
389.399	23.72
389.609	109.74
389.818	87.21
390.028	91.31
390.238	42.15
390.447	7.34
390.657	95.4
390.867	62.63
391.076	58.54
391.286	36.01
391.496	40.11
391.705	-43.86
391.915	89.26
392.125	85.16
392.334	122.02
392.544	60.59
392.753	58.54
392.963	60.59
393.172	44.2
393.382	58.54
393.591	115.88
393.801	74.92
394.01	146.6
394.22	58.54
394.429	36.01
394.639	76.97
394.848	11.43
395.058	44.2
395.267	87.21
395.477	64.68
395.686	21.67
395.895	117.93
396.105	70.83
396.314	103.59
396.524	122.02
396.733	109.74
396.942	70.83
397.152	126.12
397.361	89.26
397.57	89.26
397.78	72.87
397.989	83.11
398.198	128.17
398.407	27.82
398.617	122.02
398.826	128.17
399.035	103.59
399.244	74.92
399.453	38.06
399.663	76.97
399.872	62.63
400.081	60.59
400.29	111.78
400.499	144.55
400.708	179.37
400.917	126.12
401.127	68.78
401.336	29.87
401.545	208.04
401.754	97.45
401.963	54.44
402.172	-9.05
402.381	87.21
402.59	70.83
402.799	89.26
403.008	33.96
403.217	58.54
403.426	117.93
403.635	56.49
403.844	130.22
404.053	156.84
404.262	126.12
404.471	115.88
404.68	50.35
404.888	160.94
405.097	60.59
405.306	109.74
405.515	140.46
405.724	150.7
405.933	134.31
406.142	70.83
406.35	134.31
406.559	122.02
406.768	138.41
406.977	150.7
407.185	111.78
407.394	189.61
407.603	162.98
407.812	144.55
408.02	218.28
408.229	179.37
408.438	177.32
408.646	146.6
408.855	193.7
409.064	249
409.272	185.51
409.481	240.81
409.69	208.04
409.898	185.51
410.107	199.85
410.315	277.67
410.524	318.63
410.733	261.29
410.941	328.87
411.15	273.57
411.358	244.9
411.567	349.35
411.775	236.71
411.984	330.92
412.192	324.77
412.401	392.36
412.609	375.97
412.818	394.4
413.026	378.02
413.234	414.88
413.443	410.79
413.651	421.03
413.86	363.69
414.068	443.56
414.276	480.42
414.485	451.75
414.693	414.88
414.901	550.05
415.11	515.23
415.318	500.9
415.526	486.56
415.734	601.25
415.943	494.76
416.151	638.11
416.359	617.63
416.567	611.49
416.776	666.78
416.984	726.18
417.192	730.27
417.4	732.32
417.608	646.3
417.817	808.09
418.025	787.61
418.233	900.25
418.441	877.73
418.649	869.53
418.857	885.92
419.065	1004.7
419.273	930.97
419.481	986.27
419.689	1141.91
419.897	1127.58
420.105	1090.71
420.313	1150.11
420.521	1137.82
420.729	1281.18
420.937	1301.65
421.145	1236.12
421.353	1350.81
421.561	1412.25
421.769	1442.96
421.977	1485.97
422.185	1516.69
422.393	1610.9
422.601	1633.43
422.809	1574.03
423.017	1694.86
423.224	1840.27
423.432	1893.52
423.64	1944.72
423.848	2012.3
424.056	1993.87
424.263	2133.13
424.471	2180.23
424.679	2079.88
424.887	2204.81
425.094	2362.5
425.302	2348.17
425.51	2440.33
425.718	2503.81
425.925	2616.45
426.133	2569.35
426.341	2706.56
426.548	2911.36
426.756	2929.79
426.964	2915.45
427.171	3099.77
427.379	3089.53
427.586	3267.7
427.794	3247.23
428.001	3517.56
428.209	3585.14
428.417	3552.37
428.624	3953.77
428.832	3908.72
429.039	3906.67
429.247	3791.98
429.454	4062.32
429.662	4209.77
429.869	4213.87
430.076	4308.07
430.284	4480.1
430.491	4465.77
430.699	4713.57
430.906	4766.82
431.114	4746.34
431.321	4990.05
431.528	5047.39
431.736	5346.39
431.943	5592.15
432.15	5530.71
432.358	5557.33
432.565	5784.66
432.772	5731.41
432.979	6136.91
433.187	6224.97
433.394	6108.24
433.601	6483.02
433.808	6706.24
434.016	6714.44
434.223	6839.36
434.43	7298.11
434.637	7126.08
434.844	7537.72
435.052	7871.54
435.259	7545.91
435.466	7855.15
435.673	7644.21
435.88	8250.41
436.087	8743.97
436.294	8516.65
436.501	8436.78
436.708	8522.79
436.915	8803.36
437.122	9436.19
437.329	9182.24
437.537	9559.06
437.743	9763.86
437.95	9837.59
438.157	9991.19
438.364	10351.63
438.571	10357.77
438.778	10523.66
438.985	11441.15
439.192	11064.32
439.399	11457.53
439.606	11162.62
439.813	11922.42
440.02	12418.03
440.227	12428.27
440.433	12284.91
440.64	12731.37
440.847	12628.97
441.054	12801
441.261	13564.89
441.467	13630.43
441.674	13861.85
441.881	14089.17
442.088	13925.33
442.294	13992.92
442.501	14562.25
442.708	14752.71
442.914	15408.06
443.121	15973.3
443.328	15657.92
443.534	16393.14
443.741	16165.81
443.948	15856.57
444.154	17087.4
444.361	16982.95
444.568	17271.72
444.774	17179.56
444.981	17208.23
445.187	17716.12
445.394	18457.49
445.6	18205.59
445.807	19833.72
446.013	18996.1
446.22	19198.85
446.426	20108.15
446.633	20464.5
446.839	20976.49
447.046	20267.89
447.252	21246.82
447.459	21425
447.665	21123.94
447.871	22258.52
448.078	22934.35
448.284	22121.31
448.491	22825.81
448.697	23472.96
448.903	24042.3
449.11	24202.04
449.316	23536.45
449.522	23991.1
449.728	24838.96
449.935	25228.07
450.141	24750.9
450.347	25305.9
450.553	24873.78
450.76	24812.34
450.966	25457.45
451.172	25203.5
451.378	25944.86
451.584	25471.78
451.791	25940.77
451.997	26254.11
452.203	26417.94
452.409	26145.56
452.615	26530.58
452.821	25172.78
453.027	25058.09
453.233	26493.72
453.44	25254.7
453.646	25840.42
453.852	25615.14
454.058	25905.95
454.264	25029.42
454.47	25649.96
454.676	25183.02
454.882	26067.74
455.088	23565.12
455.294	24021.82
455.5	24355.64
455.705	24830.77
455.911	23745.34
456.117	23313.22
456.323	22956.88
456.529	21500.77
456.735	22516.56
456.941	21994.33
457.147	21795.68
457.352	21136.23
457.558	20706.16
457.764	20808.56
457.97	20652.91
458.176	19932.03
458.381	19665.79
458.587	19108.74
458.793	19164.04
458.999	17972.12
459.204	19485.57
459.41	18617.23
459.616	17585.05
459.821	17779.61
460.027	17519.52
460.233	17208.23
460.438	16343.99
460.644	16571.31
460.85	15776.7
461.055	15596.48
461.261	15473.6
461.466	14240.72
461.672	13812.7
461.878	14867.4
462.083	13867.99
462.289	13620.19
462.494	13505.5
462.7	12897.25
462.905	12694.5
463.111	12889.06
463.316	13075.43
463.522	12614.63
463.727	12850.15
463.932	12833.77
464.138	12538.86
464.343	12760.04
464.549	12241.9
464.754	12844.01
464.959	12704.74
465.165	12471.28
465.37	11977.72
465.575	11695.1
465.781	12125.17
465.986	12176.37
466.191	11783.16
466.397	11441.15
466.602	10986.5
466.807	11271.17
467.012	11269.12
467.218	11443.2
467.423	11301.89
467.628	11267.07
467.833	11525.11
468.038	11453.44
468.244	11183.1
468.449	11095.04
468.654	11035.65
468.859	10910.72
469.064	11009.03
469.269	10484.75
469.474	10515.47
469.679	10611.72
469.885	10472.46
470.09	10402.83
470.295	10472.46
470.5	10019.86
470.705	10243.09
470.91	9993.23
471.115	9856.02
471.32	9903.12
471.525	10181.65
471.73	9700.37
471.935	9866.26
472.139	9366.56
472.344	9653.27
472.549	9458.71
472.754	9520.15
472.959	9182.24
473.164	9034.78
473.369	8977.44
473.574	9178.14
473.778	9219.1
473.983	9055.26
474.188	8944.67
474.393	8500.26
474.598	8741.93
474.802	8571.94
475.007	8512.55
475.212	8594.47
475.417	8252.46
475.621	8242.22
475.826	8135.73
476.031	8062
476.235	7930.93
476.44	7930.93
476.645	7953.46
476.849	7730.23
477.054	7644.21
477.259	7535.67
477.463	7664.69
477.668	7504.95
477.872	7668.79
478.077	7539.77
478.282	7226.43
478.486	7349.31
478.691	7144.51
478.895	7140.41
479.1	7068.73
479.304	7164.99
479.509	6952
479.713	7011.39
479.918	7148.61
480.122	6722.63
480.326	6827.07
480.531	6943.81
480.735	6890.56
480.94	6624.33
481.144	7003.2
481.348	6734.92
481.553	6640.71
481.757	6566.98
481.961	6736.96
482.166	6679.62
482.37	6614.09
482.574	6573.13
482.778	6648.9
482.983	6730.82
483.187	6671.43
483.391	6581.32
483.595	6546.5
483.8	6575.17
484.004	6653
484.208	6683.72
484.412	6589.51
484.616	6759.49
484.821	6603.85
485.025	6523.98
485.229	6591.56
485.433	6392.91
485.637	6497.35
485.841	6474.82
486.045	6433.86
486.249	6517.83
486.453	6487.11
486.657	6650.95
486.861	6622.28
487.065	6470.73
487.269	6548.55
487.473	6450.25
487.677	6657.09
487.881	6624.33
488.085	6593.61
488.289	6489.16
488.493	6630.47
488.697	6538.31
488.901	6687.81
489.105	6507.59
489.309	6755.4
489.512	6753.35
489.716	6734.92
489.92	6515.78
490.124	6708.29
490.328	6661.19
490.531	6681.67
490.735	6876.23
490.939	6870.08
491.143	6626.37
491.346	6786.12
491.55	6923.33
491.754	6843.46
491.958	6818.88
492.161	6773.83
492.365	6911.04
492.569	6896.71
492.772	6943.81
492.976	6855.75
493.18	7132.22
493.383	7121.98
493.587	7285.82
493.79	7167.04
493.994	7173.18
494.197	7128.13
494.401	7326.78
494.605	7156.8
494.808	7224.38
495.012	7326.78
495.215	7466.04
495.419	7545.91
495.622	7533.62
495.825	7789.62
496.029	7552.06
496.232	7693.37
496.436	7765.04
496.639	7998.51
496.843	7869.49
497.046	8051.76
497.249	8221.74
497.453	8154.16
497.656	8197.17
497.859	8207.41
498.063	8320.04
498.266	8573.99
498.469	8549.42
498.673	8627.24
498.876	8768.55
499.079	8725.54
499.282	8805.41
499.485	9079.84
499.689	9059.36
499.892	9051.17
500.095	9200.67
500.298	9366.56
500.501	9235.49
500.705	9624.6
500.908	9702.42
501.111	9995.28
501.314	9950.23
501.517	10038.29
501.72	10214.41
501.923	10177.55
502.126	10540.04
502.329	10464.27
502.532	10609.67
502.735	10494.99
502.938	10806.28
503.141	10730.5
503.344	10996.74
503.547	11144.19
503.75	11123.71
503.953	11443.2
504.156	11457.53
504.359	11473.92
504.562	11678.71
504.765	11936.76
504.968	11944.95
505.17	12196.85
505.373	12080.11
505.576	12473.32
505.779	12379.12
505.982	12588.01
506.185	12878.82
506.387	12876.77
506.59	12741.61
506.793	13151.2
506.996	12995.56
507.198	13655
507.401	13540.32
507.604	13720.54
507.807	13935.57
508.009	14052.31
508.212	14339.02
508.415	14328.78
508.617	14195.67
508.82	14386.13
509.022	14394.32
509.225	14986.18
509.428	14828.49
509.63	14994.37
509.833	15043.53
510.035	15610.81
510.238	15291.33
510.44	15815.61
510.643	15848.38
510.845	15981.49
511.048	16030.65
511.25	16094.13
511.453	16477.1
511.655	16921.51
511.858	16776.11
512.06	16976.81
512.262	16837.55
512.465	17079.21
512.667	17376.16
512.87	17472.42
513.072	17564.57
513.274	17810.33
513.477	18146.2
513.679	17996.7
513.881	18015.13
514.084	18635.66
514.286	18549.65
514.488	18930.57
514.69	19032.97
514.893	19354.5
515.095	19590.02
515.297	19899.26
515.499	19721.09
515.701	19968.89
515.904	20276.09
516.106	20327.28
516.308	20501.36
516.51	20841.32
516.712	20800.37
516.914	20947.82
517.116	21699.42
517.318	21261.16
517.52	21836.64
517.722	21732.19
517.925	22188.89
518.127	21992.28
518.329	22393.68
518.531	22135.64
518.733	22827.85
518.935	23214.92
519.136	22911.82
519.338	23171.91
519.54	23384.9
519.742	23356.23
519.944	23681.86
520.146	24220.47
520.348	24331.06
520.55	24349.5
520.752	24544.05
520.954	24873.78
521.155	24853.3
521.357	25017.13
521.559	25140.01
521.761	25649.96
521.963	25830.18
522.164	25672.48
522.366	26006.3
522.568	26108.7
522.77	26278.68
522.971	26792.72
523.173	26530.58
523.375	27110.16
523.576	26778.39
523.778	27038.48
523.98	27325.19
524.181	27648.77
524.383	27366.15
524.584	27863.81
524.786	27841.28
524.988	27927.3
525.189	27882.24
525.391	28269.31
525.592	28259.07
525.794	28558.07
525.995	28715.76
526.197	28777.2
526.398	28721.91
526.6	29098.73
526.801	29135.6
527.003	29616.87
527.204	29471.46
527.406	29627.11
527.607	29520.62
527.808	29643.49
528.01	29459.18
528.211	29537
528.412	30339.8
528.614	30493.4
528.815	30085.86
529.016	30491.35
529.218	30239.45
529.419	30477.02
529.62	30548.7
529.822	30282.46
530.023	30319.32
530.224	30665.43
530.425	30634.71
530.626	30438.11
530.828	30413.53
531.029	31072.98
531.23	30548.7
531.431	30780.12
531.632	31191.76
531.833	30905.04
532.035	31206.09
532.236	31062.74
532.437	31304.4
532.638	31044.3
532.839	31392.46
533.04	31537.87
533.241	31111.89
533.442	31857.35
533.643	31326.92
533.844	31306.44
534.045	31691.46
534.246	31408.84
534.447	31785.67
534.648	31433.42
534.849	31716.04
535.05	31316.68
535.251	31384.27
535.451	31443.66
535.652	31351.5
535.853	31521.48
536.054	31464.14
536.255	31695.56
536.456	31476.43
536.657	31961.79
536.857	31783.62
537.058	31548.11
537.259	31847.11
537.46	31642.31
537.66	31625.93
537.861	31679.18
538.062	31394.51
538.263	31787.72
538.463	31474.38
538.664	31740.61
538.865	31677.13
539.065	31589.06
539.266	31314.64
539.466	31627.98
539.667	31331.02
539.868	31982.27
540.068	31748.81
540.269	31711.94
540.469	32111.3
540.67	31443.66
540.87	31701.7
541.071	31460.04
541.271	31453.9
541.472	31544.01
541.672	31232.72
541.873	31249.1
542.073	31066.83
542.274	31789.77
542.474	31472.33
542.675	31283.92
542.875	31533.77
543.075	31195.85
543.276	31298.25
543.476	31843.01
543.676	31316.68
543.877	31599.3
544.077	31513.29
544.277	31333.07
544.478	31527.63
544.678	31812.29
544.878	31337.16
545.078	31165.14
545.279	31165.14
545.479	31302.35
545.679	31490.76
545.879	31312.59
546.079	31283.92
546.28	31017.68
546.48	31019.73
546.68	31410.89
546.88	31601.35
547.08	31349.45
547.28	31382.22
547.48	31253.2
547.68	31101.65
547.88	31154.9
548.081	31296.21
548.281	31380.17
548.481	30888.66
548.681	31388.36
548.881	31165.14
549.081	31269.58
549.28	30970.58
549.48	31251.15
549.68	31285.97
549.88	31732.42
550.08	30931.67
550.28	31433.42
550.48	30954.19
550.68	31300.3
550.88	30935.76
551.08	31238.86
551.279	31167.18
551.479	30890.71
551.679	31466.19
551.879	30984.91
552.079	31011.54
552.278	31173.33
552.478	31115.98
552.678	30935.76
552.878	30929.62
553.077	30816.98
553.277	30446.3
553.477	31445.71
553.676	30741.21
553.876	30872.28
554.076	30661.33
554.275	31081.17
554.475	30726.87
554.674	30773.97
554.874	30749.4
555.074	30999.25
555.273	30728.92
555.473	31152.85
555.672	30874.32
555.872	30696.15
556.071	30800.6
556.271	30632.66
556.47	30649.05
556.67	30169.82
556.869	30280.41
557.068	30681.81
557.268	30239.45
557.467	30253.79
557.667	30452.44
557.866	30522.07
558.065	30106.34
558.265	29954.79
558.464	29807.33
558.663	30393.05
558.863	29588.2
559.062	30112.48
559.261	29901.54
559.461	30233.31
559.66	29369.07
559.859	29817.57
560.058	29516.52
560.258	29784.8
560.457	29635.3
560.656	29915.87
560.855	29610.73
561.054	29594.34
561.253	29692.65
561.453	29580.01
561.652	29645.54
561.851	29647.59
562.05	29389.55
562.249	28934.9
562.448	29487.85
562.647	29031.15
562.846	28850.93
563.045	28951.28
563.244	28799.73
563.443	29336.3
563.642	28631.8
563.841	28830.45
564.04	28789.49
564.239	28918.51
564.438	28635.89
564.637	28877.55
564.836	28254.97
565.035	28306.17
565.234	28629.75
565.432	28144.38
565.631	28173.05
565.83	28590.84
566.029	28166.91
566.228	27785.99
566.427	28064.51
566.625	27722.5
566.824	27519.75
567.023	28136.19
567.222	27552.52
567.42	27734.79
567.619	27495.18
567.818	27595.53
568.016	27513.61
568.215	27560.71
568.414	27480.84
568.612	27532.04
568.811	27140.88
569.01	27452.17
569.208	27220.75
569.407	27159.31
569.605	26866.45
569.804	27081.49
570.002	26686.23
570.201	26954.51
570.4	26530.58
570.598	26587.92
570.797	26567.45
570.995	26741.52
571.193	26065.69
571.392	26743.57
571.59	26131.23
571.789	26352.41
571.987	26325.78
572.186	26153.76
572.384	26235.67
572.582	26215.19
572.781	25883.42
572.979	25594.66
573.177	25805.6
573.376	25846.56
573.574	25594.66
573.772	25656.1
573.971	25490.21
574.169	25281.32
574.367	25297.7
574.565	25547.56
574.763	25115.44
574.962	25168.68
575.16	25539.36
575.358	25228.07
575.556	24886.06
575.754	24959.79
575.952	24666.93
576.151	24886.06
576.349	24662.83
576.547	24656.69
576.745	24515.38
576.943	24568.63
577.141	24441.65
577.339	24339.26
577.537	24042.3
577.735	24435.51
577.933	24228.66
578.131	23948.09
578.329	23995.2
578.527	24087.36
578.725	23833.41
578.923	24085.31
579.121	23468.87
579.319	23610.18
579.516	23890.75
579.714	23784.26
579.912	23452.48
580.11	23694.15
580.308	23573.31
580.506	23380.81
580.704	22967.12
580.901	23202.63
581.099	23485.25
581.297	23098.19
581.495	22920.01
581.692	22993.74
581.89	22733.65
582.088	23077.71
582.285	22729.55
582.483	23163.72
582.681	22788.94
582.878	22616.91
583.076	22461.27
583.274	22514.52
583.471	22698.83
583.669	22514.52
583.866	22621.01
584.064	22340.44
584.262	22014.81
584.459	22504.28
584.657	22117.21
584.854	22315.86
585.052	21859.17
585.249	21957.47
585.447	22035.29
585.644	21730.14
585.841	21934.94
586.039	21971.8
586.236	21361.51
586.434	21799.77
586.631	21345.12
586.828	21027.69
587.026	21490.53
587.223	21341.03
587.42	20986.73
587.618	21308.26
587.815	21021.55
588.012	21058.41
588.21	21152.62
588.407	21289.83
588.604	20779.89
588.801	20657.01
588.999	20861.8
589.196	20769.65
589.393	20620.14
589.59	20491.12
589.787	20501.36
589.984	20360.05
590.182	20228.98
590.379	20667.25
590.576	20358
590.773	20312.95
590.97	20114.3
591.167	20358
591.364	19741.57
591.561	20024.19
591.758	19827.58
591.955	19866.49
592.152	19762.05
592.349	19739.52
592.546	19815.29
592.743	19768.19
592.94	19460.99
593.137	19659.65
593.334	19651.45
593.531	19434.37
593.727	19340.16
593.924	19282.82
594.121	19045.26
594.318	19297.16
594.515	19274.63
594.712	19110.79
594.908	18901.9
595.105	19067.78
595.302	18754.44
595.499	18998.15
595.696	18801.55
595.892	18693.01
596.089	18725.77
596.286	18662.29
596.482	18764.68
596.679	18566.03
596.876	18690.96
597.072	18295.7
597.269	18275.22
597.466	18406.29
597.662	18594.7
597.859	18111.38
598.055	18101.14
598.252	17857.43
598.448	17976.22
598.645	18097.05
598.841	17763.23
599.038	17918.87
599.234	17882.01
599.431	17832.86
599.627	17839
599.824	17757.08
600.02	17499.04
600.217	17691.55
600.413	17673.12
600.609	17261.48
600.806	17288.1
601.002	17441.7
601.198	17361.83
601.395	17269.67
601.591	17152.93
601.787	17224.61
601.984	17189.8
602.18	17365.92
602.376	16931.75
602.572	16778.15
602.769	16780.2
602.965	16767.91
603.161	16808.87
603.357	16606.13
603.553	16886.7
603.75	16522.16
603.946	16550.83
604.142	16647.08
604.338	16319.41
604.534	16438.19
604.73	16526.25
604.926	16335.79
605.122	16399.28
605.318	16233.39
605.514	16014.26
605.71	16001.97
605.906	15965.11
606.102	16141.24
606.298	16253.87
606.494	15840.18
606.69	16081.85
606.886	15862.71
607.082	15586.24
607.278	15885.24
607.474	15596.48
607.67	15647.68
607.866	15770.55
608.062	16010.17
608.257	15504.32
608.453	15840.18
608.649	15782.84
608.845	15498.17
609.041	15492.03
609.236	15543.23
609.432	15350.72
609.628	15446.97
609.824	15324.1
610.019	15385.54
610.215	15483.84
610.411	15393.73
610.606	14994.37
610.802	15195.07
610.998	15193.03
611.193	15182.79
611.389	15021
611.584	15109.06
611.78	15109.06
611.976	14707.66
612.171	14851.02
612.367	14943.17
612.562	14533.58
612.758	14681.03
612.953	14476.24
613.149	15027.14
613.344	14625.74
613.539	14853.06
613.735	14715.85
613.93	14945.22
614.126	14523.34
614.321	14740.43
614.517	14457.81
614.712	14472.14
614.907	14318.54
615.103	14375.89
615.298	14459.85
615.493	14576.59
615.688	14189.52
615.884	14482.38
616.079	14216.15
616.274	14613.45
616.47	14244.82
616.665	14347.22
616.86	13999.06
617.055	14072.79
617.25	14351.31
617.445	14330.83
617.641	13956.05
617.836	14111.7
618.031	13790.17
618.226	14232.53
618.421	13741.02
618.616	14013.4
618.811	13736.92
619.006	13882.33
619.201	13335.52
619.396	13603.8
619.591	13540.32
619.786	13593.56
619.981	13491.16
620.176	13755.35
620.371	13161.44
620.566	13263.84
620.761	13167.59
620.956	13528.03
621.151	13044.71
621.346	13241.31
621.541	12901.35
621.735	13011.94
621.93	12739.56
622.125	12784.62
622.32	12862.44
622.515	12821.48
622.709	12663.79
622.904	12561.39
623.099	12542.96
623.294	12493.8
623.488	12202.99
623.683	12721.13
623.878	12137.46
624.072	12200.94
624.267	12241.9
624.462	12217.33
624.656	11881.46
624.851	11906.04
625.046	12071.92
625.24	11938.8
625.435	11930.61
625.629	11740.15
625.824	11824.12
626.018	11699.19
626.213	11512.83
626.407	11611.13
626.602	11269.12
626.796	11432.96
626.991	11197.44
627.185	11281.41
627.38	11037.7
627.574	11144.19
627.768	11205.63
627.963	11154.43
628.157	11031.55
628.352	11041.79
628.546	10734.6
628.74	10818.57
628.935	10460.17
629.129	10683.4
629.323	10662.92
629.517	10460.17
629.712	10435.6
629.906	10615.82
630.1	10210.32
630.294	10257.42
630.489	10365.96
630.683	10249.23
630.877	10112.02
631.071	10019.86
631.265	10202.13
631.459	10107.92
631.653	9862.16
631.848	9933.84
632.042	9757.72
632.236	9741.33
632.43	9749.53
632.624	9702.42
632.818	9395.23
633.012	9698.33
633.206	9372.7
633.4	9454.62
633.594	9540.63
633.788	9425.95
633.982	9497.63
634.176	9255.97
634.369	9335.84
634.563	8924.19
634.757	9114.66
634.951	9348.12
635.145	9141.28
635.339	9032.74
635.533	8854.56
635.726	8832.04
635.92	8913.95
636.114	8971.3
636.308	8711.21
636.501	8916
636.695	8793.12
636.889	8477.74
637.083	8657.96
637.276	8752.17
637.47	8469.55
637.664	8500.26
637.857	8539.18
638.051	8297.52
638.244	8272.94
638.438	8174.64
638.632	8182.83
638.825	8213.55
639.019	8381.48
639.212	8027.18
639.406	8215.6
639.599	8098.86
639.793	7969.84
639.986	8107.05
640.18	7918.64
640.373	7935.03
640.567	7670.84
640.76	7830.58
640.954	7736.37
641.147	7689.27
641.34	7654.45
641.534	7625.78
641.727	7486.52
641.92	7420.99
642.114	7326.78
642.307	7404.6
642.5	7494.71
642.694	7398.46
642.887	7314.49
643.08	7302.2
643.273	7289.92
643.467	7201.85
643.66	7203.9
643.853	7105.6
644.046	6915.14
644.239	7269.44
644.432	6947.9
644.626	7013.44
644.819	7017.54
645.012	6876.23
645.205	6933.57
645.398	6837.31
645.591	6798.4
645.784	6691.91
645.977	6726.72
646.17	6790.21
646.363	6636.61
646.556	6573.13
646.749	6526.02
646.942	6591.56
647.135	6593.61
647.328	6511.69
647.521	6503.5
647.714	6327.37
647.907	6384.71
648.099	6310.99
648.292	6421.58
648.485	6374.47
648.678	6317.13
648.871	6245.45
649.064	6052.94
649.256	6270.03
649.449	6100.05
649.642	6014.03
649.835	5944.4
650.027	6081.61
650.22	5985.36
650.413	5983.31
650.605	6028.37
650.798	5880.91
650.991	5704.79
651.183	6007.89
651.376	5811.28
651.568	5862.48
651.761	5815.38
651.954	5776.47
652.146	5667.92
652.339	5784.66
652.531	5614.68
652.724	5569.62
652.916	5569.62
653.109	5514.33
653.301	5551.19
653.494	5729.36
653.686	5381.21
653.879	5405.78
654.071	5469.27
654.263	5422.17
654.456	5483.61
654.648	5373.02
654.84	5270.62
655.033	5153.88
655.225	5166.17
655.417	5227.61
655.61	5186.65
655.802	5239.9
655.994	5043.29
656.186	5229.66
656.379	5055.58
656.571	5127.26
656.763	4801.63
656.955	5067.87
657.148	5026.91
657.34	4910.18
657.532	4840.54
657.724	4953.18
657.916	4766.82
658.108	4822.11
658.3	4824.16
658.492	4758.63
658.684	4713.57
658.876	4680.8
659.068	4678.76
659.26	4621.41
659.452	4476.01
659.644	4541.54
659.836	4508.77
660.028	4580.45
660.22	4529.25
660.412	4512.87
660.604	4519.01
660.796	4400.23
660.988	4494.44
661.18	4336.74
661.372	4371.56
661.563	4435.05
661.755	4443.24
661.947	4340.84
662.139	4371.56
662.331	4260.97
662.522	4332.65
662.714	4199.53
662.906	4217.96
663.097	4150.38
663.289	4275.31
663.481	4117.61
663.673	4168.81
663.864	4162.67
664.056	4041.84
664.247	4054.12
664.439	4021.36
664.631	4037.74
664.822	3996.78
665.014	3984.49
665.205	4015.21
665.397	3888.24
665.588	3980.4
665.78	3804.27
665.971	3900.53
666.163	3808.37
666.354	3740.79
666.546	3775.6
666.737	3748.98
666.929	3665.01
667.12	3755.12
667.311	3748.98
667.503	3648.63
667.694	3763.31
667.885	3658.87
668.077	3740.79
668.268	3589.24
668.459	3642.48
668.651	3595.38
668.842	3486.84
669.033	3624.05
669.224	3554.42
669.416	3607.67
669.607	3652.72
669.798	3558.52
669.989	3611.76
670.18	3654.77
670.371	3406.97
670.563	3503.22
670.754	3466.36
670.945	3409.01
671.136	3433.59
671.327	3425.4
671.518	3363.96
671.709	3355.77
671.9	3435.64
672.091	3486.84
672.282	3419.25
672.473	3323
672.664	3372.15
672.855	3167.35
673.046	3361.91
673.237	3282.04
673.428	3183.74
673.619	3171.45
673.809	3159.16
674	3171.45
674.191	3083.39
674.382	3157.11
674.573	3150.97
674.764	3144.83
674.954	3167.35
675.145	3079.29
675.336	3087.48
675.527	3038.33
675.717	2972.8
675.908	2964.61
676.099	2976.89
676.289	3044.48
676.48	3038.33
676.671	2958.46
676.861	3040.38
677.052	3075.2
677.243	2862.21
677.433	2985.09
677.624	3044.48
677.814	2825.34
678.005	2919.55
678.195	2980.99
678.386	2829.44
678.576	2819.2
678.767	2880.64
678.957	2843.78
679.148	2876.54
679.338	2843.78
679.529	2903.17
679.719	2933.89
679.909	2720.9
680.1	3005.56
680.29	2817.15
680.481	2796.67
680.671	2684.03
680.861	2819.2
681.052	2788.48
681.242	2727.04
681.432	2714.75
681.622	2669.7
681.813	2610.31
682.003	2802.82
682.193	2647.17
682.383	2684.03
682.573	2620.55
682.764	2747.52
682.954	2638.98
683.144	2724.99
683.334	2806.91
683.524	2753.66
683.714	2632.83
683.904	2677.89
684.094	2659.46
684.284	2743.42
684.474	2604.16
684.664	2632.83
684.854	2567.3
685.044	2626.69
685.234	2495.62
685.424	2583.68
685.614	2522.24
685.804	2632.83
685.994	2532.48
686.184	2489.48
686.374	2458.76
686.564	2438.28
686.753	2540.68
686.943	2462.85
687.133	2481.28
687.323	2411.65
687.513	2401.41
687.702	2378.89
687.892	2413.7
688.082	2415.75
688.272	2481.28
688.461	2342.02
688.651	2497.67
688.841	2464.9
689.03	2522.24
689.22	2268.3
689.41	2399.37
689.599	2348.17
689.789	2227.34
689.979	2378.89
690.168	2350.21
690.358	2370.69
690.547	2309.26
690.737	2419.85
690.926	2278.54
691.116	2288.78
691.305	2344.07
691.495	2288.78
691.684	2299.02
691.874	2174.09
692.063	2221.19
692.252	2126.99
692.442	2315.4
692.631	2167.95
692.82	2161.8
693.01	2151.56
693.199	2290.82
693.388	2114.7
693.578	2169.99
693.767	2202.76
693.956	2141.32
694.146	2157.71
694.335	2147.47
694.524	2122.89
694.713	2149.51
694.902	2104.46
695.092	2086.03
695.281	2081.93
695.47	1936.53
695.659	2069.64
695.848	2022.54
696.037	2038.92
696.226	2186.38
696.415	2090.12
696.604	2116.75
696.793	1967.24
696.982	2100.36
697.171	2145.42
697.36	2167.95
697.549	1997.96
697.738	2010.25
697.927	2069.64
698.116	2092.17
698.305	2049.16
698.494	1991.82
698.683	2043.02
698.872	2028.68
699.061	2090.12
699.25	2030.73
699.438	2135.18
699.627	2030.73
699.816	2102.41
700.005	1936.53
700.193	2016.4
700.382	2055.31
700.571	2122.89
700.76	2139.27
700.948	2006.16
701.137	1997.96
701.326	1977.48
701.514	1989.77
701.703	2071.69
701.892	2137.23
702.08	2143.37
702.269	2069.64
702.457	2133.13
702.646	2065.55
702.834	2092.17
703.023	1989.77
703.212	1952.91
703.4	2118.79
703.589	2116.75
703.777	2157.71
703.965	2020.49
704.154	1997.96
704.342	2002.06
704.531	1914
704.719	2045.07
704.907	2102.41
705.096	2106.51
705.284	1907.85
705.472	2008.2
705.661	2010.25
705.849	1977.48
706.037	2010.25
706.226	1961.1
706.414	2000.01
706.602	1954.96
706.79	2071.69
706.979	1967.24
707.167	1971.34
707.355	2024.59
707.543	2049.16
707.731	2057.36
707.919	1981.58
708.107	2014.35
708.296	2016.4
708.484	1993.87
708.672	2098.31
708.86	2055.31
709.048	1989.77
709.236	2008.2
709.424	2112.65
709.612	2061.45
709.8	1969.29
709.988	2024.59
710.176	2069.64
710.364	2018.44
710.551	1932.43
710.739	1985.68
710.927	1967.24
711.115	1973.39
711.303	1997.96
711.491	1995.92
711.679	1944.72
711.866	1967.24
712.054	2022.54
712.242	1897.61
712.43	2012.3
712.617	2032.78
712.805	2012.3
712.993	1883.28
713.181	1934.48
713.368	1975.44
713.556	2108.55
713.744	1940.62
713.931	2061.45
714.119	1914
714.306	1997.96
714.494	1911.95
714.682	1911.95
714.869	1946.76
715.057	1954.96
715.244	1954.96
715.432	2000.01
715.619	1952.91
715.807	1944.72
715.994	1905.81
716.182	1991.82
716.369	1932.43
716.556	1928.33
716.744	1942.67
716.931	1862.8
717.119	1940.62
717.306	1905.81
717.493	1889.42
717.681	1987.72
717.868	1899.66
718.055	1823.89
718.242	1914
718.43	1940.62
718.617	2026.64
718.804	1885.33
718.991	1969.29
719.179	1918.09
719.366	1924.24
719.553	1887.37
719.74	1879.18
719.927	1965.2
720.114	1903.76
720.301	1944.72
720.488	1815.69
720.676	1957
720.863	1866.89
721.05	1942.67
721.237	1885.33
721.424	1911.95
721.611	1909.9
721.798	1879.18
721.985	1901.71
722.172	1897.61
722.358	1987.72
722.545	1920.14
722.732	1821.84
722.919	1969.29
723.106	1905.81
723.293	1942.67
723.48	1817.74
723.667	1920.14
723.853	1825.93
724.04	1873.04
724.227	1916.05
724.414	1922.19
724.6	1832.08
724.787	1879.18
724.974	1903.76
725.161	1830.03
725.347	1780.88
725.534	1899.66
725.72	1887.37
725.907	1813.65
726.094	1807.5
726.28	1834.13
726.467	1891.47
726.653	1854.61
726.84	1754.26
727.027	1942.67
727.213	1735.82
727.4	1936.53
727.586	1840.27
727.773	1924.24
727.959	1895.57
728.145	1922.19
728.332	1819.79
728.518	1741.97
728.705	1862.8
728.891	1746.06
729.077	1791.12
729.264	1789.07
729.45	1817.74
729.636	1891.47
729.823	1815.69
730.009	1750.16
730.195	1741.97
730.382	1840.27
730.568	1901.71
730.754	1815.69
730.94	1815.69
731.126	1782.93
731.313	1903.76
731.499	1825.93
731.685	1750.16
731.871	1887.37
732.057	1916.05
732.243	1850.51
732.429	1924.24
732.615	1862.8
732.801	1774.74
732.987	1780.88
733.173	1811.6
733.359	1735.82
733.545	1780.88
733.731	1778.83
733.917	1926.29
734.103	1746.06
734.289	1780.88
734.475	1787.02
734.661	1911.95
734.847	1875.09
735.033	1842.32
735.219	1744.02
735.404	1797.26
735.59	1754.26
735.776	1733.78
735.962	1727.63
736.148	1791.12
736.333	1719.44
736.519	1817.74
736.705	1735.82
736.89	1633.43
737.076	1815.69
737.262	1746.06
737.447	1707.15
737.633	1780.88
737.819	1655.95
738.004	1784.98
738.19	1768.59
738.375	1670.29
738.561	1789.07
738.747	1627.28
738.932	1649.81
739.118	1760.4
739.303	1690.77
739.489	1602.71
739.674	1719.44
739.859	1676.43
740.045	1592.47
740.23	1692.82
740.416	1623.19
740.601	1625.23
740.786	1735.82
740.972	1631.38
741.157	1643.67
741.342	1625.23
741.528	1537.17
741.713	1703.06
741.898	1565.84
742.084	1617.04
742.269	1670.29
742.454	1608.85
742.639	1666.19
742.824	1574.03
743.01	1631.38
743.195	1631.38
743.38	1494.16
743.565	1512.6
743.75	1641.62
743.935	1567.89
744.12	1571.99
744.305	1571.99
744.49	1627.28
744.675	1520.79
744.86	1461.4
745.045	1574.03
745.23	1506.45
745.415	1512.6
745.6	1578.13
745.785	1406.1
745.97	1496.21
746.155	1522.84
746.34	1483.92
746.525	1506.45
746.71	1457.3
746.895	1422.48
747.079	1410.2
747.264	1451.16
747.449	1371.29
747.634	1490.07
747.819	1379.48
748.003	1377.43
748.188	1383.57
748.373	1383.57
748.557	1500.31
748.742	1356.95
748.927	1232.02
749.111	1299.61
749.296	1356.95
749.481	1328.28
749.665	1402.01
749.85	1318.04
750.034	1279.13
750.219	1402.01
750.404	1285.27
750.588	1313.94
750.773	1289.37
750.957	1295.51
751.141	1256.6
751.326	1266.84
751.51	1242.26
751.695	1252.5
751.879	1326.23
752.064	1223.83
752.248	1305.75
752.432	1256.6
752.617	1258.65
752.801	1084.57
752.985	1219.74
753.17	1293.46
753.354	1170.58
753.538	1137.82
753.722	1111.19
753.907	1162.39
754.091	1072.28
754.275	1072.28
754.459	1105.05
754.643	1100.95
754.828	1115.29
755.012	1166.49
755.196	1004.7
755.38	1150.11
755.564	965.79
755.748	1143.96
755.932	1152.15
756.116	1066.14
756.3	1105.05
756.484	1047.71
756.668	1025.18
756.852	1019.04
757.036	1094.81
757.22	1010.84
757.404	990.36
757.588	933.02
757.772	1016.99
757.956	1016.99
758.14	1035.42
758.323	990.36
758.507	853.15
758.691	928.92
758.875	881.82
759.059	906.4
759.242	859.29
759.426	920.73
759.61	1004.7
759.794	1035.42
759.977	935.07
760.161	1014.94
760.345	935.07
760.528	926.88
760.712	926.88
760.895	953.5
761.079	865.44
761.263	838.81
761.446	920.73
761.63	922.78
761.813	926.88
761.997	912.54
762.18	904.35
762.364	930.97
762.547	926.88
762.731	853.15
762.914	863.39
763.098	908.44
763.281	902.3
763.464	865.44
763.648	873.63
763.831	859.29
764.015	793.76
764.198	832.67
764.381	810.14
764.564	859.29
764.748	785.57
764.931	795.81
765.114	810.14
765.297	902.3
765.481	771.23
765.664	777.37
765.847	806.05
766.03	787.61
766.213	775.33
766.397	855.2
766.58	859.29
766.763	810.14
766.946	756.9
767.129	771.23
767.312	756.9
767.495	791.71
767.678	812.19
767.861	707.74
768.044	720.03
768.227	740.51
768.41	783.52
768.593	793.76
768.776	728.22
768.959	758.94
769.142	773.28
769.324	691.36
769.507	887.97
769.69	711.84
769.873	679.07
770.056	822.43
770.239	699.55
770.421	801.95
770.604	724.13
770.787	640.16
770.97	746.66
771.152	730.27
771.335	742.56
771.518	672.93
771.7	734.37
771.883	732.32
772.066	687.26
772.248	672.93
772.431	674.98
772.613	646.3
772.796	634.02
772.978	689.31
773.161	588.96
773.343	713.89
773.526	615.59
773.708	656.54
773.891	588.96
774.073	584.87
774.256	625.83
774.438	683.17
774.621	617.63
774.803	601.25
774.985	591.01
775.168	728.22
775.35	644.26
775.532	605.35
775.715	646.3
775.897	609.44
776.079	523.43
776.261	597.15
776.444	642.21
776.626	586.91
776.808	511.14
776.99	629.92
777.173	584.87
777.355	521.38
777.537	576.67
777.719	578.72
777.901	548
778.083	611.49
778.265	535.71
778.447	552.1
778.629	537.76
778.811	550.05
778.993	556.19
779.175	558.24
779.357	521.38
779.539	523.43
779.721	474.28
779.903	496.8
780.085	502.95
780.267	511.14
780.449	490.66
780.631	515.23
780.812	523.43
780.994	496.8
781.176	459.94
781.358	621.73
781.54	509.09
781.721	490.66
781.903	451.75
782.085	447.65
782.267	445.6
782.448	412.84
782.63	412.84
782.812	476.32
782.993	457.89
783.175	433.32
783.357	406.69
783.538	464.04
783.72	451.75
783.901	414.88
784.083	457.89
784.264	496.8
784.446	359.59
784.627	306.34
784.809	416.93
784.99	447.65
785.172	429.22
785.353	492.71
785.535	427.17
785.716	361.64
785.897	357.54
786.079	425.12
786.26	449.7
786.441	388.26
786.623	335.01
786.804	410.79
786.985	427.17
787.167	416.93
787.348	427.17
787.529	439.46
787.71	427.17
787.891	392.36
788.073	378.02
788.254	277.67
788.435	416.93
788.616	380.07
788.797	380.07
788.978	324.77
789.159	345.25
789.34	386.21
789.522	388.26
789.703	330.92
789.884	318.63
790.065	328.87
790.246	312.49
790.427	283.81
790.607	363.69
790.788	384.16
790.969	324.77
791.15	392.36
791.331	257.19
791.512	306.34
791.693	302.25
791.874	253.09
792.054	355.49
792.235	310.44
792.416	341.16
792.597	265.38
792.778	287.91
792.958	287.91
793.139	275.62
793.32	269.48
793.5	298.15
793.681	259.24
793.862	238.76
794.042	265.38
794.223	279.72
794.404	289.96
794.584	310.44
794.765	318.63
794.945	228.52
795.126	300.2
795.306	265.38
795.487	277.67
795.667	318.63
795.848	294.05
796.028	191.66
796.209	285.86
796.389	300.2
796.57	316.58
796.75	259.24
796.93	281.77
797.111	287.91
797.291	249
797.471	208.04
797.652	263.33
797.832	257.19
798.012	255.14
798.192	212.14
798.373	183.46
798.553	249
798.733	289.96
798.913	242.85
799.093	249
799.274	224.42
799.454	294.05
799.634	257.19
799.814	214.18
799.994	187.56
800.174	199.85
800.354	179.37
800.534	165.03
800.714	228.52
800.894	197.8
801.074	224.42
801.254	132.26
801.434	285.86
801.614	234.66
801.794	246.95
801.974	562.34
802.154	195.75
802.334	316.58
802.514	162.98
802.693	179.37
802.873	152.74
803.053	193.7
803.233	107.69
803.413	212.14
803.592	208.04
803.772	244.9
803.952	201.9
804.131	230.57
804.311	203.94
804.491	191.66
804.67	216.23
804.85	119.98
805.03	181.42
805.209	277.67
805.389	134.31
805.568	122.02
805.748	169.13
805.928	146.6
806.107	201.9
806.287	181.42
806.466	271.53
806.646	169.13
806.825	124.07
807.004	146.6
807.184	183.46
807.363	95.4
807.543	150.7
807.722	142.5
807.901	249
808.081	150.7
808.26	156.84
808.439	193.7
808.619	115.88
808.798	181.42
808.977	179.37
809.156	144.55
809.336	109.74
809.515	165.03
809.694	148.65
809.873	158.89
810.052	68.78
810.231	173.22
810.411	130.22
810.59	197.8
810.769	154.79
810.948	111.78
811.127	103.59
811.306	146.6
811.485	201.9
811.664	150.7
811.843	169.13
812.022	101.55
812.201	124.07
812.38	173.22
812.559	193.7
812.737	105.64
812.916	124.07
813.095	119.98
813.274	150.7
813.453	142.5
813.632	195.75
813.811	162.98
813.989	138.41
814.168	107.69
814.347	11.43
814.526	119.98
814.704	183.46
814.883	152.74
815.062	146.6
815.24	195.75
815.419	19.63
815.598	130.22
815.776	119.98
815.955	201.9
816.133	122.02
816.312	93.35
816.49	103.59
816.669	136.36
816.847	191.66
817.026	107.69
817.204	113.83
817.383	85.16
817.561	154.79
817.74	68.78
817.918	103.59
818.097	109.74
818.275	136.36
818.453	66.73
818.632	195.75
818.81	101.55
818.988	117.93
819.167	189.61
819.345	148.65
819.523	70.83
819.701	179.37
819.879	74.92
820.058	109.74
820.236	165.03
820.414	81.07
820.592	95.4
820.77	101.55
820.948	83.11
821.127	105.64
821.305	87.21
821.483	85.16
821.661	111.78
821.839	66.73
822.017	83.11
822.195	109.74
822.373	158.89
822.551	109.74
822.729	99.5
822.907	103.59
823.085	101.55
823.262	87.21
823.44	62.63
823.618	56.49
823.796	62.63
823.974	126.12
824.152	113.83
824.329	31.91
824.507	56.49
824.685	95.4
824.863	107.69
825.04	79.02
825.218	97.45
825.396	76.97
825.574	44.2
825.751	70.83
825.929	150.7
826.107	3.24
826.284	29.87
826.462	208.04
826.639	54.44
826.817	119.98
826.994	56.49
827.172	27.82
827.349	101.55
827.527	109.74
827.704	40.11
827.882	68.78
828.059	48.3
828.237	81.07
828.414	128.17
828.591	19.63
828.769	89.26
828.946	15.53
829.124	81.07
829.301	183.46
829.478	117.93
829.655	31.91
829.833	95.4
830.01	54.44
830.187	156.84
830.364	60.59
830.542	101.55
830.719	107.69
830.896	85.16
831.073	23.72
831.25	89.26
831.427	85.16
831.604	62.63
831.782	25.77
831.959	66.73
832.136	38.06
832.313	91.31
832.49	101.55
832.667	48.3
832.844	33.96
833.021	52.39
833.198	31.91
833.374	81.07
833.551	109.74
833.728	83.11
833.905	76.97
834.082	132.26
834.259	42.15
834.436	132.26
834.612	-25.43
834.789	64.68
834.966	38.06
835.143	66.73
835.319	93.35
835.496	54.44
835.673	83.11
835.85	179.37
836.026	99.5
836.203	115.88
836.38	-7
836.556	66.73
836.733	27.82
836.909	95.4
837.086	72.87
837.262	-29.52
837.439	70.83
837.616	19.63
837.792	44.2
837.968	-27.48
838.145	7.34
838.321	38.06
838.498	33.96
838.674	87.21
838.851	40.11
839.027	7.34
839.203	81.07
839.38	87.21
839.556	56.49
839.732	54.44
839.909	76.97
840.085	25.77
840.261	-7
840.437	87.21
840.614	81.07
840.79	29.87
840.966	40.11
841.142	50.35
841.318	46.25
841.494	44.2
841.671	117.93
841.847	21.67
842.023	31.91
842.199	58.54
842.375	52.39
842.551	13.48
842.727	13.48
842.903	95.4
843.079	-29.52
843.255	54.44
843.431	74.92
843.607	40.11
843.783	27.82
843.959	3.24
844.134	68.78
844.31	117.93
844.486	-15.19
844.662	76.97
844.838	50.35
845.013	105.64
845.189	52.39
845.365	27.82
845.541	42.15
845.716	23.72
845.892	93.35
846.068	33.96
846.244	-15.19
846.419	52.39
846.595	17.58
846.77	36.01
846.946	27.82
847.122	72.87
847.297	7.34
847.473	-4.95
847.648	-19.29
847.824	64.68
847.999	23.72
848.175	54.44
848.35	72.87
848.526	117.93
848.701	113.83
848.876	-41.81
849.052	38.06
849.227	46.25
849.403	27.82
849.578	3.24
849.753	7.34
849.929	91.31
850.104	-7
850.279	-25.43
850.454	85.16
850.63	99.5
850.805	23.72
850.98	36.01
851.155	62.63
851.33	54.44
851.505	1.19
851.681	107.69
851.856	64.68
852.031	33.96
852.206	83.11
852.381	68.78
852.556	93.35
852.731	42.15
852.906	56.49
853.081	83.11
853.256	5.29
853.431	54.44
853.606	-0.85
853.781	36.01
853.956	-15.19
854.131	60.59
854.305	38.06
854.48	1.19
854.655	-2.9
854.83	33.96
855.005	-7
855.18	25.77
855.354	-21.33
855.529	48.3
855.704	38.06
855.879	76.97
856.053	21.67
856.228	-0.85
856.403	5.29
856.577	72.87
856.752	25.77
856.926	52.39
857.101	38.06
857.276	31.91
857.45	52.39
857.625	-15.19
857.799	13.48
857.974	105.64
858.148	-37.72
858.323	91.31
858.497	-41.81
858.672	-9.05
858.846	-31.57
859.02	-64.34
859.195	89.26
859.369	21.67
859.543	31.91
859.718	-0.85
859.892	25.77
860.066	117.93
860.241	13.48
860.415	87.21
860.589	66.73
860.763	-4.95
860.938	15.53
861.112	72.87
861.286	-9.05
861.46	83.11
861.634	29.87
861.808	5.29
861.982	15.53
862.157	42.15
862.331	17.58
862.505	-13.14
862.679	46.25
862.853	48.3
863.027	48.3
863.201	25.77
863.375	21.67
863.549	-11.09
863.722	87.21
863.896	113.83
864.07	-31.57
864.244	-15.19
864.418	85.16
864.592	93.35
864.766	19.63
864.939	66.73
865.113	107.69
865.287	50.35
865.461	11.43
865.634	-9.05
865.808	-17.24
865.982	11.43
866.156	31.91
866.329	-45.91
866.503	58.54
866.676	93.35
866.85	68.78
867.024	87.21
867.197	66.73
867.371	-21.33
867.544	33.96
867.718	99.5
867.891	-4.95
868.065	11.43
868.238	17.58
868.412	97.45
868.585	15.53
868.759	52.39
868.932	27.82
869.105	-21.33
869.279	-17.24
869.452	21.67
869.625	29.87
869.799	-56.15
869.972	-9.05
870.145	95.4
870.319	36.01
870.492	-45.91
870.665	-64.34
870.838	13.48
871.011	23.72
871.185	64.68
871.358	-37.72
871.531	89.26
871.704	-23.38
871.877	27.82
872.05	19.63
872.223	-15.19
872.396	74.92
872.569	33.96
872.742	19.63
872.915	29.87
873.088	-2.9
873.261	74.92
873.434	72.87
873.607	23.72
873.78	66.73
873.953	101.55
874.126	44.2
874.299	64.68
874.471	25.77
874.644	70.83
874.817	-4.95
874.99	40.11
875.163	23.72
875.335	3.24
875.508	9.39
875.681	60.59
875.853	5.29
876.026	-9.05
876.199	122.02
876.371	-21.33
876.544	11.43
876.717	64.68
876.889	-39.76
877.062	85.16
877.234	-47.96
877.407	62.63
877.579	21.67
877.752	-7
877.924	48.3
878.097	25.77
878.269	11.43
878.442	40.11
878.614	-37.72
878.786	9.39
878.959	7.34
879.131	56.49
879.303	7.34
879.476	15.53
879.648	58.54
879.82	58.54
879.993	-74.58
880.165	56.49
880.337	19.63
880.509	38.06
880.681	1.19
880.854	19.63
881.026	-90.96
881.198	50.35
881.37	36.01
881.542	56.49
881.714	31.91
881.886	13.48
882.058	19.63
882.23	7.34
882.402	11.43
882.574	-50
882.746	33.96
882.918	76.97
883.09	-35.67
883.262	11.43
883.434	72.87
883.606	-7
883.778	21.67
883.95	72.87
884.122	29.87
884.293	-27.48
884.465	-7
884.637	64.68
884.809	38.06
884.98	48.3
885.152	-9.05
885.324	44.2
885.496	-21.33
885.667	-41.81
885.839	9.39
886.011	-4.95
886.182	58.54
886.354	19.63
886.525	64.68
886.697	56.49
886.869	5.29
887.04	52.39
887.212	40.11
887.383	62.63
887.555	33.96
887.726	-45.91
887.897	-9.05
888.069	79.02
888.24	-19.29
888.412	31.91
888.583	-29.52
888.754	-47.96
888.926	-19.29
889.097	3.24
889.268	-19.29
889.44	-11.09
889.611	-17.24
889.782	23.72
889.953	5.29
890.125	19.63
890.296	25.77
890.467	79.02
890.638	-4.95
890.809	-7
890.98	13.48
891.151	72.87
891.323	17.58
891.494	3.24
891.665	-52.05
891.836	40.11
892.007	58.54
892.178	105.64
892.349	36.01
892.52	38.06
892.691	19.63
892.862	-33.62
893.032	-7
893.203	33.96
893.374	42.15
893.545	44.2
893.716	1.19
893.887	72.87
894.057	31.91
894.228	29.87
894.399	11.43
894.57	3.24
894.74	44.2
894.911	25.77
895.082	-9.05
895.253	-68.44
895.423	56.49
895.594	76.97
895.764	19.63
895.935	76.97
896.106	-11.09
896.276	-9.05
896.447	-2.9
896.617	3.24
896.788	-13.14
896.958	60.59
897.129	3.24
897.299	13.48
897.47	7.34
897.64	19.63
897.81	-35.67
897.981	74.92
898.151	-56.15
898.322	-27.48
898.492	36.01
898.662	27.82
898.832	-15.19
899.003	9.39
899.173	19.63
899.343	66.73
899.513	-11.09
