Data from USB4F104151__85__11-06-36-405.txt Node

Date: Wed Mar 12 11:06:36 EDT 2025
User: louis
Spectrometer: USB4F10415
Trigger mode: 4
Integration Time (sec): 2.000000E-2
Scans to average: 1
Electric dark correction enabled: true
Nonlinearity correction enabled: false
Boxcar width: 0
XAxis mode: Wavelengths
Number of Pixels in Spectrum: 3648
>>>>>Begin Spectral Data<<<<<
178.204	-97.28
178.424	-97.28
178.644	-97.28
178.864	35.84
179.084	-46.08
179.304	-3.07
179.524	-21.5
179.744	7.17
179.964	1.02
180.184	-41.98
180.404	29.7
180.624	9.22
180.844	-41.98
181.064	-5.12
181.283	48.13
181.503	7.17
181.723	11.26
181.943	13.31
182.163	66.56
182.383	60.42
182.602	52.22
182.822	35.84
183.042	103.42
183.262	9.22
183.482	62.46
183.701	-9.22
183.921	29.7
184.141	1.02
184.361	31.74
184.58	50.18
184.8	1.02
185.02	31.74
185.239	105.47
185.459	41.98
185.679	64.51
185.898	44.03
186.118	3.07
186.338	44.03
186.557	62.46
186.777	62.46
186.997	-27.65
187.216	-27.65
187.436	78.85
187.655	-15.36
187.875	33.79
188.095	29.7
188.314	25.6
188.534	27.65
188.753	93.18
188.973	68.61
189.192	78.85
189.412	35.84
189.631	78.85
189.851	37.89
190.07	50.18
190.29	7.17
190.509	9.22
190.729	76.8
190.948	60.42
191.168	68.61
191.387	21.5
191.607	1.02
191.826	-39.94
192.045	41.98
192.265	41.98
192.484	5.12
192.704	27.65
192.923	58.37
193.142	91.13
193.362	74.75
193.581	80.89
193.8	128
194.02	56.32
194.239	-19.46
194.458	54.27
194.678	76.8
194.897	60.42
195.116	-29.7
195.335	35.84
195.555	-15.36
195.774	103.42
195.993	91.13
196.212	44.03
196.432	1.02
196.651	-37.89
196.87	48.13
197.089	97.28
197.308	72.7
197.528	101.37
197.747	-5.12
197.966	1.02
198.185	119.81
198.404	-17.41
198.623	58.37
198.842	119.81
199.062	105.47
199.281	-3.07
199.5	27.65
199.719	13.31
199.938	44.03
200.157	-27.65
200.376	103.42
200.595	123.9
200.814	62.46
201.033	56.32
201.252	35.84
201.471	29.7
201.69	52.22
201.909	74.75
202.128	9.22
202.347	7.17
202.566	62.46
202.785	17.41
203.004	5.12
203.223	31.74
203.442	-46.08
203.661	-39.94
203.879	27.65
204.098	64.51
204.317	48.13
204.536	60.42
204.755	87.04
204.974	50.18
205.193	54.27
205.411	62.46
205.63	99.33
205.849	9.22
206.068	50.18
206.287	-9.22
206.505	33.79
206.724	27.65
206.943	56.32
207.162	17.41
207.381	-48.13
207.599	13.31
207.818	60.42
208.037	25.6
208.255	29.7
208.474	29.7
208.693	27.65
208.911	1.02
209.13	48.13
209.349	17.41
209.567	74.75
209.786	27.65
210.005	41.98
210.223	70.65
210.442	-5.12
210.661	-25.6
210.879	103.42
211.098	-27.65
211.316	-13.31
211.535	44.03
211.753	15.36
211.972	54.27
212.191	37.89
212.409	97.28
212.628	-5.12
212.846	7.17
213.065	58.37
213.283	103.42
213.502	62.46
213.72	48.13
213.938	72.7
214.157	46.08
214.375	17.41
214.594	11.26
214.812	58.37
215.031	13.31
215.249	46.08
215.467	-19.46
215.686	27.65
215.904	27.65
216.122	21.5
216.341	140.29
216.559	84.99
216.778	62.46
216.996	-9.22
217.214	68.61
217.432	29.7
217.651	72.7
217.869	72.7
218.087	7.17
218.306	21.5
218.524	54.27
218.742	130.05
218.96	31.74
219.179	15.36
219.397	64.51
219.615	89.09
219.833	21.5
220.051	-19.46
220.27	99.33
220.488	37.89
220.706	15.36
220.924	-68.61
221.142	48.13
221.36	23.55
221.578	1.02
221.796	-7.17
222.015	56.32
222.233	44.03
222.451	-13.31
222.669	21.5
222.887	39.94
223.105	39.94
223.323	50.18
223.541	37.89
223.759	109.57
223.977	-33.79
224.195	60.42
224.413	84.99
224.631	-9.22
224.849	5.12
225.067	80.89
225.285	-3.07
225.503	35.84
225.721	-37.89
225.939	70.65
226.157	66.56
226.375	44.03
226.592	31.74
226.81	41.98
227.028	93.18
227.246	89.09
227.464	72.7
227.682	13.31
227.9	56.32
228.117	58.37
228.335	78.85
228.553	91.13
228.771	64.51
228.989	35.84
229.206	54.27
229.424	9.22
229.642	-9.22
229.86	-13.31
230.077	19.46
230.295	74.75
230.513	99.33
230.731	9.22
230.948	-5.12
231.166	95.23
231.384	17.41
231.601	-1.02
231.819	7.17
232.037	50.18
232.254	-11.26
232.472	11.26
232.689	-35.84
232.907	78.85
233.125	1.02
233.342	62.46
233.56	-3.07
233.777	62.46
233.995	56.32
234.213	29.7
234.43	-5.12
234.648	62.46
234.865	31.74
235.083	80.89
235.3	56.32
235.518	-1.02
235.735	68.61
235.953	35.84
236.17	17.41
236.388	37.89
236.605	-11.26
236.822	121.85
237.04	33.79
237.257	-1.02
237.475	33.79
237.692	121.85
237.909	1.02
238.127	89.09
238.344	-5.12
238.562	95.23
238.779	-13.31
238.996	82.94
239.214	62.46
239.431	17.41
239.648	84.99
239.865	31.74
240.083	37.89
240.3	13.31
240.517	50.18
240.735	1.02
240.952	66.56
241.169	89.09
241.386	13.31
241.603	80.89
241.821	74.75
242.038	113.66
242.255	58.37
242.472	60.42
242.689	54.27
242.907	29.7
243.124	125.95
243.341	21.5
243.558	89.09
243.775	37.89
243.992	-25.6
244.209	48.13
244.426	74.75
244.643	74.75
244.86	66.56
245.078	3.07
245.295	35.84
245.512	7.17
245.729	62.46
245.946	50.18
246.163	82.94
246.38	54.27
246.597	3.07
246.814	48.13
247.031	68.61
247.248	64.51
247.464	68.61
247.681	15.36
247.898	31.74
248.115	60.42
248.332	123.9
248.549	68.61
248.766	78.85
248.983	121.85
249.2	13.31
249.417	48.13
249.633	7.17
249.85	37.89
250.067	5.12
250.284	23.55
250.501	23.55
250.717	23.55
250.934	23.55
251.151	25.6
251.368	19.46
251.585	-39.94
251.801	35.84
252.018	29.7
252.235	68.61
252.451	46.08
252.668	-3.07
252.885	154.62
253.102	54.27
253.318	11.26
253.535	-31.74
253.752	3.07
253.968	9.22
254.185	13.31
254.401	101.37
254.618	35.84
254.835	-39.94
255.051	109.57
255.268	33.79
255.484	39.94
255.701	-3.07
255.917	89.09
256.134	37.89
256.351	76.8
256.567	-1.02
256.784	64.51
257	9.22
257.217	111.61
257.433	62.46
257.65	11.26
257.866	37.89
258.082	111.61
258.299	91.13
258.515	99.33
258.732	91.13
258.948	29.7
259.165	25.6
259.381	25.6
259.597	-19.46
259.814	70.65
260.03	21.5
260.246	76.8
260.463	-3.07
260.679	76.8
260.895	48.13
261.112	13.31
261.328	95.23
261.544	44.03
261.761	60.42
261.977	70.65
262.193	95.23
262.409	93.18
262.626	48.13
262.842	9.22
263.058	11.26
263.274	50.18
263.49	15.36
263.707	25.6
263.923	-7.17
264.139	41.98
264.355	-13.31
264.571	123.9
264.787	-21.5
265.004	41.98
265.22	-5.12
265.436	1.02
265.652	37.89
265.868	13.31
266.084	41.98
266.3	1.02
266.516	62.46
266.732	13.31
266.948	25.6
267.164	-41.98
267.38	-7.17
267.596	31.74
267.812	35.84
268.028	62.46
268.244	41.98
268.46	7.17
268.676	-19.46
268.892	148.48
269.108	27.65
269.324	37.89
269.54	44.03
269.756	58.37
269.972	15.36
270.188	35.84
270.403	29.7
270.619	70.65
270.835	21.5
271.051	105.47
271.267	111.61
271.483	72.7
271.698	39.94
271.914	11.26
272.13	50.18
272.346	48.13
272.562	54.27
272.777	113.66
272.993	9.22
273.209	41.98
273.425	-1.02
273.64	-29.7
273.856	17.41
274.072	91.13
274.287	44.03
274.503	95.23
274.719	13.31
274.934	37.89
275.15	-50.18
275.366	37.89
275.581	11.26
275.797	58.37
276.012	37.89
276.228	31.74
276.444	97.28
276.659	74.75
276.875	-15.36
277.09	13.31
277.306	68.61
277.521	80.89
277.737	87.04
277.952	56.32
278.168	117.76
278.383	80.89
278.599	35.84
278.814	48.13
279.03	-25.6
279.245	125.95
279.461	66.56
279.676	138.24
279.892	37.89
280.107	58.37
280.322	21.5
280.538	56.32
280.753	-19.46
280.969	33.79
281.184	80.89
281.399	17.41
281.615	-58.37
281.83	60.42
282.045	27.65
282.26	31.74
282.476	-23.55
282.691	11.26
282.906	56.32
283.122	39.94
283.337	95.23
283.552	33.79
283.767	-7.17
283.983	37.89
284.198	82.94
284.413	82.94
284.628	41.98
284.843	44.03
285.058	15.36
285.274	-23.55
285.489	19.46
285.704	44.03
285.919	80.89
286.134	29.7
286.349	52.22
286.564	44.03
286.779	9.22
286.995	23.55
287.21	56.32
287.425	39.94
287.64	80.89
287.855	109.57
288.07	41.98
288.285	56.32
288.5	-29.7
288.715	84.99
288.93	130.05
289.145	44.03
289.36	87.04
289.575	33.79
289.79	19.46
290.004	23.55
290.219	107.52
290.434	68.61
290.649	48.13
290.864	15.36
291.079	44.03
291.294	-3.07
291.509	115.71
291.724	-5.12
291.938	41.98
292.153	-23.55
292.368	-5.12
292.583	80.89
292.798	76.8
293.012	23.55
293.227	54.27
293.442	-7.17
293.657	19.46
293.871	154.62
294.086	80.89
294.301	-1.02
294.516	52.22
294.73	-9.22
294.945	29.7
295.16	17.41
295.374	82.94
295.589	87.04
295.804	11.26
296.018	7.17
296.233	103.42
296.447	41.98
296.662	66.56
296.877	1.02
297.091	105.47
297.306	1.02
297.52	84.99
297.735	91.13
297.949	11.26
298.164	29.7
298.378	27.65
298.593	35.84
298.807	27.65
299.022	50.18
299.236	105.47
299.451	78.85
299.665	39.94
299.88	33.79
300.094	29.7
300.309	7.17
300.523	54.27
300.737	25.6
300.952	5.12
301.166	70.65
301.381	64.51
301.595	29.7
301.809	76.8
302.024	60.42
302.238	11.26
302.452	31.74
302.667	58.37
302.881	29.7
303.095	87.04
303.309	64.51
303.524	76.8
303.738	50.18
303.952	25.6
304.166	72.7
304.381	78.85
304.595	134.14
304.809	-21.5
305.023	25.6
305.237	44.03
305.452	35.84
305.666	37.89
305.88	17.41
306.094	44.03
306.308	39.94
306.522	44.03
306.736	130.05
306.95	80.89
307.164	-21.5
307.379	37.89
307.593	78.85
307.807	136.19
308.021	54.27
308.235	60.42
308.449	37.89
308.663	62.46
308.877	76.8
309.091	84.99
309.305	142.33
309.519	39.94
309.733	62.46
309.947	48.13
310.161	-33.79
310.374	62.46
310.588	46.08
310.802	35.84
311.016	97.28
311.23	60.42
311.444	13.31
311.658	48.13
311.872	37.89
312.085	66.56
312.299	31.74
312.513	25.6
312.727	113.66
312.941	15.36
313.154	52.22
313.368	41.98
313.582	3.07
313.796	31.74
314.009	29.7
314.223	37.89
314.437	54.27
314.651	29.7
314.864	39.94
315.078	25.6
315.292	-50.18
315.505	52.22
315.719	97.28
315.933	-7.17
316.146	39.94
316.36	29.7
316.573	84.99
316.787	87.04
317.001	103.42
317.214	31.74
317.428	62.46
317.641	-11.26
317.855	99.33
318.068	11.26
318.282	107.52
318.495	134.14
318.709	37.89
318.922	78.85
319.136	74.75
319.349	82.94
319.563	50.18
319.776	113.66
319.99	44.03
320.203	91.13
320.417	58.37
320.63	107.52
320.843	95.23
321.057	11.26
321.27	13.31
321.483	33.79
321.697	29.7
321.91	21.5
322.124	78.85
322.337	84.99
322.55	76.8
322.763	95.23
322.977	95.23
323.19	-35.84
323.403	68.61
323.617	-5.12
323.83	33.79
324.043	72.7
324.256	64.51
324.469	50.18
324.683	84.99
324.896	66.56
325.109	78.85
325.322	97.28
325.535	82.94
325.748	115.71
325.962	56.32
326.175	29.7
326.388	58.37
326.601	68.61
326.814	66.56
327.027	17.41
327.24	140.29
327.453	-29.7
327.666	58.37
327.879	136.19
328.092	1.02
328.305	19.46
328.518	134.14
328.731	17.41
328.944	17.41
329.157	66.56
329.37	48.13
329.583	50.18
329.796	19.46
330.009	48.13
330.222	130.05
330.435	66.56
330.648	82.94
330.861	62.46
331.073	76.8
331.286	62.46
331.499	93.18
331.712	60.42
331.925	48.13
332.138	-7.17
332.35	91.13
332.563	29.7
332.776	156.67
332.989	-7.17
333.202	-11.26
333.414	29.7
333.627	68.61
333.84	99.33
334.053	80.89
334.265	25.6
334.478	76.8
334.691	62.46
334.903	23.55
335.116	3.07
335.329	39.94
335.541	64.51
335.754	44.03
335.966	54.27
336.179	-19.46
336.392	54.27
336.604	46.08
336.817	44.03
337.029	62.46
337.242	5.12
337.454	72.7
337.667	58.37
337.88	74.75
338.092	39.94
338.305	72.7
338.517	29.7
338.729	76.8
338.942	62.46
339.154	-19.46
339.367	48.13
339.579	89.09
339.792	78.85
340.004	132.09
340.217	29.7
340.429	-29.7
340.641	37.89
340.854	11.26
341.066	33.79
341.278	99.33
341.491	128
341.703	64.51
341.915	50.18
342.128	68.61
342.34	39.94
342.552	-1.02
342.764	21.5
342.977	64.51
343.189	21.5
343.401	66.56
343.613	103.42
343.826	105.47
344.038	72.7
344.25	15.36
344.462	31.74
344.674	62.46
344.886	74.75
345.099	50.18
345.311	33.79
345.523	74.75
345.735	68.61
345.947	91.13
346.159	50.18
346.371	-33.79
346.583	13.31
346.795	70.65
347.007	37.89
347.219	29.7
347.431	46.08
347.643	19.46
347.855	111.61
348.067	19.46
348.279	68.61
348.491	35.84
348.703	62.46
348.915	9.22
349.127	64.51
349.339	25.6
349.551	84.99
349.763	93.18
349.975	-46.08
350.187	82.94
350.399	78.85
350.61	66.56
350.822	-19.46
351.034	35.84
351.246	91.13
351.458	27.65
351.669	52.22
351.881	64.51
352.093	95.23
352.305	60.42
352.517	-25.6
352.728	60.42
352.94	41.98
353.152	7.17
353.363	7.17
353.575	39.94
353.787	115.71
353.999	66.56
354.21	123.9
354.422	37.89
354.633	29.7
354.845	29.7
355.057	99.33
355.268	125.95
355.48	89.09
355.692	101.37
355.903	21.5
356.115	-37.89
356.326	41.98
356.538	56.32
356.749	62.46
356.961	99.33
357.172	-15.36
357.384	82.94
357.595	17.41
357.807	52.22
358.018	64.51
358.23	80.89
358.441	80.89
358.653	93.18
358.864	37.89
359.075	50.18
359.287	107.52
359.498	-1.02
359.709	62.46
359.921	80.89
360.132	80.89
360.344	72.7
360.555	70.65
360.766	37.89
360.977	19.46
361.189	121.85
361.4	11.26
361.611	95.23
361.823	-3.07
362.034	33.79
362.245	41.98
362.456	113.66
362.667	5.12
362.879	70.65
363.09	87.04
363.301	103.42
363.512	80.89
363.723	7.17
363.935	74.75
364.146	21.5
364.357	72.7
364.568	125.95
364.779	44.03
364.99	117.76
365.201	-5.12
365.412	82.94
365.623	7.17
365.834	103.42
366.045	46.08
366.256	111.61
366.467	103.42
366.678	64.51
366.889	56.32
367.1	78.85
367.311	-7.17
367.522	23.55
367.733	33.79
367.944	87.04
368.155	87.04
368.366	123.9
368.577	123.9
368.788	107.52
368.999	-21.5
369.209	39.94
369.42	54.27
369.631	152.57
369.842	41.98
370.053	50.18
370.264	35.84
370.474	-11.26
370.685	56.32
370.896	117.76
371.107	91.13
371.317	93.18
371.528	48.13
371.739	89.09
371.95	99.33
372.16	48.13
372.371	33.79
372.582	74.75
372.792	78.85
373.003	-27.65
373.214	99.33
373.424	41.98
373.635	58.37
373.846	93.18
374.056	13.31
374.267	-25.6
374.477	109.57
374.688	105.47
374.898	62.46
375.109	62.46
375.319	154.62
375.53	66.56
375.74	70.65
375.951	89.09
376.161	46.08
376.372	105.47
376.582	46.08
376.793	119.81
377.003	21.5
377.214	74.75
377.424	97.28
377.635	41.98
377.845	82.94
378.055	91.13
378.266	29.7
378.476	119.81
378.686	84.99
378.897	80.89
379.107	46.08
379.317	1.02
379.528	125.95
379.738	-11.26
379.948	44.03
380.158	27.65
380.369	29.7
380.579	50.18
380.789	46.08
380.999	105.47
381.21	68.61
381.42	138.24
381.63	70.65
381.84	107.52
382.05	46.08
382.261	35.84
382.471	87.04
382.681	-7.17
382.891	111.61
383.101	41.98
383.311	25.6
383.521	33.79
383.731	62.46
383.941	107.52
384.151	54.27
384.361	72.7
384.571	31.74
384.781	70.65
384.991	125.95
385.201	39.94
385.411	46.08
385.621	37.89
385.831	125.95
386.041	103.42
386.251	99.33
386.461	52.22
386.671	31.74
386.881	82.94
387.091	80.89
387.301	58.37
387.511	93.18
387.72	27.65
387.93	130.05
388.14	80.89
388.35	48.13
388.56	82.94
388.769	82.94
388.979	91.13
389.189	23.55
389.399	66.56
389.609	156.67
389.818	72.7
390.028	23.55
390.238	87.04
390.447	111.61
390.657	48.13
390.867	62.46
391.076	66.56
391.286	74.75
391.496	44.03
391.705	39.94
391.915	97.28
392.125	78.85
392.334	35.84
392.544	39.94
392.753	21.5
392.963	35.84
393.172	70.65
393.382	78.85
393.591	115.71
393.801	1.02
394.01	87.04
394.22	27.65
394.429	121.85
394.639	101.37
394.848	123.9
395.058	66.56
395.267	130.05
395.477	76.8
395.686	84.99
395.895	109.57
396.105	107.52
396.314	31.74
396.524	89.09
396.733	48.13
396.942	154.62
397.152	21.5
397.361	148.48
397.57	160.77
397.78	39.94
397.989	134.14
398.198	80.89
398.407	37.89
398.617	62.46
398.826	117.76
399.035	27.65
399.244	60.42
399.453	27.65
399.663	150.53
399.872	111.61
400.081	56.32
400.29	160.77
400.499	117.76
400.708	99.33
400.917	93.18
401.127	72.7
401.336	99.33
401.545	41.98
401.754	105.47
401.963	111.61
402.172	84.99
402.381	103.42
402.59	111.61
402.799	97.28
403.008	121.85
403.217	183.29
403.426	128
403.635	134.14
403.844	76.8
404.053	111.61
404.262	138.24
404.471	140.29
404.68	128
404.888	222.2
405.097	87.04
405.306	189.44
405.515	140.29
405.724	111.61
405.933	89.09
406.142	107.52
406.35	201.72
406.559	211.96
406.768	123.9
406.977	205.82
407.185	119.81
407.394	177.15
407.603	209.92
407.812	234.49
408.02	134.14
408.229	214.01
408.438	185.34
408.646	216.06
408.855	175.1
409.064	201.72
409.272	244.73
409.481	275.45
409.69	226.3
409.898	150.53
410.107	267.26
410.315	281.6
410.524	269.31
410.733	308.22
410.941	283.64
411.15	314.36
411.358	338.94
411.567	300.03
411.775	332.79
411.984	314.36
412.192	332.79
412.401	300.03
412.609	457.72
412.818	381.95
413.026	371.71
413.234	406.52
413.443	439.29
413.651	414.71
413.86	470.01
414.068	535.54
414.276	494.58
414.485	537.59
414.693	521.21
414.901	492.54
415.11	574.46
415.318	594.93
415.526	619.51
415.734	642.04
415.943	697.33
416.151	639.99
416.359	654.33
416.567	662.52
416.776	695.29
416.984	785.4
417.192	820.21
417.4	685.05
417.608	805.88
417.817	803.83
418.025	760.82
418.233	906.23
418.441	852.98
418.649	965.62
418.857	1012.72
419.065	1065.97
419.273	1033.2
419.481	1088.5
419.689	1158.13
419.897	1240.05
420.105	1242.09
420.313	1283.05
420.521	1313.77
420.729	1272.81
420.937	1248.24
421.145	1348.59
421.353	1444.84
421.561	1561.58
421.769	1567.72
421.977	1661.93
422.185	1629.16
422.393	1760.23
422.601	1870.82
422.809	1893.35
423.017	1909.73
423.224	1872.87
423.432	1965.03
423.64	1985.51
423.848	2169.82
424.056	2130.91
424.263	2245.6
424.471	2243.55
424.679	2345.95
424.887	2429.91
425.094	2509.79
425.302	2546.65
425.51	2716.63
425.718	2636.76
425.925	2843.6
426.133	2870.23
426.341	3032.02
426.548	3130.32
426.756	3066.83
426.964	3224.53
427.171	3333.07
427.379	3392.46
427.586	3605.45
427.794	3505.1
428.001	3736.52
428.209	3834.82
428.417	3871.68
428.624	4234.18
428.832	4123.59
429.039	4062.15
429.247	4064.19
429.454	4584.38
429.662	4787.13
429.869	4611
430.076	4846.52
430.284	4864.95
430.491	4920.24
430.699	5084.08
430.906	5286.83
431.114	5118.9
431.321	5532.59
431.528	5583.79
431.736	5788.58
431.943	6323.1
432.15	6065.06
432.358	5964.71
432.565	6310.82
432.772	6316.96
432.979	6751.13
433.187	6974.36
433.394	6910.87
433.601	7336.85
433.808	7304.08
434.016	7377.81
434.223	7719.82
434.43	7981.96
434.637	7889.8
434.844	8311.68
435.052	8481.66
435.259	8389.5
435.466	8622.97
435.673	8504.19
435.88	9153.4
436.087	9419.63
436.294	9552.75
436.501	9165.68
436.708	9583.47
436.915	9782.12
437.122	10263.4
437.329	10097.51
437.537	10580.83
437.743	10865.5
437.95	10716
438.157	11244.37
438.364	11645.77
438.571	11615.05
438.778	11455.31
438.985	12763.97
439.192	12186.44
439.399	12647.23
439.606	12473.15
439.813	13120.31
440.02	13701.93
440.227	13488.95
440.433	13413.17
440.64	13841.2
440.847	13540.15
441.054	14226.21
441.261	14832.41
441.467	14885.66
441.674	15274.77
441.881	15551.25
442.088	15563.54
442.294	15754
442.501	15848.21
442.708	16458.5
442.914	16857.85
443.121	17392.37
443.328	16933.63
443.534	18264.81
443.741	17822.45
443.948	17447.67
444.154	18815.71
444.361	18703.07
444.568	18848.48
444.774	18807.52
444.981	19122.91
445.187	19665.62
445.394	20406.98
445.6	20439.75
445.807	22393.51
446.013	21250.75
446.22	21723.83
446.426	22227.63
446.633	22475.43
446.839	23261.85
447.046	22538.92
447.252	23487.13
447.459	23607.96
447.665	23734.93
447.871	24478.35
448.078	25510.52
448.284	24378
448.491	25051.78
448.697	26163.82
448.903	26425.96
449.11	26503.79
449.316	26073.71
449.522	26661.48
449.728	27392.61
449.935	27583.07
450.141	27275.87
450.347	28127.83
450.553	27247.2
450.76	27486.81
450.966	28637.77
451.172	27984.47
451.378	28762.7
451.584	28234.32
451.791	28619.34
451.997	28815.94
452.203	29264.45
452.409	29170.24
452.615	28807.75
452.821	28015.19
453.027	27648.6
453.233	29084.23
453.44	27642.46
453.646	28252.75
453.852	28400.21
454.058	28688.97
454.264	27408.99
454.47	28383.82
454.676	27920.98
454.882	28709.45
455.088	26178.16
455.294	26677.86
455.5	27077.22
455.705	26997.35
455.911	26051.19
456.117	25432.7
456.323	24924.8
456.529	23894.68
456.735	25008.77
456.941	24085.14
457.147	23732.89
457.352	22911.65
457.558	22778.53
457.764	23032.48
457.97	22440.62
458.176	21793.46
458.381	21848.75
458.587	20783.81
458.793	20597.45
458.999	19765.97
459.204	21195.45
459.41	20667.08
459.616	19219.16
459.821	19198.68
460.027	19124.96
460.233	18789.09
460.438	17996.53
460.644	18000.62
460.85	17238.78
461.055	16915.2
461.261	16880.38
461.466	15463.19
461.672	15280.92
461.878	16337.67
462.083	15164.18
462.289	15074.07
462.494	15053.59
462.7	13816.62
462.905	13792.05
463.111	14320.42
463.316	14457.64
463.522	14080.81
463.727	14123.82
463.932	14129.96
464.138	13906.73
464.343	14086.95
464.549	13503.28
464.754	14183.21
464.959	13650.74
465.165	13574.96
465.37	13132.6
465.575	12876.6
465.781	13200.18
465.986	13417.27
466.191	12974.91
466.397	12653.37
466.602	12094.28
466.807	12505.92
467.012	12426.05
467.218	12391.23
467.423	12344.13
467.628	12413.76
467.833	12716.86
468.038	12256.07
468.244	12004.17
468.449	12661.57
468.654	12215.11
468.859	12069.7
469.064	11920.2
469.269	11666.25
469.474	11770.7
469.679	11928.39
469.885	11490.13
470.09	11565.9
470.295	11512.66
470.5	11238.23
470.705	11400.02
470.91	11047.77
471.115	11017.05
471.32	11109.21
471.525	11193.17
471.73	11049.82
471.935	10795.87
472.139	10382.18
472.344	10644.32
472.549	10511.2
472.754	10419.04
472.959	10345.31
473.164	9800.55
473.369	9810.79
473.574	10210.15
473.778	9978.73
473.983	10097.51
474.188	9833.32
474.393	9620.33
474.598	9700.2
474.802	9380.72
475.007	9309.04
475.212	9339.76
475.417	9055.09
475.621	8938.36
475.826	9239.41
476.031	9087.86
476.235	8686.46
476.44	8827.77
476.645	8641.4
476.849	8672.12
477.054	8661.88
477.259	8547.2
477.463	8586.11
477.668	8428.42
477.872	8383.36
478.077	8461.18
478.282	7922.57
478.486	8115.08
478.691	7967.62
478.895	7963.53
479.1	8045.45
479.304	8002.44
479.509	7590.8
479.713	7902.09
479.918	7728.01
480.122	7596.94
480.326	7680.91
480.531	7754.63
480.735	7584.65
480.94	7543.69
481.144	7891.85
481.348	7441.29
481.553	7486.35
481.757	7472.01
481.961	7504.78
482.166	7527.31
482.37	7463.82
482.574	7375.76
482.778	7297.94
482.983	7545.74
483.187	7414.67
483.391	7375.76
483.595	7312.27
483.8	7379.86
484.004	7484.3
484.208	7490.45
484.412	7402.38
484.616	7365.52
484.821	7400.34
485.025	7267.22
485.229	7424.91
485.433	7463.82
485.637	7555.98
485.841	7408.53
486.045	7412.62
486.249	7322.51
486.453	7361.42
486.657	7373.71
486.861	7324.56
487.065	7342.99
487.269	7433.1
487.473	7275.41
487.677	7424.91
487.881	7551.88
488.085	7312.27
488.289	7459.73
488.493	7291.79
488.697	7517.07
488.901	7549.84
489.105	7449.49
489.309	7527.31
489.512	7373.71
489.716	7334.8
489.92	7416.72
490.124	7437.2
490.328	7740.3
490.531	7541.64
490.735	7691.15
490.939	7639.95
491.143	7639.95
491.346	7701.39
491.55	7717.77
491.754	7912.33
491.958	7779.21
492.161	7623.56
492.365	7969.67
492.569	7760.78
492.772	7822.22
492.976	7822.22
493.18	7889.8
493.383	7965.57
493.587	8149.89
493.79	8182.66
493.994	7932.81
494.197	8250.24
494.401	8274.82
494.605	8323.97
494.808	8295.3
495.012	8547.2
495.215	8428.42
495.419	8678.27
495.622	8608.64
495.825	8684.41
496.029	8774.52
496.232	8844.15
496.436	8967.03
496.639	8985.46
496.843	9118.58
497.046	9370.48
497.249	9356.15
497.453	9456.5
497.656	9509.74
497.859	9440.11
498.063	9642.86
498.266	9939.82
498.469	9667.44
498.673	9919.34
498.876	10113.89
499.079	10154.85
499.282	10287.97
499.485	10462.05
499.689	10429.28
499.892	10482.53
500.095	10447.71
500.298	10736.48
500.501	10679.13
500.705	11109.21
500.908	11146.07
501.111	11383.63
501.314	11230.04
501.517	11735.88
501.72	11619.15
501.923	11651.92
502.126	11932.49
502.329	12104.52
502.532	12092.23
502.735	12376.9
502.938	12383.04
503.141	12507.97
503.344	12587.84
503.547	12817.21
503.75	12862.27
503.953	13128.5
504.156	13163.32
504.359	13304.63
504.562	13339.44
504.765	13804.33
504.968	14050.09
505.17	14054.19
505.373	14043.95
505.576	14254.89
505.779	14406.44
505.982	14736.16
506.185	14959.39
506.387	14963.48
506.59	14869.28
506.793	15405.84
506.996	15350.55
507.198	15528.72
507.401	15520.53
507.604	16067.34
507.807	15987.47
508.009	16040.72
508.212	16055.05
508.415	16444.17
508.617	16702.21
508.82	16954.11
509.022	16720.64
509.225	17195.77
509.428	17316.6
509.63	17668.85
509.833	17519.35
510.035	17945.33
510.238	17943.28
510.44	18203.37
510.643	18445.03
510.845	18680.55
511.048	18651.88
511.25	19163.87
511.453	19174.11
511.655	19706.58
511.858	19671.76
512.06	19825.36
512.262	19854.03
512.465	19845.84
512.667	20394.7
512.87	20603.59
513.072	20685.51
513.274	20812.48
513.477	21228.22
513.679	21437.11
513.881	21549.75
514.084	21764.79
514.286	21967.54
514.488	21981.87
514.69	22893.22
514.893	22569.64
515.095	22721.19
515.297	23036.58
515.499	22930.08
515.701	23583.38
515.904	23562.9
516.106	23802.52
516.308	23997.07
516.51	24554.12
516.712	24283.79
516.914	24754.82
517.116	25180.8
517.318	24973.95
517.52	25193.09
517.722	25668.22
517.925	25883.25
518.127	26067.57
518.329	26364.53
518.531	26284.65
518.733	27204.19
518.935	26948.2
519.136	27023.97
519.338	27560.54
519.54	27755.1
519.742	27992.66
519.944	28027.48
520.146	28416.59
520.348	28738.12
520.55	28947.01
520.752	28785.22
520.954	29499.97
521.155	29434.43
521.357	29663.8
521.559	29772.35
521.761	30331.44
521.963	30386.74
522.164	30519.85
522.366	30857.77
522.568	31091.24
522.77	31392.29
522.971	31703.58
523.173	31922.71
523.375	31799.83
523.576	31853.08
523.778	31902.23
523.98	32360.98
524.181	32539.15
524.383	32578.06
524.584	33204.74
524.786	33104.39
524.988	33438.21
525.189	33751.55
525.391	34025.98
525.592	34056.7
525.794	33937.91
525.995	33847.8
526.197	34490.87
526.398	34378.23
526.6	34793.97
526.801	35052.01
527.003	34427.38
527.204	34871.79
527.406	35107.3
527.607	35346.92
527.808	35584.48
528.01	34879.98
528.211	35535.33
528.412	36307.41
528.614	35746.27
528.815	36372.95
529.016	36280.79
529.218	35936.73
529.419	36491.73
529.62	36278.74
529.822	36592.08
530.023	36639.18
530.224	36962.76
530.425	37239.24
530.626	36680.14
530.828	36493.78
531.029	37446.08
531.23	37134.79
531.431	37200.33
531.632	37431.75
531.833	37421.51
532.035	37032.39
532.236	37544.39
532.437	37521.86
532.638	37097.93
532.839	38113.72
533.04	37910.97
533.241	37364.17
533.442	38152.63
533.643	38058.43
533.844	37530.05
534.045	37824.96
534.246	37716.42
534.447	38064.57
534.648	37816.77
534.849	38279.61
535.05	37687.74
535.251	38416.82
535.451	38011.32
535.652	38353.33
535.853	38015.42
536.054	37681.6
536.255	38195.64
536.456	37620.16
536.657	38377.91
536.857	37806.53
537.058	37757.38
537.259	38470.07
537.46	38070.72
537.66	38011.32
537.861	38293.94
538.062	38162.87
538.263	38265.27
538.463	38050.24
538.664	38201.79
538.865	38160.83
539.065	38580.66
539.266	37786.05
539.466	38369.72
539.667	38095.29
539.868	38644.15
540.068	38298.04
540.269	38183.35
540.469	38308.28
540.67	38099.39
540.87	38089.15
541.071	38289.85
541.271	38244.79
541.472	38439.35
541.672	37919.17
541.873	38062.52
542.073	37855.68
542.274	38597.04
542.474	38308.28
542.675	37763.52
542.875	38427.06
543.075	38089.15
543.276	37908.93
543.476	38580.66
543.676	38087.1
543.877	38386.1
544.077	38320.57
544.277	38357.43
544.478	38191.55
544.678	38363.57
544.878	38216.12
545.078	37984.7
545.279	37839.29
545.479	37853.63
545.679	38193.59
545.879	38461.88
546.079	38218.17
546.28	38201.79
546.48	38003.13
546.68	38341.05
546.88	38255.03
547.08	37835.2
547.28	37931.45
547.48	37808.58
547.68	38240.7
547.88	37837.25
548.081	38212.02
548.281	38369.72
548.481	38281.66
548.681	38099.39
548.881	38093.24
549.081	38035.9
549.28	37665.22
549.48	38214.07
549.68	37913.02
549.88	38545.84
550.08	37894.59
550.28	37898.69
550.48	37882.3
550.68	38076.86
550.88	37943.74
551.08	38158.78
551.279	37902.78
551.479	37865.92
551.679	37968.32
551.879	38035.9
552.079	38169.02
552.278	37728.7
552.478	38037.95
552.678	37695.94
552.878	38050.24
553.077	37722.56
553.277	37648.83
553.477	38287.8
553.676	37939.65
553.876	37560.77
554.076	37673.41
554.275	37800.38
554.475	37075.4
554.674	37935.55
554.874	37812.67
555.074	37368.26
555.273	37681.6
555.473	37544.39
555.672	37544.39
555.872	37384.65
556.071	37464.52
556.271	37816.77
556.47	37462.47
556.67	36817.36
556.869	37333.45
557.068	37511.62
557.268	37153.23
557.467	37476.8
557.667	37179.85
557.866	37286.34
558.065	37083.59
558.265	36735.44
558.464	36567.51
558.663	36915.66
558.863	36413.91
559.062	37022.16
559.261	36514.26
559.461	37003.72
559.66	36129.24
559.859	36745.68
560.058	36499.92
560.258	36622.8
560.457	36172.25
560.656	36872.65
560.855	36379.09
561.054	36696.53
561.253	35736.03
561.453	36086.23
561.652	36141.53
561.851	36469.2
562.05	35914.2
562.249	35703.26
562.448	36141.53
562.647	36010.46
562.846	35754.46
563.045	35903.96
563.244	35453.41
563.443	35938.78
563.642	34646.51
563.841	35473.89
564.04	35273.19
564.239	35754.46
564.438	34933.23
564.637	35232.23
564.836	35052.01
565.035	34775.53
565.234	35099.11
565.432	34552.3
565.631	34742.77
565.83	35017.19
566.029	34703.85
566.228	34454
566.427	34300.4
566.625	34144.76
566.824	33817.08
567.023	34374.13
567.222	33395.2
567.42	34445.81
567.619	34173.43
567.818	33888.76
568.016	34220.53
568.215	34073.08
568.414	33495.55
568.612	34236.92
568.811	33634.81
569.01	34034.17
569.208	33106.44
569.407	33556.99
569.605	32897.55
569.804	33241.6
570.002	33110.53
570.201	33286.66
570.4	32676.37
570.598	32766.48
570.797	32702.99
570.995	32860.68
571.193	32389.65
571.392	32629.26
571.59	32416.27
571.789	32487.95
571.987	32104.98
572.186	32240.15
572.384	32236.05
572.582	32043.54
572.781	32180.76
572.979	31595.04
573.177	31719.96
573.376	32178.71
573.574	31312.42
573.772	31930.9
573.971	31461.92
574.169	31234.6
574.367	31140.39
574.565	31365.67
574.763	31177.25
574.962	31058.47
575.16	31148.58
575.358	30718.51
575.556	30599.73
575.754	30888.49
575.952	30370.35
576.151	30769.71
576.349	30523.95
576.547	30233.14
576.745	30429.74
576.943	30345.78
577.141	30464.56
577.339	30259.76
577.537	30323.25
577.735	30067.25
577.933	30130.74
578.131	29964.85
578.329	30024.25
578.527	29590.08
578.725	29590.08
578.923	30181.94
579.121	29796.92
579.319	29264.45
579.516	29665.85
579.714	29344.32
579.912	29319.74
580.11	29205.06
580.308	29020.74
580.506	29411.9
580.704	28422.73
580.901	28686.92
581.099	29018.69
581.297	28717.64
581.495	28205.65
581.692	28813.9
581.89	28312.14
582.088	28342.86
582.285	28248.66
582.483	28351.06
582.681	28492.37
582.878	28301.9
583.076	27703.9
583.274	28088.92
583.471	27816.54
583.669	27869.78
583.866	27333.21
584.064	27865.69
584.262	27548.25
584.459	27787.86
584.657	27497.05
584.854	27523.68
585.052	26841.7
585.249	27261.54
585.447	27198.05
585.644	26626.67
585.841	26892.9
586.039	27157.09
586.236	26532.46
586.434	26569.32
586.631	26952.29
586.828	26804.84
587.026	26548.84
587.223	26417.77
587.42	26362.48
587.618	26829.41
587.815	25999.99
588.012	26403.44
588.21	26088.05
588.407	26360.43
588.604	26108.53
588.801	26204.78
588.999	26112.63
589.196	25926.26
589.393	26049.14
589.59	25660.02
589.787	25453.18
589.984	25463.42
590.182	24955.52
590.379	25619.07
590.576	25205.38
590.773	25215.62
590.97	24916.61
591.167	25195.14
591.364	25131.65
591.561	24763.01
591.758	24846.98
591.955	24623.75
592.152	25340.54
592.349	24672.9
592.546	24656.52
592.743	24504.97
592.94	24439.44
593.137	24402.57
593.334	24644.23
593.531	24210.06
593.727	24353.42
593.924	24320.65
594.121	24025.75
594.318	24138.38
594.515	23843.48
594.712	24281.74
594.908	23687.83
595.105	24005.27
595.302	23550.62
595.499	24156.82
595.696	23820.95
595.892	23425.69
596.089	23827.09
596.286	23388.83
596.482	23347.87
596.679	23435.93
596.876	23417.5
597.072	22899.36
597.269	23247.52
597.466	22975.14
597.662	22803.11
597.859	22768.29
598.055	22844.07
598.252	22622.89
598.448	22620.84
598.645	22575.78
598.841	22571.69
599.038	22758.05
599.234	22571.69
599.431	22315.69
599.627	22141.61
599.824	22561.45
600.02	21877.43
600.217	22364.84
600.413	22061.74
600.609	21758.64
600.806	22033.07
601.002	21750.45
601.198	21715.64
601.395	21574.33
601.591	21662.39
601.787	21559.99
601.984	21611.19
602.18	21738.16
602.376	21453.5
602.572	21228.22
602.769	21357.24
602.965	21193.4
603.161	21174.97
603.357	21039.81
603.553	21232.32
603.75	20781.76
603.946	20886.21
604.142	21091.01
604.338	20306.63
604.534	20630.21
604.73	20642.5
604.926	20677.32
605.122	20646.6
605.318	20372.17
605.514	20204.24
605.71	20312.78
605.906	20347.59
606.102	20521.67
606.298	20329.16
606.494	20441.8
606.69	20060.88
606.886	20140.75
607.082	20034.25
607.278	20173.52
607.474	19755.73
607.67	20140.75
607.866	20011.73
608.062	20165.32
608.257	19841.75
608.453	19856.08
608.649	19741.39
608.845	19522.26
609.041	19573.46
609.236	19581.65
609.432	19563.22
609.628	19483.35
609.824	19395.29
610.019	19112.67
610.215	19403.48
610.411	19790.55
610.606	19518.17
610.802	19421.91
610.998	19249.88
611.193	19204.83
611.389	18764.51
611.584	19247.83
611.78	19014.37
611.976	19096.28
612.171	19002.08
612.367	18784.99
612.562	19002.08
612.758	18516.71
612.953	18676.45
613.149	18807.52
613.344	18529
613.539	19192.54
613.735	18545.38
613.93	18940.64
614.126	18512.61
614.321	18850.53
614.517	18543.33
614.712	18649.83
614.907	18459.37
615.103	18459.37
615.298	18467.56
615.493	18434.79
615.688	18324.2
615.884	18643.68
616.079	18168.55
616.274	18180.84
616.47	18422.5
616.665	18404.07
616.86	18162.41
617.055	18258.67
617.25	18100.97
617.445	18238.19
617.641	17906.41
617.836	18107.12
618.031	17840.88
618.226	18162.41
618.421	17752.82
618.616	18201.32
618.811	17595.12
619.006	17824.5
619.201	17431.29
619.396	17634.03
619.591	17529.59
619.786	17699.57
619.981	17371.89
620.176	17711.86
620.371	17294.07
620.566	17163
620.761	17062.65
620.956	17357.56
621.151	16814.85
621.346	16902.91
621.541	16526.08
621.735	17091.32
621.93	16399.11
622.125	16708.35
622.32	16448.26
622.515	16483.08
622.709	16327.43
622.904	16204.55
623.099	16216.84
623.294	16454.4
623.488	15928.08
623.683	16005.9
623.878	15731.47
624.072	15964.94
624.267	15856.4
624.462	15784.72
624.656	15563.54
624.851	15565.59
625.046	15682.32
625.24	15414.04
625.435	15553.3
625.629	15168.28
625.824	15170.33
626.018	14955.29
626.213	14658.34
626.407	15074.07
626.602	14979.87
626.796	14893.85
626.991	14652.19
627.185	14584.61
627.38	14537.51
627.574	14351.14
627.768	14426.92
627.963	14238.5
628.157	14230.31
628.352	14281.51
628.546	13923.12
628.74	14220.07
628.935	14254.89
629.129	13976.36
629.323	13544.24
629.517	13912.88
629.712	13722.41
629.906	13484.85
630.1	13423.41
630.294	13548.34
630.489	13300.53
630.683	13458.23
630.877	13208.37
631.071	13114.17
631.265	13316.92
631.459	13151.03
631.653	12966.71
631.848	13009.72
632.042	12892.99
632.236	12788.54
632.43	12843.84
632.624	12942.14
632.818	12782.4
633.012	12561.22
633.206	12614.46
633.4	12352.32
633.594	12546.88
633.788	12430.15
633.982	12630.85
634.176	12231.49
634.369	12233.54
634.563	12102.47
634.757	11909.96
634.951	12270.4
635.145	12020.55
635.339	12020.55
635.533	11834.19
635.726	11785.04
635.92	11608.91
636.114	11670.35
636.308	11520.85
636.501	11629.39
636.695	11371.35
636.889	11486.03
637.083	11168.6
637.276	11387.73
637.47	11156.31
637.664	11305.81
637.857	11141.97
638.051	11160.41
638.244	11060.06
638.438	10679.13
638.632	11066.2
638.825	10910.55
639.019	10832.73
639.212	10650.46
639.406	10621.79
639.599	10646.37
639.793	10478.43
639.986	10484.58
640.18	10363.75
640.373	10445.66
640.567	10451.81
640.76	10482.53
640.954	10300.26
641.147	10206.05
641.34	10048.36
641.534	10148.71
641.727	10101.61
641.92	10091.37
642.114	9958.25
642.307	9896.81
642.5	9657.2
642.694	9778.03
642.887	9812.84
643.08	9814.89
643.273	9900.9
643.467	9675.63
643.66	9487.22
643.853	9356.15
644.046	9151.35
644.239	9616.24
644.432	9177.97
644.626	9280.37
644.819	9216.88
645.012	9218.93
645.205	9247.6
645.398	9323.38
645.591	9233.27
645.784	9231.22
645.977	8987.51
646.17	9053.05
646.363	8690.56
646.556	8756.09
646.749	8827.77
646.942	8733.56
647.135	8725.37
647.328	8717.18
647.521	8704.89
647.714	8551.29
647.907	8641.4
648.099	8364.93
648.292	8522.62
648.485	8395.65
648.678	8352.64
648.871	8231.81
649.064	8182.66
649.256	8457.09
649.449	8194.95
649.642	8182.66
649.835	8172.42
650.027	8117.12
650.22	8029.06
650.413	7885.7
650.605	7969.67
650.798	7775.11
650.991	7799.69
651.183	8014.73
651.376	7719.82
651.568	7836.55
651.761	7613.32
651.954	7646.09
652.146	7549.84
652.339	7758.73
652.531	7717.77
652.724	7455.63
652.916	7521.17
653.109	7525.26
653.301	7424.91
653.494	7459.73
653.686	7287.7
653.879	7500.69
654.071	7207.83
654.263	7144.34
654.456	7181.2
654.648	7342.99
654.84	7011.22
655.033	7236.5
655.225	7084.95
655.417	7113.62
655.61	7062.42
655.802	6908.82
655.994	6976.41
656.186	7033.75
656.379	6890.39
656.571	6865.82
656.763	6828.95
656.955	6759.32
657.148	6794.14
657.34	6693.79
657.532	6572.96
657.724	6673.31
657.916	6699.93
658.108	6517.66
658.3	6493.08
658.492	6583.2
658.684	6347.68
658.876	6476.7
659.068	6472.61
659.26	6349.73
659.452	6396.83
659.644	6452.13
659.836	6327.2
660.028	6355.87
660.22	6192.03
660.412	6128.55
660.604	6144.93
660.796	6151.07
660.988	6075.3
661.18	6063.01
661.372	5923.75
661.563	6034.34
661.755	5985.19
661.947	5942.18
662.139	5776.3
662.331	5931.94
662.522	5786.54
662.714	5680.04
662.906	5616.55
663.097	5766.06
663.289	5657.51
663.481	5710.76
663.673	5723.05
663.864	5663.66
664.056	5770.15
664.247	5610.41
664.439	5620.65
664.631	5690.28
664.822	5581.74
665.014	5614.51
665.205	5469.1
665.397	5446.57
665.588	5411.76
665.78	5395.37
665.971	5413.81
666.163	5567.4
666.354	5315.5
666.546	5356.46
666.737	5284.78
666.929	5333.93
667.12	5229.49
667.311	5335.98
667.503	5002.16
667.694	5182.38
667.885	5002.16
668.077	5196.72
668.268	5118.9
668.459	5127.09
668.651	4899.77
668.842	5041.08
669.033	4928.44
669.224	4864.95
669.416	5047.22
669.607	5065.65
669.798	5004.21
669.989	5000.12
670.18	4760.5
670.371	4852.66
670.563	4881.33
670.754	4832.18
670.945	4713.4
671.136	4807.61
671.327	4875.19
671.518	4656.06
671.709	4795.32
671.9	4740.02
672.091	4551.61
672.282	4570.04
672.473	4617.15
672.664	4699.06
672.855	4582.33
673.046	4621.24
673.237	4721.59
673.428	4725.69
673.619	4611
673.809	4662.2
674	4486.08
674.191	4592.57
674.382	4465.6
674.573	4473.79
674.764	4547.51
674.954	4436.92
675.145	4367.29
675.336	4422.59
675.527	4453.31
675.717	4293.57
675.908	4301.76
676.099	4236.22
676.289	4383.68
676.48	4377.53
676.671	4346.81
676.861	4330.43
677.052	4187.07
677.243	4307.9
677.433	4273.09
677.624	4221.89
677.814	4328.38
678.005	4182.98
678.195	4211.65
678.386	4268.99
678.576	4101.06
678.767	4148.16
678.957	4125.63
679.148	4111.3
679.338	4035.52
679.529	4176.83
679.719	3974.08
679.909	4205.5
680.1	4086.72
680.29	4094.91
680.481	3943.36
680.671	4017.09
680.861	4074.43
681.052	3969.99
681.242	3937.22
681.432	4064.19
681.622	4006.85
681.813	4035.52
682.003	3953.6
682.193	3953.6
682.383	4070.34
682.573	4088.77
682.764	3969.99
682.954	4051.91
683.144	3963.84
683.334	3834.82
683.524	3810.25
683.714	3922.88
683.904	3947.46
684.094	3926.98
684.284	3951.56
684.474	3867.59
684.664	3830.73
684.854	3900.36
685.044	3742.66
685.234	3810.25
685.424	3824.58
685.614	3779.53
685.804	3892.16
685.994	3732.42
686.184	3746.76
686.374	3785.67
686.564	3654.6
686.753	3775.43
686.943	3650.5
687.133	3695.56
687.323	3627.98
687.513	3724.23
687.702	3584.97
687.892	3599.31
688.082	3642.31
688.272	3638.22
688.461	3646.41
688.651	3478.47
688.841	3480.52
689.03	3505.1
689.22	3460.04
689.41	3584.97
689.599	3578.83
689.789	3402.7
689.979	3333.07
690.168	3402.7
690.358	3384.27
690.547	3255.25
690.737	3480.52
690.926	3527.63
691.116	3386.32
691.305	3404.75
691.495	3292.11
691.684	3263.44
691.874	3386.32
692.063	3392.46
692.252	3324.88
692.442	3337.17
692.631	3240.91
692.82	3294.16
693.01	3302.35
693.199	3283.92
693.388	3193.81
693.578	3148.75
693.767	3242.96
693.956	3288.01
694.146	3208.14
694.335	3199.95
694.524	3191.76
694.713	3210.19
694.902	3136.46
695.092	3199.95
695.281	3128.27
695.47	3257.29
695.659	3124.18
695.848	3169.23
696.037	3050.45
696.226	2978.77
696.415	3032.02
696.604	3103.7
696.793	3062.74
696.982	3064.79
697.171	3185.62
697.36	3036.11
697.549	2952.15
697.738	3115.98
697.927	2982.87
698.116	3185.62
698.305	3044.31
698.494	3126.22
698.683	3058.64
698.872	3136.46
699.061	3072.98
699.25	3040.21
699.438	3042.26
699.627	3062.74
699.816	3097.55
700.005	3054.55
700.193	3062.74
700.382	3077.07
700.571	3036.11
700.76	3072.98
700.948	3165.14
701.137	3066.83
701.326	3013.59
701.514	3107.79
701.703	2984.91
701.892	2960.34
702.08	2997.2
702.269	3107.79
702.457	2993.11
702.646	2982.87
702.834	2980.82
703.023	2974.67
703.212	3077.07
703.4	3032.02
703.589	3056.59
703.777	3132.37
703.965	2831.32
704.154	2941.91
704.342	3060.69
704.531	2980.82
704.719	2954.19
704.907	3013.59
705.096	2956.24
705.284	2943.96
705.472	2972.63
705.661	3103.7
705.849	2962.39
706.037	2894.8
706.226	2923.48
706.414	2868.18
706.602	2962.39
706.79	2966.48
706.979	2927.57
707.167	2966.48
707.355	2773.97
707.543	2884.56
707.731	2866.13
707.919	2880.47
708.107	2888.66
708.296	2802.65
708.484	2929.62
708.672	2868.18
708.86	2968.53
709.048	2862.04
709.236	2884.56
709.424	2937.81
709.612	2821.08
709.8	2921.43
709.988	2907.09
710.176	2962.39
710.364	3060.69
710.551	2847.7
710.739	2927.57
710.927	2917.33
711.115	2819.03
711.303	2892.76
711.491	2884.56
711.679	2939.86
711.866	2954.19
712.054	2851.8
712.242	2833.36
712.43	2960.34
712.617	2872.28
712.805	2800.6
712.993	2937.81
713.181	2708.44
713.368	2814.93
713.556	2771.93
713.744	2679.77
713.931	2837.46
714.119	2778.07
714.306	2857.94
714.494	2829.27
714.682	2771.93
714.869	2855.89
715.057	2823.12
715.244	2730.97
715.432	2843.6
715.619	2798.55
715.807	2866.13
715.994	2747.35
716.182	2755.54
716.369	2759.64
716.556	2802.65
716.744	2814.93
716.931	2771.93
717.119	2794.45
717.306	2733.01
717.493	2718.68
717.681	2952.15
717.868	2780.12
718.055	2759.64
718.242	2747.35
718.43	2831.32
718.617	2759.64
718.804	2683.86
718.991	2814.93
719.179	2868.18
719.366	2780.12
719.553	2745.3
719.74	2700.25
719.927	2661.34
720.114	2761.69
720.301	2739.16
720.488	2716.63
720.676	2665.43
720.863	2706.39
721.05	2716.63
721.237	2661.34
721.424	2638.81
721.611	2763.73
721.798	2653.14
721.985	2800.6
722.172	2720.73
722.358	2704.34
722.545	2765.78
722.732	2681.82
722.919	2587.61
723.106	2556.89
723.293	2679.77
723.48	2667.48
723.667	2634.71
723.853	2720.73
724.04	2591.7
724.227	2546.65
724.414	2563.03
724.6	2614.23
724.787	2618.33
724.974	2692.05
725.161	2679.77
725.347	2636.76
725.534	2687.96
725.72	2626.52
725.907	2579.42
726.094	2589.66
726.28	2558.94
726.467	2620.38
726.653	2671.58
726.84	2640.86
727.027	2679.77
727.213	2638.81
727.4	2583.51
727.586	2579.42
727.773	2624.47
727.959	2546.65
728.145	2534.36
728.332	2511.83
728.518	2634.71
728.705	2647
728.891	2497.5
729.077	2534.36
729.264	2694.1
729.45	2497.5
729.636	2599.9
729.823	2651.1
730.009	2644.95
730.195	2585.56
730.382	2495.45
730.568	2583.51
730.754	2575.32
730.94	2567.13
731.126	2579.42
731.313	2544.6
731.499	2567.13
731.685	2542.55
731.871	2597.85
732.057	2528.22
732.243	2462.68
732.429	2575.32
732.615	2595.8
732.801	2569.18
732.987	2556.89
733.173	2554.84
733.359	2556.89
733.545	2517.98
733.731	2554.84
733.917	2669.53
734.103	2454.49
734.289	2597.85
734.475	2544.6
734.661	2589.66
734.847	2591.7
735.033	2530.27
735.219	2528.22
735.404	2431.96
735.59	2579.42
735.776	2493.4
735.962	2487.26
736.148	2429.91
736.333	2470.87
736.519	2642.9
736.705	2374.62
736.89	2548.7
737.076	2409.44
737.262	2454.49
737.447	2479.07
737.633	2393.05
737.819	2464.73
738.004	2466.78
738.19	2485.21
738.375	2450.39
738.561	2450.39
738.747	2397.15
738.932	2374.62
739.118	2446.3
739.303	2401.24
739.489	2282.46
739.674	2452.44
739.859	2325.47
740.045	2366.43
740.23	2481.11
740.416	2339.8
740.601	2315.23
740.786	2313.18
740.972	2331.61
741.157	2278.37
741.342	2294.75
741.528	2292.7
741.713	2358.24
741.898	2261.98
742.084	2233.31
742.269	2323.42
742.454	2325.47
742.639	2343.9
742.824	2421.72
743.01	2264.03
743.195	2229.21
743.38	2292.7
743.565	2317.28
743.75	2218.97
743.935	2169.82
744.12	2288.61
744.305	2116.58
744.49	2116.58
744.675	2114.53
744.86	2118.62
745.045	2159.58
745.23	2153.44
745.415	2143.2
745.6	2104.29
745.785	2126.82
745.97	2114.53
746.155	2124.77
746.34	2157.54
746.525	2028.51
746.71	1987.55
746.895	2100.19
747.079	1975.27
747.264	2079.71
747.449	2083.81
747.634	1860.58
747.819	1958.88
748.003	2020.32
748.188	1944.55
748.373	1952.74
748.557	2003.94
748.742	1919.97
748.927	1960.93
749.111	2018.27
749.296	1944.55
749.481	1887.2
749.665	1836
749.85	1840.1
750.034	1838.05
750.219	1876.96
750.404	1850.34
750.588	1817.57
750.773	1764.33
750.957	1819.62
751.141	1842.15
751.326	1909.73
751.51	1696.74
751.695	1666.02
751.879	1741.8
752.064	1676.26
752.248	1717.22
752.432	1717.22
752.617	1731.56
752.801	1655.78
752.985	1541.1
753.17	1645.54
753.354	1534.95
753.538	1668.07
753.722	1655.78
753.907	1645.54
754.091	1557.48
754.275	1602.54
754.459	1512.42
754.643	1551.34
754.828	1565.67
755.012	1502.19
755.196	1479.66
755.38	1453.03
755.564	1496.04
755.748	1448.94
755.932	1483.75
756.116	1487.85
756.3	1563.62
756.484	1453.03
756.668	1438.7
756.852	1401.83
757.036	1395.69
757.22	1313.77
757.404	1354.73
757.588	1432.55
757.772	1340.4
757.956	1426.41
758.14	1328.11
758.323	1385.45
758.507	1350.64
758.691	1352.68
758.875	1381.35
759.059	1307.63
759.242	1399.79
759.426	1307.63
759.61	1352.68
759.794	1375.21
759.977	1338.35
760.161	1311.72
760.345	1266.67
760.528	1231.85
760.712	1188.85
760.895	1266.67
761.079	1119.21
761.263	1182.7
761.446	1102.83
761.63	1197.04
761.813	1168.37
761.997	1221.61
762.18	1199.09
762.364	1188.85
762.547	1229.81
762.731	1184.75
762.914	1020.91
763.098	1137.65
763.281	1059.82
763.464	1141.74
763.648	1250.28
763.831	1223.66
764.015	1182.7
764.198	1119.21
764.381	1221.61
764.564	1186.8
764.748	1098.74
764.931	1074.16
765.114	1115.12
765.297	1190.89
765.481	1115.12
765.664	1139.69
765.847	1131.5
766.03	1135.6
766.213	1229.81
766.397	1074.16
766.58	1043.44
766.763	1045.49
766.946	1141.74
767.129	1033.2
767.312	1061.87
767.495	1045.49
767.678	1029.1
767.861	1063.92
768.044	1037.3
768.227	1025.01
768.41	977.91
768.593	1068.02
768.776	1033.2
768.959	1025.01
769.142	1047.54
769.324	1000.43
769.507	963.57
769.69	1022.96
769.873	1037.3
770.056	1027.06
770.239	961.52
770.421	1061.87
770.604	1000.43
770.787	990.19
770.97	965.62
771.152	900.08
771.335	928.75
771.518	955.38
771.7	963.57
771.883	898.03
772.066	979.95
772.248	924.66
772.431	947.19
772.613	932.85
772.796	863.22
772.978	955.38
773.161	936.95
773.343	934.9
773.526	820.21
773.708	969.71
773.891	830.45
774.073	828.4
774.256	875.51
774.438	820.21
774.621	797.68
774.803	777.2
774.985	881.65
775.168	828.4
775.35	805.88
775.532	822.26
775.715	852.98
775.897	818.16
776.079	783.35
776.261	769.01
776.444	744.44
776.626	769.01
776.808	826.36
776.99	775.16
777.173	771.06
777.355	791.54
777.537	781.3
777.719	805.88
777.901	762.87
778.083	699.38
778.265	668.66
778.447	648.18
778.629	664.57
778.811	744.44
778.993	746.48
779.175	726
779.357	777.2
779.539	650.23
779.721	703.48
779.903	621.56
780.085	656.37
780.267	619.51
780.449	685.05
780.631	592.89
780.812	775.16
780.994	680.95
781.176	676.85
781.358	703.48
781.54	662.52
781.721	650.23
781.903	642.04
782.085	594.93
782.267	676.85
782.448	664.57
782.63	584.7
782.812	650.23
782.993	531.45
783.175	494.58
783.357	603.13
783.538	592.89
783.72	553.98
783.901	613.37
784.083	519.16
784.264	588.79
784.446	603.13
784.627	582.65
784.809	558.07
784.99	480.25
785.172	574.46
785.353	525.3
785.535	506.87
785.716	525.3
785.897	416.76
786.079	459.77
786.26	519.16
786.441	492.54
786.623	439.29
786.804	463.86
786.985	537.59
787.167	431.1
787.348	529.4
787.529	521.21
787.71	553.98
787.891	494.58
788.073	478.2
788.254	420.86
788.435	508.92
788.616	435.19
788.797	363.51
788.978	494.58
789.159	414.71
789.34	429.05
789.522	478.2
789.703	381.95
789.884	390.14
790.065	447.48
790.246	388.09
790.427	465.91
790.607	439.29
790.788	465.91
790.969	318.46
791.15	412.67
791.331	470.01
791.512	431.1
791.693	429.05
791.874	334.84
792.054	500.73
792.235	472.06
792.416	379.9
792.597	345.08
792.778	386.04
792.958	355.32
793.139	388.09
793.32	381.95
793.5	361.47
793.681	373.75
793.862	357.37
794.042	375.8
794.223	359.42
794.404	424.95
794.584	322.56
794.765	414.71
794.945	410.62
795.126	330.75
795.306	369.66
795.487	410.62
795.667	390.14
795.848	375.8
796.028	291.84
796.209	349.18
796.389	381.95
796.57	324.6
796.75	287.74
796.93	328.7
797.111	359.42
797.291	304.12
797.471	263.16
797.652	287.74
797.832	269.31
798.012	302.08
798.192	320.51
798.373	328.7
798.553	371.71
798.733	318.46
798.913	349.18
799.093	295.93
799.274	340.99
799.454	371.71
799.634	355.32
799.814	279.55
799.994	293.88
800.174	248.83
800.354	338.94
800.534	214.01
800.714	300.03
800.894	345.08
801.074	273.4
801.254	205.82
801.434	318.46
801.614	287.74
801.794	261.12
801.974	656.37
802.154	246.78
802.334	302.08
802.514	289.79
802.693	269.31
802.873	281.6
803.053	252.92
803.233	267.26
803.413	267.26
803.592	248.83
803.772	242.68
803.952	267.26
804.131	250.88
804.311	240.64
804.491	338.94
804.67	197.63
804.85	283.64
805.03	279.55
805.209	230.4
805.389	300.03
805.568	302.08
805.748	250.88
805.928	252.92
806.107	261.12
806.287	316.41
806.466	285.69
806.646	261.12
806.825	306.17
807.004	238.59
807.184	214.01
807.363	211.96
807.543	205.82
807.722	189.44
807.901	308.22
808.081	207.87
808.26	263.16
808.439	230.4
808.619	287.74
808.798	179.2
808.977	216.06
809.156	248.83
809.336	228.35
809.515	216.06
809.694	201.72
809.873	146.43
810.052	197.63
810.231	257.02
810.411	234.49
810.59	224.25
810.769	162.81
810.948	281.6
811.127	195.58
811.306	216.06
811.485	191.49
811.664	218.11
811.843	242.68
812.022	156.67
812.201	207.87
812.38	224.25
812.559	197.63
812.737	226.3
812.916	232.44
813.095	189.44
813.274	187.39
813.453	107.52
813.632	181.25
813.811	222.2
813.989	193.53
814.168	144.38
814.347	168.96
814.526	173.05
814.704	140.29
814.883	185.34
815.062	152.57
815.24	281.6
815.419	154.62
815.598	193.53
815.776	148.48
815.955	142.33
816.133	123.9
816.312	191.49
816.49	236.54
816.669	136.19
816.847	105.47
817.026	189.44
817.204	209.92
817.383	203.77
817.561	166.91
817.74	185.34
817.918	181.25
818.097	62.46
818.275	154.62
818.453	214.01
818.632	205.82
818.81	136.19
818.988	111.61
819.167	111.61
819.345	148.48
819.523	128
819.701	177.15
819.879	168.96
820.058	181.25
820.236	162.81
820.414	150.53
820.592	144.38
820.77	160.77
820.948	179.2
821.127	166.91
821.305	146.43
821.483	95.23
821.661	197.63
821.839	138.24
822.017	117.76
822.195	91.13
822.373	171.01
822.551	168.96
822.729	220.16
822.907	134.14
823.085	209.92
823.262	58.37
823.44	119.81
823.618	166.91
823.796	125.95
823.974	181.25
824.152	189.44
824.329	187.39
824.507	111.61
824.685	80.89
824.863	117.76
825.04	185.34
825.218	132.09
825.396	181.25
825.574	54.27
825.751	78.85
825.929	134.14
826.107	93.18
826.284	168.96
826.462	164.86
826.639	168.96
826.817	58.37
826.994	134.14
827.172	95.23
827.349	134.14
827.527	171.01
827.704	142.33
827.882	117.76
828.059	121.85
828.237	105.47
828.414	173.05
828.591	95.23
828.769	154.62
828.946	111.61
829.124	152.57
829.301	78.85
829.478	181.25
829.655	62.46
829.833	74.75
830.01	89.09
830.187	46.08
830.364	119.81
830.542	78.85
830.719	168.96
830.896	183.29
831.073	99.33
831.25	144.38
831.427	105.47
831.604	121.85
831.782	168.96
831.959	128
832.136	78.85
832.313	62.46
832.49	91.13
832.667	105.47
832.844	115.71
833.021	193.53
833.198	144.38
833.374	111.61
833.551	109.57
833.728	119.81
833.905	132.09
834.082	123.9
834.259	111.61
834.436	121.85
834.612	84.99
834.789	125.95
834.966	111.61
835.143	66.56
835.319	128
835.496	107.52
835.673	160.77
835.85	103.42
836.026	111.61
836.203	117.76
836.38	111.61
836.556	66.56
836.733	44.03
836.909	115.71
837.086	103.42
837.262	103.42
837.439	89.09
837.616	78.85
837.792	31.74
837.968	64.51
838.145	93.18
838.321	113.66
838.498	70.65
838.674	160.77
838.851	148.48
839.027	78.85
839.203	119.81
839.38	99.33
839.556	39.94
839.732	140.29
839.909	95.23
840.085	70.65
840.261	95.23
840.437	115.71
840.614	119.81
840.79	93.18
840.966	72.7
841.142	119.81
841.318	50.18
841.494	68.61
841.671	87.04
841.847	54.27
842.023	91.13
842.199	46.08
842.375	105.47
842.551	132.09
842.727	84.99
842.903	105.47
843.079	146.43
843.255	187.39
843.431	15.36
843.607	181.25
843.783	76.8
843.959	91.13
844.134	78.85
844.31	154.62
844.486	44.03
844.662	82.94
844.838	74.75
845.013	130.05
845.189	76.8
845.365	15.36
845.541	33.79
845.716	177.15
845.892	82.94
846.068	33.79
846.244	46.08
846.419	105.47
846.595	60.42
846.77	46.08
846.946	130.05
847.122	99.33
847.297	25.6
847.473	87.04
847.648	33.79
847.824	82.94
847.999	-9.22
848.175	111.61
848.35	68.61
848.526	89.09
848.701	130.05
848.876	66.56
849.052	109.57
849.227	68.61
849.403	66.56
849.578	-23.55
849.753	37.89
849.929	46.08
850.104	50.18
850.279	37.89
850.454	70.65
850.63	97.28
850.805	105.47
850.98	99.33
851.155	29.7
851.33	105.47
851.505	64.51
851.681	138.24
851.856	70.65
852.031	66.56
852.206	-1.02
852.381	105.47
852.556	-31.74
852.731	31.74
852.906	72.7
853.081	58.37
853.256	-3.07
853.431	97.28
853.606	62.46
853.781	107.52
853.956	50.18
854.131	103.42
854.305	29.7
854.48	113.66
854.655	58.37
854.83	58.37
855.005	84.99
855.18	44.03
855.354	35.84
855.529	29.7
855.704	50.18
855.879	1.02
856.053	1.02
856.228	134.14
856.403	29.7
856.577	93.18
856.752	33.79
856.926	68.61
857.101	52.22
857.276	132.09
857.45	113.66
857.625	117.76
857.799	52.22
857.974	29.7
858.148	62.46
858.323	97.28
858.497	99.33
858.672	62.46
858.846	17.41
859.02	80.89
859.195	29.7
859.369	37.89
859.543	54.27
859.718	95.23
859.892	-3.07
860.066	60.42
860.241	109.57
860.415	3.07
860.589	78.85
860.763	74.75
860.938	3.07
861.112	105.47
861.286	9.22
861.46	82.94
861.634	31.74
861.808	125.95
861.982	-13.31
862.157	-29.7
862.331	-13.31
862.505	39.94
862.679	29.7
862.853	60.42
863.027	58.37
863.201	54.27
863.375	80.89
863.549	103.42
863.722	3.07
863.896	99.33
864.07	50.18
864.244	-15.36
864.418	44.03
864.592	87.04
864.766	37.89
864.939	15.36
865.113	-27.65
865.287	82.94
865.461	29.7
865.634	64.51
865.808	9.22
865.982	52.22
866.156	25.6
866.329	37.89
866.503	50.18
866.676	41.98
866.85	84.99
867.024	19.46
867.197	84.99
867.371	56.32
867.544	60.42
867.718	82.94
867.891	17.41
868.065	70.65
868.238	66.56
868.412	95.23
868.585	99.33
868.759	48.13
868.932	-62.46
869.105	46.08
869.279	11.26
869.452	17.41
869.625	21.5
869.799	46.08
869.972	33.79
870.145	84.99
870.319	23.55
870.492	21.5
870.665	97.28
870.838	3.07
871.011	58.37
871.185	76.8
871.358	37.89
871.531	99.33
871.704	109.57
871.877	70.65
872.05	37.89
872.223	97.28
872.396	35.84
872.569	15.36
872.742	17.41
872.915	87.04
873.088	37.89
873.261	17.41
873.434	70.65
873.607	44.03
873.78	125.95
873.953	9.22
874.126	-11.26
874.299	-3.07
874.471	95.23
874.644	117.76
874.817	56.32
874.99	17.41
875.163	11.26
875.335	27.65
875.508	15.36
875.681	35.84
875.853	-54.27
876.026	-11.26
876.199	119.81
876.371	11.26
876.544	-15.36
876.717	37.89
876.889	-35.84
877.062	56.32
877.234	31.74
877.407	-5.12
877.579	33.79
877.752	46.08
877.924	21.5
878.097	70.65
878.269	1.02
878.442	31.74
878.614	66.56
878.786	-1.02
878.959	29.7
879.131	68.61
879.303	27.65
879.476	76.8
879.648	95.23
879.82	58.37
879.993	35.84
880.165	21.5
880.337	56.32
880.509	-31.74
880.681	5.12
880.854	-1.02
881.026	74.75
881.198	130.05
881.37	21.5
881.542	134.14
881.714	50.18
881.886	115.71
882.058	21.5
882.23	41.98
882.402	35.84
882.574	58.37
882.746	35.84
882.918	78.85
883.09	62.46
883.262	52.22
883.434	-27.65
883.606	21.5
883.778	-33.79
883.95	31.74
884.122	37.89
884.293	93.18
884.465	50.18
884.637	41.98
884.809	-33.79
884.98	21.5
885.152	91.13
885.324	37.89
885.496	-46.08
885.667	60.42
885.839	-25.6
886.011	121.85
886.182	50.18
886.354	11.26
886.525	27.65
886.697	-13.31
886.869	23.55
887.04	31.74
887.212	-5.12
887.383	52.22
887.555	1.02
887.726	29.7
887.897	29.7
888.069	54.27
888.24	76.8
888.412	64.51
888.583	-15.36
888.754	62.46
888.926	19.46
889.097	-3.07
889.268	-13.31
889.44	44.03
889.611	-31.74
889.782	29.7
889.953	13.31
890.125	17.41
890.296	82.94
890.467	76.8
890.638	35.84
890.809	82.94
890.98	66.56
891.151	15.36
891.323	-11.26
891.494	56.32
891.665	37.89
891.836	72.7
892.007	41.98
892.178	11.26
892.349	-3.07
892.52	72.7
892.691	-15.36
892.862	15.36
893.032	7.17
893.203	11.26
893.374	-33.79
893.545	62.46
893.716	-7.17
893.887	78.85
894.057	-44.03
894.228	-29.7
894.399	48.13
894.57	-1.02
894.74	41.98
894.911	13.31
895.082	-39.94
895.253	11.26
895.423	31.74
895.594	7.17
895.764	60.42
895.935	-13.31
896.106	11.26
896.276	-1.02
896.447	29.7
896.617	-11.26
896.788	21.5
896.958	29.7
897.129	19.46
897.299	60.42
897.47	1.02
897.64	9.22
897.81	-5.12
897.981	25.6
898.151	35.84
898.322	35.84
898.492	15.36
898.662	115.71
898.832	-35.84
899.003	41.98
899.173	19.46
899.343	48.13
899.513	33.79
