Data from USB4F104151__90__11-06-43-562.txt Node

Date: Wed Mar 12 11:06:43 EDT 2025
User: louis
Spectrometer: USB4F10415
Trigger mode: 4
Integration Time (sec): 2.000000E-2
Scans to average: 1
Electric dark correction enabled: true
Nonlinearity correction enabled: false
Boxcar width: 0
XAxis mode: Wavelengths
Number of Pixels in Spectrum: 3648
>>>>>Begin Spectral Data<<<<<
178.204	-44.37
178.424	-44.37
178.644	-44.37
178.864	-103.76
179.084	-83.28
179.304	-15.7
179.524	0.68
179.744	-3.41
179.964	17.07
180.184	41.64
180.404	4.78
180.624	-44.37
180.844	-1.37
181.064	6.83
181.283	-52.56
181.503	6.83
181.723	39.59
181.943	-46.42
182.163	23.21
182.383	72.36
182.602	45.74
182.822	29.35
183.042	41.64
183.262	-21.85
183.482	-3.41
183.701	21.16
183.921	29.35
184.141	-27.99
184.361	-44.37
184.58	-40.28
184.8	-68.95
185.02	-30.04
185.239	78.51
185.459	27.31
185.679	2.73
185.898	-32.08
186.118	19.11
186.338	33.45
186.557	17.07
186.777	6.83
186.997	94.89
187.216	8.87
187.436	111.27
187.655	25.26
187.875	21.16
188.095	-52.56
188.314	47.79
188.534	31.4
188.753	-17.75
188.973	12.97
189.192	64.17
189.412	53.93
189.631	12.97
189.851	25.26
190.07	-9.56
190.29	23.21
190.509	33.45
190.729	31.4
190.948	15.02
191.168	137.9
191.387	68.27
191.607	-32.08
191.826	86.7
192.045	-25.94
192.265	17.07
192.484	41.64
192.704	-40.28
192.923	17.07
193.142	82.6
193.362	62.12
193.581	39.59
193.8	4.78
194.02	58.03
194.239	-56.66
194.458	33.45
194.678	2.73
194.897	62.12
195.116	-32.08
195.335	-11.61
195.555	-3.41
195.774	47.79
195.993	35.5
196.212	-7.51
196.432	-21.85
196.651	19.11
196.87	8.87
197.089	58.03
197.308	21.16
197.528	156.33
197.747	-111.96
197.966	6.83
198.185	90.79
198.404	-19.8
198.623	-3.41
198.842	105.13
199.062	8.87
199.281	90.79
199.5	64.17
199.719	6.83
199.938	12.97
200.157	15.02
200.376	66.22
200.595	-15.7
200.814	49.83
201.033	25.26
201.252	88.75
201.471	-3.41
201.69	51.88
201.909	-5.46
202.128	-56.66
202.347	15.02
202.566	105.13
202.785	111.27
203.004	2.73
203.223	70.31
203.442	-9.56
203.661	-7.51
203.879	0.68
204.098	19.11
204.317	-46.42
204.536	8.87
204.755	39.59
204.974	53.93
205.193	-44.37
205.411	96.94
205.63	33.45
205.849	80.55
206.068	0.68
206.287	12.97
206.505	43.69
206.724	90.79
206.943	-5.46
207.162	58.03
207.381	27.31
207.599	23.21
207.818	0.68
208.037	60.07
208.255	-30.04
208.474	10.92
208.693	25.26
208.911	-30.04
209.13	94.89
209.349	-21.85
209.567	47.79
209.786	39.59
210.005	-50.52
210.223	15.02
210.442	62.12
210.661	33.45
210.879	23.21
211.098	6.83
211.316	-5.46
211.535	78.51
211.753	29.35
211.972	60.07
212.191	33.45
212.409	19.11
212.628	2.73
212.846	17.07
213.065	-19.8
213.283	90.79
213.502	55.98
213.72	23.21
213.938	55.98
214.157	10.92
214.375	70.31
214.594	86.7
214.812	82.6
215.031	45.74
215.249	74.41
215.467	-9.56
215.686	53.93
215.904	21.16
216.122	-21.85
216.341	60.07
216.559	43.69
216.778	37.55
216.996	-9.56
217.214	29.35
217.432	-25.94
217.651	41.64
217.869	33.45
218.087	-9.56
218.306	17.07
218.524	21.16
218.742	2.73
218.96	8.87
219.179	53.93
219.397	51.88
219.615	43.69
219.833	6.83
220.051	6.83
220.27	51.88
220.488	2.73
220.706	17.07
220.924	-66.9
221.142	60.07
221.36	33.45
221.578	-7.51
221.796	2.73
222.015	21.16
222.233	15.02
222.451	21.16
222.669	29.35
222.887	45.74
223.105	41.64
223.323	92.84
223.541	21.16
223.759	-7.51
223.977	-56.66
224.195	33.45
224.413	21.16
224.631	76.46
224.849	19.11
225.067	31.4
225.285	49.83
225.503	70.31
225.721	-7.51
225.939	37.55
226.157	-21.85
226.375	31.4
226.592	86.7
226.81	47.79
227.028	62.12
227.246	60.07
227.464	45.74
227.682	25.26
227.9	25.26
228.117	31.4
228.335	78.51
228.553	29.35
228.771	21.16
228.989	35.5
229.206	15.02
229.424	-38.23
229.642	17.07
229.86	-50.52
230.077	113.32
230.295	123.56
230.513	21.16
230.731	74.41
230.948	33.45
231.166	25.26
231.384	12.97
231.601	55.98
231.819	62.12
232.037	35.5
232.254	-46.42
232.472	29.35
232.689	-9.56
232.907	37.55
233.125	4.78
233.342	90.79
233.56	51.88
233.777	23.21
233.995	15.02
234.213	8.87
234.43	92.84
234.648	82.6
234.865	15.02
235.083	-40.28
235.3	31.4
235.518	17.07
235.735	33.45
235.953	49.83
236.17	39.59
236.388	125.61
236.605	-40.28
236.822	45.74
237.04	29.35
237.257	-19.8
237.475	-27.99
237.692	33.45
237.909	23.21
238.127	29.35
238.344	23.21
238.562	47.79
238.779	45.74
238.996	35.5
239.214	-25.94
239.431	62.12
239.648	-56.66
239.865	51.88
240.083	-3.41
240.3	82.6
240.517	-11.61
240.735	-1.37
240.952	55.98
241.169	117.42
241.386	-23.89
241.603	45.74
241.821	8.87
242.038	58.03
242.255	60.07
242.472	4.78
242.689	-19.8
242.907	35.5
243.124	29.35
243.341	58.03
243.558	0.68
243.775	-13.65
243.992	82.6
244.209	76.46
244.426	53.93
244.643	90.79
244.86	37.55
245.078	21.16
245.295	45.74
245.512	21.16
245.729	27.31
245.946	19.11
246.163	94.89
246.38	33.45
246.597	96.94
246.814	39.59
247.031	62.12
247.248	113.32
247.464	-15.7
247.681	33.45
247.898	70.31
248.115	31.4
248.332	-7.51
248.549	68.27
248.766	35.5
248.983	35.5
249.2	-25.94
249.417	15.02
249.633	35.5
249.85	43.69
250.067	-15.7
250.284	78.51
250.501	33.45
250.717	6.83
250.934	-1.37
251.151	-27.99
251.368	-27.99
251.585	-17.75
251.801	41.64
252.018	-15.7
252.235	41.64
252.451	-56.66
252.668	8.87
252.885	47.79
253.102	0.68
253.318	78.51
253.535	10.92
253.752	-52.56
253.968	-1.37
254.185	-17.75
254.401	37.55
254.618	41.64
254.835	45.74
255.051	90.79
255.268	35.5
255.484	41.64
255.701	41.64
255.917	17.07
256.134	-9.56
256.351	10.92
256.567	29.35
256.784	-15.7
257	-7.51
257.217	90.79
257.433	78.51
257.65	82.6
257.866	-7.51
258.082	15.02
258.299	-38.23
258.515	10.92
258.732	-7.51
258.948	88.75
259.165	64.17
259.381	53.93
259.597	2.73
259.814	111.27
260.03	39.59
260.246	68.27
260.463	39.59
260.679	-3.41
260.895	-40.28
261.112	27.31
261.328	0.68
261.544	15.02
261.761	51.88
261.977	43.69
262.193	-11.61
262.409	29.35
262.626	15.02
262.842	-13.65
263.058	-23.89
263.274	47.79
263.49	31.4
263.707	33.45
263.923	6.83
264.139	6.83
264.355	62.12
264.571	47.79
264.787	25.26
265.004	68.27
265.22	0.68
265.436	27.31
265.652	86.7
265.868	62.12
266.084	51.88
266.3	92.84
266.516	39.59
266.732	31.4
266.948	51.88
267.164	39.59
267.38	6.83
267.596	-13.65
267.812	84.65
268.028	55.98
268.244	41.64
268.46	-27.99
268.676	41.64
268.892	8.87
269.108	-17.75
269.324	-38.23
269.54	58.03
269.756	37.55
269.972	47.79
270.188	-13.65
270.403	23.21
270.619	121.51
270.835	33.45
271.051	29.35
271.267	8.87
271.483	78.51
271.698	88.75
271.914	55.98
272.13	21.16
272.346	25.26
272.562	21.16
272.777	90.79
272.993	27.31
273.209	43.69
273.425	-48.47
273.64	-11.61
273.856	-7.51
274.072	90.79
274.287	8.87
274.503	84.65
274.719	88.75
274.934	64.17
275.15	15.02
275.366	12.97
275.581	4.78
275.797	15.02
276.012	2.73
276.228	15.02
276.444	45.74
276.659	29.35
276.875	12.97
277.09	45.74
277.306	-15.7
277.521	121.51
277.737	-38.23
277.952	45.74
278.168	-9.56
278.383	39.59
278.599	4.78
278.814	29.35
279.03	33.45
279.245	64.17
279.461	-7.51
279.676	-1.37
279.892	10.92
280.107	17.07
280.322	-97.62
280.538	29.35
280.753	27.31
280.969	47.79
281.184	35.5
281.399	45.74
281.615	47.79
281.83	25.26
282.045	8.87
282.26	33.45
282.476	31.4
282.691	37.55
282.906	58.03
283.122	29.35
283.337	-7.51
283.552	53.93
283.767	-1.37
283.983	-13.65
284.198	29.35
284.413	55.98
284.628	111.27
284.843	62.12
285.058	37.55
285.274	60.07
285.489	2.73
285.704	45.74
285.919	-44.37
286.134	96.94
286.349	-11.61
286.564	25.26
286.779	58.03
286.995	25.26
287.21	21.16
287.425	53.93
287.64	43.69
287.855	45.74
288.07	0.68
288.285	17.07
288.5	27.31
288.715	0.68
288.93	55.98
289.145	29.35
289.36	15.02
289.575	25.26
289.79	70.31
290.004	-17.75
290.219	12.97
290.434	29.35
290.649	39.59
290.864	-3.41
291.079	-21.85
291.294	2.73
291.509	70.31
291.724	-19.8
291.938	31.4
292.153	58.03
292.368	2.73
292.583	15.02
292.798	25.26
293.012	21.16
293.227	4.78
293.442	-15.7
293.657	25.26
293.871	0.68
294.086	84.65
294.301	49.83
294.516	74.41
294.73	19.11
294.945	-32.08
295.16	12.97
295.374	17.07
295.589	84.65
295.804	17.07
296.018	180.9
296.233	-27.99
296.447	41.64
296.662	29.35
296.877	96.94
297.091	92.84
297.306	-17.75
297.52	41.64
297.735	84.65
297.949	47.79
298.164	33.45
298.378	-3.41
298.593	-91.48
298.807	58.03
299.022	19.11
299.236	86.7
299.451	0.68
299.665	76.46
299.88	-11.61
300.094	6.83
300.309	78.51
300.523	78.51
300.737	-9.56
300.952	12.97
301.166	115.37
301.381	-13.65
301.595	4.78
301.809	-23.89
302.024	21.16
302.238	-52.56
302.452	37.55
302.667	-9.56
302.881	-7.51
303.095	49.83
303.309	76.46
303.524	-27.99
303.738	86.7
303.952	6.83
304.166	92.84
304.381	29.35
304.595	58.03
304.809	-11.61
305.023	4.78
305.237	-38.23
305.452	53.93
305.666	47.79
305.88	103.08
306.094	17.07
306.308	21.16
306.522	72.36
306.736	-7.51
306.95	21.16
307.164	0.68
307.379	27.31
307.593	29.35
307.807	8.87
308.021	78.51
308.235	25.26
308.449	-25.94
308.663	43.69
308.877	58.03
309.091	41.64
309.305	62.12
309.519	80.55
309.733	64.17
309.947	-27.99
310.161	66.22
310.374	66.22
310.588	31.4
310.802	-1.37
311.016	58.03
311.23	27.31
311.444	-7.51
311.658	-7.51
311.872	88.75
312.085	66.22
312.299	109.22
312.513	39.59
312.727	131.75
312.941	51.88
313.154	58.03
313.368	10.92
313.582	78.51
313.796	101.03
314.009	33.45
314.223	33.45
314.437	111.27
314.651	66.22
314.864	37.55
315.078	27.31
315.292	45.74
315.505	101.03
315.719	39.59
315.933	70.31
316.146	35.5
316.36	-25.94
316.573	74.41
316.787	86.7
317.001	60.07
317.214	10.92
317.428	33.45
317.641	39.59
317.855	15.02
318.068	-30.04
318.282	41.64
318.495	2.73
318.709	35.5
318.922	39.59
319.136	35.5
319.349	25.26
319.563	2.73
319.776	68.27
319.99	-58.71
320.203	90.79
320.417	78.51
320.63	-7.51
320.843	29.35
321.057	27.31
321.27	27.31
321.483	58.03
321.697	39.59
321.91	15.02
322.124	6.83
322.337	45.74
322.55	-3.41
322.763	86.7
322.977	25.26
323.19	8.87
323.403	-13.65
323.617	49.83
323.83	70.31
324.043	17.07
324.256	113.32
324.469	-50.52
324.683	92.84
324.896	45.74
325.109	80.55
325.322	39.59
325.535	19.11
325.748	-21.85
325.962	12.97
326.175	105.13
326.388	96.94
326.601	49.83
326.814	88.75
327.027	-7.51
327.24	55.98
327.453	-21.85
327.666	0.68
327.879	66.22
328.092	98.99
328.305	-7.51
328.518	-13.65
328.731	-9.56
328.944	49.83
329.157	17.07
329.37	66.22
329.583	121.51
329.796	10.92
330.009	31.4
330.222	64.17
330.435	43.69
330.648	94.89
330.861	-19.8
331.073	45.74
331.286	82.6
331.499	31.4
331.712	29.35
331.925	53.93
332.138	-5.46
332.35	92.84
332.563	49.83
332.776	64.17
332.989	-7.51
333.202	55.98
333.414	-13.65
333.627	45.74
333.84	-7.51
334.053	-13.65
334.265	6.83
334.478	43.69
334.691	53.93
334.903	-25.94
335.116	-13.65
335.329	64.17
335.541	25.26
335.754	107.18
335.966	6.83
336.179	47.79
336.392	64.17
336.604	76.46
336.817	41.64
337.029	25.26
337.242	-23.89
337.454	76.46
337.667	45.74
337.88	70.31
338.092	25.26
338.305	53.93
338.517	92.84
338.729	60.07
338.942	53.93
339.154	19.11
339.367	53.93
339.579	72.36
339.792	-17.75
340.004	37.55
340.217	8.87
340.429	109.22
340.641	29.35
340.854	47.79
341.066	47.79
341.278	41.64
341.491	103.08
341.703	86.7
341.915	4.78
342.128	10.92
342.34	23.21
342.552	53.93
342.764	68.27
342.977	49.83
343.189	33.45
343.401	29.35
343.613	51.88
343.826	41.64
344.038	33.45
344.25	55.98
344.462	-32.08
344.674	4.78
344.886	-32.08
345.099	4.78
345.311	55.98
345.523	90.79
345.735	17.07
345.947	27.31
346.159	103.08
346.371	45.74
346.583	62.12
346.795	105.13
347.007	-21.85
347.219	23.21
347.431	10.92
347.643	66.22
347.855	53.93
348.067	35.5
348.279	12.97
348.491	49.83
348.703	-56.66
348.915	98.99
349.127	10.92
349.339	111.27
349.551	-38.23
349.763	105.13
349.975	39.59
350.187	53.93
350.399	96.94
350.61	82.6
350.822	17.07
351.034	70.31
351.246	49.83
351.458	31.4
351.669	19.11
351.881	84.65
352.093	-30.04
352.305	27.31
352.517	58.03
352.728	76.46
352.94	74.41
353.152	64.17
353.363	19.11
353.575	51.88
353.787	49.83
353.999	62.12
354.21	76.46
354.422	29.35
354.633	43.69
354.845	-11.61
355.057	113.32
355.268	33.45
355.48	31.4
355.692	82.6
355.903	49.83
356.115	45.74
356.326	66.22
356.538	76.46
356.749	8.87
356.961	72.36
357.172	49.83
357.384	6.83
357.595	88.75
357.807	74.41
358.018	88.75
358.23	74.41
358.441	131.75
358.653	47.79
358.864	29.35
359.075	6.83
359.287	78.51
359.498	78.51
359.709	74.41
359.921	33.45
360.132	60.07
360.344	10.92
360.555	-19.8
360.766	43.69
360.977	80.55
361.189	88.75
361.4	-36.18
361.611	43.69
361.823	90.79
362.034	23.21
362.245	21.16
362.456	4.78
362.667	27.31
362.879	58.03
363.09	-25.94
363.301	123.56
363.512	-3.41
363.723	82.6
363.935	-1.37
364.146	96.94
364.357	115.37
364.568	29.35
364.779	49.83
364.99	12.97
365.201	12.97
365.412	45.74
365.623	62.12
365.834	10.92
366.045	47.79
366.256	49.83
366.467	12.97
366.678	21.16
366.889	-36.18
367.1	60.07
367.311	82.6
367.522	33.45
367.733	41.64
367.944	84.65
368.155	47.79
368.366	10.92
368.577	82.6
368.788	90.79
368.999	82.6
369.209	123.56
369.42	168.62
369.631	150.18
369.842	39.59
370.053	25.26
370.264	37.55
370.474	39.59
370.685	62.12
370.896	76.46
371.107	-3.41
371.317	62.12
371.528	74.41
371.739	86.7
371.95	78.51
372.16	101.03
372.371	-23.89
372.582	86.7
372.792	68.27
373.003	-11.61
373.214	72.36
373.424	96.94
373.635	70.31
373.846	2.73
374.056	8.87
374.267	27.31
374.477	58.03
374.688	76.46
374.898	45.74
375.109	62.12
375.319	80.55
375.53	21.16
375.74	60.07
375.951	19.11
376.161	58.03
376.372	115.37
376.582	82.6
376.793	117.42
377.003	-34.13
377.214	-3.41
377.424	74.41
377.635	51.88
377.845	47.79
378.055	62.12
378.266	33.45
378.476	-34.13
378.686	62.12
378.897	0.68
379.107	141.99
379.317	17.07
379.528	43.69
379.738	49.83
379.948	135.85
380.158	90.79
380.369	49.83
380.579	31.4
380.789	35.5
380.999	47.79
381.21	12.97
381.42	125.61
381.63	74.41
381.84	62.12
382.05	45.74
382.261	35.5
382.471	25.26
382.681	12.97
382.891	31.4
383.101	33.45
383.311	23.21
383.521	41.64
383.731	45.74
383.941	68.27
384.151	94.89
384.361	125.61
384.571	-58.71
384.781	131.75
384.991	60.07
385.201	172.71
385.411	86.7
385.621	139.94
385.831	25.26
386.041	8.87
386.251	115.37
386.461	62.12
386.671	-11.61
386.881	103.08
387.091	17.07
387.301	64.17
387.511	21.16
387.72	70.31
387.93	62.12
388.14	-11.61
388.35	109.22
388.56	88.75
388.769	98.99
388.979	90.79
389.189	107.18
389.399	39.59
389.609	109.22
389.818	47.79
390.028	12.97
390.238	135.85
390.447	-25.94
390.657	33.45
390.867	0.68
391.076	25.26
391.286	39.59
391.496	45.74
391.705	47.79
391.915	62.12
392.125	74.41
392.334	127.66
392.544	82.6
392.753	133.8
392.963	49.83
393.172	-21.85
393.382	58.03
393.591	98.99
393.801	47.79
394.01	141.99
394.22	39.59
394.429	39.59
394.639	33.45
394.848	84.65
395.058	107.18
395.267	47.79
395.477	49.83
395.686	137.9
395.895	0.68
396.105	121.51
396.314	133.8
396.524	101.03
396.733	58.03
396.942	137.9
397.152	172.71
397.361	109.22
397.57	82.6
397.78	90.79
397.989	115.37
398.198	60.07
398.407	121.51
398.617	86.7
398.826	117.42
399.035	66.22
399.244	88.75
399.453	90.79
399.663	96.94
399.872	150.18
400.081	158.38
400.29	133.8
400.499	111.27
400.708	156.33
400.917	84.65
401.127	164.52
401.336	123.56
401.545	187.05
401.754	94.89
401.963	45.74
402.172	60.07
402.381	123.56
402.59	131.75
402.799	98.99
403.008	86.7
403.217	164.52
403.426	131.75
403.635	109.22
403.844	23.21
404.053	64.17
404.262	117.42
404.471	131.75
404.68	162.47
404.888	152.23
405.097	164.52
405.306	125.61
405.515	197.29
405.724	150.18
405.933	133.8
406.142	113.32
406.35	135.85
406.559	240.29
406.768	129.7
406.977	199.34
407.185	193.19
407.394	225.96
407.603	254.63
407.812	193.19
408.02	189.1
408.229	219.82
408.438	232.1
408.646	262.82
408.855	189.1
409.064	260.77
409.272	211.62
409.481	254.63
409.69	293.54
409.898	248.49
410.107	307.88
410.315	307.88
410.524	277.16
410.733	281.25
410.941	336.55
411.15	375.46
411.358	363.17
411.567	387.75
411.775	408.23
411.984	359.08
412.192	340.65
412.401	395.94
412.609	467.62
412.818	463.52
413.026	574.11
413.234	531.11
413.443	426.66
413.651	598.69
413.86	535.2
414.068	545.44
414.276	555.68
414.485	617.12
414.693	633.5
414.901	748.19
415.11	672.42
415.318	680.61
415.526	737.95
415.734	731.81
415.943	817.82
416.151	836.25
416.359	869.02
416.567	840.35
416.776	877.21
416.984	922.27
417.192	940.7
417.4	965.28
417.608	991.9
417.817	996
418.025	1098.39
418.233	1051.29
418.441	1256.09
418.649	1161.88
418.857	1278.62
419.065	1262.23
419.273	1360.53
419.481	1378.97
419.689	1442.45
419.897	1520.28
420.105	1481.36
420.313	1563.28
420.521	1655.44
420.729	1630.87
420.937	1729.17
421.145	1704.59
421.353	1745.55
421.561	1909.39
421.769	1839.76
421.977	1987.21
422.185	1966.73
422.393	2075.27
422.601	2241.16
422.809	2222.73
423.017	2167.43
423.224	2318.98
423.432	2497.16
423.64	2517.64
423.848	2794.11
424.056	2775.68
424.263	2806.4
424.471	2884.22
424.679	2929.28
424.887	3109.5
425.094	3150.46
425.302	3132.03
425.51	3228.28
425.718	3259
425.925	3494.52
426.133	3572.34
426.341	3717.75
426.548	3938.93
426.756	3881.58
426.964	4012.65
427.171	4053.61
427.379	4309.61
427.586	4334.18
427.794	4446.82
428.001	4678.24
428.209	4893.28
428.417	4885.09
428.624	5218.91
428.832	5112.41
429.039	5186.14
429.247	5233.24
429.454	5679.7
429.662	6042.19
429.869	5620.31
430.076	6140.49
430.284	5925.46
430.491	6056.53
430.699	6404.68
430.906	6584.9
431.114	6627.91
431.321	6787.65
431.528	6902.34
431.736	7336.51
431.943	7522.87
432.15	7471.67
432.358	7445.05
432.565	7989.81
432.772	7932.47
432.979	8499.75
433.187	8612.39
433.394	8643.11
433.601	9017.89
433.808	9312.8
434.016	9249.31
434.223	9384.48
434.43	10215.95
434.637	9968.15
434.844	10428.94
435.052	10672.65
435.259	10566.15
435.466	10846.73
435.673	10740.23
435.88	11373.05
436.087	11688.44
436.294	11887.09
436.501	11776.5
436.708	12030.45
436.915	12292.59
437.122	12808.68
437.329	12579.31
437.537	13244.9
437.743	13461.98
437.95	13380.06
438.157	14010.84
438.364	14479.82
438.571	14492.11
438.778	14313.94
438.985	15927.74
439.192	15344.06
439.399	16073.14
439.606	15223.23
439.813	16333.23
440.02	17330.59
440.227	16767.4
440.433	16712.11
440.64	17533.34
440.847	17301.92
441.054	17791.39
441.261	19014.02
441.467	18612.62
441.674	18887.05
441.881	19741.05
442.088	19655.04
442.294	19616.13
442.501	19970.43
442.708	20328.82
442.914	21203.3
443.121	22171.99
443.328	21809.5
443.534	23152.97
443.741	22008.15
443.948	22016.35
444.154	23857.47
444.361	23372.1
444.568	23789.89
444.774	23759.17
444.981	23826.75
445.187	24650.03
445.394	25512.23
445.6	25514.28
445.807	28107.01
446.013	26581.27
446.22	26937.62
446.426	28010.75
446.633	28363
446.839	29094.13
447.046	28059.9
447.252	29597.93
447.459	29473
447.665	29327.6
447.871	30808.28
448.078	32100.54
448.284	30462.17
448.491	31578.31
448.697	32649.4
448.903	33476.78
449.11	33065.14
449.316	32370.88
449.522	33011.89
449.728	34496.67
449.935	34101.41
450.141	34287.78
450.347	34941.08
450.553	34320.54
450.76	34054.31
450.966	35199.12
451.172	34912.41
451.378	35840.14
451.584	35563.66
451.791	35821.7
451.997	35831.94
452.203	36432
452.409	36227.2
452.615	36219.01
452.821	34525.34
453.027	34334.88
453.233	36464.77
453.44	34511
453.646	34830.49
453.852	35393.68
454.058	35954.82
454.264	34175.14
454.47	35670.15
454.676	34635.93
454.882	35639.43
455.088	32147.65
455.294	32993.46
455.5	33257.65
455.705	34056.35
455.911	32426.17
456.117	31953.09
456.323	31256.78
456.529	29538.54
456.735	31060.18
456.941	30263.52
457.147	29884.64
457.352	28791.03
457.558	28207.36
457.764	28303.61
457.97	28004.61
458.176	27281.67
458.381	27156.75
458.587	26038.56
458.793	25938.21
458.999	24373.56
459.204	26104.09
459.41	25528.61
459.616	24148.28
459.821	23841.09
460.027	23773.5
460.233	23167.31
460.438	22409.56
460.644	22403.41
460.85	21317.99
461.055	21049.71
461.261	20926.83
461.466	19255.68
461.672	18858.38
461.878	20380.02
462.083	18747.79
462.289	18575.76
462.494	18135.45
462.7	17746.33
462.905	17033.64
463.111	17678.75
463.316	17615.26
463.522	17555.87
463.727	17500.58
463.932	17459.62
464.138	17508.77
464.343	17086.89
464.549	16687.53
464.754	17308.07
464.959	17246.63
465.165	17279.4
465.37	16404.91
465.575	16150.96
465.781	16468.4
465.986	16609.71
466.191	15921.59
466.397	15636.92
466.602	14997.96
466.807	15749.56
467.012	15673.79
467.218	15647.16
467.423	15233.47
467.628	15518.14
467.833	16036.28
468.038	15413.7
468.244	15106.5
468.449	16038.33
468.654	15059.4
468.859	14995.91
469.064	15024.58
469.269	14469.58
469.474	14500.3
469.679	14934.47
469.885	14418.38
470.09	14518.73
470.295	14574.03
470.5	14088.66
470.705	14313.94
470.91	13779.42
471.115	13640.15
471.32	13959.64
471.525	13853.14
471.73	13451.74
471.935	13296.1
472.139	12884.45
472.344	13312.48
472.549	12876.26
472.754	12894.69
472.959	12478.96
473.164	12214.77
473.369	12296.69
473.574	12470.76
473.778	12589.55
473.983	12407.28
474.188	12530.16
474.393	11770.36
474.598	11921.91
474.802	11428.35
475.007	11868.66
475.212	11561.47
475.417	11424.25
475.621	11160.06
475.826	11446.78
476.031	11037.19
476.235	11069.95
476.44	11018.75
476.645	10895.88
476.849	10717.7
477.054	10674.7
477.259	10476.04
477.463	10598.92
477.668	10142.22
477.872	10441.23
478.077	10244.62
478.282	10123.79
478.486	9925.14
478.691	10025.49
478.895	10007.06
479.1	9826.84
479.304	9587.22
479.509	9320.99
479.713	9699.86
479.918	9472.54
480.122	9126.43
480.326	9517.59
480.531	9533.98
480.735	9388.57
480.94	9433.63
481.144	9511.45
481.348	9142.82
481.553	9128.48
481.757	9220.64
481.961	9157.15
482.166	9349.66
482.37	9062.94
482.574	9169.44
482.778	9069.09
482.983	9142.82
483.187	9196.06
483.391	9329.18
483.595	9024.03
483.8	9021.98
484.004	9097.76
484.208	9364
484.412	9110.05
484.616	9206.3
484.821	9056.8
485.025	8831.52
485.229	9161.25
485.433	8946.21
485.637	8978.98
485.841	8911.39
486.045	8958.5
486.249	9142.82
486.453	8935.97
486.657	9128.48
486.861	9024.03
487.065	8966.69
487.269	8956.45
487.473	8954.4
487.677	9191.97
487.881	9234.97
488.085	8886.82
488.289	9212.45
488.493	8970.79
488.697	9140.77
488.901	9353.76
489.105	8956.45
489.309	9157.15
489.512	9214.49
489.716	9216.54
489.92	9204.25
490.124	9155.1
490.328	9234.97
490.531	9306.65
490.735	9306.65
490.939	9460.25
491.143	9220.64
491.346	9300.51
491.55	9486.87
491.754	9499.16
491.958	9658.9
492.161	9540.12
492.365	9681.43
492.569	9517.59
492.772	9589.27
492.976	9597.46
493.18	9863.7
493.383	9916.95
493.587	9939.47
493.79	9941.52
493.994	9939.47
494.197	9968.15
494.401	9972.24
494.605	10066.45
494.808	10140.18
495.012	10398.22
495.215	10344.97
495.419	10549.77
495.622	10357.26
495.825	10627.59
496.029	10625.54
496.232	10861.06
496.436	10697.22
496.639	10969.6
496.843	10959.36
497.046	11235.84
497.249	11301.37
497.453	11258.37
497.656	11510.27
497.859	11493.88
498.063	11708.92
498.266	11782.65
498.469	11846.13
498.673	11952.63
498.876	12085.75
499.079	12263.92
499.282	12210.67
499.485	12517.87
499.689	12620.27
499.892	12763.62
500.095	12976.61
500.298	13283.81
500.501	12909.03
500.705	13425.12
500.908	13674.97
501.111	13513.18
501.314	13779.42
501.517	14109.14
501.72	14264.78
501.923	13836.76
502.126	14526.92
502.329	14676.43
502.532	14598.6
502.735	14836.17
502.938	15065.54
503.141	15102.4
503.344	15210.95
503.547	15229.38
503.75	15647.16
503.953	15776.19
504.156	16134.58
504.359	16187.83
504.562	16310.71
504.765	16554.41
504.968	16918.95
505.17	17002.92
505.373	17060.26
505.576	17447.33
505.779	17316.26
505.982	17617.31
506.185	18026.9
506.387	17891.74
506.59	18033.05
506.793	18330
506.996	18506.13
507.198	18983.31
507.401	18663.82
507.604	19239.3
507.807	19450.24
508.009	19679.61
508.212	19616.13
508.415	20226.42
508.617	20322.68
508.82	20156.79
509.022	20132.22
509.225	20980.07
509.428	20824.43
509.63	20732.27
509.833	21064.04
510.035	21850.46
510.238	21365.09
510.44	21803.36
510.643	22501.72
510.845	22524.24
511.048	22278.49
511.25	22999.37
511.453	22946.12
511.655	23654.72
511.858	23312.71
512.06	23585.09
512.262	23777.6
512.465	23871.81
512.667	24222.01
512.87	24527.16
513.072	24734
513.274	25035.05
513.477	25270.57
513.679	25315.62
513.881	25731.36
514.084	25663.78
514.286	25792.8
514.488	26339.61
514.69	26736.91
514.893	27072.78
515.095	26841.36
515.297	27324.68
515.499	27132.17
515.701	27711.75
515.904	27994.37
516.106	28467.45
516.308	28522.74
516.51	29352.17
516.712	29098.22
516.914	29176.05
517.116	29896.93
517.318	29618.41
517.52	29993.19
517.722	30292.19
517.925	30757.08
518.127	30918.87
518.329	31185.1
518.531	31041.74
518.733	31453.39
518.935	31879.36
519.136	31895.75
519.338	32630.97
519.54	32821.43
519.742	32899.25
519.944	33116.34
520.146	33450.16
520.348	33683.62
520.55	33783.98
520.752	34136.23
520.954	34863.25
521.155	34621.59
521.357	35174.55
521.559	34955.41
521.761	35850.38
521.963	35786.89
522.164	36190.34
522.366	35989.64
522.568	36446.33
522.77	36493.44
522.971	36870.26
523.173	36800.63
523.375	37302.39
523.576	37171.32
523.778	37484.65
523.98	38047.85
524.181	37920.87
524.383	38047.85
524.584	38191.2
524.786	38586.46
524.988	38537.31
525.189	39235.67
525.391	39688.27
525.592	39456.85
525.794	39800.91
525.995	39864.39
526.197	39995.46
526.398	39747.66
526.6	40173.64
526.801	40454.21
527.003	40908.86
527.204	40562.75
527.406	41183.29
527.607	40906.81
527.808	41449.52
528.01	40736.83
528.211	41660.46
528.412	41988.14
528.614	41527.34
528.815	41627.7
529.016	42098.73
529.218	41873.45
529.419	42213.41
529.62	42221.61
529.822	42299.43
530.023	42262.57
530.224	42319.91
530.425	42059.82
530.626	42258.47
530.828	42199.08
531.029	43141.14
531.23	42489.89
531.431	42250.28
531.632	42792.99
531.833	42829.85
532.035	42934.3
532.236	43259.93
532.437	43139.1
532.638	42876.96
532.839	43087.9
533.04	43575.31
533.241	42838.04
533.442	43915.28
533.643	43108.38
533.844	42948.64
534.045	43661.33
534.246	42758.17
534.447	43436.05
534.648	43221.02
534.849	43321.37
535.05	43005.98
535.251	43300.89
535.451	43403.28
535.652	43941.9
535.853	43403.28
536.054	43767.82
536.255	43456.53
536.456	43302.93
536.657	44113.93
536.857	43403.28
537.058	43284.5
537.259	44400.65
537.46	43763.73
537.66	43669.52
537.861	44111.88
538.062	43479.06
538.263	43640.85
538.463	43649.04
538.664	43728.91
538.865	44003.34
539.065	44240.9
539.266	43479.06
539.466	43962.38
539.667	43343.89
539.868	43902.99
540.068	43610.13
540.269	43386.9
540.469	43976.72
540.67	43595.79
540.87	43714.58
541.071	43567.12
541.271	43655.18
541.472	43477.01
541.672	43321.37
541.873	43714.58
542.073	42770.46
542.274	44193.8
542.474	43436.05
542.675	43223.06
542.875	43857.93
543.075	43620.37
543.276	43229.21
543.476	44011.53
543.676	43444.24
543.877	43681.81
544.077	43624.46
544.277	43528.21
544.478	43364.37
544.678	44034.06
544.878	43204.63
545.078	43229.21
545.279	43198.49
545.479	43550.74
545.679	43665.42
545.879	43755.53
546.079	43210.78
546.28	43413.52
546.48	43059.23
546.68	43165.72
546.88	43466.77
547.08	43321.37
547.28	43261.97
547.48	43128.86
547.68	43456.53
547.88	42737.69
548.081	43599.89
548.281	43296.79
548.481	43577.36
548.681	43735.06
548.881	43063.32
549.081	43010.07
549.28	43159.58
549.48	43413.52
549.68	42729.5
549.88	43751.44
550.08	42840.09
550.28	43395.09
550.48	42930.2
550.68	43554.83
550.88	42950.68
551.08	43223.06
551.279	43116.57
551.479	42969.11
551.679	43046.94
551.879	43268.12
552.079	43608.08
552.278	42670.11
552.478	43091.99
552.678	43145.24
552.878	43198.49
553.077	42721.31
553.277	42528.8
553.477	43472.92
553.676	42821.66
553.876	42944.54
554.076	42799.13
554.275	43159.58
554.475	42059.82
554.674	42686.5
554.874	42788.89
555.074	42301.48
555.273	42661.92
555.473	43112.47
555.672	42258.47
555.872	42166.31
556.071	42201.13
556.271	42686.5
556.47	42496.03
556.67	41967.66
556.869	42162.22
557.068	42442.79
557.268	42100.78
557.467	42154.02
557.667	41963.56
557.866	42324
558.065	42285.09
558.265	42086.44
558.464	41515.06
558.663	42203.17
558.863	41637.94
559.062	42461.22
559.261	41607.22
559.461	42008.62
559.66	41773.1
559.859	41912.36
560.058	41281.59
560.258	42029.1
560.457	41457.71
560.656	41394.23
560.855	41461.81
561.054	41457.71
561.253	41257.01
561.453	41357.36
561.652	41420.85
561.851	41490.48
562.05	40691.77
562.249	40415.3
562.448	40994.87
562.647	40634.43
562.846	40958.01
563.045	40433.73
563.244	40001.61
563.443	41039.93
563.642	39913.55
563.841	40673.34
564.04	40073.29
564.239	40509.5
564.438	40013.9
564.637	40364.1
564.836	40280.13
565.035	39929.93
565.234	39821.39
565.432	39934.03
565.631	39493.71
565.83	39903.31
566.029	39471.18
566.228	39612.49
566.427	39995.46
566.625	39211.09
566.824	39096.41
567.023	39471.18
567.222	38662.24
567.42	39555.15
567.619	39018.58
567.818	39037.01
568.016	38764.64
568.215	39190.61
568.414	38344.8
568.612	39301.2
568.811	38561.89
569.01	38596.7
569.208	38158.44
569.407	38348.9
569.605	38066.28
569.804	38568.03
570.002	37625.96
570.201	38183.01
570.4	37632.11
570.598	37949.54
570.797	37263.47
570.995	37574.77
571.193	37068.92
571.392	37535.85
571.59	37144.69
571.789	37544.05
571.987	36966.52
572.186	36956.28
572.384	36733.05
572.582	37081.2
572.781	36808.82
572.979	36364.42
573.177	36671.61
573.376	36866.17
573.574	36511.87
573.772	36360.32
573.971	36270.21
574.169	36366.46
574.367	36030.6
574.565	36755.58
574.763	36276.35
574.962	35692.68
575.16	35528.84
575.358	35633.29
575.556	35035.28
575.754	36079.75
575.952	35397.77
576.151	35600.52
576.349	34670.75
576.547	35618.96
576.745	35227.79
576.943	35268.75
577.141	35039.38
577.339	35068.05
577.537	35119.25
577.735	34861.21
577.933	34025.64
578.131	34461.85
578.329	34652.31
578.527	33992.87
578.725	34060.45
578.923	34312.35
579.121	34107.55
579.319	33974.44
579.516	34361.5
579.714	33949.86
579.912	33763.5
580.11	33892.52
580.308	33622.19
580.506	33499.31
580.704	33091.76
580.901	33685.67
581.099	33693.86
581.297	33200.3
581.495	33056.95
581.692	33294.51
581.89	32735.42
582.088	33097.91
582.285	32516.28
582.483	33073.33
582.681	32856.25
582.878	32600.25
583.076	32452.8
583.274	32819.38
583.471	32260.29
583.669	32372.92
583.866	32088.26
584.064	32350.4
584.262	31787.21
584.459	32448.7
584.657	31910.08
584.854	32161.98
585.052	31148.24
585.249	31719.62
585.447	31514.83
585.644	31320.27
585.841	31463.63
586.039	31770.82
586.236	30980.31
586.434	31295.69
586.631	31176.91
586.828	30904.53
587.026	31060.18
587.223	30929.11
587.42	30574.81
587.618	30681.3
587.815	30435.55
588.012	30484.7
588.21	30542.04
588.407	30773.46
588.604	30290.14
588.801	30200.03
588.999	30263.52
589.196	30339.29
589.393	29896.93
589.59	30019.81
589.787	29993.19
589.984	29823.2
590.182	29481.19
590.379	29571.3
590.576	29315.31
590.773	29339.88
590.97	29239.53
591.167	29391.08
591.364	29079.79
591.561	29077.74
591.758	28776.69
591.955	28860.66
592.152	28965.1
592.349	28848.37
592.546	28858.61
592.743	28907.76
592.94	28104.96
593.137	28926.19
593.334	28766.45
593.531	28076.29
593.727	28262.65
593.924	28193.02
594.121	28115.2
594.318	28119.29
594.515	27801.86
594.712	28264.7
594.908	27756.8
595.105	27828.48
595.302	27392.26
595.499	27734.28
595.696	27326.73
595.892	27416.84
596.089	27322.63
596.286	27719.94
596.482	27148.56
596.679	27345.16
596.876	27459.85
597.072	27091.21
597.269	27019.53
597.466	26777.87
597.662	26929.42
597.859	26816.79
598.055	26749.2
598.252	26683.67
598.448	26429.72
598.645	26423.58
598.841	26173.72
599.038	26589.46
599.234	26358.04
599.431	26294.55
599.627	26038.56
599.824	26102.04
600.02	26067.23
600.217	26073.37
600.413	25862.43
600.609	25508.13
600.806	25698.59
601.002	25889.06
601.198	25448.74
601.395	25073.96
601.591	25239.85
601.787	25620.77
601.984	25198.89
602.18	25442.6
602.376	25243.95
602.572	24903.98
602.769	24809.78
602.965	24881.46
603.161	24764.72
603.357	24600.88
603.553	24725.81
603.75	24817.97
603.946	24348.98
604.142	24641.84
604.338	24203.58
604.534	24355.13
604.73	24092.99
604.926	24314.17
605.122	24164.67
605.318	23957.82
605.514	23931.2
605.71	23603.52
605.906	23605.57
606.102	23683.39
606.298	23685.44
606.494	23396.68
606.69	23931.2
606.886	23558.47
607.082	23552.32
607.278	23732.54
607.474	23001.42
607.67	23501.12
607.866	23087.43
608.062	23261.51
608.257	22892.88
608.453	23290.18
608.649	23376.2
608.845	22759.76
609.041	22999.37
609.236	23460.16
609.432	22718.8
609.628	22849.87
609.824	22753.62
610.019	22593.87
610.215	22331.73
610.411	22788.43
610.606	22645.07
610.802	22720.85
610.998	22673.74
611.193	22444.37
611.389	22268.25
611.584	22442.32
611.78	22090.07
611.976	22501.72
612.171	22518.1
612.367	22237.53
612.562	22180.18
612.758	22188.38
612.953	21782.88
613.149	22423.89
613.344	21805.41
613.539	22335.83
613.735	22147.42
613.93	22083.93
614.126	21776.73
614.321	22034.78
614.517	21492.07
614.712	21866.85
614.907	21530.98
615.103	21746.01
615.298	21778.78
615.493	21733.73
615.688	21346.66
615.884	21981.53
616.079	21324.13
616.274	21498.21
616.47	21387.62
616.665	21393.76
616.86	21361
617.055	21299.56
617.25	21086.57
617.445	21467.49
617.641	20803.95
617.836	21102.95
618.031	21029.23
618.226	20935.02
618.421	20754.8
618.616	21055.85
618.811	20560.24
619.006	20992.36
619.201	20517.23
619.396	20633.97
619.591	20117.88
619.786	20234.61
619.981	20230.52
620.176	20251
620.371	19997.05
620.566	20132.22
620.761	20164.98
620.956	20187.51
621.151	19685.76
621.346	19890.56
621.541	19446.15
621.735	19908.99
621.93	19442.05
622.125	19495.3
622.32	19087.75
622.515	19073.42
622.709	19059.08
622.904	19054.98
623.099	18901.39
623.294	19073.42
623.488	18966.92
623.683	18878.86
623.878	18338.19
624.072	18375.06
624.267	18301.33
624.462	18317.72
624.656	18104.73
624.851	18178.45
625.046	18076.05
625.24	18057.62
625.435	17615.26
625.629	17736.09
625.824	17535.39
626.018	17641.89
626.213	17064.36
626.407	17263.01
626.602	17385.89
626.796	17375.65
626.991	17443.23
627.185	16994.73
627.38	17095.08
627.574	16783.79
627.768	16572.85
627.963	16525.74
628.157	16587.18
628.352	16759.21
628.546	16445.87
628.74	16079.29
628.935	16157.11
629.129	16290.23
629.323	15950.26
629.517	15849.91
629.712	15815.1
629.906	15585.72
630.1	15657.4
630.294	15806.91
630.489	15342.02
630.683	15358.4
630.877	15292.87
631.071	15167.94
631.265	15530.43
631.459	14975.43
631.653	15157.7
631.848	15208.9
632.042	15088.07
632.236	15073.73
632.43	14643.66
632.624	14899.66
632.818	14795.21
633.012	14455.25
633.206	14516.69
633.4	14348.75
633.594	14154.19
633.788	14354.9
633.982	14457.29
634.176	14092.76
634.369	13943.25
634.563	14109.14
634.757	13898.2
634.951	14184.91
635.145	13701.59
635.339	13664.73
635.533	13472.22
635.726	13660.63
635.92	13318.62
636.114	13552.09
636.308	13285.86
636.501	13519.32
636.695	13292
636.889	13296.1
637.083	12837.35
637.276	13044.2
637.47	12993
637.664	12724.71
637.857	13029.86
638.051	13220.32
638.244	12667.37
638.438	12505.58
638.632	12589.55
638.825	12681.71
639.019	12546.54
639.212	12405.23
639.406	12261.87
639.599	12300.78
639.793	12435.95
639.986	12098.03
640.18	11938.29
640.373	11917.81
640.567	11919.86
640.76	12046.83
640.954	11792.89
641.147	11958.77
641.34	11725.3
641.534	11612.67
641.727	11403.77
641.92	11524.6
642.114	11248.13
642.307	11401.72
642.5	11219.46
642.694	10967.56
642.887	11221.5
643.08	11198.98
643.273	11141.63
643.467	11076.1
643.66	10818.05
643.853	10871.3
644.046	10783.24
644.239	10840.58
644.432	10713.61
644.626	10607.11
644.819	10263.05
645.012	10392.08
645.205	10535.43
645.398	10375.69
645.591	10428.94
645.784	10394.12
645.977	10224.14
646.17	10306.06
646.363	9949.71
646.556	9990.67
646.749	10160.66
646.942	10185.23
647.135	10005.01
647.328	9746.97
647.521	9773.59
647.714	9769.49
647.907	9820.69
648.099	9501.21
648.292	9669.14
648.485	9507.35
648.678	9318.94
648.871	9515.55
649.064	9224.73
649.256	9495.07
649.449	9210.4
649.642	9167.39
649.835	9359.9
650.027	9183.77
650.22	9083.42
650.413	8944.16
650.605	8993.31
650.798	8841.76
650.991	8882.72
651.183	8876.58
651.376	8727.08
651.568	8667.69
651.761	8878.63
651.954	8776.23
652.146	8573.48
652.339	8780.32
652.531	8550.95
652.724	8501.8
652.916	8262.19
653.109	8270.38
653.301	8460.84
653.494	8393.26
653.686	8114.73
653.879	8251.95
654.071	8251.95
654.263	8194.61
654.456	8145.45
654.648	8047.15
654.84	8028.72
655.033	8022.58
655.225	7830.07
655.417	8012.34
655.61	7909.94
655.802	7967.28
655.994	7606.84
656.186	7797.3
656.379	7541.3
656.571	7578.17
656.763	7502.39
656.955	7660.09
657.148	7555.64
657.34	7655.99
657.532	7465.53
657.724	7529.02
657.916	7447.1
658.108	7311.93
658.3	7334.46
658.492	7197.24
658.684	7154.24
658.876	7252.54
659.068	7313.98
659.26	7195.2
659.452	7117.37
659.644	7131.71
659.836	6969.92
660.028	7074.37
660.22	6953.54
660.412	6969.92
660.604	6926.91
660.796	6869.57
660.988	6871.62
661.18	6672.96
661.372	6812.23
661.563	6781.51
661.755	6539.85
661.947	6619.72
662.139	6597.19
662.331	6482.5
662.522	6537.8
662.714	6431.3
662.906	6449.74
663.097	6545.99
663.289	6226.51
663.481	6316.62
663.673	6165.07
663.864	6470.22
664.056	6259.28
664.247	6191.69
664.439	6056.53
664.631	6140.49
664.822	6056.53
665.014	6212.17
665.205	6138.44
665.397	5929.55
665.588	6048.33
665.78	5872.21
665.971	5956.18
666.163	5821.01
666.354	5962.32
666.546	5864.02
666.737	5857.87
666.929	5890.64
667.12	5681.75
667.311	5704.28
667.503	5745.23
667.694	5646.93
667.885	5612.12
668.077	5634.64
668.268	5583.45
668.459	5532.25
668.651	5519.96
668.842	5583.45
669.033	5483.09
669.224	5272.15
669.416	5489.24
669.607	5452.38
669.798	5288.54
669.989	5380.7
670.18	5438.04
670.371	5278.3
670.563	5442.14
670.754	5321.31
670.945	5161.56
671.136	5208.67
671.327	5272.15
671.518	5177.95
671.709	5210.72
671.9	5096.03
672.091	5079.65
672.282	5096.03
672.473	4905.57
672.664	5245.53
672.855	4969.05
673.046	4938.34
673.237	5020.25
673.428	5040.73
673.619	5089.88
673.809	4835.94
674	4751.97
674.191	4960.86
674.382	4721.25
674.573	4930.14
674.764	4883.04
674.954	4842.08
675.145	4821.6
675.336	4743.78
675.527	4762.21
675.717	4751.97
675.908	4721.25
676.099	4811.36
676.289	4751.97
676.48	4633.19
676.671	4672.1
676.861	4545.13
677.052	4469.35
677.243	4743.78
677.433	4516.45
677.624	4631.14
677.814	4543.08
678.005	4510.31
678.195	4778.59
678.386	4700.77
678.576	4446.82
678.767	4473.45
678.957	4391.53
679.148	4594.28
679.338	4432.49
679.529	4508.26
679.719	4522.6
679.909	4561.51
680.1	4430.44
680.29	4399.72
680.481	4395.62
680.671	4416.1
680.861	4401.77
681.052	4414.06
681.242	4317.8
681.432	4424.3
681.622	4205.16
681.813	4332.14
682.003	4383.34
682.193	4287.08
682.383	4147.82
682.573	4354.66
682.764	4149.87
682.954	4346.47
683.144	4059.76
683.334	4190.83
683.524	4133.48
683.714	4100.72
683.904	4135.53
684.094	4170.35
684.284	4110.96
684.474	4250.22
684.664	4090.48
684.854	4080.24
685.044	4162.16
685.234	4121.2
685.424	3893.87
685.614	4000.37
685.804	4053.61
685.994	3920.49
686.184	4043.37
686.374	4229.74
686.564	3936.88
686.753	4037.23
686.943	3910.25
687.133	3983.98
687.323	3963.5
687.513	3822.19
687.702	3940.97
687.892	3803.76
688.082	3955.31
688.272	3838.58
688.461	3748.47
688.651	3867.25
688.841	3824.24
689.03	3693.17
689.22	3760.75
689.41	3730.03
689.599	3719.79
689.789	3672.69
689.979	3670.64
690.168	3666.55
690.358	3723.89
690.547	3637.88
690.737	3777.14
690.926	3672.69
691.116	3486.33
691.305	3613.3
691.495	3449.46
691.684	3588.72
691.874	3607.16
692.063	3594.87
692.252	3631.73
692.442	3539.57
692.631	3459.7
692.82	3560.05
693.01	3496.57
693.199	3383.93
693.388	3500.66
693.578	3367.54
693.767	3521.14
693.956	3355.26
694.146	3424.89
694.335	3426.93
694.524	3486.33
694.713	3336.82
694.902	3326.58
695.092	3281.53
695.281	3312.25
695.47	3435.13
695.659	3283.58
695.848	3320.44
696.037	3328.63
696.226	3267.19
696.415	3218.04
696.604	3347.06
696.793	3132.03
696.982	3381.88
697.171	3297.91
697.36	3224.19
697.549	3365.5
697.738	3238.52
697.927	3267.19
698.116	3228.28
698.305	3220.09
698.494	3215.99
698.683	3211.9
698.872	3109.5
699.061	3330.68
699.25	3175.03
699.438	3220.09
699.627	3187.32
699.816	3254.9
700.005	3230.33
700.193	3308.15
700.382	3127.93
700.571	3215.99
700.76	3322.49
700.948	3179.13
701.137	3129.98
701.326	3228.28
701.514	3029.63
701.703	3220.09
701.892	3084.92
702.08	3199.61
702.269	3261.05
702.457	3023.48
702.646	3062.4
702.834	3123.83
703.023	3138.17
703.212	3175.03
703.4	3134.07
703.589	3025.53
703.777	3293.82
703.965	3152.51
704.154	3009.15
704.342	3064.44
704.531	3179.13
704.719	3142.27
704.907	3158.65
705.096	3119.74
705.284	3121.79
705.472	2980.48
705.661	3007.1
705.849	3306.1
706.037	3109.5
706.226	3103.36
706.414	3160.7
706.602	3105.4
706.79	3119.74
706.979	3074.68
707.167	3115.64
707.355	3052.16
707.543	3060.35
707.731	3060.35
707.919	3072.64
708.107	3046.01
708.296	3091.07
708.484	3023.48
708.672	2998.91
708.86	3095.16
709.048	3078.78
709.236	3072.64
709.424	2972.29
709.612	3138.17
709.8	2980.48
709.988	3043.96
710.176	3000.96
710.364	3037.82
710.551	3062.4
710.739	3101.31
710.927	3054.2
711.115	3023.48
711.303	2910.85
711.491	2937.47
711.679	3021.44
711.866	2943.61
712.054	3007.1
712.242	2933.37
712.43	2974.33
712.617	2896.51
712.805	2960
712.993	2886.27
713.181	2871.93
713.368	3039.87
713.556	2937.47
713.744	2953.85
713.931	2955.9
714.119	2955.9
714.306	2953.85
714.494	2787.97
714.682	2855.55
714.869	2894.46
715.057	2953.85
715.244	2947.71
715.432	2892.41
715.619	2828.93
715.807	2886.27
715.994	2882.17
716.182	2953.85
716.369	2925.18
716.556	2978.43
716.744	2822.78
716.931	2802.3
717.119	2894.46
717.306	2851.46
717.493	2884.22
717.681	2912.89
717.868	2755.2
718.055	2830.98
718.242	2855.55
718.43	2939.52
718.617	2996.86
718.804	2878.08
718.991	2810.5
719.179	2792.06
719.366	2824.83
719.553	2841.22
719.74	2835.07
719.927	2798.21
720.114	2845.31
720.301	2798.21
720.488	2826.88
720.676	2785.92
720.863	2882.17
721.05	2880.13
721.237	2824.83
721.424	2847.36
721.611	2769.54
721.798	2648.71
721.985	2851.46
722.172	2757.25
722.358	2835.07
722.545	2865.79
722.732	2751.1
722.919	2720.39
723.106	2818.69
723.293	2851.46
723.48	2734.72
723.667	2777.73
723.853	2665.09
724.04	2695.81
724.227	2820.74
724.414	2732.67
724.6	2747.01
724.787	2724.48
724.974	2873.98
725.161	2679.43
725.347	2722.43
725.534	2751.1
725.72	2861.69
725.907	2761.34
726.094	2806.4
726.28	2562.69
726.467	2732.67
726.653	2849.41
726.84	2857.6
727.027	2843.26
727.213	2828.93
727.4	2736.77
727.586	2716.29
727.773	2765.44
727.959	2685.57
728.145	2683.52
728.332	2697.86
728.518	2695.81
728.705	2695.81
728.891	2839.17
729.077	2683.52
729.264	2716.29
729.45	2640.51
729.636	2679.43
729.823	2620.03
730.009	2660.99
730.195	2658.95
730.382	2630.27
730.568	2744.96
730.754	2759.3
730.94	2689.67
731.126	2667.14
731.313	2796.16
731.499	2667.14
731.685	2660.99
731.871	2656.9
732.057	2654.85
732.243	2679.43
732.429	2679.43
732.615	2704
732.801	2744.96
732.987	2607.75
733.173	2577.03
733.359	2611.84
733.545	2759.3
733.731	2583.17
733.917	2622.08
734.103	2679.43
734.289	2558.6
734.475	2687.62
734.661	2699.91
734.847	2577.03
735.033	2552.45
735.219	2560.64
735.404	2644.61
735.59	2562.69
735.776	2507.4
735.962	2611.84
736.148	2525.83
736.333	2513.54
736.519	2615.94
736.705	2601.6
736.89	2601.6
737.076	2579.08
737.262	2513.54
737.447	2550.4
737.633	2593.41
737.819	2550.4
738.004	2540.16
738.19	2572.93
738.375	2525.83
738.561	2417.29
738.747	2605.7
738.932	2523.78
739.118	2503.3
739.303	2542.21
739.489	2429.57
739.674	2435.72
739.859	2439.81
740.045	2560.64
740.23	2353.8
740.416	2474.63
740.601	2429.57
740.786	2505.35
740.972	2396.81
741.157	2427.53
741.342	2476.68
741.528	2388.61
741.713	2407.05
741.898	2474.63
742.084	2347.65
742.269	2380.42
742.454	2355.85
742.639	2372.23
742.824	2415.24
743.01	2253.45
743.195	2466.44
743.38	2308.74
743.565	2296.46
743.75	2323.08
743.935	2284.17
744.12	2282.12
744.305	2247.3
744.49	2280.07
744.675	2263.69
744.86	2257.54
745.045	2261.64
745.23	2275.98
745.415	2218.63
745.6	2175.63
745.785	2243.21
745.97	2259.59
746.155	2146.95
746.34	2220.68
746.525	2058.89
746.71	2120.33
746.895	2093.71
747.079	2067.08
747.264	2099.85
747.449	2171.53
747.634	2112.14
747.819	2046.6
748.003	2032.27
748.188	2077.32
748.373	1981.07
748.557	2142.86
748.742	1901.2
748.927	1974.92
749.111	1991.31
749.296	1995.4
749.481	2028.17
749.665	1942.16
749.85	1933.97
750.034	1876.62
750.219	1860.24
750.404	1962.64
750.588	1862.29
750.773	1847.95
750.957	1761.94
751.141	1895.05
751.326	1819.28
751.51	1759.89
751.695	1766.03
751.879	1782.42
752.064	1682.06
752.248	1813.13
752.432	1798.8
752.617	1735.31
752.801	1749.65
752.985	1761.94
753.17	1694.35
753.354	1718.93
753.538	1737.36
753.722	1598.1
753.907	1733.26
754.091	1704.59
754.275	1626.77
754.459	1632.91
754.643	1647.25
754.828	1579.67
755.012	1544.85
755.196	1538.71
755.38	1620.63
755.564	1581.71
755.748	1665.68
755.932	1548.95
756.116	1471.12
756.3	1477.27
756.484	1553.04
756.668	1505.94
756.852	1460.88
757.036	1493.65
757.22	1452.69
757.404	1405.59
757.588	1295
757.772	1483.41
757.956	1475.22
758.14	1469.08
758.323	1327.77
758.507	1325.72
758.691	1419.92
758.875	1354.39
759.059	1403.54
759.242	1405.59
759.426	1372.82
759.61	1370.77
759.794	1352.34
759.977	1264.28
760.161	1313.43
760.345	1333.91
760.528	1307.29
760.712	1303.19
760.895	1270.42
761.079	1245.85
761.263	1256.09
761.446	1274.52
761.63	1249.94
761.813	1311.38
761.997	1239.7
762.18	1202.84
762.364	1276.57
762.547	1170.07
762.731	1288.85
762.914	1247.9
763.098	1206.94
763.281	1249.94
763.464	1190.55
763.648	1208.98
763.831	1170.07
764.015	1153.69
764.198	1276.57
764.381	1204.89
764.564	1254.04
764.748	1159.83
764.931	1262.23
765.114	1104.54
765.297	1165.98
765.481	1206.94
765.664	1266.33
765.847	1239.7
766.03	1147.55
766.213	1155.74
766.397	1090.2
766.58	1063.58
766.763	1079.96
766.946	1127.07
767.129	1086.11
767.312	1069.72
767.495	1118.87
767.678	1077.91
767.861	1030.81
768.044	1000.09
768.227	1147.55
768.41	1008.28
768.593	1149.59
768.776	1071.77
768.959	1034.91
769.142	1127.07
769.324	1008.28
769.507	996
769.69	1069.72
769.873	1045.15
770.056	1100.44
770.239	963.23
770.421	942.75
770.604	1055.39
770.787	1051.29
770.97	1024.67
771.152	1006.24
771.335	1004.19
771.518	1004.19
771.7	914.08
771.883	979.61
772.066	1028.76
772.248	989.85
772.431	914.08
772.613	1004.19
772.796	959.13
772.978	983.71
773.161	877.21
773.343	873.12
773.526	877.21
773.708	893.6
773.891	905.88
774.073	981.66
774.256	811.68
774.438	979.61
774.621	848.54
774.803	860.83
774.985	922.27
775.168	860.83
775.35	848.54
775.532	826.01
775.715	926.36
775.897	869.02
776.079	893.6
776.261	926.36
776.444	723.62
776.626	828.06
776.808	731.81
776.99	778.91
777.173	795.29
777.355	774.81
777.537	799.39
777.719	783.01
777.901	821.92
778.083	758.43
778.265	815.77
778.447	813.73
778.629	737.95
778.811	709.28
778.993	828.06
779.175	709.28
779.357	711.33
779.539	674.46
779.721	674.46
779.903	660.13
780.085	662.18
780.267	668.32
780.449	696.99
780.631	682.66
780.812	676.51
780.994	606.88
781.176	715.42
781.358	668.32
781.54	699.04
781.721	606.88
781.903	699.04
782.085	619.17
782.267	619.17
782.448	598.69
782.63	610.98
782.812	623.27
782.993	594.59
783.175	572.07
783.357	565.92
783.538	586.4
783.72	613.03
783.901	580.26
784.083	586.4
784.264	588.45
784.446	623.27
784.627	492.2
784.809	561.83
784.99	551.59
785.172	516.77
785.353	520.87
785.535	613.03
785.716	588.45
785.897	490.15
786.079	561.83
786.26	453.28
786.441	500.39
786.623	516.77
786.804	508.58
786.985	506.53
787.167	461.48
787.348	469.67
787.529	518.82
787.71	561.83
787.891	477.86
788.073	557.73
788.254	373.41
788.435	461.48
788.616	512.67
788.797	457.38
788.978	488.1
789.159	535.2
789.34	443.04
789.522	443.04
789.703	463.52
789.884	486.05
790.065	443.04
790.246	393.89
790.427	477.86
790.607	406.18
790.788	441
790.969	494.24
791.15	373.41
791.331	359.08
791.512	455.33
791.693	422.56
791.874	346.79
792.054	381.6
792.235	469.67
792.416	363.17
792.597	336.55
792.778	422.56
792.958	332.45
793.139	393.89
793.32	332.45
793.5	332.45
793.681	309.93
793.862	387.75
794.042	402.08
794.223	367.27
794.404	324.26
794.584	307.88
794.765	381.6
794.945	322.21
795.126	463.52
795.306	301.73
795.487	330.41
795.667	299.69
795.848	393.89
796.028	303.78
796.209	379.56
796.389	332.45
796.57	332.45
796.75	301.73
796.93	297.64
797.111	287.4
797.291	346.79
797.471	357.03
797.652	309.93
797.832	387.75
798.012	307.88
798.192	316.07
798.373	332.45
798.553	271.01
798.733	258.73
798.913	324.26
799.093	328.36
799.274	236.2
799.454	299.69
799.634	357.03
799.814	287.4
799.994	275.11
800.174	303.78
800.354	258.73
800.534	215.72
800.714	281.25
800.894	291.49
801.074	230.06
801.254	232.1
801.434	262.82
801.614	342.69
801.794	258.73
801.974	684.7
802.154	260.77
802.334	266.92
802.514	217.77
802.693	277.16
802.873	281.25
803.053	307.88
803.233	246.44
803.413	217.77
803.592	248.49
803.772	234.15
803.952	221.86
804.131	316.07
804.311	217.77
804.491	283.3
804.67	180.9
804.85	238.25
805.03	285.35
805.209	254.63
805.389	242.34
805.568	176.81
805.748	283.3
805.928	168.62
806.107	320.17
806.287	254.63
806.466	211.62
806.646	256.68
806.825	242.34
807.004	254.63
807.184	275.11
807.363	228.01
807.543	287.4
807.722	197.29
807.901	248.49
808.081	185
808.26	168.62
808.439	221.86
808.619	164.52
808.798	242.34
808.977	277.16
809.156	234.15
809.336	182.95
809.515	176.81
809.694	209.58
809.873	213.67
810.052	207.53
810.231	246.44
810.411	223.91
810.59	252.58
810.769	260.77
810.948	215.72
811.127	146.09
811.306	252.58
811.485	180.9
811.664	266.92
811.843	156.33
812.022	234.15
812.201	172.71
812.38	205.48
812.559	219.82
812.737	223.91
812.916	203.43
813.095	148.14
813.274	230.06
813.453	115.37
813.632	203.43
813.811	107.18
813.989	213.67
814.168	137.9
814.347	180.9
814.526	203.43
814.704	176.81
814.883	260.77
815.062	164.52
815.24	170.66
815.419	174.76
815.598	144.04
815.776	113.32
815.955	137.9
816.133	131.75
816.312	195.24
816.49	154.28
816.669	199.34
816.847	197.29
817.026	103.08
817.204	115.37
817.383	250.53
817.561	137.9
817.74	199.34
817.918	115.37
818.097	144.04
818.275	148.14
818.453	107.18
818.632	109.22
818.81	115.37
818.988	98.99
819.167	201.38
819.345	156.33
819.523	94.89
819.701	144.04
819.879	170.66
820.058	154.28
820.236	160.42
820.414	86.7
820.592	170.66
820.77	107.18
820.948	133.8
821.127	115.37
821.305	101.03
821.483	191.14
821.661	170.66
821.839	152.23
822.017	158.38
822.195	131.75
822.373	72.36
822.551	168.62
822.729	148.14
822.907	49.83
823.085	156.33
823.262	135.85
823.44	150.18
823.618	119.46
823.796	111.27
823.974	49.83
824.152	170.66
824.329	121.51
824.507	72.36
824.685	211.62
824.863	86.7
825.04	105.13
825.218	170.66
825.396	137.9
825.574	176.81
825.751	150.18
825.929	137.9
826.107	66.22
826.284	78.51
826.462	189.1
826.639	58.03
826.817	76.46
826.994	150.18
827.172	127.66
827.349	117.42
827.527	117.42
827.704	123.56
827.882	172.71
828.059	135.85
828.237	88.75
828.414	27.31
828.591	80.55
828.769	86.7
828.946	66.22
829.124	84.65
829.301	84.65
829.478	70.31
829.655	109.22
829.833	152.23
830.01	80.55
830.187	72.36
830.364	98.99
830.542	33.45
830.719	123.56
830.896	121.51
831.073	78.51
831.25	92.84
831.427	64.17
831.604	111.27
831.782	49.83
831.959	113.32
832.136	146.09
832.313	76.46
832.49	94.89
832.667	135.85
832.844	127.66
833.021	176.81
833.198	68.27
833.374	152.23
833.551	58.03
833.728	109.22
833.905	103.08
834.082	78.51
834.259	131.75
834.436	127.66
834.612	21.16
834.789	82.6
834.966	96.94
835.143	68.27
835.319	127.66
835.496	103.08
835.673	109.22
835.85	23.21
836.026	37.55
836.203	47.79
836.38	119.46
836.556	78.51
836.733	88.75
836.909	113.32
837.086	43.69
837.262	82.6
837.439	41.64
837.616	27.31
837.792	152.23
837.968	43.69
838.145	60.07
838.321	123.56
838.498	-42.32
838.674	-13.65
838.851	107.18
839.027	131.75
839.203	58.03
839.38	70.31
839.556	94.89
839.732	62.12
839.909	53.93
840.085	135.85
840.261	111.27
840.437	146.09
840.614	-7.51
840.79	51.88
840.966	49.83
841.142	78.51
841.318	35.5
841.494	111.27
841.671	72.36
841.847	49.83
842.023	29.35
842.199	144.04
842.375	55.98
842.551	-1.37
842.727	0.68
842.903	68.27
843.079	43.69
843.255	107.18
843.431	15.02
843.607	113.32
843.783	47.79
843.959	90.79
844.134	27.31
844.31	92.84
844.486	84.65
844.662	45.74
844.838	8.87
845.013	74.41
845.189	43.69
845.365	58.03
845.541	17.07
845.716	55.98
845.892	78.51
846.068	103.08
846.244	55.98
846.419	160.42
846.595	90.79
846.77	12.97
846.946	82.6
847.122	62.12
847.297	37.55
847.473	117.42
847.648	115.37
847.824	10.92
847.999	-32.08
848.175	25.26
848.35	70.31
848.526	105.13
848.701	-19.8
848.876	43.69
849.052	82.6
849.227	66.22
849.403	82.6
849.578	-7.51
849.753	25.26
849.929	55.98
850.104	43.69
850.279	64.17
850.454	66.22
850.63	49.83
850.805	78.51
850.98	98.99
851.155	119.46
851.33	55.98
851.505	-15.7
851.681	62.12
851.856	107.18
852.031	109.22
852.206	33.45
852.381	62.12
852.556	-9.56
852.731	84.65
852.906	-1.37
853.081	62.12
853.256	39.59
853.431	60.07
853.606	62.12
853.781	58.03
853.956	35.5
854.131	121.51
854.305	39.59
854.48	23.21
854.655	10.92
854.83	4.78
855.005	76.46
855.18	94.89
855.354	43.69
855.529	58.03
855.704	-7.51
855.879	60.07
856.053	90.79
856.228	29.35
856.403	-3.41
856.577	49.83
856.752	2.73
856.926	31.4
857.101	6.83
857.276	111.27
857.45	35.5
857.625	80.55
857.799	82.6
857.974	76.46
858.148	-3.41
858.323	78.51
858.497	39.59
858.672	49.83
858.846	8.87
859.02	37.55
859.195	-9.56
859.369	35.5
859.543	103.08
859.718	76.46
859.892	58.03
860.066	35.5
860.241	8.87
860.415	37.55
860.589	49.83
860.763	76.46
860.938	-27.99
861.112	53.93
861.286	64.17
861.46	123.56
861.634	58.03
861.808	33.45
861.982	25.26
862.157	64.17
862.331	15.02
862.505	111.27
862.679	53.93
862.853	-13.65
863.027	0.68
863.201	62.12
863.375	45.74
863.549	33.45
863.722	113.32
863.896	19.11
864.07	49.83
864.244	-7.51
864.418	107.18
864.592	21.16
864.766	113.32
864.939	62.12
865.113	25.26
865.287	111.27
865.461	-19.8
865.634	111.27
865.808	37.55
865.982	-7.51
866.156	64.17
866.329	10.92
866.503	25.26
866.676	33.45
866.85	45.74
867.024	49.83
867.197	-27.99
867.371	29.35
867.544	62.12
867.718	68.27
867.891	6.83
868.065	-44.37
868.238	-17.75
868.412	39.59
868.585	76.46
868.759	111.27
868.932	12.97
869.105	-48.47
869.279	-36.18
869.452	0.68
869.625	17.07
869.799	96.94
869.972	-7.51
870.145	64.17
870.319	-1.37
870.492	39.59
870.665	10.92
870.838	60.07
871.011	31.4
871.185	19.11
871.358	72.36
871.531	35.5
871.704	15.02
871.877	-15.7
872.05	-38.23
872.223	25.26
872.396	10.92
872.569	47.79
872.742	0.68
872.915	53.93
873.088	60.07
873.261	-19.8
873.434	31.4
873.607	31.4
873.78	-7.51
873.953	25.26
874.126	-1.37
874.299	-27.99
874.471	47.79
874.644	68.27
874.817	29.35
874.99	-3.41
875.163	12.97
875.335	41.64
875.508	10.92
875.681	21.16
875.853	-1.37
876.026	82.6
876.199	21.16
876.371	74.41
876.544	-15.7
876.717	12.97
876.889	-3.41
877.062	41.64
877.234	25.26
877.407	-19.8
877.579	0.68
877.752	37.55
877.924	4.78
878.097	-9.56
878.269	-15.7
878.442	-54.61
878.614	33.45
878.786	-19.8
878.959	-11.61
879.131	80.55
879.303	-44.37
879.476	-19.8
879.648	43.69
879.82	43.69
879.993	-48.47
880.165	25.26
880.337	41.64
880.509	-9.56
880.681	-5.46
880.854	-21.85
881.026	-9.56
881.198	55.98
881.37	-19.8
881.542	-15.7
881.714	-19.8
881.886	39.59
882.058	10.92
882.23	-60.76
882.402	-23.89
882.574	8.87
882.746	37.55
882.918	96.94
883.09	-1.37
883.262	78.51
883.434	-9.56
883.606	47.79
883.778	35.5
883.95	72.36
884.122	-13.65
884.293	35.5
884.465	-7.51
884.637	-21.85
884.809	-21.85
884.98	55.98
885.152	103.08
885.324	27.31
885.496	-25.94
885.667	-48.47
885.839	27.31
886.011	51.88
886.182	17.07
886.354	31.4
886.525	-19.8
886.697	15.02
886.869	-54.61
887.04	-19.8
887.212	-7.51
887.383	41.64
887.555	98.99
887.726	-32.08
887.897	-5.46
888.069	72.36
888.24	-91.48
888.412	70.31
888.583	31.4
888.754	45.74
888.926	27.31
889.097	21.16
889.268	0.68
889.44	-62.8
889.611	47.79
889.782	-3.41
889.953	-27.99
890.125	39.59
890.296	39.59
890.467	51.88
890.638	-17.75
890.809	-27.99
890.98	8.87
891.151	37.55
891.323	45.74
891.494	4.78
891.665	-52.56
891.836	-5.46
892.007	-56.66
892.178	-27.99
892.349	-62.8
892.52	49.83
892.691	17.07
892.862	-21.85
893.032	-21.85
893.203	27.31
893.374	-3.41
893.545	27.31
893.716	-32.08
893.887	19.11
894.057	37.55
894.228	-21.85
894.399	-25.94
894.57	58.03
894.74	4.78
894.911	64.17
895.082	-9.56
895.253	-21.85
895.423	49.83
895.594	2.73
895.764	29.35
895.935	-32.08
896.106	-17.75
896.276	-15.7
896.447	23.21
896.617	-13.65
896.788	-44.37
896.958	0.68
897.129	49.83
897.299	37.55
897.47	-3.41
897.64	47.79
897.81	8.87
897.981	43.69
898.151	78.51
898.322	-21.85
898.492	53.93
898.662	19.11
898.832	2.73
899.003	4.78
899.173	141.99
899.343	-38.23
899.513	-66.9
