Data from USB4F104151__117__11-07-24-224.txt Node

Date: Wed Mar 12 11:07:24 EDT 2025
User: louis
Spectrometer: USB4F10415
Trigger mode: 4
Integration Time (sec): 2.000000E-2
Scans to average: 1
Electric dark correction enabled: true
Nonlinearity correction enabled: false
Boxcar width: 0
XAxis mode: Wavelengths
Number of Pixels in Spectrum: 3648
>>>>>Begin Spectral Data<<<<<
178.204	-99.16
178.424	-99.16
178.644	-99.16
178.864	-58.2
179.084	-35.67
179.304	-23.38
179.524	-7
179.744	13.48
179.964	50.35
180.184	-82.77
180.404	29.87
180.624	52.39
180.844	-33.62
181.064	64.68
181.283	-90.96
181.503	23.72
181.723	3.24
181.943	3.24
182.163	42.15
182.383	76.97
182.602	-19.29
182.822	27.82
183.042	31.91
183.262	23.72
183.482	31.91
183.701	-27.48
183.921	-21.33
184.141	52.39
184.361	36.01
184.58	27.82
184.8	-50
185.02	11.43
185.239	13.48
185.459	7.34
185.679	42.15
185.898	-47.96
186.118	33.96
186.338	52.39
186.557	81.07
186.777	42.15
186.997	42.15
187.216	5.29
187.436	54.44
187.655	54.44
187.875	76.97
188.095	-39.76
188.314	33.96
188.534	93.35
188.753	-7
188.973	54.44
189.192	79.02
189.412	95.4
189.631	42.15
189.851	70.83
190.07	29.87
190.29	95.4
190.509	23.72
190.729	52.39
190.948	66.73
191.168	179.37
191.387	56.49
191.607	70.83
191.826	15.53
192.045	9.39
192.265	-15.19
192.484	42.15
192.704	36.01
192.923	68.78
193.142	46.25
193.362	-15.19
193.581	70.83
193.8	-17.24
194.02	66.73
194.239	27.82
194.458	64.68
194.678	11.43
194.897	52.39
195.116	42.15
195.335	17.58
195.555	-31.57
195.774	95.4
195.993	46.25
196.212	85.16
196.432	29.87
196.651	50.35
196.87	60.59
197.089	142.5
197.308	101.55
197.528	31.91
197.747	-4.95
197.966	-0.85
198.185	111.78
198.404	42.15
198.623	105.64
198.842	29.87
199.062	48.3
199.281	64.68
199.5	58.54
199.719	-13.14
199.938	-0.85
200.157	38.06
200.376	103.59
200.595	81.07
200.814	19.63
201.033	70.83
201.252	-31.57
201.471	33.96
201.69	56.49
201.909	38.06
202.128	58.54
202.347	40.11
202.566	-15.19
202.785	19.63
203.004	42.15
203.223	17.58
203.442	89.26
203.661	-27.48
203.879	1.19
204.098	74.92
204.317	5.29
204.536	60.59
204.755	52.39
204.974	85.16
205.193	93.35
205.411	122.02
205.63	9.39
205.849	13.48
206.068	15.53
206.287	56.49
206.505	62.63
206.724	44.2
206.943	3.24
207.162	3.24
207.381	11.43
207.599	25.77
207.818	40.11
208.037	31.91
208.255	42.15
208.474	68.78
208.693	70.83
208.911	44.2
209.13	27.82
209.349	25.77
209.567	5.29
209.786	91.31
210.005	87.21
210.223	138.41
210.442	1.19
210.661	-25.43
210.879	42.15
211.098	72.87
211.316	5.29
211.535	-21.33
211.753	13.48
211.972	83.11
212.191	68.78
212.409	56.49
212.628	56.49
212.846	-43.86
213.065	56.49
213.283	93.35
213.502	23.72
213.72	17.58
213.938	70.83
214.157	33.96
214.375	9.39
214.594	46.25
214.812	87.21
215.031	42.15
215.249	11.43
215.467	40.11
215.686	-9.05
215.904	103.59
216.122	33.96
216.341	111.78
216.559	29.87
216.778	42.15
216.996	33.96
217.214	60.59
217.432	56.49
217.651	-11.09
217.869	66.73
218.087	5.29
218.306	126.12
218.524	46.25
218.742	62.63
218.96	70.83
219.179	70.83
219.397	91.31
219.615	44.2
219.833	-9.05
220.051	19.63
220.27	76.97
220.488	42.15
220.706	-7
220.924	-35.67
221.142	17.58
221.36	-21.33
221.578	74.92
221.796	33.96
222.015	27.82
222.233	85.16
222.451	42.15
222.669	-4.95
222.887	87.21
223.105	38.06
223.323	117.93
223.541	5.29
223.759	36.01
223.977	42.15
224.195	97.45
224.413	64.68
224.631	40.11
224.849	23.72
225.067	52.39
225.285	21.67
225.503	105.64
225.721	-9.05
225.939	91.31
226.157	42.15
226.375	36.01
226.592	48.3
226.81	44.2
227.028	115.88
227.246	70.83
227.464	-17.24
227.682	136.36
227.9	70.83
228.117	52.39
228.335	54.44
228.553	5.29
228.771	-23.38
228.989	46.25
229.206	113.83
229.424	-29.52
229.642	48.3
229.86	52.39
230.077	103.59
230.295	93.35
230.513	27.82
230.731	76.97
230.948	167.08
231.166	54.44
231.384	38.06
231.601	27.82
231.819	31.91
232.037	-19.29
232.254	50.35
232.472	-19.29
232.689	-2.9
232.907	42.15
233.125	25.77
233.342	83.11
233.56	111.78
233.777	38.06
233.995	95.4
234.213	-47.96
234.43	-0.85
234.648	79.02
234.865	38.06
235.083	109.74
235.3	52.39
235.518	101.55
235.735	83.11
235.953	36.01
236.17	15.53
236.388	-50
236.605	42.15
236.822	68.78
237.04	93.35
237.257	68.78
237.475	25.77
237.692	68.78
237.909	1.19
238.127	42.15
238.344	21.67
238.562	58.54
238.779	68.78
238.996	89.26
239.214	54.44
239.431	25.77
239.648	79.02
239.865	89.26
240.083	68.78
240.3	11.43
240.517	103.59
240.735	21.67
240.952	21.67
241.169	-15.19
241.386	99.5
241.603	79.02
241.821	48.3
242.038	54.44
242.255	46.25
242.472	9.39
242.689	21.67
242.907	136.36
243.124	7.34
243.341	87.21
243.558	5.29
243.775	5.29
243.992	42.15
244.209	60.59
244.426	87.21
244.643	119.98
244.86	-4.95
245.078	58.54
245.295	79.02
245.512	54.44
245.729	38.06
245.946	52.39
246.163	17.58
246.38	81.07
246.597	36.01
246.814	29.87
247.031	64.68
247.248	-13.14
247.464	21.67
247.681	54.44
247.898	83.11
248.115	91.31
248.332	40.11
248.549	31.91
248.766	83.11
248.983	56.49
249.2	25.77
249.417	-17.24
249.633	29.87
249.85	-7
250.067	79.02
250.284	40.11
250.501	31.91
250.717	109.74
250.934	89.26
251.151	93.35
251.368	25.77
251.585	144.55
251.801	95.4
252.018	33.96
252.235	23.72
252.451	107.69
252.668	33.96
252.885	15.53
253.102	89.26
253.318	83.11
253.535	89.26
253.752	25.77
253.968	46.25
254.185	-41.81
254.401	42.15
254.618	87.21
254.835	-9.05
255.051	97.45
255.268	44.2
255.484	95.4
255.701	70.83
255.917	21.67
256.134	15.53
256.351	48.3
256.567	31.91
256.784	19.63
257	115.88
257.217	132.26
257.433	95.4
257.65	56.49
257.866	7.34
258.082	11.43
258.299	38.06
258.515	83.11
258.732	60.59
258.948	29.87
259.165	144.55
259.381	29.87
259.597	83.11
259.814	38.06
260.03	54.44
260.246	-0.85
260.463	25.77
260.679	13.48
260.895	1.19
261.112	44.2
261.328	97.45
261.544	5.29
261.761	74.92
261.977	44.2
262.193	44.2
262.409	62.63
262.626	38.06
262.842	64.68
263.058	68.78
263.274	128.17
263.49	50.35
263.707	134.31
263.923	54.44
264.139	-13.14
264.355	13.48
264.571	23.72
264.787	38.06
265.004	62.63
265.22	85.16
265.436	-31.57
265.652	-45.91
265.868	17.58
266.084	25.77
266.3	70.83
266.516	107.69
266.732	48.3
266.948	31.91
267.164	97.45
267.38	48.3
267.596	91.31
267.812	128.17
268.028	79.02
268.244	58.54
268.46	13.48
268.676	17.58
268.892	99.5
269.108	66.73
269.324	7.34
269.54	1.19
269.756	50.35
269.972	27.82
270.188	15.53
270.403	-15.19
270.619	97.45
270.835	58.54
271.051	25.77
271.267	-15.19
271.483	68.78
271.698	44.2
271.914	48.3
272.13	17.58
272.346	95.4
272.562	81.07
272.777	105.64
272.993	74.92
273.209	-17.24
273.425	87.21
273.64	89.26
273.856	-23.38
274.072	156.84
274.287	-35.67
274.503	13.48
274.719	3.24
274.934	31.91
275.15	85.16
275.366	3.24
275.581	38.06
275.797	91.31
276.012	169.13
276.228	21.67
276.444	-31.57
276.659	111.78
276.875	66.73
277.09	21.67
277.306	-19.29
277.521	-7
277.737	50.35
277.952	122.02
278.168	25.77
278.383	56.49
278.599	105.64
278.814	50.35
279.03	-9.05
279.245	27.82
279.461	74.92
279.676	79.02
279.892	3.24
280.107	103.59
280.322	33.96
280.538	15.53
280.753	27.82
280.969	-2.9
281.184	72.87
281.399	29.87
281.615	54.44
281.83	60.59
282.045	27.82
282.26	52.39
282.476	-4.95
282.691	113.83
282.906	48.3
283.122	40.11
283.337	38.06
283.552	126.12
283.767	-21.33
283.983	99.5
284.198	101.55
284.413	64.68
284.628	11.43
284.843	79.02
285.058	48.3
285.274	74.92
285.489	36.01
285.704	99.5
285.919	74.92
286.134	156.84
286.349	5.29
286.564	93.35
286.779	7.34
286.995	25.77
287.21	33.96
287.425	58.54
287.64	91.31
287.855	38.06
288.07	85.16
288.285	23.72
288.5	74.92
288.715	74.92
288.93	58.54
289.145	95.4
289.36	85.16
289.575	44.2
289.79	11.43
290.004	72.87
290.219	93.35
290.434	56.49
290.649	52.39
290.864	19.63
291.079	64.68
291.294	44.2
291.509	85.16
291.724	62.63
291.938	54.44
292.153	91.31
292.368	56.49
292.583	76.97
292.798	42.15
293.012	99.5
293.227	52.39
293.442	5.29
293.657	95.4
293.871	40.11
294.086	15.53
294.301	95.4
294.516	109.74
294.73	74.92
294.945	-7
295.16	70.83
295.374	79.02
295.589	19.63
295.804	83.11
296.018	122.02
296.233	60.59
296.447	76.97
296.662	23.72
296.877	105.64
297.091	27.82
297.306	68.78
297.52	50.35
297.735	54.44
297.949	109.74
298.164	79.02
298.378	50.35
298.593	-2.9
298.807	38.06
299.022	29.87
299.236	46.25
299.451	-23.38
299.665	91.31
299.88	72.87
300.094	66.73
300.309	36.01
300.523	42.15
300.737	42.15
300.952	54.44
301.166	66.73
301.381	7.34
301.595	79.02
301.809	68.78
302.024	44.2
302.238	-60.24
302.452	91.31
302.667	101.55
302.881	50.35
303.095	60.59
303.309	119.98
303.524	58.54
303.738	111.78
303.952	29.87
304.166	93.35
304.381	-7
304.595	52.39
304.809	9.39
305.023	64.68
305.237	64.68
305.452	58.54
305.666	42.15
305.88	91.31
306.094	126.12
306.308	107.69
306.522	99.5
306.736	68.78
306.95	58.54
307.164	42.15
307.379	42.15
307.593	126.12
307.807	31.91
308.021	70.83
308.235	25.77
308.449	25.77
308.663	50.35
308.877	115.88
309.091	54.44
309.305	44.2
309.519	54.44
309.733	79.02
309.947	-2.9
310.161	58.54
310.374	42.15
310.588	95.4
310.802	33.96
311.016	95.4
311.23	-2.9
311.444	66.73
311.658	9.39
311.872	50.35
312.085	60.59
312.299	23.72
312.513	91.31
312.727	109.74
312.941	85.16
313.154	58.54
313.368	-0.85
313.582	36.01
313.796	54.44
314.009	25.77
314.223	17.58
314.437	56.49
314.651	91.31
314.864	93.35
315.078	62.63
315.292	50.35
315.505	66.73
315.719	74.92
315.933	54.44
316.146	83.11
316.36	62.63
316.573	50.35
316.787	27.82
317.001	103.59
317.214	95.4
317.428	25.77
317.641	38.06
317.855	42.15
318.068	74.92
318.282	101.55
318.495	154.79
318.709	91.31
318.922	68.78
319.136	17.58
319.349	7.34
319.563	25.77
319.776	85.16
319.99	70.83
320.203	31.91
320.417	9.39
320.63	103.59
320.843	3.24
321.057	56.49
321.27	97.45
321.483	42.15
321.697	107.69
321.91	60.59
322.124	62.63
322.337	62.63
322.55	105.64
322.763	83.11
322.977	95.4
323.19	42.15
323.403	60.59
323.617	109.74
323.83	72.87
324.043	11.43
324.256	132.26
324.469	21.67
324.683	83.11
324.896	38.06
325.109	38.06
325.322	44.2
325.535	46.25
325.748	83.11
325.962	31.91
326.175	33.96
326.388	54.44
326.601	89.26
326.814	27.82
327.027	9.39
327.24	140.46
327.453	-2.9
327.666	76.97
327.879	124.07
328.092	91.31
328.305	119.98
328.518	36.01
328.731	29.87
328.944	15.53
329.157	66.73
329.37	74.92
329.583	117.93
329.796	74.92
330.009	58.54
330.222	103.59
330.435	44.2
330.648	48.3
330.861	19.63
331.073	54.44
331.286	93.35
331.499	48.3
331.712	54.44
331.925	132.26
332.138	105.64
332.35	62.63
332.563	83.11
332.776	46.25
332.989	132.26
333.202	48.3
333.414	46.25
333.627	91.31
333.84	19.63
334.053	72.87
334.265	40.11
334.478	91.31
334.691	132.26
334.903	17.58
335.116	70.83
335.329	99.5
335.541	111.78
335.754	11.43
335.966	15.53
336.179	68.78
336.392	119.98
336.604	130.22
336.817	29.87
337.029	101.55
337.242	76.97
337.454	93.35
337.667	124.07
337.88	91.31
338.092	152.74
338.305	97.45
338.517	9.39
338.729	66.73
338.942	56.49
339.154	52.39
339.367	17.58
339.579	89.26
339.792	79.02
340.004	165.03
340.217	52.39
340.429	54.44
340.641	21.67
340.854	17.58
341.066	29.87
341.278	62.63
341.491	29.87
341.703	83.11
341.915	76.97
342.128	95.4
342.34	117.93
342.552	-7
342.764	62.63
342.977	15.53
343.189	91.31
343.401	58.54
343.613	-7
343.826	107.69
344.038	48.3
344.25	83.11
344.462	101.55
344.674	128.17
344.886	-52.05
345.099	152.74
345.311	58.54
345.523	101.55
345.735	66.73
345.947	91.31
346.159	128.17
346.371	44.2
346.583	60.59
346.795	146.6
347.007	27.82
347.219	48.3
347.431	68.78
347.643	40.11
347.855	58.54
348.067	70.83
348.279	62.63
348.491	3.24
348.703	91.31
348.915	169.13
349.127	29.87
349.339	115.88
349.551	17.58
349.763	64.68
349.975	33.96
350.187	15.53
350.399	156.84
350.61	91.31
350.822	81.07
351.034	126.12
351.246	36.01
351.458	103.59
351.669	36.01
351.881	150.7
352.093	103.59
352.305	113.83
352.517	103.59
352.728	85.16
352.94	148.65
353.152	85.16
353.363	-35.67
353.575	13.48
353.787	105.64
353.999	42.15
354.21	52.39
354.422	87.21
354.633	111.78
354.845	103.59
355.057	25.77
355.268	25.77
355.48	74.92
355.692	-13.14
355.903	109.74
356.115	91.31
356.326	33.96
356.538	50.35
356.749	89.26
356.961	50.35
357.172	19.63
357.384	52.39
357.595	79.02
357.807	62.63
358.018	3.24
358.23	95.4
358.441	115.88
358.653	83.11
358.864	87.21
359.075	74.92
359.287	119.98
359.498	79.02
359.709	158.89
359.921	95.4
360.132	117.93
360.344	93.35
360.555	87.21
360.766	107.69
360.977	76.97
361.189	36.01
361.4	81.07
361.611	93.35
361.823	64.68
362.034	62.63
362.245	48.3
362.456	36.01
362.667	56.49
362.879	17.58
363.09	99.5
363.301	162.98
363.512	101.55
363.723	17.58
363.935	60.59
364.146	91.31
364.357	87.21
364.568	58.54
364.779	54.44
364.99	42.15
365.201	107.69
365.412	138.41
365.623	50.35
365.834	115.88
366.045	60.59
366.256	79.02
366.467	74.92
366.678	87.21
366.889	93.35
367.1	95.4
367.311	101.55
367.522	72.87
367.733	119.98
367.944	154.79
368.155	117.93
368.366	173.22
368.577	85.16
368.788	31.91
368.999	89.26
369.209	95.4
369.42	72.87
369.631	113.83
369.842	81.07
370.053	64.68
370.264	52.39
370.474	-15.19
370.685	144.55
370.896	99.5
371.107	111.78
371.317	105.64
371.528	89.26
371.739	1.19
371.95	74.92
372.16	11.43
372.371	132.26
372.582	74.92
372.792	89.26
373.003	99.5
373.214	83.11
373.424	105.64
373.635	33.96
373.846	128.17
374.056	79.02
374.267	150.7
374.477	128.17
374.688	101.55
374.898	119.98
375.109	83.11
375.319	107.69
375.53	144.55
375.74	144.55
375.951	17.58
376.161	119.98
376.372	27.82
376.582	93.35
376.793	119.98
377.003	113.83
377.214	1.19
377.424	107.69
377.635	107.69
377.845	122.02
378.055	46.25
378.266	76.97
378.476	15.53
378.686	48.3
378.897	50.35
379.107	101.55
379.317	38.06
379.528	56.49
379.738	124.07
379.948	138.41
380.158	124.07
380.369	111.78
380.579	99.5
380.789	76.97
380.999	81.07
381.21	105.64
381.42	140.46
381.63	99.5
381.84	171.18
382.05	91.31
382.261	117.93
382.471	62.63
382.681	17.58
382.891	124.07
383.101	48.3
383.311	93.35
383.521	144.55
383.731	154.79
383.941	162.98
384.151	103.59
384.361	64.68
384.571	97.45
384.781	33.96
384.991	76.97
385.201	76.97
385.411	-13.14
385.621	103.59
385.831	81.07
386.041	79.02
386.251	44.2
386.461	117.93
386.671	111.78
386.881	138.41
387.091	87.21
387.301	111.78
387.511	107.69
387.72	76.97
387.93	74.92
388.14	150.7
388.35	42.15
388.56	113.83
388.769	87.21
388.979	36.01
389.189	54.44
389.399	87.21
389.609	136.36
389.818	244.9
390.028	175.27
390.238	107.69
390.447	111.78
390.657	134.31
390.867	15.53
391.076	54.44
391.286	126.12
391.496	74.92
391.705	91.31
391.915	48.3
392.125	203.94
392.334	74.92
392.544	128.17
392.753	85.16
392.963	160.94
393.172	97.45
393.382	91.31
393.591	109.74
393.801	111.78
394.01	134.31
394.22	99.5
394.429	128.17
394.639	23.72
394.848	122.02
395.058	183.46
395.267	95.4
395.477	68.78
395.686	115.88
395.895	195.75
396.105	142.5
396.314	140.46
396.524	156.84
396.733	156.84
396.942	107.69
397.152	152.74
397.361	99.5
397.57	97.45
397.78	173.22
397.989	136.36
398.198	195.75
398.407	128.17
398.617	11.43
398.826	146.6
399.035	150.7
399.244	162.98
399.453	152.74
399.663	124.07
399.872	185.51
400.081	136.36
400.29	208.04
400.499	138.41
400.708	171.18
400.917	144.55
401.127	126.12
401.336	165.03
401.545	187.56
401.754	201.9
401.963	292.01
402.172	208.04
402.381	195.75
402.59	218.28
402.799	236.71
403.008	177.32
403.217	183.46
403.426	138.41
403.635	187.56
403.844	95.4
404.053	195.75
404.262	249
404.471	318.63
404.68	175.27
404.888	242.85
405.097	185.51
405.306	226.47
405.515	257.19
405.724	275.62
405.933	257.19
406.142	314.53
406.35	273.57
406.559	306.34
406.768	283.81
406.977	304.29
407.185	294.05
407.394	308.39
407.603	326.82
407.812	359.59
408.02	378.02
408.229	289.96
408.438	302.25
408.646	353.45
408.855	406.69
409.064	455.84
409.272	359.59
409.481	470.18
409.69	455.84
409.898	382.12
410.107	437.41
410.315	441.51
410.524	554.15
410.733	539.81
410.941	545.95
411.15	521.38
411.358	543.91
411.567	593.06
411.775	597.15
411.984	525.47
412.192	580.77
412.401	648.35
412.609	771.23
412.818	722.08
413.026	726.18
413.234	820.38
413.443	797.85
413.651	824.48
413.86	879.77
414.068	869.53
414.276	971.93
414.485	1029.27
414.693	978.08
414.901	1100.95
415.11	1078.43
415.318	1070.23
415.526	992.41
415.734	1105.05
415.943	1219.74
416.151	1205.4
416.359	1199.26
416.567	1244.31
416.776	1338.52
416.984	1440.92
417.192	1549.46
417.4	1492.12
417.608	1565.84
417.817	1653.91
418.025	1631.38
418.233	1799.31
418.441	1696.91
418.649	1791.12
418.857	1750.16
419.065	1963.15
419.273	1975.44
419.481	1924.24
419.689	2163.85
419.897	2208.9
420.105	2266.25
420.313	2292.87
420.521	2331.78
420.729	2358.41
420.937	2497.67
421.145	2598.02
421.353	2790.53
421.561	2745.47
421.769	2913.41
421.977	3198.07
422.185	3069.05
422.393	3316.86
422.601	3454.07
422.809	3458.17
423.017	3425.4
423.224	3462.26
423.432	3712.11
423.64	3794.03
423.848	4068.46
424.056	4029.55
424.263	4177
424.471	4371.56
424.679	4484.2
424.887	4484.2
425.094	4676.71
425.302	4775.01
425.51	4951.14
425.718	5151.84
425.925	5121.12
426.133	5262.43
426.341	5571.67
426.548	5735.51
426.756	6036.56
426.964	6114.38
427.171	6372.43
427.379	6466.63
427.586	6466.63
427.794	6814.79
428.001	7150.65
428.209	7507
428.417	7103.55
428.624	7777.33
428.832	7959.6
429.039	7717.94
429.247	7902.26
429.454	8535.08
429.662	9122.85
429.869	8467.5
430.076	9151.52
430.284	8840.23
430.491	9323.55
430.699	9747.48
430.906	9743.38
431.114	9819.16
431.321	10093.58
431.528	10396.68
431.736	10920.96
431.943	11568.12
432.15	11320.32
432.358	11404.28
432.565	12209.14
432.772	11996.15
432.979	12495.85
433.187	12628.97
433.394	12684.27
433.601	13829.08
433.808	13833.18
434.016	13702.11
434.223	14502.86
434.43	15365.06
434.637	14900.17
434.844	16090.04
435.052	16233.39
435.259	15844.28
435.466	16163.76
435.673	15856.57
435.88	17124.26
436.087	18051.99
436.294	18051.99
436.501	17540
436.708	17908.63
436.915	18568.08
437.122	19092.36
437.329	19049.35
437.537	19866.49
437.743	20581.23
437.95	20257.65
438.157	20925.29
438.364	22045.53
438.571	21744.48
438.778	21932.89
438.985	23919.42
439.192	23126.86
439.399	23980.86
439.606	23026.51
439.813	24312.63
440.02	25834.27
440.227	25576.23
440.433	24984.37
440.64	26000.16
440.847	26164
441.054	26762
441.261	28295.93
441.467	28179.2
441.674	28445.43
441.881	29475.56
442.088	29334.25
442.294	29360.87
442.501	30141.15
442.708	30411.48
442.914	31933.12
443.121	32918.2
443.328	32547.51
443.534	34681.5
443.741	33581.74
443.948	33227.44
444.154	35789.45
444.361	35396.24
444.568	35568.27
444.774	35398.29
444.981	36076.16
445.187	36958.84
445.394	38558.3
445.6	37808.75
445.807	41437.75
446.013	39813.71
446.22	40737.34
446.426	42211.88
446.633	42543.65
446.839	43518.48
447.046	41712.17
447.252	44222.98
447.459	44485.12
447.665	44089.87
447.871	46668.26
448.078	47811.03
448.284	45656.56
448.491	46645.73
448.697	48454.09
448.903	49273.27
449.11	49156.54
449.316	48880.06
449.522	49347
449.728	50645.41
449.935	51188.13
450.141	51114.4
450.347	51749.27
450.553	50508.2
450.76	51026.34
450.966	52693.38
451.172	51857.81
451.378	53100.93
451.584	52484.49
451.791	53232
451.997	53098.88
452.203	54794.6
452.409	54024.56
452.615	53494.14
452.821	52226.45
453.027	51364.25
453.233	54196.59
453.44	51923.35
453.646	52357.52
453.852	52373.9
454.058	53805.43
454.264	51567
454.47	52681.09
454.676	51503.51
454.882	53348.73
455.088	48464.33
455.294	49496.5
455.5	50065.84
455.705	50239.92
455.911	48415.18
456.117	47368.66
456.323	47192.54
456.529	44352.01
456.735	46320.1
456.941	45005.31
457.147	44034.57
457.352	43184.66
457.558	42156.58
457.764	42408.48
457.97	42201.64
458.176	40800.83
458.381	40870.46
458.587	38769.24
458.793	39101.01
458.999	36799.1
459.204	39397.97
459.41	38462.05
459.616	36031.11
459.821	36047.49
460.027	35506.83
460.233	34755.22
460.438	33413.8
460.644	33727.14
460.85	32414.4
461.055	32000.71
461.261	31830.72
461.466	29223.66
461.672	28775.16
461.878	30505.69
462.083	28461.82
462.289	28082.94
462.494	27736.84
462.7	26510.1
462.905	25686.82
463.111	27097.87
463.316	26882.83
463.522	26452.76
463.727	26436.38
463.932	26368.79
464.138	26073.88
464.343	26303.26
464.549	25473.83
464.754	26409.75
464.959	25832.22
465.165	25842.46
465.37	24806.19
465.575	24089.4
465.781	25314.09
465.986	25432.87
466.191	24652.59
466.397	24048.44
466.602	22575.95
466.807	24019.77
467.012	23618.37
467.218	23196.49
467.423	23333.7
467.628	23292.74
467.833	24582.96
468.038	23857.98
468.244	22772.56
468.449	23823.17
468.654	22989.64
468.859	22889.29
469.064	22694.74
469.269	22135.64
469.474	21732.19
469.679	22305.62
469.885	21465.96
470.09	22442.84
470.295	21879.64
470.5	21359.46
470.705	21453.67
470.91	20886.38
471.115	20771.69
471.32	21175.14
471.525	20822.89
471.73	20697.97
471.935	20450.16
472.139	19663.74
472.344	20024.19
472.549	19917.69
472.754	19602.3
472.959	19276.68
473.164	18631.57
473.369	18389.91
473.574	19262.34
473.778	18785.16
473.983	18793.36
474.188	18619.28
474.393	17922.97
474.598	17910.68
474.802	17779.61
475.007	17957.78
475.212	17632.16
475.417	16874.41
475.621	16927.66
475.826	16948.14
476.031	16706.48
476.235	16352.18
476.44	16782.25
476.645	16251.83
476.849	16583.6
477.054	16489.39
477.259	16022.45
477.463	15979.45
477.668	15303.62
477.872	15963.06
478.077	15467.45
478.282	15107.01
478.486	15145.92
478.691	15008.71
478.895	14719.95
479.1	14844.87
479.304	14791.62
479.509	14394.32
479.713	14695.37
479.918	14437.33
480.122	13908.95
480.326	14390.22
480.531	14472.14
480.735	14140.37
480.94	14085.08
481.144	14402.51
481.348	13941.72
481.553	13867.99
481.757	13534.17
481.961	13761.5
482.166	14158.8
482.37	14158.8
482.574	13626.33
482.778	13773.78
482.983	13829.08
483.187	13890.52
483.391	13831.13
483.595	13859.8
483.8	13605.85
484.004	13665.24
484.208	13792.22
484.412	13816.79
484.616	13771.74
484.821	13806.55
485.025	13607.9
485.229	13960.15
485.433	13624.28
485.637	13800.41
485.841	13751.26
486.045	13648.86
486.249	13870.04
486.453	13624.28
486.657	13775.83
486.861	13601.76
487.065	13349.85
487.269	13636.57
487.473	13390.81
487.677	13812.7
487.881	14011.35
488.085	13632.47
488.289	13859.8
488.493	13517.79
488.697	13867.99
488.901	13736.92
489.105	13732.83
489.309	14011.35
489.512	13906.9
489.716	13708.25
489.92	13902.81
490.124	13892.57
490.328	14093.27
490.531	13886.42
490.735	14064.6
490.939	14293.97
491.143	14060.5
491.346	14253.01
491.55	14480.33
491.754	14203.86
491.958	14523.34
492.161	14414.8
492.365	14519.25
492.569	14500.81
492.772	14547.92
492.976	14525.39
493.18	14502.86
493.383	14879.69
493.587	14949.32
493.79	15045.57
493.994	14812.1
494.197	14994.37
494.401	15244.23
494.605	15264.71
494.808	15516.61
495.012	15498.17
495.215	15686.59
495.419	15840.18
495.622	15780.79
495.825	15795.13
496.029	15911.86
496.232	16065.46
496.436	16042.93
496.639	16532.4
496.843	16681.9
497.046	16939.94
497.249	17154.98
497.453	17279.91
497.656	17114.02
497.859	17339.3
498.063	17720.22
498.266	17804.19
498.469	17980.31
498.673	18103.19
498.876	18420.63
499.079	18557.84
499.282	18422.67
499.485	18916.23
499.689	18809.74
499.892	19323.78
500.095	19469.19
500.298	19602.3
500.501	19411.84
500.705	20071.29
500.908	20200.31
501.111	20575.09
501.314	20595.57
501.517	21005.16
501.72	21441.38
501.923	21306.21
502.126	21807.97
502.329	21963.61
502.532	21689.18
502.735	22063.96
502.938	22815.57
503.141	22807.37
503.344	22965.07
503.547	23284.55
503.75	23579.46
503.953	24101.69
504.156	24251.19
504.359	24183.61
504.562	24378.17
504.765	24982.32
504.968	25172.78
505.17	25312.04
505.373	25367.34
505.576	25998.11
505.779	25920.29
505.982	26401.56
506.185	26448.66
506.387	26931.98
506.59	27360.01
506.793	27609.86
506.996	27347.72
507.198	28510.97
507.401	28074.75
507.604	28480.25
507.807	28994.29
508.009	29010.67
508.212	29219.56
508.415	29795.04
508.617	30368.48
508.82	30239.45
509.022	30212.83
509.225	30757.59
509.428	31091.41
509.63	31175.37
509.833	31437.51
510.035	32156.35
510.238	31963.84
510.44	32553.66
510.643	32766.65
510.845	33104.56
511.048	33096.37
511.25	33311.41
511.453	33927.84
511.655	34986.64
511.858	34595.48
512.06	34921.11
512.262	35646.09
512.465	35515.02
512.667	36045.44
512.87	36330.11
513.072	36358.78
513.274	37046.9
513.477	37548.65
513.679	37448.3
513.881	37763.69
514.084	38533.73
514.286	38586.97
514.488	38486.62
514.69	39952.97
514.893	39529.04
515.095	39682.64
515.297	40501.82
515.499	40139.33
515.701	40966.71
515.904	41482.8
516.106	41663.02
516.308	42209.83
516.51	42502.69
516.712	42758.69
516.914	42904.09
517.116	43364.88
517.318	43885.07
517.52	43876.88
517.722	44208.65
517.925	45009.4
518.127	45154.81
518.329	45431.29
518.531	45541.88
518.733	46186.99
518.935	46615.01
519.136	46524.9
519.338	46989.79
519.54	47069.66
519.742	48101.84
519.944	47706.58
520.146	48734.66
520.348	48908.74
520.55	49115.58
520.752	49279.42
520.954	50006.45
521.155	49605.05
521.357	50354.6
521.559	50968.99
521.761	51427.74
521.963	51368.35
522.164	51861.91
522.366	52089.23
522.568	52183.44
522.77	52414.86
522.971	52976
523.173	52912.52
523.375	53246.33
523.576	53569.91
523.778	53649.78
523.98	54053.23
524.181	54399.34
524.383	54686.06
524.584	54866.28
524.786	55347.55
524.988	54741.35
525.189	55943.51
525.391	55839.06
525.592	56322.38
525.794	56639.82
525.995	56762.7
526.197	56717.64
526.398	56523.08
526.6	56953.16
526.801	57020.74
527.003	57399.61
527.204	57409.85
527.406	58104.12
527.607	57878.84
527.808	58239.28
528.01	57551.16
528.211	58173.75
528.412	58759.47
528.614	58980.65
528.815	58722.6
529.016	59154.72
529.218	59218.21
529.419	59242.79
529.62	59541.79
529.822	58960.17
530.023	59201.83
530.224	59275.55
530.425	59457.82
530.626	59068.71
530.828	59169.06
531.029	60295.44
531.23	59633.95
531.431	59912.47
531.632	60051.73
531.833	60074.26
532.035	60340.5
532.236	60455.18
532.437	60541.2
532.638	60479.76
532.839	60156.18
533.04	60621.07
533.241	60021.01
533.442	61069.57
533.643	60729.61
533.844	60348.69
534.045	60614.93
534.246	60221.72
534.447	61083.91
534.648	60610.83
534.849	60899.59
535.05	60307.73
535.251	60883.21
535.451	60475.66
535.652	60901.64
535.853	60627.21
536.054	60780.81
536.255	60866.83
536.456	60524.82
536.657	61546.75
536.857	60614.93
537.058	60807.43
537.259	60926.22
537.46	60641.55
537.66	60856.59
537.861	61364.48
538.062	60471.57
538.263	60637.45
538.463	60289.3
538.664	60754.19
538.865	60717.32
539.065	61049.1
539.266	60139.8
539.466	61143.3
539.667	60229.91
539.868	61116.68
540.068	60864.78
540.269	60713.23
540.469	60850.44
540.67	60676.36
540.87	60553.49
541.071	60277.01
541.271	60823.82
541.472	60686.6
541.672	60444.94
541.873	60778.76
542.073	59650.33
542.274	60922.12
542.474	60115.22
542.675	60336.4
542.875	60573.97
543.075	60446.99
543.276	59810.07
543.476	60416.27
543.676	60514.58
543.877	60168.47
544.077	60530.96
544.277	60508.43
544.478	60217.62
544.678	60569.87
544.878	60078.36
545.078	60414.22
545.279	59762.97
545.479	60299.54
545.679	60823.82
545.879	60266.77
546.079	60197.14
546.28	59986.2
546.48	59638.04
546.68	60434.7
546.88	59853.08
547.08	60455.18
547.28	59840.79
547.48	59869.47
547.68	59859.23
547.88	59660.57
548.081	60545.29
548.281	59787.55
548.481	59566.37
548.681	60299.54
548.881	59758.87
549.081	60213.52
549.28	59277.6
549.48	60168.47
549.68	59613.47
549.88	60840.2
550.08	60076.31
550.28	60209.43
550.48	59660.57
550.68	60111.13
550.88	59425.06
551.08	59769.11
551.279	59812.12
551.479	59615.52
551.679	59767.07
551.879	59519.26
552.079	59711.77
552.278	59439.39
552.478	59805.98
552.678	59736.35
552.878	59824.41
553.077	59253.03
553.277	59046.18
553.477	60283.15
553.676	59427.1
553.876	59713.82
554.076	59136.29
554.275	59322.66
554.475	58624.3
554.674	59279.65
554.874	59156.77
555.074	58886.44
555.273	59025.7
555.473	59306.27
555.672	58499.37
555.872	59293.99
556.071	58810.67
556.271	58951.98
556.47	58773.8
556.67	58421.55
556.869	58790.19
557.068	58714.41
557.268	58431.79
557.467	58882.34
557.667	58505.52
557.866	58800.43
558.065	58693.93
558.265	58341.68
558.464	57973.05
558.663	58865.96
558.863	57528.64
559.062	58734.89
559.261	58091.83
559.461	58528.05
559.66	57499.97
559.859	57616.7
560.058	57334.08
560.258	58202.42
560.457	57334.08
560.656	58186.03
560.855	57637.18
561.054	57868.6
561.253	57606.46
561.453	57338.18
561.652	57340.22
561.851	57930.04
562.05	56957.25
562.249	57037.12
562.448	57123.14
562.647	57329.98
562.846	57170.24
563.045	57008.45
563.244	56414.54
563.443	57172.29
563.642	56260.94
563.841	56537.42
564.04	56572.24
564.239	56908.1
564.438	56551.76
564.637	56729.93
564.836	56226.13
565.035	55972.18
565.234	56238.42
565.432	55812.44
565.631	55830.87
565.83	55886.17
566.029	55230.82
566.228	55374.17
566.427	55144.8
566.625	55116.13
566.824	54741.35
567.023	55245.15
567.222	54337.9
567.42	55474.52
567.619	55368.03
567.818	54317.42
568.016	54428.01
568.215	55044.45
568.414	54645.1
568.612	55077.22
568.811	54106.48
569.01	54157.68
569.208	53711.22
569.407	54149.49
569.605	53428.6
569.804	54307.18
570.002	53293.44
570.201	54129.01
570.4	53320.06
570.598	53459.32
570.797	53338.49
570.995	53217.66
571.193	52894.08
571.392	53764.47
571.59	52615.56
571.789	52707.72
571.987	52605.32
572.186	52214.16
572.384	52111.76
572.582	52371.85
572.781	52486.54
572.979	52033.94
573.177	52158.86
573.376	52019.6
573.574	51421.59
573.772	52152.72
573.971	51829.14
574.169	51620.25
574.367	51292.57
574.565	51569.05
574.763	50981.28
574.962	51042.72
575.16	50459.05
575.358	50796.96
575.556	50229.68
575.754	51100.06
575.952	50448.81
576.151	50968.99
576.349	50114.99
576.547	50495.91
576.745	50389.42
576.943	50389.42
577.141	49920.43
577.339	49930.67
577.537	49390.01
577.735	49662.39
577.933	49377.72
578.131	49471.93
578.329	49117.63
578.527	49142.2
578.725	48570.82
578.923	49512.89
579.121	48703.94
579.319	48572.87
579.516	48880.06
579.714	48802.24
579.912	48357.83
580.11	48275.91
580.308	48200.14
580.506	47983.05
580.704	47409.62
580.901	48241.1
581.099	48101.84
581.297	47471.06
581.495	47417.82
581.692	47622.61
581.89	47331.8
582.088	47487.45
582.285	46905.82
582.483	47405.53
582.681	46916.06
582.878	46791.14
583.076	46375.4
583.274	47133.15
583.471	46266.86
583.669	46377.45
583.866	46008.81
584.064	46361.06
584.262	45208.06
584.459	46383.59
584.657	45496.82
584.854	45824.5
585.052	44802.56
585.249	45595.12
585.447	45607.41
585.644	45150.71
585.841	45122.04
586.039	45644.27
586.236	45007.36
586.434	44321.29
586.631	44646.91
586.828	44278.28
587.026	44546.56
587.223	44390.92
587.42	44124.68
587.618	44409.35
587.815	43667.98
588.012	43833.87
588.21	43481.62
588.407	43985.42
588.604	43610.64
588.801	43151.9
588.999	43287.06
589.196	43178.52
589.393	43178.52
589.59	43377.17
589.787	42660.38
589.984	42781.21
590.182	42197.54
590.379	42719.77
590.576	42439.2
590.773	42322.47
590.97	42136.1
591.167	42340.9
591.364	41435.7
591.561	41835.05
591.758	41693.74
591.955	41804.33
592.152	41939.5
592.349	41343.54
592.546	41364.02
592.743	41572.91
592.94	40610.37
593.137	41134.65
593.334	41273.91
593.531	40436.29
593.727	40596.03
593.924	40458.82
594.121	40380.99
594.318	40475.2
594.515	40163.91
594.712	40147.53
594.908	39807.56
595.105	40292.93
595.302	39397.97
595.499	40075.85
595.696	39524.94
595.892	39397.97
596.089	39680.59
596.286	39502.42
596.482	38982.23
596.679	39148.12
596.876	39539.28
597.072	38550.11
597.269	38896.22
597.466	38496.86
597.662	37931.62
597.859	38349.41
598.055	38591.07
598.252	38562.4
598.448	37964.39
598.645	37923.43
598.841	37665.39
599.038	37720.68
599.234	37868.14
599.431	37288.56
599.627	37231.22
599.824	37315.19
600.02	37196.4
600.217	37182.07
600.413	37223.03
600.609	37059.19
600.806	36700.79
601.002	36930.17
601.198	36643.45
601.395	36346.5
601.591	36233.86
601.787	36764.28
601.984	35795.59
602.18	36473.47
602.376	35986.05
602.572	36194.95
602.769	35607.18
602.965	35674.76
603.161	35500.68
603.357	35408.53
603.553	35101.33
603.75	35342.99
603.946	34921.11
604.142	35314.32
604.338	34769.56
604.534	35117.71
604.73	34364.06
604.926	34390.69
605.122	34443.93
605.318	34370.21
605.514	34278.05
605.71	34146.98
605.906	34128.55
606.102	34556.57
606.298	34300.58
606.494	34120.35
606.69	34280.1
606.886	34063.01
607.082	33872.55
607.278	33673.9
607.474	33362.61
607.67	33880.74
607.866	33137.33
608.062	33954.47
608.257	33141.42
608.453	33211.06
608.649	33381.04
608.845	32856.76
609.041	33428.14
609.236	32758.45
609.432	32666.3
609.628	32762.55
609.824	32586.43
610.019	32633.53
610.215	32557.75
610.411	32944.82
610.606	32737.98
610.802	32471.74
610.998	32611
611.193	32670.39
611.389	32264.89
611.584	32410.3
611.78	31863.49
611.976	32375.48
612.171	32273.09
612.367	32191.17
612.562	31689.42
612.758	31683.27
612.953	31392.46
613.149	31861.44
613.344	31533.77
613.539	32101.06
613.735	31662.79
613.93	31851.2
614.126	31501
614.321	31793.86
614.517	31439.56
614.712	31544.01
614.907	31429.32
615.103	31691.46
615.298	31017.68
615.493	31673.03
615.688	30763.73
615.884	31642.31
616.079	30896.85
616.274	30976.72
616.47	31056.59
616.665	31060.69
616.86	30905.04
617.055	30884.56
617.25	30716.63
617.445	31009.49
617.641	30319.32
617.836	30870.23
618.031	29774.56
618.226	30530.26
618.421	30001.89
618.616	30399.19
618.811	29797.09
619.006	30331.61
619.201	29786.85
619.396	29745.89
619.591	29393.64
619.786	29684.45
619.981	29317.87
620.176	29543.14
620.371	28883.7
620.566	29594.34
620.761	29145.84
620.956	29160.17
621.151	28408.57
621.346	28566.26
621.541	28297.98
621.735	28678.9
621.93	28113.66
622.125	28345.08
622.32	27826.95
622.515	28109.57
622.709	27671.3
622.904	27931.39
623.099	27552.52
623.294	27687.68
623.488	27007.76
623.683	27149.07
623.878	26827.54
624.072	26776.34
624.267	26624.79
624.462	26700.56
624.656	26432.28
624.851	26393.37
625.046	26061.6
625.24	26157.85
625.435	25871.14
625.629	25897.76
625.824	25701.15
626.018	25553.7
626.213	25066.28
626.407	25412.39
626.602	24732.47
626.796	25072.43
626.991	24918.83
627.185	24759.09
627.38	24701.75
627.574	24591.16
627.768	24126.27
627.963	24163.13
628.157	23993.15
628.352	24247.1
628.546	23309.13
628.74	23669.57
628.935	23593.79
629.129	23526.21
629.323	23327.56
629.517	23188.3
629.712	23141.19
629.906	22897.49
630.1	22496.08
630.294	22995.79
630.489	22494.04
630.683	22623.06
630.877	22131.54
631.071	21984.09
631.265	22414.16
631.459	22166.36
631.653	22152.02
631.848	21986.14
632.042	22018.91
632.236	21994.33
632.43	21551.97
632.624	21777.25
632.818	21095.27
633.012	21427.04
633.206	21183.34
633.4	21275.49
633.594	20896.62
633.788	21039.98
633.982	21023.59
634.176	20730.73
634.369	20640.62
634.563	20358
634.757	20403.06
634.951	20315
635.145	20220.79
635.339	20407.16
635.533	19995.51
635.726	19975.03
635.92	19729.28
636.114	19698.56
636.308	19659.65
636.501	19778.43
636.695	19381.12
636.889	19090.31
637.083	19399.55
637.276	18887.56
637.47	18772.88
637.664	18996.1
637.857	18731.92
638.051	18946.95
638.244	18461.58
638.438	18516.88
638.632	18504.59
638.825	18332.56
639.019	18508.69
639.212	18297.75
639.406	18144.15
639.599	18174.87
639.793	18072.47
639.986	17898.39
640.18	17574.81
640.373	17546.14
640.567	17357.73
640.76	17595.29
640.954	16997.29
641.147	17335.2
641.34	17363.87
641.534	17183.65
641.727	16985
641.92	16901.03
642.114	16839.59
642.307	16864.17
642.5	16350.13
642.694	16479.15
642.887	16522.16
643.08	16423.86
643.273	16546.73
643.467	16303.03
643.66	16157.62
643.853	16083.89
644.046	15778.75
644.239	15793.08
644.432	16149.43
644.626	15852.47
644.819	15590.33
645.012	15586.24
645.205	15657.92
645.398	15535.04
645.591	15371.2
645.784	15299.52
645.977	15344.58
646.17	15252.42
646.363	15172.55
646.556	14820.3
646.749	14961.61
646.942	15023.05
647.135	14662.6
647.328	14848.97
647.521	14664.65
647.714	14371.79
647.907	14545.87
648.099	14625.74
648.292	14472.14
648.485	14539.72
648.678	14226.39
648.871	14455.76
649.064	13935.57
649.256	14261.2
649.449	13886.42
649.642	13894.61
649.835	13781.98
650.027	13900.76
650.22	13507.55
650.413	13603.8
650.605	13554.65
650.798	13548.51
650.991	13276.13
651.183	13534.17
651.376	13226.98
651.568	13401.05
651.761	13134.82
651.954	13044.71
652.146	12841.96
652.339	12706.79
652.531	12569.58
652.724	12784.62
652.916	12678.12
653.109	12706.79
653.301	12305.39
653.494	12583.91
653.686	12364.78
653.879	12420.08
654.071	12321.77
654.263	12198.9
654.456	12325.87
654.648	12200.94
654.84	12084.21
655.033	11828.21
655.225	11947
655.417	12067.83
655.61	12022.77
655.802	11842.55
655.994	11707.38
656.186	11711.48
656.379	11670.52
656.571	11637.75
656.763	11385.85
656.955	11357.18
657.148	11410.43
657.34	11551.74
657.532	11293.69
657.724	11334.65
657.916	11402.24
658.108	11021.31
658.3	10914.82
658.492	11009.03
658.684	10759.17
658.876	10693.64
659.068	10812.42
659.26	10793.99
659.452	10806.28
659.644	10744.84
659.836	10449.93
660.028	10537.99
660.22	10282
660.412	10494.99
660.604	10396.68
660.796	10413.07
660.988	10388.49
661.18	10152.98
661.372	10073.1
661.563	10306.57
661.755	10066.96
661.947	10171.41
662.139	10118.16
662.331	9964.56
662.522	9772.05
662.714	9847.83
662.906	9724.95
663.097	9800.73
663.289	9681.94
663.481	9745.43
663.673	9667.61
663.864	9532.44
664.056	9425.95
664.247	9526.3
664.439	9337.88
664.631	9243.68
664.822	9427.99
665.014	9192.48
665.205	9335.84
665.397	9208.86
665.588	9114.66
665.78	9008.16
665.971	9237.53
666.163	9149.47
666.354	9042.98
666.546	8895.52
666.737	8817.7
666.929	8875.04
667.12	8774.69
667.311	8729.64
667.503	8582.18
667.694	8709.16
667.885	8512.55
668.077	8690.73
668.268	8444.97
668.459	8580.14
668.651	8516.65
668.842	8457.26
669.033	8270.89
669.224	8160.3
669.416	8352.81
669.607	8227.89
669.798	8137.77
669.989	8231.98
670.18	8035.38
670.371	8225.84
670.563	8197.17
670.754	7918.64
670.945	7791.67
671.136	8023.09
671.327	7955.51
671.518	7824.44
671.709	7904.31
671.9	7887.92
672.091	7779.38
672.282	7849.01
672.473	7732.28
672.664	7906.35
672.855	7648.31
673.046	7699.51
673.237	7664.69
673.428	7642.17
673.619	7599.16
673.809	7404.6
674	7343.16
674.191	7488.57
674.382	7416.89
674.573	7337.02
674.764	7201.85
674.954	7498.81
675.145	7218.24
675.336	7130.17
675.527	7156.8
675.717	7226.43
675.908	7275.58
676.099	7195.71
676.289	7230.52
676.48	7031.87
676.671	6956.1
676.861	7023.68
677.052	7005.25
677.243	6679.62
677.433	6786.12
677.624	7050.3
677.814	6956.1
678.005	7076.93
678.195	6743.11
678.386	6859.84
678.576	6628.42
678.767	6753.35
678.957	6841.41
679.148	6640.71
679.338	6763.59
679.529	6663.24
679.719	6640.71
679.909	6675.52
680.1	6595.65
680.29	6657.09
680.481	6628.42
680.671	6476.87
680.861	6227.02
681.052	6483.02
681.242	6386.76
681.432	6603.85
681.622	6425.67
681.813	6550.6
682.003	6296.65
682.193	6214.73
682.383	6282.31
682.573	6087.76
682.764	6337.61
682.954	6237.26
683.144	6128.72
683.334	6257.74
683.524	6118.48
683.714	6128.72
683.904	6257.74
684.094	6192.2
684.284	6208.59
684.474	6245.45
684.664	6100.05
684.854	6126.67
685.044	5936.21
685.234	5864.53
685.424	5919.82
685.614	5942.35
685.804	5891.15
685.994	6079.57
686.184	5983.31
686.374	5903.44
686.564	5796.95
686.753	5839.95
686.943	5622.87
687.133	5829.71
687.323	5626.96
687.513	5782.61
687.702	5614.68
687.892	5751.89
688.082	5700.69
688.272	5747.79
688.461	5573.72
688.651	5737.56
688.841	5688.4
689.03	5469.27
689.22	5526.61
689.41	5325.91
689.599	5352.54
689.789	5444.7
689.979	5456.98
690.168	5383.26
690.358	5364.82
690.547	5428.31
690.737	5305.43
690.926	5217.37
691.116	5125.21
691.305	5327.96
691.495	5260.38
691.684	5221.47
691.874	5200.99
692.063	5227.61
692.252	5172.32
692.442	5188.7
692.631	5119.07
692.82	5088.35
693.01	4916.32
693.199	4854.88
693.388	5006.43
693.578	5065.82
693.767	4947.04
693.956	4955.23
694.146	4822.11
694.335	4846.69
694.524	4983.9
694.713	4811.87
694.902	4701.28
695.092	4920.42
695.281	4793.44
695.47	4832.35
695.659	4777.06
695.848	4772.96
696.037	4695.14
696.226	4699.23
696.415	4750.43
696.604	4815.97
696.793	4631.65
696.982	4625.51
697.171	4521.06
697.36	4748.39
697.549	4637.8
697.738	4451.43
697.927	4564.07
698.116	4617.32
698.305	4516.97
698.494	4453.48
698.683	4562.02
698.872	4633.7
699.061	4717.67
699.25	4478.05
699.438	4564.07
699.627	4568.16
699.816	4705.38
700.005	4516.97
700.193	4404.33
700.382	4615.27
700.571	4461.67
700.76	4469.86
700.948	4586.6
701.137	4435.05
701.326	4453.48
701.514	4467.81
701.703	4306.02
701.892	4303.98
702.08	4453.48
702.269	4387.94
702.457	4367.46
702.646	4267.11
702.834	4324.46
703.023	4406.38
703.212	4355.18
703.4	4228.2
703.589	4224.11
703.777	4238.44
703.965	4090.99
704.154	4205.67
704.342	4344.94
704.531	4318.31
704.719	4273.26
704.907	4281.45
705.096	4119.66
705.284	4203.63
705.472	4281.45
705.661	4312.17
705.849	4371.56
706.037	4140.14
706.226	4152.43
706.414	4183.15
706.602	4148.33
706.79	4164.72
706.979	4146.28
707.167	4084.84
707.355	4023.41
707.543	4127.85
707.731	4197.48
707.919	4050.03
708.107	4099.18
708.296	4168.81
708.484	4119.66
708.672	4150.38
708.86	4060.27
709.048	4004.97
709.236	3941.49
709.424	4172.91
709.612	4070.51
709.8	4093.04
709.988	3884.14
710.176	3914.86
710.364	3961.97
710.551	4037.74
710.739	3937.39
710.927	3748.98
711.115	3912.81
711.303	3908.72
711.491	3863.66
711.679	3966.06
711.866	3765.36
712.054	3961.97
712.242	3871.86
712.43	3892.34
712.617	3923.05
712.805	3839.09
712.993	3761.27
713.181	3845.23
713.368	3810.42
713.556	3964.01
713.744	3865.71
713.931	3878
714.119	3787.89
714.306	3769.46
714.494	3830.9
714.682	3955.82
714.869	3775.6
715.057	3841.14
715.244	3787.89
715.432	3843.18
715.619	3695.73
715.807	3843.18
715.994	3703.92
716.182	3720.31
716.369	3744.88
716.556	3597.43
716.744	3755.12
716.931	3796.08
717.119	3646.58
717.306	3726.45
717.493	3634.29
717.681	3654.77
717.868	3654.77
718.055	3763.31
718.242	3626.1
718.43	3597.43
718.617	3609.72
718.804	3562.61
718.991	3710.07
719.179	3730.55
719.366	3667.06
719.553	3613.81
719.74	3607.67
719.927	3581.04
720.114	3679.35
720.301	3656.82
720.488	3466.36
720.676	3603.57
720.863	3572.85
721.05	3581.04
721.237	3511.41
721.424	3552.37
721.611	3429.49
721.798	3396.73
721.985	3396.73
722.172	3548.28
722.358	3548.28
722.545	3421.3
722.732	3492.98
722.919	3464.31
723.106	3490.93
723.293	3411.06
723.48	3413.11
723.667	3417.21
723.853	3363.96
724.04	3380.34
724.227	3413.11
724.414	3415.16
724.6	3386.49
724.787	3394.68
724.974	3495.03
725.161	3298.42
725.347	3376.25
725.534	3437.69
725.72	3386.49
725.907	3361.91
726.094	3282.04
726.28	3361.91
726.467	3171.45
726.653	3351.67
726.84	3396.73
727.027	3413.11
727.213	3187.83
727.4	3331.19
727.586	3284.09
727.773	3331.19
727.959	3302.52
728.145	3417.21
728.332	3343.48
728.518	3366.01
728.705	3294.33
728.891	3224.7
729.077	3269.75
729.264	3429.49
729.45	3398.77
729.636	3294.33
729.823	3255.42
730.009	3411.06
730.195	3241.08
730.382	3267.7
730.568	3255.42
730.754	3204.22
730.94	3216.51
731.126	3263.61
731.313	3269.75
731.499	3290.23
731.685	3210.36
731.871	3261.56
732.057	3114.11
732.243	3095.68
732.429	3163.26
732.615	3228.79
732.801	3124.35
732.987	3224.7
733.173	3146.87
733.359	3263.61
733.545	3196.03
733.731	3148.92
733.917	3044.48
734.103	3212.41
734.289	3187.83
734.475	3183.74
734.661	3226.75
734.847	3140.73
735.033	3157.11
735.219	2991.23
735.404	3089.53
735.59	3183.74
735.776	3187.83
735.962	3099.77
736.148	3085.44
736.333	3069.05
736.519	3064.96
736.705	3153.02
736.89	3093.63
737.076	3056.76
737.262	3155.07
737.447	2974.85
737.633	3005.56
737.819	3126.39
738.004	2915.45
738.19	3101.82
738.375	3017.85
738.561	2999.42
738.747	2903.17
738.932	2976.89
739.118	3062.91
739.303	2919.55
739.489	2923.65
739.674	2847.87
739.859	2995.32
740.045	3005.56
740.23	2815.1
740.416	2878.59
740.601	2851.97
740.786	2839.68
740.972	2780.29
741.157	2905.21
741.342	2804.86
741.528	2829.44
741.713	2966.65
741.898	2772.1
742.084	2788.48
742.269	2815.1
742.454	2782.34
742.639	2700.42
742.824	2636.93
743.01	2841.73
743.195	2794.62
743.38	2757.76
743.565	2755.71
743.75	2661.51
743.935	2753.66
744.12	2604.16
744.305	2696.32
744.49	2573.44
744.675	2520.2
744.86	2618.5
745.045	2645.12
745.23	2585.73
745.415	2630.79
745.6	2636.93
745.785	2479.24
745.97	2661.51
746.155	2516.1
746.34	2528.39
746.525	2507.91
746.71	2534.53
746.895	2516.1
747.079	2479.24
747.264	2544.77
747.449	2421.89
747.634	2397.32
747.819	2481.28
748.003	2294.92
748.188	2309.26
748.373	2323.59
748.557	2364.55
748.742	2354.31
748.927	2391.17
749.111	2256.01
749.296	2303.11
749.481	2325.64
749.665	2354.31
749.85	2247.82
750.034	2114.7
750.219	2391.17
750.404	2272.39
750.588	2188.43
750.773	2176.14
750.957	2225.29
751.141	2124.94
751.326	2225.29
751.51	2100.36
751.695	2137.23
751.879	2036.88
752.064	2106.51
752.248	2114.7
752.432	2186.38
752.617	1995.92
752.801	2010.25
752.985	2045.07
753.17	1883.28
753.354	2051.21
753.538	2067.6
753.722	1866.89
753.907	2038.92
754.091	1914
754.275	1889.42
754.459	1969.29
754.643	1887.37
754.828	2016.4
755.012	1852.56
755.196	1813.65
755.38	1862.8
755.564	1883.28
755.748	1952.91
755.932	1787.02
756.116	1846.41
756.3	1823.89
756.484	1762.45
756.668	1883.28
756.852	1760.4
757.036	1758.35
757.22	1750.16
757.404	1813.65
757.588	1709.2
757.772	1772.69
757.956	1631.38
758.14	1737.87
758.323	1698.96
758.507	1717.39
758.691	1682.58
758.875	1655.95
759.059	1571.99
759.242	1664.15
759.426	1561.75
759.61	1586.32
759.794	1559.7
759.977	1559.7
760.161	1580.18
760.345	1549.46
760.528	1658
760.712	1655.95
760.895	1651.86
761.079	1596.56
761.263	1574.03
761.446	1469.59
761.63	1543.32
761.813	1600.66
761.997	1422.48
762.18	1438.87
762.364	1539.22
762.547	1397.91
762.731	1512.6
762.914	1479.83
763.098	1385.62
763.281	1459.35
763.464	1430.68
763.648	1479.83
763.831	1440.92
764.015	1365.14
764.198	1381.53
764.381	1297.56
764.564	1402.01
764.748	1365.14
764.931	1348.76
765.114	1379.48
765.297	1432.72
765.481	1277.08
765.664	1354.9
765.847	1447.06
766.03	1315.99
766.213	1277.08
766.397	1367.19
766.58	1340.57
766.763	1352.85
766.946	1332.37
767.129	1285.27
767.312	1359
767.495	1299.61
767.678	1303.7
767.861	1275.03
768.044	1270.94
768.227	1279.13
768.41	1254.55
768.593	1291.41
768.776	1260.7
768.959	1221.78
769.142	1361.05
769.324	1152.15
769.507	1275.03
769.69	1209.5
769.873	1172.63
770.056	1217.69
770.239	1275.03
770.421	1158.3
770.604	1225.88
770.787	1105.05
770.97	1178.78
771.152	1252.5
771.335	1180.82
771.518	1127.58
771.7	1225.88
771.883	1158.3
772.066	1277.08
772.248	1150.11
772.431	1217.69
772.613	1123.48
772.796	1164.44
772.978	1090.71
773.161	1164.44
773.343	1070.23
773.526	1094.81
773.708	992.41
773.891	1074.33
774.073	1029.27
774.256	986.27
774.438	1098.91
774.621	1117.34
774.803	1025.18
774.985	1014.94
775.168	1066.14
775.35	1072.28
775.532	1062.04
775.715	1090.71
775.897	1035.42
776.079	971.93
776.261	965.79
776.444	986.27
776.626	1055.9
776.808	1031.32
776.99	967.84
777.173	849.05
777.355	986.27
777.537	926.88
777.719	924.83
777.901	859.29
778.083	967.84
778.265	838.81
778.447	969.88
778.629	898.2
778.811	892.06
778.993	875.68
779.175	857.25
779.357	812.19
779.539	898.2
779.721	873.63
779.903	752.8
780.085	797.85
780.267	826.53
780.449	832.67
780.631	828.57
780.812	853.15
780.994	771.23
781.176	834.72
781.358	769.18
781.54	779.42
781.721	763.04
781.903	720.03
782.085	773.28
782.267	779.42
782.448	808.09
782.63	804
782.812	677.02
782.993	806.05
783.175	810.14
783.357	765.09
783.538	717.98
783.72	656.54
783.901	658.59
784.083	666.78
784.264	709.79
784.446	711.84
784.627	625.83
784.809	625.83
784.99	640.16
785.172	689.31
785.353	638.11
785.535	693.41
785.716	570.53
785.897	593.06
786.079	674.98
786.26	681.12
786.441	543.91
786.623	623.78
786.804	634.02
786.985	615.59
787.167	660.64
787.348	566.43
787.529	586.91
787.71	570.53
787.891	578.72
788.073	527.52
788.254	548
788.435	535.71
788.616	564.39
788.797	582.82
788.978	613.54
789.159	558.24
789.34	529.57
789.522	545.95
789.703	492.71
789.884	560.29
790.065	439.46
790.246	513.19
790.427	539.81
790.607	509.09
790.788	502.95
790.969	527.52
791.15	558.24
791.331	519.33
791.512	457.89
791.693	554.15
791.874	466.08
792.054	498.85
792.235	484.52
792.416	445.6
792.597	482.47
792.778	445.6
792.958	433.32
793.139	402.6
793.32	511.14
793.5	433.32
793.681	513.19
793.862	457.89
794.042	386.21
794.223	455.84
794.404	488.61
794.584	320.68
794.765	394.4
794.945	447.65
795.126	427.17
795.306	439.46
795.487	425.12
795.667	472.23
795.848	378.02
796.028	451.75
796.209	396.45
796.389	437.41
796.57	369.83
796.75	396.45
796.93	353.45
797.111	351.4
797.291	355.49
797.471	445.6
797.652	433.32
797.832	386.21
798.012	345.25
798.192	402.6
798.373	320.68
798.553	316.58
798.733	400.55
798.913	332.97
799.093	345.25
799.274	330.92
799.454	361.64
799.634	433.32
799.814	347.3
799.994	421.03
800.174	292.01
800.354	322.73
800.534	394.4
800.714	339.11
800.894	378.02
801.074	330.92
801.254	398.5
801.434	359.59
801.614	386.21
801.794	328.87
801.974	650.4
802.154	337.06
802.334	328.87
802.514	373.92
802.693	386.21
802.873	312.49
803.053	306.34
803.233	386.21
803.413	369.83
803.592	347.3
803.772	335.01
803.952	300.2
804.131	318.63
804.311	332.97
804.491	300.2
804.67	267.43
804.85	289.96
805.03	251.05
805.209	306.34
805.389	330.92
805.568	304.29
805.748	308.39
805.928	332.97
806.107	324.77
806.287	283.81
806.466	251.05
806.646	347.3
806.825	296.1
807.004	349.35
807.184	289.96
807.363	404.64
807.543	277.67
807.722	328.87
807.901	332.97
808.081	230.57
808.26	218.28
808.439	322.73
808.619	234.66
808.798	232.62
808.977	234.66
809.156	369.83
809.336	316.58
809.515	249
809.694	201.9
809.873	214.18
810.052	251.05
810.231	332.97
810.411	214.18
810.59	263.33
810.769	216.23
810.948	246.95
811.127	328.87
811.306	261.29
811.485	267.43
811.664	345.25
811.843	249
812.022	285.86
812.201	304.29
812.38	287.91
812.559	218.28
812.737	158.89
812.916	242.85
813.095	259.24
813.274	224.42
813.453	249
813.632	259.24
813.811	224.42
813.989	210.09
814.168	234.66
814.347	183.46
814.526	253.09
814.704	269.48
814.883	193.7
815.062	197.8
815.24	265.38
815.419	187.56
815.598	222.38
815.776	173.22
815.955	230.57
816.133	238.76
816.312	193.7
816.49	128.17
816.669	218.28
816.847	249
817.026	140.46
817.204	234.66
817.383	269.48
817.561	193.7
817.74	279.72
817.918	246.95
818.097	201.9
818.275	95.4
818.453	189.61
818.632	234.66
818.81	214.18
818.988	197.8
819.167	162.98
819.345	234.66
819.523	216.23
819.701	218.28
819.879	173.22
820.058	142.5
820.236	187.56
820.414	189.61
820.592	199.85
820.77	173.22
820.948	97.45
821.127	195.75
821.305	246.95
821.483	269.48
821.661	199.85
821.839	195.75
822.017	150.7
822.195	185.51
822.373	165.03
822.551	117.93
822.729	214.18
822.907	144.55
823.085	187.56
823.262	150.7
823.44	195.75
823.618	160.94
823.796	89.26
823.974	191.66
824.152	107.69
824.329	89.26
824.507	226.47
824.685	130.22
824.863	195.75
825.04	154.79
825.218	130.22
825.396	95.4
825.574	175.27
825.751	154.79
825.929	193.7
826.107	113.83
826.284	189.61
826.462	144.55
826.639	167.08
826.817	74.92
826.994	128.17
827.172	105.64
827.349	150.7
827.527	199.85
827.704	158.89
827.882	103.59
828.059	105.64
828.237	111.78
828.414	165.03
828.591	134.31
828.769	158.89
828.946	113.83
829.124	205.99
829.301	162.98
829.478	126.12
829.655	122.02
829.833	83.11
830.01	99.5
830.187	162.98
830.364	132.26
830.542	130.22
830.719	169.13
830.896	187.56
831.073	214.18
831.25	117.93
831.427	146.6
831.604	124.07
831.782	85.16
831.959	136.36
832.136	89.26
832.313	107.69
832.49	48.3
832.667	255.14
832.844	105.64
833.021	138.41
833.198	175.27
833.374	124.07
833.551	93.35
833.728	50.35
833.905	146.6
834.082	136.36
834.259	162.98
834.436	144.55
834.612	146.6
834.789	138.41
834.966	132.26
835.143	167.08
835.319	113.83
835.496	132.26
835.673	156.84
835.85	107.69
836.026	111.78
836.203	107.69
836.38	99.5
836.556	89.26
836.733	68.78
836.909	66.73
837.086	81.07
837.262	81.07
837.439	128.17
837.616	134.31
837.792	46.25
837.968	117.93
838.145	42.15
838.321	91.31
838.498	150.7
838.674	132.26
838.851	44.2
839.027	44.2
839.203	105.64
839.38	48.3
839.556	160.94
839.732	107.69
839.909	68.78
840.085	76.97
840.261	74.92
840.437	83.11
840.614	134.31
840.79	70.83
840.966	126.12
841.142	76.97
841.318	5.29
841.494	156.84
841.671	70.83
841.847	134.31
842.023	70.83
842.199	119.98
842.375	85.16
842.551	83.11
842.727	33.96
842.903	152.74
843.079	117.93
843.255	79.02
843.431	85.16
843.607	101.55
843.783	56.49
843.959	103.59
844.134	52.39
844.31	107.69
844.486	128.17
844.662	70.83
844.838	124.07
845.013	33.96
845.189	97.45
845.365	76.97
845.541	50.35
845.716	109.74
845.892	107.69
846.068	68.78
846.244	60.59
846.419	111.78
846.595	42.15
846.77	42.15
846.946	70.83
847.122	101.55
847.297	48.3
847.473	117.93
847.648	136.36
847.824	97.45
847.999	-27.48
848.175	89.26
848.35	93.35
848.526	79.02
848.701	113.83
848.876	144.55
849.052	56.49
849.227	56.49
849.403	103.59
849.578	115.88
849.753	117.93
849.929	81.07
850.104	13.48
850.279	89.26
850.454	7.34
850.63	144.55
850.805	103.59
850.98	105.64
851.155	19.63
851.33	150.7
851.505	66.73
851.681	85.16
851.856	105.64
852.031	122.02
852.206	-2.9
852.381	103.59
852.556	27.82
852.731	31.91
852.906	91.31
853.081	140.46
853.256	115.88
853.431	113.83
853.606	56.49
853.781	46.25
853.956	38.06
854.131	58.54
854.305	23.72
854.48	60.59
854.655	42.15
854.83	58.54
855.005	-13.14
855.18	-2.9
855.354	54.44
855.529	97.45
855.704	42.15
855.879	48.3
856.053	38.06
856.228	13.48
856.403	38.06
856.577	17.58
856.752	17.58
856.926	76.97
857.101	81.07
857.276	46.25
857.45	33.96
857.625	134.31
857.799	56.49
857.974	25.77
858.148	81.07
858.323	33.96
858.497	103.59
858.672	33.96
858.846	11.43
859.02	58.54
859.195	74.92
859.369	91.31
859.543	101.55
859.718	74.92
859.892	64.68
860.066	72.87
860.241	81.07
860.415	62.63
860.589	109.74
860.763	-17.24
860.938	56.49
861.112	76.97
861.286	44.2
861.46	76.97
861.634	21.67
861.808	46.25
861.982	33.96
862.157	79.02
862.331	-0.85
862.505	95.4
862.679	64.68
862.853	140.46
863.027	54.44
863.201	93.35
863.375	27.82
863.549	70.83
863.722	62.63
863.896	25.77
864.07	-4.95
864.244	95.4
864.418	117.93
864.592	99.5
864.766	5.29
864.939	52.39
865.113	91.31
865.287	74.92
865.461	54.44
865.634	62.63
865.808	-56.15
865.982	83.11
866.156	64.68
866.329	-15.19
866.503	17.58
866.676	70.83
866.85	72.87
867.024	62.63
867.197	42.15
867.371	119.98
867.544	-2.9
867.718	25.77
867.891	29.87
868.065	13.48
868.238	27.82
868.412	130.22
868.585	42.15
868.759	70.83
868.932	74.92
869.105	42.15
869.279	72.87
869.452	79.02
869.625	36.01
869.799	23.72
869.972	-33.62
870.145	91.31
870.319	91.31
870.492	21.67
870.665	-27.48
870.838	9.39
871.011	52.39
871.185	42.15
871.358	7.34
871.531	58.54
871.704	9.39
871.877	87.21
872.05	-23.38
872.223	-13.14
872.396	-29.52
872.569	29.87
872.742	44.2
872.915	46.25
873.088	1.19
873.261	40.11
873.434	-27.48
873.607	74.92
873.78	25.77
873.953	27.82
874.126	-17.24
874.299	54.44
874.471	29.87
874.644	76.97
874.817	62.63
874.99	-11.09
875.163	95.4
875.335	36.01
875.508	56.49
875.681	72.87
875.853	-11.09
876.026	-66.39
876.199	31.91
876.371	122.02
876.544	17.58
876.717	31.91
876.889	-39.76
877.062	29.87
877.234	-0.85
877.407	42.15
877.579	7.34
877.752	87.21
877.924	70.83
878.097	79.02
878.269	70.83
878.442	50.35
878.614	-9.05
878.786	54.44
878.959	62.63
879.131	33.96
879.303	-15.19
879.476	-4.95
879.648	29.87
879.82	56.49
879.993	15.53
880.165	-23.38
880.337	58.54
880.509	-0.85
880.681	21.67
880.854	36.01
881.026	25.77
881.198	79.02
881.37	27.82
881.542	58.54
881.714	25.77
881.886	9.39
882.058	122.02
882.23	-7
882.402	19.63
882.574	-19.29
882.746	5.29
882.918	107.69
883.09	40.11
883.262	13.48
883.434	21.67
883.606	13.48
883.778	-41.81
883.95	11.43
884.122	62.63
884.293	58.54
884.465	42.15
884.637	89.26
884.809	7.34
884.98	60.59
885.152	91.31
885.324	-2.9
885.496	54.44
885.667	29.87
885.839	42.15
886.011	21.67
886.182	111.78
886.354	13.48
886.525	1.19
886.697	19.63
886.869	38.06
887.04	-2.9
887.212	62.63
887.383	107.69
887.555	-27.48
887.726	70.83
887.897	17.58
888.069	44.2
888.24	-27.48
888.412	-13.14
888.583	54.44
888.754	-0.85
888.926	25.77
889.097	25.77
889.268	52.39
889.44	48.3
889.611	58.54
889.782	58.54
889.953	27.82
890.125	74.92
890.296	15.53
890.467	50.35
890.638	-17.24
890.809	15.53
890.98	46.25
891.151	13.48
891.323	113.83
891.494	95.4
891.665	-23.38
891.836	48.3
892.007	27.82
892.178	42.15
892.349	25.77
892.52	52.39
892.691	21.67
892.862	81.07
893.032	-13.14
893.203	-15.19
893.374	21.67
893.545	-0.85
893.716	-68.44
893.887	23.72
894.057	-21.33
894.228	38.06
894.399	5.29
894.57	31.91
894.74	38.06
894.911	42.15
895.082	27.82
895.253	48.3
895.423	-4.95
895.594	54.44
895.764	52.39
895.935	1.19
896.106	54.44
896.276	72.87
896.447	52.39
896.617	52.39
896.788	33.96
896.958	27.82
897.129	113.83
897.299	85.16
897.47	-17.24
897.64	9.39
897.81	5.29
897.981	-21.33
898.151	54.44
898.322	-9.05
898.492	50.35
898.662	50.35
898.832	-35.67
899.003	-15.19
899.173	13.48
899.343	3.24
899.513	23.72
