Data from USB4F104151__47__11-05-36-629.txt Node

Date: Wed Mar 12 11:05:36 EDT 2025
User: louis
Spectrometer: USB4F10415
Trigger mode: 4
Integration Time (sec): 2.000000E-2
Scans to average: 1
Electric dark correction enabled: true
Nonlinearity correction enabled: false
Boxcar width: 0
XAxis mode: Wavelengths
Number of Pixels in Spectrum: 3648
>>>>>Begin Spectral Data<<<<<
178.204	-81.24
178.424	-81.24
178.644	-81.24
178.864	-56.66
179.084	-77.14
179.304	-21.84
179.524	-48.47
179.744	-15.7
179.964	41.64
180.184	17.07
180.404	21.16
180.624	-36.18
180.844	68.27
181.064	-11.61
181.283	-52.56
181.503	31.4
181.723	6.83
181.943	33.45
182.163	23.21
182.383	-44.37
182.602	4.78
182.822	-83.28
183.042	60.07
183.262	-38.23
183.482	-3.41
183.701	-3.41
183.921	-13.65
184.141	-7.51
184.361	6.83
184.58	37.55
184.8	-7.51
185.02	-27.99
185.239	90.79
185.459	17.07
185.679	-11.61
185.898	-75.09
186.118	-13.65
186.338	29.35
186.557	21.16
186.777	6.83
186.997	-17.75
187.216	8.87
187.436	49.83
187.655	60.07
187.875	8.87
188.095	-19.8
188.314	107.18
188.534	78.51
188.753	-1.37
188.973	4.78
189.192	51.88
189.412	35.5
189.631	-15.7
189.851	80.55
190.07	10.92
190.29	-32.08
190.509	15.02
190.729	17.07
190.948	39.59
191.168	92.84
191.387	-5.46
191.607	-11.61
191.826	35.5
192.045	-17.75
192.265	25.26
192.484	-19.8
192.704	-5.46
192.923	-32.08
193.142	74.41
193.362	6.83
193.581	39.59
193.8	-15.7
194.02	47.79
194.239	25.26
194.458	19.11
194.678	10.92
194.897	12.97
195.116	19.11
195.335	49.83
195.555	-32.08
195.774	113.32
195.993	-21.84
196.212	47.79
196.432	-19.8
196.651	55.98
196.87	-27.99
197.089	92.84
197.308	33.45
197.528	-3.41
197.747	70.31
197.966	31.4
198.185	35.5
198.404	-30.04
198.623	-15.7
198.842	78.51
199.062	-23.89
199.281	51.88
199.5	-48.47
199.719	-5.46
199.938	62.12
200.157	98.99
200.376	-11.61
200.595	4.78
200.814	82.6
201.033	-32.08
201.252	0.68
201.471	96.94
201.69	39.59
201.909	39.59
202.128	62.12
202.347	-7.51
202.566	29.35
202.785	10.92
203.004	-5.46
203.223	35.5
203.442	64.17
203.661	-15.7
203.879	23.21
204.098	49.83
204.317	10.92
204.536	17.07
204.755	25.26
204.974	80.55
205.193	72.36
205.411	74.41
205.63	-3.41
205.849	-7.51
206.068	-5.46
206.287	53.93
206.505	84.65
206.724	45.74
206.943	-11.61
207.162	-42.32
207.381	31.4
207.599	-75.09
207.818	45.74
208.037	41.64
208.255	-19.8
208.474	35.5
208.693	-3.41
208.911	58.03
209.13	12.97
209.349	2.73
209.567	98.99
209.786	0.68
210.005	-25.94
210.223	17.07
210.442	-79.19
210.661	39.59
210.879	-60.76
211.098	-1.37
211.316	4.78
211.535	29.35
211.753	-30.04
211.972	-32.08
212.191	-19.8
212.409	-27.99
212.628	-9.56
212.846	45.74
213.065	86.7
213.283	45.74
213.502	-30.04
213.72	-3.41
213.938	-21.84
214.157	12.97
214.375	76.46
214.594	-5.46
214.812	103.08
215.031	-11.61
215.249	64.17
215.467	39.59
215.686	-13.65
215.904	70.31
216.122	-30.04
216.341	8.87
216.559	12.97
216.778	33.45
216.996	66.22
217.214	17.07
217.432	-11.61
217.651	-73.04
217.869	-21.84
218.087	-21.84
218.306	-15.7
218.524	19.11
218.742	-62.8
218.96	-27.99
219.179	51.88
219.397	66.22
219.615	150.18
219.833	19.11
220.051	-50.52
220.27	-15.7
220.488	-36.18
220.706	15.02
220.924	6.83
221.142	107.18
221.36	-27.99
221.578	21.16
221.796	64.17
222.015	37.55
222.233	4.78
222.451	82.6
222.669	-36.18
222.887	-60.76
223.105	25.26
223.323	17.07
223.541	8.87
223.759	-9.56
223.977	45.74
224.195	-3.41
224.413	23.21
224.631	47.79
224.849	-64.85
225.067	25.26
225.285	35.5
225.503	35.5
225.721	-71
225.939	12.97
226.157	2.73
226.375	58.03
226.592	8.87
226.81	62.12
227.028	-36.18
227.246	12.97
227.464	29.35
227.682	64.17
227.9	-21.84
228.117	39.59
228.335	-9.56
228.553	60.07
228.771	6.83
228.989	-27.99
229.206	60.07
229.424	4.78
229.642	37.55
229.86	-34.13
230.077	-17.75
230.295	-17.75
230.513	82.6
230.731	41.64
230.948	12.97
231.166	80.55
231.384	33.45
231.601	37.55
231.819	70.31
232.037	25.26
232.254	17.07
232.472	12.97
232.689	12.97
232.907	72.36
233.125	49.83
233.342	10.92
233.56	23.21
233.777	29.35
233.995	-15.7
234.213	-25.94
234.43	37.55
234.648	12.97
234.865	12.97
235.083	64.17
235.3	8.87
235.518	23.21
235.735	6.83
235.953	60.07
236.17	-15.7
236.388	58.03
236.605	-3.41
236.822	80.55
237.04	45.74
237.257	4.78
237.475	-7.51
237.692	31.4
237.909	-71
238.127	6.83
238.344	-11.61
238.562	23.21
238.779	55.98
238.996	-27.99
239.214	101.03
239.431	53.93
239.648	25.26
239.865	8.87
240.083	23.21
240.3	-23.89
240.517	82.6
240.735	21.16
240.952	45.74
241.169	41.64
241.386	19.11
241.603	-19.8
241.821	-23.89
242.038	-7.51
242.255	90.79
242.472	-11.61
242.689	4.78
242.907	-13.65
243.124	27.31
243.341	37.55
243.558	17.07
243.775	12.97
243.992	98.99
244.209	55.98
244.426	4.78
244.643	49.83
244.86	19.11
245.078	0.68
245.295	58.03
245.512	-1.37
245.729	-40.28
245.946	10.92
246.163	15.02
246.38	74.41
246.597	17.07
246.814	-7.51
247.031	-15.7
247.248	53.93
247.464	-36.18
247.681	25.26
247.898	23.21
248.115	25.26
248.332	19.11
248.549	78.51
248.766	-30.04
248.983	64.17
249.2	-23.89
249.417	78.51
249.633	-23.89
249.85	115.37
250.067	-17.75
250.284	-9.56
250.501	60.07
250.717	-79.19
250.934	39.59
251.151	21.16
251.368	-5.46
251.585	29.35
251.801	-17.75
252.018	37.55
252.235	-3.41
252.451	62.12
252.668	119.46
252.885	25.26
253.102	47.79
253.318	23.21
253.535	23.21
253.752	15.02
253.968	19.11
254.185	35.5
254.401	-19.8
254.618	33.45
254.835	43.69
255.051	111.27
255.268	-44.37
255.484	4.78
255.701	6.83
255.917	51.88
256.134	66.22
256.351	-23.89
256.567	-13.65
256.784	55.98
257	-1.37
257.217	-30.04
257.433	29.35
257.65	4.78
257.866	-23.89
258.082	-5.46
258.299	-36.18
258.515	-13.65
258.732	6.83
258.948	29.35
259.165	68.27
259.381	-3.41
259.597	17.07
259.814	12.97
260.03	10.92
260.246	62.12
260.463	0.68
260.679	17.07
260.895	-50.52
261.112	2.73
261.328	2.73
261.544	-48.47
261.761	15.02
261.977	-7.51
262.193	21.16
262.409	-15.7
262.626	33.45
262.842	29.35
263.058	64.17
263.274	-48.47
263.49	90.79
263.707	2.73
263.923	-48.47
264.139	-42.32
264.355	72.36
264.571	64.17
264.787	49.83
265.004	33.45
265.22	10.92
265.436	47.79
265.652	-1.37
265.868	-19.8
266.084	-3.41
266.3	58.03
266.516	-36.18
266.732	90.79
266.948	-11.61
267.164	72.36
267.38	45.74
267.596	53.93
267.812	33.45
268.028	15.02
268.244	21.16
268.46	41.64
268.676	-13.65
268.892	58.03
269.108	-44.37
269.324	37.55
269.54	47.79
269.756	17.07
269.972	-34.13
270.188	23.21
270.403	-30.04
270.619	-46.42
270.835	-60.76
271.051	17.07
271.267	17.07
271.483	-56.66
271.698	-38.23
271.914	66.22
272.13	-19.8
272.346	10.92
272.562	62.12
272.777	33.45
272.993	111.27
273.209	12.97
273.425	105.13
273.64	4.78
273.856	2.73
274.072	4.78
274.287	8.87
274.503	51.88
274.719	31.4
274.934	-64.85
275.15	-77.14
275.366	31.4
275.581	-52.56
275.797	39.59
276.012	39.59
276.228	-36.18
276.444	-17.75
276.659	101.03
276.875	-17.75
277.09	39.59
277.306	-7.51
277.521	-52.56
277.737	37.55
277.952	-7.51
278.168	21.16
278.383	-1.37
278.599	29.35
278.814	51.88
279.03	-54.61
279.245	45.74
279.461	76.46
279.676	84.65
279.892	74.41
280.107	33.45
280.322	6.83
280.538	-3.41
280.753	35.5
280.969	125.61
281.184	-5.46
281.399	72.36
281.615	35.5
281.83	-19.8
282.045	-3.41
282.26	33.45
282.476	10.92
282.691	29.35
282.906	-7.51
283.122	-36.18
283.337	6.83
283.552	-13.65
283.767	-38.23
283.983	41.64
284.198	35.5
284.413	-46.42
284.628	-50.52
284.843	8.87
285.058	64.17
285.274	-1.37
285.489	17.07
285.704	60.07
285.919	-7.51
286.134	45.74
286.349	74.41
286.564	-11.61
286.779	51.88
286.995	15.02
287.21	-40.28
287.425	45.74
287.64	33.45
287.855	8.87
288.07	-13.65
288.285	49.83
288.5	17.07
288.715	17.07
288.93	53.93
289.145	2.73
289.36	-44.37
289.575	6.83
289.79	23.21
290.004	31.4
290.219	8.87
290.434	-9.56
290.649	-30.04
290.864	-9.56
291.079	33.45
291.294	23.21
291.509	21.16
291.724	-17.75
291.938	51.88
292.153	-36.18
292.368	98.99
292.583	-7.51
292.798	15.02
293.012	12.97
293.227	-27.99
293.442	-19.8
293.657	66.22
293.871	-1.37
294.086	39.59
294.301	103.08
294.516	-15.7
294.73	37.55
294.945	-9.56
295.16	17.07
295.374	12.97
295.589	25.26
295.804	15.02
296.018	33.45
296.233	90.79
296.447	12.97
296.662	-50.52
296.877	55.98
297.091	45.74
297.306	31.4
297.52	15.02
297.735	60.07
297.949	17.07
298.164	-19.8
298.378	2.73
298.593	-23.89
298.807	-17.75
299.022	47.79
299.236	60.07
299.451	62.12
299.665	37.55
299.88	10.92
300.094	47.79
300.309	-3.41
300.523	58.03
300.737	29.35
300.952	-13.65
301.166	-27.99
301.381	33.45
301.595	-5.46
301.809	-42.32
302.024	25.26
302.238	-13.65
302.452	66.22
302.667	0.68
302.881	113.32
303.095	4.78
303.309	-23.89
303.524	12.97
303.738	33.45
303.952	-17.75
304.166	43.69
304.381	-30.04
304.595	25.26
304.809	25.26
305.023	-13.65
305.237	58.03
305.452	-40.28
305.666	17.07
305.88	25.26
306.094	-32.08
306.308	-5.46
306.522	25.26
306.736	12.97
306.95	25.26
307.164	2.73
307.379	-7.51
307.593	62.12
307.807	39.59
308.021	-38.23
308.235	25.26
308.449	-17.75
308.663	19.11
308.877	31.4
309.091	-54.61
309.305	86.7
309.519	15.02
309.733	90.79
309.947	4.78
310.161	19.11
310.374	23.21
310.588	101.03
310.802	4.78
311.016	4.78
311.23	58.03
311.444	-3.41
311.658	4.78
311.872	-30.04
312.085	31.4
312.299	23.21
312.513	45.74
312.727	10.92
312.941	-3.41
313.154	27.31
313.368	-66.9
313.582	82.6
313.796	47.79
314.009	-23.89
314.223	53.93
314.437	0.68
314.651	15.02
314.864	29.35
315.078	62.12
315.292	45.74
315.505	21.16
315.719	17.07
315.933	-11.61
316.146	-17.75
316.36	21.16
316.573	-52.56
316.787	-23.89
317.001	-30.04
317.214	12.97
317.428	58.03
317.641	2.73
317.855	-17.75
318.068	21.16
318.282	12.97
318.495	27.31
318.709	55.98
318.922	-5.46
319.136	12.97
319.349	96.94
319.563	78.51
319.776	23.21
319.99	-5.46
320.203	-44.37
320.417	0.68
320.63	8.87
320.843	-3.41
321.057	10.92
321.27	17.07
321.483	19.11
321.697	60.07
321.91	31.4
322.124	27.31
322.337	17.07
322.55	6.83
322.763	53.93
322.977	-32.08
323.19	-11.61
323.403	12.97
323.617	15.02
323.83	82.6
324.043	-50.52
324.256	70.31
324.469	31.4
324.683	45.74
324.896	35.5
325.109	21.16
325.322	53.93
325.535	0.68
325.748	-38.23
325.962	-21.84
326.175	-11.61
326.388	-3.41
326.601	8.87
326.814	31.4
327.027	-36.18
327.24	53.93
327.453	41.64
327.666	58.03
327.879	29.35
328.092	76.46
328.305	29.35
328.518	2.73
328.731	15.02
328.944	-25.94
329.157	-15.7
329.37	21.16
329.583	23.21
329.796	84.65
330.009	-3.41
330.222	31.4
330.435	25.26
330.648	10.92
330.861	74.41
331.073	60.07
331.286	8.87
331.499	4.78
331.712	49.83
331.925	60.07
332.138	-3.41
332.35	119.46
332.563	47.79
332.776	58.03
332.989	12.97
333.202	0.68
333.414	21.16
333.627	-21.84
333.84	17.07
334.053	62.12
334.265	35.5
334.478	10.92
334.691	-23.89
334.903	58.03
335.116	-36.18
335.329	-44.37
335.541	43.69
335.754	37.55
335.966	27.31
336.179	62.12
336.392	-1.37
336.604	35.5
336.817	0.68
337.029	58.03
337.242	-7.51
337.454	-15.7
337.667	15.02
337.88	41.64
338.092	29.35
338.305	49.83
338.517	-34.13
338.729	-5.46
338.942	12.97
339.154	-21.84
339.367	-5.46
339.579	58.03
339.792	-52.56
340.004	80.55
340.217	43.69
340.429	74.41
340.641	68.27
340.854	21.16
341.066	8.87
341.278	51.88
341.491	25.26
341.703	-7.51
341.915	64.17
342.128	-32.08
342.34	33.45
342.552	-7.51
342.764	-27.99
342.977	17.07
343.189	21.16
343.401	43.69
343.613	43.69
343.826	8.87
344.038	53.93
344.25	23.21
344.462	33.45
344.674	15.02
344.886	39.59
345.099	58.03
345.311	4.78
345.523	-7.51
345.735	29.35
345.947	62.12
346.159	-9.56
346.371	53.93
346.583	-5.46
346.795	31.4
347.007	70.31
347.219	94.89
347.431	15.02
347.643	62.12
347.855	-71
348.067	70.31
348.279	-23.89
348.491	60.07
348.703	0.68
348.915	33.45
349.127	-23.89
349.339	15.02
349.551	45.74
349.763	103.08
349.975	33.45
350.187	70.31
350.399	66.22
350.61	27.31
350.822	58.03
351.034	55.98
351.246	-1.37
351.458	-7.51
351.669	-3.41
351.881	41.64
352.093	37.55
352.305	-62.8
352.517	-3.41
352.728	72.36
352.94	23.21
353.152	-17.75
353.363	12.97
353.575	23.21
353.787	-23.89
353.999	10.92
354.21	8.87
354.422	4.78
354.633	-11.61
354.845	68.27
355.057	10.92
355.268	25.26
355.48	74.41
355.692	6.83
355.903	-25.94
356.115	41.64
356.326	8.87
356.538	53.93
356.749	-44.37
356.961	-15.7
357.172	2.73
357.384	58.03
357.595	-11.61
357.807	21.16
358.018	4.78
358.23	35.5
358.441	21.16
358.653	23.21
358.864	15.02
359.075	82.6
359.287	37.55
359.498	55.98
359.709	49.83
359.921	-7.51
360.132	-36.18
360.344	25.26
360.555	68.27
360.766	6.83
360.977	45.74
361.189	-5.46
361.4	-21.84
361.611	-25.94
361.823	70.31
362.034	10.92
362.245	-77.14
362.456	2.73
362.667	-52.56
362.879	41.64
363.09	-23.89
363.301	25.26
363.512	-17.75
363.723	27.31
363.935	60.07
364.146	29.35
364.357	43.69
364.568	17.07
364.779	-19.8
364.99	72.36
365.201	43.69
365.412	72.36
365.623	15.02
365.834	-11.61
366.045	4.78
366.256	82.6
366.467	27.31
366.678	88.75
366.889	31.4
367.1	43.69
367.311	35.5
367.522	21.16
367.733	10.92
367.944	25.26
368.155	12.97
368.366	-25.94
368.577	17.07
368.788	31.4
368.999	-21.84
369.209	8.87
369.42	131.75
369.631	152.23
369.842	23.21
370.053	-23.89
370.264	-13.65
370.474	8.87
370.685	94.89
370.896	43.69
371.107	37.55
371.317	51.88
371.528	31.4
371.739	58.03
371.95	88.75
372.16	141.99
372.371	0.68
372.582	-7.51
372.792	19.11
373.003	21.16
373.214	2.73
373.424	-15.7
373.635	6.83
373.846	109.23
374.056	17.07
374.267	45.74
374.477	39.59
374.688	-60.76
374.898	39.59
375.109	74.41
375.319	47.79
375.53	21.16
375.74	66.22
375.951	-7.51
376.161	31.4
376.372	115.37
376.582	-46.42
376.793	-15.7
377.003	37.55
377.214	-27.99
377.424	-5.46
377.635	2.73
377.845	107.18
378.055	-9.56
378.266	70.31
378.476	-3.41
378.686	25.26
378.897	2.73
379.107	109.23
379.317	35.5
379.528	-15.7
379.738	68.27
379.948	41.64
380.158	98.99
380.369	-11.61
380.579	21.16
380.789	60.07
380.999	33.45
381.21	-30.04
381.42	51.88
381.63	29.35
381.84	0.68
382.05	90.79
382.261	21.16
382.471	25.26
382.681	41.64
382.891	23.21
383.101	68.27
383.311	123.56
383.521	45.74
383.731	-9.56
383.941	17.07
384.151	17.07
384.361	64.17
384.571	-13.65
384.781	96.94
384.991	0.68
385.201	45.74
385.411	12.97
385.621	94.89
385.831	37.55
386.041	92.84
386.251	-13.65
386.461	74.41
386.671	45.74
386.881	-5.46
387.091	0.68
387.301	-15.7
387.511	-46.42
387.72	45.74
387.93	-27.99
388.14	-3.41
388.35	41.64
388.56	70.31
388.769	66.22
388.979	35.5
389.189	49.83
389.399	-15.7
389.609	35.5
389.818	60.07
390.028	60.07
390.238	-15.7
390.447	41.64
390.657	45.74
390.867	33.45
391.076	51.88
391.286	55.98
391.496	27.31
391.705	12.97
391.915	55.98
392.125	105.13
392.334	27.31
392.544	90.79
392.753	19.11
392.963	17.07
393.172	43.69
393.382	4.78
393.591	51.88
393.801	55.98
394.01	98.99
394.22	141.99
394.429	-27.99
394.639	53.93
394.848	12.97
395.058	90.79
395.267	58.03
395.477	148.14
395.686	103.08
395.895	117.42
396.105	64.17
396.314	60.07
396.524	6.83
396.733	70.31
396.942	33.45
397.152	51.88
397.361	90.79
397.57	47.79
397.78	88.75
397.989	88.75
398.198	107.18
398.407	62.12
398.617	98.99
398.826	25.26
399.035	98.99
399.244	103.08
399.453	86.7
399.663	53.93
399.872	31.4
400.081	6.83
400.29	146.09
400.499	35.5
400.708	101.03
400.917	43.69
401.127	101.03
401.336	127.66
401.545	98.99
401.754	45.74
401.963	107.18
402.172	72.36
402.381	19.11
402.59	31.4
402.799	60.07
403.008	76.46
403.217	72.36
403.426	-30.04
403.635	101.03
403.844	121.51
404.053	178.86
404.262	78.51
404.471	133.8
404.68	166.57
404.888	45.74
405.097	101.03
405.306	82.6
405.515	76.46
405.724	76.46
405.933	74.41
406.142	133.8
406.35	139.94
406.559	146.09
406.768	90.79
406.977	191.14
407.185	160.42
407.394	209.58
407.603	98.99
407.812	217.77
408.02	223.91
408.229	180.9
408.438	174.76
408.646	160.42
408.855	191.14
409.064	209.58
409.272	160.42
409.481	289.45
409.69	221.86
409.898	189.1
410.107	215.72
410.315	320.17
410.524	242.34
410.733	283.3
410.941	160.42
411.15	260.77
411.358	328.36
411.567	342.69
411.775	275.11
411.984	320.17
412.192	297.64
412.401	330.41
412.609	381.6
412.818	342.69
413.026	426.66
413.234	397.99
413.443	400.04
413.651	391.84
413.86	445.09
414.068	494.24
414.276	447.14
414.485	498.34
414.693	518.82
414.901	500.39
415.11	602.79
415.318	500.39
415.526	615.07
415.734	604.83
415.943	586.4
416.151	662.18
416.359	666.27
416.567	688.8
416.776	637.6
416.984	727.71
417.192	793.25
417.4	789.15
417.608	737.95
417.817	774.81
418.025	836.25
418.233	918.17
418.441	905.88
418.649	963.23
418.857	946.84
419.065	1100.44
419.273	1028.76
419.481	1065.63
419.689	1118.87
419.897	1190.55
420.105	1034.91
420.313	1262.23
420.521	1184.41
420.729	1247.9
420.937	1303.19
421.145	1358.49
421.353	1311.38
421.561	1577.62
421.769	1462.93
421.977	1600.15
422.185	1606.29
422.393	1710.74
422.601	1866.38
422.809	1680.02
423.017	1782.42
423.224	1815.18
423.432	1915.53
423.64	2077.32
423.848	2077.32
424.056	2146.95
424.263	2255.5
424.471	2200.2
424.679	2194.06
424.887	2415.24
425.094	2488.96
425.302	2495.11
425.51	2611.84
425.718	2677.38
425.925	2773.63
426.133	2941.57
426.341	2882.17
426.548	3048.06
426.756	3177.08
426.964	2986.62
427.171	3279.48
427.379	3293.82
427.586	3377.78
427.794	3594.87
428.001	3699.31
428.209	3891.82
428.417	3641.97
428.624	3955.31
428.832	4246.12
429.039	3885.68
429.247	3981.93
429.454	4362.86
429.662	4659.81
429.869	4315.75
430.076	4727.39
430.284	4610.66
430.491	4692.58
430.699	5032.54
430.906	5038.69
431.114	5126.75
431.321	5251.67
431.528	5497.43
431.736	5595.73
431.943	6027.85
432.15	5978.7
432.358	6009.42
432.565	6416.97
432.772	6244.94
432.979	6648.39
433.187	6627.91
433.394	6824.51
433.601	7133.76
433.808	6998.59
434.016	7072.32
434.223	7449.14
434.43	7785.01
434.637	7791.16
434.844	8131.12
435.052	8272.43
435.259	8075.82
435.466	8321.58
435.673	8227.37
435.88	9067.04
436.087	9273.89
436.294	9200.16
436.501	9028.13
436.708	9308.7
436.915	9579.03
437.122	9964.05
437.329	9900.56
437.537	10449.42
437.743	10308.11
437.95	10457.61
438.157	10938.88
438.364	11280.89
438.571	11160.06
438.778	11420.16
438.985	12392.94
439.192	12079.6
439.399	12423.66
439.606	11997.68
439.813	12667.37
440.02	13361.63
440.227	13038.05
440.433	12886.5
440.64	13502.94
440.847	13636.06
441.054	13613.53
441.261	14803.4
441.467	14483.92
441.674	14807.5
441.881	15258.05
442.088	15325.63
442.294	15145.41
442.501	15614.4
442.708	15888.82
442.914	16486.83
443.121	17238.44
443.328	16722.35
443.534	17775
443.741	17496.48
443.948	17138.09
444.154	18381.2
444.361	18151.83
444.568	18624.91
444.774	18407.83
444.981	19061.13
445.187	19294.6
445.394	19872.12
445.6	19468.67
445.807	21750.11
446.013	20584.82
446.22	21205.35
446.426	21678.43
446.633	22069.59
446.839	22794.57
447.046	21901.66
447.252	22995.28
447.459	23097.67
447.665	23148.87
447.871	23796.03
448.078	24899.89
448.284	23601.47
448.491	24320.31
448.697	25172.27
448.903	26167.58
449.11	26069.28
449.316	25207.08
449.522	25850.14
449.728	26495.25
449.935	26532.12
450.141	26798.35
450.347	27351.31
450.553	26738.96
450.76	26523.93
450.966	27386.12
451.172	27001.1
451.378	27900.16
451.584	27060.49
451.791	27834.63
451.997	28186.88
452.203	28305.66
452.409	27891.97
452.615	27992.32
452.821	26910.99
453.027	26824.98
453.233	27990.27
453.44	26562.84
453.646	27179.28
453.852	27158.8
454.058	27621.64
454.264	26634.52
454.47	27384.07
454.676	26274.07
454.882	27498.76
455.088	25186.6
455.294	25184.55
455.5	25598.24
455.705	26368.28
455.911	25088.3
456.117	24283.45
456.323	24037.69
456.529	22841.68
456.735	23675.2
456.941	23038.28
457.147	22577.49
457.352	21967.2
457.558	21786.97
457.764	21649.76
457.97	21191.02
458.176	20871.53
458.381	20617.58
458.587	20087.16
458.793	19741.05
458.999	18491.79
459.204	20183.41
459.41	19345.8
459.616	18246.04
459.821	17975.7
460.027	18289.04
460.233	17828.25
460.438	16882.09
460.644	17037.73
460.85	16320.95
461.055	16351.67
461.261	16030.13
461.466	14895.56
461.672	14559.69
461.878	15299.01
462.083	14381.52
462.289	13986.26
462.494	13920.73
462.7	13208.03
462.905	12974.56
463.111	13341.15
463.316	13283.81
463.522	13357.53
463.727	13224.42
463.932	13062.63
464.138	13142.5
464.343	13160.93
464.549	12947.94
464.754	13351.39
464.959	13199.84
465.165	12892.65
465.37	12360.17
465.575	12313.07
465.781	12655.08
465.986	12708.33
466.191	12132.85
466.397	11950.58
466.602	11543.03
466.807	12032.5
467.012	11964.92
467.218	11596.28
467.423	11739.64
467.628	11686.39
467.833	12132.85
468.038	11872.76
468.244	11334.14
468.449	11805.17
468.654	11375.1
468.859	11375.1
469.064	11211.26
469.269	10873.35
469.474	10969.6
469.679	11219.46
469.885	10813.96
470.09	11072
470.295	10875.4
470.5	10623.5
470.705	10662.41
470.91	10408.46
471.115	10365.45
471.32	10392.08
471.525	10412.56
471.73	10242.57
471.935	10263.05
472.139	9800.21
472.344	9894.42
472.549	9847.32
472.754	9720.34
472.959	9523.74
473.164	9257.5
473.369	9222.69
473.574	9527.83
473.778	9394.72
473.983	9343.52
474.188	9304.6
474.393	9042.46
474.598	9007.65
474.802	8827.43
475.007	8915.49
475.212	8825.38
475.417	8548.9
475.621	8645.16
475.826	8360.49
476.031	8354.35
476.235	8196.65
476.44	8233.52
476.645	8108.59
476.849	8124.97
477.054	8028.72
477.259	7963.19
477.463	7963.19
477.668	7479.86
477.872	7823.92
478.077	7658.04
478.282	7504.44
478.486	7483.96
478.691	7506.49
478.895	7529.02
479.1	7221.82
479.304	7397.95
479.509	7289.4
479.713	7242.3
479.918	6998.59
480.122	7041.6
480.326	7166.53
480.531	7168.57
480.735	7027.26
480.94	7008.83
481.144	7135.81
481.348	6804.03
481.553	6955.58
481.757	6748.74
481.961	6761.03
482.166	6957.63
482.37	6982.21
482.574	6797.89
482.778	6859.33
482.983	6797.89
483.187	6867.52
483.391	6824.51
483.595	6799.94
483.8	6744.64
484.004	6873.67
484.208	7092.8
484.412	6679.11
484.616	6883.91
484.821	6824.51
485.025	6730.31
485.229	6806.08
485.433	6777.41
485.637	6720.07
485.841	6742.6
486.045	6822.47
486.249	6842.95
486.453	6812.23
486.657	6785.6
486.861	6861.38
487.065	6718.02
487.269	6820.42
487.473	6650.44
487.677	6961.73
487.881	6779.46
488.085	6883.91
488.289	6795.84
488.493	6881.86
488.697	6926.91
488.901	6738.5
489.105	6896.19
489.309	6937.15
489.512	6877.76
489.716	6750.79
489.92	6879.81
490.124	6781.51
490.328	7105.09
490.531	6955.58
490.735	6976.06
490.939	6849.09
491.143	6992.45
491.346	6920.77
491.55	7096.89
491.754	7088.7
491.958	7254.59
492.161	7084.61
492.365	7256.64
492.569	7160.38
492.772	7250.49
492.976	7332.41
493.18	7416.38
493.383	7402.04
493.587	7418.43
493.79	7561.78
493.994	7307.84
494.197	7473.72
494.401	7608.89
494.605	7512.63
494.808	7610.93
495.012	7762.48
495.215	7785.01
495.419	7801.4
495.622	7920.18
495.825	7909.94
496.029	8075.82
496.232	8213.04
496.436	8124.97
496.639	8262.19
496.843	8282.67
497.046	8364.59
497.249	8608.3
497.453	8632.87
497.656	8555.05
497.859	8804.9
498.063	8815.14
498.266	9030.18
498.469	8751.65
498.673	8821.28
498.876	9218.59
499.079	9138.72
499.282	9194.01
499.485	9693.72
499.689	9409.05
499.892	9507.35
500.095	9562.65
500.298	9673.24
500.501	9888.28
500.705	10146.32
500.908	10177.04
501.111	10234.38
501.314	10408.46
501.517	10385.93
501.72	10607.11
501.923	10607.11
502.126	10998.27
502.329	10979.84
502.532	11209.22
502.735	10846.73
502.938	11594.23
503.141	11305.47
503.344	11424.25
503.547	11653.62
503.75	11655.67
503.953	12091.89
504.156	12198.38
504.359	12034.55
504.562	12182
504.765	12476.91
504.968	12540.4
505.17	12708.33
505.373	12739.05
505.576	12827.11
505.779	13134.31
505.982	13029.86
506.185	13459.93
506.387	13459.93
506.59	13769.18
506.793	14059.99
506.996	13859.29
507.198	14123.48
507.401	14172.63
507.604	14320.08
507.807	14657.99
508.009	14787.02
508.212	14750.15
508.415	15055.3
508.617	15387.07
508.82	15299.01
509.022	15010.25
509.225	15759.8
509.428	15872.44
509.63	15727.03
509.833	16148.92
510.035	16320.95
510.238	16292.27
510.44	16751.02
510.643	16677.29
510.845	16949.67
511.048	16601.52
511.25	17363.36
511.453	17293.73
511.655	17764.76
511.858	17531.3
512.06	17678.75
512.262	18383.25
512.465	18053.53
512.667	18321.81
512.87	18620.81
513.072	18737.55
513.274	18882.95
513.477	19403.14
513.679	19331.46
513.881	19546.5
514.084	19769.72
514.286	19902.84
514.488	19990.91
514.69	20668.78
514.893	20449.65
515.095	20586.86
515.297	21002.6
515.499	21160.3
515.701	21266.79
515.904	21596.51
516.106	21631.33
516.308	22051.16
516.51	22208.86
516.712	22354.26
516.914	22270.29
517.116	22876.49
517.318	22853.97
517.52	22997.32
517.722	23341.38
517.925	23445.83
518.127	24074.56
518.329	24045.88
518.531	23753.02
518.733	24459.57
518.935	24533.3
519.136	24887.6
519.338	24936.75
519.54	25207.08
519.742	25297.19
519.944	25520.42
520.146	26216.73
520.348	26188.06
520.55	26384.66
520.752	26321.18
520.954	27035.92
521.155	26597.65
521.357	27332.87
521.559	27410.7
521.761	27881.73
521.963	27934.98
522.164	27896.06
522.366	28223.74
522.568	28549.37
522.77	28649.72
522.971	29061.36
523.173	28721.4
523.375	29012.21
523.576	29034.74
523.778	29372.65
523.98	29720.81
524.181	29741.28
524.383	29825.25
524.584	30613.72
524.786	30007.52
524.988	30165.21
525.189	30988.5
525.391	31060.18
525.592	30998.74
525.794	31117.52
525.995	31555.79
526.197	31383.76
526.398	31387.85
526.6	31946.95
526.801	31668.42
527.003	32053.44
527.204	31740.1
527.406	32170.18
527.607	32370.88
527.808	32719.03
528.01	32313.53
528.211	32649.4
528.412	33257.65
528.614	33018.03
528.815	33095.86
529.016	33511.6
529.218	33228.98
529.419	33417.39
529.62	33812.65
529.822	33527.98
530.023	33921.19
530.224	33935.52
530.425	33466.54
530.626	33689.77
530.828	33493.16
531.029	34515.1
531.23	33831.08
531.431	34087.07
531.632	34300.06
531.833	34320.54
532.035	34468
532.236	34201.76
532.437	34478.24
532.638	34533.53
532.839	34459.8
533.04	34429.09
533.241	34564.25
533.442	35051.67
533.643	34750.62
533.844	34642.07
534.045	34934.93
534.246	34631.83
534.447	35106.96
534.648	34775.19
534.849	34812.06
535.05	34750.62
535.251	34920.6
535.451	34795.67
535.652	34963.61
535.853	34896.02
536.054	34619.55
536.255	35010.71
536.456	35070.1
536.657	35518.6
536.857	34867.35
537.058	34814.1
537.259	35459.21
537.46	35348.62
537.66	34947.22
537.861	34832.54
538.062	34900.12
538.263	34680.99
538.463	35420.3
538.664	34810.01
538.865	35008.66
539.065	34918.55
539.266	35043.48
539.466	35457.17
539.667	34767
539.868	35590.28
540.068	35145.87
540.269	34988.18
540.469	34971.8
540.67	35084.44
540.87	34945.17
541.071	34812.06
541.271	35211.41
541.472	35274.9
541.672	34930.84
541.873	35244.18
542.073	34422.94
542.274	35158.16
542.474	35170.45
542.675	34683.03
542.875	34975.89
543.075	34883.73
543.276	34668.7
543.476	35268.75
543.676	34908.31
543.877	35201.17
544.077	34914.45
544.277	34707.61
544.478	34654.36
544.678	35145.87
544.878	34767
545.078	35088.53
545.279	34572.44
545.479	34740.38
545.679	34853.01
545.879	34920.6
546.079	35041.43
546.28	34877.59
546.48	34537.63
546.68	34547.87
546.88	35004.56
547.08	35061.91
547.28	34945.17
547.48	34441.37
547.68	35137.68
547.88	34496.67
548.081	34699.42
548.281	34836.63
548.481	34883.73
548.681	34930.84
548.881	34646.17
549.081	34758.81
549.28	34803.86
549.48	34912.41
549.68	34502.81
549.88	35043.48
550.08	34529.44
550.28	35172.5
550.48	34496.67
550.68	34742.42
550.88	34754.71
551.08	34797.72
551.279	34660.51
551.479	34363.55
551.679	34904.21
551.879	34304.16
552.079	34680.99
552.278	34179.23
552.478	34453.66
552.678	34341.02
552.878	34678.94
553.077	34527.39
553.277	34551.96
553.477	34726.04
553.676	34236.58
553.876	34470.04
554.076	34279.58
554.275	34199.71
554.475	34044.07
554.674	34437.28
554.874	34066.59
555.074	34027.68
555.273	34132.13
555.473	34412.7
555.672	34134.18
555.872	33992.87
556.071	34076.83
556.271	34128.03
556.47	33728.68
556.67	33720.49
556.869	33693.86
557.068	34003.11
557.268	33585.32
557.467	33681.58
557.667	33956
557.866	33564.84
558.065	33343.66
558.265	33392.81
558.464	32991.41
558.663	33534.12
558.863	33046.71
559.062	33568.94
559.261	32719.03
559.461	33630.38
559.66	32841.91
559.859	32852.15
560.058	32983.22
560.258	32891.06
560.457	32741.56
560.656	33224.88
560.855	32676.02
561.054	32915.64
561.253	32512.19
561.453	32585.91
561.652	32407.74
561.851	32692.41
562.05	32082.11
562.249	32270.53
562.448	32540.86
562.647	32391.36
562.846	32000.19
563.045	32313.53
563.244	31643.85
563.443	32168.13
563.642	31463.63
563.841	32168.13
564.04	31455.43
564.239	32045.25
564.438	31439.05
564.637	31695.05
564.836	31805.64
565.035	31176.91
565.234	31635.66
565.432	30996.69
565.631	30888.15
565.83	31099.09
566.029	30873.81
566.228	30603.48
566.427	30619.86
566.625	30529.75
566.824	30666.97
567.023	30972.11
567.222	29810.92
567.42	30759.13
567.619	30216.41
567.818	30327
568.016	30140.64
568.215	30468.31
568.414	29964.51
568.612	29995.23
568.811	29866.21
569.01	29817.06
569.208	29120.75
569.407	29581.54
569.605	29407.47
569.804	29636.84
570.002	29288.68
570.201	29696.23
570.4	29202.67
570.598	28989.68
570.797	28786.93
570.995	29098.22
571.193	28864.75
571.392	29212.91
571.59	28434.68
571.789	28424.44
571.987	28408.06
572.186	28360.95
572.384	28176.64
572.582	28453.11
572.781	28344.57
572.979	27822.34
573.177	28213.5
573.376	28068.09
573.574	27883.78
573.772	27902.21
573.971	27578.63
574.169	27377.93
574.367	27343.11
574.565	27572.49
574.763	27171.08
574.962	27689.22
575.16	26865.94
575.358	27158.8
575.556	26796.31
575.754	27158.8
575.952	26771.73
576.151	26898.7
576.349	26237.21
576.547	26908.94
576.745	26745.11
576.943	26462.49
577.141	26444.06
577.339	26462.49
577.537	26143
577.735	26134.81
577.933	25762.08
578.131	25970.97
578.329	25651.49
578.527	25639.2
578.725	25467.17
578.923	26087.71
579.121	25436.45
579.319	25563.43
579.516	25332.01
579.714	25643.3
579.912	25350.44
580.11	25155.88
580.308	25456.93
580.506	25352.49
580.704	24770.86
580.901	25106.73
581.099	25084.2
581.297	24461.62
581.495	24740.15
581.692	25022.76
581.89	24516.92
582.088	24613.17
582.285	24400.18
582.483	24604.98
582.681	24195.39
582.878	24418.61
583.076	23857.47
583.274	24301.88
583.471	23929.15
583.669	24076.6
583.866	23902.53
584.064	23978.3
584.262	23669.06
584.459	23583.04
584.657	23404.87
584.854	23660.87
585.052	23095.63
585.249	23601.47
585.447	23296.33
585.644	23304.52
585.841	23261.51
586.039	23281.99
586.236	23159.11
586.434	22870.35
586.631	22757.71
586.828	22962.51
587.026	22819.15
587.223	22704.46
587.42	22610.26
587.618	22468.95
587.815	22407.51
588.012	22272.34
588.21	22169.94
588.407	22419.8
588.604	22221.14
588.801	22018.39
588.999	21795.17
589.196	21916
589.393	22118.75
589.59	22176.09
589.787	21926.24
589.984	21963.1
590.182	21361
590.379	21948.76
590.576	21631.33
590.773	21563.75
590.97	21244.26
591.167	21393.76
591.364	21186.92
591.561	21260.65
591.758	21064.04
591.955	20935.02
592.152	21174.63
592.349	20795.76
592.546	20924.78
592.743	21049.71
592.94	20597.1
593.137	20883.82
593.334	20775.28
593.531	20388.21
593.727	20463.99
593.924	20605.3
594.121	20201.85
594.318	20543.86
594.515	20027.77
594.712	20253.05
594.908	20263.29
595.105	20185.46
595.302	19609.98
595.499	20035.96
595.696	19827.07
595.892	19876.22
596.089	19773.82
596.286	19620.22
596.482	19294.6
596.679	19630.46
596.876	19425.67
597.072	19370.37
597.269	19648.89
597.466	19278.21
597.662	19523.97
597.859	19202.44
598.055	19149.19
598.252	19161.48
598.448	19149.19
598.645	19063.18
598.841	18825.61
599.038	18790.8
599.234	18901.39
599.431	18723.21
599.627	18522.51
599.824	18766.22
600.02	18514.32
600.217	18706.83
600.413	18487.7
600.609	18739.6
600.806	18246.04
601.002	18491.79
601.198	18315.67
601.395	18313.62
601.591	18053.53
601.787	18098.58
601.984	17783.2
602.18	18096.53
602.376	18010.52
602.572	17660.32
602.769	17803.67
602.965	17658.27
603.161	17865.11
603.357	17543.58
603.553	17519.01
603.75	17783.2
603.946	17492.38
604.142	17412.51
604.338	17389.99
604.534	17283.49
604.73	16990.63
604.926	17199.52
605.122	17420.7
605.318	17041.83
605.514	17029.54
605.71	16755.11
605.906	16945.58
606.102	16916.9
606.298	16939.43
606.494	16892.33
606.69	16912.81
606.886	16830.89
607.082	16587.18
607.278	16671.15
607.474	16234.93
607.67	16429.49
607.866	16316.85
608.062	16497.07
608.257	16150.96
608.453	16304.56
608.649	16390.58
608.845	16064.95
609.041	16388.53
609.236	16128.44
609.432	16282.03
609.628	16026.04
609.824	15909.3
610.019	16003.51
610.215	16001.46
610.411	16126.39
610.606	15915.45
610.802	15983.03
610.998	16005.56
611.193	15993.27
611.389	15790.52
611.584	15589.82
611.78	15536.57
611.976	15937.98
612.171	15614.4
612.367	15555.01
612.562	15425.98
612.758	15360.45
612.953	15196.61
613.149	15495.61
613.344	15219.14
613.539	15602.11
613.735	15073.73
613.93	15192.51
614.126	15059.4
614.321	15358.4
614.517	15124.93
614.712	14944.71
614.907	15206.85
615.103	15387.07
615.298	14944.71
615.493	15147.46
615.688	14913.99
615.884	15069.64
616.079	14913.99
616.274	15090.12
616.47	14852.55
616.665	14893.51
616.86	14811.59
617.055	14690.76
617.25	14897.61
617.445	14741.96
617.641	14516.69
617.836	14614.99
618.031	14412.24
618.226	14574.03
618.421	14543.31
618.616	14516.69
618.811	14301.65
619.006	14406.09
619.201	13951.45
619.396	14342.61
619.591	13982.17
619.786	14469.58
619.981	13754.84
620.176	14086.61
620.371	13877.72
620.566	13799.9
620.761	13865.43
620.956	13908.44
621.151	13455.84
621.346	13517.28
621.541	13502.94
621.735	13584.86
621.93	13283.81
622.125	13400.54
622.32	13369.82
622.515	13119.97
622.709	13347.29
622.904	12984.8
623.099	12851.69
623.294	12964.32
623.488	12663.27
623.683	12878.31
623.878	12777.96
624.072	12863.97
624.267	12792.3
624.462	12552.68
624.656	12366.32
624.851	12288.5
625.046	12349.93
625.24	12495.34
625.435	12052.98
625.629	12024.31
625.824	12132.85
626.018	12177.9
626.213	11962.87
626.407	12018.16
626.602	11776.5
626.796	11653.62
626.991	11557.37
627.185	11563.51
627.38	11565.56
627.574	11198.98
627.768	11387.39
627.963	11383.29
628.157	11438.59
628.352	11510.27
628.546	11082.24
628.74	11315.71
628.935	11016.71
629.129	10992.13
629.323	10930.69
629.517	11004.42
629.712	10828.29
629.906	10770.95
630.1	10717.7
630.294	10654.22
630.489	10641.93
630.683	10594.83
630.877	10521.1
631.071	10486.28
631.265	10549.77
631.459	10258.96
631.653	10324.49
631.848	10242.57
632.042	10166.8
632.236	10201.61
632.43	10043.92
632.624	9910.8
632.818	10031.63
633.012	9890.32
633.206	10144.27
633.4	9853.46
633.594	9734.68
633.788	9722.39
633.982	9900.56
634.176	9654.81
634.369	9542.17
634.563	9488.92
634.757	9536.03
634.951	9581.08
635.145	9456.15
635.339	9316.89
635.533	9286.17
635.726	9337.37
635.92	9216.54
636.114	9194.01
636.308	9097.76
636.501	8997.41
636.695	8784.42
636.889	9093.66
637.083	8929.83
637.276	8880.68
637.47	8559.14
637.664	8696.36
637.857	8763.94
638.051	8538.66
638.244	8499.75
638.438	8596.01
638.632	8655.4
638.825	8395.31
639.019	8499.75
639.212	8237.61
639.406	8364.59
639.599	8245.8
639.793	8178.22
639.986	8147.5
640.18	8176.17
640.373	8159.79
640.567	8077.87
640.76	8049.2
640.954	8051.25
641.147	7881.27
641.34	7850.55
641.534	7737.91
641.727	7836.21
641.92	7844.4
642.114	7518.78
642.307	7594.55
642.5	7668.28
642.694	7426.62
642.887	7647.8
643.08	7717.43
643.273	7322.17
643.467	7445.05
643.66	7494.2
643.853	7182.91
644.046	6998.59
644.239	7260.73
644.432	7189.05
644.626	7002.69
644.819	7082.56
645.012	7025.22
645.205	7205.44
645.398	7008.83
645.591	6928.96
645.784	7051.84
645.977	6816.32
646.17	6861.38
646.363	6750.79
646.556	6736.45
646.749	6724.16
646.942	6883.91
647.135	6689.35
647.328	6703.68
647.521	6720.07
647.714	6666.82
647.907	6459.98
648.099	6496.84
648.292	6498.89
648.485	6431.3
648.678	6300.23
648.871	6414.92
649.064	6490.7
649.256	6267.47
649.449	6449.74
649.642	6216.27
649.835	6285.9
650.027	6246.99
650.22	6132.3
650.413	6111.82
650.605	6263.37
650.798	6038.09
650.991	5915.22
651.183	5933.65
651.376	5947.98
651.568	5952.08
651.761	5859.92
651.954	5900.88
652.146	5737.04
652.339	5968.46
652.531	5790.29
652.724	5841.49
652.916	5577.3
653.109	5673.56
653.301	5646.93
653.494	5687.89
653.686	5620.31
653.879	5503.57
654.071	5661.27
654.263	5636.69
654.456	5524.05
654.648	5435.99
654.84	5311.07
655.033	5524.05
655.225	5339.74
655.417	5415.51
655.61	5296.73
655.802	5091.93
655.994	5268.06
656.186	5220.95
656.379	5122.65
656.571	5182.04
656.763	5044.83
656.955	5128.8
657.148	5096.03
657.34	5048.93
657.532	5114.46
657.724	4993.63
657.916	5075.55
658.108	4905.57
658.3	5003.87
658.492	5073.5
658.684	4831.84
658.876	4782.69
659.068	4852.32
659.26	4858.46
659.452	4915.81
659.644	4876.9
659.836	4588.13
660.028	4797.03
660.22	4618.85
660.412	4596.32
660.604	4618.85
660.796	4663.91
660.988	4518.5
661.18	4545.13
661.372	4600.42
661.563	4446.82
661.755	4428.39
661.947	4508.26
662.139	4397.67
662.331	4438.63
662.522	4395.62
662.714	4285.03
662.906	4280.94
663.097	4348.52
663.289	4399.72
663.481	4149.87
663.673	4328.04
663.864	4239.98
664.056	4213.35
664.247	4172.39
664.439	4182.63
664.631	4125.29
664.822	4127.34
665.014	4016.75
665.205	4086.38
665.397	3996.27
665.588	4104.81
665.78	4047.47
665.971	4074.09
666.163	4043.37
666.354	3973.74
666.546	3889.78
666.737	3940.97
666.929	3879.54
667.12	3893.87
667.311	3996.27
667.503	3930.73
667.694	3764.85
667.885	3994.22
668.077	3893.87
668.268	3850.86
668.459	3756.66
668.651	3859.06
668.842	3727.99
669.033	3752.56
669.224	3791.47
669.416	3725.94
669.607	3811.95
669.798	3801.71
669.989	3748.47
670.18	3709.55
670.371	3644.02
670.563	3613.3
670.754	3537.52
670.945	3603.06
671.136	3607.16
671.327	3779.18
671.518	3717.75
671.709	3601.01
671.9	3629.68
672.091	3553.91
672.282	3533.43
672.473	3447.41
672.664	3555.96
672.855	3484.28
673.046	3521.14
673.237	3484.28
673.428	3533.43
673.619	3437.17
673.809	3297.91
674	3445.37
674.191	3611.25
674.382	3441.27
674.573	3410.55
674.764	3259
674.954	3402.36
675.145	3357.3
675.336	3310.2
675.527	3406.45
675.717	3377.78
675.908	3297.91
676.099	3414.65
676.289	3326.58
676.48	3308.15
676.671	3369.59
676.861	3353.21
677.052	3201.66
677.243	3230.33
677.433	3281.53
677.624	3242.62
677.814	3136.12
678.005	3256.95
678.195	3259
678.386	3175.03
678.576	3324.54
678.767	3342.97
678.957	3121.79
679.148	3394.17
679.338	3289.72
679.529	3103.36
679.719	3232.38
679.909	3236.47
680.1	3240.57
680.29	3242.62
680.481	3271.29
680.671	3154.55
680.861	3107.45
681.052	3166.84
681.242	3015.29
681.432	3080.83
681.622	3062.4
681.813	2988.67
682.003	3136.12
682.193	3158.65
682.383	3252.86
682.573	3086.97
682.764	3099.26
682.954	3068.54
683.144	3168.89
683.334	3142.27
683.524	3035.77
683.714	3013.24
683.904	2886.27
684.094	3168.89
684.284	3080.83
684.474	3074.68
684.664	3046.01
684.854	3011.2
685.044	2962.05
685.234	2904.7
685.424	3007.1
685.614	3052.16
685.804	2980.48
685.994	2966.14
686.184	3177.08
686.374	2947.71
686.564	3039.87
686.753	2912.89
686.943	2968.19
687.133	2847.36
687.323	2912.89
687.513	2873.98
687.702	2747.01
687.892	2939.52
688.082	2869.89
688.272	2910.85
688.461	2857.6
688.651	2894.46
688.841	2833.02
689.03	2818.69
689.22	2818.69
689.41	2761.34
689.599	2914.94
689.789	2814.59
689.979	2718.34
690.168	2820.74
690.358	2759.3
690.547	2718.34
690.737	2722.43
690.926	2732.67
691.116	2747.01
691.305	2695.81
691.495	2677.38
691.684	2757.25
691.874	2607.75
692.063	2620.03
692.252	2652.8
692.442	2644.61
692.631	2566.79
692.82	2747.01
693.01	2636.42
693.199	2667.14
693.388	2622.08
693.578	2624.13
693.767	2654.85
693.956	2663.04
694.146	2521.73
694.335	2630.27
694.524	2577.03
694.713	2577.03
694.902	2613.89
695.092	2542.21
695.281	2550.4
695.47	2615.94
695.659	2470.53
695.848	2534.02
696.037	2546.31
696.226	2597.51
696.415	2536.07
696.604	2611.84
696.793	2509.44
696.982	2454.15
697.171	2585.22
697.36	2437.77
697.549	2425.48
697.738	2427.53
697.927	2491.01
698.116	2611.84
698.305	2450.05
698.494	2615.94
698.683	2445.96
698.872	2554.5
699.061	2366.09
699.25	2429.57
699.438	2486.92
699.627	2550.4
699.816	2599.55
700.005	2402.95
700.193	2505.35
700.382	2554.5
700.571	2466.44
700.76	2437.77
700.948	2556.55
701.137	2486.92
701.326	2663.04
701.514	2572.93
701.703	2556.55
701.892	2597.51
702.08	2626.18
702.269	2495.11
702.457	2480.77
702.646	2497.16
702.834	2521.73
703.023	2521.73
703.212	2511.49
703.4	2427.53
703.589	2538.12
703.777	2615.94
703.965	2433.67
704.154	2507.4
704.342	2493.06
704.531	2577.03
704.719	2507.4
704.907	2495.11
705.096	2454.15
705.284	2546.31
705.472	2462.34
705.661	2529.92
705.849	2433.67
706.037	2515.59
706.226	2462.34
706.414	2617.99
706.602	2441.86
706.79	2437.77
706.979	2509.44
707.167	2337.41
707.355	2521.73
707.543	2476.68
707.731	2515.59
707.919	2577.03
708.107	2517.64
708.296	2499.2
708.484	2536.07
708.672	2472.58
708.86	2587.27
709.048	2560.64
709.236	2519.68
709.424	2527.88
709.612	2650.75
709.8	2495.11
709.988	2568.84
710.176	2591.36
710.364	2577.03
710.551	2480.77
710.739	2429.57
710.927	2466.44
711.115	2435.72
711.303	2450.05
711.491	2570.88
711.679	2499.2
711.866	2382.47
712.054	2468.49
712.242	2525.83
712.43	2574.98
712.617	2466.44
712.805	2515.59
712.993	2400.9
713.181	2468.49
713.368	2542.21
713.556	2452.1
713.744	2431.62
713.931	2529.92
714.119	2517.64
714.306	2476.68
714.494	2574.98
714.682	2491.01
714.869	2581.12
715.057	2591.36
715.244	2499.2
715.432	2558.6
715.619	2562.69
715.807	2527.88
715.994	2411.14
716.182	2464.39
716.369	2617.99
716.556	2583.17
716.744	2491.01
716.931	2501.25
717.119	2458.25
717.306	2462.34
717.493	2515.59
717.681	2503.3
717.868	2339.46
718.055	2599.55
718.242	2519.68
718.43	2542.21
718.617	2441.86
718.804	2450.05
718.991	2407.05
719.179	2560.64
719.366	2435.72
719.553	2427.53
719.74	2560.64
719.927	2497.16
720.114	2536.07
720.301	2497.16
720.488	2501.25
720.676	2454.15
720.863	2458.25
721.05	2466.44
721.237	2593.41
721.424	2343.56
721.611	2454.15
721.798	2488.96
721.985	2538.12
722.172	2402.95
722.358	2517.64
722.545	2460.29
722.732	2462.34
722.919	2525.83
723.106	2452.1
723.293	2521.73
723.48	2435.72
723.667	2519.68
723.853	2380.42
724.04	2400.9
724.227	2466.44
724.414	2390.66
724.6	2361.99
724.787	2448.01
724.974	2435.72
725.161	2583.17
725.347	2495.11
725.534	2486.92
725.72	2480.77
725.907	2374.28
726.094	2443.91
726.28	2433.67
726.467	2527.88
726.653	2482.82
726.84	2478.72
727.027	2583.17
727.213	2499.2
727.4	2429.57
727.586	2519.68
727.773	2429.57
727.959	2538.12
728.145	2429.57
728.332	2521.73
728.518	2562.69
728.705	2540.16
728.891	2511.49
729.077	2478.72
729.264	2421.38
729.45	2394.76
729.636	2450.05
729.823	2337.41
730.009	2388.61
730.195	2515.59
730.382	2419.33
730.568	2325.13
730.754	2435.72
730.94	2579.08
731.126	2507.4
731.313	2441.86
731.499	2529.92
731.685	2429.57
731.871	2390.66
732.057	2306.7
732.243	2503.3
732.429	2493.06
732.615	2534.02
732.801	2450.05
732.987	2558.6
733.173	2484.87
733.359	2343.56
733.545	2421.38
733.731	2472.58
733.917	2540.16
734.103	2480.77
734.289	2499.2
734.475	2427.53
734.661	2427.53
734.847	2415.24
735.033	2384.52
735.219	2531.97
735.404	2390.66
735.59	2370.18
735.776	2427.53
735.962	2495.11
736.148	2540.16
736.333	2353.8
736.519	2511.49
736.705	2488.96
736.89	2437.77
737.076	2536.07
737.262	2286.22
737.447	2364.04
737.633	2472.58
737.819	2376.33
738.004	2507.4
738.19	2448.01
738.375	2343.56
738.561	2380.42
738.747	2468.49
738.932	2396.81
739.118	2321.03
739.303	2402.95
739.489	2400.9
739.674	2380.42
739.859	2384.52
740.045	2425.48
740.23	2298.5
740.416	2323.08
740.601	2318.98
740.786	2288.26
740.972	2251.4
741.157	2241.16
741.342	2210.44
741.528	2239.11
741.713	2247.3
741.898	2402.95
742.084	2308.74
742.269	2267.78
742.454	2351.75
742.639	2189.96
742.824	2128.52
743.01	2212.49
743.195	2327.18
743.38	2265.74
743.565	2243.21
743.75	2167.43
743.935	2200.2
744.12	2282.12
744.305	2163.34
744.49	2194.06
744.675	2097.8
744.86	2140.81
745.045	2081.42
745.23	2130.57
745.415	2093.71
745.6	2099.85
745.785	2065.04
745.97	2085.51
746.155	2097.8
746.34	2028.17
746.525	2105.99
746.71	2085.51
746.895	2011.79
747.079	2026.12
747.264	1888.91
747.449	2007.69
747.634	1956.49
747.819	1882.77
748.003	1936.01
748.188	1880.72
748.373	1985.16
748.557	1968.78
748.742	1946.25
748.927	1960.59
749.111	1804.94
749.296	1880.72
749.481	1907.34
749.665	1663.63
749.85	1731.22
750.034	1794.7
750.219	1806.99
750.404	1809.04
750.588	1761.94
750.773	1831.57
750.957	1743.5
751.141	1798.8
751.326	1878.67
751.51	1702.54
751.695	1661.59
751.879	1747.6
752.064	1725.07
752.248	1659.54
752.432	1598.1
752.617	1659.54
752.801	1718.93
752.985	1553.04
753.17	1655.44
753.354	1571.47
753.538	1622.67
753.722	1583.76
753.907	1446.55
754.091	1610.39
754.275	1557.14
754.459	1682.07
754.643	1534.61
754.828	1483.41
755.012	1532.56
755.196	1557.14
755.38	1591.95
755.564	1430.16
755.748	1436.31
755.932	1471.12
756.116	1452.69
756.3	1475.22
756.484	1342.1
756.668	1432.21
756.852	1458.84
757.036	1405.59
757.22	1395.35
757.404	1333.91
757.588	1372.82
757.772	1376.92
757.956	1448.6
758.14	1333.91
758.323	1354.39
758.507	1415.83
758.691	1321.62
758.875	1350.29
759.059	1297.05
759.242	1303.19
759.426	1292.95
759.61	1311.38
759.794	1260.18
759.977	1249.94
760.161	1344.15
760.345	1276.57
760.528	1196.7
760.712	1225.37
760.895	1329.81
761.079	1241.75
761.263	1292.95
761.446	1237.66
761.63	1188.5
761.813	1223.32
761.997	1223.32
762.18	1127.07
762.364	1168.02
762.547	1122.97
762.731	1131.16
762.914	1168.02
763.098	1186.46
763.281	1079.96
763.464	1182.36
763.648	1176.22
763.831	1153.69
764.015	1139.35
764.198	1034.91
764.381	1026.72
764.564	1108.63
764.748	1125.02
764.931	1149.59
765.114	1104.54
765.297	1088.15
765.481	1022.62
765.664	1036.95
765.847	1079.96
766.03	1168.02
766.213	1133.21
766.397	1122.97
766.58	998.04
766.763	1045.15
766.946	1051.29
767.129	1004.19
767.312	950.94
767.495	963.23
767.678	1024.67
767.861	969.37
768.044	930.46
768.227	979.61
768.41	1030.81
768.593	989.85
768.776	940.7
768.959	1036.95
769.142	996
769.324	926.36
769.507	920.22
769.69	979.61
769.873	983.71
770.056	1020.57
770.239	936.6
770.421	1100.44
770.604	934.56
770.787	899.74
770.97	950.94
771.152	944.8
771.335	914.08
771.518	875.17
771.7	883.36
771.883	891.55
772.066	909.98
772.248	834.21
772.431	914.08
772.613	877.21
772.796	840.35
772.978	836.25
773.161	858.78
773.343	811.68
773.526	950.94
773.708	823.97
773.891	797.34
774.073	819.87
774.256	928.41
774.438	834.21
774.621	844.45
774.803	807.58
774.985	723.62
775.168	830.11
775.35	846.49
775.532	746.14
775.715	764.58
775.897	836.25
776.079	711.33
776.261	637.6
776.444	707.23
776.626	733.86
776.808	725.66
776.99	670.37
777.173	717.47
777.355	783.01
777.537	752.29
777.719	787.1
777.901	828.06
778.083	641.7
778.265	670.37
778.447	660.13
778.629	651.94
778.811	758.43
778.993	645.79
779.175	672.42
779.357	656.03
779.539	641.7
779.721	678.56
779.903	735.9
780.085	703.14
780.267	684.7
780.449	674.46
780.631	602.79
780.812	613.03
780.994	608.93
781.176	619.17
781.358	574.11
781.54	598.69
781.721	670.37
781.903	561.83
782.085	451.24
782.267	592.55
782.448	615.07
782.63	541.35
782.812	559.78
782.993	522.91
783.175	572.07
783.357	608.93
783.538	561.83
783.72	539.3
783.901	514.72
784.083	500.39
784.264	598.69
784.446	494.24
784.627	506.53
784.809	549.54
784.99	533.15
785.172	387.75
785.353	500.39
785.535	412.32
785.716	504.48
785.897	432.8
786.079	467.62
786.26	467.62
786.441	522.91
786.623	414.37
786.804	502.44
786.985	471.72
787.167	477.86
787.348	490.15
787.529	467.62
787.71	475.81
787.891	416.42
788.073	451.24
788.254	406.18
788.435	463.52
788.616	430.76
788.797	377.51
788.978	473.76
789.159	365.22
789.34	334.5
789.522	293.54
789.703	414.37
789.884	379.56
790.065	373.41
790.246	367.27
790.427	342.69
790.607	397.99
790.788	344.74
790.969	373.41
791.15	385.7
791.331	438.95
791.512	397.99
791.693	285.35
791.874	291.49
792.054	367.27
792.235	383.65
792.416	352.93
792.597	369.32
792.778	361.13
792.958	332.45
793.139	354.98
793.32	430.76
793.5	365.22
793.681	393.89
793.862	352.93
794.042	414.37
794.223	311.97
794.404	391.84
794.584	320.17
794.765	273.06
794.945	293.54
795.126	328.36
795.306	283.3
795.487	367.27
795.667	289.45
795.848	322.21
796.028	328.36
796.209	334.5
796.389	377.51
796.57	342.69
796.75	264.87
796.93	320.17
797.111	244.39
797.291	322.21
797.471	314.02
797.652	283.3
797.832	232.1
798.012	279.21
798.192	264.87
798.373	291.49
798.553	234.15
798.733	266.92
798.913	334.5
799.093	250.53
799.274	191.14
799.454	246.44
799.634	250.53
799.814	303.78
799.994	256.68
800.174	258.73
800.354	225.96
800.534	305.83
800.714	228.01
800.894	223.91
801.074	311.97
801.254	236.2
801.434	217.77
801.614	258.73
801.794	232.1
801.974	635.55
802.154	252.58
802.334	266.92
802.514	195.24
802.693	225.96
802.873	207.53
803.053	338.6
803.233	283.3
803.413	219.82
803.592	201.38
803.772	180.9
803.952	217.77
804.131	234.15
804.311	283.3
804.491	264.87
804.67	205.48
804.85	238.25
805.03	262.82
805.209	174.76
805.389	211.62
805.568	178.86
805.748	191.14
805.928	201.38
806.107	170.66
806.287	262.82
806.466	244.39
806.646	221.86
806.825	182.95
807.004	156.33
807.184	152.23
807.363	178.86
807.543	189.1
807.722	230.06
807.901	262.82
808.081	141.99
808.26	119.46
808.439	139.94
808.619	168.62
808.798	211.62
808.977	158.38
809.156	193.19
809.336	168.62
809.515	195.24
809.694	158.38
809.873	195.24
810.052	185
810.231	275.11
810.411	178.86
810.59	156.33
810.769	182.95
810.948	174.76
811.127	148.14
811.306	178.86
811.485	131.75
811.664	203.43
811.843	156.33
812.022	101.03
812.201	193.19
812.38	168.62
812.559	117.42
812.737	160.42
812.916	137.9
813.095	221.86
813.274	90.79
813.453	127.66
813.632	207.53
813.811	221.86
813.989	162.47
814.168	131.75
814.347	127.66
814.526	174.76
814.704	158.38
814.883	185
815.062	133.8
815.24	158.38
815.419	146.09
815.598	72.36
815.776	148.14
815.955	180.9
816.133	170.66
816.312	207.53
816.49	96.94
816.669	162.47
816.847	94.89
817.026	135.85
817.204	164.52
817.383	133.8
817.561	66.22
817.74	205.48
817.918	127.66
818.097	154.28
818.275	121.51
818.453	129.7
818.632	166.57
818.81	107.18
818.988	90.79
819.167	137.9
819.345	115.37
819.523	121.51
819.701	111.27
819.879	121.51
820.058	156.33
820.236	185
820.414	129.7
820.592	150.18
820.77	74.41
820.948	176.81
821.127	103.08
821.305	209.58
821.483	88.75
821.661	137.9
821.839	107.18
822.017	119.46
822.195	35.5
822.373	117.42
822.551	96.94
822.729	137.9
822.907	109.23
823.085	86.7
823.262	105.13
823.44	64.17
823.618	49.83
823.796	199.34
823.974	139.94
824.152	101.03
824.329	92.84
824.507	101.03
824.685	125.61
824.863	47.79
825.04	70.31
825.218	76.46
825.396	148.14
825.574	133.8
825.751	49.83
825.929	129.7
826.107	45.74
826.284	158.38
826.462	84.65
826.639	76.46
826.817	27.31
826.994	107.18
827.172	129.7
827.349	195.24
827.527	211.62
827.704	90.79
827.882	113.32
828.059	123.56
828.237	129.7
828.414	146.09
828.591	23.21
828.769	60.07
828.946	58.03
829.124	76.46
829.301	148.14
829.478	105.13
829.655	92.84
829.833	45.74
830.01	41.64
830.187	109.23
830.364	51.88
830.542	68.27
830.719	53.93
830.896	51.88
831.073	90.79
831.25	62.12
831.427	133.8
831.604	123.56
831.782	8.87
831.959	39.59
832.136	37.55
832.313	31.4
832.49	72.36
832.667	68.27
832.844	121.51
833.021	115.37
833.198	125.61
833.374	31.4
833.551	47.79
833.728	80.55
833.905	113.32
834.082	90.79
834.259	68.27
834.436	64.17
834.612	6.83
834.789	-3.41
834.966	105.13
835.143	74.41
835.319	84.65
835.496	164.52
835.673	58.03
835.85	92.84
836.026	82.6
836.203	117.42
836.38	25.26
836.556	82.6
836.733	15.02
836.909	101.03
837.086	96.94
837.262	51.88
837.439	23.21
837.616	64.17
837.792	35.5
837.968	37.55
838.145	78.51
838.321	66.22
838.498	51.88
838.674	8.87
838.851	35.5
839.027	74.41
839.203	0.68
839.38	92.84
839.556	12.97
839.732	119.46
839.909	74.41
840.085	92.84
840.261	41.64
840.437	92.84
840.614	37.55
840.79	47.79
840.966	101.03
841.142	47.79
841.318	66.22
841.494	58.03
841.671	80.55
841.847	45.74
842.023	53.93
842.199	37.55
842.375	2.73
842.551	37.55
842.727	-32.08
842.903	41.64
843.079	29.35
843.255	66.22
843.431	47.79
843.607	129.7
843.783	-40.28
843.959	117.42
844.134	62.12
844.31	-50.52
844.486	21.16
844.662	12.97
844.838	66.22
845.013	103.08
845.189	49.83
845.365	74.41
845.541	78.51
845.716	80.55
845.892	90.79
846.068	-56.66
846.244	10.92
846.419	41.64
846.595	6.83
846.77	37.55
846.946	39.59
847.122	88.75
847.297	-27.99
847.473	72.36
847.648	43.69
847.824	88.75
847.999	27.31
848.175	0.68
848.35	37.55
848.526	64.17
848.701	70.31
848.876	129.7
849.052	101.03
849.227	25.26
849.403	78.51
849.578	-3.41
849.753	-1.37
849.929	53.93
850.104	103.08
850.279	31.4
850.454	4.78
850.63	-11.61
850.805	-1.37
850.98	92.84
851.155	45.74
851.33	51.88
851.505	2.73
851.681	37.55
851.856	8.87
852.031	68.27
852.206	0.68
852.381	82.6
852.556	47.79
852.731	17.07
852.906	2.73
853.081	92.84
853.256	49.83
853.431	49.83
853.606	51.88
853.781	27.31
853.956	-25.94
854.131	58.03
854.305	51.88
854.48	55.98
854.655	58.03
854.83	21.16
855.005	-7.51
855.18	25.26
855.354	8.87
855.529	76.46
855.704	49.83
855.879	49.83
856.053	23.21
856.228	66.22
856.403	17.07
856.577	37.55
856.752	-3.41
856.926	43.69
857.101	53.93
857.276	-19.8
857.45	-30.04
857.625	33.45
857.799	49.83
857.974	41.64
858.148	-25.94
858.323	37.55
858.497	70.31
858.672	-3.41
858.846	-40.28
859.02	55.98
859.195	-68.95
859.369	8.87
859.543	25.26
859.718	6.83
859.892	37.55
860.066	68.27
860.241	72.36
860.415	27.31
860.589	58.03
860.763	-3.41
860.938	-1.37
861.112	15.02
861.286	21.16
861.46	12.97
861.634	6.83
861.808	27.31
861.982	39.59
862.157	78.51
862.331	-44.37
862.505	0.68
862.679	6.83
862.853	105.13
863.027	33.45
863.201	-11.61
863.375	-50.52
863.549	53.93
863.722	35.5
863.896	-21.84
864.07	4.78
864.244	27.31
864.418	6.83
864.592	25.26
864.766	4.78
864.939	-5.46
865.113	21.16
865.287	-3.41
865.461	21.16
865.634	-1.37
865.808	23.21
865.982	47.79
866.156	33.45
866.329	17.07
866.503	-32.08
866.676	25.26
866.85	78.51
867.024	72.36
867.197	-13.65
867.371	-11.61
867.544	84.65
867.718	10.92
867.891	-7.51
868.065	27.31
868.238	55.98
868.412	121.51
868.585	-50.52
868.759	29.35
868.932	-48.47
869.105	41.64
869.279	51.88
869.452	8.87
869.625	0.68
869.799	-40.28
869.972	49.83
870.145	43.69
870.319	10.92
870.492	49.83
870.665	82.6
870.838	6.83
871.011	4.78
871.185	92.84
871.358	-60.76
871.531	-40.28
871.704	10.92
871.877	21.16
872.05	-105.81
872.223	41.64
872.396	-52.56
872.569	43.69
872.742	12.97
872.915	39.59
873.088	-34.13
873.261	-50.52
873.434	62.12
873.607	-34.13
873.78	23.21
873.953	-52.56
874.126	72.36
874.299	4.78
874.471	-27.99
874.644	23.21
874.817	103.08
874.99	10.92
875.163	-3.41
875.335	-7.51
875.508	25.26
875.681	27.31
875.853	10.92
876.026	-11.61
876.199	55.98
876.371	58.03
876.544	-3.41
876.717	90.79
876.889	47.79
877.062	-7.51
877.234	-21.84
877.407	49.83
877.579	-17.75
877.752	66.22
877.924	10.92
878.097	-30.04
878.269	4.78
878.442	49.83
878.614	-42.32
878.786	35.5
878.959	37.55
879.131	-3.41
879.303	31.4
879.476	21.16
879.648	-48.47
879.82	45.74
879.993	2.73
880.165	-3.41
880.337	-52.56
880.509	2.73
880.681	-60.76
880.854	12.97
881.026	15.02
881.198	88.75
881.37	15.02
881.542	27.31
881.714	2.73
881.886	6.83
882.058	19.11
882.23	68.27
882.402	-32.08
882.574	6.83
882.746	53.93
882.918	-5.46
883.09	62.12
883.262	74.41
883.434	-23.89
883.606	-3.41
883.778	-19.8
883.95	27.31
884.122	-13.65
884.293	6.83
884.465	6.83
884.637	37.55
884.809	2.73
884.98	-58.71
885.152	43.69
885.324	-11.61
885.496	10.92
885.667	-25.94
885.839	4.78
886.011	-7.51
886.182	64.17
886.354	37.55
886.525	66.22
886.697	31.4
886.869	0.68
887.04	-21.84
887.212	-50.52
887.383	86.7
887.555	-9.56
887.726	-60.76
887.897	-11.61
888.069	-15.7
888.24	107.18
888.412	49.83
888.583	17.07
888.754	-13.65
888.926	-17.75
889.097	19.11
889.268	-77.14
889.44	29.35
889.611	-27.99
889.782	-3.41
889.953	-11.61
890.125	33.45
890.296	-1.37
890.467	-36.18
890.638	-1.37
890.809	-40.28
890.98	-5.46
891.151	19.11
891.323	113.32
891.494	25.26
891.665	19.11
891.836	27.31
892.007	15.02
892.178	10.92
892.349	-48.47
892.52	-15.7
892.691	2.73
892.862	25.26
893.032	-5.46
893.203	-3.41
893.374	-17.75
893.545	62.12
893.716	-64.85
893.887	8.87
894.057	-60.76
894.228	-13.65
894.399	-11.61
894.57	-40.28
894.74	25.26
894.911	-27.99
895.082	-66.9
895.253	-85.33
895.423	-46.42
895.594	31.4
895.764	-19.8
895.935	-13.65
896.106	82.6
896.276	6.83
896.447	-11.61
896.617	-9.56
896.788	-64.85
896.958	58.03
897.129	8.87
897.299	29.35
897.47	-1.37
897.64	-30.04
897.81	21.16
897.981	45.74
898.151	-81.24
898.322	21.16
898.492	51.88
898.662	23.21
898.832	12.97
899.003	-23.89
899.173	-3.41
899.343	-23.89
899.513	-13.65
