Data from USB4F104151__55__11-05-44-848.txt Node

Date: Wed Mar 12 11:05:44 EDT 2025
User: louis
Spectrometer: USB4F10415
Trigger mode: 4
Integration Time (sec): 2.000000E-2
Scans to average: 1
Electric dark correction enabled: true
Nonlinearity correction enabled: false
Boxcar width: 0
XAxis mode: Wavelengths
Number of Pixels in Spectrum: 3648
>>>>>Begin Spectral Data<<<<<
178.204	13.82
178.424	13.82
178.644	13.82
178.864	-109.05
179.084	-94.72
179.304	-16.9
179.524	-0.51
179.744	-55.81
179.964	42.5
180.184	1.54
180.404	7.68
180.624	1.54
180.844	44.54
181.064	-2.56
181.283	7.68
181.503	-14.85
181.723	-14.85
181.943	-10.75
182.163	38.4
182.383	44.54
182.602	81.41
182.822	89.6
183.042	81.41
183.262	15.87
183.482	17.92
183.701	-16.9
183.921	93.69
184.141	65.02
184.361	26.11
184.58	-66.05
184.8	60.93
185.02	26.11
185.239	40.45
185.459	22.02
185.679	60.93
185.898	5.63
186.118	87.55
186.338	15.87
186.557	79.36
186.777	50.69
186.997	-16.9
187.216	50.69
187.436	24.06
187.655	77.31
187.875	42.5
188.095	7.68
188.314	77.31
188.534	67.07
188.753	-31.23
188.973	-27.14
189.192	36.35
189.412	65.02
189.631	13.82
189.851	62.98
190.07	48.64
190.29	-2.56
190.509	67.07
190.729	13.82
190.948	34.3
191.168	165.37
191.387	67.07
191.607	99.84
191.826	58.88
192.045	-23.04
192.265	-18.94
192.484	13.82
192.704	3.58
192.923	50.69
193.142	58.88
193.362	13.82
193.581	1.54
193.8	30.21
194.02	124.41
194.239	56.83
194.458	-2.56
194.678	46.59
194.897	-0.51
195.116	32.26
195.335	-37.38
195.555	54.78
195.774	-20.99
195.993	58.88
196.212	19.97
196.432	48.64
196.651	22.02
196.87	-12.8
197.089	36.35
197.308	28.16
197.528	3.58
197.747	17.92
197.966	-10.75
198.185	50.69
198.404	58.88
198.623	11.78
198.842	42.5
199.062	40.45
199.281	87.55
199.5	54.78
199.719	81.41
199.938	32.26
200.157	67.07
200.376	81.41
200.595	52.74
200.814	46.59
201.033	60.93
201.252	48.64
201.471	56.83
201.69	85.5
201.909	-6.66
202.128	38.4
202.347	46.59
202.566	7.68
202.785	40.45
203.004	58.88
203.223	101.89
203.442	-27.14
203.661	-4.61
203.879	56.83
204.098	97.79
204.317	46.59
204.536	110.08
204.755	-2.56
204.974	73.21
205.193	15.87
205.411	99.84
205.63	24.06
205.849	-2.56
206.068	69.12
206.287	22.02
206.505	40.45
206.724	48.64
206.943	19.97
207.162	114.17
207.381	93.69
207.599	148.99
207.818	11.78
208.037	-12.8
208.255	48.64
208.474	30.21
208.693	7.68
208.911	71.17
209.13	85.5
209.349	58.88
209.567	30.21
209.786	79.36
210.005	34.3
210.223	5.63
210.442	-27.14
210.661	3.58
210.879	-72.19
211.098	79.36
211.316	-49.66
211.535	54.78
211.753	-39.42
211.972	79.36
212.191	-43.52
212.409	3.58
212.628	24.06
212.846	5.63
213.065	-16.9
213.283	71.17
213.502	69.12
213.72	32.26
213.938	24.06
214.157	26.11
214.375	19.97
214.594	56.83
214.812	-14.85
215.031	108.03
215.249	22.02
215.467	71.17
215.686	48.64
215.904	48.64
216.122	26.11
216.341	-37.38
216.559	-6.66
216.778	50.69
216.996	-14.85
217.214	62.98
217.432	-12.8
217.651	-25.09
217.869	5.63
218.087	-0.51
218.306	24.06
218.524	75.26
218.742	38.4
218.96	97.79
219.179	11.78
219.397	62.98
219.615	7.68
219.833	17.92
220.051	67.07
220.27	62.98
220.488	-14.85
220.706	56.83
220.924	5.63
221.142	34.3
221.36	-37.38
221.578	48.64
221.796	-96.77
222.015	-31.23
222.233	36.35
222.451	83.45
222.669	44.54
222.887	122.37
223.105	-0.51
223.323	40.45
223.541	9.73
223.759	130.56
223.977	-49.66
224.195	112.13
224.413	91.65
224.631	71.17
224.849	48.64
225.067	89.6
225.285	9.73
225.503	-53.76
225.721	-6.66
225.939	-35.33
226.157	40.45
226.375	103.93
226.592	17.92
226.81	13.82
227.028	-6.66
227.246	75.26
227.464	50.69
227.682	62.98
227.9	58.88
228.117	73.21
228.335	56.83
228.553	30.21
228.771	22.02
228.989	9.73
229.206	73.21
229.424	30.21
229.642	-18.94
229.86	7.68
230.077	50.69
230.295	34.3
230.513	79.36
230.731	48.64
230.948	89.6
231.166	89.6
231.384	75.26
231.601	26.11
231.819	26.11
232.037	101.89
232.254	-14.85
232.472	28.16
232.689	-41.47
232.907	-0.51
233.125	24.06
233.342	-14.85
233.56	56.83
233.777	85.5
233.995	56.83
234.213	44.54
234.43	56.83
234.648	15.87
234.865	9.73
235.083	105.98
235.3	-20.99
235.518	95.74
235.735	130.56
235.953	34.3
236.17	38.4
236.388	46.59
236.605	38.4
236.822	73.21
237.04	62.98
237.257	22.02
237.475	24.06
237.692	87.55
237.909	54.78
238.127	83.45
238.344	71.17
238.562	28.16
238.779	34.3
238.996	-27.14
239.214	34.3
239.431	101.89
239.648	89.6
239.865	91.65
240.083	62.98
240.3	15.87
240.517	28.16
240.735	38.4
240.952	-0.51
241.169	95.74
241.386	67.07
241.603	122.37
241.821	34.3
242.038	36.35
242.255	67.07
242.472	56.83
242.689	58.88
242.907	79.36
243.124	1.54
243.341	-18.94
243.558	11.78
243.775	73.21
243.992	17.92
244.209	17.92
244.426	9.73
244.643	77.31
244.86	32.26
245.078	58.88
245.295	65.02
245.512	40.45
245.729	-20.99
245.946	-29.18
246.163	81.41
246.38	60.93
246.597	93.69
246.814	-8.7
247.031	22.02
247.248	19.97
247.464	30.21
247.681	52.74
247.898	42.5
248.115	58.88
248.332	34.3
248.549	89.6
248.766	65.02
248.983	52.74
249.2	24.06
249.417	34.3
249.633	11.78
249.85	77.31
250.067	3.58
250.284	46.59
250.501	42.5
250.717	-2.56
250.934	17.92
251.151	110.08
251.368	42.5
251.585	-8.7
251.801	-29.18
252.018	75.26
252.235	93.69
252.451	48.64
252.668	13.82
252.885	71.17
253.102	50.69
253.318	11.78
253.535	-8.7
253.752	22.02
253.968	-27.14
254.185	-43.52
254.401	36.35
254.618	112.13
254.835	122.37
255.051	-12.8
255.268	108.03
255.484	46.59
255.701	26.11
255.917	108.03
256.134	13.82
256.351	15.87
256.567	22.02
256.784	75.26
257	9.73
257.217	62.98
257.433	112.13
257.65	3.58
257.866	89.6
258.082	-4.61
258.299	97.79
258.515	62.98
258.732	-8.7
258.948	75.26
259.165	-47.62
259.381	54.78
259.597	5.63
259.814	56.83
260.03	11.78
260.246	95.74
260.463	46.59
260.679	40.45
260.895	-49.66
261.112	7.68
261.328	-23.04
261.544	99.84
261.761	85.5
261.977	38.4
262.193	50.69
262.409	3.58
262.626	67.07
262.842	3.58
263.058	58.88
263.274	54.78
263.49	77.31
263.707	-2.56
263.923	77.31
264.139	65.02
264.355	56.83
264.571	69.12
264.787	112.13
265.004	79.36
265.22	-18.94
265.436	36.35
265.652	1.54
265.868	-14.85
266.084	-20.99
266.3	42.5
266.516	71.17
266.732	30.21
266.948	38.4
267.164	87.55
267.38	19.97
267.596	138.75
267.812	71.17
268.028	-4.61
268.244	-12.8
268.46	89.6
268.676	85.5
268.892	108.03
269.108	79.36
269.324	-29.18
269.54	13.82
269.756	77.31
269.972	9.73
270.188	9.73
270.403	-0.51
270.619	97.79
270.835	-18.94
271.051	24.06
271.267	32.26
271.483	138.75
271.698	65.02
271.914	99.84
272.13	30.21
272.346	38.4
272.562	-2.56
272.777	85.5
272.993	58.88
273.209	58.88
273.425	91.65
273.64	22.02
273.856	42.5
274.072	69.12
274.287	-43.52
274.503	62.98
274.719	42.5
274.934	13.82
275.15	-2.56
275.366	50.69
275.581	46.59
275.797	-4.61
276.012	-6.66
276.228	40.45
276.444	-4.61
276.659	73.21
276.875	105.98
277.09	177.66
277.306	50.69
277.521	-16.9
277.737	58.88
277.952	50.69
278.168	48.64
278.383	40.45
278.599	-6.66
278.814	99.84
279.03	71.17
279.245	97.79
279.461	28.16
279.676	153.09
279.892	105.98
280.107	44.54
280.322	-14.85
280.538	58.88
280.753	-6.66
280.969	73.21
281.184	42.5
281.399	116.22
281.615	24.06
281.83	42.5
282.045	17.92
282.26	62.98
282.476	38.4
282.691	69.12
282.906	40.45
283.122	60.93
283.337	77.31
283.552	75.26
283.767	15.87
283.983	7.68
284.198	103.93
284.413	69.12
284.628	32.26
284.843	44.54
285.058	40.45
285.274	30.21
285.489	-14.85
285.704	5.63
285.919	36.35
286.134	26.11
286.349	54.78
286.564	103.93
286.779	46.59
286.995	93.69
287.21	44.54
287.425	44.54
287.64	56.83
287.855	67.07
288.07	-4.61
288.285	58.88
288.5	93.69
288.715	65.02
288.93	5.63
289.145	15.87
289.36	24.06
289.575	28.16
289.79	54.78
290.004	58.88
290.219	56.83
290.434	17.92
290.649	1.54
290.864	-6.66
291.079	-12.8
291.294	17.92
291.509	77.31
291.724	130.56
291.938	67.07
292.153	87.55
292.368	-0.51
292.583	67.07
292.798	9.73
293.012	56.83
293.227	73.21
293.442	50.69
293.657	46.59
293.871	132.61
294.086	52.74
294.301	48.64
294.516	28.16
294.73	58.88
294.945	28.16
295.16	-2.56
295.374	97.79
295.589	65.02
295.804	42.5
296.018	30.21
296.233	69.12
296.447	85.5
296.662	56.83
296.877	99.84
297.091	52.74
297.306	48.64
297.52	38.4
297.735	67.07
297.949	-33.28
298.164	105.98
298.378	56.83
298.593	67.07
298.807	1.54
299.022	65.02
299.236	67.07
299.451	15.87
299.665	40.45
299.88	22.02
300.094	7.68
300.309	58.88
300.523	75.26
300.737	1.54
300.952	26.11
301.166	112.13
301.381	-45.57
301.595	85.5
301.809	52.74
302.024	101.89
302.238	42.5
302.452	65.02
302.667	114.17
302.881	67.07
303.095	89.6
303.309	73.21
303.524	-10.75
303.738	5.63
303.952	-47.62
304.166	60.93
304.381	-6.66
304.595	108.03
304.809	-18.94
305.023	67.07
305.237	17.92
305.452	54.78
305.666	30.21
305.88	56.83
306.094	95.74
306.308	48.64
306.522	15.87
306.736	42.5
306.95	91.65
307.164	69.12
307.379	52.74
307.593	101.89
307.807	75.26
308.021	40.45
308.235	134.65
308.449	15.87
308.663	42.5
308.877	95.74
309.091	58.88
309.305	101.89
309.519	30.21
309.733	204.28
309.947	24.06
310.161	114.17
310.374	28.16
310.588	28.16
310.802	26.11
311.016	54.78
311.23	89.6
311.444	-23.04
311.658	38.4
311.872	85.5
312.085	91.65
312.299	97.79
312.513	65.02
312.727	-8.7
312.941	3.58
313.154	101.89
313.368	13.82
313.582	79.36
313.796	71.17
314.009	58.88
314.223	40.45
314.437	126.46
314.651	40.45
314.864	30.21
315.078	58.88
315.292	50.69
315.505	75.26
315.719	108.03
315.933	-0.51
316.146	46.59
316.36	73.21
316.573	-16.9
316.787	83.45
317.001	81.41
317.214	-10.75
317.428	69.12
317.641	7.68
317.855	116.22
318.068	-10.75
318.282	22.02
318.495	24.06
318.709	128.51
318.922	3.58
319.136	138.75
319.349	36.35
319.563	52.74
319.776	5.63
319.99	75.26
320.203	118.27
320.417	48.64
320.63	67.07
320.843	50.69
321.057	34.3
321.27	81.41
321.483	3.58
321.697	101.89
321.91	87.55
322.124	97.79
322.337	71.17
322.55	54.78
322.763	75.26
322.977	87.55
323.19	46.59
323.403	-6.66
323.617	99.84
323.83	30.21
324.043	36.35
324.256	62.98
324.469	-16.9
324.683	110.08
324.896	24.06
325.109	46.59
325.322	-20.99
325.535	26.11
325.748	87.55
325.962	97.79
326.175	5.63
326.388	128.51
326.601	26.11
326.814	58.88
327.027	-0.51
327.24	93.69
327.453	17.92
327.666	65.02
327.879	38.4
328.092	62.98
328.305	32.26
328.518	-47.62
328.731	34.3
328.944	1.54
329.157	81.41
329.37	52.74
329.583	26.11
329.796	108.03
330.009	-23.04
330.222	110.08
330.435	22.02
330.648	46.59
330.861	79.36
331.073	85.5
331.286	46.59
331.499	65.02
331.712	34.3
331.925	60.93
332.138	79.36
332.35	75.26
332.563	-18.94
332.776	101.89
332.989	17.92
333.202	52.74
333.414	42.5
333.627	71.17
333.84	30.21
334.053	48.64
334.265	62.98
334.478	32.26
334.691	48.64
334.903	95.74
335.116	30.21
335.329	101.89
335.541	60.93
335.754	95.74
335.966	19.97
336.179	3.58
336.392	34.3
336.604	175.61
336.817	30.21
337.029	26.11
337.242	44.54
337.454	67.07
337.667	60.93
337.88	103.93
338.092	17.92
338.305	105.98
338.517	62.98
338.729	124.41
338.942	62.98
339.154	46.59
339.367	34.3
339.579	108.03
339.792	3.58
340.004	79.36
340.217	42.5
340.429	108.03
340.641	81.41
340.854	138.75
341.066	69.12
341.278	52.74
341.491	42.5
341.703	103.93
341.915	3.58
342.128	73.21
342.34	60.93
342.552	155.13
342.764	79.36
342.977	9.73
343.189	136.7
343.401	54.78
343.613	77.31
343.826	26.11
344.038	50.69
344.25	42.5
344.462	-10.75
344.674	17.92
344.886	93.69
345.099	24.06
345.311	3.58
345.523	50.69
345.735	103.93
345.947	-6.66
346.159	-6.66
346.371	58.88
346.583	52.74
346.795	130.56
347.007	-25.09
347.219	87.55
347.431	13.82
347.643	99.84
347.855	-14.85
348.067	54.78
348.279	38.4
348.491	24.06
348.703	163.33
348.915	-12.8
349.127	-4.61
349.339	46.59
349.551	36.35
349.763	58.88
349.975	-0.51
350.187	71.17
350.399	30.21
350.61	87.55
350.822	38.4
351.034	22.02
351.246	26.11
351.458	-2.56
351.669	120.32
351.881	17.92
352.093	62.98
352.305	62.98
352.517	-10.75
352.728	42.5
352.94	142.85
353.152	75.26
353.363	9.73
353.575	30.21
353.787	-12.8
353.999	81.41
354.21	71.17
354.422	95.74
354.633	7.68
354.845	161.28
355.057	62.98
355.268	-4.61
355.48	87.55
355.692	60.93
355.903	32.26
356.115	120.32
356.326	-23.04
356.538	91.65
356.749	13.82
356.961	38.4
357.172	116.22
357.384	116.22
357.595	105.98
357.807	56.83
358.018	-18.94
358.23	165.37
358.441	128.51
358.653	17.92
358.864	136.7
359.075	24.06
359.287	24.06
359.498	99.84
359.709	58.88
359.921	42.5
360.132	52.74
360.344	112.13
360.555	71.17
360.766	101.89
360.977	52.74
361.189	95.74
361.4	120.32
361.611	17.92
361.823	71.17
362.034	56.83
362.245	42.5
362.456	99.84
362.667	42.5
362.879	79.36
363.09	-12.8
363.301	151.04
363.512	89.6
363.723	-27.14
363.935	19.97
364.146	89.6
364.357	58.88
364.568	24.06
364.779	67.07
364.99	48.64
365.201	75.26
365.412	112.13
365.623	13.82
365.834	83.45
366.045	56.83
366.256	58.88
366.467	54.78
366.678	26.11
366.889	15.87
367.1	65.02
367.311	73.21
367.522	34.3
367.733	17.92
367.944	-12.8
368.155	65.02
368.366	89.6
368.577	101.89
368.788	134.65
368.999	40.45
369.209	58.88
369.42	126.46
369.631	75.26
369.842	60.93
370.053	73.21
370.264	56.83
370.474	105.98
370.685	-2.56
370.896	-6.66
371.107	99.84
371.317	-51.71
371.528	3.58
371.739	44.54
371.95	56.83
372.16	48.64
372.371	26.11
372.582	97.79
372.792	91.65
373.003	157.18
373.214	85.5
373.424	83.45
373.635	44.54
373.846	91.65
374.056	79.36
374.267	32.26
374.477	50.69
374.688	22.02
374.898	157.18
375.109	-0.51
375.319	132.61
375.53	26.11
375.74	17.92
375.951	128.51
376.161	22.02
376.372	73.21
376.582	36.35
376.793	95.74
377.003	58.88
377.214	13.82
377.424	1.54
377.635	77.31
377.845	1.54
378.055	24.06
378.266	46.59
378.476	44.54
378.686	-14.85
378.897	22.02
379.107	40.45
379.317	83.45
379.528	54.78
379.738	67.07
379.948	48.64
380.158	122.37
380.369	120.32
380.579	87.55
380.789	73.21
380.999	114.17
381.21	126.46
381.42	89.6
381.63	62.98
381.84	97.79
382.05	89.6
382.261	58.88
382.471	79.36
382.681	48.64
382.891	77.31
383.101	91.65
383.311	79.36
383.521	-0.51
383.731	46.59
383.941	40.45
384.151	110.08
384.361	87.55
384.571	46.59
384.781	97.79
384.991	101.89
385.201	99.84
385.411	15.87
385.621	36.35
385.831	99.84
386.041	42.5
386.251	108.03
386.461	116.22
386.671	52.74
386.881	67.07
387.091	75.26
387.301	103.93
387.511	56.83
387.72	44.54
387.93	85.5
388.14	9.73
388.35	40.45
388.56	58.88
388.769	95.74
388.979	99.84
389.189	28.16
389.399	56.83
389.609	134.65
389.818	95.74
390.028	52.74
390.238	73.21
390.447	89.6
390.657	30.21
390.867	112.13
391.076	52.74
391.286	34.3
391.496	73.21
391.705	56.83
391.915	65.02
392.125	95.74
392.334	95.74
392.544	71.17
392.753	130.56
392.963	-4.61
393.172	52.74
393.382	67.07
393.591	138.75
393.801	54.78
394.01	95.74
394.22	155.13
394.429	77.31
394.639	44.54
394.848	134.65
395.058	124.41
395.267	79.36
395.477	91.65
395.686	208.38
395.895	146.94
396.105	118.27
396.314	87.55
396.524	79.36
396.733	62.98
396.942	144.89
397.152	79.36
397.361	136.7
397.57	116.22
397.78	151.04
397.989	103.93
398.198	144.89
398.407	75.26
398.617	26.11
398.826	54.78
399.035	79.36
399.244	103.93
399.453	144.89
399.663	171.52
399.872	138.75
400.081	157.18
400.29	124.41
400.499	85.5
400.708	157.18
400.917	73.21
401.127	138.75
401.336	140.8
401.545	79.36
401.754	136.7
401.963	151.04
402.172	140.8
402.381	140.8
402.59	105.98
402.799	146.94
403.008	120.32
403.217	83.45
403.426	169.47
403.635	148.99
403.844	169.47
404.053	194.05
404.262	202.24
404.471	214.52
404.68	183.81
404.888	194.05
405.097	153.09
405.306	181.76
405.515	99.84
405.724	93.69
405.933	175.61
406.142	142.85
406.35	144.89
406.559	206.33
406.768	155.13
406.977	218.62
407.185	259.58
407.394	196.09
407.603	179.71
407.812	290.3
408.02	261.63
408.229	214.52
408.438	282.11
408.646	255.48
408.855	249.34
409.064	235
409.272	284.16
409.481	302.59
409.69	337.4
409.898	376.31
410.107	376.31
410.315	304.64
410.524	300.54
410.733	386.55
410.941	411.13
411.15	329.21
411.358	419.32
411.567	423.42
411.775	452.09
411.984	441.85
412.192	419.32
412.401	515.58
412.609	468.47
412.818	540.15
413.026	552.44
413.234	484.86
413.443	544.25
413.651	538.1
413.86	620.02
414.068	591.35
414.276	699.89
414.485	648.69
414.693	628.21
414.901	794.1
415.11	687.61
415.318	753.14
415.526	712.18
415.734	859.63
415.943	843.25
416.151	884.21
416.359	835.06
416.567	902.64
416.776	1017.33
416.984	1009.14
417.192	959.99
417.4	1056.24
417.608	1029.62
417.817	1146.35
418.025	1086.96
418.233	1197.55
418.441	1195.5
418.649	1318.38
418.857	1422.83
419.065	1349.1
419.273	1424.87
419.481	1396.2
419.689	1535.46
419.897	1590.76
420.105	1582.57
420.313	1652.2
420.521	1689.06
420.729	1668.58
420.937	1826.28
421.145	1834.47
421.353	1998.31
421.561	1996.26
421.769	1957.35
421.977	2188.77
422.185	2170.33
422.393	2319.84
422.601	2459.1
422.809	2280.93
423.017	2387.42
423.224	2571.74
423.432	2647.51
423.64	2700.76
423.848	2811.35
424.056	2784.73
424.263	3122.64
424.471	3007.95
424.679	3118.54
424.887	3192.27
425.094	3288.53
425.302	3450.32
425.51	3429.84
425.718	3673.54
425.925	3663.3
426.133	3775.94
426.341	4093.38
426.548	4085.19
426.756	4144.58
426.964	4236.74
427.171	4459.96
427.379	4529.59
427.586	4730.3
427.794	4826.55
428.001	5002.68
428.209	5217.71
428.417	5156.27
428.624	5537.2
428.832	5461.42
429.039	5453.23
429.247	5639.59
429.454	5987.75
429.662	6426.01
429.869	6026.66
430.076	6376.86
430.284	6305.18
430.491	6589.85
430.699	6970.77
430.906	6784.41
431.114	6995.35
431.321	7406.99
431.528	7327.12
431.736	7755.15
431.943	8283.52
432.15	7835.02
432.358	8023.43
432.565	8568.19
432.772	8428.93
432.979	8985.97
433.187	9239.92
433.394	9100.66
433.601	9665.9
433.808	9629.04
434.016	9694.57
434.223	10188.13
434.43	10679.65
434.637	10489.18
434.844	11062.62
435.052	11396.43
435.259	11281.75
435.466	11455.83
435.673	11414.87
435.88	12137.8
436.087	12684.61
436.294	12555.58
436.501	12258.63
436.708	12641.6
436.915	13010.23
437.122	13661.49
437.329	13563.19
437.537	14148.9
437.743	14294.31
437.95	14040.36
438.157	15035.67
438.364	15269.14
438.571	15338.77
438.778	15719.7
438.985	16807.17
439.192	16143.63
439.399	16809.22
439.606	16385.29
439.813	17427.7
440.02	18044.14
440.227	17894.64
440.433	17720.56
440.64	18300.14
440.847	18164.97
441.054	18744.55
441.261	19885.26
441.467	19408.09
441.674	20456.65
441.881	20993.22
442.088	21083.33
442.294	20751.56
442.501	21087.42
442.708	21789.88
442.914	22525.1
443.121	23291.04
443.328	22932.64
443.534	24425.61
443.741	23977.11
443.948	23368.86
444.154	25164.93
444.361	25052.29
444.568	25115.78
444.774	24937.6
444.981	25330.81
445.187	26074.23
445.394	27223.14
445.6	26887.27
445.807	29566.01
446.013	28216.4
446.22	29248.58
446.426	29688.89
446.633	29989.94
446.839	30790.7
447.046	29819.96
447.252	31618.08
447.459	31417.38
447.665	31300.64
447.871	32801.8
448.078	33833.98
448.284	32230.42
448.491	33465.35
448.697	34495.47
448.903	35036.14
449.11	35138.54
449.316	34442.23
449.522	35398.63
449.728	36170.71
449.935	36355.03
450.141	36164.57
450.347	37243.85
450.553	35910.62
450.76	36260.82
450.966	37632.96
451.172	37153.74
451.378	37874.62
451.584	37186.5
451.791	38050.75
451.997	38087.61
452.203	38255.54
452.409	38042.56
452.615	38230.97
452.821	36625.36
453.027	36537.3
453.233	38329.27
453.44	36379.6
453.646	36973.52
453.852	37272.52
454.058	37753.79
454.264	36600.79
454.47	37221.32
454.676	36441.04
454.882	37649.35
455.088	34489.33
455.294	34892.78
455.5	35466.21
455.705	35232.74
455.911	34049.02
456.117	33594.37
456.323	33057.8
456.529	30723.12
456.735	32687.12
456.941	31656.99
457.147	31116.33
457.352	30123.06
457.558	29750.33
457.764	29797.43
457.97	29340.74
458.176	28671.05
458.381	28462.16
458.587	27221.09
458.793	27184.23
458.999	25820.28
459.204	27567.2
459.41	26977.38
459.616	24994.95
459.821	24816.77
460.027	25005.19
460.233	24302.73
460.438	23266.46
460.644	23540.89
460.85	22076.59
461.055	22144.17
461.261	21798.07
461.466	20294.86
461.672	19817.68
461.878	21245.12
462.083	19737.81
462.289	19676.37
462.494	19123.42
462.7	18420.97
462.905	17956.08
463.111	18638.05
463.316	18846.94
463.522	18384.1
463.727	18273.51
463.932	18152.68
464.138	17898.73
464.343	17833.2
464.549	17521.91
464.754	18081
464.959	17949.93
465.165	17704.18
465.37	17345.78
465.575	16696.58
465.781	17458.42
465.986	17347.83
466.191	16700.67
466.397	16409.86
466.602	15844.62
466.807	16487.68
467.012	16168.2
467.218	16207.11
467.423	15856.91
467.628	16096.52
467.833	16825.6
468.038	16164.11
468.244	15836.43
468.449	15971.6
468.654	15768.85
468.859	15383.83
469.064	15711.5
469.269	14824.73
469.474	15052.06
469.679	15367.45
469.885	14910.75
470.09	15068.44
470.295	14955.8
470.5	14734.62
470.705	14654.75
470.91	14259.49
471.115	14198.06
471.32	14564.64
471.525	14056.75
471.73	13909.29
471.935	14116.14
472.139	13393.2
472.344	13628.72
472.549	13604.14
472.754	13661.49
472.959	13286.71
473.164	12909.88
473.369	12707.13
473.574	12969.27
473.778	12938.55
473.983	13014.33
474.188	12670.27
474.393	12105.03
474.598	12385.6
474.802	12320.07
475.007	12184.9
475.212	12062.02
475.417	11740.49
475.621	11576.66
475.826	11509.07
476.031	11253.08
476.235	11320.66
476.44	11322.71
476.645	11228.5
476.849	11304.28
477.054	11244.88
477.259	10679.65
477.463	10784.09
477.668	10456.42
477.872	10661.21
478.077	10499.42
478.282	10366.31
478.486	10186.08
478.691	10286.44
478.895	10184.04
479.1	9934.18
479.304	10169.7
479.509	9928.04
479.713	10059.11
479.918	9770.35
480.122	9586.03
480.326	9825.64
480.531	9850.22
480.735	9610.61
480.94	9659.76
481.144	10005.86
481.348	9311.6
481.553	9389.42
481.757	9450.86
481.961	9325.94
482.166	9657.71
482.37	9678.19
482.574	9305.46
482.778	9377.14
482.983	9487.73
483.187	9323.89
483.391	9463.15
483.595	9217.4
483.8	9233.78
484.004	9520.49
484.208	9459.06
484.412	9452.91
484.616	9540.97
484.821	9106.81
485.025	9217.4
485.229	9176.44
485.433	9284.98
485.637	9307.51
485.841	9170.29
486.045	9366.9
486.249	9344.37
486.453	9162.1
486.657	9366.9
486.861	9485.68
487.065	9229.68
487.269	9260.4
487.473	9289.07
487.677	9399.66
487.881	9323.89
488.085	9225.59
488.289	9450.86
488.493	9397.62
488.697	9340.27
488.901	9401.71
489.105	9389.42
489.309	9536.88
489.512	9370.99
489.716	9452.91
489.92	9459.06
490.124	9530.73
490.328	9543.02
490.531	9444.72
490.735	9583.98
490.939	9764.2
491.143	9538.93
491.346	9483.63
491.55	9690.48
491.754	9950.57
491.958	9839.98
492.161	9743.72
492.365	9932.14
492.569	9813.35
492.772	9872.75
492.976	10073.45
493.18	9905.51
493.383	9991.53
493.587	10192.23
493.79	10202.47
493.994	10138.98
494.197	10577.25
494.401	10311.01
494.605	10327.39
494.808	10569.05
495.012	10679.65
495.215	10802.52
495.419	10800.48
495.622	10712.41
495.825	10894.68
496.029	10945.88
496.232	11029.85
496.436	10976.6
496.639	11535.7
496.843	11431.25
497.046	11400.53
497.249	11722.06
497.453	11828.56
497.656	11838.8
497.859	11789.64
498.063	11971.91
498.266	12338.5
498.469	12379.46
498.673	12244.29
498.876	12471.62
499.079	12727.61
499.282	12539.2
499.485	13020.47
499.689	12780.86
499.892	13210.93
500.095	13231.41
500.298	13468.98
500.501	13354.29
500.705	13747.5
500.908	13890.86
501.111	14161.19
501.314	14249.25
501.517	14578.98
501.72	14519.59
501.923	14570.79
502.126	14939.42
502.329	14947.61
502.532	15148.31
502.735	15467.8
502.938	15410.45
503.141	15748.37
503.344	15897.87
503.547	15934.73
503.75	16059.66
503.953	16358.66
504.156	16332.04
504.359	16528.64
504.562	16618.75
504.765	16968.96
504.968	17317.11
505.17	17292.54
505.373	17358.07
505.576	17911.02
505.779	17605.88
505.982	18150.64
506.185	18283.75
506.387	18468.07
506.59	18472.17
506.793	19270.87
506.996	19051.74
507.198	19414.23
507.401	19248.35
507.604	19481.81
507.807	19838.16
508.009	20190.41
508.212	20137.16
508.415	20468.94
508.617	20657.35
508.82	20757.7
509.022	20563.14
509.225	21318.84
509.428	21466.3
509.63	21628.09
509.833	21832.88
510.035	22363.31
510.238	21890.23
510.44	22570.15
510.643	22975.65
510.845	22903.97
511.048	22873.25
511.25	23295.13
511.453	23315.61
511.655	24487.05
511.858	23745.69
512.06	24118.42
512.262	24388.75
512.465	24261.77
512.667	25242.75
512.87	25425.02
513.072	25218.18
513.274	25613.43
513.477	26147.95
513.679	26045.55
513.881	26440.81
514.084	26506.35
514.286	26625.13
514.488	26885.22
514.69	27626.59
514.893	27266.14
515.095	27755.61
515.297	28435.53
515.499	27941.97
515.701	28755.02
515.904	28701.77
516.106	28765.26
516.308	29273.15
516.51	29725.75
516.712	29549.63
516.914	30159.92
517.116	30364.72
517.318	30501.93
517.52	30510.13
517.722	30899.24
517.925	31067.17
518.127	31702.04
518.329	31855.64
518.531	31575.07
518.733	32123.93
518.935	32662.54
519.136	32402.45
519.338	33618.94
519.54	33649.66
519.742	33831.93
519.944	34036.73
520.146	34452.47
520.348	34317.3
520.55	34599.92
520.752	34540.53
520.954	35087.34
521.155	35173.35
521.357	35689.44
521.559	35927
521.761	36047.83
521.963	36117.46
522.164	36568.02
522.366	36588.5
522.568	36916.17
522.77	37522.37
522.971	37520.32
523.173	37884.86
523.375	38034.36
523.576	37979.07
523.778	38554.55
523.98	38689.71
524.181	38894.51
524.383	38755.25
524.584	39504.81
524.786	39510.95
524.988	39420.84
525.189	39906.21
525.391	40182.68
525.592	40424.34
525.794	40676.24
525.995	40231.83
526.197	40446.87
526.398	40528.79
526.6	41014.16
526.801	41413.51
527.003	41501.57
527.204	41317.26
527.406	41882.5
527.607	41845.63
527.808	42224.51
528.01	41554.82
528.211	42197.88
528.412	42830.71
528.614	42564.47
528.815	42482.55
529.016	42941.3
529.218	42998.64
529.419	42935.15
529.62	42992.5
529.822	42910.58
530.023	42851.19
530.224	43404.14
530.425	42836.85
530.626	43420.52
530.828	42849.14
531.029	43826.02
531.23	43354.99
531.431	43500.39
531.632	43617.13
531.833	43641.7
532.035	43518.82
532.236	43604.84
532.437	43985.76
532.638	43764.58
532.839	43936.61
533.04	43996
533.241	43658.09
533.442	44634.97
533.643	44276.57
533.844	44088.16
534.045	44100.45
534.246	43797.35
534.447	44329.82
534.648	44153.69
534.849	44559.19
535.05	44454.75
535.251	44264.28
535.451	44190.56
535.652	44671.83
535.853	44165.98
536.054	44600.15
536.255	44653.4
536.456	44264.28
536.657	44692.31
536.857	44338.01
537.058	44018.53
537.259	44608.34
537.46	44389.21
537.66	43885.41
537.861	44829.52
538.062	44208.99
538.263	44870.48
538.463	44274.52
538.664	44354.4
538.865	44614.49
539.065	45130.58
539.266	44143.45
539.466	44579.67
539.667	44118.88
539.868	44647.25
540.068	44338.01
540.269	44493.66
540.469	44596.06
540.67	44188.51
540.87	44047.2
541.071	44127.07
541.271	44706.65
541.472	44170.08
541.672	44172.13
541.873	44532.57
542.073	43866.98
542.274	44518.23
542.474	44526.42
542.675	44094.3
542.875	44782.42
543.075	44075.87
543.276	44026.72
543.476	44544.86
543.676	44149.6
543.877	44243.8
544.077	44657.49
544.277	44219.23
544.478	44290.91
544.678	44469.08
544.878	44127.07
545.078	44499.8
545.279	43862.88
545.479	43881.31
545.679	44055.39
545.879	44055.39
546.079	44086.11
546.28	44022.62
546.48	43793.25
546.68	44069.73
546.88	44016.48
547.08	43944.8
547.28	43797.35
547.48	43938.66
547.68	44051.3
547.88	44100.45
548.081	44421.98
548.281	43993.95
548.481	43737.96
548.681	44378.97
548.881	44225.37
549.081	43852.64
549.28	43778.92
549.48	44051.3
549.68	44270.43
549.88	44538.71
550.08	43711.33
550.28	43864.93
550.48	43928.42
550.68	43789.16
550.88	43768.68
551.08	43674.47
551.279	43690.85
551.479	43594.6
551.679	43604.84
551.879	43952.99
552.079	43961.19
552.278	43805.54
552.478	43660.13
552.678	43637.61
552.878	43707.24
553.077	43295.6
553.277	42810.23
553.477	43783.01
553.676	43305.84
553.876	43168.62
554.076	42877.81
554.275	43395.95
554.475	42781.56
554.674	43029.36
554.874	43158.38
555.074	43363.18
555.273	43019.12
555.473	43551.59
555.672	42853.23
555.872	43250.54
556.071	43094.89
556.271	43217.77
556.47	42924.91
556.67	42771.32
556.869	42650.49
557.068	42926.96
557.268	42326.91
557.467	42759.03
557.667	42449.78
557.866	42752.88
558.065	42490.74
558.265	42400.63
558.464	42369.91
558.663	43084.65
558.863	41925.5
559.062	42795.89
559.261	41945.98
559.461	42568.57
559.66	41948.03
559.859	42513.27
560.058	41671.56
560.258	42621.81
560.457	41567.11
560.656	42189.69
560.855	41995.14
561.054	42238.84
561.253	41677.7
561.453	41577.35
561.652	41405.32
561.851	41397.13
562.05	41192.33
562.249	41257.87
562.448	41524.1
562.647	41417.61
562.846	40895.38
563.045	41343.88
563.244	40840.08
563.443	40876.94
563.642	40534.93
563.841	40942.48
564.04	40586.13
564.239	40745.87
564.438	40496.02
564.637	40758.16
564.836	40491.93
565.035	39863.2
565.234	40178.59
565.432	40004.51
565.631	40248.22
565.83	40160.16
566.029	39498.66
566.228	39826.34
566.427	39758.75
566.625	39469.99
566.824	39388.07
567.023	39525.28
567.222	38921.13
567.42	39881.63
567.619	39140.27
567.818	39426.98
568.016	38945.71
568.215	39441.32
568.414	38853.55
568.612	39119.79
568.811	38665.14
569.01	38706.1
569.208	38132.67
569.407	38661.04
569.605	37936.06
569.804	38544.31
570.002	37921.73
570.201	38073.28
570.4	37999.55
570.598	37645.25
570.797	37438.4
570.995	37841.85
571.193	37493.7
571.392	37870.53
571.59	37366.73
571.789	37276.62
571.987	36860.88
572.186	37303.24
572.384	36819.92
572.582	37080.01
572.781	36926.41
572.979	36449.24
573.177	36365.27
573.376	36916.17
573.574	35980.25
573.772	36697.04
573.971	35943.39
574.169	35963.87
574.367	36082.65
574.565	35818.46
574.763	35808.22
574.962	35746.78
575.16	35744.73
575.358	35910.62
575.556	35167.21
575.754	35724.25
575.952	35365.86
576.151	35451.88
576.349	34986.99
576.547	34935.79
576.745	34931.69
576.943	34989.03
577.141	34886.64
577.339	34827.24
577.537	34608.11
577.735	34835.44
577.933	34130.94
578.131	34597.87
578.329	34350.07
578.527	34294.77
578.725	33895.42
578.923	33899.51
579.121	33887.23
579.319	34020.34
579.516	33989.63
579.714	34126.84
579.912	33534.98
580.11	33332.23
580.308	33631.23
580.506	33295.36
580.704	33227.78
580.901	33465.35
581.099	32977.93
581.297	32908.3
581.495	32730.12
581.692	32977.93
581.89	32556.05
582.088	32945.16
582.285	32580.62
582.483	32508.94
582.681	32623.63
582.878	32279.57
583.076	31777.82
583.274	32257.04
583.471	31869.98
583.669	31984.66
583.866	31499.3
584.064	32324.63
584.262	31478.82
584.459	31620.13
584.657	31677.47
584.854	31775.77
585.052	31224.87
585.249	31411.23
585.447	31194.15
585.644	30862.38
585.841	31034.41
586.039	31104.04
586.236	30565.42
586.434	30837.8
586.631	30889
586.828	30975.02
587.026	31118.37
587.223	30532.65
587.42	30280.75
587.618	30147.64
587.815	29899.83
588.012	30164.02
588.21	30102.58
588.407	30161.97
588.604	29797.43
588.801	29518.91
588.999	29748.28
589.196	29682.75
589.393	29692.99
589.59	29496.38
589.787	29236.29
589.984	29367.36
590.182	29013.06
590.379	29262.91
590.576	28851.27
590.773	28935.24
590.97	28908.61
591.167	29019.21
591.364	28249.17
591.561	28478.54
591.758	28433.49
591.955	28056.66
592.152	28488.78
592.349	28087.38
592.546	28261.46
592.743	28396.62
592.94	27802.71
593.137	28240.98
593.334	28324.94
593.531	27745.37
593.727	28027.99
593.924	27673.69
594.121	27505.76
594.318	27685.98
594.515	27042.92
594.712	27677.79
594.908	27069.54
595.105	27276.38
595.302	26897.51
595.499	26948.71
595.696	27057.25
595.892	26791.02
596.089	26606.7
596.286	26991.72
596.482	26406
596.679	26637.42
596.876	26477.68
597.072	26532.97
597.269	26133.62
597.466	26164.34
597.662	25789.56
597.859	26231.92
598.055	26231.92
598.252	26023.03
598.448	25894
598.645	25584.76
598.841	25631.86
599.038	25558.14
599.234	25566.33
599.431	25132.16
599.627	25414.78
599.824	25752.7
600.02	25078.91
600.217	25355.39
600.413	24855.68
600.609	25201.79
600.806	24593.54
601.002	25056.39
601.198	24530.06
601.395	24818.82
601.591	24229.01
601.787	24601.74
601.984	24532.11
602.18	24677.51
602.376	24112.27
602.572	24241.29
602.769	24245.39
602.965	24030.35
603.161	24038.55
603.357	24003.73
603.553	23919.76
603.75	23979.15
603.946	23841.94
604.142	23819.41
604.338	23327.9
604.534	23659.67
604.73	23053.47
604.926	23200.93
605.122	23389.34
605.318	23088.29
605.514	22875.3
605.71	22955.17
605.906	23020.7
606.102	22983.84
606.298	22854.82
606.494	22666.41
606.69	22822.05
606.886	22600.87
607.082	22455.47
607.278	22742.18
607.474	22301.87
607.67	22432.94
607.866	22135.98
608.062	22652.07
608.257	22443.18
608.453	22277.29
608.649	22551.72
608.845	21974.19
609.041	22150.32
609.236	22265
609.432	21804.21
609.628	21789.88
609.824	21836.98
610.019	21716.15
610.215	21849.27
610.411	21589.17
610.606	21660.85
610.802	21595.32
610.998	21546.17
611.193	21691.57
611.389	21505.21
611.584	21458.1
611.78	21318.84
611.976	21591.22
612.171	21161.15
612.367	21306.55
612.562	21195.96
612.758	20610.25
612.953	21204.16
613.149	21484.73
613.344	21128.38
613.539	21306.55
613.735	20653.25
613.93	21011.65
614.126	20999.36
614.321	21165.25
614.517	20800.71
614.712	20884.67
614.907	20847.81
615.103	20812.99
615.298	20382.92
615.493	20860.1
615.688	20511.94
615.884	20704.45
616.079	20157.64
616.274	20647.11
616.47	20249.8
616.665	20552.9
616.86	20235.47
617.055	19905.74
617.25	20202.7
617.445	20262.09
617.641	19653.84
617.836	20233.42
618.031	19817.68
618.226	19989.71
618.421	19799.25
618.616	20030.67
618.811	19406.04
619.006	19928.27
619.201	19455.19
619.396	19801.3
619.591	19193.05
619.786	19457.24
619.981	19100.89
620.176	19367.13
620.371	19053.79
620.566	19119.32
620.761	19072.22
620.956	19166.43
621.151	18666.72
621.346	18818.27
621.541	18666.72
621.735	18830.56
621.93	18568.42
622.125	18451.69
622.32	18076.91
622.515	18203.88
622.709	17925.36
622.904	17827.06
623.099	17712.37
623.294	18013.42
623.488	17835.25
623.683	17751.28
623.878	17413.37
624.072	17480.95
624.267	17511.67
624.462	17175.8
624.656	17124.6
624.851	17261.82
625.046	17206.52
625.24	16977.15
625.435	16813.31
625.629	16901.37
625.824	16418.05
626.018	16702.72
626.213	16274.7
626.407	16467.2
626.602	16155.91
626.796	16413.96
626.991	16334.09
627.185	16180.49
627.38	15928.59
627.574	15861.01
627.768	15752.46
627.963	15756.56
628.157	15314.2
628.352	15686.93
628.546	15332.63
628.74	15707.41
628.935	15412.5
629.129	15357.21
629.323	15164.7
629.517	15136.03
629.712	14968.09
629.906	14982.43
630.1	14859.55
630.294	14806.3
630.489	14865.69
630.683	14769.44
630.877	14423.33
631.071	14484.77
631.265	14292.26
631.459	14193.96
631.653	14011.69
631.848	13911.34
632.042	14069.03
632.236	14017.83
632.43	13761.84
632.624	13935.92
632.818	13589.81
633.012	13968.68
633.206	13798.7
633.4	13501.75
633.594	13499.7
633.788	13454.64
633.982	13554.99
634.176	13335.86
634.369	13405.49
634.563	13083.96
634.757	13286.71
634.951	13239.61
635.145	13012.28
635.339	13096.25
635.533	12520.77
635.726	12875.07
635.92	12344.64
636.114	12514.63
636.308	12580.16
636.501	12545.34
636.695	12242.25
636.889	12416.32
637.083	12461.38
637.276	12168.52
637.47	12186.95
637.664	12131.65
637.857	12111.18
638.051	12111.18
638.244	11961.67
638.438	11789.64
638.632	11603.28
638.825	11732.3
639.019	11777.36
639.212	11613.52
639.406	11638.09
639.599	11382.1
639.793	11349.33
639.986	11285.84
640.18	11169.11
640.373	11253.08
640.567	11238.74
640.76	11212.12
640.954	11152.73
641.147	11019.61
641.34	10833.24
641.534	10726.75
641.727	10874.2
641.92	10814.81
642.114	10749.28
642.307	10841.43
642.5	10487.14
642.694	10378.59
642.887	10366.31
643.08	10495.33
643.273	10460.51
643.467	10345.83
643.66	10169.7
643.853	10184.04
644.046	10198.37
644.239	10048.87
644.432	10079.59
644.626	9936.23
644.819	9829.74
645.012	9948.52
645.205	9891.18
645.398	9743.72
645.591	9626.99
645.784	9717.1
645.977	9536.88
646.17	9411.95
646.363	9411.95
646.556	9264.5
646.749	9411.95
646.942	9532.78
647.135	9256.31
647.328	9272.69
647.521	9192.82
647.714	9262.45
647.907	9174.39
648.099	9065.85
648.292	9053.56
648.485	8820.09
648.678	8834.43
648.871	8770.94
649.064	8904.06
649.256	8807.8
649.449	8779.13
649.642	8592.76
649.835	8529.28
650.027	8615.29
650.22	8433.02
650.413	8551.81
650.605	8496.51
650.798	8449.41
650.991	8353.15
651.183	8402.3
651.376	8113.54
651.568	8179.08
651.761	8250.75
651.954	8205.7
652.146	8244.61
652.339	7931.27
652.531	7927.18
652.724	7765.39
652.916	7847.3
653.109	8078.72
653.301	7751.05
653.494	8037.77
653.686	7744.91
653.879	7794.06
654.071	7609.74
654.263	7636.36
654.456	7427.47
654.648	7939.46
654.84	7509.39
655.033	7579.02
655.225	7441.81
655.417	7347.6
655.61	7542.16
655.802	7419.28
655.994	7189.91
656.186	7288.21
656.379	7583.12
656.571	7191.95
656.763	7040.4
656.955	7042.45
657.148	6868.38
657.34	7013.78
657.532	6968.73
657.724	6899.09
657.916	6923.67
658.108	6890.9
658.3	7044.5
658.492	6903.19
658.684	6737.31
658.876	6831.51
659.068	6696.35
659.26	6540.7
659.452	6579.61
659.644	6503.84
659.836	6583.71
660.028	6542.75
660.22	6552.99
660.412	6608.28
660.604	6354.34
660.796	6417.82
660.988	6342.05
661.18	6282.66
661.372	6186.4
661.563	6352.29
661.755	5952.93
661.947	6213.03
662.139	6178.21
662.331	5954.98
662.522	5997.99
662.714	6088.1
662.906	5834.15
663.097	6116.77
663.289	5864.87
663.481	6038.95
663.673	5828.01
663.864	5907.88
664.056	5641.64
664.247	5698.99
664.439	5666.22
664.631	5709.22
664.822	5891.49
665.014	5543.34
665.205	5789.1
665.397	5524.91
665.588	5541.29
665.78	5688.75
665.971	5578.15
666.163	5623.21
666.354	5459.37
666.546	5555.63
666.737	5430.7
666.929	5481.9
667.12	5393.84
667.311	5406.13
667.503	5391.79
667.694	5221.81
667.885	5277.1
668.077	5291.44
668.268	5182.9
668.459	5240.24
668.651	5375.41
668.842	5068.21
669.033	5158.32
669.224	5254.58
669.416	5297.58
669.607	5092.79
669.798	5041.59
669.989	5127.6
670.18	5008.82
670.371	4986.29
670.563	4875.7
670.754	4978.1
670.945	4916.66
671.136	4732.34
671.327	4808.12
671.518	4914.61
671.709	4920.76
671.9	4775.35
672.091	4918.71
672.282	4666.81
672.473	4722.1
672.664	4859.32
672.855	4728.25
673.046	4734.39
673.237	4758.97
673.428	4699.58
673.619	4578.75
673.809	4531.64
674	4728.25
674.191	4580.79
674.382	4545.98
674.573	4648.38
674.764	4517.31
674.954	4490.68
675.145	4619.71
675.336	4584.89
675.527	4330.94
675.717	4324.8
675.908	4443.58
676.099	4472.25
676.289	4433.34
676.48	4345.28
676.671	4353.47
676.861	4246.98
677.052	4371.9
677.243	4292.03
677.433	4218.3
677.624	4228.54
677.814	4390.33
678.005	4177.34
678.195	4163.01
678.386	4314.56
678.576	4203.97
678.767	4142.53
678.957	4115.91
679.148	4216.26
679.338	4056.51
679.529	4181.44
679.719	4054.47
679.909	4251.07
680.1	4154.82
680.29	4169.15
680.481	3978.69
680.671	4068.8
680.861	4023.75
681.052	4111.81
681.242	3950.02
681.432	4027.84
681.622	4007.36
681.813	4068.8
682.003	3913.16
682.193	3933.64
682.383	3757.51
682.573	3929.54
682.764	4001.22
682.954	3939.78
683.144	3947.97
683.334	4013.51
683.524	3880.39
683.714	3911.11
683.904	3839.43
684.094	3798.47
684.284	3876.29
684.474	3892.68
684.664	3784.13
684.854	3734.98
685.044	3732.94
685.234	3814.85
685.424	3716.55
685.614	3745.22
685.804	3732.94
685.994	3751.37
686.184	3864.01
686.374	3636.68
686.564	3685.83
686.753	3730.89
686.943	3681.74
687.133	3521.99
687.323	3732.94
687.513	3759.56
687.702	3601.87
687.892	3595.72
688.082	3503.56
688.272	3538.38
688.461	3626.44
688.651	3440.08
688.841	3491.27
689.03	3495.37
689.22	3466.7
689.41	3423.69
689.599	3454.41
689.789	3425.74
689.979	3395.02
690.168	3349.96
690.358	3384.78
690.547	3341.77
690.737	3284.43
690.926	3341.77
691.116	3220.94
691.305	3249.61
691.495	3306.96
691.684	3329.49
691.874	3302.86
692.063	3253.71
692.252	3347.92
692.442	3231.18
692.631	3261.9
692.82	3266
693.01	3179.98
693.199	3304.91
693.388	3141.07
693.578	3042.77
693.767	3104.21
693.956	3231.18
694.146	3059.15
694.335	3257.81
694.524	3040.72
694.713	3014.1
694.902	3034.58
695.092	3032.53
695.281	3149.26
695.47	2973.14
695.659	3016.15
695.848	2977.23
696.037	3050.96
696.226	2977.23
696.415	2913.75
696.604	2889.17
696.793	2909.65
696.982	3016.15
697.171	2932.18
697.36	3065.3
697.549	2846.16
697.738	2952.66
697.927	2899.41
698.116	2903.51
698.305	2934.23
698.494	2903.51
698.683	2923.99
698.872	2864.6
699.061	2923.99
699.25	2895.32
699.438	2960.85
699.627	3038.67
699.816	2954.71
700.005	2794.97
700.193	2938.32
700.382	3003.86
700.571	2840.02
700.76	2969.04
700.948	2901.46
701.137	2880.98
701.326	2936.28
701.514	2811.35
701.703	2948.56
701.892	2758.1
702.08	2893.27
702.269	2901.46
702.457	2684.38
702.646	2995.67
702.834	2856.4
703.023	2969.04
703.212	2813.4
703.4	2909.65
703.589	2788.82
703.777	2893.27
703.965	2786.77
704.154	2872.79
704.342	2903.51
704.531	2813.4
704.719	2846.16
704.907	2858.45
705.096	2813.4
705.284	2852.31
705.472	2815.45
705.661	2846.16
705.849	2852.31
706.037	2794.97
706.226	2932.18
706.414	2794.97
706.602	2794.97
706.79	2903.51
706.979	2940.37
707.167	2842.07
707.355	2811.35
707.543	2758.1
707.731	2743.77
707.919	2833.88
708.107	2784.73
708.296	2809.3
708.484	2790.87
708.672	2803.16
708.86	2868.69
709.048	2645.46
709.236	2758.1
709.424	2860.5
709.612	2844.12
709.8	2837.97
709.988	2813.4
710.176	2727.38
710.364	2790.87
710.551	2794.97
710.739	2723.29
710.927	2815.45
711.115	2797.01
711.303	2854.36
711.491	2749.91
711.679	2784.73
711.866	2653.66
712.054	2651.61
712.242	2678.23
712.43	2821.59
712.617	2780.63
712.805	2715.09
712.993	2702.81
713.181	2776.53
713.368	2862.55
713.556	2694.61
713.744	2635.22
713.931	2885.08
714.119	2688.47
714.306	2614.74
714.494	2653.66
714.682	2686.42
714.869	2725.33
715.057	2770.39
715.244	2663.9
715.432	2784.73
715.619	2610.65
715.807	2743.77
715.994	2565.59
716.182	2577.88
716.369	2657.75
716.556	2780.63
716.744	2588.12
716.931	2600.41
717.119	2659.8
717.306	2514.39
717.493	2598.36
717.681	2667.99
717.868	2610.65
718.055	2700.76
718.242	2692.57
718.43	2622.94
718.617	2577.88
718.804	2743.77
718.991	2602.46
719.179	2635.22
719.366	2659.8
719.553	2581.98
719.74	2581.98
719.927	2541.02
720.114	2633.18
720.301	2670.04
720.488	2635.22
720.676	2565.59
720.863	2563.54
721.05	2602.46
721.237	2579.93
721.424	2547.16
721.611	2498.01
721.798	2495.96
721.985	2473.43
722.172	2555.35
722.358	2557.4
722.545	2655.7
722.732	2504.15
722.919	2553.31
723.106	2581.98
723.293	2647.51
723.48	2541.02
723.667	2555.35
723.853	2573.78
724.04	2520.54
724.227	2459.1
724.414	2495.96
724.6	2592.22
724.787	2624.98
724.974	2594.26
725.161	2467.29
725.347	2432.47
725.534	2518.49
725.72	2471.39
725.907	2487.77
726.094	2524.63
726.28	2438.62
726.467	2483.67
726.653	2471.39
726.84	2563.54
727.027	2577.88
727.213	2504.15
727.4	2465.24
727.586	2510.3
727.773	2584.02
727.959	2477.53
728.145	2514.39
728.332	2465.24
728.518	2508.25
728.705	2557.4
728.891	2561.5
729.077	2518.49
729.264	2420.19
729.45	2371.04
729.636	2430.43
729.823	2442.71
730.009	2557.4
730.195	2469.34
730.382	2516.44
730.568	2428.38
730.754	2600.41
730.94	2426.33
731.126	2387.42
731.313	2504.15
731.499	2344.41
731.685	2401.76
731.871	2430.43
732.057	2407.9
732.243	2407.9
732.429	2459.1
732.615	2502.11
732.801	2487.77
732.987	2426.33
733.173	2510.3
733.359	2455
733.545	2334.17
733.731	2420.19
733.917	2379.23
734.103	2344.41
734.289	2502.11
734.475	2452.95
734.661	2502.11
734.847	2418.14
735.033	2342.36
735.219	2381.28
735.404	2348.51
735.59	2356.7
735.776	2340.32
735.962	2442.71
736.148	2381.28
736.333	2358.75
736.519	2256.35
736.705	2444.76
736.89	2368.99
737.076	2391.52
737.262	2426.33
737.447	2344.41
737.633	2199.01
737.819	2360.8
738.004	2242.01
738.19	2368.99
738.375	2272.73
738.561	2391.52
738.747	2332.12
738.932	2272.73
739.118	2344.41
739.303	2250.21
739.489	2282.97
739.674	2348.51
739.859	2217.44
740.045	2110.94
740.23	2174.43
740.416	2190.81
740.601	2350.56
740.786	2149.86
740.972	2274.78
741.157	2262.49
741.342	2237.92
741.528	2104.8
741.713	2184.67
741.898	2213.34
742.084	2225.63
742.269	2086.37
742.454	2215.39
742.639	2315.74
742.824	2057.7
743.01	2233.82
743.195	2139.62
743.38	2100.7
743.565	2057.7
743.75	2176.48
743.935	1975.78
744.12	2127.33
744.305	1975.78
744.49	2106.85
744.675	2125.28
744.86	2012.64
745.045	2065.89
745.23	2115.04
745.415	2192.86
745.6	2053.6
745.785	1981.92
745.97	2051.55
746.155	2006.5
746.34	1959.39
746.525	1928.67
746.71	1912.29
746.895	1959.39
747.079	1924.58
747.264	1871.33
747.449	1914.34
747.634	1873.38
747.819	1906.15
748.003	1832.42
748.188	1799.65
748.373	1920.48
748.557	1826.28
748.742	1781.22
748.927	1816.04
749.111	1781.22
749.296	1877.48
749.481	1857
749.665	1791.46
749.85	1742.31
750.034	1779.17
750.219	1830.37
750.404	1781.22
750.588	1746.41
750.773	1709.54
750.957	1732.07
751.141	1703.4
751.326	1625.58
751.51	1564.14
751.695	1695.21
751.879	1592.81
752.064	1621.48
752.248	1633.77
752.432	1680.87
752.617	1531.37
752.801	1586.66
752.985	1570.28
753.17	1639.91
753.354	1541.61
753.538	1678.82
753.722	1557.99
753.907	1525.22
754.091	1459.69
754.275	1445.35
754.459	1398.25
754.643	1490.41
754.828	1549.8
755.012	1535.46
755.196	1418.73
755.38	1435.11
755.564	1439.21
755.748	1359.34
755.932	1406.44
756.116	1416.68
756.3	1439.21
756.484	1408.49
756.668	1338.86
756.852	1357.29
757.036	1367.53
757.22	1402.35
757.404	1365.48
757.588	1256.94
757.772	1349.1
757.956	1304.04
758.14	1207.79
758.323	1261.04
758.507	1330.67
758.691	1304.04
758.875	1330.67
759.059	1308.14
759.242	1228.27
759.426	1377.77
759.61	1156.59
759.794	1267.18
759.977	1183.21
760.161	1236.46
760.345	1279.47
760.528	1207.79
760.712	1195.5
760.895	1213.93
761.079	1222.13
761.263	1201.65
761.446	1179.12
761.63	1162.73
761.813	1226.22
761.997	1123.82
762.18	1111.54
762.364	1142.25
762.547	1119.73
762.731	1195.5
762.914	1136.11
763.098	1215.98
763.281	1105.39
763.464	1107.44
763.648	1127.92
763.831	1060.34
764.015	1099.25
764.198	1058.29
764.381	1068.53
764.564	1080.82
764.748	1007.09
764.931	1011.18
765.114	1119.73
765.297	1027.57
765.481	1115.63
765.664	1025.52
765.847	1041.9
766.03	972.27
766.213	1043.95
766.397	1007.09
766.58	1039.86
766.763	1097.2
766.946	935.41
767.129	1041.9
767.312	994.8
767.495	923.12
767.678	1072.62
767.861	923.12
768.044	990.7
768.227	1029.62
768.41	962.03
768.593	1000.94
768.776	935.41
768.959	986.61
769.142	1005.04
769.324	884.21
769.507	943.6
769.69	923.12
769.873	912.88
770.056	959.99
770.239	1027.57
770.421	880.11
770.604	939.51
770.787	886.26
770.97	994.8
771.152	865.78
771.335	929.27
771.518	912.88
771.7	919.03
771.883	931.31
772.066	871.92
772.248	914.93
772.431	914.93
772.613	863.73
772.796	841.2
772.978	837.11
773.161	873.97
773.343	839.16
773.526	857.59
773.708	847.35
773.891	828.92
774.073	925.17
774.256	708.09
774.438	822.77
774.621	796.15
774.803	763.38
774.985	892.4
775.168	890.35
775.35	808.44
775.532	833.01
775.715	816.63
775.897	790
776.079	699.89
776.261	849.4
776.444	804.34
776.626	771.57
776.808	792.05
776.99	857.59
777.173	747
777.355	796.15
777.537	777.72
777.719	767.48
777.901	787.96
778.083	749.04
778.265	785.91
778.447	667.13
778.629	738.8
778.811	773.62
778.993	656.89
779.175	697.85
779.357	681.46
779.539	683.51
779.721	734.71
779.903	701.94
780.085	654.84
780.267	640.5
780.449	656.89
780.631	652.79
780.812	640.5
780.994	591.35
781.176	630.26
781.358	634.36
781.54	656.89
781.721	634.36
781.903	636.41
782.085	640.5
782.267	640.5
782.448	611.83
782.63	607.73
782.812	667.13
782.993	663.03
783.175	624.12
783.357	529.91
783.538	589.3
783.72	554.49
783.901	605.69
784.083	513.53
784.264	554.49
784.446	570.87
784.627	503.29
784.809	538.1
784.99	464.38
785.172	599.54
785.353	564.73
785.535	513.53
785.716	456.19
785.897	413.18
786.079	474.62
786.26	497.14
786.441	548.34
786.623	493.05
786.804	511.48
786.985	503.29
787.167	486.9
787.348	435.71
787.529	476.66
787.71	462.33
787.891	495.1
788.073	400.89
788.254	450.04
788.435	386.55
788.616	433.66
788.797	507.38
788.978	466.42
789.159	370.17
789.34	468.47
789.522	450.04
789.703	460.28
789.884	445.95
790.065	378.36
790.246	415.23
790.427	398.84
790.607	429.56
790.788	468.47
790.969	349.69
791.15	435.71
791.331	398.84
791.512	308.73
791.693	355.83
791.874	435.71
792.054	478.71
792.235	402.94
792.416	327.16
792.597	361.98
792.778	378.36
792.958	407.03
793.139	325.12
793.32	353.79
793.5	310.78
793.681	343.55
793.862	423.42
794.042	257.53
794.223	255.48
794.404	417.27
794.584	368.12
794.765	331.26
794.945	327.16
795.126	359.93
795.306	392.7
795.487	353.79
795.667	333.31
795.848	351.74
796.028	333.31
796.209	321.02
796.389	308.73
796.57	357.88
796.75	384.51
796.93	300.54
797.111	275.96
797.291	353.79
797.471	312.83
797.652	325.12
797.832	333.31
798.012	275.96
798.192	402.94
798.373	292.35
798.553	370.17
798.733	337.4
798.913	292.35
799.093	316.92
799.274	294.4
799.454	239.1
799.634	361.98
799.814	267.77
799.994	310.78
800.174	243.2
800.354	269.82
800.534	239.1
800.714	241.15
800.894	312.83
801.074	259.58
801.254	361.98
801.434	294.4
801.614	298.49
801.794	185.85
801.974	654.84
802.154	294.4
802.334	230.91
802.514	243.2
802.693	224.76
802.873	247.29
803.053	341.5
803.233	239.1
803.413	259.58
803.592	241.15
803.772	278.01
803.952	298.49
804.131	216.57
804.311	245.24
804.491	232.96
804.67	275.96
804.85	200.19
805.03	196.09
805.209	237.05
805.389	214.52
805.568	183.81
805.748	261.63
805.928	175.61
806.107	194.05
806.287	216.57
806.466	214.52
806.646	169.47
806.825	220.67
807.004	241.15
807.184	187.9
807.363	267.77
807.543	173.57
807.722	210.43
807.901	196.09
808.081	220.67
808.26	183.81
808.439	206.33
808.619	239.1
808.798	189.95
808.977	194.05
809.156	175.61
809.336	185.85
809.515	282.11
809.694	140.8
809.873	153.09
810.052	183.81
810.231	275.96
810.411	222.72
810.59	226.81
810.769	175.61
810.948	255.48
811.127	198.14
811.306	179.71
811.485	206.33
811.664	239.1
811.843	155.13
812.022	179.71
812.201	163.33
812.38	198.14
812.559	163.33
812.737	179.71
812.916	183.81
813.095	118.27
813.274	157.18
813.453	196.09
813.632	151.04
813.811	218.62
813.989	91.65
814.168	140.8
814.347	177.66
814.526	108.03
814.704	140.8
814.883	214.52
815.062	142.85
815.24	108.03
815.419	140.8
815.598	175.61
815.776	130.56
815.955	187.9
816.133	93.69
816.312	175.61
816.49	138.75
816.669	136.7
816.847	136.7
817.026	140.8
817.204	192
817.383	159.23
817.561	124.41
817.74	224.76
817.918	153.09
818.097	140.8
818.275	153.09
818.453	128.51
818.632	136.7
818.81	196.09
818.988	177.66
819.167	56.83
819.345	140.8
819.523	189.95
819.701	132.61
819.879	181.76
820.058	112.13
820.236	192
820.414	89.6
820.592	81.41
820.77	75.26
820.948	161.28
821.127	136.7
821.305	58.88
821.483	71.17
821.661	148.99
821.839	112.13
822.017	122.37
822.195	187.9
822.373	97.79
822.551	130.56
822.729	93.69
822.907	126.46
823.085	36.35
823.262	155.13
823.44	116.22
823.618	75.26
823.796	157.18
823.974	105.98
824.152	93.69
824.329	144.89
824.507	171.52
824.685	97.79
824.863	110.08
825.04	120.32
825.218	157.18
825.396	187.9
825.574	128.51
825.751	155.13
825.929	75.26
826.107	77.31
826.284	58.88
826.462	128.51
826.639	38.4
826.817	136.7
826.994	153.09
827.172	87.55
827.349	58.88
827.527	103.93
827.704	42.5
827.882	65.02
828.059	128.51
828.237	155.13
828.414	91.65
828.591	95.74
828.769	142.85
828.946	85.5
829.124	134.65
829.301	128.51
829.478	50.69
829.655	163.33
829.833	173.57
830.01	69.12
830.187	114.17
830.364	103.93
830.542	130.56
830.719	81.41
830.896	181.76
831.073	151.04
831.25	62.98
831.427	108.03
831.604	103.93
831.782	83.45
831.959	62.98
832.136	54.78
832.313	165.37
832.49	108.03
832.667	71.17
832.844	89.6
833.021	110.08
833.198	79.36
833.374	93.69
833.551	91.65
833.728	62.98
833.905	75.26
834.082	-20.99
834.259	42.5
834.436	105.98
834.612	17.92
834.789	179.71
834.966	151.04
835.143	95.74
835.319	24.06
835.496	46.59
835.673	58.88
835.85	108.03
836.026	30.21
836.203	93.69
836.38	58.88
836.556	134.65
836.733	103.93
836.909	112.13
837.086	30.21
837.262	62.98
837.439	67.07
837.616	58.88
837.792	138.75
837.968	116.22
838.145	48.64
838.321	103.93
838.498	58.88
838.674	91.65
838.851	85.5
839.027	95.74
839.203	83.45
839.38	101.89
839.556	69.12
839.732	95.74
839.909	97.79
840.085	95.74
840.261	-0.51
840.437	81.41
840.614	52.74
840.79	108.03
840.966	97.79
841.142	122.37
841.318	91.65
841.494	122.37
841.671	91.65
841.847	105.98
842.023	28.16
842.199	69.12
842.375	101.89
842.551	34.3
842.727	13.82
842.903	75.26
843.079	52.74
843.255	58.88
843.431	67.07
843.607	48.64
843.783	52.74
843.959	91.65
844.134	83.45
844.31	60.93
844.486	50.69
844.662	85.5
844.838	140.8
845.013	116.22
845.189	65.02
845.365	77.31
845.541	40.45
845.716	120.32
845.892	126.46
846.068	46.59
846.244	54.78
846.419	91.65
846.595	-45.57
846.77	83.45
846.946	26.11
847.122	13.82
847.297	83.45
847.473	75.26
847.648	79.36
847.824	58.88
847.999	28.16
848.175	32.26
848.35	157.18
848.526	17.92
848.701	40.45
848.876	67.07
849.052	95.74
849.227	44.54
849.403	36.35
849.578	7.68
849.753	54.78
849.929	50.69
850.104	7.68
850.279	65.02
850.454	32.26
850.63	52.74
850.805	77.31
850.98	81.41
851.155	54.78
851.33	62.98
851.505	5.63
851.681	52.74
851.856	75.26
852.031	60.93
852.206	7.68
852.381	11.78
852.556	42.5
852.731	34.3
852.906	114.17
853.081	56.83
853.256	56.83
853.431	-14.85
853.606	71.17
853.781	77.31
853.956	22.02
854.131	3.58
854.305	50.69
854.48	42.5
854.655	30.21
854.83	7.68
855.005	62.98
855.18	75.26
855.354	-23.04
855.529	105.98
855.704	13.82
855.879	79.36
856.053	34.3
856.228	50.69
856.403	3.58
856.577	58.88
856.752	32.26
856.926	58.88
857.101	26.11
857.276	62.98
857.45	52.74
857.625	67.07
857.799	-4.61
857.974	75.26
858.148	-64
858.323	114.17
858.497	44.54
858.672	30.21
858.846	46.59
859.02	46.59
859.195	44.54
859.369	24.06
859.543	42.5
859.718	77.31
859.892	17.92
860.066	58.88
860.241	-0.51
860.415	46.59
860.589	75.26
860.763	-4.61
860.938	7.68
861.112	112.13
861.286	87.55
861.46	103.93
861.634	-4.61
861.808	175.61
861.982	32.26
862.157	32.26
862.331	112.13
862.505	22.02
862.679	24.06
862.853	95.74
863.027	42.5
863.201	17.92
863.375	-25.09
863.549	26.11
863.722	99.84
863.896	81.41
864.07	58.88
864.244	48.64
864.418	-25.09
864.592	38.4
864.766	7.68
864.939	46.59
865.113	9.73
865.287	40.45
865.461	-12.8
865.634	17.92
865.808	38.4
865.982	34.3
866.156	-14.85
866.329	-16.9
866.503	60.93
866.676	46.59
866.85	19.97
867.024	62.98
867.197	50.69
867.371	83.45
867.544	85.5
867.718	36.35
867.891	52.74
868.065	36.35
868.238	116.22
868.412	46.59
868.585	24.06
868.759	-27.14
868.932	26.11
869.105	44.54
869.279	-16.9
869.452	38.4
869.625	65.02
869.799	30.21
869.972	65.02
870.145	75.26
870.319	34.3
870.492	46.59
870.665	-14.85
870.838	-20.99
871.011	44.54
871.185	28.16
871.358	-6.66
871.531	1.54
871.704	-14.85
871.877	19.97
872.05	-27.14
872.223	34.3
872.396	19.97
872.569	15.87
872.742	22.02
872.915	79.36
873.088	87.55
873.261	91.65
873.434	1.54
873.607	-4.61
873.78	-2.56
873.953	-16.9
874.126	28.16
874.299	28.16
874.471	-2.56
874.644	5.63
874.817	22.02
874.99	42.5
875.163	11.78
875.335	24.06
875.508	-20.99
875.681	13.82
875.853	30.21
876.026	56.83
876.199	97.79
876.371	56.83
876.544	-10.75
876.717	65.02
876.889	-45.57
877.062	132.61
877.234	77.31
877.407	75.26
877.579	73.21
877.752	28.16
877.924	75.26
878.097	71.17
878.269	60.93
878.442	56.83
878.614	71.17
878.786	9.73
878.959	-25.09
879.131	22.02
879.303	-49.66
879.476	46.59
879.648	1.54
879.82	83.45
879.993	26.11
880.165	40.45
880.337	9.73
880.509	30.21
880.681	-41.47
880.854	40.45
881.026	46.59
881.198	83.45
881.37	77.31
881.542	-23.04
881.714	42.5
881.886	56.83
882.058	28.16
882.23	83.45
882.402	-53.76
882.574	42.5
882.746	34.3
882.918	13.82
883.09	32.26
883.262	-98.81
883.434	32.26
883.606	5.63
883.778	46.59
883.95	7.68
884.122	-14.85
884.293	13.82
884.465	5.63
884.637	-31.23
884.809	46.59
884.98	26.11
885.152	5.63
885.324	26.11
885.496	40.45
885.667	62.98
885.839	48.64
886.011	101.89
886.182	38.4
886.354	11.78
886.525	-10.75
886.697	62.98
886.869	62.98
887.04	32.26
887.212	67.07
887.383	103.93
887.555	17.92
887.726	-16.9
887.897	42.5
888.069	-10.75
888.24	30.21
888.412	48.64
888.583	36.35
888.754	9.73
888.926	26.11
889.097	-18.94
889.268	-31.23
889.44	-8.7
889.611	-16.9
889.782	56.83
889.953	-68.09
890.125	44.54
890.296	1.54
890.467	-12.8
890.638	-37.38
890.809	11.78
890.98	44.54
891.151	15.87
891.323	73.21
891.494	15.87
891.665	1.54
891.836	54.78
892.007	-23.04
892.178	50.69
892.349	46.59
892.52	-35.33
892.691	-53.76
892.862	-43.52
893.032	-12.8
893.203	-4.61
893.374	130.56
893.545	22.02
893.716	-14.85
893.887	28.16
894.057	17.92
894.228	9.73
894.399	32.26
894.57	60.93
894.74	67.07
894.911	-14.85
895.082	83.45
895.253	54.78
895.423	-6.66
895.594	73.21
895.764	24.06
895.935	-2.56
896.106	-27.14
896.276	60.93
896.447	3.58
896.617	1.54
896.788	13.82
896.958	19.97
897.129	40.45
897.299	17.92
897.47	-6.66
897.64	54.78
897.81	9.73
897.981	40.45
898.151	46.59
898.322	-14.85
898.492	1.54
898.662	32.26
898.832	-27.14
899.003	42.5
899.173	34.3
899.343	5.63
899.513	110.08
