Data from USB4F104151__68__11-06-09-345.txt Node

Date: Wed Mar 12 11:06:09 EDT 2025
User: louis
Spectrometer: USB4F10415
Trigger mode: 4
Integration Time (sec): 2.000000E-2
Scans to average: 1
Electric dark correction enabled: true
Nonlinearity correction enabled: false
Boxcar width: 0
XAxis mode: Wavelengths
Number of Pixels in Spectrum: 3648
>>>>>Begin Spectral Data<<<<<
178.204	-92.5
178.424	-92.5
178.644	-92.5
178.864	-78.16
179.084	-127.32
179.304	9.9
179.524	5.8
179.744	-8.53
179.964	-45.4
180.184	-0.34
180.404	-24.92
180.624	16.04
180.844	28.33
181.064	-12.63
181.283	32.43
181.503	-45.4
181.723	44.71
181.943	-8.53
182.163	-35.16
182.383	40.62
182.602	20.14
182.822	24.23
183.042	87.72
183.262	-20.82
183.482	1.71
183.701	28.33
183.921	24.23
184.141	24.23
184.361	16.04
184.58	-55.64
184.8	38.57
185.02	7.85
185.239	85.67
185.459	54.95
185.679	24.23
185.898	-29.01
186.118	18.09
186.338	22.19
186.557	40.62
186.777	-33.11
186.997	-31.06
187.216	5.8
187.436	108.2
187.655	-0.34
187.875	42.67
188.095	11.95
188.314	91.82
188.534	44.71
188.753	22.19
188.973	-16.73
189.192	97.96
189.412	16.04
189.631	13.99
189.851	-29.01
190.07	61.1
190.29	11.95
190.509	11.95
190.729	-29.01
190.948	3.75
191.168	67.24
191.387	40.62
191.607	32.43
191.826	34.47
192.045	20.14
192.265	89.77
192.484	93.87
192.704	5.8
192.923	-8.53
193.142	190.12
193.362	57
193.581	73.39
193.8	-4.44
194.02	36.52
194.239	13.99
194.458	48.81
194.678	44.71
194.897	50.86
195.116	26.28
195.335	-10.58
195.555	18.09
195.774	-33.11
195.993	-65.88
196.212	1.71
196.432	-24.92
196.651	24.23
196.87	-0.34
197.089	54.95
197.308	34.47
197.528	28.33
197.747	-47.44
197.966	28.33
198.185	30.38
198.404	-16.73
198.623	91.82
198.842	32.43
199.062	102.06
199.281	-10.58
199.5	52.91
199.719	20.14
199.938	77.48
200.157	44.71
200.376	13.99
200.595	30.38
200.814	36.52
201.033	46.76
201.252	3.75
201.471	89.77
201.69	73.39
201.909	32.43
202.128	28.33
202.347	26.28
202.566	13.99
202.785	28.33
203.004	-43.35
203.223	50.86
203.442	1.71
203.661	40.62
203.879	59.05
204.098	63.15
204.317	-37.2
204.536	46.76
204.755	87.72
204.974	46.76
205.193	67.24
205.411	34.47
205.63	20.14
205.849	65.19
206.068	-10.58
206.287	48.81
206.505	73.39
206.724	7.85
206.943	46.76
207.162	9.9
207.381	22.19
207.599	46.76
207.818	30.38
208.037	44.71
208.255	28.33
208.474	65.19
208.693	-6.49
208.911	67.24
209.13	-31.06
209.349	13.99
209.567	-37.2
209.786	16.04
210.005	36.52
210.223	-26.96
210.442	34.47
210.661	65.19
210.879	32.43
211.098	110.25
211.316	93.87
211.535	50.86
211.753	-18.77
211.972	91.82
212.191	59.05
212.409	48.81
212.628	-4.44
212.846	30.38
213.065	52.91
213.283	28.33
213.502	-53.59
213.72	-18.77
213.938	16.04
214.157	13.99
214.375	59.05
214.594	-2.39
214.812	18.09
215.031	-14.68
215.249	40.62
215.467	48.81
215.686	-45.4
215.904	59.05
216.122	-24.92
216.341	28.33
216.559	104.11
216.778	54.95
216.996	18.09
217.214	-4.44
217.432	-57.68
217.651	87.72
217.869	20.14
218.087	13.99
218.306	-43.35
218.524	36.52
218.742	48.81
218.96	73.39
219.179	44.71
219.397	-41.3
219.615	50.86
219.833	24.23
220.051	50.86
220.27	67.24
220.488	24.23
220.706	26.28
220.924	-16.73
221.142	40.62
221.36	26.28
221.578	11.95
221.796	46.76
222.015	61.1
222.233	-49.49
222.451	87.72
222.669	-45.4
222.887	138.92
223.105	57
223.323	67.24
223.541	-8.53
223.759	-14.68
223.977	-47.44
224.195	122.54
224.413	16.04
224.631	54.95
224.849	50.86
225.067	87.72
225.285	9.9
225.503	71.34
225.721	42.67
225.939	30.38
226.157	61.1
226.375	116.39
226.592	-12.63
226.81	-16.73
227.028	42.67
227.246	65.19
227.464	42.67
227.682	34.47
227.9	67.24
228.117	-69.97
228.335	-26.96
228.553	34.47
228.771	-16.73
228.989	30.38
229.206	22.19
229.424	52.91
229.642	63.15
229.86	5.8
230.077	65.19
230.295	7.85
230.513	91.82
230.731	112.3
230.948	50.86
231.166	22.19
231.384	1.71
231.601	-33.11
231.819	-0.34
232.037	-8.53
232.254	63.15
232.472	7.85
232.689	-18.77
232.907	97.96
233.125	5.8
233.342	46.76
233.56	-43.35
233.777	9.9
233.995	50.86
234.213	69.29
234.43	93.87
234.648	77.48
234.865	54.95
235.083	18.09
235.3	18.09
235.518	48.81
235.735	36.52
235.953	7.85
236.17	-57.68
236.388	38.57
236.605	-2.39
236.822	59.05
237.04	44.71
237.257	-22.87
237.475	-10.58
237.692	7.85
237.909	1.71
238.127	-31.06
238.344	44.71
238.562	71.34
238.779	40.62
238.996	18.09
239.214	52.91
239.431	104.11
239.648	16.04
239.865	-10.58
240.083	38.57
240.3	54.95
240.517	-6.49
240.735	9.9
240.952	30.38
241.169	50.86
241.386	36.52
241.603	34.47
241.821	5.8
242.038	34.47
242.255	57
242.472	7.85
242.689	83.63
242.907	89.77
243.124	28.33
243.341	-20.82
243.558	-20.82
243.775	-14.68
243.992	11.95
244.209	110.25
244.426	44.71
244.643	11.95
244.86	-6.49
245.078	-96.6
245.295	-20.82
245.512	89.77
245.729	67.24
245.946	30.38
246.163	91.82
246.38	85.67
246.597	71.34
246.814	59.05
247.031	24.23
247.248	77.48
247.464	7.85
247.681	44.71
247.898	11.95
248.115	32.43
248.332	-2.39
248.549	63.15
248.766	3.75
248.983	-14.68
249.2	9.9
249.417	71.34
249.633	1.71
249.85	48.81
250.067	77.48
250.284	36.52
250.501	75.43
250.717	75.43
250.934	30.38
251.151	71.34
251.368	69.29
251.585	42.67
251.801	-78.16
252.018	87.72
252.235	67.24
252.451	32.43
252.668	20.14
252.885	81.58
253.102	54.95
253.318	46.76
253.535	-8.53
253.752	-31.06
253.968	54.95
254.185	-4.44
254.401	38.57
254.618	59.05
254.835	11.95
255.051	75.43
255.268	-12.63
255.484	28.33
255.701	63.15
255.917	48.81
256.134	30.38
256.351	-18.77
256.567	-26.96
256.784	-10.58
257	-49.49
257.217	81.58
257.433	30.38
257.65	67.24
257.866	116.39
258.082	59.05
258.299	63.15
258.515	20.14
258.732	65.19
258.948	83.63
259.165	13.99
259.381	63.15
259.597	93.87
259.814	3.75
260.03	26.28
260.246	1.71
260.463	5.8
260.679	67.24
260.895	93.87
261.112	54.95
261.328	48.81
261.544	67.24
261.761	130.73
261.977	77.48
262.193	67.24
262.409	40.62
262.626	61.1
262.842	13.99
263.058	7.85
263.274	65.19
263.49	61.1
263.707	97.96
263.923	-0.34
264.139	57
264.355	38.57
264.571	-0.34
264.787	69.29
265.004	54.95
265.22	-6.49
265.436	-18.77
265.652	61.1
265.868	67.24
266.084	-29.01
266.3	63.15
266.516	13.99
266.732	28.33
266.948	50.86
267.164	36.52
267.38	61.1
267.596	52.91
267.812	16.04
268.028	83.63
268.244	-4.44
268.46	93.87
268.676	79.53
268.892	134.82
269.108	16.04
269.324	-12.63
269.54	-29.01
269.756	48.81
269.972	81.58
270.188	28.33
270.403	3.75
270.619	79.53
270.835	77.48
271.051	46.76
271.267	-4.44
271.483	46.76
271.698	73.39
271.914	36.52
272.13	54.95
272.346	13.99
272.562	36.52
272.777	20.14
272.993	32.43
273.209	83.63
273.425	-0.34
273.64	22.19
273.856	59.05
274.072	7.85
274.287	24.23
274.503	-55.64
274.719	30.38
274.934	-16.73
275.15	13.99
275.366	85.67
275.581	26.28
275.797	11.95
276.012	38.57
276.228	38.57
276.444	67.24
276.659	79.53
276.875	20.14
277.09	20.14
277.306	36.52
277.521	22.19
277.737	79.53
277.952	-2.39
278.168	32.43
278.383	-10.58
278.599	38.57
278.814	67.24
279.03	85.67
279.245	28.33
279.461	11.95
279.676	73.39
279.892	-45.4
280.107	32.43
280.322	18.09
280.538	40.62
280.753	-0.34
280.969	36.52
281.184	13.99
281.399	77.48
281.615	57
281.83	34.47
282.045	16.04
282.26	26.28
282.476	-4.44
282.691	22.19
282.906	69.29
283.122	28.33
283.337	-53.59
283.552	77.48
283.767	67.24
283.983	91.82
284.198	73.39
284.413	16.04
284.628	20.14
284.843	54.95
285.058	9.9
285.274	7.85
285.489	-12.63
285.704	57
285.919	-4.44
286.134	-14.68
286.349	7.85
286.564	52.91
286.779	93.87
286.995	-31.06
287.21	-8.53
287.425	57
287.64	87.72
287.855	20.14
288.07	38.57
288.285	61.1
288.5	69.29
288.715	73.39
288.93	-69.97
289.145	-4.44
289.36	-24.92
289.575	63.15
289.79	-20.82
290.004	-16.73
290.219	9.9
290.434	20.14
290.649	-6.49
290.864	42.67
291.079	85.67
291.294	7.85
291.509	42.67
291.724	18.09
291.938	24.23
292.153	77.48
292.368	-10.58
292.583	44.71
292.798	50.86
293.012	67.24
293.227	67.24
293.442	48.81
293.657	100.01
293.871	85.67
294.086	50.86
294.301	108.2
294.516	42.67
294.73	59.05
294.945	-24.92
295.16	61.1
295.374	91.82
295.589	63.15
295.804	34.47
296.018	-8.53
296.233	11.95
296.447	-20.82
296.662	3.75
296.877	20.14
297.091	79.53
297.306	75.43
297.52	50.86
297.735	24.23
297.949	57
298.164	42.67
298.378	-0.34
298.593	38.57
298.807	24.23
299.022	-39.25
299.236	48.81
299.451	22.19
299.665	67.24
299.88	1.71
300.094	-29.01
300.309	44.71
300.523	44.71
300.737	46.76
300.952	73.39
301.166	57
301.381	75.43
301.595	108.2
301.809	-22.87
302.024	9.9
302.238	36.52
302.452	22.19
302.667	9.9
302.881	48.81
303.095	91.82
303.309	75.43
303.524	-6.49
303.738	71.34
303.952	-92.5
304.166	-10.58
304.381	-35.16
304.595	69.29
304.809	-41.3
305.023	61.1
305.237	40.62
305.452	36.52
305.666	-20.82
305.88	-16.73
306.094	73.39
306.308	44.71
306.522	52.91
306.736	50.86
306.95	50.86
307.164	63.15
307.379	79.53
307.593	65.19
307.807	18.09
308.021	11.95
308.235	83.63
308.449	-6.49
308.663	81.58
308.877	59.05
309.091	102.06
309.305	75.43
309.519	7.85
309.733	97.96
309.947	46.76
310.161	73.39
310.374	63.15
310.588	42.67
310.802	3.75
311.016	44.71
311.23	63.15
311.444	54.95
311.658	73.39
311.872	102.06
312.085	57
312.299	63.15
312.513	44.71
312.727	73.39
312.941	34.47
313.154	59.05
313.368	44.71
313.582	42.67
313.796	16.04
314.009	69.29
314.223	73.39
314.437	-6.49
314.651	7.85
314.864	16.04
315.078	5.8
315.292	-10.58
315.505	38.57
315.719	87.72
315.933	-4.44
316.146	63.15
316.36	44.71
316.573	42.67
316.787	3.75
317.001	65.19
317.214	-16.73
317.428	136.87
317.641	-37.2
317.855	-22.87
318.068	28.33
318.282	48.81
318.495	91.82
318.709	30.38
318.922	28.33
319.136	69.29
319.349	89.77
319.563	32.43
319.776	28.33
319.99	85.67
320.203	40.62
320.417	22.19
320.63	-4.44
320.843	85.67
321.057	18.09
321.27	71.34
321.483	50.86
321.697	26.28
321.91	95.91
322.124	32.43
322.337	46.76
322.55	32.43
322.763	44.71
322.977	85.67
323.19	77.48
323.403	-24.92
323.617	16.04
323.83	91.82
324.043	34.47
324.256	22.19
324.469	3.75
324.683	50.86
324.896	24.23
325.109	22.19
325.322	32.43
325.535	44.71
325.748	38.57
325.962	24.23
326.175	77.48
326.388	26.28
326.601	-14.68
326.814	81.58
327.027	38.57
327.24	38.57
327.453	18.09
327.666	81.58
327.879	-20.82
328.092	5.8
328.305	81.58
328.518	75.43
328.731	-0.34
328.944	32.43
329.157	44.71
329.37	52.91
329.583	69.29
329.796	28.33
330.009	-6.49
330.222	95.91
330.435	44.71
330.648	63.15
330.861	44.71
331.073	75.43
331.286	61.1
331.499	71.34
331.712	57
331.925	44.71
332.138	7.85
332.35	85.67
332.563	46.76
332.776	106.15
332.989	61.1
333.202	118.44
333.414	100.01
333.627	30.38
333.84	102.06
334.053	34.47
334.265	-12.63
334.478	-47.44
334.691	50.86
334.903	1.71
335.116	-0.34
335.329	61.1
335.541	44.71
335.754	136.87
335.966	3.75
336.179	24.23
336.392	73.39
336.604	7.85
336.817	57
337.029	136.87
337.242	22.19
337.454	63.15
337.667	40.62
337.88	126.63
338.092	132.78
338.305	104.11
338.517	-39.25
338.729	57
338.942	36.52
339.154	5.8
339.367	5.8
339.579	52.91
339.792	-14.68
340.004	128.68
340.217	20.14
340.429	97.96
340.641	26.28
340.854	38.57
341.066	36.52
341.278	118.44
341.491	-14.68
341.703	48.81
341.915	1.71
342.128	30.38
342.34	140.97
342.552	91.82
342.764	-8.53
342.977	71.34
343.189	48.81
343.401	83.63
343.613	71.34
343.826	-2.39
344.038	83.63
344.25	-14.68
344.462	63.15
344.674	50.86
344.886	38.57
345.099	28.33
345.311	106.15
345.523	28.33
345.735	48.81
345.947	30.38
346.159	126.63
346.371	18.09
346.583	3.75
346.795	36.52
347.007	40.62
347.219	5.8
347.431	28.33
347.643	26.28
347.855	81.58
348.067	71.34
348.279	59.05
348.491	13.99
348.703	22.19
348.915	20.14
349.127	-0.34
349.339	32.43
349.551	-12.63
349.763	7.85
349.975	73.39
350.187	5.8
350.399	59.05
350.61	38.57
350.822	26.28
351.034	26.28
351.246	13.99
351.458	50.86
351.669	32.43
351.881	-0.34
352.093	112.3
352.305	110.25
352.517	32.43
352.728	40.62
352.94	40.62
353.152	61.1
353.363	59.05
353.575	1.71
353.787	30.38
353.999	114.34
354.21	97.96
354.422	61.1
354.633	28.33
354.845	44.71
355.057	87.72
355.268	44.71
355.48	-59.73
355.692	40.62
355.903	65.19
356.115	65.19
356.326	77.48
356.538	112.3
356.749	44.71
356.961	210.6
357.172	22.19
357.384	22.19
357.595	69.29
357.807	118.44
358.018	34.47
358.23	24.23
358.441	67.24
358.653	44.71
358.864	85.67
359.075	3.75
359.287	108.2
359.498	52.91
359.709	83.63
359.921	-12.63
360.132	69.29
360.344	24.23
360.555	46.76
360.766	63.15
360.977	46.76
361.189	134.82
361.4	9.9
361.611	85.67
361.823	100.01
362.034	163.5
362.245	22.19
362.456	65.19
362.667	143.02
362.879	102.06
363.09	81.58
363.301	42.67
363.512	28.33
363.723	65.19
363.935	77.48
364.146	85.67
364.357	1.71
364.568	16.04
364.779	18.09
364.99	59.05
365.201	36.52
365.412	26.28
365.623	52.91
365.834	48.81
366.045	102.06
366.256	112.3
366.467	59.05
366.678	77.48
366.889	52.91
367.1	-20.82
367.311	46.76
367.522	67.24
367.733	46.76
367.944	97.96
368.155	13.99
368.366	85.67
368.577	16.04
368.788	54.95
368.999	52.91
369.209	48.81
369.42	61.1
369.631	120.49
369.842	106.15
370.053	38.57
370.264	114.34
370.474	30.38
370.685	40.62
370.896	34.47
371.107	30.38
371.317	61.1
371.528	32.43
371.739	122.54
371.95	22.19
372.16	79.53
372.371	77.48
372.582	65.19
372.792	114.34
373.003	91.82
373.214	108.2
373.424	11.95
373.635	26.28
373.846	69.29
374.056	48.81
374.267	75.43
374.477	61.1
374.688	-18.77
374.898	50.86
375.109	36.52
375.319	81.58
375.53	28.33
375.74	122.54
375.951	20.14
376.161	87.72
376.372	69.29
376.582	38.57
376.793	22.19
377.003	77.48
377.214	126.63
377.424	63.15
377.635	-8.53
377.845	61.1
378.055	124.58
378.266	22.19
378.476	71.34
378.686	32.43
378.897	77.48
379.107	54.95
379.317	75.43
379.528	24.23
379.738	38.57
379.948	13.99
380.158	42.67
380.369	63.15
380.579	87.72
380.789	32.43
380.999	32.43
381.21	118.44
381.42	140.97
381.63	102.06
381.84	81.58
382.05	28.33
382.261	73.39
382.471	149.16
382.681	9.9
382.891	89.77
383.101	75.43
383.311	44.71
383.521	130.73
383.731	65.19
383.941	32.43
384.151	85.67
384.361	83.63
384.571	77.48
384.781	-35.16
384.991	143.02
385.201	32.43
385.411	-4.44
385.621	149.16
385.831	91.82
386.041	-0.34
386.251	44.71
386.461	24.23
386.671	44.71
386.881	73.39
387.091	48.81
387.301	32.43
387.511	57
387.72	147.11
387.93	73.39
388.14	38.57
388.35	63.15
388.56	118.44
388.769	106.15
388.979	110.25
389.189	44.71
389.399	30.38
389.609	108.2
389.818	77.48
390.028	67.24
390.238	89.77
390.447	16.04
390.657	91.82
390.867	28.33
391.076	134.82
391.286	9.9
391.496	69.29
391.705	85.67
391.915	130.73
392.125	24.23
392.334	145.06
392.544	112.3
392.753	138.92
392.963	93.87
393.172	69.29
393.382	83.63
393.591	169.64
393.801	-0.34
394.01	138.92
394.22	69.29
394.429	116.39
394.639	112.3
394.848	24.23
395.058	73.39
395.267	114.34
395.477	161.45
395.686	136.87
395.895	102.06
396.105	140.97
396.314	124.58
396.524	161.45
396.733	136.87
396.942	157.35
397.152	112.3
397.361	100.01
397.57	157.35
397.78	151.21
397.989	110.25
398.198	198.31
398.407	73.39
398.617	63.15
398.826	155.3
399.035	151.21
399.244	93.87
399.453	190.12
399.663	116.39
399.872	212.65
400.081	140.97
400.29	145.06
400.499	93.87
400.708	169.64
400.917	75.43
401.127	165.54
401.336	100.01
401.545	157.35
401.754	224.94
401.963	259.75
402.172	159.4
402.381	159.4
402.59	134.82
402.799	87.72
403.008	179.88
403.217	208.55
403.426	222.89
403.635	151.21
403.844	87.72
404.053	188.07
404.262	106.15
404.471	247.46
404.68	89.77
404.888	167.59
405.097	214.7
405.306	140.97
405.515	112.3
405.724	147.11
405.933	194.22
406.142	212.65
406.35	183.98
406.559	208.55
406.768	159.4
406.977	231.08
407.185	269.99
407.394	190.12
407.603	220.84
407.812	265.89
408.02	261.8
408.229	247.46
408.438	261.8
408.646	216.74
408.855	145.06
409.064	231.08
409.272	315.05
409.481	317.09
409.69	298.66
409.898	255.65
410.107	304.81
410.315	347.81
410.524	306.85
410.733	394.92
410.941	349.86
411.15	417.44
411.358	462.5
411.567	403.11
411.775	460.45
411.984	448.16
412.192	474.79
412.401	505.51
412.609	528.03
412.818	550.56
413.026	546.47
413.234	540.32
413.443	599.71
413.651	556.71
413.86	677.54
414.068	663.2
414.276	667.3
414.485	714.4
414.693	685.73
414.901	779.93
415.11	716.45
415.318	738.98
415.526	906.91
415.734	831.13
415.943	868
416.151	956.06
416.359	943.77
416.567	1013.4
416.776	978.59
416.984	1093.27
417.192	1111.71
417.4	1158.81
417.608	1091.23
417.817	1181.34
418.025	1261.21
418.233	1281.69
418.441	1287.83
418.649	1492.63
418.857	1472.15
419.065	1556.11
419.273	1423
419.481	1494.68
419.689	1607.31
419.897	1705.62
420.105	1855.12
420.313	1828.49
420.521	1904.27
420.729	1867.41
420.937	1998.48
421.145	1980.04
421.353	2129.55
421.561	2156.17
421.769	2285.19
421.977	2336.39
422.185	2322.06
422.393	2559.62
422.601	2528.9
422.809	2553.48
423.017	2625.15
423.224	2766.46
423.432	2719.36
423.64	2809.47
423.848	3116.67
424.056	3075.71
424.263	3145.34
424.471	3294.84
424.679	3321.46
424.887	3489.4
425.094	3645.04
425.302	3538.55
425.51	3833.46
425.718	3972.72
425.925	4109.93
426.133	4107.88
426.341	4271.72
426.548	4640.36
426.756	4515.43
426.964	4380.26
427.171	4734.56
427.379	4959.84
427.586	4988.51
427.794	5211.74
428.001	5394.01
428.209	5568.09
428.417	5625.43
428.624	5967.44
428.832	5953.1
429.039	5865.04
429.247	5844.56
429.454	6649.41
429.662	6997.57
429.869	6401.61
430.076	6911.55
430.284	6641.22
430.491	7171.65
430.699	7458.36
430.906	7464.5
431.114	7571
431.321	7796.28
431.528	8003.12
431.736	8447.53
431.943	8945.19
432.15	8644.13
432.358	8779.3
432.565	9180.7
432.772	9248.29
432.979	9711.13
433.187	9715.22
433.394	9903.64
433.601	10614.28
433.808	10665.48
434.016	10444.3
434.223	11025.92
434.43	11671.03
434.637	11359.74
434.844	12193.26
435.052	12381.68
435.259	12381.68
435.466	12387.82
435.673	12393.97
435.88	13151.71
436.087	13632.99
436.294	13667.8
436.501	13454.81
436.708	13813.21
436.915	14267.86
437.122	15091.14
437.329	14943.69
437.537	15396.29
437.743	15674.81
437.95	15631.8
438.157	16332.21
438.364	17046.95
438.571	16563.63
438.778	16754.09
438.985	18552.21
439.192	17595.81
439.399	18363.79
439.606	18042.26
439.813	18832.78
440.02	20182.39
440.227	19481.99
440.433	19481.99
440.64	20151.67
440.847	20166.01
441.054	20665.71
441.261	21853.53
441.467	21749.09
441.674	21796.19
441.881	23092.55
442.088	23002.44
442.294	22693.2
442.501	23301.45
442.708	23588.16
442.914	24667.44
443.121	25845.02
443.328	25007.41
443.534	26877.2
443.741	25959.71
443.948	25679.14
444.154	27776.26
444.361	27303.18
444.568	28007.68
444.774	27534.6
444.981	27833.6
445.187	28599.54
445.394	29891.81
445.6	29842.66
445.807	32146.62
446.013	31352.01
446.22	31478.99
446.426	32988.34
446.633	33199.28
446.839	34274.46
447.046	32869.56
447.252	34827.42
447.459	34454.68
447.665	34460.83
447.871	35912.84
448.078	37442.67
448.284	35652.75
448.491	36547.71
448.697	38118.5
448.903	38380.64
449.11	38569.05
449.316	38378.59
449.522	39056.47
449.728	40068.17
449.935	40096.84
450.141	39976.01
450.347	40592.45
450.553	39648.33
450.76	40092.74
450.966	41505.84
451.172	41018.42
451.378	42333.22
451.584	40750.14
451.791	42505.25
451.997	41720.88
452.203	42214.44
452.409	42527.78
452.615	41985.07
452.821	40750.14
453.027	39826.51
453.233	42339.36
453.44	40301.64
453.646	40967.23
453.852	41151.54
454.058	42263.59
454.264	40580.16
454.47	40991.8
454.676	40891.45
454.882	41841.71
455.088	38069.35
455.294	38714.46
455.5	38890.59
455.705	39687.25
455.911	37887.08
456.117	36908.15
456.323	36707.45
456.529	34593.95
456.735	36306.05
456.941	35214.48
457.147	34573.47
457.352	33649.83
457.558	33107.12
457.764	33035.44
457.97	32619.7
458.176	31937.73
458.381	32064.71
458.587	30315.74
458.793	30379.23
458.999	29037.81
459.204	30901.46
459.41	30125.28
459.616	27839.75
459.821	28198.14
460.027	27868.42
460.233	27479.3
460.438	26109.21
460.644	26795.28
460.85	25175.34
461.055	24800.56
461.261	24667.44
461.466	23041.36
461.672	22103.39
461.878	23934.27
462.083	22504.79
462.289	22191.45
462.494	21757.28
462.7	20708.72
462.905	19813.76
463.111	21171.56
463.316	21046.63
463.522	20567.41
463.727	20645.23
463.932	20458.87
464.138	20338.04
464.343	20403.57
464.549	19631.49
464.754	20661.62
464.959	20352.37
465.165	20219.25
465.37	19600.77
465.575	18793.87
465.781	19543.42
465.986	19643.77
466.191	18988.42
466.397	18527.63
466.602	18003.35
466.807	18197.91
467.012	18363.79
467.218	18458
467.423	18195.86
467.628	18134.42
467.833	19271.04
468.038	18357.65
468.244	17751.45
468.449	18505.1
468.654	17880.47
468.859	17503.65
469.064	17757.6
469.269	16928.17
469.474	17118.63
469.679	17520.03
469.885	16897.45
470.09	17272.23
470.295	17132.97
470.5	16756.14
470.705	16895.4
470.91	16268.72
471.115	16158.13
471.32	16571.82
471.525	16344.5
471.73	15779.26
471.935	15930.81
472.139	15488.45
472.344	15707.58
472.549	15402.43
472.754	15447.49
472.959	14978.5
473.164	14695.88
473.369	14474.7
473.574	15160.77
473.778	14640.59
473.983	14783.95
474.188	14642.64
474.393	14110.16
474.598	13960.66
474.802	13874.65
475.007	13860.31
475.212	13913.56
475.417	13159.91
475.621	13411.81
475.826	13229.54
476.031	12969.44
476.235	12926.44
476.44	13057.51
476.645	12760.55
476.849	12875.24
477.054	12455.4
477.259	12522.99
477.463	12588.52
477.668	12068.34
477.872	12197.36
478.077	12172.78
478.282	11865.59
478.486	11691.51
478.691	11851.25
478.895	11918.84
479.1	11679.22
479.304	11691.51
479.509	11277.82
479.713	11394.56
479.918	11386.36
480.122	11087.36
480.326	11230.72
480.531	11331.07
480.735	10978.82
480.94	11079.17
481.144	11355.65
481.348	10927.62
481.553	10958.34
481.757	10874.37
481.961	11011.59
482.166	11103.75
482.37	10956.29
482.574	10907.14
482.778	10890.76
482.983	11163.14
483.187	10872.32
483.391	11050.5
483.595	10958.34
483.8	10577.42
484.004	10991.11
484.208	10851.85
484.412	10798.6
484.616	10956.29
484.821	10993.15
485.025	10786.31
485.229	11097.6
485.433	10747.4
485.637	10941.96
485.841	10692.1
486.045	10669.58
486.249	11077.12
486.453	11001.35
486.657	10855.94
486.861	10898.95
487.065	10769.93
487.269	11167.23
487.473	10622.47
487.677	11163.14
487.881	11003.39
488.085	10817.03
488.289	10993.15
488.493	11097.6
488.697	10950.15
488.901	11046.4
489.105	10923.52
489.309	11236.86
489.512	11027.97
489.716	11056.64
489.92	10851.85
490.124	10890.76
490.328	11349.5
490.531	11148.8
490.735	11210.24
490.939	11296.25
491.143	11382.27
491.346	11206.14
491.55	11562.49
491.754	11273.73
491.958	11746.81
492.161	11376.13
492.365	11517.43
492.569	11552.25
492.772	11355.65
492.976	11722.23
493.18	11769.34
493.383	11791.86
493.587	11955.7
493.79	12078.58
493.994	11822.58
494.197	12025.33
494.401	12064.24
494.605	12146.16
494.808	12516.84
495.012	12379.63
495.215	12529.13
495.419	12494.32
495.622	12602.86
495.825	12772.84
496.029	12959.2
496.232	13172.19
496.436	13170.15
496.639	13309.41
496.843	13213.15
497.046	13841.88
497.249	13518.3
497.453	13827.54
497.656	14038.48
497.859	13884.89
498.063	14122.45
498.266	14394.83
498.469	14333.39
498.673	14527.95
498.876	14650.83
499.079	14910.92
499.282	14763.47
499.485	14921.16
499.689	15160.77
499.892	15683
500.095	15441.34
500.298	16324.02
500.501	15889.85
500.705	16471.47
500.908	16551.34
501.111	16575.92
501.314	16715.18
501.517	16797.1
501.72	17085.86
501.923	17055.14
502.126	17526.18
502.329	17796.51
502.532	17585.57
502.735	18077.08
502.938	18175.38
503.141	18470.29
503.344	18750.86
503.547	18656.65
503.75	19180.93
503.953	19244.42
504.156	19557.76
504.359	19721.6
504.562	19658.11
504.765	20323.7
504.968	20436.34
505.17	20575.6
505.373	20628.85
505.576	21173.61
505.779	21233
505.982	21468.52
506.185	21820.77
506.387	22046.04
506.59	22052.19
506.793	22404.44
506.996	22515.03
507.198	23031.12
507.401	23082.31
507.604	23090.51
507.807	23506.24
508.009	24028.48
508.212	24042.81
508.415	24272.18
508.617	24722.74
508.82	24706.35
509.022	24843.57
509.225	25519.4
509.428	25615.65
509.63	25754.91
509.833	25984.29
510.035	26557.72
510.238	26201.37
510.44	26615.06
510.643	26813.71
510.845	27469.06
511.048	27358.47
511.25	27641.09
511.453	27800.83
511.655	28886.26
511.858	28447.99
512.06	28937.46
512.262	29209.84
512.465	29000.94
512.667	29709.54
512.87	30174.43
513.072	29787.36
513.274	30807.25
513.477	31106.26
513.679	31204.56
513.881	31276.24
514.084	31890.63
514.286	32033.99
514.488	31937.73
514.69	33014.96
514.893	33045.68
515.095	33242.29
515.297	33643.69
515.499	33338.54
515.701	34073.76
515.904	34217.12
516.106	34796.7
516.308	34915.48
516.51	35298.45
516.712	35634.31
516.914	36015.24
517.116	36322.43
517.318	36500.61
517.52	36600.96
517.722	36904.06
517.925	37264.5
518.127	37882.98
518.329	38220.9
518.531	37858.41
518.733	38581.34
518.935	38902.87
519.136	38886.49
519.338	39695.44
519.54	39803.98
519.742	40864.83
519.944	40307.78
520.146	40944.7
520.348	41212.98
520.55	41258.04
520.752	41483.31
520.954	42013.74
521.155	41763.89
521.357	42845.21
521.559	43271.19
521.761	43361.3
521.963	43379.73
522.164	43885.58
522.366	43508.75
522.568	44407.81
522.77	44305.41
522.971	45464.56
523.173	44762.11
523.375	45259.77
523.576	45284.34
523.778	45663.22
523.98	46099.44
524.181	46523.36
524.383	46449.64
524.584	46990.3
524.786	47059.93
524.988	47029.21
525.189	47313.88
525.391	47758.29
525.592	47696.85
525.794	48194.51
525.995	48233.42
526.197	48243.66
526.398	48475.08
526.6	49083.33
526.801	48890.82
527.003	49112
527.204	49046.46
527.406	49877.94
527.607	49441.72
527.808	50379.69
528.01	49173.44
528.211	49847.22
528.412	50787.24
528.614	50791.33
528.815	50351.02
529.016	51184.54
529.218	50217.9
529.419	51282.84
529.62	51049.38
529.822	51016.61
530.023	51309.47
530.224	50858.91
530.425	51137.44
530.626	51196.83
530.828	50983.84
531.029	52044.69
531.23	51381.15
531.431	51516.31
531.632	51631
531.833	52130.7
532.035	52294.54
532.236	52278.16
532.437	52673.41
532.638	52353.93
532.839	52224.91
533.04	52462.47
533.241	51823.51
533.442	52663.18
533.643	52370.32
533.844	52478.86
534.045	52544.39
534.246	52302.73
534.447	52779.91
534.648	52255.63
534.849	52722.57
535.05	52745.09
535.251	52654.98
535.451	52077.46
535.652	52802.44
535.853	52642.7
536.054	52835.2
536.255	53359.48
536.456	52384.65
536.657	53494.65
536.857	52820.87
537.058	52630.41
537.259	53027.71
537.46	52937.6
537.66	53003.14
537.861	53025.67
538.062	52454.28
538.263	53154.69
538.463	52611.98
538.664	52945.79
538.865	52683.65
539.065	52970.37
539.266	52493.19
539.466	53179.26
539.667	52566.92
539.868	53308.29
540.068	52784.01
540.269	52687.75
540.469	52935.55
540.67	52781.96
540.87	52831.11
541.071	52777.86
541.271	52802.44
541.472	52638.6
541.672	52679.56
541.873	52446.09
542.073	51796.88
542.274	52974.47
542.474	52573.06
542.675	52310.92
542.875	53130.11
543.075	52958.08
543.276	52321.16
543.476	52798.34
543.676	52288.4
543.877	53048.19
544.077	52751.24
544.277	52630.41
544.478	52659.08
544.678	53113.73
544.878	52577.16
545.078	52966.27
545.279	52093.84
545.479	52728.71
545.679	52761.48
545.879	52638.6
546.079	52071.31
546.28	52368.27
546.48	52280.2
546.68	52810.63
546.88	52712.33
547.08	52315.02
547.28	52196.24
547.48	52312.97
547.68	52347.79
547.88	52114.32
548.081	52722.57
548.281	52812.68
548.481	52351.88
548.681	52611.98
548.881	52616.07
549.081	52474.76
549.28	52673.41
549.48	52448.14
549.68	52099.98
549.88	52908.93
550.08	52140.94
550.28	52362.12
550.48	51833.75
550.68	52681.61
550.88	52208.53
551.08	52392.84
551.279	52452.23
551.479	52016.02
551.679	52376.46
551.879	51880.85
552.079	52517.77
552.278	52450.19
552.478	52464.52
552.678	51966.87
552.878	52425.61
553.077	52474.76
553.277	51899.28
553.477	52376.46
553.676	51936.15
553.876	52417.42
554.076	51823.51
554.275	51645.33
554.475	51350.43
554.674	51852.18
554.874	52497.29
555.074	51803.03
555.273	51831.7
555.473	52003.73
555.672	51612.57
555.872	51917.71
556.071	51753.88
556.271	51731.35
556.47	51561.37
556.67	51303.32
556.869	51375
557.068	51477.4
557.268	51215.26
557.467	51172.25
557.667	51313.56
557.866	51184.54
558.065	51557.27
558.265	51405.72
558.464	50506.66
558.663	51166.11
558.863	50668.45
559.062	51481.5
559.261	50582.44
559.461	51385.24
559.66	50500.52
559.859	50891.68
560.058	50267.05
560.258	51028.9
560.457	49959.86
560.656	50688.93
560.855	50473.9
561.054	50404.27
561.253	49955.76
561.453	50502.57
561.652	50316.2
561.851	50385.83
562.05	50127.79
562.249	50021.3
562.448	50367.4
562.647	49757.11
562.846	49701.81
563.045	49994.67
563.244	49290.17
563.443	50082.73
563.642	49222.59
563.841	48958.4
564.04	48919.49
564.239	49779.64
564.438	48964.54
564.637	49107.9
564.836	49296.31
565.035	48739.27
565.234	49185.72
565.432	48849.86
565.631	48815.04
565.83	48485.32
566.029	48307.15
566.228	48149.45
566.427	48192.46
566.625	48174.03
566.824	48081.87
567.023	47930.32
567.222	47092.7
567.42	48440.26
567.619	48202.7
567.818	48018.38
568.016	47191
568.215	48008.14
568.414	47399.9
568.612	47985.61
568.811	47096.8
569.01	47082.46
569.208	46801.89
569.407	47119.32
569.605	46478.31
569.804	47123.42
570.002	46654.43
570.201	47002.59
570.4	46504.93
570.598	46207.98
570.797	46175.21
570.995	45954.03
571.193	45505.52
571.392	46148.59
571.59	45659.12
571.789	45853.68
571.987	45560.82
572.186	45464.56
572.384	45374.45
572.582	45839.34
572.781	45626.35
572.979	45048.83
573.177	45147.13
573.376	45372.41
573.574	44663.81
573.772	45186.04
573.971	44790.78
574.169	44667.91
574.367	44336.13
574.565	45143.03
574.763	44430.34
574.962	44329.99
575.16	43615.25
575.358	44522.5
575.556	43850.77
575.754	44377.09
575.952	43381.78
576.151	44364.81
576.349	43600.91
576.547	43295.77
576.745	43217.94
576.943	43562
577.141	42996.76
577.339	43119.64
577.537	42781.73
577.735	42755.1
577.933	42986.52
578.131	42669.09
578.329	42767.39
578.527	42777.63
578.725	42548.26
578.923	42302.5
579.121	42253.35
579.319	42384.42
579.516	42368.04
579.714	42009.64
579.912	41571.38
580.11	41614.38
580.308	41704.49
580.506	41423.92
580.704	41221.17
580.901	41722.93
581.099	41661.49
581.297	41374.77
581.495	41294.9
581.692	41505.84
581.89	40793.15
582.088	41290.8
582.285	40690.75
582.483	41012.28
582.681	40838.2
582.878	40545.34
583.076	40074.31
583.274	40533.06
583.471	39990.34
583.669	40346.69
583.866	39933
584.064	39885.9
584.262	39517.26
584.459	40113.22
584.657	39611.47
584.854	40137.8
585.052	39179.35
585.249	39378
585.447	39408.72
585.644	39195.73
585.841	39079
586.039	39482.45
586.236	38814.81
586.434	38949.98
586.631	38739.04
586.828	38999.13
587.026	38665.31
587.223	38401.12
587.42	38296.67
587.618	38278.24
587.815	37981.29
588.012	37958.76
588.21	37737.58
588.407	38560.86
588.604	37788.78
588.801	37631.08
588.999	37876.84
589.196	37385.33
589.393	37330.03
589.59	37198.96
589.787	37323.89
589.984	37094.52
590.182	36680.83
590.379	37319.79
590.576	36766.84
590.773	36734.07
590.97	36213.89
591.167	36660.35
591.364	36080.77
591.561	36379.78
591.758	36109.44
591.955	35966.09
592.152	36093.06
592.349	35802.25
592.546	35996.81
592.743	36181.12
592.94	35452.05
593.137	35617.93
593.334	35570.83
593.531	35226.77
593.727	35482.77
593.924	35124.37
594.121	34895
594.318	35112.08
594.515	34600.09
594.712	34927.77
594.908	34845.85
595.105	35036.31
595.302	34626.71
595.499	34509.98
595.696	34665.63
595.892	33993.89
596.089	34387.1
596.286	34069.67
596.482	34016.42
596.679	34122.91
596.876	34051.24
597.072	33721.51
597.269	33664.17
597.466	33434.8
597.662	33309.87
597.859	33322.16
598.055	33686.7
598.252	33412.27
598.448	33186.99
598.645	33014.96
598.841	32935.09
599.038	32961.72
599.234	32906.42
599.431	32505.02
599.627	32707.77
599.824	32597.18
600.02	32627.9
600.217	32580.79
600.413	32416.96
600.609	32246.97
600.806	31997.12
601.002	32421.05
601.198	31900.87
601.395	32095.42
601.591	31950.02
601.787	31663.3
601.984	31728.84
602.18	31653.06
602.376	31237.33
602.572	31200.46
602.769	31165.65
602.965	30964.95
603.161	31218.89
603.357	31392.97
603.553	30479.58
603.75	30942.42
603.946	30565.59
604.142	30930.13
604.338	30301.4
604.534	30684.37
604.73	30356.7
604.926	30321.88
605.122	30659.8
605.318	30287.07
605.514	29807.84
605.71	29990.11
605.906	29940.96
606.102	29891.81
606.298	29580.52
606.494	29904.1
606.69	29615.33
606.886	30012.64
607.082	29254.89
607.278	29531.37
607.474	29242.6
607.67	29689.06
607.866	28941.55
608.062	29480.17
608.257	29009.14
608.453	28943.6
608.649	29172.97
608.845	29086.96
609.041	28771.57
609.236	28912.88
609.432	28818.67
609.628	28808.44
609.824	28609.78
610.019	28777.72
610.215	28546.3
610.411	28830.96
610.606	28632.31
610.802	28212.48
610.998	28638.45
611.193	28630.26
611.389	28443.9
611.584	28124.41
611.78	28441.85
611.976	28183.8
612.171	28267.77
612.367	28040.45
612.562	27991.3
612.758	28146.94
612.953	27677.96
613.149	28013.82
613.344	27688.2
613.539	28091.65
613.735	27438.34
613.93	27817.22
614.126	27849.99
614.321	27862.27
614.517	27460.87
614.712	27403.53
614.907	27587.85
615.103	27684.1
615.298	27178.25
615.493	27778.31
615.688	27163.92
615.884	27899.14
616.079	27008.27
616.274	27319.56
616.47	27307.27
616.665	27350.28
616.86	26866.96
617.055	27237.64
617.25	26907.92
617.445	27319.56
617.641	26639.64
617.836	26778.9
618.031	26281.24
618.226	26703.12
618.421	26406.17
618.616	26438.94
618.811	26101.02
619.006	26445.08
619.201	25963.81
619.396	26221.85
619.591	25720.1
619.786	25826.59
619.981	25912.61
620.176	26385.69
620.371	25281.83
620.566	25842.98
620.761	25490.73
620.956	25517.35
621.151	25148.71
621.346	25404.71
621.541	25044.27
621.735	25128.24
621.93	24606
622.125	25011.5
622.32	24388.92
622.515	24464.69
622.709	24276.28
622.904	24489.27
623.099	24200.51
623.294	24509.75
623.488	24155.45
623.683	23866.69
623.878	23598.4
624.072	23680.32
624.267	23747.9
624.462	23483.72
624.656	23252.3
624.851	23051.59
625.046	23346.5
625.24	23201.1
625.435	22898
625.629	22889.81
625.824	22453.59
626.018	22594.9
626.213	22009.18
626.407	22408.53
626.602	22355.29
626.796	22410.58
626.991	22240.6
627.185	21755.23
627.38	21761.37
627.574	21552.48
627.768	21581.15
627.963	21480.8
628.157	21593.44
628.352	21304.68
628.546	20925.8
628.74	21382.5
628.935	20815.21
629.129	20880.75
629.323	20682.1
629.517	20606.32
629.712	20536.69
629.906	20422
630.1	19807.61
630.294	20469.11
630.489	19805.56
630.683	20182.39
630.877	19729.79
631.071	19805.56
631.265	19905.91
631.459	19826.04
631.653	19772.8
631.848	19361.16
632.042	19133.83
632.236	19156.36
632.43	19058.06
632.624	19197.32
632.818	18800.01
633.012	18883.98
633.206	18548.11
633.4	18701.71
633.594	18527.63
633.788	18261.4
633.982	18378.13
634.176	18410.9
634.369	18120.09
634.563	18296.21
634.757	17804.7
634.951	18097.56
635.145	17974.68
635.339	18072.98
635.533	17939.86
635.726	17843.61
635.92	17427.87
636.114	17421.73
636.308	17321.38
636.501	17266.08
636.695	17339.81
636.889	16997.8
637.083	17051.05
637.276	16856.49
637.47	16960.94
637.664	16930.22
637.857	16655.79
638.051	16627.12
638.244	16369.07
638.438	16473.52
638.632	16297.39
638.825	16418.22
639.019	16172.47
639.212	15898.04
639.406	16174.52
639.599	15846.84
639.793	15728.06
639.986	15478.21
640.18	15742.39
640.373	15726.01
640.567	15381.95
640.76	15340.99
640.954	15373.76
641.147	15275.46
641.34	15154.63
641.534	15328.7
641.727	15023.56
641.92	15320.51
642.114	14818.76
642.307	14796.23
642.5	14804.42
642.694	14380.5
642.887	14474.7
643.08	14757.32
643.273	14417.36
643.467	14392.78
643.66	14243.28
643.853	14319.06
644.046	14169.55
644.239	14198.23
644.432	13931.99
644.626	14034.39
644.819	13845.98
645.012	13854.17
645.205	13895.13
645.398	13712.86
645.591	13800.92
645.784	13604.32
645.977	13327.84
646.17	13376.99
646.363	13192.67
646.556	13166.05
646.749	13198.82
646.942	13153.76
647.135	13014.5
647.328	12955.11
647.521	13159.91
647.714	12850.66
647.907	12879.33
648.099	12881.38
648.292	12707.3
648.485	12725.74
648.678	12441.07
648.871	12525.04
649.064	12260.85
649.256	12504.56
649.449	12479.98
649.642	12324.33
649.835	12111.35
650.027	12117.49
650.22	12223.98
650.413	11818.49
650.605	11916.79
650.798	11957.75
650.991	11779.57
651.183	11736.57
651.376	11705.85
651.568	11748.86
651.761	11546.11
651.954	11599.35
652.146	11539.96
652.339	11378.17
652.531	11435.52
652.724	11331.07
652.916	11142.66
653.109	10980.87
653.301	11138.56
653.494	11279.87
653.686	11079.17
653.879	11052.55
654.071	10841.61
654.263	10706.44
654.456	10767.88
654.648	10819.08
654.84	10679.82
655.033	10464.78
655.225	10567.18
655.417	10800.65
655.61	10438.16
655.802	10485.26
655.994	10292.75
656.186	10358.28
656.379	10319.37
656.571	10352.14
656.763	9973.27
656.955	9969.17
657.148	10055.19
657.34	10083.86
657.532	9991.7
657.724	9952.79
657.916	10010.13
658.108	9981.46
658.3	9541.15
658.492	9782.81
658.684	9686.55
658.876	9479.71
659.068	9596.44
659.26	9504.28
659.452	9342.49
659.644	9375.26
659.836	9358.88
660.028	9399.84
660.22	9180.7
660.412	9197.09
660.604	9086.5
660.796	9264.67
660.988	9195.04
661.18	9262.62
661.372	9141.79
661.563	9023.01
661.755	8910.37
661.947	8908.32
662.139	8752.68
662.331	8908.32
662.522	8793.64
662.714	8601.13
662.906	8605.22
663.097	8635.94
663.289	8633.89
663.481	8500.78
663.673	8326.7
663.864	8398.38
664.056	8361.52
664.247	8449.58
664.439	8197.68
664.631	8273.45
664.822	8214.06
665.014	8193.58
665.205	8173.1
665.397	8066.61
665.588	8164.91
665.78	8011.31
665.971	8007.22
666.163	7964.21
666.354	7935.54
666.546	7990.83
666.737	7861.81
666.929	7816.76
667.12	7882.29
667.311	7822.9
667.503	7644.73
667.694	7757.36
667.885	7618.1
668.077	7460.41
668.268	7673.4
668.459	7427.64
668.651	7527.99
668.842	7571
669.033	7468.6
669.224	7450.17
669.416	7355.96
669.607	7169.6
669.798	7106.11
669.989	7231.04
670.18	7026.24
670.371	7005.76
670.563	7106.11
670.754	7151.17
670.945	7102.01
671.136	6954.56
671.327	7077.44
671.518	6936.13
671.709	6952.51
671.9	7044.67
672.091	6997.57
672.282	6751.81
672.473	6827.59
672.664	6854.21
672.855	6841.92
673.046	6766.15
673.237	6657.61
673.428	6723.14
673.619	6700.61
673.809	6413.9
674	6542.92
674.191	6633.03
674.382	6581.83
674.573	6510.15
674.764	6415.94
674.954	6733.38
675.145	6389.32
675.336	6411.85
675.527	6307.4
675.717	6434.38
675.908	6395.47
676.099	6252.11
676.289	6225.48
676.48	6340.17
676.671	6067.79
676.861	6315.59
677.052	6266.44
677.243	6209.1
677.433	5942.86
677.624	6164.04
677.814	6082.13
678.005	6094.41
678.195	6051.41
678.386	6069.84
678.576	6078.03
678.767	6024.78
678.957	5875.28
679.148	5983.82
679.338	6012.49
679.529	5918.29
679.719	5971.54
679.909	5842.51
680.1	5791.31
680.29	5877.33
680.481	5840.47
680.671	5897.81
680.861	5531.22
681.052	5733.97
681.242	5838.42
681.432	5762.64
681.622	5721.68
681.813	5723.73
682.003	5584.47
682.193	5555.8
682.383	5553.75
682.573	5658.2
682.764	5512.79
682.954	5586.52
683.144	5537.37
683.334	5432.92
683.524	5463.64
683.714	5596.76
683.904	5402.2
684.094	5467.74
684.284	5449.3
684.474	5477.98
684.664	5500.5
684.854	5355.1
685.044	5432.92
685.234	5328.47
685.424	5363.29
685.614	5246.55
685.804	5258.84
685.994	5264.99
686.184	5346.91
686.374	5160.54
686.564	5129.82
686.753	5111.39
686.943	5109.34
687.133	5244.51
687.323	5107.29
687.513	5129.82
687.702	5109.34
687.892	5066.33
688.082	5084.77
688.272	5150.3
688.461	5074.53
688.651	5103.2
688.841	5013.09
689.03	4892.26
689.22	4750.95
689.41	4820.58
689.599	4820.58
689.789	4834.91
689.979	4812.39
690.168	4669.03
690.358	4585.06
690.547	4613.73
690.737	4755.04
690.926	4652.64
691.116	4695.65
691.305	4652.64
691.495	4527.72
691.684	4497
691.874	4734.56
692.063	4646.5
692.252	4517.48
692.442	4693.6
692.631	4623.97
692.82	4642.4
693.01	4566.63
693.199	4402.79
693.388	4476.52
693.578	4669.03
693.767	4451.94
693.956	4556.39
694.146	4435.56
694.335	4415.08
694.524	4171.37
694.713	4505.19
694.902	4439.65
695.092	4394.6
695.281	4376.17
695.47	4279.91
695.659	4241
695.848	4316.78
696.037	4177.51
696.226	4308.58
696.415	4191.85
696.604	4357.74
696.793	4279.91
696.982	4224.62
697.171	4296.3
697.36	4224.62
697.549	4130.41
697.738	4413.03
697.927	4134.51
698.116	4361.83
698.305	4222.57
698.494	4138.6
698.683	4179.56
698.872	4093.55
699.061	4130.41
699.25	4161.13
699.438	4191.85
699.627	4195.95
699.816	4083.31
700.005	4218.47
700.193	4019.82
700.382	4116.08
700.571	4015.73
700.76	4017.77
700.948	4136.56
701.137	3939.95
701.326	4060.78
701.514	3858.03
701.703	4062.83
701.892	4040.3
702.08	4013.68
702.269	4019.82
702.457	3907.18
702.646	3925.61
702.834	3929.71
703.023	3853.94
703.212	3903.09
703.4	4046.44
703.589	3950.19
703.777	3999.34
703.965	3909.23
704.154	3858.03
704.342	3868.27
704.531	3812.98
704.719	3888.75
704.907	3935.85
705.096	3806.83
705.284	3952.24
705.472	3915.37
705.661	3872.37
705.849	3921.52
706.037	3839.6
706.226	3835.5
706.414	3825.26
706.602	3876.46
706.79	3868.27
706.979	3645.04
707.167	3792.5
707.355	3769.97
707.543	3714.67
707.731	3696.24
707.919	3686
708.107	3808.88
708.296	3794.54
708.484	3657.33
708.672	3755.63
708.86	3663.47
709.048	3688.05
709.236	3610.23
709.424	3636.85
709.612	3808.88
709.8	3473.01
709.988	3624.56
710.176	3673.71
710.364	3753.59
710.551	3726.96
710.739	3626.61
710.927	3739.25
711.115	3645.04
711.303	3743.35
711.491	3659.38
711.679	3618.42
711.866	3563.12
712.054	3626.61
712.242	3661.43
712.43	3671.67
712.617	3599.99
712.805	3602.04
712.993	3649.14
713.181	3466.87
713.368	3466.87
713.556	3534.45
713.744	3503.73
713.931	3452.53
714.119	3542.64
714.306	3686
714.494	3548.79
714.682	3368.57
714.869	3485.3
715.057	3403.38
715.244	3499.64
715.432	3450.49
715.619	3325.56
715.807	3487.35
715.994	3456.63
716.182	3387
716.369	3468.92
716.556	3534.45
716.744	3481.21
716.931	3481.21
717.119	3493.49
717.306	3423.86
717.493	3520.12
717.681	3485.3
717.868	3323.51
718.055	3219.07
718.242	3290.74
718.43	3380.86
718.617	3407.48
718.804	3280.5
718.991	3329.66
719.179	3305.08
719.366	3309.18
719.553	3358.33
719.74	3268.22
719.927	3305.08
720.114	3223.16
720.301	3210.87
720.488	3159.67
720.676	3221.11
720.863	3276.41
721.05	3370.62
721.237	3288.7
721.424	3243.64
721.611	3208.83
721.798	3255.93
721.985	3096.19
722.172	3243.64
722.358	2991.74
722.545	3159.67
722.732	3161.72
722.919	3229.31
723.106	3237.5
723.293	3120.76
723.48	3296.89
723.667	3092.09
723.853	3296.89
724.04	3233.4
724.227	3155.58
724.414	3167.87
724.6	3157.63
724.787	3094.14
724.974	3198.59
725.161	3143.29
725.347	3149.43
725.534	3143.29
725.72	3223.16
725.907	3034.75
726.094	3174.01
726.28	3157.63
726.467	3071.61
726.653	3108.48
726.84	3092.09
727.027	3169.91
727.213	3100.28
727.4	3137.15
727.586	3055.23
727.773	3118.72
727.959	3108.48
728.145	3112.57
728.332	2956.93
728.518	3049.08
728.705	2963.07
728.891	2969.21
729.077	2967.17
729.264	3053.18
729.45	3047.04
729.636	3083.9
729.823	2915.97
730.009	3012.22
730.195	2836.1
730.382	3104.38
730.568	2936.45
730.754	3122.81
730.94	2915.97
731.126	2977.41
731.313	2997.88
731.499	2856.58
731.685	2899.58
731.871	2997.88
732.057	2918.01
732.243	2991.74
732.429	3094.14
732.615	2913.92
732.801	2975.36
732.987	2879.1
733.173	2862.72
733.359	2918.01
733.545	2944.64
733.731	2836.1
733.917	2979.45
734.103	2887.29
734.289	2758.27
734.475	2774.66
734.661	2946.69
734.847	2846.34
735.033	2832
735.219	3001.98
735.404	2768.51
735.59	2915.97
735.776	2766.46
735.962	2872.96
736.148	2854.53
736.333	2723.46
736.519	2727.55
736.705	2918.01
736.89	2754.18
737.076	2776.7
737.262	2731.65
737.447	2682.5
737.633	2725.51
737.819	2631.3
738.004	2809.47
738.19	2750.08
738.375	2705.03
738.561	2807.42
738.747	2619.01
738.932	2688.64
739.118	2592.39
739.303	2713.22
739.489	2760.32
739.674	2698.88
739.859	2555.52
740.045	2696.83
740.23	2770.56
740.416	2559.62
740.601	2629.25
740.786	2422.41
740.972	2557.57
741.157	2512.52
741.342	2557.57
741.528	2608.77
741.713	2555.52
741.898	2578.05
742.084	2629.25
742.269	2500.23
742.454	2440.84
742.639	2430.6
742.824	2473.6
743.01	2489.99
743.195	2469.51
743.38	2510.47
743.565	2539.14
743.75	2541.19
743.935	2446.98
744.12	2598.53
744.305	2358.92
744.49	2440.84
744.675	2395.78
744.86	2422.41
745.045	2326.15
745.23	2391.69
745.415	2358.92
745.6	2293.38
745.785	2236.04
745.97	2307.72
746.155	2285.19
746.34	2334.34
746.525	2299.53
746.71	2252.42
746.895	2211.46
747.079	2389.64
747.264	2195.08
747.449	2256.52
747.634	2297.48
747.819	2170.51
748.003	2125.45
748.188	2207.37
748.373	2070.16
748.557	2117.26
748.742	2156.17
748.927	2190.99
749.111	2107.02
749.296	2012.81
749.481	2002.57
749.665	2080.39
749.85	1928.85
750.034	2018.96
750.219	1887.89
750.404	1963.66
750.588	1994.38
750.773	1910.41
750.957	1961.61
751.141	1982.09
751.326	1896.08
751.51	1959.56
751.695	1846.93
751.879	1885.84
752.064	1914.51
752.248	1838.73
752.432	1902.22
752.617	1799.82
752.801	1838.73
752.985	1810.06
753.17	1812.11
753.354	1779.34
753.538	1771.15
753.722	1693.33
753.907	1820.3
754.091	1771.15
754.275	1752.72
754.459	1775.25
754.643	1633.94
754.828	1726.1
755.012	1611.41
755.196	1724.05
755.38	1709.71
755.564	1732.24
755.748	1656.47
755.932	1660.56
756.116	1506.96
756.3	1595.03
756.484	1631.89
756.668	1615.51
756.852	1533.59
757.036	1580.69
757.22	1592.98
757.404	1533.59
757.588	1545.88
757.772	1492.63
757.956	1453.72
758.14	1570.45
758.323	1517.2
758.507	1562.26
758.691	1525.4
758.875	1398.42
759.059	1384.09
759.242	1384.09
759.426	1568.4
759.61	1400.47
759.794	1431.19
759.977	1455.76
760.161	1404.57
760.345	1519.25
760.528	1447.57
760.712	1330.84
760.895	1392.28
761.079	1287.83
761.263	1379.99
761.446	1263.26
761.63	1334.93
761.813	1355.41
761.997	1396.37
762.18	1341.08
762.364	1408.66
762.547	1275.54
762.731	1347.22
762.914	1371.8
763.098	1228.44
763.281	1332.89
763.464	1244.82
763.648	1291.93
763.831	1285.78
764.015	1224.34
764.198	1218.2
764.381	1230.49
764.564	1238.68
764.748	1250.97
764.931	1216.15
765.114	1244.82
765.297	1171.1
765.481	1218.2
765.664	1199.77
765.847	1189.53
766.03	1318.55
766.213	1164.95
766.397	1273.5
766.58	1175.19
766.763	1234.58
766.946	1201.82
767.129	1183.38
767.312	1087.13
767.495	1201.82
767.678	1109.66
767.861	1212.06
768.044	1181.34
768.227	1238.68
768.41	1117.85
768.593	1099.42
768.776	1117.85
768.959	1121.95
769.142	1119.9
769.324	1164.95
769.507	1142.43
769.69	1101.47
769.873	1091.23
770.056	1119.9
770.239	1040.03
770.421	1148.57
770.604	1005.21
770.787	1013.4
770.97	1013.4
771.152	1025.69
771.335	1087.13
771.518	1056.41
771.7	1080.99
771.883	1040.03
772.066	1066.65
772.248	978.59
772.431	999.07
772.613	972.44
772.796	1035.93
772.978	1050.27
773.161	1072.79
773.343	988.83
773.526	937.63
773.708	1001.12
773.891	913.05
774.073	949.92
774.256	937.63
774.438	972.44
774.621	984.73
774.803	982.68
774.985	878.24
775.168	921.24
775.35	941.72
775.532	896.67
775.715	954.01
775.897	808.61
776.079	913.05
776.261	868
776.444	849.57
776.626	812.7
776.808	818.85
776.99	781.98
777.173	804.51
777.355	868
777.537	841.37
777.719	820.89
777.901	818.85
778.083	872.09
778.265	835.23
778.447	900.76
778.629	757.41
778.811	738.98
778.993	786.08
779.175	755.36
779.357	814.75
779.539	691.87
779.721	806.56
779.903	829.09
780.085	743.07
780.267	673.44
780.449	671.39
780.631	822.94
780.812	728.74
780.994	730.78
781.176	806.56
781.358	689.82
781.54	706.21
781.721	708.26
781.903	706.21
782.085	681.63
782.267	671.39
782.448	562.85
782.63	673.44
782.812	628.39
782.993	702.11
783.175	673.44
783.357	638.62
783.538	671.39
783.72	677.54
783.901	612
784.083	583.33
784.264	605.86
784.446	599.71
784.627	568.99
784.809	609.95
784.99	542.37
785.172	601.76
785.353	601.76
785.535	587.43
785.716	579.23
785.897	540.32
786.079	566.95
786.26	548.51
786.441	564.9
786.623	546.47
786.804	564.9
786.985	534.18
787.167	534.18
787.348	601.76
787.529	593.57
787.71	493.22
787.891	544.42
788.073	493.22
788.254	396.96
788.435	573.09
788.616	503.46
788.797	544.42
788.978	515.75
789.159	509.6
789.34	433.83
789.522	419.49
789.703	519.84
789.884	460.45
790.065	491.17
790.246	491.17
790.427	458.4
790.607	468.64
790.788	470.69
790.969	435.88
791.15	528.03
791.331	474.79
791.512	495.27
791.693	425.64
791.874	523.94
792.054	489.12
792.235	485.03
792.416	456.36
792.597	399.01
792.778	380.58
792.958	423.59
793.139	401.06
793.32	382.63
793.5	399.01
793.681	429.73
793.862	413.35
794.042	392.87
794.223	343.72
794.404	388.77
794.584	386.72
794.765	290.47
794.945	380.58
795.126	411.3
795.306	378.53
795.487	349.86
795.667	376.48
795.848	315.05
796.028	429.73
796.209	427.68
796.389	386.72
796.57	417.44
796.75	376.48
796.93	356.01
797.111	251.56
797.291	335.53
797.471	356.01
797.652	356.01
797.832	351.91
798.012	372.39
798.192	304.81
798.373	302.76
798.553	347.81
798.733	337.57
798.913	269.99
799.093	392.87
799.274	319.14
799.454	323.24
799.634	343.72
799.814	392.87
799.994	282.28
800.174	396.96
800.354	310.95
800.534	315.05
800.714	331.43
800.894	267.94
801.074	343.72
801.254	331.43
801.434	319.14
801.614	243.37
801.794	263.85
801.974	601.76
802.154	356.01
802.334	276.13
802.514	253.61
802.693	265.89
802.873	294.57
803.053	364.2
803.233	284.33
803.413	245.41
803.592	294.57
803.772	321.19
803.952	290.47
804.131	347.81
804.311	331.43
804.491	233.13
804.67	337.57
804.85	302.76
805.03	278.18
805.209	302.76
805.389	282.28
805.568	306.85
805.748	216.74
805.928	204.46
806.107	251.56
806.287	335.53
806.466	241.32
806.646	319.14
806.825	284.33
807.004	169.64
807.184	292.52
807.363	235.18
807.543	181.93
807.722	300.71
807.901	267.94
808.081	204.46
808.26	284.33
808.439	229.03
808.619	292.52
808.798	298.66
808.977	218.79
809.156	253.61
809.336	192.17
809.515	245.41
809.694	249.51
809.873	220.84
810.052	272.04
810.231	206.5
810.411	257.7
810.59	251.56
810.769	235.18
810.948	239.27
811.127	61.1
811.306	198.31
811.485	194.22
811.664	220.84
811.843	239.27
812.022	200.36
812.201	173.74
812.38	181.93
812.559	138.92
812.737	276.13
812.916	173.74
813.095	190.12
813.274	188.07
813.453	204.46
813.632	278.18
813.811	120.49
813.989	196.26
814.168	159.4
814.347	192.17
814.526	175.78
814.704	136.87
814.883	196.26
815.062	140.97
815.24	235.18
815.419	194.22
815.598	145.06
815.776	132.78
815.955	222.89
816.133	157.35
816.312	192.17
816.49	130.73
816.669	173.74
816.847	122.54
817.026	102.06
817.204	112.3
817.383	179.88
817.561	165.54
817.74	112.3
817.918	175.78
818.097	110.25
818.275	190.12
818.453	157.35
818.632	173.74
818.81	161.45
818.988	163.5
819.167	171.69
819.345	149.16
819.523	153.26
819.701	126.63
819.879	204.46
820.058	143.02
820.236	155.3
820.414	188.07
820.592	253.61
820.77	183.98
820.948	224.94
821.127	143.02
821.305	200.36
821.483	175.78
821.661	126.63
821.839	145.06
822.017	87.72
822.195	196.26
822.373	134.82
822.551	81.58
822.729	233.13
822.907	85.67
823.085	188.07
823.262	198.31
823.44	130.73
823.618	167.59
823.796	67.24
823.974	147.11
824.152	120.49
824.329	210.6
824.507	194.22
824.685	100.01
824.863	120.49
825.04	44.71
825.218	179.88
825.396	128.68
825.574	143.02
825.751	118.44
825.929	175.78
826.107	106.15
826.284	110.25
826.462	204.46
826.639	102.06
826.817	77.48
826.994	118.44
827.172	83.63
827.349	145.06
827.527	188.07
827.704	151.21
827.882	118.44
828.059	159.4
828.237	34.47
828.414	89.77
828.591	110.25
828.769	112.3
828.946	177.83
829.124	134.82
829.301	147.11
829.478	97.96
829.655	114.34
829.833	124.58
830.01	120.49
830.187	93.87
830.364	138.92
830.542	138.92
830.719	216.74
830.896	157.35
831.073	132.78
831.25	130.73
831.427	91.82
831.604	89.77
831.782	48.81
831.959	93.87
832.136	65.19
832.313	44.71
832.49	69.29
832.667	132.78
832.844	38.57
833.021	122.54
833.198	63.15
833.374	97.96
833.551	163.5
833.728	104.11
833.905	73.39
834.082	67.24
834.259	59.05
834.436	143.02
834.612	112.3
834.789	122.54
834.966	130.73
835.143	175.78
835.319	77.48
835.496	147.11
835.673	59.05
835.85	93.87
836.026	132.78
836.203	108.2
836.38	73.39
836.556	46.76
836.733	116.39
836.909	171.69
837.086	54.95
837.262	130.73
837.439	28.33
837.616	91.82
837.792	116.39
837.968	83.63
838.145	57
838.321	11.95
838.498	59.05
838.674	38.57
838.851	75.43
839.027	54.95
839.203	134.82
839.38	75.43
839.556	138.92
839.732	65.19
839.909	63.15
840.085	81.58
840.261	61.1
840.437	167.59
840.614	44.71
840.79	143.02
840.966	114.34
841.142	114.34
841.318	134.82
841.494	124.58
841.671	106.15
841.847	100.01
842.023	93.87
842.199	91.82
842.375	93.87
842.551	114.34
842.727	81.58
842.903	108.2
843.079	71.34
843.255	167.59
843.431	122.54
843.607	157.35
843.783	57
843.959	108.2
844.134	67.24
844.31	65.19
844.486	91.82
844.662	126.63
844.838	24.23
845.013	73.39
845.189	54.95
845.365	69.29
845.541	28.33
845.716	13.99
845.892	1.71
846.068	87.72
846.244	77.48
846.419	112.3
846.595	-0.34
846.77	16.04
846.946	77.48
847.122	3.75
847.297	-16.73
847.473	22.19
847.648	81.58
847.824	-22.87
847.999	52.91
848.175	24.23
848.35	38.57
848.526	59.05
848.701	126.63
848.876	75.43
849.052	73.39
849.227	30.38
849.403	34.47
849.578	79.53
849.753	118.44
849.929	128.68
850.104	13.99
850.279	3.75
850.454	87.72
850.63	7.85
850.805	20.14
850.98	87.72
851.155	61.1
851.33	138.92
851.505	30.38
851.681	83.63
851.856	71.34
852.031	95.91
852.206	110.25
852.381	114.34
852.556	32.43
852.731	32.43
852.906	32.43
853.081	11.95
853.256	73.39
853.431	7.85
853.606	124.58
853.781	-4.44
853.956	-37.2
854.131	110.25
854.305	-39.25
854.48	22.19
854.655	3.75
854.83	42.67
855.005	87.72
855.18	122.54
855.354	-4.44
855.529	-24.92
855.704	128.68
855.879	81.58
856.053	87.72
856.228	145.06
856.403	16.04
856.577	9.9
856.752	52.91
856.926	63.15
857.101	-0.34
857.276	97.96
857.45	54.95
857.625	126.63
857.799	50.86
857.974	97.96
858.148	-16.73
858.323	26.28
858.497	28.33
858.672	7.85
858.846	-22.87
859.02	46.76
859.195	73.39
859.369	38.57
859.543	-2.39
859.718	57
859.892	102.06
860.066	5.8
860.241	28.33
860.415	34.47
860.589	32.43
860.763	69.29
860.938	16.04
861.112	28.33
861.286	57
861.46	24.23
861.634	20.14
861.808	93.87
861.982	-16.73
862.157	65.19
862.331	5.8
862.505	57
862.679	3.75
862.853	13.99
863.027	-8.53
863.201	32.43
863.375	3.75
863.549	16.04
863.722	11.95
863.896	112.3
864.07	106.15
864.244	48.81
864.418	13.99
864.592	36.52
864.766	46.76
864.939	59.05
865.113	52.91
865.287	52.91
865.461	81.58
865.634	26.28
865.808	67.24
865.982	112.3
866.156	-31.06
866.329	108.2
866.503	7.85
866.676	77.48
866.85	-14.68
867.024	16.04
867.197	65.19
867.371	7.85
867.544	36.52
867.718	36.52
867.891	63.15
868.065	71.34
868.238	38.57
868.412	91.82
868.585	69.29
868.759	9.9
868.932	28.33
869.105	-29.01
869.279	-10.58
869.452	40.62
869.625	110.25
869.799	-0.34
869.972	-14.68
870.145	81.58
870.319	81.58
870.492	-57.68
870.665	71.34
870.838	7.85
871.011	9.9
871.185	11.95
871.358	-26.96
871.531	13.99
871.704	-51.54
871.877	128.68
872.05	59.05
872.223	79.53
872.396	18.09
872.569	-2.39
872.742	34.47
872.915	28.33
873.088	-20.82
873.261	18.09
873.434	32.43
873.607	-14.68
873.78	108.2
873.953	-20.82
874.126	83.63
874.299	7.85
874.471	50.86
874.644	52.91
874.817	-14.68
874.99	18.09
875.163	-2.39
875.335	9.9
875.508	52.91
875.681	59.05
875.853	20.14
876.026	-14.68
876.199	3.75
876.371	46.76
876.544	-33.11
876.717	95.91
876.889	-20.82
877.062	28.33
877.234	-57.68
877.407	91.82
877.579	-33.11
877.752	89.77
877.924	30.38
878.097	71.34
878.269	24.23
878.442	112.3
878.614	7.85
878.786	-16.73
878.959	81.58
879.131	32.43
879.303	11.95
879.476	44.71
879.648	79.53
879.82	59.05
879.993	-86.36
880.165	18.09
880.337	3.75
880.509	11.95
880.681	1.71
880.854	-4.44
881.026	11.95
881.198	93.87
881.37	26.28
881.542	38.57
881.714	-0.34
881.886	44.71
882.058	-4.44
882.23	-16.73
882.402	-0.34
882.574	69.29
882.746	-2.39
882.918	1.71
883.09	-10.58
883.262	22.19
883.434	-33.11
883.606	1.71
883.778	34.47
883.95	40.62
884.122	-8.53
884.293	44.71
884.465	1.71
884.637	61.1
884.809	28.33
884.98	-4.44
885.152	40.62
885.324	44.71
885.496	69.29
885.667	-55.64
885.839	48.81
886.011	26.28
886.182	-10.58
886.354	-20.82
886.525	-2.39
886.697	-24.92
886.869	24.23
887.04	65.19
887.212	28.33
887.383	77.48
887.555	-29.01
887.726	38.57
887.897	-2.39
888.069	44.71
888.24	65.19
888.412	26.28
888.583	-26.96
888.754	32.43
888.926	-20.82
889.097	22.19
889.268	-33.11
889.44	1.71
889.611	28.33
889.782	24.23
889.953	-2.39
890.125	65.19
890.296	-4.44
890.467	18.09
890.638	18.09
890.809	77.48
890.98	38.57
891.151	-47.44
891.323	57
891.494	24.23
891.665	-8.53
891.836	3.75
892.007	34.47
892.178	81.58
892.349	9.9
892.52	69.29
892.691	1.71
892.862	20.14
893.032	-51.54
893.203	-35.16
893.374	-4.44
893.545	59.05
893.716	30.38
893.887	-4.44
894.057	11.95
894.228	77.48
894.399	22.19
894.57	50.86
894.74	-76.12
894.911	69.29
895.082	-47.44
895.253	-24.92
895.423	24.23
895.594	57
895.764	24.23
895.935	-6.49
896.106	52.91
896.276	-35.16
896.447	48.81
896.617	-8.53
896.788	-16.73
896.958	-67.92
897.129	75.43
897.299	-65.88
897.47	34.47
897.64	73.39
897.81	5.8
897.981	75.43
898.151	-14.68
898.322	-45.4
898.492	-2.39
898.662	7.85
898.832	28.33
899.003	48.81
899.173	54.95
899.343	24.23
899.513	77.48
