Data from USB4F104151__113__11-07-19-278.txt Node

Date: Wed Mar 12 11:07:19 EDT 2025
User: louis
Spectrometer: USB4F10415
Trigger mode: 4
Integration Time (sec): 2.000000E-2
Scans to average: 1
Electric dark correction enabled: true
Nonlinearity correction enabled: false
Boxcar width: 0
XAxis mode: Wavelengths
Number of Pixels in Spectrum: 3648
>>>>>Begin Spectral Data<<<<<
178.204	39.08
178.424	39.08
178.644	39.08
178.864	-128.85
179.084	-67.41
179.304	-63.32
179.524	24.75
179.744	43.18
179.964	-5.97
180.184	-51.03
180.404	-10.07
180.624	-59.22
180.844	32.94
181.064	24.75
181.283	51.37
181.503	-8.02
181.723	20.65
181.943	-24.4
182.163	45.23
182.383	22.7
182.602	-10.07
182.822	22.7
183.042	18.6
183.262	8.36
183.482	98.47
183.701	4.27
183.921	10.41
184.141	-10.07
184.361	30.89
184.58	49.32
184.8	59.56
185.02	32.94
185.239	-5.97
185.459	14.51
185.679	22.7
185.898	53.42
186.118	45.23
186.338	28.84
186.557	67.75
186.777	30.89
186.997	-8.02
187.216	37.03
187.436	45.23
187.655	30.89
187.875	55.47
188.095	18.6
188.314	67.75
188.534	55.47
188.753	41.13
188.973	47.27
189.192	51.37
189.412	4.27
189.631	43.18
189.851	34.99
190.07	96.43
190.29	37.03
190.509	6.31
190.729	39.08
190.948	-10.07
191.168	39.08
191.387	73.9
191.607	16.55
191.826	26.79
192.045	26.79
192.265	65.71
192.484	51.37
192.704	26.79
192.923	-18.26
193.142	88.23
193.362	100.52
193.581	32.94
193.8	41.13
194.02	-8.02
194.239	49.32
194.458	45.23
194.678	73.9
194.897	10.41
195.116	8.36
195.335	63.66
195.555	30.89
195.774	39.08
195.993	53.42
196.212	18.6
196.432	14.51
196.651	34.99
196.87	43.18
197.089	127.14
197.308	39.08
197.528	51.37
197.747	-8.02
197.966	63.66
198.185	2.22
198.404	59.56
198.623	6.31
198.842	121
199.062	12.46
199.281	49.32
199.5	94.38
199.719	53.42
199.938	30.89
200.157	-10.07
200.376	-10.07
200.595	73.9
200.814	16.55
201.033	12.46
201.252	28.84
201.471	63.66
201.69	125.1
201.909	-18.26
202.128	49.32
202.347	65.71
202.566	-5.97
202.785	14.51
203.004	14.51
203.223	71.85
203.442	12.46
203.661	80.04
203.879	94.38
204.098	39.08
204.317	94.38
204.536	41.13
204.755	-30.55
204.974	84.14
205.193	-18.26
205.411	43.18
205.63	104.62
205.849	-26.45
206.068	26.79
206.287	-18.26
206.505	75.95
206.724	59.56
206.943	14.51
207.162	26.79
207.381	125.1
207.599	22.7
207.818	75.95
208.037	96.43
208.255	-5.97
208.474	-34.64
208.693	92.33
208.911	104.62
209.13	61.61
209.349	55.47
209.567	34.99
209.786	-16.21
210.005	106.67
210.223	47.27
210.442	-91.99
210.661	-48.98
210.879	75.95
211.098	8.36
211.316	55.47
211.535	55.47
211.753	63.66
211.972	12.46
212.191	10.41
212.409	26.79
212.628	135.34
212.846	30.89
213.065	-40.79
213.283	123.05
213.502	10.41
213.72	10.41
213.938	71.85
214.157	37.03
214.375	49.32
214.594	45.23
214.812	0.17
215.031	45.23
215.249	47.27
215.467	-10.07
215.686	-8.02
215.904	47.27
216.122	43.18
216.341	22.7
216.559	69.8
216.778	100.52
216.996	-10.07
217.214	47.27
217.432	28.84
217.651	47.27
217.869	6.31
218.087	4.27
218.306	45.23
218.524	45.23
218.742	98.47
218.96	67.75
219.179	37.03
219.397	47.27
219.615	51.37
219.833	47.27
220.051	-32.6
220.27	47.27
220.488	39.08
220.706	51.37
220.924	59.56
221.142	77.99
221.36	2.22
221.578	47.27
221.796	20.65
222.015	55.47
222.233	59.56
222.451	4.27
222.669	34.99
222.887	2.22
223.105	-40.79
223.323	39.08
223.541	6.31
223.759	22.7
223.977	28.84
224.195	55.47
224.413	39.08
224.631	6.31
224.849	94.38
225.067	106.67
225.285	51.37
225.503	65.71
225.721	-57.17
225.939	6.31
226.157	47.27
226.375	82.09
226.592	10.41
226.81	37.03
227.028	69.8
227.246	63.66
227.464	80.04
227.682	51.37
227.9	63.66
228.117	20.65
228.335	14.51
228.553	53.42
228.771	-10.07
228.989	4.27
229.206	34.99
229.424	20.65
229.642	-12.12
229.86	75.95
230.077	108.71
230.295	43.18
230.513	20.65
230.731	94.38
230.948	0.17
231.166	6.31
231.384	-5.97
231.601	4.27
231.819	104.62
232.037	-10.07
232.254	-3.93
232.472	61.61
232.689	47.27
232.907	51.37
233.125	10.41
233.342	55.47
233.56	-24.4
233.777	57.51
233.995	39.08
234.213	102.57
234.43	75.95
234.648	45.23
234.865	34.99
235.083	63.66
235.3	20.65
235.518	65.71
235.735	43.18
235.953	63.66
236.17	32.94
236.388	73.9
236.605	28.84
236.822	100.52
237.04	77.99
237.257	39.08
237.475	-5.97
237.692	49.32
237.909	43.18
238.127	55.47
238.344	45.23
238.562	16.55
238.779	30.89
238.996	65.71
239.214	-46.93
239.431	84.14
239.648	24.75
239.865	88.23
240.083	102.57
240.3	69.8
240.517	-8.02
240.735	55.47
240.952	16.55
241.169	125.1
241.386	49.32
241.603	24.75
241.821	6.31
242.038	104.62
242.255	0.17
242.472	59.56
242.689	-20.31
242.907	10.41
243.124	18.6
243.341	-12.12
243.558	-5.97
243.775	18.6
243.992	77.99
244.209	41.13
244.426	61.61
244.643	80.04
244.86	18.6
245.078	98.47
245.295	43.18
245.512	49.32
245.729	-12.12
245.946	43.18
246.163	45.23
246.38	14.51
246.597	41.13
246.814	51.37
247.031	18.6
247.248	118.95
247.464	-5.97
247.681	59.56
247.898	14.51
248.115	10.41
248.332	88.23
248.549	-63.32
248.766	116.9
248.983	43.18
249.2	84.14
249.417	-10.07
249.633	14.51
249.85	28.84
250.067	45.23
250.284	69.8
250.501	10.41
250.717	-26.45
250.934	51.37
251.151	-3.93
251.368	12.46
251.585	67.75
251.801	-12.12
252.018	92.33
252.235	57.51
252.451	-5.97
252.668	37.03
252.885	63.66
253.102	8.36
253.318	8.36
253.535	45.23
253.752	-8.02
253.968	8.36
254.185	-20.31
254.401	63.66
254.618	32.94
254.835	16.55
255.051	14.51
255.268	22.7
255.484	2.22
255.701	8.36
255.917	53.42
256.134	6.31
256.351	-10.07
256.567	-10.07
256.784	57.51
257	0.17
257.217	59.56
257.433	30.89
257.65	67.75
257.866	2.22
258.082	65.71
258.299	-12.12
258.515	77.99
258.732	12.46
258.948	80.04
259.165	-16.21
259.381	-40.79
259.597	71.85
259.814	94.38
260.03	16.55
260.246	18.6
260.463	32.94
260.679	37.03
260.895	-24.4
261.112	-22.36
261.328	10.41
261.544	65.71
261.761	32.94
261.977	10.41
262.193	4.27
262.409	-22.36
262.626	-3.93
262.842	-8.02
263.058	45.23
263.274	86.19
263.49	39.08
263.707	34.99
263.923	2.22
264.139	28.84
264.355	69.8
264.571	65.71
264.787	30.89
265.004	45.23
265.22	49.32
265.436	47.27
265.652	14.51
265.868	49.32
266.084	4.27
266.3	88.23
266.516	10.41
266.732	57.51
266.948	106.67
267.164	-8.02
267.38	94.38
267.596	37.03
267.812	127.14
268.028	106.67
268.244	63.66
268.46	104.62
268.676	63.66
268.892	39.08
269.108	32.94
269.324	-3.93
269.54	12.46
269.756	67.75
269.972	-34.64
270.188	45.23
270.403	-3.93
270.619	80.04
270.835	18.6
271.051	80.04
271.267	45.23
271.483	26.79
271.698	2.22
271.914	-8.02
272.13	67.75
272.346	45.23
272.562	55.47
272.777	67.75
272.993	110.76
273.209	47.27
273.425	75.95
273.64	39.08
273.856	53.42
274.072	51.37
274.287	2.22
274.503	55.47
274.719	39.08
274.934	-18.26
275.15	-38.74
275.366	71.85
275.581	61.61
275.797	133.29
276.012	10.41
276.228	26.79
276.444	84.14
276.659	20.65
276.875	51.37
277.09	30.89
277.306	30.89
277.521	94.38
277.737	-3.93
277.952	125.1
278.168	47.27
278.383	55.47
278.599	-5.97
278.814	43.18
279.03	8.36
279.245	51.37
279.461	2.22
279.676	57.51
279.892	49.32
280.107	47.27
280.322	-10.07
280.538	53.42
280.753	75.95
280.969	94.38
281.184	-10.07
281.399	110.76
281.615	80.04
281.83	57.51
282.045	-28.5
282.26	26.79
282.476	-38.74
282.691	-34.64
282.906	43.18
283.122	-51.03
283.337	-26.45
283.552	32.94
283.767	51.37
283.983	69.8
284.198	18.6
284.413	-32.6
284.628	37.03
284.843	-3.93
285.058	77.99
285.274	90.28
285.489	18.6
285.704	63.66
285.919	102.57
286.134	20.65
286.349	4.27
286.564	-26.45
286.779	-28.5
286.995	10.41
287.21	84.14
287.425	43.18
287.64	73.9
287.855	59.56
288.07	-10.07
288.285	49.32
288.5	-14.17
288.715	53.42
288.93	88.23
289.145	104.62
289.36	34.99
289.575	47.27
289.79	6.31
290.004	-38.74
290.219	51.37
290.434	0.17
290.649	32.94
290.864	14.51
291.079	63.66
291.294	53.42
291.509	63.66
291.724	20.65
291.938	123.05
292.153	43.18
292.368	34.99
292.583	63.66
292.798	47.27
293.012	-1.88
293.227	94.38
293.442	14.51
293.657	75.95
293.871	82.09
294.086	28.84
294.301	32.94
294.516	0.17
294.73	94.38
294.945	-8.02
295.16	49.32
295.374	100.52
295.589	94.38
295.804	61.61
296.018	73.9
296.233	53.42
296.447	-12.12
296.662	82.09
296.877	137.38
297.091	100.52
297.306	94.38
297.52	6.31
297.735	49.32
297.949	45.23
298.164	71.85
298.378	-14.17
298.593	14.51
298.807	6.31
299.022	47.27
299.236	49.32
299.451	80.04
299.665	6.31
299.88	92.33
300.094	45.23
300.309	65.71
300.523	34.99
300.737	34.99
300.952	37.03
301.166	18.6
301.381	22.7
301.595	-20.31
301.809	96.43
302.024	20.65
302.238	2.22
302.452	80.04
302.667	49.32
302.881	47.27
303.095	51.37
303.309	-16.21
303.524	4.27
303.738	18.6
303.952	-30.55
304.166	37.03
304.381	-30.55
304.595	151.72
304.809	0.17
305.023	4.27
305.237	-10.07
305.452	96.43
305.666	26.79
305.88	12.46
306.094	20.65
306.308	47.27
306.522	0.17
306.736	51.37
306.95	98.47
307.164	24.75
307.379	-22.36
307.593	84.14
307.807	55.47
308.021	20.65
308.235	82.09
308.449	6.31
308.663	10.41
308.877	65.71
309.091	2.22
309.305	47.27
309.519	-10.07
309.733	43.18
309.947	16.55
310.161	14.51
310.374	67.75
310.588	121
310.802	6.31
311.016	69.8
311.23	57.51
311.444	49.32
311.658	8.36
311.872	47.27
312.085	22.7
312.299	114.86
312.513	104.62
312.727	69.8
312.941	92.33
313.154	75.95
313.368	63.66
313.582	51.37
313.796	39.08
314.009	75.95
314.223	104.62
314.437	59.56
314.651	41.13
314.864	-28.5
315.078	30.89
315.292	10.41
315.505	-28.5
315.719	2.22
315.933	6.31
316.146	24.75
316.36	28.84
316.573	84.14
316.787	18.6
317.001	63.66
317.214	-22.36
317.428	84.14
317.641	4.27
317.855	51.37
318.068	-30.55
318.282	24.75
318.495	24.75
318.709	88.23
318.922	12.46
319.136	43.18
319.349	-24.4
319.563	18.6
319.776	22.7
319.99	16.55
320.203	67.75
320.417	10.41
320.63	8.36
320.843	53.42
321.057	41.13
321.27	39.08
321.483	121
321.697	104.62
321.91	88.23
322.124	26.79
322.337	22.7
322.55	24.75
322.763	43.18
322.977	69.8
323.19	102.57
323.403	0.17
323.617	100.52
323.83	77.99
324.043	61.61
324.256	-42.84
324.469	24.75
324.683	45.23
324.896	6.31
325.109	55.47
325.322	34.99
325.535	82.09
325.748	71.85
325.962	-14.17
326.175	37.03
326.388	61.61
326.601	28.84
326.814	92.33
327.027	104.62
327.24	112.81
327.453	14.51
327.666	55.47
327.879	100.52
328.092	69.8
328.305	59.56
328.518	12.46
328.731	-5.97
328.944	96.43
329.157	43.18
329.37	51.37
329.583	73.9
329.796	86.19
330.009	116.9
330.222	47.27
330.435	-14.17
330.648	88.23
330.861	102.57
331.073	30.89
331.286	94.38
331.499	8.36
331.712	14.51
331.925	49.32
332.138	73.9
332.35	45.23
332.563	32.94
332.776	61.61
332.989	49.32
333.202	30.89
333.414	24.75
333.627	2.22
333.84	94.38
334.053	8.36
334.265	75.95
334.478	67.75
334.691	100.52
334.903	71.85
335.116	114.86
335.329	71.85
335.541	63.66
335.754	41.13
335.966	84.14
336.179	22.7
336.392	88.23
336.604	47.27
336.817	34.99
337.029	6.31
337.242	2.22
337.454	28.84
337.667	39.08
337.88	75.95
338.092	39.08
338.305	61.61
338.517	-22.36
338.729	77.99
338.942	84.14
339.154	4.27
339.367	86.19
339.579	47.27
339.792	67.75
340.004	43.18
340.217	61.61
340.429	110.76
340.641	-12.12
340.854	43.18
341.066	63.66
341.278	143.53
341.491	90.28
341.703	77.99
341.915	41.13
342.128	-18.26
342.34	-8.02
342.552	-10.07
342.764	14.51
342.977	82.09
343.189	59.56
343.401	59.56
343.613	24.75
343.826	43.18
344.038	10.41
344.25	20.65
344.462	88.23
344.674	-28.5
344.886	65.71
345.099	92.33
345.311	65.71
345.523	-10.07
345.735	55.47
345.947	86.19
346.159	69.8
346.371	53.42
346.583	47.27
346.795	39.08
347.007	30.89
347.219	37.03
347.431	-12.12
347.643	96.43
347.855	20.65
348.067	100.52
348.279	57.51
348.491	-10.07
348.703	63.66
348.915	51.37
349.127	2.22
349.339	43.18
349.551	34.99
349.763	30.89
349.975	51.37
350.187	24.75
350.399	57.51
350.61	0.17
350.822	39.08
351.034	123.05
351.246	32.94
351.458	55.47
351.669	24.75
351.881	98.47
352.093	2.22
352.305	80.04
352.517	51.37
352.728	121
352.94	61.61
353.152	100.52
353.363	-53.08
353.575	34.99
353.787	77.99
353.999	20.65
354.21	49.32
354.422	61.61
354.633	32.94
354.845	59.56
355.057	26.79
355.268	45.23
355.48	37.03
355.692	0.17
355.903	53.42
356.115	-34.64
356.326	6.31
356.538	55.47
356.749	86.19
356.961	59.56
357.172	22.7
357.384	37.03
357.595	63.66
357.807	47.27
358.018	47.27
358.23	104.62
358.441	96.43
358.653	137.38
358.864	88.23
359.075	24.75
359.287	71.85
359.498	55.47
359.709	67.75
359.921	88.23
360.132	26.79
360.344	45.23
360.555	37.03
360.766	59.56
360.977	82.09
361.189	14.51
361.4	30.89
361.611	67.75
361.823	98.47
362.034	86.19
362.245	43.18
362.456	61.61
362.667	55.47
362.879	41.13
363.09	-22.36
363.301	164.01
363.512	-5.97
363.723	143.53
363.935	61.61
364.146	47.27
364.357	80.04
364.568	67.75
364.779	51.37
364.99	184.49
365.201	-20.31
365.412	49.32
365.623	39.08
365.834	63.66
366.045	96.43
366.256	14.51
366.467	94.38
366.678	88.23
366.889	34.99
367.1	8.36
367.311	63.66
367.522	55.47
367.733	28.84
367.944	-8.02
368.155	47.27
368.366	65.71
368.577	26.79
368.788	106.67
368.999	39.08
369.209	67.75
369.42	71.85
369.631	77.99
369.842	80.04
370.053	125.1
370.264	45.23
370.474	110.76
370.685	65.71
370.896	92.33
371.107	80.04
371.317	30.89
371.528	8.36
371.739	67.75
371.95	73.9
372.16	104.62
372.371	73.9
372.582	63.66
372.792	100.52
373.003	37.03
373.214	43.18
373.424	53.42
373.635	-28.5
373.846	39.08
374.056	57.51
374.267	6.31
374.477	43.18
374.688	-51.03
374.898	67.75
375.109	37.03
375.319	82.09
375.53	28.84
375.74	49.32
375.951	108.71
376.161	47.27
376.372	94.38
376.582	55.47
376.793	55.47
377.003	73.9
377.214	-5.97
377.424	51.37
377.635	30.89
377.845	22.7
378.055	84.14
378.266	61.61
378.476	59.56
378.686	28.84
378.897	6.31
379.107	63.66
379.317	41.13
379.528	51.37
379.738	22.7
379.948	139.43
380.158	100.52
380.369	-24.4
380.579	14.51
380.789	137.38
380.999	71.85
381.21	6.31
381.42	125.1
381.63	-30.55
381.84	75.95
382.05	63.66
382.261	69.8
382.471	51.37
382.681	20.65
382.891	80.04
383.101	112.81
383.311	22.7
383.521	51.37
383.731	39.08
383.941	131.24
384.151	26.79
384.361	80.04
384.571	45.23
384.781	92.33
384.991	39.08
385.201	84.14
385.411	102.57
385.621	112.81
385.831	43.18
386.041	12.46
386.251	69.8
386.461	149.67
386.671	80.04
386.881	69.8
387.091	-26.45
387.301	69.8
387.511	100.52
387.72	67.75
387.93	14.51
388.14	63.66
388.35	43.18
388.56	69.8
388.769	65.71
388.979	82.09
389.189	147.62
389.399	182.44
389.609	59.56
389.818	71.85
390.028	94.38
390.238	92.33
390.447	51.37
390.657	100.52
390.867	143.53
391.076	39.08
391.286	96.43
391.496	47.27
391.705	80.04
391.915	108.71
392.125	71.85
392.334	94.38
392.544	100.52
392.753	65.71
392.963	69.8
393.172	59.56
393.382	73.9
393.591	43.18
393.801	80.04
394.01	53.42
394.22	145.58
394.429	77.99
394.639	20.65
394.848	129.19
395.058	110.76
395.267	133.29
395.477	151.72
395.686	28.84
395.895	96.43
396.105	133.29
396.314	49.32
396.524	98.47
396.733	10.41
396.942	20.65
397.152	77.99
397.361	196.78
397.57	131.24
397.78	155.82
397.989	92.33
398.198	110.76
398.407	57.51
398.617	125.1
398.826	129.19
399.035	118.95
399.244	116.9
399.453	137.38
399.663	112.81
399.872	121
400.081	88.23
400.29	75.95
400.499	114.86
400.708	151.72
400.917	75.95
401.127	129.19
401.336	26.79
401.545	137.38
401.754	116.9
401.963	151.72
402.172	84.14
402.381	94.38
402.59	161.96
402.799	114.86
403.008	123.05
403.217	139.43
403.426	98.47
403.635	129.19
403.844	123.05
404.053	141.48
404.262	106.67
404.471	104.62
404.68	98.47
404.888	137.38
405.097	215.21
405.306	182.44
405.515	139.43
405.724	127.14
405.933	209.06
406.142	211.11
406.35	155.82
406.559	176.3
406.768	164.01
406.977	192.68
407.185	204.97
407.394	166.06
407.603	237.74
407.812	268.45
408.02	256.17
408.229	219.3
408.438	227.5
408.646	243.88
408.855	270.5
409.064	247.97
409.272	207.02
409.481	323.75
409.69	252.07
409.898	290.98
410.107	354.47
410.315	258.21
410.524	286.89
410.733	387.24
410.941	323.75
411.15	385.19
411.358	346.28
411.567	356.52
411.775	413.86
411.984	442.53
412.192	407.72
412.401	420
412.609	497.83
412.818	530.59
413.026	469.16
413.234	405.67
413.443	467.11
413.651	499.88
413.86	581.79
414.068	647.33
414.276	585.89
414.485	526.5
414.693	585.89
414.901	723.1
415.11	626.85
415.318	655.52
415.526	747.68
415.734	704.67
415.943	772.25
416.151	780.45
416.359	805.02
416.567	835.74
416.776	817.31
416.984	891.04
417.192	985.24
417.4	948.38
417.608	923.8
417.817	1026.2
418.025	987.29
418.233	1050.78
418.441	1067.16
418.649	1179.8
418.857	1231
419.065	1267.86
419.273	1167.51
419.481	1204.38
419.689	1353.88
419.897	1480.85
420.105	1413.27
420.313	1476.76
420.521	1546.39
420.729	1484.95
420.937	1575.06
421.145	1634.45
421.353	1722.51
421.561	1851.53
421.769	1888.4
421.977	1910.93
422.185	1908.88
422.393	1943.69
422.601	2121.87
422.809	2201.74
423.017	2232.46
423.224	2211.98
423.432	2384.01
423.64	2332.81
423.848	2508.93
424.056	2484.36
424.263	2674.82
424.471	2689.15
424.679	2642.05
424.887	2945.15
425.094	2953.34
425.302	3074.17
425.51	3145.85
425.718	3043.45
425.925	3174.52
426.133	3309.69
426.341	3391.61
426.548	3637.36
426.756	3586.16
426.964	3711.09
427.171	4057.2
427.379	3915.89
427.586	4030.57
427.794	4124.78
428.001	4358.25
428.209	4573.28
428.417	4649.06
428.624	4755.55
428.832	4868.19
429.039	4864.1
429.247	4884.58
429.454	5402.71
429.662	5800.02
429.869	5371.99
430.076	5736.53
430.284	5453.91
430.491	5869.65
430.699	5953.62
430.906	6010.96
431.114	6064.21
431.321	6469.7
431.528	6461.51
431.736	6918.21
431.943	7055.42
432.15	6852.67
432.358	6987.84
432.565	7491.64
432.772	7405.63
432.979	7743.54
433.187	8011.82
433.394	8058.93
433.601	8685.61
433.808	8493.1
434.016	8489
434.223	8970.27
434.43	9504.79
434.637	9494.55
434.844	9822.23
435.052	10117.14
435.259	9852.95
435.466	9922.58
435.673	9889.81
435.88	10637.32
436.087	11145.22
436.294	11225.09
436.501	10913.8
436.708	11188.22
436.915	11560.95
437.122	11905.01
437.329	12242.93
437.537	12333.04
437.743	12711.91
437.95	12621.8
438.157	13184.99
438.364	13760.47
438.571	13514.72
438.778	13727.71
438.985	14979.01
439.192	14536.65
439.399	14806.98
439.606	14254.03
439.813	15439.81
440.02	16084.92
440.227	15966.14
440.433	15691.71
440.64	16144.31
440.847	15962.04
441.054	16469.94
441.261	17944.47
441.467	17475.49
441.674	17932.19
441.881	18794.38
442.088	18466.7
442.294	18120.6
442.501	18812.81
442.708	19027.85
442.914	19826.56
443.121	20674.42
443.328	20162.42
443.534	21589.86
443.741	21073.77
443.948	20612.98
444.154	22443.86
444.361	21960.54
444.568	22138.71
444.774	22212.44
444.981	22531.92
445.187	23078.73
445.394	24151.87
445.6	23465.8
445.807	26326.81
446.013	24870.7
446.22	25431.85
446.426	26156.83
446.633	26181.4
446.839	27543.3
447.046	26396.44
447.252	27709.19
447.459	27883.27
447.665	27764.48
447.871	29052.66
448.078	30025.44
448.284	28829.43
448.491	29677.29
448.697	30478.04
448.903	31305.42
449.11	31325.9
449.316	30824.15
449.522	31424.2
449.728	32007.87
449.935	32026.31
450.141	32169.66
450.347	32874.17
450.553	31715.01
450.76	32292.54
450.966	33124.02
451.172	33121.97
451.378	34186.91
451.584	33044.15
451.791	33984.16
451.997	33609.39
452.203	34236.06
452.409	34528.92
452.615	34303.65
452.821	32839.35
453.027	32609.98
453.233	34117.28
453.44	32597.69
453.646	33066.67
453.852	33631.91
454.058	33767.08
454.264	32657.08
454.47	33365.68
454.676	32853.69
454.882	33805.99
455.088	30742.23
455.294	31403.72
455.5	31620.81
455.705	31944.39
455.911	31071.95
456.117	30086.88
456.323	29404.91
456.529	28350.2
456.735	29609.7
456.941	28845.81
457.147	28389.11
457.352	27553.54
457.558	27086.61
457.764	26943.25
457.97	26699.54
458.176	26173.21
458.381	26105.63
458.587	24639.28
458.793	24864.56
458.999	23201.61
459.204	24958.77
459.41	24491.83
459.616	22896.46
459.821	22871.89
460.027	22783.82
460.233	22460.24
460.438	21094.25
460.644	21438.31
460.85	20369.27
461.055	20316.02
461.261	20109.18
461.466	18691.98
461.672	18118.55
461.878	19244.93
462.083	18067.35
462.289	17631.13
462.494	17731.48
462.7	16826.28
462.905	16347.06
463.111	16967.59
463.316	17053.61
463.522	16824.23
463.727	16910.25
463.932	16701.36
464.138	16488.37
464.343	16523.18
464.549	15994.81
464.754	16383.92
464.959	16558
465.165	16500.65
465.37	15599.55
465.575	15538.11
465.781	15742.91
465.986	15976.37
466.191	15294.4
466.397	15089.6
466.602	14243.79
466.807	14741.45
467.012	15030.21
467.218	14946.25
467.423	14825.42
467.628	14995.4
467.833	15654.84
468.038	14852.04
468.244	14604.24
468.449	15042.5
468.654	14477.26
468.859	14514.13
469.064	14301.14
469.269	13893.59
469.474	13756.38
469.679	14249.94
469.885	13785.05
470.09	14022.61
470.295	13350.88
470.5	13383.65
470.705	13588.44
470.91	13201.38
471.115	13076.45
471.32	13375.45
471.525	13086.69
471.73	13039.59
471.935	12836.84
472.139	12521.45
472.344	12593.13
472.549	12597.23
472.754	12593.13
472.959	12146.67
473.164	11894.77
473.369	11689.98
473.574	12328.94
473.778	12066.8
473.983	11958.26
474.188	11902.97
474.393	11560.95
474.598	11417.6
474.802	11337.73
475.007	11196.42
475.212	11198.46
475.417	10719.24
475.621	11053.06
475.826	10807.3
476.031	10686.47
476.235	10328.08
476.44	10725.38
476.645	10360.84
476.849	10323.98
477.054	10133.52
477.259	10235.92
477.463	10188.82
477.668	9861.14
477.872	10287.12
478.077	9771.03
478.282	9631.77
478.486	9472.03
478.691	9531.42
478.895	9377.82
479.1	9566.23
479.304	9476.12
479.509	9359.39
479.713	9439.26
479.918	9279.52
480.122	8929.31
480.326	9343
480.531	9250.85
480.735	9027.62
480.94	9097.25
481.144	9275.42
481.348	8892.45
481.553	8800.29
481.757	8826.92
481.961	8898.59
482.166	9017.38
482.37	9013.28
482.574	8673.32
482.778	8761.38
482.983	8935.46
483.187	8794.15
483.391	8937.51
483.595	8892.45
483.8	8630.31
484.004	8921.12
484.208	8820.77
484.412	8853.54
484.616	8822.82
484.821	8919.07
485.025	8722.47
485.229	8863.78
485.433	8785.96
485.637	8765.48
485.841	8814.63
486.045	8628.26
486.249	8699.94
486.453	8708.13
486.657	8658.98
486.861	8904.74
487.065	8622.12
487.269	8722.47
487.473	8624.17
487.677	8894.5
487.881	8874.02
488.085	8693.8
488.289	8894.5
488.493	8695.85
488.697	8896.55
488.901	8857.64
489.105	8759.33
489.309	9011.23
489.512	8914.98
489.716	9109.54
489.92	9046.05
490.124	8943.65
490.328	9023.52
490.531	9005.09
490.735	9170.97
490.939	9117.73
491.143	8888.36
491.346	9029.66
491.55	9164.83
491.754	9125.92
491.958	9152.54
492.161	9070.62
492.365	9338.91
492.569	9383.96
492.772	9269.28
492.976	9605.14
493.18	9353.24
493.383	9506.84
493.587	9486.36
493.79	9588.76
493.994	9574.42
494.197	9617.43
494.401	9902.1
494.605	9977.87
494.808	9924.63
495.012	9914.39
495.215	10143.76
495.419	10180.62
495.622	10170.38
495.825	10227.73
496.029	10178.58
496.232	10668.04
496.436	10342.41
496.639	10878.98
496.843	10803.21
497.046	10838.02
497.249	11008
497.453	11104.26
497.656	11128.83
497.859	11202.56
498.063	11206.66
498.266	11661.3
498.469	11397.12
498.673	11698.17
498.876	11845.62
499.079	11980.79
499.282	12040.18
499.485	12240.88
499.689	12169.2
499.892	12591.08
500.095	12255.22
500.298	13049.83
500.501	12670.95
500.705	12961.76
500.908	13141.99
501.111	13303.78
501.314	13228
501.517	13692.89
501.72	13770.71
501.923	13842.39
502.126	14039
502.329	14086.1
502.532	14346.19
502.735	14301.14
502.938	14893
503.141	14714.83
503.344	15169.48
503.547	14747.59
503.75	15425.47
503.953	15665.08
504.156	15478.72
504.359	15620.03
504.562	15876.02
504.765	16162.74
504.968	16324.53
505.17	16629.68
505.373	16605.1
505.576	16803.75
505.779	16813.99
505.982	16961.45
506.185	17467.3
506.387	17467.3
506.59	17416.1
506.793	17905.56
506.996	17663.9
507.198	18435.99
507.401	18085.78
507.604	18337.68
507.807	19101.58
508.009	19017.61
508.212	19140.49
508.415	19570.56
508.617	19496.83
508.82	19879.8
509.022	19734.4
509.225	20184.95
509.428	20469.62
509.63	20547.44
509.833	20596.59
510.035	21071.72
510.238	21161.83
510.44	21464.93
510.643	21475.17
510.845	22017.88
511.048	21665.63
511.25	22198.1
511.453	22409.04
511.655	23027.53
511.858	22826.83
512.06	23146.31
512.262	23238.47
512.465	23394.12
512.667	23756.61
512.87	24059.71
513.072	24139.58
513.274	24405.81
513.477	24911.66
513.679	24938.29
513.881	25546.53
514.084	25343.78
514.286	25372.46
514.488	25898.78
514.69	26515.22
514.893	26652.44
515.095	26464.02
515.297	27066.13
515.499	26793.75
515.701	27301.64
515.904	27514.63
516.106	27416.33
516.308	28102.4
516.51	28450.55
516.712	28458.74
516.914	28544.76
517.116	29169.39
517.318	29138.67
517.52	29624.04
517.722	29804.26
517.925	30322.4
518.127	30496.47
518.329	30914.26
518.531	30682.84
518.733	31231.69
518.935	31477.45
519.136	31403.72
519.338	32116.42
519.54	32249.53
519.742	32325.31
519.944	32349.89
520.146	33541.8
520.348	33451.69
520.55	33631.91
520.752	33787.56
520.954	34305.7
521.155	34225.82
521.357	34444.96
521.559	35184.27
521.761	35264.14
521.963	35151.51
522.164	35511.95
522.366	35708.55
522.568	35946.12
522.77	36310.66
522.971	36648.57
523.173	36621.95
523.375	37242.48
523.576	36775.55
523.778	37303.92
523.98	37670.51
524.181	38227.56
524.383	38041.19
524.584	38770.27
524.786	38100.58
524.988	38149.73
525.189	38882.91
525.391	39061.08
525.592	39388.75
525.794	39534.16
525.995	39546.45
526.197	39474.77
526.398	39485.01
526.6	39777.87
526.801	40332.87
527.003	40365.63
527.204	40642.11
527.406	40939.07
527.607	40711.74
527.808	41209.4
528.01	40814.14
528.211	41283.12
528.412	41815.6
528.614	41836.08
528.815	41266.74
529.016	42040.87
529.218	41453.11
529.419	42237.48
529.62	41958.95
529.822	42163.75
530.023	42315.3
530.224	42188.33
530.425	42391.08
530.626	41952.81
530.828	42319.4
531.029	43130.39
531.23	42229.29
531.431	42815.01
531.632	42685.98
531.833	43064.86
532.035	42966.56
532.236	42884.64
532.437	43036.19
532.638	43030.04
532.839	43044.38
533.04	43308.57
533.241	42909.21
533.442	43662.86
533.643	43208.22
533.844	43431.44
534.045	43619.86
534.246	42980.89
534.447	43585.04
534.648	43466.26
534.849	43472.4
535.05	43257.37
535.251	43306.52
535.451	43290.13
535.652	43847.18
535.853	43396.63
536.054	43677.2
536.255	43552.27
536.456	43828.75
536.657	43890.19
536.857	43529.75
537.058	43384.34
537.259	44156.42
537.46	43757.07
537.66	43687.44
537.861	43699.73
538.062	43433.49
538.263	44408.33
538.463	43744.78
538.664	43824.65
538.865	43927.05
539.065	44207.62
539.266	43515.41
539.466	44033.55
539.667	43222.55
539.868	44064.27
540.068	43781.65
540.269	43617.81
540.469	43863.57
540.67	43550.23
540.87	43693.58
541.071	43873.81
541.271	43900.43
541.472	44039.69
541.672	43642.38
541.873	43472.4
542.073	43128.34
542.274	43914.76
542.474	43630.1
542.675	43771.41
542.875	43673.1
543.075	43918.86
543.276	43263.51
543.476	43818.51
543.676	43494.93
543.877	43970.06
544.077	43896.33
544.277	43810.32
544.478	43611.67
544.678	44154.38
544.878	43599.38
545.078	43777.55
545.279	43283.99
545.479	43681.3
545.679	44066.31
545.879	43593.23
546.079	43863.57
546.28	43701.78
546.48	43181.59
546.68	43728.4
546.88	43767.31
547.08	44072.46
547.28	43519.51
547.48	43302.42
547.68	43644.43
547.88	43243.03
548.081	43484.69
548.281	43630.1
548.481	43617.81
548.681	43914.76
548.881	43212.31
549.081	43388.44
549.28	43157.02
549.48	43705.87
549.68	43150.87
549.88	44027.4
550.08	43193.88
550.28	43425.3
550.48	43230.74
550.68	43576.85
550.88	43478.55
551.08	42855.96
551.279	43519.51
551.479	43077.15
551.679	43234.84
551.879	43116.06
552.079	43544.08
552.278	43240.98
552.478	43064.86
552.678	43351.57
552.878	43093.53
553.077	43218.46
553.277	42890.78
553.477	43529.75
553.676	43027.99
553.876	43310.61
554.076	42716.7
554.275	42855.96
554.475	42567.2
554.674	43355.67
554.874	43253.27
555.074	42894.88
555.273	43226.65
555.473	43247.13
555.672	42503.71
555.872	43058.71
556.071	43206.17
556.271	42708.51
556.47	42546.72
556.67	42610.21
556.869	42825.25
557.068	42747.42
557.268	42487.33
557.467	42522.15
557.667	42376.74
557.866	42556.96
558.065	42401.32
558.265	42188.33
558.464	42001.96
558.663	42409.51
558.863	41922.09
559.062	42321.44
559.261	41879.08
559.461	42321.44
559.66	41438.77
559.859	42096.17
560.058	41655.86
560.258	41860.65
560.457	41516.59
560.656	41971.24
560.855	41694.77
561.054	41578.03
561.253	41500.21
561.453	41565.74
561.652	41739.82
561.851	41381.43
562.05	41621.04
562.249	41178.68
562.448	41483.83
562.647	41266.74
562.846	40767.04
563.045	41102.9
563.244	40449.6
563.443	41150.01
563.642	40386.11
563.841	40861.24
564.04	40695.36
564.239	40654.4
564.438	40623.68
564.637	40564.29
564.836	40676.93
565.035	40128.07
565.234	40152.65
565.432	40089.16
565.631	40031.82
565.83	40238.66
566.029	39921.23
566.228	39968.33
566.427	39378.51
566.625	39616.08
566.824	39016.02
567.023	39829.07
567.222	38887
567.42	39390.8
567.619	39439.95
567.818	38936.15
568.016	39022.17
568.215	39259.73
568.414	39204.44
568.612	39169.62
568.811	38727.26
569.01	38725.21
569.208	38360.67
569.407	38506.08
569.605	38671.96
569.804	38342.24
570.002	38041.19
570.201	38588
570.4	37699.18
570.598	37828.2
570.797	37709.42
570.995	38293.09
571.193	37623.4
571.392	37842.54
571.59	37475.95
571.789	37676.65
571.987	37179
572.186	37336.69
572.384	36988.53
572.582	36839.03
572.781	37359.22
572.979	36734.59
573.177	36781.69
573.376	37068.41
573.574	36441.73
573.772	37111.41
573.971	36662.91
574.169	36185.73
574.367	36003.46
574.565	36241.03
574.763	36195.97
574.962	35966.6
575.16	35980.93
575.358	35847.82
575.556	35587.72
575.754	35985.03
575.952	35235.47
576.151	35796.62
576.349	35171.99
576.547	35276.43
576.745	35440.27
576.943	35272.34
577.141	34938.52
577.339	34887.32
577.537	34817.69
577.735	34750.1
577.933	34406.05
578.131	34555.55
578.329	34494.11
578.527	34236.06
578.725	34410.14
578.923	34942.61
579.121	34072.23
579.319	34053.8
579.516	33908.39
579.714	33943.2
579.912	33752.74
580.11	33543.85
580.308	33707.69
580.506	33506.99
580.704	33046.19
580.901	33640.11
581.099	33601.19
581.297	33246.9
581.495	33128.11
581.692	33445.55
581.89	32757.43
582.088	33035.95
582.285	32951.99
582.483	33234.61
582.681	32837.3
582.878	32468.67
583.076	32466.62
583.274	32591.55
583.471	32042.69
583.669	32665.27
583.866	32204.48
584.064	32501.43
584.262	31733.45
584.459	32491.19
584.657	31768.26
584.854	31878.85
585.052	31385.29
585.249	31921.86
585.447	31786.69
585.644	31327.95
585.841	31592.14
586.039	31790.79
586.236	31176.4
586.434	31266.51
586.631	30996.18
586.828	31071.95
587.026	31360.72
587.223	30922.45
587.42	30711.51
587.618	30873.3
587.815	30521.05
588.012	30412.51
588.21	30394.07
588.407	30506.71
588.604	30234.33
588.801	30041.82
588.999	30090.98
589.196	30158.56
589.393	30162.65
589.59	29679.33
589.787	29851.36
589.984	29724.39
590.182	29546.22
590.379	29228.78
590.576	29431.53
590.773	29484.78
590.97	29359.85
591.167	29116.14
591.364	29198.06
591.561	29101.81
591.758	28839.67
591.955	28839.67
592.152	28765.94
592.349	28862.19
592.546	28661.49
592.743	28325.63
592.94	28108.54
593.137	28598.01
593.334	28491.51
593.531	28077.82
593.727	27989.76
593.924	28303.1
594.121	27721.48
594.318	28499.7
594.515	27741.96
594.712	27774.72
594.908	28026.62
595.105	27870.98
595.302	27418.38
595.499	27514.63
595.696	27395.85
595.892	27350.79
596.089	27555.59
596.286	27092.75
596.482	27234.06
596.679	27129.61
596.876	27043.6
597.072	26734.35
597.269	27031.31
597.466	26398.49
597.662	26312.47
597.859	26656.53
598.055	26752.79
598.252	26568.47
598.448	26189.6
598.645	26117.92
598.841	26140.44
599.038	26124.06
599.234	26134.3
599.431	25788.19
599.627	25802.53
599.824	25816.86
600.02	25341.74
600.217	25974.56
600.413	25798.43
600.609	25417.51
600.806	25540.39
601.002	25198.38
601.198	25296.68
601.395	25067.31
601.591	25034.54
601.787	25261.87
601.984	24882.99
602.18	25294.63
602.376	25018.16
602.572	24583.99
602.769	24684.34
602.965	24745.78
603.161	24686.39
603.357	24602.42
603.553	24428.34
603.75	24366.9
603.946	24092.48
604.142	24174.39
604.338	23852.86
604.534	24172.35
604.73	23992.12
604.926	23746.37
605.122	23791.42
605.318	23715.65
605.514	23867.2
605.71	23304.01
605.906	23459.65
606.102	23445.32
606.298	23267.14
606.494	23510.85
606.69	23406.41
606.886	23498.56
607.082	23111.5
607.278	23465.8
607.474	22716.24
607.67	23269.19
607.866	22931.28
608.062	23201.61
608.257	22757.2
608.453	22947.66
608.649	22820.69
608.845	22609.75
609.041	22480.72
609.236	22863.69
609.432	22671.18
609.628	22681.42
609.824	22665.04
610.019	22189.91
610.215	22443.86
610.411	22812.49
610.606	22306.65
610.802	22378.33
610.998	22163.29
611.193	22275.93
611.389	22075.23
611.584	21981.02
611.78	21968.73
611.976	22054.75
612.171	22107.99
612.367	22144.86
612.562	21806.94
612.758	21356.39
612.953	21563.23
613.149	21903.2
613.344	21559.14
613.539	22169.43
613.735	21798.75
613.93	21837.66
614.126	21182.31
614.321	21632.86
614.517	21473.12
614.712	21589.86
614.907	21356.39
615.103	21438.31
615.298	21311.33
615.493	21299.05
615.688	21186.41
615.884	21704.54
616.079	21006.19
616.274	21143.4
616.47	21194.6
616.665	21127.02
616.86	21327.72
617.055	20969.32
617.25	20811.63
617.445	20848.49
617.641	20399.99
617.836	20766.57
618.031	20434.8
618.226	20916.08
618.421	20494.19
618.616	20778.86
618.811	20254.58
619.006	20594.54
619.201	20281.21
619.396	20447.09
619.591	19826.56
619.786	20275.06
619.981	19879.8
620.176	20137.85
620.371	19738.49
620.566	20019.07
620.761	19681.15
620.956	19718.01
621.151	19576.7
621.346	19638.14
621.541	19289.99
621.735	19543.94
621.93	19077
622.125	19138.44
622.32	19109.77
622.515	18900.87
622.709	18890.63
622.904	19062.66
623.099	18767.76
623.294	18810.76
623.488	18415.51
623.683	18773.9
623.878	18173.85
624.072	18173.85
624.267	18243.48
624.462	17948.57
624.656	17731.48
624.851	17686.43
625.046	17940.38
625.24	17745.82
625.435	17495.97
625.629	17432.48
625.824	17508.26
626.018	17174.44
626.213	16965.54
626.407	17360.8
626.602	16996.26
626.796	17223.59
626.991	16891.82
627.185	16791.47
627.38	16687.02
627.574	16582.57
627.768	16467.89
627.963	16340.91
628.157	16299.95
628.352	16355.25
628.546	15972.28
628.74	16138.16
628.935	15896.5
629.129	15935.42
629.323	15695.8
629.517	15603.64
629.712	15665.08
629.906	15585.21
630.1	15288.26
630.294	15554.49
630.489	15333.31
630.683	15499.2
630.877	15073.22
631.071	15093.7
631.265	15079.36
631.459	14907.34
631.653	15003.59
631.848	15005.64
632.042	14725.07
632.236	14819.27
632.43	14557.13
632.624	14606.28
632.818	14557.13
633.012	14309.33
633.206	14430.16
633.4	14399.44
633.594	13995.99
633.788	14010.32
633.982	14045.14
634.176	14294.99
634.369	13995.99
634.563	13850.58
634.757	13703.13
634.951	13619.16
635.145	13559.77
635.339	13510.62
635.533	13473.76
635.726	13508.57
635.92	13359.07
636.114	13660.12
636.308	13187.04
636.501	13328.35
636.695	13281.25
636.889	13033.44
637.083	12785.64
637.276	12673
637.47	12693.48
637.664	12693.48
637.857	12863.46
638.051	12726.25
638.244	12490.73
638.438	12386.29
638.632	12570.6
638.825	12259.31
639.019	12296.18
639.212	12306.41
639.406	12300.27
639.599	12277.74
639.793	12189.68
639.986	12132.34
640.18	11804.66
640.373	11825.14
640.567	11599.87
640.76	11710.46
640.954	11620.35
641.147	11460.6
641.34	11538.43
641.534	11382.78
641.727	11380.73
641.92	11692.02
642.114	11325.44
642.307	11204.61
642.5	11225.09
642.694	10985.48
642.887	11067.39
643.08	11118.59
643.273	11008
643.467	10962.95
643.66	10815.49
643.853	10674.18
644.046	10670.09
644.239	10690.57
644.432	10567.69
644.626	10526.73
644.819	10768.39
645.012	10440.72
645.205	10563.59
645.398	10330.13
645.591	10387.47
645.784	10561.55
645.977	10334.22
646.17	10215.44
646.363	10194.96
646.556	9789.46
646.749	10092.56
646.942	10041.36
647.135	9869.33
647.328	9857.04
647.521	10055.7
647.714	9609.24
647.907	9893.91
648.099	9637.91
648.292	9588.76
648.485	9500.7
648.678	9281.57
648.871	9308.19
649.064	9496.6
649.256	9498.65
649.449	9242.65
649.642	9107.49
649.835	9179.17
650.027	9134.11
650.22	9541.66
650.413	9164.83
650.605	8980.51
650.798	8896.55
650.991	8874.02
651.183	8962.08
651.376	8835.11
651.568	8882.21
651.761	8542.25
651.954	8794.15
652.146	8658.98
652.339	8575.02
652.531	8728.61
652.724	8572.97
652.916	8472.62
653.109	8505.38
653.301	8476.71
653.494	8486.95
653.686	8374.31
653.879	8380.46
654.071	8312.88
654.263	8226.86
654.456	8337.45
654.648	8128.56
654.84	8036.4
655.033	8132.65
655.225	8220.72
655.417	8204.33
655.61	7942.19
655.802	7954.48
655.994	7997.49
656.186	7888.95
656.379	7772.21
656.571	7745.59
656.763	7706.68
656.955	7653.43
657.148	7657.53
657.34	7491.64
657.532	7516.22
657.724	7424.06
657.916	7505.98
658.108	7403.58
658.3	7473.21
658.492	7333.95
658.684	7266.36
658.876	7360.57
659.068	7395.39
659.26	7143.49
659.452	7245.88
659.644	7313.47
659.836	7102.53
660.028	7092.29
660.22	6969.41
660.412	6932.54
660.604	6987.84
660.796	6993.98
660.988	6905.92
661.18	6926.4
661.372	6715.46
661.563	6817.86
661.755	6844.48
661.947	6744.13
662.139	6686.79
662.331	6781
662.522	6740.04
662.714	6660.17
662.906	6477.9
663.097	6617.16
663.289	6461.51
663.481	6461.51
663.673	6269
663.864	6355.02
664.056	6475.85
664.247	6295.63
664.439	6342.73
664.631	6416.46
664.822	6322.25
665.014	6148.17
665.205	6236.24
665.397	5992.53
665.588	6158.41
665.78	6023.25
665.971	6043.73
666.163	5994.58
666.354	5959.76
666.546	5974.1
666.737	5998.67
666.929	5945.42
667.12	5959.76
667.311	5875.79
667.503	5810.26
667.694	5922.9
667.885	5769.3
668.077	5814.35
668.268	5552.21
668.459	5789.78
668.651	5709.91
668.842	5802.07
669.033	5630.04
669.224	5724.24
669.416	5791.83
669.607	5560.41
669.798	5572.69
669.989	5328.99
670.18	5425.24
670.371	5609.56
670.563	5578.84
670.754	5460.06
670.945	5439.58
671.136	5421.14
671.327	5351.51
671.518	5273.69
671.709	5138.52
671.9	5544.02
672.091	5267.55
672.282	5179.48
672.473	5064.8
672.664	5339.23
672.855	5187.68
673.046	5165.15
673.237	5171.29
673.428	5126.24
673.619	5111.9
673.809	5122.14
674	4982.88
674.191	5093.47
674.382	5183.58
674.573	4974.69
674.764	4966.49
674.954	5032.03
675.145	4823.14
675.336	4956.26
675.527	5005.41
675.717	4911.2
675.908	4888.67
676.099	4816.99
676.289	4925.54
676.48	4888.67
676.671	4939.87
676.861	4786.27
677.052	4741.22
677.243	4706.4
677.433	4776.03
677.624	4909.15
677.814	4730.98
678.005	4669.54
678.195	4798.56
678.386	4687.97
678.576	4708.45
678.767	4589.67
678.957	4642.92
679.148	4657.25
679.338	4647.01
679.529	4829.28
679.719	4522.09
679.909	4579.43
680.1	4470.89
680.29	4419.69
680.481	4530.28
680.671	4632.68
680.861	4599.91
681.052	4466.79
681.242	4474.98
681.432	4483.17
681.622	4538.47
681.813	4401.26
682.003	4417.64
682.193	4354.15
682.383	4477.03
682.573	4454.5
682.764	4325.48
682.954	4348.01
683.144	4407.4
683.334	4378.73
683.524	4223.08
683.714	4382.82
683.904	4372.58
684.094	4302.95
684.284	4329.58
684.474	4227.18
684.664	4253.8
684.854	4388.97
685.044	4309.1
685.234	4100.2
685.424	4395.11
685.614	4089.96
685.804	4255.85
685.994	4163.69
686.184	4307.05
686.374	4116.59
686.564	4151.4
686.753	4122.73
686.943	4044.91
687.133	4153.45
687.323	4075.63
687.513	4089.96
687.702	4081.77
687.892	4044.91
688.082	3944.56
688.272	4038.77
688.461	3911.79
688.651	3987.57
688.841	3887.22
689.03	4112.49
689.22	3858.54
689.41	3954.8
689.599	3864.69
689.789	3893.36
689.979	3741.81
690.168	3913.84
690.358	3909.74
690.547	3893.36
690.737	3790.96
690.926	3856.5
691.116	3754.1
691.305	3696.75
691.495	3733.62
691.684	3719.28
691.874	3711.09
692.063	3756.15
692.252	3719.28
692.442	3643.51
692.631	3768.43
692.82	3635.32
693.01	3772.53
693.199	3596.4
693.388	3584.12
693.578	3649.65
693.767	3643.51
693.956	3543.16
694.146	3602.55
694.335	3528.82
694.524	3520.63
694.713	3530.87
694.902	3479.67
695.092	3512.44
695.281	3489.91
695.47	3504.25
695.659	3469.43
695.848	3438.71
696.037	3416.18
696.226	3430.52
696.415	3455.09
696.604	3491.96
696.793	3465.33
696.982	3356.79
697.171	3508.34
697.36	3397.75
697.549	3371.13
697.738	3414.13
697.927	3397.75
698.116	3360.89
698.305	3397.75
698.494	3440.76
698.683	3434.61
698.872	3405.94
699.061	3348.6
699.25	3424.37
699.438	3270.78
699.627	3362.94
699.816	3389.56
700.005	3326.07
700.193	3197.05
700.382	3446.9
700.571	3317.88
700.76	3385.46
700.948	3369.08
701.137	3434.61
701.326	3340.41
701.514	3301.5
701.703	3455.09
701.892	3246.2
702.08	3442.81
702.269	3326.07
702.457	3301.5
702.646	3377.27
702.834	3367.03
703.023	3430.52
703.212	3332.22
703.4	3387.51
703.589	3315.83
703.777	3307.64
703.965	3385.46
704.154	3186.81
704.342	3125.37
704.531	3307.64
704.719	3176.57
704.907	3252.35
705.096	3309.69
705.284	3162.23
705.472	3332.22
705.661	3227.77
705.849	3295.35
706.037	3307.64
706.226	3281.02
706.414	3317.88
706.602	3186.81
706.79	3252.35
706.979	3178.62
707.167	3199.1
707.355	3242.11
707.543	3082.36
707.731	3129.47
707.919	3297.4
708.107	3252.35
708.296	3244.15
708.484	3004.54
708.672	3164.28
708.86	3041.4
709.048	3199.1
709.236	3182.71
709.424	3264.63
709.612	3254.39
709.8	3123.32
709.988	3065.98
710.176	3043.45
710.364	3115.13
710.551	3162.23
710.739	3199.1
710.927	3117.18
711.115	3164.28
711.303	3121.28
711.491	3094.65
711.679	3111.04
711.866	3145.85
712.054	3147.9
712.242	3108.99
712.43	3041.4
712.617	3141.75
712.805	2967.68
712.993	2979.97
713.181	3016.83
713.368	3108.99
713.556	3029.12
713.744	3025.02
713.931	3151.99
714.119	3086.46
714.306	3217.53
714.494	2994.3
714.682	3115.13
714.869	3074.17
715.057	3055.74
715.244	2836.61
715.432	2988.16
715.619	3053.69
715.807	3000.44
715.994	2984.06
716.182	3000.44
716.369	2961.53
716.556	3053.69
716.744	3016.83
716.931	2955.39
717.119	3022.97
717.306	2902.14
717.493	2986.11
717.681	2996.35
717.868	2990.21
718.055	2912.38
718.242	3033.21
718.43	2959.49
718.617	2971.77
718.804	2979.97
718.991	2908.29
719.179	2990.21
719.366	3002.49
719.553	2879.61
719.74	2971.77
719.927	2822.27
720.114	2840.7
720.301	2891.9
720.488	2912.38
720.676	2984.06
720.863	2926.72
721.05	2969.73
721.237	2852.99
721.424	2887.81
721.611	3063.93
721.798	2791.55
721.985	3006.59
722.172	2801.79
722.358	2912.38
722.545	2984.06
722.732	2887.81
722.919	2973.82
723.106	2896
723.293	3000.44
723.48	2893.95
723.667	2887.81
723.853	2879.61
724.04	2961.53
724.227	2728.07
724.414	2838.66
724.6	2891.9
724.787	2762.88
724.974	2762.88
725.161	2746.5
725.347	2793.6
725.534	2898.05
725.72	2703.49
725.907	2791.55
726.094	2760.83
726.28	2900.09
726.467	2836.61
726.653	2818.18
726.84	2836.61
727.027	2848.9
727.213	2721.92
727.4	2740.35
727.586	2834.56
727.773	2855.04
727.959	2807.94
728.145	2736.26
728.332	2838.66
728.518	2783.36
728.705	2824.32
728.891	2687.11
729.077	2771.07
729.264	2898.05
729.45	2758.78
729.636	2719.87
729.823	2680.96
730.009	2756.74
730.195	2820.22
730.382	2664.58
730.568	2762.88
730.754	2826.37
730.94	2717.83
731.126	2775.17
731.313	2728.07
731.499	2664.58
731.685	2719.87
731.871	2723.97
732.057	2742.4
732.243	2713.73
732.429	2654.34
732.615	2771.07
732.801	2687.11
732.987	2732.16
733.173	2857.09
733.359	2711.68
733.545	2732.16
733.731	2701.44
733.917	2732.16
734.103	2656.39
734.289	2766.98
734.475	2670.72
734.661	2660.48
734.847	2699.39
735.033	2607.23
735.219	2558.08
735.404	2662.53
735.59	2621.57
735.776	2545.8
735.962	2734.21
736.148	2617.47
736.333	2597
736.519	2529.41
736.705	2693.25
736.89	2689.15
737.076	2590.85
737.262	2689.15
737.447	2590.85
737.633	2564.23
737.819	2551.94
738.004	2543.75
738.19	2586.76
738.375	2654.34
738.561	2541.7
738.747	2668.67
738.932	2590.85
739.118	2527.36
739.303	2363.53
739.489	2539.65
739.674	2502.79
739.859	2609.28
740.045	2504.84
740.23	2482.31
740.416	2373.77
740.601	2459.78
740.786	2457.73
740.972	2363.53
741.157	2474.12
741.342	2457.73
741.528	2545.8
741.713	2394.25
741.898	2465.93
742.084	2302.09
742.269	2357.38
742.454	2318.47
742.639	2429.06
742.824	2328.71
743.01	2375.81
743.195	2373.77
743.38	2234.5
743.565	2373.77
743.75	2341
743.935	2326.66
744.12	2373.77
744.305	2359.43
744.49	2324.62
744.675	2347.14
744.86	2197.64
745.045	2336.9
745.23	2254.98
745.415	2205.83
745.6	2226.31
745.785	2156.68
745.97	2179.21
746.155	2236.55
746.34	2185.35
746.525	2156.68
746.71	2285.7
746.895	2078.86
747.079	2144.39
747.264	2171.02
747.449	2123.91
747.634	1939.6
747.819	2039.95
748.003	2050.19
748.188	2021.52
748.373	2134.15
748.557	2203.79
748.742	1966.22
748.927	1996.94
749.111	1962.12
749.296	1988.75
749.481	1929.36
749.665	2056.33
749.85	1960.08
750.034	1978.51
750.219	1904.78
750.404	1835.15
750.588	1962.12
750.773	1923.21
750.957	1933.45
751.141	1919.12
751.326	1824.91
751.51	1843.34
751.695	1788.05
751.879	1837.2
752.064	1777.81
752.248	1798.29
752.432	1843.34
752.617	1867.92
752.801	1720.46
752.985	1724.56
753.17	1730.7
753.354	1654.93
753.538	1691.79
753.722	1685.65
753.907	1704.08
754.091	1704.08
754.275	1640.59
754.459	1685.65
754.643	1646.74
754.828	1601.68
755.012	1544.34
755.196	1601.68
755.38	1597.59
755.564	1497.24
755.748	1552.53
755.932	1532.05
756.116	1482.9
756.3	1497.24
756.484	1525.91
756.668	1390.74
756.852	1493.14
757.036	1515.67
757.22	1527.96
757.404	1536.15
757.588	1349.78
757.772	1450.13
757.956	1456.28
758.14	1388.69
758.323	1378.45
758.507	1372.31
758.691	1409.17
758.875	1296.53
759.059	1433.75
759.242	1341.59
759.426	1331.35
759.61	1314.97
759.794	1251.48
759.977	1360.02
760.161	1357.97
760.345	1427.6
760.528	1429.65
760.712	1314.97
760.895	1331.35
761.079	1396.89
761.263	1345.69
761.446	1231
761.63	1228.95
761.813	1261.72
761.997	1251.48
762.18	1290.39
762.364	1329.3
762.547	1124.51
762.731	1153.18
762.914	1253.53
763.098	1263.77
763.281	1104.03
763.464	1210.52
763.648	1196.18
763.831	1200.28
764.015	1204.38
764.198	1231
764.381	1155.23
764.564	1151.13
764.748	1214.62
764.931	1218.71
765.114	1116.31
765.297	1155.23
765.481	1140.89
765.664	1138.84
765.847	1163.42
766.03	1099.93
766.213	1065.11
766.397	1071.26
766.58	1028.25
766.763	1140.89
766.946	1058.97
767.129	1126.55
767.312	1046.68
767.495	1091.74
767.678	1048.73
767.861	1177.75
768.044	1075.35
768.227	1071.26
768.41	1077.4
768.593	1112.22
768.776	1001.63
768.959	1071.26
769.142	997.53
769.324	1099.93
769.507	1083.55
769.69	1073.31
769.873	1001.63
770.056	977.05
770.239	1050.78
770.421	1093.79
770.604	970.91
770.787	1022.11
770.97	942.24
771.152	993.44
771.335	997.53
771.518	983.2
771.7	989.34
771.883	1038.49
772.066	1003.68
772.248	917.66
772.431	899.23
772.613	886.94
772.796	1028.25
772.978	923.8
773.161	927.9
773.343	954.52
773.526	936.09
773.708	888.99
773.891	817.31
774.073	917.66
774.256	835.74
774.438	954.52
774.621	934.04
774.803	843.93
774.985	878.75
775.168	813.21
775.35	946.33
775.532	866.46
775.715	831.65
775.897	911.52
776.079	843.93
776.261	839.84
776.444	780.45
776.626	792.73
776.808	802.97
776.99	841.89
777.173	807.07
777.355	880.8
777.537	743.58
777.719	821.41
777.901	719.01
778.083	729.25
778.265	696.48
778.447	678.05
778.629	737.44
778.811	813.21
778.993	745.63
779.175	731.3
779.357	682.14
779.539	708.77
779.721	686.24
779.903	725.15
780.085	706.72
780.267	667.81
780.449	739.49
780.631	651.42
780.812	669.86
780.994	669.86
781.176	651.42
781.358	690.34
781.54	678.05
781.721	628.9
781.903	667.81
782.085	663.71
782.267	716.96
782.448	596.13
782.63	612.51
782.812	645.28
782.993	583.84
783.175	622.75
783.357	608.42
783.538	645.28
783.72	589.99
783.901	575.65
784.083	573.6
784.264	612.51
784.446	563.36
784.627	528.55
784.809	565.41
784.99	561.31
785.172	557.22
785.353	610.47
785.535	592.03
785.716	549.03
785.897	487.59
786.079	526.5
786.26	571.55
786.441	585.89
786.623	520.35
786.804	526.5
786.985	491.68
787.167	467.11
787.348	444.58
787.529	485.54
787.71	565.41
787.891	518.31
788.073	512.16
788.254	452.77
788.435	473.25
788.616	477.35
788.797	528.55
788.978	516.26
789.159	512.16
789.34	528.55
789.522	555.17
789.703	491.68
789.884	442.53
790.065	530.59
790.246	510.11
790.427	399.52
790.607	377
790.788	497.83
790.969	405.67
791.15	424.1
791.331	385.19
791.512	460.96
791.693	344.23
791.874	395.43
792.054	364.71
792.235	315.56
792.416	313.51
792.597	473.25
792.778	477.35
792.958	333.99
793.139	434.34
793.32	411.81
793.5	344.23
793.681	368.81
793.862	401.57
794.042	374.95
794.223	366.76
794.404	350.37
794.584	311.46
794.765	385.19
794.945	387.24
795.126	340.13
795.306	327.85
795.487	358.57
795.667	338.09
795.848	342.18
796.028	434.34
796.209	346.28
796.389	368.81
796.57	409.76
796.75	293.03
796.93	258.21
797.111	260.26
797.291	329.89
797.471	417.96
797.652	319.65
797.832	338.09
798.012	342.18
798.192	309.41
798.373	276.65
798.553	321.7
798.733	288.93
798.913	286.89
799.093	184.49
799.274	293.03
799.454	387.24
799.634	260.26
799.814	340.13
799.994	209.06
800.174	331.94
800.354	303.27
800.534	239.78
800.714	352.42
800.894	297.13
801.074	245.93
801.254	200.87
801.434	301.22
801.614	303.27
801.794	252.07
801.974	661.66
802.154	227.5
802.334	276.65
802.514	235.69
802.693	350.37
802.873	223.4
803.053	354.47
803.233	264.36
803.413	264.36
803.592	225.45
803.772	293.03
803.952	325.8
804.131	239.78
804.311	323.75
804.491	217.26
804.67	196.78
804.85	274.6
805.03	198.82
805.209	233.64
805.389	241.83
805.568	290.98
805.748	233.64
805.928	211.11
806.107	260.26
806.287	217.26
806.466	256.17
806.646	237.74
806.825	268.45
807.004	282.79
807.184	299.17
807.363	217.26
807.543	235.69
807.722	250.02
807.901	252.07
808.081	245.93
808.26	186.54
808.439	250.02
808.619	243.88
808.798	280.74
808.977	274.6
809.156	313.51
809.336	225.45
809.515	213.16
809.694	207.02
809.873	190.63
810.052	207.02
810.231	143.53
810.411	223.4
810.59	315.56
810.769	200.87
810.948	317.61
811.127	131.24
811.306	202.92
811.485	143.53
811.664	186.54
811.843	235.69
812.022	235.69
812.201	276.65
812.38	211.11
812.559	121
812.737	239.78
812.916	172.2
813.095	192.68
813.274	155.82
813.453	192.68
813.632	145.58
813.811	200.87
813.989	176.3
814.168	114.86
814.347	209.06
814.526	235.69
814.704	180.39
814.883	121
815.062	118.95
815.24	252.07
815.419	123.05
815.598	192.68
815.776	92.33
815.955	123.05
816.133	149.67
816.312	172.2
816.49	186.54
816.669	147.62
816.847	153.77
817.026	202.92
817.204	172.2
817.383	180.39
817.561	143.53
817.74	141.48
817.918	164.01
818.097	104.62
818.275	129.19
818.453	196.78
818.632	125.1
818.81	131.24
818.988	145.58
819.167	137.38
819.345	229.54
819.523	100.52
819.701	135.34
819.879	170.15
820.058	188.58
820.236	170.15
820.414	168.1
820.592	102.57
820.77	98.47
820.948	168.1
821.127	227.5
821.305	153.77
821.483	116.9
821.661	121
821.839	170.15
822.017	147.62
822.195	127.14
822.373	237.74
822.551	53.42
822.729	133.29
822.907	159.91
823.085	219.3
823.262	131.24
823.44	145.58
823.618	141.48
823.796	151.72
823.974	149.67
824.152	133.29
824.329	157.86
824.507	194.73
824.685	108.71
824.863	110.76
825.04	112.81
825.218	102.57
825.396	92.33
825.574	96.43
825.751	166.06
825.929	100.52
826.107	139.43
826.284	137.38
826.462	166.06
826.639	227.5
826.817	88.23
826.994	51.37
827.172	63.66
827.349	161.96
827.527	102.57
827.704	114.86
827.882	159.91
828.059	159.91
828.237	94.38
828.414	121
828.591	98.47
828.769	182.44
828.946	110.76
829.124	88.23
829.301	73.9
829.478	49.32
829.655	110.76
829.833	151.72
830.01	147.62
830.187	114.86
830.364	172.2
830.542	57.51
830.719	133.29
830.896	215.21
831.073	127.14
831.25	67.75
831.427	114.86
831.604	125.1
831.782	51.37
831.959	77.99
832.136	133.29
832.313	71.85
832.49	108.71
832.667	170.15
832.844	149.67
833.021	92.33
833.198	98.47
833.374	102.57
833.551	84.14
833.728	92.33
833.905	121
834.082	61.61
834.259	145.58
834.436	73.9
834.612	121
834.789	106.67
834.966	153.77
835.143	94.38
835.319	63.66
835.496	121
835.673	59.56
835.85	155.82
836.026	149.67
836.203	108.71
836.38	34.99
836.556	67.75
836.733	106.67
836.909	188.58
837.086	104.62
837.262	37.03
837.439	24.75
837.616	14.51
837.792	57.51
837.968	127.14
838.145	-16.21
838.321	108.71
838.498	104.62
838.674	114.86
838.851	131.24
839.027	88.23
839.203	80.04
839.38	102.57
839.556	112.81
839.732	127.14
839.909	57.51
840.085	141.48
840.261	88.23
840.437	104.62
840.614	98.47
840.79	92.33
840.966	106.67
841.142	116.9
841.318	59.56
841.494	98.47
841.671	71.85
841.847	121
842.023	94.38
842.199	98.47
842.375	34.99
842.551	114.86
842.727	20.65
842.903	69.8
843.079	108.71
843.255	96.43
843.431	80.04
843.607	100.52
843.783	43.18
843.959	80.04
844.134	-1.88
844.31	131.24
844.486	55.47
844.662	59.56
844.838	47.27
845.013	94.38
845.189	63.66
845.365	71.85
845.541	153.77
845.716	47.27
845.892	141.48
846.068	20.65
846.244	18.6
846.419	57.51
846.595	2.22
846.77	-12.12
846.946	55.47
847.122	100.52
847.297	102.57
847.473	98.47
847.648	90.28
847.824	53.42
847.999	-22.36
848.175	75.95
848.35	63.66
848.526	100.52
848.701	59.56
848.876	14.51
849.052	26.79
849.227	-1.88
849.403	84.14
849.578	98.47
849.753	-24.4
849.929	90.28
850.104	18.6
850.279	47.27
850.454	108.71
850.63	73.9
850.805	112.81
850.98	108.71
851.155	75.95
851.33	65.71
851.505	-3.93
851.681	98.47
851.856	118.95
852.031	32.94
852.206	39.08
852.381	-30.55
852.556	-5.97
852.731	37.03
852.906	96.43
853.081	41.13
853.256	14.51
853.431	2.22
853.606	34.99
853.781	18.6
853.956	12.46
854.131	106.67
854.305	0.17
854.48	63.66
854.655	88.23
854.83	-8.02
855.005	14.51
855.18	141.48
855.354	108.71
855.529	90.28
855.704	6.31
855.879	108.71
856.053	-20.31
856.228	14.51
856.403	-8.02
856.577	104.62
856.752	-26.45
856.926	20.65
857.101	94.38
857.276	73.9
857.45	10.41
857.625	61.61
857.799	16.55
857.974	106.67
858.148	2.22
858.323	71.85
858.497	34.99
858.672	-24.4
858.846	69.8
859.02	73.9
859.195	10.41
859.369	32.94
859.543	65.71
859.718	37.03
859.892	30.89
860.066	73.9
860.241	49.32
860.415	57.51
860.589	28.84
860.763	18.6
860.938	4.27
861.112	110.76
861.286	43.18
861.46	98.47
861.634	-14.17
861.808	30.89
861.982	49.32
862.157	-22.36
862.331	-5.97
862.505	45.23
862.679	-26.45
862.853	84.14
863.027	22.7
863.201	123.05
863.375	84.14
863.549	-3.93
863.722	123.05
863.896	51.37
864.07	8.36
864.244	30.89
864.418	-3.93
864.592	32.94
864.766	67.75
864.939	98.47
865.113	12.46
865.287	108.71
865.461	-30.55
865.634	-8.02
865.808	16.55
865.982	51.37
866.156	0.17
866.329	16.55
866.503	14.51
866.676	53.42
866.85	0.17
867.024	4.27
867.197	32.94
867.371	67.75
867.544	37.03
867.718	16.55
867.891	30.89
868.065	6.31
868.238	45.23
868.412	67.75
868.585	26.79
868.759	141.48
868.932	39.08
869.105	37.03
869.279	57.51
869.452	-24.4
869.625	90.28
869.799	-46.93
869.972	-24.4
870.145	20.65
870.319	59.56
870.492	34.99
870.665	65.71
870.838	-44.88
871.011	28.84
871.185	-12.12
871.358	-51.03
871.531	49.32
871.704	16.55
871.877	-40.79
872.05	63.66
872.223	-3.93
872.396	41.13
872.569	65.71
872.742	-16.21
872.915	-10.07
873.088	67.75
873.261	16.55
873.434	-30.55
873.607	6.31
873.78	-12.12
873.953	-61.27
874.126	10.41
874.299	39.08
874.471	67.75
874.644	4.27
874.817	41.13
874.99	24.75
875.163	-44.88
875.335	63.66
875.508	16.55
875.681	135.34
875.853	86.19
876.026	80.04
876.199	57.51
876.371	6.31
876.544	-8.02
876.717	-71.51
876.889	-18.26
877.062	49.32
877.234	-16.21
877.407	22.7
877.579	47.27
877.752	59.56
877.924	67.75
878.097	8.36
878.269	8.36
878.442	39.08
878.614	20.65
878.786	37.03
878.959	8.36
879.131	34.99
879.303	-91.99
879.476	71.85
879.648	77.99
879.82	20.65
879.993	49.32
880.165	47.27
880.337	-1.88
880.509	-14.17
880.681	26.79
880.854	51.37
881.026	47.27
881.198	65.71
881.37	-57.17
881.542	-3.93
881.714	-1.88
881.886	0.17
882.058	-42.84
882.23	14.51
882.402	88.23
882.574	16.55
882.746	14.51
882.918	100.52
883.09	-1.88
883.262	73.9
883.434	4.27
883.606	16.55
883.778	-63.32
883.95	135.34
884.122	-12.12
884.293	24.75
884.465	-14.17
884.637	-10.07
884.809	-16.21
884.98	-1.88
885.152	10.41
885.324	69.8
885.496	26.79
885.667	6.31
885.839	28.84
886.011	71.85
886.182	30.89
886.354	65.71
886.525	26.79
886.697	0.17
886.869	-28.5
887.04	65.71
887.212	61.61
887.383	45.23
887.555	26.79
887.726	71.85
887.897	-10.07
888.069	-12.12
888.24	2.22
888.412	0.17
888.583	59.56
888.754	-3.93
888.926	-38.74
889.097	-32.6
889.268	-30.55
889.44	80.04
889.611	-12.12
889.782	16.55
889.953	71.85
890.125	63.66
890.296	6.31
890.467	-18.26
890.638	-1.88
890.809	67.75
890.98	0.17
891.151	123.05
891.323	39.08
891.494	6.31
891.665	53.42
891.836	28.84
892.007	-16.21
892.178	6.31
892.349	-10.07
892.52	4.27
892.691	51.37
892.862	20.65
893.032	-34.64
893.203	-18.26
893.374	47.27
893.545	18.6
893.716	16.55
893.887	41.13
894.057	45.23
894.228	-48.98
894.399	-1.88
894.57	55.47
894.74	-16.21
894.911	57.51
895.082	69.8
895.253	133.29
895.423	-24.4
895.594	53.42
895.764	18.6
895.935	-30.55
896.106	43.18
896.276	26.79
896.447	-51.03
896.617	0.17
896.788	-12.12
896.958	20.65
897.129	-10.07
897.299	53.42
897.47	102.57
897.64	49.32
897.81	28.84
897.981	-20.31
898.151	34.99
898.322	102.57
898.492	88.23
898.662	-57.17
898.832	43.18
899.003	2.22
899.173	-61.27
899.343	26.79
899.513	55.47
