Data from USB4F104151__209__11-10-22-657.txt Node

Date: Wed Mar 12 11:10:22 EDT 2025
User: louis
Spectrometer: USB4F10415
Trigger mode: 4
Integration Time (sec): 2.000000E-2
Scans to average: 1
Electric dark correction enabled: true
Nonlinearity correction enabled: false
Boxcar width: 0
XAxis mode: Wavelengths
Number of Pixels in Spectrum: 3648
>>>>>Begin Spectral Data<<<<<
178.204	-107.35
178.424	-107.35
178.644	-107.35
178.864	-105.3
179.084	-50
179.304	36.01
179.524	-56.15
179.744	5.29
179.964	81.07
180.184	-21.33
180.404	-25.43
180.624	-33.62
180.844	17.58
181.064	-80.72
181.283	44.2
181.503	54.44
181.723	-21.33
181.943	48.3
182.163	105.64
182.383	-7
182.602	56.49
182.822	83.11
183.042	-9.05
183.262	23.72
183.482	81.07
183.701	91.31
183.921	23.72
184.141	-52.05
184.361	101.55
184.58	13.48
184.8	25.77
185.02	52.39
185.239	38.06
185.459	83.11
185.679	50.35
185.898	-9.05
186.118	111.78
186.338	66.73
186.557	31.91
186.777	31.91
186.997	25.77
187.216	50.35
187.436	95.4
187.655	-0.85
187.875	74.92
188.095	-29.52
188.314	83.11
188.534	74.92
188.753	19.63
188.973	33.96
189.192	-7
189.412	60.59
189.631	64.68
189.851	-0.85
190.07	105.64
190.29	-33.62
190.509	74.92
190.729	68.78
190.948	27.82
191.168	58.54
191.387	38.06
191.607	50.35
191.826	40.11
192.045	38.06
192.265	60.59
192.484	9.39
192.704	93.35
192.923	-54.1
193.142	136.36
193.362	72.87
193.581	33.96
193.8	83.11
194.02	-39.76
194.239	70.83
194.458	89.26
194.678	68.78
194.897	25.77
195.116	115.88
195.335	83.11
195.555	79.02
195.774	72.87
195.993	54.44
196.212	72.87
196.432	46.25
196.651	150.7
196.87	52.39
197.089	72.87
197.308	25.77
197.528	62.63
197.747	25.77
197.966	21.67
198.185	85.16
198.404	87.21
198.623	25.77
198.842	31.91
199.062	70.83
199.281	68.78
199.5	83.11
199.719	85.16
199.938	-25.43
200.157	81.07
200.376	62.63
200.595	29.87
200.814	33.96
201.033	-19.29
201.252	66.73
201.471	11.43
201.69	42.15
201.909	29.87
202.128	33.96
202.347	-78.68
202.566	56.49
202.785	79.02
203.004	-13.14
203.223	33.96
203.442	-17.24
203.661	50.35
203.879	91.31
204.098	122.02
204.317	52.39
204.536	19.63
204.755	-66.39
204.974	46.25
205.193	5.29
205.411	107.69
205.63	36.01
205.849	50.35
206.068	-41.81
206.287	19.63
206.505	101.55
206.724	25.77
206.943	52.39
207.162	-15.19
207.381	-2.9
207.599	50.35
207.818	-11.09
208.037	11.43
208.255	-13.14
208.474	136.36
208.693	17.58
208.911	87.21
209.13	54.44
209.349	97.45
209.567	66.73
209.786	66.73
210.005	56.49
210.223	83.11
210.442	-33.62
210.661	91.31
210.879	113.83
211.098	11.43
211.316	72.87
211.535	95.4
211.753	56.49
211.972	19.63
212.191	31.91
212.409	91.31
212.628	31.91
212.846	3.24
213.065	99.5
213.283	54.44
213.502	48.3
213.72	40.11
213.938	107.69
214.157	33.96
214.375	38.06
214.594	46.25
214.812	56.49
215.031	23.72
215.249	54.44
215.467	93.35
215.686	27.82
215.904	79.02
216.122	58.54
216.341	124.07
216.559	46.25
216.778	46.25
216.996	54.44
217.214	25.77
217.432	54.44
217.651	31.91
217.869	38.06
218.087	5.29
218.306	58.54
218.524	91.31
218.742	58.54
218.96	29.87
219.179	3.24
219.397	56.49
219.615	124.07
219.833	29.87
220.051	70.83
220.27	56.49
220.488	21.67
220.706	81.07
220.924	1.19
221.142	72.87
221.36	87.21
221.578	87.21
221.796	3.24
222.015	-9.05
222.233	19.63
222.451	81.07
222.669	42.15
222.887	60.59
223.105	15.53
223.323	27.82
223.541	29.87
223.759	58.54
223.977	68.78
224.195	-7
224.413	83.11
224.631	93.35
224.849	66.73
225.067	138.41
225.285	83.11
225.503	72.87
225.721	-15.19
225.939	5.29
226.157	33.96
226.375	91.31
226.592	-25.43
226.81	79.02
227.028	7.34
227.246	144.55
227.464	-4.95
227.682	58.54
227.9	42.15
228.117	105.64
228.335	70.83
228.553	19.63
228.771	64.68
228.989	-27.48
229.206	111.78
229.424	64.68
229.642	36.01
229.86	15.53
230.077	33.96
230.295	25.77
230.513	21.67
230.731	70.83
230.948	107.69
231.166	130.22
231.384	46.25
231.601	83.11
231.819	13.48
232.037	31.91
232.254	-68.44
232.472	68.78
232.689	70.83
232.907	-2.9
233.125	91.31
233.342	58.54
233.56	40.11
233.777	-33.62
233.995	91.31
234.213	70.83
234.43	74.92
234.648	115.88
234.865	-37.72
235.083	60.59
235.3	79.02
235.518	52.39
235.735	148.65
235.953	38.06
236.17	101.55
236.388	21.67
236.605	107.69
236.822	-0.85
237.04	103.59
237.257	103.59
237.475	9.39
237.692	27.82
237.909	46.25
238.127	-29.52
238.344	-2.9
238.562	15.53
238.779	54.44
238.996	58.54
239.214	15.53
239.431	70.83
239.648	76.97
239.865	21.67
240.083	89.26
240.3	101.55
240.517	95.4
240.735	64.68
240.952	44.2
241.169	58.54
241.386	54.44
241.603	52.39
241.821	-45.91
242.038	99.5
242.255	-4.95
242.472	29.87
242.689	42.15
242.907	91.31
243.124	23.72
243.341	36.01
243.558	25.77
243.775	44.2
243.992	1.19
244.209	105.64
244.426	68.78
244.643	126.12
244.86	42.15
245.078	76.97
245.295	33.96
245.512	113.83
245.729	74.92
245.946	52.39
246.163	31.91
246.38	132.26
246.597	38.06
246.814	103.59
247.031	25.77
247.248	46.25
247.464	97.45
247.681	74.92
247.898	52.39
248.115	54.44
248.332	70.83
248.549	54.44
248.766	31.91
248.983	79.02
249.2	15.53
249.417	97.45
249.633	87.21
249.85	97.45
250.067	58.54
250.284	31.91
250.501	66.73
250.717	150.7
250.934	-2.9
251.151	15.53
251.368	23.72
251.585	13.48
251.801	19.63
252.018	5.29
252.235	74.92
252.451	48.3
252.668	64.68
252.885	76.97
253.102	54.44
253.318	60.59
253.535	-13.14
253.752	107.69
253.968	62.63
254.185	79.02
254.401	-9.05
254.618	97.45
254.835	74.92
255.051	91.31
255.268	44.2
255.484	58.54
255.701	13.48
255.917	74.92
256.134	81.07
256.351	62.63
256.567	13.48
256.784	44.2
257	1.19
257.217	21.67
257.433	81.07
257.65	11.43
257.866	70.83
258.082	25.77
258.299	52.39
258.515	64.68
258.732	-27.48
258.948	85.16
259.165	62.63
259.381	54.44
259.597	19.63
259.814	68.78
260.03	-17.24
260.246	74.92
260.463	83.11
260.679	115.88
260.895	46.25
261.112	103.59
261.328	54.44
261.544	33.96
261.761	138.41
261.977	-13.14
262.193	48.3
262.409	89.26
262.626	40.11
262.842	23.72
263.058	29.87
263.274	64.68
263.49	62.63
263.707	50.35
263.923	38.06
264.139	25.77
264.355	9.39
264.571	76.97
264.787	31.91
265.004	52.39
265.22	46.25
265.436	50.35
265.652	81.07
265.868	97.45
266.084	91.31
266.3	-43.86
266.516	-7
266.732	64.68
266.948	50.35
267.164	17.58
267.38	52.39
267.596	62.63
267.812	42.15
268.028	124.07
268.244	15.53
268.46	19.63
268.676	17.58
268.892	38.06
269.108	52.39
269.324	74.92
269.54	29.87
269.756	60.59
269.972	17.58
270.188	79.02
270.403	-15.19
270.619	-21.33
270.835	97.45
271.051	117.93
271.267	46.25
271.483	46.25
271.698	83.11
271.914	11.43
272.13	25.77
272.346	122.02
272.562	9.39
272.777	64.68
272.993	105.64
273.209	21.67
273.425	17.58
273.64	119.98
273.856	29.87
274.072	95.4
274.287	70.83
274.503	66.73
274.719	62.63
274.934	15.53
275.15	38.06
275.366	117.93
275.581	27.82
275.797	107.69
276.012	40.11
276.228	58.54
276.444	-7
276.659	52.39
276.875	74.92
277.09	38.06
277.306	44.2
277.521	50.35
277.737	17.58
277.952	21.67
278.168	42.15
278.383	74.92
278.599	126.12
278.814	50.35
279.03	-7
279.245	13.48
279.461	68.78
279.676	93.35
279.892	46.25
280.107	56.49
280.322	-15.19
280.538	56.49
280.753	27.82
280.969	66.73
281.184	58.54
281.399	74.92
281.615	7.34
281.83	-9.05
282.045	46.25
282.26	70.83
282.476	9.39
282.691	56.49
282.906	44.2
283.122	17.58
283.337	48.3
283.552	11.43
283.767	29.87
283.983	9.39
284.198	33.96
284.413	74.92
284.628	-27.48
284.843	58.54
285.058	95.4
285.274	62.63
285.489	66.73
285.704	62.63
285.919	5.29
286.134	33.96
286.349	72.87
286.564	119.98
286.779	62.63
286.995	128.17
287.21	38.06
287.425	85.16
287.64	33.96
287.855	58.54
288.07	-0.85
288.285	101.55
288.5	64.68
288.715	52.39
288.93	68.78
289.145	11.43
289.36	-0.85
289.575	-0.85
289.79	50.35
290.004	9.39
290.219	113.83
290.434	64.68
290.649	-29.52
290.864	3.24
291.079	99.5
291.294	81.07
291.509	13.48
291.724	70.83
291.938	70.83
292.153	136.36
292.368	83.11
292.583	72.87
292.798	70.83
293.012	56.49
293.227	25.77
293.442	56.49
293.657	9.39
293.871	64.68
294.086	70.83
294.301	83.11
294.516	38.06
294.73	36.01
294.945	40.11
295.16	-33.62
295.374	74.92
295.589	-7
295.804	44.2
296.018	-27.48
296.233	42.15
296.447	-2.9
296.662	72.87
296.877	97.45
297.091	115.88
297.306	-25.43
297.52	83.11
297.735	89.26
297.949	17.58
298.164	9.39
298.378	44.2
298.593	68.78
298.807	79.02
299.022	74.92
299.236	31.91
299.451	7.34
299.665	38.06
299.88	31.91
300.094	33.96
300.309	66.73
300.523	13.48
300.737	85.16
300.952	38.06
301.166	46.25
301.381	76.97
301.595	91.31
301.809	42.15
302.024	33.96
302.238	76.97
302.452	38.06
302.667	76.97
302.881	79.02
303.095	134.31
303.309	40.11
303.524	70.83
303.738	52.39
303.952	54.44
304.166	3.24
304.381	9.39
304.595	115.88
304.809	9.39
305.023	36.01
305.237	81.07
305.452	-11.09
305.666	60.59
305.88	128.17
306.094	74.92
306.308	62.63
306.522	62.63
306.736	72.87
306.95	115.88
307.164	-2.9
307.379	128.17
307.593	72.87
307.807	72.87
308.021	52.39
308.235	50.35
308.449	46.25
308.663	33.96
308.877	83.11
309.091	91.31
309.305	-7
309.519	-11.09
309.733	124.07
309.947	44.2
310.161	85.16
310.374	91.31
310.588	70.83
310.802	7.34
311.016	-39.76
311.23	74.92
311.444	48.3
311.658	119.98
311.872	56.49
312.085	117.93
312.299	-21.33
312.513	62.63
312.727	109.74
312.941	74.92
313.154	79.02
313.368	33.96
313.582	79.02
313.796	29.87
314.009	21.67
314.223	74.92
314.437	48.3
314.651	25.77
314.864	36.01
315.078	58.54
315.292	42.15
315.505	25.77
315.719	29.87
315.933	89.26
316.146	54.44
316.36	21.67
316.573	130.22
316.787	81.07
317.001	52.39
317.214	5.29
317.428	-7
317.641	-17.24
317.855	68.78
318.068	-25.43
318.282	85.16
318.495	-7
318.709	-19.29
318.922	29.87
319.136	33.96
319.349	87.21
319.563	91.31
319.776	23.72
319.99	33.96
320.203	74.92
320.417	27.82
320.63	58.54
320.843	83.11
321.057	42.15
321.27	56.49
321.483	72.87
321.697	68.78
321.91	101.55
322.124	72.87
322.337	33.96
322.55	58.54
322.763	101.55
322.977	81.07
323.19	68.78
323.403	38.06
323.617	68.78
323.83	101.55
324.043	17.58
324.256	42.15
324.469	-0.85
324.683	111.78
324.896	119.98
325.109	1.19
325.322	29.87
325.535	52.39
325.748	70.83
325.962	64.68
326.175	52.39
326.388	85.16
326.601	160.94
326.814	38.06
327.027	-15.19
327.24	54.44
327.453	-19.29
327.666	31.91
327.879	9.39
328.092	42.15
328.305	83.11
328.518	5.29
328.731	23.72
328.944	40.11
329.157	74.92
329.37	5.29
329.583	136.36
329.796	132.26
330.009	17.58
330.222	113.83
330.435	-9.05
330.648	58.54
330.861	46.25
331.073	76.97
331.286	58.54
331.499	48.3
331.712	50.35
331.925	70.83
332.138	21.67
332.35	36.01
332.563	56.49
332.776	79.02
332.989	52.39
333.202	40.11
333.414	3.24
333.627	17.58
333.84	64.68
334.053	19.63
334.265	23.72
334.478	66.73
334.691	66.73
334.903	103.59
335.116	21.67
335.329	-4.95
335.541	79.02
335.754	107.69
335.966	58.54
336.179	23.72
336.392	89.26
336.604	33.96
336.817	52.39
337.029	50.35
337.242	3.24
337.454	-23.38
337.667	13.48
337.88	99.5
338.092	185.51
338.305	66.73
338.517	66.73
338.729	122.02
338.942	29.87
339.154	36.01
339.367	50.35
339.579	31.91
339.792	-11.09
340.004	130.22
340.217	66.73
340.429	85.16
340.641	105.64
340.854	-13.14
341.066	17.58
341.278	115.88
341.491	140.46
341.703	9.39
341.915	56.49
342.128	126.12
342.34	31.91
342.552	56.49
342.764	103.59
342.977	58.54
343.189	38.06
343.401	91.31
343.613	50.35
343.826	66.73
344.038	15.53
344.25	68.78
344.462	64.68
344.674	42.15
344.886	7.34
345.099	91.31
345.311	11.43
345.523	74.92
345.735	-0.85
345.947	-9.05
346.159	17.58
346.371	-31.57
346.583	21.67
346.795	89.26
347.007	27.82
347.219	101.55
347.431	68.78
347.643	62.63
347.855	105.64
348.067	148.65
348.279	23.72
348.491	128.17
348.703	23.72
348.915	64.68
349.127	46.25
349.339	54.44
349.551	50.35
349.763	74.92
349.975	58.54
350.187	56.49
350.399	72.87
350.61	52.39
350.822	48.3
351.034	87.21
351.246	74.92
351.458	36.01
351.669	31.91
351.881	13.48
352.093	72.87
352.305	119.98
352.517	54.44
352.728	74.92
352.94	97.45
353.152	42.15
353.363	15.53
353.575	72.87
353.787	29.87
353.999	109.74
354.21	62.63
354.422	85.16
354.633	23.72
354.845	-9.05
355.057	103.59
355.268	87.21
355.48	42.15
355.692	54.44
355.903	95.4
356.115	29.87
356.326	48.3
356.538	72.87
356.749	56.49
356.961	99.5
357.172	40.11
357.384	25.77
357.595	83.11
357.807	85.16
358.018	23.72
358.23	58.54
358.441	70.83
358.653	115.88
358.864	33.96
359.075	40.11
359.287	29.87
359.498	83.11
359.709	109.74
359.921	111.78
360.132	60.59
360.344	83.11
360.555	19.63
360.766	-15.19
360.977	70.83
361.189	38.06
361.4	52.39
361.611	99.5
361.823	124.07
362.034	85.16
362.245	25.77
362.456	72.87
362.667	15.53
362.879	72.87
363.09	89.26
363.301	122.02
363.512	158.89
363.723	13.48
363.935	79.02
364.146	115.88
364.357	11.43
364.568	60.59
364.779	70.83
364.99	81.07
365.201	52.39
365.412	103.59
365.623	25.77
365.834	132.26
366.045	48.3
366.256	21.67
366.467	97.45
366.678	81.07
366.889	99.5
367.1	25.77
367.311	50.35
367.522	40.11
367.733	107.69
367.944	126.12
368.155	38.06
368.366	107.69
368.577	132.26
368.788	115.88
368.999	38.06
369.209	95.4
369.42	97.45
369.631	50.35
369.842	52.39
370.053	52.39
370.264	79.02
370.474	74.92
370.685	-0.85
370.896	9.39
371.107	97.45
371.317	11.43
371.528	87.21
371.739	122.02
371.95	23.72
372.16	68.78
372.371	105.64
372.582	97.45
372.792	23.72
373.003	17.58
373.214	134.31
373.424	126.12
373.635	70.83
373.846	58.54
374.056	89.26
374.267	122.02
374.477	11.43
374.688	76.97
374.898	109.74
375.109	36.01
375.319	48.3
375.53	29.87
375.74	21.67
375.951	36.01
376.161	83.11
376.372	72.87
376.582	91.31
376.793	132.26
377.003	9.39
377.214	70.83
377.424	64.68
377.635	60.59
377.845	15.53
378.055	54.44
378.266	134.31
378.476	31.91
378.686	152.74
378.897	70.83
379.107	68.78
379.317	83.11
379.528	95.4
379.738	79.02
379.948	31.91
380.158	117.93
380.369	36.01
380.579	50.35
380.789	33.96
380.999	7.34
381.21	36.01
381.42	107.69
381.63	50.35
381.84	48.3
382.05	50.35
382.261	105.64
382.471	122.02
382.681	50.35
382.891	91.31
383.101	142.5
383.311	33.96
383.521	52.39
383.731	81.07
383.941	107.69
384.151	58.54
384.361	97.45
384.571	91.31
384.781	128.17
384.991	97.45
385.201	25.77
385.411	107.69
385.621	103.59
385.831	83.11
386.041	111.78
386.251	70.83
386.461	29.87
386.671	66.73
386.881	60.59
387.091	97.45
387.301	126.12
387.511	52.39
387.72	122.02
387.93	95.4
388.14	66.73
388.35	60.59
388.56	9.39
388.769	79.02
388.979	130.22
389.189	89.26
389.399	126.12
389.609	70.83
389.818	70.83
390.028	99.5
390.238	64.68
390.447	33.96
390.657	124.07
390.867	117.93
391.076	36.01
391.286	46.25
391.496	140.46
391.705	99.5
391.915	111.78
392.125	62.63
392.334	81.07
392.544	89.26
392.753	54.44
392.963	124.07
393.172	42.15
393.382	85.16
393.591	105.64
393.801	83.11
394.01	160.94
394.22	76.97
394.429	99.5
394.639	113.83
394.848	99.5
395.058	87.21
395.267	101.55
395.477	99.5
395.686	107.69
395.895	85.16
396.105	175.27
396.314	72.87
396.524	76.97
396.733	72.87
396.942	138.41
397.152	136.36
397.361	144.55
397.57	54.44
397.78	148.65
397.989	128.17
398.198	144.55
398.407	66.73
398.617	162.98
398.826	197.8
399.035	38.06
399.244	111.78
399.453	142.5
399.663	103.59
399.872	152.74
400.081	165.03
400.29	103.59
400.499	144.55
400.708	171.18
400.917	187.56
401.127	115.88
401.336	107.69
401.545	130.22
401.754	144.55
401.963	152.74
402.172	150.7
402.381	132.26
402.59	150.7
402.799	109.74
403.008	107.69
403.217	124.07
403.426	165.03
403.635	93.35
403.844	103.59
404.053	193.7
404.262	148.65
404.471	234.66
404.68	142.5
404.888	197.8
405.097	138.41
405.306	222.38
405.515	150.7
405.724	150.7
405.933	181.42
406.142	160.94
406.35	183.46
406.559	173.22
406.768	214.18
406.977	205.99
407.185	210.09
407.394	162.98
407.603	214.18
407.812	195.75
408.02	306.34
408.229	230.57
408.438	304.29
408.646	226.47
408.855	232.62
409.064	257.19
409.272	212.14
409.481	214.18
409.69	283.81
409.898	306.34
410.107	294.05
410.315	283.81
410.524	292.01
410.733	255.14
410.941	294.05
411.15	410.79
411.358	423.08
411.567	359.59
411.775	404.64
411.984	427.17
412.192	529.57
412.401	392.36
412.609	404.64
412.818	527.52
413.026	492.71
413.234	523.43
413.443	496.8
413.651	509.09
413.86	521.38
414.068	593.06
414.276	683.17
414.485	644.26
414.693	668.83
414.901	767.13
415.11	658.59
415.318	664.74
415.526	736.42
415.734	644.26
415.943	816.29
416.151	793.76
416.359	857.25
416.567	844.96
416.776	904.35
416.984	988.32
417.192	935.07
417.4	877.73
417.608	945.31
417.817	1053.85
418.025	1066.14
418.233	1160.34
418.441	1152.15
418.649	1295.51
418.857	1164.44
419.065	1375.38
419.273	1213.59
419.481	1363.09
419.689	1414.29
419.897	1512.6
420.105	1500.31
420.313	1557.65
420.521	1641.62
420.729	1631.38
420.937	1639.57
421.145	1770.64
421.353	1811.6
421.561	1815.69
421.769	1946.76
421.977	2036.88
422.185	1948.81
422.393	2196.62
422.601	2290.82
422.809	2284.68
423.017	2319.5
423.224	2253.96
423.432	2479.24
423.64	2440.33
423.848	2602.11
424.056	2581.64
424.263	2788.48
424.471	2753.66
424.679	2899.07
424.887	3107.96
425.094	3159.16
425.302	3067
425.51	3255.42
425.718	3390.58
425.925	3257.46
426.133	3495.03
426.341	3658.87
426.548	3875.95
426.756	3718.26
426.964	3791.98
427.171	4117.61
427.379	4156.52
427.586	4316.26
427.794	4443.24
428.001	4643.94
428.209	4791.39
428.417	4748.39
428.624	5069.92
428.832	4998.24
429.039	4965.47
429.247	5096.54
429.454	5497.94
429.662	5801.04
429.869	5266.52
430.076	5776.47
430.284	5786.71
430.491	6093.9
430.699	6313.03
430.906	6288.46
431.114	6249.55
431.321	6446.15
431.528	6913.09
431.736	7068.73
431.943	7502.9
432.15	7275.58
432.358	7308.35
432.565	7935.03
432.772	7742.52
432.979	8096.82
433.187	8133.68
433.394	8129.58
433.601	9008.16
433.808	9059.36
434.016	8971.3
434.223	9174.05
434.43	9849.88
434.637	9798.68
434.844	10114.06
435.052	10574.86
435.259	10220.56
435.466	10310.67
435.673	10263.57
435.88	10890.24
436.087	11572.22
436.294	11615.23
436.501	11283.45
436.708	11590.65
436.915	12016.63
437.122	12383.21
437.329	12356.59
437.537	12731.37
437.743	12985.32
437.95	12833.77
438.157	13540.32
438.364	14121.94
438.571	13956.05
438.778	14054.36
438.985	15451.07
439.192	14875.59
439.399	15107.01
439.606	14805.96
439.813	15657.92
440.02	16368.56
440.227	16667.56
440.433	16223.16
440.64	16972.71
440.847	16640.94
441.054	17034.15
441.261	18330.51
441.467	17986.46
441.674	18402.19
441.881	18914.19
442.088	18969.48
442.294	18830.22
442.501	19321.73
442.708	19659.65
442.914	20441.97
443.121	21427.04
443.328	20724.59
443.534	22629.2
443.741	21461.86
443.948	21273.45
444.154	22803.28
444.361	22825.81
444.568	22772.56
444.774	22709.07
444.981	23053.13
445.187	23614.27
445.394	24798
445.6	24531.76
445.807	26428.18
446.013	25660.2
446.22	25998.11
446.426	27120.4
446.633	27243.27
446.839	28254.97
447.046	27091.73
447.252	28750.58
447.459	28652.28
447.665	28396.28
447.871	29530.86
448.078	30864.08
448.284	29467.37
448.491	30395.1
448.697	31369.93
448.903	31875.78
449.11	32139.97
449.316	31384.27
449.522	32445.12
449.728	32922.29
449.935	33233.58
450.141	33049.27
450.347	33735.34
450.553	32791.22
450.76	33002.16
450.966	34423.45
451.172	33733.29
451.378	34179.75
451.584	34073.25
451.791	35115.67
451.997	34529.95
452.203	35154.58
452.409	35084.95
452.615	34734.74
452.821	33718.95
453.027	33350.32
453.233	34773.66
453.44	33540.78
453.646	34138.79
453.852	34230.94
454.058	34624.15
454.264	33323.69
454.47	34333.34
454.676	33632.94
454.882	34568.86
455.088	31521.48
455.294	32410.3
455.5	32443.07
455.705	32637.62
455.911	31224.53
456.117	31101.65
456.323	30984.91
456.529	28990.19
456.735	29911.78
456.941	29090.54
457.147	28812.02
457.352	28297.98
457.558	27761.41
457.764	27321.1
457.97	27214.6
458.176	26639.12
458.381	26428.18
458.587	25230.12
458.793	25371.43
458.999	23817.02
459.204	25785.12
459.41	25232.17
459.616	23290.7
459.821	23319.37
460.027	23362.37
460.233	23018.32
460.438	21388.13
460.644	21959.52
460.85	20665.2
461.055	20587.38
461.261	20566.9
461.466	19164.04
461.672	18336.66
461.878	19809.15
462.083	18574.22
462.289	18426.77
462.494	17957.78
462.7	17173.41
462.905	16622.51
463.111	17374.11
463.316	17181.6
463.522	16909.22
463.727	16796.59
463.932	16976.81
464.138	16845.74
464.343	16925.61
464.549	16526.25
464.754	16886.7
464.959	16817.07
465.165	16683.95
465.37	16114.61
465.575	15489.98
465.781	16264.11
465.986	16165.81
466.191	15803.32
466.397	15332.29
466.602	14592.97
466.807	15188.93
467.012	15184.83
467.218	15068.1
467.423	14818.25
467.628	15102.92
467.833	15848.38
468.038	15021
468.244	14646.22
468.449	15205.31
468.654	14730.19
468.859	14578.64
469.064	14625.74
469.269	13958.1
469.474	14097.36
469.679	14427.09
469.885	14046.16
470.09	14212.05
470.295	14132.18
470.5	13755.35
470.705	13794.26
470.91	13233.12
471.115	13040.61
471.32	13796.31
471.525	13388.77
471.73	13237.22
471.935	13044.71
472.139	12467.18
472.344	12741.61
472.549	12682.22
472.754	12721.13
472.959	12438.51
473.164	11963.38
473.369	11891.7
473.574	12329.97
473.778	12235.76
473.983	12127.22
474.188	12188.66
474.393	11717.62
474.598	11492.35
474.802	11258.88
475.007	11320.32
475.212	11392
475.417	11090.95
475.621	11078.66
475.826	11035.65
476.031	10732.55
476.235	10460.17
476.44	10740.74
476.645	10476.55
476.849	10517.51
477.054	10466.31
477.259	10294.29
477.463	10259.47
477.668	9987.09
477.872	10193.94
478.077	10083.34
478.282	9720.85
478.486	9602.07
478.691	9585.69
478.895	9464.86
479.1	9241.63
479.304	9466.91
479.509	9389.08
479.713	9362.46
479.918	9317.4
480.122	9108.51
480.326	9184.29
480.531	9126.94
480.735	9098.27
480.94	8950.82
481.144	9186.33
481.348	8746.02
481.553	8868.9
481.757	8897.57
481.961	8836.13
482.166	9151.52
482.37	9008.16
482.574	8772.64
482.778	8920.1
482.983	9047.07
483.187	8832.04
483.391	9077.79
483.595	8688.68
483.8	8743.97
484.004	8829.99
484.208	8840.23
484.412	8721.45
484.616	8774.69
484.821	8813.6
485.025	8651.81
485.229	8795.17
485.433	8809.51
485.637	8860.71
485.841	8819.75
486.045	8711.21
486.249	8766.5
486.453	8565.8
486.657	8829.99
486.861	8838.18
487.065	8784.93
487.269	8782.88
487.473	8649.77
487.677	8854.56
487.881	8786.98
488.085	8610.86
488.289	8723.49
488.493	8772.64
488.697	8932.39
488.901	8918.05
489.105	8698.92
489.309	8918.05
489.512	8832.04
489.716	9204.77
489.92	8991.78
490.124	8817.7
490.328	9004.07
490.531	9042.98
490.735	9303.07
490.939	9047.07
491.143	8944.67
491.346	8965.15
491.55	9192.48
491.754	9278.49
491.958	9172
492.161	9217.05
492.365	9280.54
492.569	9301.02
492.772	9233.44
492.976	9585.69
493.18	9417.75
493.383	9446.43
493.587	9649.18
493.79	9614.36
493.994	9497.63
494.197	9587.74
494.401	9593.88
494.605	9956.37
494.808	10204.17
495.012	10056.72
495.215	10107.92
495.419	10247.18
495.622	9999.38
495.825	10157.07
496.029	10195.98
496.232	10482.7
496.436	10537.99
496.639	10712.07
496.843	10669.06
497.046	10812.42
497.249	10974.21
497.453	10855.43
497.656	11181.06
497.859	11097.09
498.063	11293.69
498.266	11387.9
498.469	11373.57
498.673	11627.51
498.876	11766.78
499.079	11865.08
499.282	11867.13
499.485	12102.64
499.689	12190.7
499.892	12395.5
500.095	12348.4
500.298	12639.21
500.501	12479.47
500.705	13036.52
500.908	13038.56
501.111	13145.06
501.314	13224.93
501.517	13306.85
501.72	13568.99
501.923	13525.98
502.126	13702.11
502.329	14148.56
502.532	14228.43
502.735	14404.56
502.938	14560.2
503.141	14627.79
503.344	14848.97
503.547	14689.23
503.75	15219.65
503.953	15475.65
504.156	15485.89
504.359	15791.03
504.562	15680.44
504.765	15854.52
504.968	16030.65
505.17	16497.58
505.373	16323.51
505.576	16896.94
505.779	16870.31
505.982	17066.92
506.185	17101.73
506.387	17148.84
506.59	17501.09
506.793	17902.49
506.996	17992.6
507.198	18049.94
507.401	18107.29
507.604	18666.38
507.807	18559.89
508.009	18916.23
508.212	19129.22
508.415	19200.9
508.617	19454.85
508.82	19506.05
509.022	19727.23
509.225	20306.8
509.428	19999.61
509.63	20611.95
509.833	20421.49
510.035	20915.05
510.238	21107.56
510.44	21103.46
510.643	21611.36
510.845	22035.29
511.048	21814.11
511.25	21965.66
511.453	21994.33
511.655	22963.02
511.858	22664.02
512.06	22948.68
512.262	23116.62
512.465	23073.61
512.667	23675.71
512.87	23626.56
513.072	23759.68
513.274	24177.47
513.477	24392.5
513.679	24754.99
513.881	24867.63
514.084	25332.52
514.286	25113.39
514.488	25506.6
514.69	26512.15
514.893	26153.76
515.095	26243.87
515.297	26694.42
515.499	26667.8
515.701	27116.3
515.904	27398.92
516.106	27425.54
516.308	27771.65
516.51	28406.52
516.712	28068.61
516.914	28799.73
517.116	28975.86
517.318	29278.96
517.52	29098.73
517.722	29350.63
517.925	30141.15
518.127	30477.02
518.329	30171.87
518.531	30558.94
518.733	30995.15
518.935	31175.37
519.136	31517.39
519.338	31697.61
519.54	31767.24
519.742	32344.77
519.944	32172.74
520.146	32608.95
520.348	32772.79
520.55	33573.55
520.752	33479.34
520.954	33991.33
521.155	33686.18
521.357	34097.83
521.559	34269.86
521.761	35078.8
521.963	34824.86
522.164	34859.67
522.366	35558.03
522.568	35697.29
522.77	36196.99
522.971	36360.83
523.173	36045.44
523.375	36944.5
523.576	37007.99
523.778	36635.26
523.98	37556.85
524.181	37423.73
524.383	38099.56
524.584	38107.75
524.786	37841.51
524.988	37919.34
525.189	38392.42
525.391	38799.96
525.592	39074.39
525.794	38836.83
525.995	39053.91
526.197	39184.98
526.398	39451.22
526.6	39869
526.801	40196.68
527.003	40362.56
527.204	40348.23
527.406	40208.97
527.607	40487.49
527.808	40925.75
528.01	40143.43
528.211	40921.66
528.412	41445.94
528.614	41290.29
528.815	40946.23
529.016	41781.81
529.218	41525.81
529.419	41355.83
529.62	41933.35
529.822	41552.43
530.023	42136.1
530.224	41724.46
530.425	42363.43
530.626	41855.53
530.828	41806.38
531.029	42822.17
531.23	42205.73
531.431	41857.58
531.632	42205.73
531.833	42840.6
532.035	42654.24
532.236	42906.14
532.437	42793.5
532.638	42617.38
532.839	43002.39
533.04	43100.7
533.241	42662.43
533.442	43747.86
533.643	42693.15
533.844	43117.08
534.045	43440.66
534.246	43076.12
534.447	43508.24
534.648	43416.08
534.849	43704.85
535.05	43135.51
535.251	43397.65
535.451	43176.47
535.652	43661.84
535.853	43242.01
536.054	43512.34
536.255	43252.25
536.456	43610.64
536.657	43706.9
536.857	43487.76
537.058	42969.63
537.259	43571.73
537.46	43911.69
537.66	43432.47
537.861	43440.66
538.062	43424.28
538.263	43455
538.463	43340.31
538.664	43252.25
538.865	43747.86
539.065	43727.38
539.266	43229.72
539.466	43727.38
539.667	43074.07
539.868	44218.89
540.068	43516.43
540.269	43491.86
540.469	43956.75
540.67	43356.69
540.87	43571.73
541.071	43403.8
541.271	43616.79
541.472	43477.52
541.672	43647.5
541.873	42986.01
542.073	42838.56
542.274	43799.05
542.474	43293.21
542.675	43538.96
542.875	43487.76
543.075	43414.04
543.276	42918.43
543.476	44040.71
543.676	43551.25
543.877	43555.35
544.077	43498
544.277	43602.45
544.478	43100.7
544.678	43489.81
544.878	43612.69
545.078	43332.12
545.279	43256.34
545.479	43067.93
545.679	43788.81
545.879	43272.73
546.079	43112.98
546.28	43434.52
546.48	43086.36
546.68	43541.01
546.88	43287.06
547.08	43541.01
547.28	43690.51
547.48	42365.48
547.68	43301.4
547.88	42531.36
548.081	43330.07
548.281	43305.49
548.481	43227.67
548.681	43659.79
548.881	43258.39
549.081	42793.5
549.28	42924.57
549.48	43280.92
549.68	42773.02
549.88	43420.18
550.08	42725.92
550.28	43586.07
550.48	43239.96
550.68	43231.77
550.88	43035.16
551.08	42856.99
551.279	43141.66
551.479	42758.69
551.679	43162.14
551.879	42684.96
552.079	43401.75
552.278	43031.07
552.478	43061.79
552.678	43004.44
552.878	42969.63
553.077	42912.28
553.277	42740.25
553.477	42949.15
553.676	42887.71
553.876	42676.77
554.076	42375.72
554.275	42977.82
554.475	42359.33
554.674	42463.78
554.874	42803.74
555.074	42406.44
555.273	42451.49
555.473	42656.29
555.672	42351.14
555.872	42242.6
556.071	42545.7
556.271	42752.54
556.47	42332.71
556.67	41388.6
556.869	41996.84
557.068	42504.74
557.268	41800.24
557.467	41783.85
557.667	41957.93
557.866	42166.82
558.065	41884.2
558.265	41636.4
558.464	41472.56
558.663	41837.1
558.863	41478.71
559.062	42379.81
559.261	41515.57
559.461	42349.09
559.66	41093.69
559.859	41617.97
560.058	41163.32
560.258	40868.41
560.457	41024.06
560.656	41296.44
560.855	40786.49
561.054	41280.05
561.253	40970.81
561.453	40819.26
561.652	41030.2
561.851	41009.72
562.05	40710.72
562.249	40163.91
562.448	40858.17
562.647	40587.84
562.846	40204.87
563.045	40352.32
563.244	39582.29
563.443	40616.51
563.642	39850.57
563.841	39961.16
564.04	39672.4
564.239	40149.57
564.438	39060.05
564.637	39791.18
564.836	39752.27
565.035	38937.18
565.234	39696.97
565.432	38869.59
565.631	39115.35
565.83	39328.34
566.029	39150.17
566.228	38947.42
566.427	38619.74
566.625	38963.8
566.824	38302.31
567.023	38646.36
567.222	38261.35
567.42	38681.18
567.619	38038.12
567.818	38484.58
568.016	37872.23
568.215	38466.14
568.414	37995.11
568.612	38224.48
568.811	37905
569.01	37823.08
569.208	37313.14
569.407	37659.24
569.605	37120.63
569.804	37384.82
570.002	37169.78
570.201	37634.67
570.4	36903.54
570.598	37065.33
570.797	36530.81
570.995	36635.26
571.193	36389.5
571.392	36950.65
571.59	36375.17
571.789	36559.48
571.987	36223.62
572.186	36346.5
572.384	36006.53
572.582	36053.64
572.781	35998.34
572.979	35504.78
573.177	35908.23
573.376	35891.85
573.574	35295.89
573.772	35574.41
573.971	35703.43
574.169	35291.79
574.367	35187.35
574.565	35379.85
574.763	35033.75
574.962	34658.97
575.16	34450.08
575.358	34534.04
575.556	34517.66
575.754	34753.18
575.952	34257.57
576.151	34235.04
576.349	33495.72
576.547	34095.78
576.745	33962.66
576.943	33968.8
577.141	34022.05
577.339	33989.28
577.537	33890.98
577.735	33356.46
577.933	33301.17
578.131	33499.82
578.329	33004.21
578.527	33190.58
578.725	33153.71
578.923	33450.67
579.121	32912.05
579.319	32715.45
579.516	33055.41
579.714	32537.27
579.912	32735.93
580.11	32559.8
580.308	32166.59
580.506	32277.18
580.704	32035.52
580.901	32309.95
581.099	32131.78
581.297	31855.3
581.495	31855.3
581.692	32223.93
581.89	31634.12
582.088	31900.36
582.285	31646.41
582.483	31787.72
582.681	31546.06
582.878	31013.59
583.076	31181.52
583.274	31269.58
583.471	30921.43
583.669	31062.74
583.866	30663.38
584.064	30835.41
584.262	30483.16
584.459	30718.68
584.657	30241.5
584.854	30472.92
585.052	30206.69
585.249	30143.2
585.447	30345.95
585.644	29862.63
585.841	30094.05
586.039	30102.24
586.236	29645.54
586.434	30016.22
586.631	29350.63
586.828	29532.9
587.026	29571.82
587.223	29539.05
587.42	29549.29
587.618	29313.77
587.815	29158.13
588.012	29070.06
588.21	28816.11
588.407	29324.01
588.604	28883.7
588.801	28588.79
588.999	28703.48
589.196	28574.45
589.393	28386.04
589.59	28179.2
589.787	28164.86
589.984	28095.23
590.182	28099.33
590.379	28123.9
590.576	27861.76
590.773	28232.44
590.97	27646.72
591.167	28025.6
591.364	27284.23
591.561	27749.12
591.758	27429.64
591.955	27685.64
592.152	27620.1
592.349	27054.86
592.546	27210.51
592.743	27317
592.94	26520.34
593.137	27061.01
593.334	27396.87
593.531	26622.74
593.727	26581.78
593.924	26616.6
594.121	26385.18
594.318	26422.04
594.515	26061.6
594.712	26669.84
594.908	25948.96
595.105	26227.48
595.302	25834.27
595.499	26118.94
595.696	25842.46
595.892	25867.04
596.089	26100.51
596.286	25871.14
596.482	25817.89
596.679	25453.35
596.876	25703.2
597.072	25383.72
597.269	25477.93
597.466	25275.18
597.662	25262.89
597.859	25078.57
598.055	25133.87
598.252	25271.08
598.448	24795.95
598.645	24804.14
598.841	24474.42
599.038	24539.96
599.234	24656.69
599.431	24472.37
599.627	24398.65
599.824	24677.17
600.02	24337.21
600.217	24333.11
600.413	24073.02
600.609	23962.43
600.806	23937.85
601.002	24277.82
601.198	23513.92
601.395	23538.5
601.591	23837.5
601.787	23919.42
601.984	23581.51
602.18	23710.53
602.376	23567.17
602.572	23122.76
602.769	23751.49
602.965	22995.79
603.161	23489.35
603.357	23225.16
603.553	22709.07
603.75	22645.59
603.946	22721.36
604.142	22850.38
604.338	22428.5
604.534	22897.49
604.73	22432.6
604.926	22487.89
605.122	22494.04
605.318	22612.82
605.514	22299.48
605.71	22109.02
605.906	22010.71
606.102	21980
606.298	21943.13
606.494	21748.57
606.69	21998.43
606.886	21992.28
607.082	21525.35
607.278	22004.57
607.474	21515.11
607.67	21728.1
607.866	21416.8
608.062	21881.69
608.257	21433.19
608.453	21300.07
608.649	21605.22
608.845	21205.86
609.041	20845.42
609.236	21136.23
609.432	21199.72
609.628	21128.04
609.824	21287.78
610.019	21009.26
610.215	20988.78
610.411	20870
610.606	20929.39
610.802	20730.73
610.998	20792.17
611.193	20798.32
611.389	20593.52
611.584	20722.54
611.78	20667.25
611.976	20824.94
612.171	20321.14
612.367	20497.27
612.562	20437.87
612.758	20007.8
612.953	20118.39
613.149	20503.41
613.344	20028.28
613.539	20433.78
613.735	20124.54
613.93	20122.49
614.126	20030.33
614.321	20224.89
614.517	19561.34
614.712	19977.08
614.907	19909.5
615.103	20071.29
615.298	19862.4
615.493	19745.66
615.688	19481.47
615.884	19803
616.079	19508.1
616.274	19694.46
616.47	19360.64
616.665	19501.95
616.86	19231.62
617.055	19319.68
617.25	19080.07
617.445	19411.84
617.641	18930.57
617.836	19098.5
618.031	18754.44
618.226	19264.39
618.421	19139.46
618.616	19028.87
618.811	18594.7
619.006	19194.76
619.201	18365.33
619.396	18879.37
619.591	18553.74
619.786	18250.64
619.981	18336.66
620.176	18502.54
620.371	18543.5
620.566	18236.31
620.761	18293.65
620.956	18113.43
621.151	17757.08
621.346	17888.15
621.541	17523.62
621.735	17865.63
621.93	17347.49
622.125	17634.21
622.32	17177.51
622.515	17351.59
622.709	17419.17
622.904	17472.42
623.099	17337.25
623.294	17111.97
623.488	17066.92
623.683	17152.93
623.878	16464.82
624.072	16729
624.267	16696.24
624.462	16376.75
624.656	16538.54
624.851	16485.3
625.046	16268.21
625.24	16438.19
625.435	16135.09
625.629	15973.3
625.824	15999.93
626.018	15879.1
626.213	15506.37
626.407	15719.35
626.602	15696.83
626.796	15543.23
626.991	15416.26
627.185	15276.99
627.38	15029.19
627.574	14977.99
627.768	15078.34
627.963	15154.12
628.157	15170.5
628.352	14906.31
628.546	14889.93
628.74	14840.78
628.935	14666.7
629.129	14498.77
629.323	14490.57
629.517	14515.15
629.712	14216.15
629.906	14400.46
630.1	13806.55
630.294	14404.56
630.489	13906.9
630.683	13874.13
630.877	13771.74
631.071	13546.46
631.265	13915.09
631.459	13589.47
631.653	13480.92
631.848	13558.75
632.042	13372.38
632.236	13632.47
632.43	13198.31
632.624	13458.4
632.818	13255.65
633.012	13030.37
633.206	13061.09
633.4	13145.06
633.594	12770.28
633.788	13016.04
633.982	12889.06
634.176	12549.1
634.369	12641.26
634.563	12694.5
634.757	12399.6
634.951	12553.2
635.145	12514.28
635.339	12506.09
635.533	12297.2
635.726	12358.64
635.92	12065.78
636.114	12159.99
636.308	12125.17
636.501	11949.04
636.695	12100.59
636.889	11713.53
637.083	11717.62
637.276	11877.37
637.47	11729.91
637.664	11582.46
637.857	11572.22
638.051	11346.94
638.244	11432.96
638.438	11351.04
638.632	11400.19
638.825	11148.29
639.019	11146.24
639.212	11170.82
639.406	11056.13
639.599	10869.76
639.793	10908.68
639.986	10718.22
640.18	10910.72
640.373	10728.45
640.567	10632.2
640.76	10585.1
640.954	10585.1
641.147	10511.37
641.34	10671.11
641.534	10451.98
641.727	10271.76
641.92	10146.83
642.114	10255.37
642.307	10159.12
642.5	10099.73
642.694	10091.54
642.887	10157.07
643.08	9837.59
643.273	9782.29
643.467	9796.63
643.66	9591.83
643.853	9622.55
644.046	9526.3
644.239	9462.81
644.432	9651.22
644.626	9354.27
644.819	9606.17
645.012	9520.15
645.205	9401.37
645.398	9264.16
645.591	9309.21
645.784	9194.53
645.977	9069.6
646.17	9094.18
646.363	8952.87
646.556	8916
646.749	8987.68
646.942	8961.06
647.135	8842.28
647.328	8768.55
647.521	8743.97
647.714	8557.61
647.907	8707.11
648.099	8530.98
648.292	8649.77
648.485	8606.76
648.678	8272.94
648.871	8305.71
649.064	8254.51
649.256	8610.86
649.449	8436.78
649.642	8371.24
649.835	8197.17
650.027	8094.77
650.22	8047.66
650.413	8258.6
650.605	8068.14
650.798	7963.7
650.991	7863.35
651.183	7722.04
651.376	7826.48
651.568	7885.87
651.761	7717.94
651.954	7726.13
652.146	7672.89
652.339	7396.41
652.531	7502.9
652.724	7580.73
652.916	7359.55
653.109	7648.31
653.301	7470.14
653.494	7478.33
653.686	7347.26
653.879	7556.15
654.071	7279.68
654.263	7392.31
654.456	7214.14
654.648	7201.85
654.84	6980.67
655.033	7103.55
655.225	7142.46
655.417	7044.16
655.61	7134.27
655.802	7029.82
655.994	6943.81
656.186	7021.63
656.379	6972.48
656.571	6859.84
656.763	6728.77
656.955	6657.09
657.148	6831.17
657.34	6775.88
657.532	6562.89
657.724	6521.93
657.916	6571.08
658.108	6419.53
658.3	6394.95
658.492	6337.61
658.684	6235.21
658.876	6394.95
659.068	6331.47
659.26	6360.14
659.452	6444.1
659.644	6345.8
659.836	6251.6
660.028	6313.03
660.22	6136.91
660.412	6202.44
660.604	6124.62
660.796	6087.76
660.988	6077.52
661.18	5979.22
661.372	5999.7
661.563	5989.46
661.755	6128.72
661.947	5864.53
662.139	5839.95
662.331	5839.95
662.522	5669.97
662.714	5737.56
662.906	5749.84
663.097	5614.68
663.289	5557.33
663.481	5661.78
663.673	5477.46
663.864	5461.08
664.056	5508.18
664.247	5491.8
664.439	5387.35
664.631	5448.79
664.822	5626.96
665.014	5434.46
665.205	5332.06
665.397	5383.26
665.588	5379.16
665.78	5264.47
665.971	5219.42
666.163	5325.91
666.354	5196.89
666.546	5153.88
666.737	4998.24
666.929	5102.68
667.12	5071.97
667.311	5067.87
667.503	5000.29
667.694	5039.2
667.885	4828.26
668.077	5002.33
668.268	4861.02
668.459	4910.18
668.651	4758.63
668.842	5086.3
669.033	4732
669.224	4891.74
669.416	4865.12
669.607	4803.68
669.798	4785.25
669.989	4734.05
670.18	4791.39
670.371	4756.58
670.563	4680.8
670.754	4664.42
670.945	4510.82
671.136	4545.64
671.327	4633.7
671.518	4537.45
671.709	4443.24
671.9	4480.1
672.091	4650.08
672.282	4627.56
672.473	4488.29
672.664	4461.67
672.855	4453.48
673.046	4420.71
673.237	4408.42
673.428	4424.81
673.619	4400.23
673.809	4301.93
674	4402.28
674.191	4525.16
674.382	4377.7
674.573	4213.87
674.764	4324.46
674.954	4215.91
675.145	4273.26
675.336	4136.04
675.527	4201.58
675.717	4203.63
675.908	4166.76
676.099	4154.48
676.289	4209.77
676.48	4107.37
676.671	3998.83
676.861	4131.95
677.052	4062.32
677.243	4035.69
677.433	4121.71
677.624	4183.15
677.814	4041.84
678.005	4127.85
678.195	3849.33
678.386	3988.59
678.576	3927.15
678.767	3912.81
678.957	4037.74
679.148	3961.97
679.338	3898.48
679.529	3781.74
679.719	3894.38
679.909	3947.63
680.1	3939.44
680.29	3871.86
680.481	3796.08
680.671	3882.1
680.861	3751.03
681.052	3947.63
681.242	3974.25
681.432	3841.14
681.622	3804.27
681.813	3665.01
682.003	3699.83
682.193	3830.9
682.383	3722.35
682.573	3857.52
682.764	3781.74
682.954	3796.08
683.144	3679.35
683.334	3712.11
683.524	3656.82
683.714	3626.1
683.904	3535.99
684.094	3791.98
684.284	3683.44
684.474	3673.2
684.664	3622
684.854	3495.03
685.044	3654.77
685.234	3533.94
685.424	3525.75
685.614	3503.22
685.804	3587.19
685.994	3579
686.184	3572.85
686.374	3535.99
686.564	3388.53
686.753	3423.35
686.943	3437.69
687.133	3490.93
687.323	3370.1
687.513	3433.59
687.702	3507.32
687.892	3312.76
688.082	3402.87
688.272	3458.17
688.461	3230.84
688.651	3452.02
688.841	3318.9
689.03	3318.9
689.22	3251.32
689.41	3402.87
689.599	3128.44
689.789	3277.94
689.979	3232.89
690.168	3271.8
690.358	3275.9
690.547	3310.71
690.737	3157.11
690.926	3298.42
691.116	3142.78
691.305	3136.63
691.495	3150.97
691.684	3093.63
691.874	3144.83
692.063	3228.79
692.252	3257.46
692.442	3146.87
692.631	3110.01
692.82	3071.1
693.01	3105.92
693.199	3171.45
693.388	2980.99
693.578	3007.61
693.767	3173.5
693.956	3202.17
694.146	3032.19
694.335	2917.5
694.524	3062.91
694.713	2964.61
694.902	3011.71
695.092	2978.94
695.281	2991.23
695.47	2966.65
695.659	2909.31
695.848	3017.85
696.037	2929.79
696.226	2985.09
696.415	2921.6
696.604	2956.41
696.793	3015.8
696.982	3032.19
697.171	2921.6
697.36	2974.85
697.549	2927.74
697.738	3005.56
697.927	2911.36
698.116	2962.56
698.305	2968.7
698.494	2933.89
698.683	3011.71
698.872	3015.8
699.061	2933.89
699.25	2778.24
699.438	2882.69
699.627	2845.82
699.816	2847.87
700.005	2874.49
700.193	2915.45
700.382	2870.4
700.571	2937.98
700.76	2845.82
700.948	2821.25
701.137	2862.21
701.326	2854.02
701.514	2948.22
701.703	2868.35
701.892	2894.97
702.08	2860.16
702.269	2964.61
702.457	2804.86
702.646	2921.6
702.834	2946.17
703.023	2954.37
703.212	2851.97
703.4	2921.6
703.589	2776.19
703.777	2954.37
703.965	2786.43
704.154	2917.5
704.342	2876.54
704.531	2876.54
704.719	2747.52
704.907	2911.36
705.096	2894.97
705.284	2804.86
705.472	2841.73
705.661	2763.9
705.849	2804.86
706.037	2811.01
706.226	2798.72
706.414	3015.8
706.602	2772.1
706.79	2890.88
706.979	2817.15
707.167	2829.44
707.355	2856.06
707.543	2821.25
707.731	2761.86
707.919	2878.59
708.107	2829.44
708.296	2794.62
708.484	2745.47
708.672	2868.35
708.86	2989.18
709.048	2860.16
709.236	2847.87
709.424	2681.99
709.612	2817.15
709.8	2753.66
709.988	2772.1
710.176	2774.14
710.364	2755.71
710.551	2845.82
710.739	2755.71
710.927	2729.09
711.115	2716.8
711.303	2755.71
711.491	2724.99
711.679	2696.32
711.866	2815.1
712.054	2741.38
712.242	2620.55
712.43	2727.04
712.617	2741.38
712.805	2802.82
712.993	2737.28
713.181	2679.94
713.368	2679.94
713.556	2634.88
713.744	2645.12
713.931	2684.03
714.119	2714.75
714.306	2647.17
714.494	2688.13
714.682	2681.99
714.869	2602.11
715.057	2731.14
715.244	2624.64
715.432	2784.38
715.619	2671.75
715.807	2733.18
715.994	2667.65
716.182	2645.12
716.369	2638.98
716.556	2825.34
716.744	2702.47
716.931	2604.16
717.119	2673.79
717.306	2772.1
717.493	2638.98
717.681	2722.95
717.868	2688.13
718.055	2622.59
718.242	2679.94
718.43	2561.16
718.617	2620.55
718.804	2569.35
718.991	2706.56
719.179	2700.42
719.366	2727.04
719.553	2630.79
719.74	2505.86
719.927	2792.58
720.114	2696.32
720.301	2626.69
720.488	2505.86
720.676	2565.25
720.863	2622.59
721.05	2550.92
721.237	2534.53
721.424	2634.88
721.611	2536.58
721.798	2608.26
721.985	2524.29
722.172	2483.33
722.358	2559.11
722.545	2602.11
722.732	2602.11
722.919	2696.32
723.106	2526.34
723.293	2585.73
723.48	2622.59
723.667	2417.8
723.853	2458.76
724.04	2653.31
724.227	2665.6
724.414	2483.33
724.6	2475.14
724.787	2538.63
724.974	2585.73
725.161	2540.68
725.347	2497.67
725.534	2555.01
725.72	2528.39
725.907	2454.66
726.094	2522.24
726.28	2469
726.467	2460.81
726.653	2419.85
726.84	2454.66
727.027	2462.85
727.213	2413.7
727.4	2483.33
727.586	2587.78
727.773	2507.91
727.959	2491.52
728.145	2430.09
728.332	2456.71
728.518	2366.6
728.705	2438.28
728.891	2544.77
729.077	2434.18
729.264	2546.82
729.45	2485.38
729.636	2600.07
729.823	2559.11
730.009	2524.29
730.195	2425.99
730.382	2497.67
730.568	2485.38
730.754	2407.56
730.94	2473.09
731.126	2593.92
731.313	2520.2
731.499	2423.94
731.685	2432.13
731.871	2415.75
732.057	2518.15
732.243	2411.65
732.429	2458.76
732.615	2409.61
732.801	2374.79
732.987	2469
733.173	2335.88
733.359	2495.62
733.545	2364.55
733.731	2356.36
733.917	2397.32
734.103	2434.18
734.289	2409.61
734.475	2348.17
734.661	2276.49
734.847	2266.25
735.033	2409.61
735.219	2452.61
735.404	2376.84
735.59	2417.8
735.776	2313.35
735.962	2219.14
736.148	2358.41
736.333	2311.3
736.519	2364.55
736.705	2309.26
736.89	2327.69
737.076	2337.93
737.262	2372.74
737.447	2327.69
737.633	2276.49
737.819	2382.98
738.004	2284.68
738.19	2243.72
738.375	2350.21
738.561	2344.07
738.747	2165.9
738.932	2333.83
739.118	2221.19
739.303	2225.29
739.489	2206.86
739.674	2245.77
739.859	2264.2
740.045	2276.49
740.23	2217.1
740.416	2112.65
740.601	2243.72
740.786	2182.28
740.972	2184.33
741.157	2221.19
741.342	2114.7
741.528	2165.9
741.713	2184.33
741.898	2198.67
742.084	2178.19
742.269	2235.53
742.454	2049.16
742.639	2124.94
742.824	2053.26
743.01	2075.79
743.195	2090.12
743.38	2071.69
743.565	1942.67
743.75	2024.59
743.935	2034.83
744.12	2057.36
744.305	2126.99
744.49	1979.53
744.675	1961.1
744.86	2057.36
745.045	1969.29
745.23	1995.92
745.415	1979.53
745.6	1995.92
745.785	1932.43
745.97	1995.92
746.155	1969.29
746.34	1997.96
746.525	1899.66
746.71	1957
746.895	1932.43
747.079	1879.18
747.264	1916.05
747.449	1897.61
747.634	1948.81
747.819	1770.64
748.003	1784.98
748.188	1832.08
748.373	1789.07
748.557	1787.02
748.742	1860.75
748.927	1750.16
749.111	1746.06
749.296	1805.46
749.481	1801.36
749.665	1787.02
749.85	1645.71
750.034	1707.15
750.219	1754.26
750.404	1744.02
750.588	1643.67
750.773	1598.61
750.957	1533.08
751.141	1582.23
751.326	1649.81
751.51	1701.01
751.695	1625.23
751.879	1586.32
752.064	1717.39
752.248	1565.84
752.432	1606.8
752.617	1541.27
752.801	1645.71
752.985	1576.08
753.17	1551.51
753.354	1535.12
753.538	1555.6
753.722	1551.51
753.907	1483.92
754.091	1526.93
754.275	1541.27
754.459	1498.26
754.643	1481.88
754.828	1459.35
755.012	1395.86
755.196	1533.08
755.38	1543.32
755.564	1408.15
755.748	1375.38
755.932	1475.73
756.116	1453.2
756.3	1287.32
756.484	1369.24
756.668	1361.05
756.852	1311.89
757.036	1432.72
757.22	1336.47
757.404	1354.9
757.588	1365.14
757.772	1291.41
757.956	1315.99
758.14	1387.67
758.323	1236.12
758.507	1315.99
758.691	1356.95
758.875	1297.56
759.059	1301.65
759.242	1293.46
759.426	1311.89
759.61	1195.16
759.794	1189.02
759.977	1203.35
760.161	1217.69
760.345	1193.11
760.528	1223.83
760.712	1223.83
760.895	1170.58
761.079	1176.73
761.263	1143.96
761.446	1199.26
761.63	1166.49
761.813	1197.21
761.997	1131.67
762.18	1184.92
762.364	1199.26
762.547	1143.96
762.731	1076.38
762.914	1098.91
763.098	1152.15
763.281	1189.02
763.464	1166.49
763.648	1057.95
763.831	1131.67
764.015	1107.1
764.198	1082.52
764.381	1154.2
764.564	1203.35
764.748	1086.62
764.931	1148.06
765.114	990.36
765.297	1068.19
765.481	1012.89
765.664	1090.71
765.847	1041.56
766.03	1078.43
766.213	1053.85
766.397	1086.62
766.58	1010.84
766.763	1012.89
766.946	959.64
767.129	990.36
767.312	986.27
767.495	865.44
767.678	1021.08
767.861	1004.7
768.044	957.6
768.227	1016.99
768.41	976.03
768.593	988.32
768.776	1021.08
768.959	930.97
769.142	1033.37
769.324	953.5
769.507	969.88
769.69	1016.99
769.873	943.26
770.056	990.36
770.239	939.16
770.421	947.36
770.604	920.73
770.787	920.73
770.97	904.35
771.152	949.4
771.335	838.81
771.518	881.82
771.7	969.88
771.883	914.59
772.066	898.2
772.248	869.53
772.431	828.57
772.613	910.49
772.796	754.85
772.978	894.11
773.161	951.45
773.343	769.18
773.526	806.05
773.708	844.96
773.891	881.82
774.073	896.16
774.256	873.63
774.438	898.2
774.621	830.62
774.803	863.39
774.985	820.38
775.168	804
775.35	812.19
775.532	773.28
775.715	840.86
775.897	810.14
776.079	697.5
776.261	826.53
776.444	726.18
776.626	758.94
776.808	658.59
776.99	775.33
777.173	750.75
777.355	801.95
777.537	681.12
777.719	769.18
777.901	746.66
778.083	808.09
778.265	703.65
778.447	674.98
778.629	748.7
778.811	707.74
778.993	681.12
779.175	689.31
779.357	703.65
779.539	664.74
779.721	701.6
779.903	697.5
780.085	648.35
780.267	709.79
780.449	619.68
780.631	623.78
780.812	533.67
780.994	615.59
781.176	578.72
781.358	572.58
781.54	613.54
781.721	666.78
781.903	586.91
782.085	609.44
782.267	636.06
782.448	488.61
782.63	582.82
782.812	580.77
782.993	582.82
783.175	588.96
783.357	601.25
783.538	656.54
783.72	445.6
783.901	500.9
784.083	525.47
784.264	486.56
784.446	531.62
784.627	595.11
784.809	533.67
784.99	560.29
785.172	541.86
785.353	576.67
785.535	447.65
785.716	494.76
785.897	521.38
786.079	566.43
786.26	529.57
786.441	474.28
786.623	527.52
786.804	431.27
786.985	525.47
787.167	513.19
787.348	404.64
787.529	488.61
787.71	539.81
787.891	525.47
788.073	443.56
788.254	396.45
788.435	453.8
788.616	464.04
788.797	472.23
788.978	474.28
789.159	384.16
789.34	400.55
789.522	414.88
789.703	418.98
789.884	410.79
790.065	414.88
790.246	459.94
790.427	394.4
790.607	492.71
790.788	472.23
790.969	439.46
791.15	412.84
791.331	367.78
791.512	386.21
791.693	337.06
791.874	390.31
792.054	414.88
792.235	480.42
792.416	304.29
792.597	427.17
792.778	314.53
792.958	359.59
793.139	375.97
793.32	347.3
793.5	365.73
793.681	322.73
793.862	341.16
794.042	386.21
794.223	353.45
794.404	357.54
794.584	388.26
794.765	306.34
794.945	281.77
795.126	281.77
795.306	373.92
795.487	361.64
795.667	285.86
795.848	359.59
796.028	302.25
796.209	324.77
796.389	361.64
796.57	339.11
796.75	341.16
796.93	382.12
797.111	300.2
797.291	302.25
797.471	306.34
797.652	375.97
797.832	294.05
798.012	355.49
798.192	310.44
798.373	242.85
798.553	275.62
798.733	382.12
798.913	308.39
799.093	275.62
799.274	261.29
799.454	265.38
799.634	226.47
799.814	289.96
799.994	341.16
800.174	318.63
800.354	279.72
800.534	244.9
800.714	304.29
800.894	255.14
801.074	253.09
801.254	210.09
801.434	339.11
801.614	330.92
801.794	263.33
801.974	588.96
802.154	261.29
802.334	296.1
802.514	302.25
802.693	287.91
802.873	263.33
803.053	279.72
803.233	300.2
803.413	230.57
803.592	232.62
803.772	193.7
803.952	218.28
804.131	195.75
804.311	267.43
804.491	216.23
804.67	249
804.85	234.66
805.03	253.09
805.209	318.63
805.389	273.57
805.568	216.23
805.748	269.48
805.928	191.66
806.107	234.66
806.287	173.22
806.466	195.75
806.646	189.61
806.825	287.91
807.004	160.94
807.184	220.33
807.363	300.2
807.543	169.13
807.722	296.1
807.901	212.14
808.081	199.85
808.26	195.75
808.439	210.09
808.619	300.2
808.798	249
808.977	212.14
809.156	281.77
809.336	218.28
809.515	187.56
809.694	107.69
809.873	185.51
810.052	240.81
810.231	158.89
810.411	203.94
810.59	253.09
810.769	214.18
810.948	251.05
811.127	105.64
811.306	238.76
811.485	138.41
811.664	226.47
811.843	158.89
812.022	246.95
812.201	246.95
812.38	173.22
812.559	175.27
812.737	113.83
812.916	160.94
813.095	150.7
813.274	85.16
813.453	205.99
813.632	148.65
813.811	232.62
813.989	115.88
814.168	97.45
814.347	181.42
814.526	216.23
814.704	287.91
814.883	257.19
815.062	189.61
815.24	210.09
815.419	169.13
815.598	185.51
815.776	81.07
815.955	76.97
816.133	177.32
816.312	165.03
816.49	165.03
816.669	193.7
816.847	89.26
817.026	230.57
817.204	201.9
817.383	173.22
817.561	205.99
817.74	216.23
817.918	195.75
818.097	128.17
818.275	117.93
818.453	173.22
818.632	220.33
818.81	97.45
818.988	95.4
819.167	113.83
819.345	205.99
819.523	189.61
819.701	193.7
819.879	220.33
820.058	169.13
820.236	122.02
820.414	197.8
820.592	169.13
820.77	191.66
820.948	103.59
821.127	111.78
821.305	144.55
821.483	144.55
821.661	154.79
821.839	146.6
822.017	134.31
822.195	91.31
822.373	138.41
822.551	91.31
822.729	203.94
822.907	109.74
823.085	171.18
823.262	111.78
823.44	56.49
823.618	126.12
823.796	128.17
823.974	91.31
824.152	117.93
824.329	81.07
824.507	152.74
824.685	99.5
824.863	167.08
825.04	119.98
825.218	187.56
825.396	160.94
825.574	79.02
825.751	54.44
825.929	126.12
826.107	105.64
826.284	72.87
826.462	154.79
826.639	160.94
826.817	68.78
826.994	126.12
827.172	134.31
827.349	165.03
827.527	128.17
827.704	115.88
827.882	144.55
828.059	154.79
828.237	134.31
828.414	126.12
828.591	136.36
828.769	177.32
828.946	167.08
829.124	115.88
829.301	122.02
829.478	132.26
829.655	105.64
829.833	119.98
830.01	50.35
830.187	144.55
830.364	89.26
830.542	134.31
830.719	142.5
830.896	95.4
831.073	62.63
831.25	74.92
831.427	152.74
831.604	113.83
831.782	83.11
831.959	85.16
832.136	105.64
832.313	109.74
832.49	76.97
832.667	89.26
832.844	79.02
833.021	132.26
833.198	89.26
833.374	197.8
833.551	115.88
833.728	152.74
833.905	113.83
834.082	95.4
834.259	136.36
834.436	154.79
834.612	136.36
834.789	173.22
834.966	91.31
835.143	173.22
835.319	54.44
835.496	89.26
835.673	140.46
835.85	162.98
836.026	9.39
836.203	103.59
836.38	23.72
836.556	117.93
836.733	95.4
836.909	107.69
837.086	97.45
837.262	11.43
837.439	74.92
837.616	29.87
837.792	50.35
837.968	64.68
838.145	38.06
838.321	111.78
838.498	111.78
838.674	152.74
838.851	87.21
839.027	46.25
839.203	60.59
839.38	81.07
839.556	64.68
839.732	140.46
839.909	58.54
840.085	214.18
840.261	117.93
840.437	58.54
840.614	97.45
840.79	140.46
840.966	113.83
841.142	66.73
841.318	81.07
841.494	122.02
841.671	136.36
841.847	38.06
842.023	-43.86
842.199	56.49
842.375	87.21
842.551	68.78
842.727	148.65
842.903	27.82
843.079	40.11
843.255	93.35
843.431	17.58
843.607	142.5
843.783	17.58
843.959	95.4
844.134	146.6
844.31	40.11
844.486	126.12
844.662	40.11
844.838	62.63
845.013	99.5
845.189	160.94
845.365	40.11
845.541	17.58
845.716	136.36
845.892	29.87
846.068	126.12
846.244	27.82
846.419	31.91
846.595	21.67
846.77	52.39
846.946	33.96
847.122	7.34
847.297	83.11
847.473	99.5
847.648	52.39
847.824	81.07
847.999	85.16
848.175	58.54
848.35	56.49
848.526	36.01
848.701	99.5
848.876	74.92
849.052	150.7
849.227	99.5
849.403	-4.95
849.578	40.11
849.753	107.69
849.929	97.45
850.104	36.01
850.279	58.54
850.454	48.3
850.63	27.82
850.805	23.72
850.98	91.31
851.155	122.02
851.33	187.56
851.505	11.43
851.681	99.5
851.856	19.63
852.031	134.31
852.206	83.11
852.381	83.11
852.556	60.59
852.731	109.74
852.906	50.35
853.081	87.21
853.256	64.68
853.431	33.96
853.606	91.31
853.781	83.11
853.956	44.2
854.131	42.15
854.305	66.73
854.48	-43.86
854.655	42.15
854.83	27.82
855.005	21.67
855.18	58.54
855.354	66.73
855.529	138.41
855.704	-11.09
855.879	40.11
856.053	89.26
856.228	33.96
856.403	56.49
856.577	11.43
856.752	27.82
856.926	-0.85
857.101	117.93
857.276	50.35
857.45	-4.95
857.625	46.25
857.799	33.96
857.974	11.43
858.148	-2.9
858.323	40.11
858.497	89.26
858.672	74.92
858.846	74.92
859.02	79.02
859.195	58.54
859.369	81.07
859.543	19.63
859.718	87.21
859.892	33.96
860.066	91.31
860.241	48.3
860.415	56.49
860.589	54.44
860.763	83.11
860.938	29.87
861.112	81.07
861.286	85.16
861.46	117.93
861.634	46.25
861.808	70.83
861.982	33.96
862.157	60.59
862.331	48.3
862.505	-43.86
862.679	-56.15
862.853	93.35
863.027	50.35
863.201	158.89
863.375	83.11
863.549	48.3
863.722	21.67
863.896	42.15
864.07	79.02
864.244	33.96
864.418	-9.05
864.592	60.59
864.766	64.68
864.939	54.44
865.113	21.67
865.287	17.58
865.461	31.91
865.634	79.02
865.808	25.77
865.982	83.11
866.156	1.19
866.329	1.19
866.503	109.74
866.676	138.41
866.85	152.74
867.024	-13.14
867.197	46.25
867.371	9.39
867.544	7.34
867.718	36.01
867.891	68.78
868.065	13.48
868.238	81.07
868.412	5.29
868.585	-45.91
868.759	103.59
868.932	44.2
869.105	40.11
869.279	1.19
869.452	5.29
869.625	29.87
869.799	42.15
869.972	29.87
870.145	-0.85
870.319	79.02
870.492	52.39
870.665	46.25
870.838	70.83
871.011	-41.81
871.185	87.21
871.358	91.31
871.531	101.55
871.704	29.87
871.877	25.77
872.05	58.54
872.223	52.39
872.396	42.15
872.569	50.35
872.742	44.2
872.915	62.63
873.088	-37.72
873.261	74.92
873.434	31.91
873.607	-9.05
873.78	9.39
873.953	50.35
874.126	-21.33
874.299	76.97
874.471	31.91
874.644	103.59
874.817	17.58
874.99	-4.95
875.163	-19.29
875.335	89.26
875.508	54.44
875.681	101.55
875.853	54.44
876.026	19.63
876.199	64.68
876.371	117.93
876.544	9.39
876.717	21.67
876.889	62.63
877.062	62.63
877.234	-23.38
877.407	-9.05
877.579	66.73
877.752	48.3
877.924	1.19
878.097	19.63
878.269	7.34
878.442	117.93
878.614	48.3
878.786	-2.9
878.959	9.39
879.131	62.63
879.303	-4.95
879.476	3.24
879.648	97.45
879.82	50.35
879.993	19.63
880.165	72.87
880.337	3.24
880.509	52.39
880.681	-23.38
880.854	-9.05
881.026	42.15
881.198	66.73
881.37	66.73
881.542	29.87
881.714	105.64
881.886	23.72
882.058	9.39
882.23	68.78
882.402	58.54
882.574	56.49
882.746	27.82
882.918	46.25
883.09	74.92
883.262	74.92
883.434	-11.09
883.606	-29.52
883.778	3.24
883.95	93.35
884.122	62.63
884.293	27.82
884.465	-27.48
884.637	79.02
884.809	36.01
884.98	33.96
885.152	23.72
885.324	56.49
885.496	-2.9
885.667	50.35
885.839	60.59
886.011	72.87
886.182	56.49
886.354	93.35
886.525	44.2
886.697	70.83
886.869	68.78
887.04	15.53
887.212	9.39
887.383	15.53
887.555	-45.91
887.726	7.34
887.897	13.48
888.069	83.11
888.24	-17.24
888.412	33.96
888.583	11.43
888.754	83.11
888.926	-21.33
889.097	56.49
889.268	42.15
889.44	-37.72
889.611	7.34
889.782	-11.09
889.953	5.29
890.125	66.73
890.296	-13.14
890.467	-25.43
890.638	122.02
890.809	11.43
890.98	91.31
891.151	25.77
891.323	21.67
891.494	-2.9
891.665	-39.76
891.836	-27.48
892.007	74.92
892.178	-23.38
892.349	13.48
892.52	9.39
892.691	-4.95
892.862	1.19
893.032	50.35
893.203	21.67
893.374	29.87
893.545	25.77
893.716	50.35
893.887	40.11
894.057	5.29
894.228	85.16
894.399	9.39
894.57	46.25
894.74	13.48
894.911	17.58
895.082	-37.72
895.253	5.29
895.423	-39.76
895.594	62.63
895.764	60.59
895.935	-11.09
896.106	48.3
896.276	74.92
896.447	81.07
896.617	130.22
896.788	68.78
896.958	79.02
897.129	23.72
897.299	56.49
897.47	9.39
897.64	36.01
897.81	-11.09
897.981	33.96
898.151	25.77
898.322	81.07
898.492	17.58
898.662	23.72
898.832	-58.2
899.003	29.87
899.173	79.02
899.343	-7
899.513	-15.19
