Data from USB4F104151__101__11-07-06-482.txt Node

Date: Wed Mar 12 11:07:06 EDT 2025
User: louis
Spectrometer: USB4F10415
Trigger mode: 4
Integration Time (sec): 2.000000E-2
Scans to average: 1
Electric dark correction enabled: true
Nonlinearity correction enabled: false
Boxcar width: 0
XAxis mode: Wavelengths
Number of Pixels in Spectrum: 3648
>>>>>Begin Spectral Data<<<<<
178.204	-117.08
178.424	-117.08
178.644	-117.08
178.864	-65.88
179.084	-102.74
179.304	-24.92
179.524	22.19
179.744	42.67
179.964	52.91
180.184	-4.44
180.404	-29.01
180.624	5.8
180.844	-8.53
181.064	-16.73
181.283	-24.92
181.503	-18.77
181.723	3.75
181.943	9.9
182.163	16.04
182.383	-0.34
182.602	93.87
182.822	-8.53
183.042	42.67
183.262	-12.63
183.482	-18.77
183.701	83.63
183.921	-49.49
184.141	36.52
184.361	9.9
184.58	1.71
184.8	5.8
185.02	24.23
185.239	75.43
185.459	24.23
185.679	13.99
185.898	48.81
186.118	-4.44
186.338	7.85
186.557	9.9
186.777	65.19
186.997	-6.49
187.216	-29.01
187.436	46.76
187.655	-14.68
187.875	81.58
188.095	54.95
188.314	18.09
188.534	18.09
188.753	-0.34
188.973	54.95
189.192	-4.44
189.412	42.67
189.631	-22.87
189.851	-55.64
190.07	44.71
190.29	59.05
190.509	-31.06
190.729	20.14
190.948	-18.77
191.168	38.57
191.387	20.14
191.607	36.52
191.826	-0.34
192.045	-12.63
192.265	40.62
192.484	73.39
192.704	26.28
192.923	-65.88
193.142	93.87
193.362	-10.58
193.581	11.95
193.8	5.8
194.02	-0.34
194.239	-24.92
194.458	-4.44
194.678	9.9
194.897	9.9
195.116	71.34
195.335	11.95
195.555	30.38
195.774	97.96
195.993	-0.34
196.212	-26.96
196.432	-37.2
196.651	30.38
196.87	-35.16
197.089	36.52
197.308	-16.73
197.528	-0.34
197.747	79.53
197.966	-10.58
198.185	-41.3
198.404	32.43
198.623	-8.53
198.842	11.95
199.062	7.85
199.281	42.67
199.5	-45.4
199.719	5.8
199.938	73.39
200.157	-2.39
200.376	-35.16
200.595	61.1
200.814	-4.44
201.033	-22.87
201.252	26.28
201.471	16.04
201.69	-16.73
201.909	30.38
202.128	-12.63
202.347	24.23
202.566	7.85
202.785	-4.44
203.004	-84.31
203.223	91.82
203.442	52.91
203.661	38.57
203.879	20.14
204.098	42.67
204.317	30.38
204.536	77.48
204.755	61.1
204.974	26.28
205.193	5.8
205.411	20.14
205.63	-18.77
205.849	36.52
206.068	5.8
206.287	18.09
206.505	1.71
206.724	34.47
206.943	-20.82
207.162	50.86
207.381	44.71
207.599	69.29
207.818	61.1
208.037	-6.49
208.255	-12.63
208.474	30.38
208.693	18.09
208.911	1.71
209.13	59.05
209.349	20.14
209.567	32.43
209.786	-22.87
210.005	61.1
210.223	77.48
210.442	20.14
210.661	36.52
210.879	48.81
211.098	77.48
211.316	50.86
211.535	-22.87
211.753	20.14
211.972	-41.3
212.191	11.95
212.409	-12.63
212.628	57
212.846	-2.39
213.065	40.62
213.283	-12.63
213.502	46.76
213.72	81.58
213.938	26.28
214.157	-41.3
214.375	48.81
214.594	-12.63
214.812	-0.34
215.031	-8.53
215.249	30.38
215.467	22.19
215.686	7.85
215.904	-4.44
216.122	-31.06
216.341	3.75
216.559	20.14
216.778	116.39
216.996	36.52
217.214	7.85
217.432	-53.59
217.651	-0.34
217.869	-8.53
218.087	24.23
218.306	44.71
218.524	-45.4
218.742	-14.68
218.96	79.53
219.179	-57.68
219.397	-41.3
219.615	61.1
219.833	48.81
220.051	-22.87
220.27	40.62
220.488	13.99
220.706	28.33
220.924	22.19
221.142	-6.49
221.36	-22.87
221.578	48.81
221.796	48.81
222.015	-22.87
222.233	3.75
222.451	83.63
222.669	16.04
222.887	100.01
223.105	-37.2
223.323	3.75
223.541	36.52
223.759	52.91
223.977	5.8
224.195	69.29
224.413	24.23
224.631	24.23
224.849	-12.63
225.067	89.77
225.285	32.43
225.503	-16.73
225.721	-16.73
225.939	-41.3
226.157	38.57
226.375	102.06
226.592	-37.2
226.81	20.14
227.028	52.91
227.246	-0.34
227.464	13.99
227.682	81.58
227.9	34.47
228.117	-67.92
228.335	126.63
228.553	104.11
228.771	-43.35
228.989	22.19
229.206	1.71
229.424	-20.82
229.642	-0.34
229.86	-69.97
230.077	-26.96
230.295	13.99
230.513	28.33
230.731	81.58
230.948	77.48
231.166	13.99
231.384	1.71
231.601	46.76
231.819	-33.11
232.037	-0.34
232.254	-4.44
232.472	32.43
232.689	-33.11
232.907	20.14
233.125	73.39
233.342	104.11
233.56	40.62
233.777	61.1
233.995	52.91
234.213	67.24
234.43	44.71
234.648	54.95
234.865	48.81
235.083	34.47
235.3	-41.3
235.518	-92.5
235.735	24.23
235.953	52.91
236.17	-16.73
236.388	13.99
236.605	-39.25
236.822	-31.06
237.04	36.52
237.257	34.47
237.475	-35.16
237.692	-26.96
237.909	26.28
238.127	16.04
238.344	-35.16
238.562	-59.73
238.779	-88.4
238.996	34.47
239.214	-16.73
239.431	32.43
239.648	-14.68
239.865	48.81
240.083	34.47
240.3	-29.01
240.517	-37.2
240.735	3.75
240.952	44.71
241.169	83.63
241.386	-22.87
241.603	44.71
241.821	-22.87
242.038	52.91
242.255	34.47
242.472	-69.97
242.689	-12.63
242.907	69.29
243.124	-35.16
243.341	79.53
243.558	22.19
243.775	-33.11
243.992	-0.34
244.209	46.76
244.426	18.09
244.643	3.75
244.86	7.85
245.078	73.39
245.295	20.14
245.512	57
245.729	-8.53
245.946	7.85
246.163	30.38
246.38	-18.77
246.597	-49.49
246.814	-14.68
247.031	42.67
247.248	61.1
247.464	36.52
247.681	57
247.898	52.91
248.115	67.24
248.332	-51.54
248.549	106.15
248.766	24.23
248.983	26.28
249.2	16.04
249.417	102.06
249.633	-20.82
249.85	13.99
250.067	1.71
250.284	-45.4
250.501	-10.58
250.717	-10.58
250.934	-53.59
251.151	-57.68
251.368	57
251.585	24.23
251.801	87.72
252.018	-69.97
252.235	5.8
252.451	-22.87
252.668	22.19
252.885	9.9
253.102	57
253.318	81.58
253.535	-24.92
253.752	-10.58
253.968	34.47
254.185	-29.01
254.401	38.57
254.618	7.85
254.835	-4.44
255.051	48.81
255.268	3.75
255.484	46.76
255.701	44.71
255.917	79.53
256.134	34.47
256.351	46.76
256.567	48.81
256.784	9.9
257	87.72
257.217	67.24
257.433	50.86
257.65	-49.49
257.866	52.91
258.082	3.75
258.299	24.23
258.515	-8.53
258.732	63.15
258.948	42.67
259.165	-47.44
259.381	44.71
259.597	32.43
259.814	11.95
260.03	11.95
260.246	67.24
260.463	34.47
260.679	73.39
260.895	-12.63
261.112	52.91
261.328	16.04
261.544	38.57
261.761	16.04
261.977	-26.96
262.193	-18.77
262.409	42.67
262.626	40.62
262.842	36.52
263.058	-41.3
263.274	-16.73
263.49	-45.4
263.707	59.05
263.923	30.38
264.139	52.91
264.355	-0.34
264.571	81.58
264.787	36.52
265.004	59.05
265.22	-31.06
265.436	7.85
265.652	7.85
265.868	-4.44
266.084	-31.06
266.3	69.29
266.516	-18.77
266.732	-10.58
266.948	-33.11
267.164	-98.64
267.38	57
267.596	30.38
267.812	114.34
268.028	54.95
268.244	-8.53
268.46	65.19
268.676	-49.49
268.892	24.23
269.108	-16.73
269.324	40.62
269.54	36.52
269.756	13.99
269.972	36.52
270.188	-29.01
270.403	1.71
270.619	52.91
270.835	-4.44
271.051	87.72
271.267	3.75
271.483	28.33
271.698	20.14
271.914	3.75
272.13	61.1
272.346	81.58
272.562	20.14
272.777	24.23
272.993	26.28
273.209	-16.73
273.425	36.52
273.64	20.14
273.856	13.99
274.072	61.1
274.287	-16.73
274.503	-29.01
274.719	71.34
274.934	-18.77
275.15	24.23
275.366	83.63
275.581	-0.34
275.797	22.19
276.012	-41.3
276.228	50.86
276.444	20.14
276.659	24.23
276.875	13.99
277.09	-4.44
277.306	65.19
277.521	-2.39
277.737	30.38
277.952	-10.58
278.168	-8.53
278.383	73.39
278.599	32.43
278.814	-12.63
279.03	-47.44
279.245	30.38
279.461	-59.73
279.676	34.47
279.892	36.52
280.107	-10.58
280.322	-14.68
280.538	40.62
280.753	57
280.969	69.29
281.184	26.28
281.399	38.57
281.615	46.76
281.83	-24.92
282.045	-18.77
282.26	87.72
282.476	34.47
282.691	69.29
282.906	-29.01
283.122	-43.35
283.337	-45.4
283.552	77.48
283.767	-8.53
283.983	46.76
284.198	7.85
284.413	83.63
284.628	-12.63
284.843	-4.44
285.058	65.19
285.274	-12.63
285.489	3.75
285.704	38.57
285.919	-12.63
286.134	73.39
286.349	3.75
286.564	75.43
286.779	52.91
286.995	26.28
287.21	-31.06
287.425	-16.73
287.64	5.8
287.855	7.85
288.07	-18.77
288.285	-43.35
288.5	11.95
288.715	57
288.93	-47.44
289.145	-16.73
289.36	-16.73
289.575	32.43
289.79	44.71
290.004	44.71
290.219	81.58
290.434	5.8
290.649	57
290.864	83.63
291.079	18.09
291.294	-37.2
291.509	110.25
291.724	-55.64
291.938	81.58
292.153	-20.82
292.368	9.9
292.583	28.33
292.798	9.9
293.012	75.43
293.227	-2.39
293.442	18.09
293.657	24.23
293.871	46.76
294.086	30.38
294.301	65.19
294.516	-43.35
294.73	30.38
294.945	7.85
295.16	-0.34
295.374	11.95
295.589	-16.73
295.804	46.76
296.018	11.95
296.233	-14.68
296.447	-43.35
296.662	20.14
296.877	59.05
297.091	32.43
297.306	7.85
297.52	-8.53
297.735	-35.16
297.949	9.9
298.164	52.91
298.378	83.63
298.593	-35.16
298.807	-6.49
299.022	42.67
299.236	18.09
299.451	-63.83
299.665	-26.96
299.88	-6.49
300.094	40.62
300.309	-12.63
300.523	52.91
300.737	28.33
300.952	3.75
301.166	30.38
301.381	63.15
301.595	26.28
301.809	-24.92
302.024	-18.77
302.238	-35.16
302.452	22.19
302.667	-4.44
302.881	-6.49
303.095	36.52
303.309	57
303.524	5.8
303.738	83.63
303.952	-45.4
304.166	59.05
304.381	28.33
304.595	44.71
304.809	61.1
305.023	-14.68
305.237	32.43
305.452	40.62
305.666	46.76
305.88	79.53
306.094	16.04
306.308	-24.92
306.522	30.38
306.736	-4.44
306.95	40.62
307.164	3.75
307.379	36.52
307.593	34.47
307.807	3.75
308.021	-26.96
308.235	5.8
308.449	75.43
308.663	11.95
308.877	3.75
309.091	46.76
309.305	36.52
309.519	-26.96
309.733	-31.06
309.947	-14.68
310.161	71.34
310.374	59.05
310.588	5.8
310.802	67.24
311.016	40.62
311.23	57
311.444	-29.01
311.658	42.67
311.872	65.19
312.085	20.14
312.299	9.9
312.513	22.19
312.727	22.19
312.941	1.71
313.154	9.9
313.368	46.76
313.582	34.47
313.796	-29.01
314.009	61.1
314.223	7.85
314.437	26.28
314.651	32.43
314.864	5.8
315.078	83.63
315.292	-16.73
315.505	24.23
315.719	36.52
315.933	52.91
316.146	59.05
316.36	28.33
316.573	22.19
316.787	57
317.001	28.33
317.214	1.71
317.428	-31.06
317.641	-18.77
317.855	-39.25
318.068	100.01
318.282	36.52
318.495	40.62
318.709	7.85
318.922	-49.49
319.136	-12.63
319.349	34.47
319.563	3.75
319.776	73.39
319.99	-0.34
320.203	38.57
320.417	54.95
320.63	11.95
320.843	5.8
321.057	81.58
321.27	38.57
321.483	16.04
321.697	61.1
321.91	-16.73
322.124	30.38
322.337	-12.63
322.55	118.44
322.763	20.14
322.977	42.67
323.19	16.04
323.403	24.23
323.617	85.67
323.83	34.47
324.043	52.91
324.256	13.99
324.469	1.71
324.683	24.23
324.896	36.52
325.109	30.38
325.322	13.99
325.535	69.29
325.748	5.8
325.962	-24.92
326.175	-8.53
326.388	46.76
326.601	-12.63
326.814	-82.26
327.027	-20.82
327.24	97.96
327.453	40.62
327.666	20.14
327.879	42.67
328.092	26.28
328.305	57
328.518	11.95
328.731	-26.96
328.944	-10.58
329.157	36.52
329.37	3.75
329.583	63.15
329.796	-16.73
330.009	5.8
330.222	13.99
330.435	16.04
330.648	91.82
330.861	42.67
331.073	20.14
331.286	61.1
331.499	-39.25
331.712	30.38
331.925	20.14
332.138	-0.34
332.35	20.14
332.563	20.14
332.776	-16.73
332.989	40.62
333.202	65.19
333.414	11.95
333.627	46.76
333.84	-33.11
334.053	20.14
334.265	-10.58
334.478	57
334.691	38.57
334.903	36.52
335.116	48.81
335.329	-72.02
335.541	-16.73
335.754	32.43
335.966	24.23
336.179	-41.3
336.392	38.57
336.604	-14.68
336.817	9.9
337.029	36.52
337.242	52.91
337.454	9.9
337.667	-31.06
337.88	85.67
338.092	26.28
338.305	30.38
338.517	-16.73
338.729	-24.92
338.942	40.62
339.154	-16.73
339.367	85.67
339.579	79.53
339.792	-14.68
340.004	-14.68
340.217	57
340.429	73.39
340.641	-24.92
340.854	5.8
341.066	61.1
341.278	48.81
341.491	81.58
341.703	-2.39
341.915	57
342.128	36.52
342.34	24.23
342.552	28.33
342.764	3.75
342.977	26.28
343.189	30.38
343.401	-16.73
343.613	11.95
343.826	24.23
344.038	-16.73
344.25	42.67
344.462	13.99
344.674	40.62
344.886	7.85
345.099	54.95
345.311	50.86
345.523	85.67
345.735	65.19
345.947	-8.53
346.159	38.57
346.371	42.67
346.583	42.67
346.795	46.76
347.007	42.67
347.219	50.86
347.431	85.67
347.643	20.14
347.855	-26.96
348.067	1.71
348.279	-12.63
348.491	42.67
348.703	69.29
348.915	52.91
349.127	85.67
349.339	-24.92
349.551	-8.53
349.763	40.62
349.975	-67.92
350.187	-16.73
350.399	28.33
350.61	87.72
350.822	36.52
351.034	38.57
351.246	106.15
351.458	54.95
351.669	16.04
351.881	22.19
352.093	24.23
352.305	-6.49
352.517	7.85
352.728	20.14
352.94	91.82
353.152	20.14
353.363	-51.54
353.575	46.76
353.787	-6.49
353.999	75.43
354.21	40.62
354.422	52.91
354.633	9.9
354.845	138.92
355.057	-6.49
355.268	65.19
355.48	1.71
355.692	-22.87
355.903	1.71
356.115	52.91
356.326	16.04
356.538	85.67
356.749	108.2
356.961	143.02
357.172	-14.68
357.384	20.14
357.595	32.43
357.807	38.57
358.018	18.09
358.23	32.43
358.441	91.82
358.653	46.76
358.864	48.81
359.075	-37.2
359.287	38.57
359.498	-49.49
359.709	95.91
359.921	73.39
360.132	-61.78
360.344	46.76
360.555	61.1
360.766	61.1
360.977	18.09
361.189	59.05
361.4	9.9
361.611	32.43
361.823	54.95
362.034	54.95
362.245	7.85
362.456	13.99
362.667	63.15
362.879	13.99
363.09	26.28
363.301	20.14
363.512	44.71
363.723	46.76
363.935	24.23
364.146	79.53
364.357	9.9
364.568	30.38
364.779	30.38
364.99	65.19
365.201	48.81
365.412	71.34
365.623	67.24
365.834	22.19
366.045	52.91
366.256	9.9
366.467	114.34
366.678	-16.73
366.889	30.38
367.1	-2.39
367.311	16.04
367.522	26.28
367.733	-8.53
367.944	20.14
368.155	30.38
368.366	18.09
368.577	69.29
368.788	28.33
368.999	52.91
369.209	48.81
369.42	69.29
369.631	16.04
369.842	57
370.053	26.28
370.264	-29.01
370.474	91.82
370.685	28.33
370.896	20.14
371.107	95.91
371.317	75.43
371.528	34.47
371.739	57
371.95	63.15
372.16	9.9
372.371	-18.77
372.582	7.85
372.792	106.15
373.003	63.15
373.214	11.95
373.424	79.53
373.635	7.85
373.846	48.81
374.056	126.63
374.267	44.71
374.477	-8.53
374.688	57
374.898	61.1
375.109	36.52
375.319	89.77
375.53	22.19
375.74	40.62
375.951	48.81
376.161	77.48
376.372	52.91
376.582	-0.34
376.793	69.29
377.003	77.48
377.214	73.39
377.424	5.8
377.635	36.52
377.845	36.52
378.055	110.25
378.266	-29.01
378.476	-12.63
378.686	20.14
378.897	-6.49
379.107	87.72
379.317	71.34
379.528	-8.53
379.738	7.85
379.948	30.38
380.158	124.58
380.369	40.62
380.579	-33.11
380.789	-6.49
380.999	44.71
381.21	126.63
381.42	67.24
381.63	-6.49
381.84	71.34
382.05	20.14
382.261	40.62
382.471	22.19
382.681	18.09
382.891	22.19
383.101	71.34
383.311	32.43
383.521	-2.39
383.731	36.52
383.941	-14.68
384.151	22.19
384.361	24.23
384.571	97.96
384.781	40.62
384.991	16.04
385.201	79.53
385.411	-8.53
385.621	61.1
385.831	7.85
386.041	89.77
386.251	-16.73
386.461	124.58
386.671	67.24
386.881	34.47
387.091	-51.54
387.301	54.95
387.511	124.58
387.72	65.19
387.93	71.34
388.14	36.52
388.35	57
388.56	26.28
388.769	57
388.979	48.81
389.189	22.19
389.399	11.95
389.609	9.9
389.818	28.33
390.028	71.34
390.238	59.05
390.447	40.62
390.657	30.38
390.867	36.52
391.076	16.04
391.286	54.95
391.496	102.06
391.705	54.95
391.915	89.77
392.125	81.58
392.334	85.67
392.544	38.57
392.753	3.75
392.963	100.01
393.172	5.8
393.382	30.38
393.591	95.91
393.801	46.76
394.01	65.19
394.22	91.82
394.429	11.95
394.639	36.52
394.848	48.81
395.058	100.01
395.267	61.1
395.477	85.67
395.686	151.21
395.895	22.19
396.105	126.63
396.314	61.1
396.524	46.76
396.733	65.19
396.942	24.23
397.152	77.48
397.361	110.25
397.57	44.71
397.78	85.67
397.989	134.82
398.198	81.58
398.407	-20.82
398.617	106.15
398.826	79.53
399.035	122.54
399.244	110.25
399.453	89.77
399.663	46.76
399.872	79.53
400.081	69.29
400.29	112.3
400.499	57
400.708	83.63
400.917	81.58
401.127	149.16
401.336	130.73
401.545	171.69
401.754	114.34
401.963	126.63
402.172	93.87
402.381	73.39
402.59	57
402.799	179.88
403.008	159.4
403.217	136.87
403.426	102.06
403.635	106.15
403.844	114.34
404.053	71.34
404.262	85.67
404.471	44.71
404.68	132.78
404.888	159.4
405.097	114.34
405.306	149.16
405.515	73.39
405.724	155.3
405.933	159.4
406.142	165.54
406.35	163.5
406.559	173.74
406.768	132.78
406.977	155.3
407.185	118.44
407.394	151.21
407.603	114.34
407.812	231.08
408.02	261.8
408.229	265.89
408.438	253.61
408.646	239.27
408.855	190.12
409.064	284.33
409.272	235.18
409.481	292.52
409.69	247.46
409.898	319.14
410.107	253.61
410.315	255.65
410.524	269.99
410.733	333.48
410.941	300.71
411.15	351.91
411.358	308.9
411.567	325.29
411.775	300.71
411.984	392.87
412.192	401.06
412.401	425.64
412.609	351.91
412.818	468.64
413.026	429.73
413.234	429.73
413.443	491.17
413.651	470.69
413.86	495.27
414.068	503.46
414.276	616.1
414.485	626.34
414.693	548.51
414.901	644.77
415.11	642.72
415.318	620.19
415.526	632.48
415.734	765.6
415.943	728.74
416.151	687.78
416.359	755.36
416.567	708.26
416.776	816.8
416.984	843.42
417.192	831.13
417.4	835.23
417.608	925.34
417.817	972.44
418.025	894.62
418.233	1097.37
418.441	1037.98
418.649	1093.27
418.857	1130.14
419.065	1083.03
419.273	1117.85
419.481	1242.78
419.689	1289.88
419.897	1398.42
420.105	1343.13
420.313	1371.8
420.521	1515.16
420.729	1418.9
420.937	1564.31
421.145	1560.21
421.353	1595.03
421.561	1728.14
421.769	1803.92
421.977	1836.69
422.185	1853.07
422.393	1881.74
422.601	2088.59
422.809	2088.59
423.017	2029.2
423.224	2174.6
423.432	2213.51
423.64	2162.31
423.848	2434.69
424.056	2250.38
424.263	2686.59
424.471	2635.39
424.679	2649.73
424.887	2709.12
425.094	2743.94
425.302	2784.9
425.51	3006.08
425.718	3014.27
425.925	2946.69
426.133	3159.67
426.341	3288.7
426.548	3518.07
426.756	3628.66
426.964	3477.11
427.171	3784.3
427.379	3847.79
427.586	4032.11
427.794	4077.16
428.001	4228.71
428.209	4345.45
428.417	4456.04
428.624	4513.38
428.832	4726.37
429.039	4617.83
429.247	4578.92
429.454	5156.44
429.662	5381.72
429.869	4875.87
430.076	5307.99
430.284	5475.93
430.491	5518.93
430.699	5838.42
430.906	5787.22
431.114	5860.95
431.321	6147.66
431.528	6243.92
431.736	6612.55
431.943	6977.09
432.15	6764.1
432.358	6891.07
432.565	7257.66
432.772	6985.28
432.979	7425.59
433.187	7626.29
433.394	7614.01
433.601	8252.97
433.808	8115.76
434.016	8173.1
434.223	8693.29
434.43	9121.31
434.637	8719.91
434.844	9362.97
435.052	9469.47
435.259	9518.62
435.466	9469.47
435.673	9512.47
435.88	10386.96
436.087	10792.45
436.294	11015.68
436.501	10331.66
436.708	10563.08
436.915	11120.13
437.122	11542.01
437.329	11369.98
437.537	11832.82
437.743	11861.49
437.95	12011
438.157	12510.7
438.364	13077.99
438.571	12602.86
438.778	12975.59
438.985	14491.09
439.192	13776.34
439.399	14106.07
439.606	13608.41
439.813	14783.95
440.02	15312.32
440.227	15269.31
440.433	15128
440.64	15680.96
440.847	15498.69
441.054	15867.32
441.261	16833.96
441.467	16827.82
441.674	17319.33
441.881	17855.9
442.088	17261.99
442.294	17520.03
442.501	18025.88
442.708	18318.74
442.914	18910.6
443.121	19809.66
443.328	19387.78
443.534	20569.46
443.741	20055.42
443.948	19422.59
444.154	21230.95
444.361	21282.15
444.568	21335.4
444.774	21222.76
444.981	21376.36
445.187	21925.21
445.394	23158.09
445.6	22969.68
445.807	24919.34
446.013	23749.95
446.22	24319.29
446.426	25107.76
446.633	25273.64
446.839	26516.76
447.046	25115.95
447.252	26416.41
447.459	26793.23
447.665	26416.41
447.871	27399.43
448.078	28777.72
448.284	27258.12
448.491	28464.38
448.697	29502.7
448.903	29611.24
449.11	30139.61
449.316	29250.8
449.522	29844.71
449.728	30821.59
449.935	31032.53
450.141	30823.64
450.347	31560.91
450.553	30584.02
450.76	30917.84
450.966	31995.07
451.172	31401.16
451.378	32314.56
451.584	31702.21
451.791	32543.93
451.997	32464.06
452.203	32722.1
452.409	32783.54
452.615	32795.83
452.821	31409.36
453.027	30991.57
453.233	32621.75
453.44	31601.86
453.646	31835.33
453.852	32228.54
454.058	32138.43
454.264	31311.05
454.47	32056.51
454.676	31241.42
454.882	32576.7
455.088	29549.8
455.294	29836.52
455.5	30495.96
455.705	30457.05
455.911	29533.42
456.117	29089.01
456.323	28415.23
456.529	26869.01
456.735	28310.78
456.941	27542.79
457.147	27012.37
457.352	26008.86
457.558	25767.2
457.764	26035.49
457.97	25398.57
458.176	25011.5
458.381	24919.34
458.587	23614.79
458.793	23622.98
458.999	22558.03
459.204	24202.55
459.41	23420.23
459.616	21722.46
459.821	21933.4
460.027	21722.46
460.233	21407.08
460.438	20335.99
460.644	20524.4
460.85	19580.29
461.055	19350.92
461.261	19338.63
461.466	17747.36
461.672	17212.84
461.878	18558.35
462.083	17296.8
462.289	16856.49
462.494	16948.65
462.7	16025.01
462.905	15750.59
463.111	16448.94
463.316	16420.27
463.522	15898.04
463.727	15924.66
463.932	15850.94
464.138	15850.94
464.343	15830.46
464.549	15525.31
464.754	15820.22
464.959	15637.95
465.165	15461.82
465.37	15005.13
465.575	14661.07
465.781	15099.33
465.986	15351.23
466.191	14556.62
466.397	14441.93
466.602	13647.32
466.807	14462.41
467.012	14274
467.218	14038.48
467.423	14036.44
467.628	14116.31
467.833	14667.21
468.038	14130.64
468.244	13682.14
468.449	14319.06
468.654	13944.28
468.859	13751.77
469.064	13583.84
469.269	13088.23
469.474	13141.47
469.679	13401.57
469.885	12914.15
470.09	13100.51
470.295	13270.5
470.5	12701.16
470.705	12852.71
470.91	12615.15
471.115	12443.12
471.32	12709.35
471.525	12533.23
471.73	12365.29
471.935	12416.49
472.139	11628.03
472.344	11892.21
472.549	11939.32
472.754	11718.14
472.959	11628.03
473.164	11191.81
473.369	11193.86
473.574	11599.35
473.778	11449.85
473.983	11382.27
474.188	11519.48
474.393	10724.87
474.598	10780.17
474.802	10796.55
475.007	10685.96
475.212	10819.08
475.417	10550.79
475.621	10405.39
475.826	10112.53
476.031	10161.68
476.235	9907.73
476.44	10147.34
476.645	9860.63
476.849	9840.15
477.054	9741.85
477.259	9846.29
477.463	9713.17
477.668	9279.01
477.872	9573.91
478.077	9451.03
478.282	9061.92
478.486	8975.91
478.691	9020.96
478.895	9006.63
479.1	9049.63
479.304	8838.69
479.509	8683.05
479.713	8816.16
479.918	8529.45
480.122	8513.06
480.326	8769.06
480.531	8594.98
480.735	8400.43
480.94	8457.77
481.144	8783.4
481.348	8308.27
481.553	8371.75
481.757	8199.73
481.961	8330.8
482.166	8406.57
482.37	8310.32
482.574	8338.99
482.778	8238.64
482.983	8416.81
483.187	8482.35
483.391	8482.35
483.595	8408.62
483.8	8064.56
484.004	8394.28
484.208	8406.57
484.412	8298.03
484.616	8289.84
484.821	8300.08
485.025	8193.58
485.229	8433.19
485.433	8064.56
485.637	8222.25
485.841	8369.71
486.045	8414.76
486.249	8312.36
486.453	8177.2
486.657	8275.5
486.861	8298.03
487.065	8222.25
487.269	8359.47
487.473	8029.74
487.677	8277.55
487.881	8480.3
488.085	8355.37
488.289	8279.6
488.493	8197.68
488.697	8568.36
488.901	8375.85
489.105	8193.58
489.309	8230.45
489.512	8250.92
489.716	8408.62
489.92	8511.02
490.124	8566.31
490.328	8562.22
490.531	8482.35
490.735	8455.72
490.939	8617.51
491.143	8320.56
491.346	8588.84
491.55	8803.88
491.754	8816.16
491.958	8549.93
492.161	8578.6
492.365	8863.27
492.569	8668.71
492.772	8506.92
492.976	8795.68
493.18	8875.56
493.383	9035.3
493.587	9154.08
493.79	9180.7
493.994	8947.23
494.197	9149.98
494.401	9268.77
494.605	9170.46
494.808	9524.76
495.012	9381.4
495.215	9192.99
495.419	9731.61
495.622	9518.62
495.825	9766.42
496.029	9559.58
496.232	9922.07
496.436	9758.23
496.639	10288.65
496.843	9991.7
497.046	9999.89
497.249	10548.75
497.453	10311.18
497.656	10558.99
497.859	10389
498.063	10765.83
498.266	10724.87
498.469	10667.53
498.673	10878.47
498.876	11316.73
499.079	11034.11
499.282	11320.83
499.485	11501.05
499.689	11511.29
499.892	11453.95
500.095	11755
500.298	12133.87
500.501	11892.21
500.705	12115.44
500.908	12115.44
501.111	12680.68
501.314	12510.7
501.517	12721.64
501.72	12867.05
501.923	12815.85
502.126	13360.61
502.329	13409.76
502.532	13428.19
502.735	13651.42
502.938	13966.81
503.141	13921.75
503.344	14134.74
503.547	14065.11
503.75	14482.89
503.953	14640.59
504.156	14560.72
504.359	14745.03
504.562	14861.77
504.765	15136.2
504.968	15402.43
505.17	15545.79
505.373	15490.49
505.576	15836.6
505.779	16127.41
505.982	15992.25
506.185	16401.84
506.387	16293.3
506.59	16479.66
506.793	16795.05
506.996	16659.88
507.198	17085.86
507.401	17159.59
507.604	17499.55
507.807	17606.05
508.009	17796.51
508.212	17933.72
508.415	18388.37
508.617	18396.56
508.82	18290.07
509.022	18226.58
509.225	18974.09
509.428	19209.61
509.63	19244.42
509.833	19428.74
510.035	19729.79
510.238	19854.72
510.44	20268.41
510.643	20563.31
510.845	20309.36
511.048	20323.7
511.25	20702.57
511.453	20743.53
511.655	21415.27
511.858	21192.04
512.06	21859.68
512.262	22005.08
512.465	21755.23
512.667	22152.54
512.87	22424.92
513.072	22648.15
513.274	22871.37
513.477	23090.51
513.679	23217.48
513.881	23637.31
514.084	23737.66
514.286	23780.67
514.488	24104.25
514.69	24634.67
514.893	24829.23
515.095	24855.86
515.297	25017.64
515.499	25228.59
515.701	25625.89
515.904	25879.84
516.106	25988.38
516.308	26361.11
516.51	26639.64
516.712	26832.15
516.914	26709.27
517.116	27632.9
517.318	27387.14
517.52	27682.05
517.722	27819.27
517.925	28065.02
518.127	28689.65
518.329	29017.33
518.531	28693.75
518.733	29275.37
518.935	29537.51
519.136	29551.85
519.338	29725.93
519.54	29922.53
519.742	30485.72
519.944	30532.82
520.146	30708.95
520.348	31243.47
520.55	30952.66
520.752	31558.86
520.954	31974.59
521.155	31657.16
521.357	32111.81
521.559	32650.42
521.761	33068.21
521.963	33248.43
522.164	33041.59
522.366	33424.56
522.568	33637.55
522.77	33600.68
522.971	34690.2
523.173	34069.67
523.375	34804.89
523.576	34423.97
523.778	35038.36
523.98	35034.26
524.181	35148.95
524.383	35468.43
524.584	35738.76
524.786	36041.86
524.988	35822.73
525.189	36490.37
525.391	36689.02
525.592	36957.3
525.794	36908.15
525.995	36940.92
526.197	37198.96
526.398	37375.09
526.6	37524.59
526.801	37475.44
527.003	38016.1
527.204	38038.63
527.406	38225
527.607	38079.59
527.808	38751.32
528.01	37876.84
528.211	38073.45
528.412	39128.15
528.614	39273.56
528.815	38761.56
529.016	39324.75
529.218	39038.04
529.419	39091.29
529.62	39091.29
529.822	39019.61
530.023	39617.61
530.224	39507.02
530.425	39437.39
530.626	39251.03
530.828	39279.7
531.029	40281.16
531.23	39486.54
531.431	39830.6
531.632	40170.57
531.833	40299.59
532.035	40369.22
532.236	40373.31
532.437	40303.68
532.638	40166.47
532.839	40555.58
533.04	40797.24
533.241	40178.76
533.442	40502.34
533.643	40430.66
533.844	40502.34
534.045	40619.07
534.246	40264.77
534.447	40862.78
534.648	40797.24
534.849	40793.15
535.05	40481.86
535.251	41077.82
535.451	40565.82
535.652	41266.23
535.853	40803.39
536.054	40565.82
536.255	41309.24
536.456	40535.1
536.657	41585.71
536.857	40850.49
537.058	40526.91
537.259	40799.29
537.46	40965.18
537.66	40555.58
537.861	40911.93
538.062	40891.45
538.263	41163.83
538.463	41235.51
538.664	40922.17
538.865	40862.78
539.065	40936.51
539.266	40324.16
539.466	41194.55
539.667	40416.32
539.868	40854.59
540.068	41176.12
540.269	40490.05
540.469	40772.67
540.67	40694.85
540.87	40764.48
541.071	40744
541.271	40627.26
541.472	41198.65
541.672	40483.9
541.873	40543.3
542.073	40283.2
542.274	41223.22
542.474	40674.37
542.675	40510.53
542.875	40920.12
543.075	40936.51
543.276	40488
543.476	40881.21
543.676	40668.22
543.877	40758.33
544.077	40700.99
544.277	40864.83
544.478	40813.63
544.678	40946.75
544.878	40729.66
545.078	40744
545.279	40698.94
545.479	40346.69
545.679	40479.81
545.879	40956.99
546.079	40262.72
546.28	40514.62
546.48	40328.26
546.68	40535.1
546.88	40825.92
547.08	40698.94
547.28	40412.23
547.48	40102.98
547.68	40655.93
547.88	40162.37
548.081	40608.83
548.281	40645.69
548.481	40363.07
548.681	40348.74
548.881	41079.86
549.081	40211.53
549.28	40467.52
549.48	40340.55
549.68	40584.26
549.88	40432.71
550.08	40516.67
550.28	40348.74
550.48	40217.67
550.68	40936.51
550.88	40250.44
551.08	40424.51
551.279	40469.57
551.479	40012.87
551.679	40250.44
551.879	39969.86
552.079	40361.03
552.278	39957.58
552.478	40301.64
552.678	40240.2
552.878	40537.15
553.077	40123.46
553.277	39760.97
553.477	40735.81
553.676	40297.54
553.876	40078.41
554.076	40078.41
554.275	40068.17
554.475	39650.38
554.674	40315.97
554.874	39924.81
555.074	39832.65
555.273	39906.38
555.473	40076.36
555.672	39810.12
555.872	40021.06
556.071	39789.64
556.271	40219.72
556.47	39564.37
556.67	39601.23
556.869	39519.31
557.068	39398.48
557.268	39343.19
557.467	39441.49
557.667	39269.46
557.866	39892.04
558.065	39320.66
558.265	38939.74
558.464	38741.08
558.663	39443.54
558.863	38847.58
559.062	39230.55
559.261	38966.36
559.461	39287.89
559.66	38349.92
559.859	38532.19
560.058	38818.91
560.258	38939.74
560.457	38358.11
560.656	38642.78
560.855	38558.81
561.054	38528.09
561.253	38313.06
561.453	38321.25
561.652	38700.12
561.851	38415.46
562.05	38368.35
562.249	38132.84
562.448	38349.92
562.647	38210.66
562.846	37909.61
563.045	37880.94
563.244	37489.77
563.443	37973.1
563.642	37129.33
563.841	37663.85
564.04	37418.1
564.239	37737.58
564.438	37231.73
564.637	37434.48
564.836	37463.15
565.035	36938.87
565.234	37358.7
565.432	36930.68
565.631	36758.65
565.83	37127.28
566.029	36787.32
566.228	36684.92
566.427	36500.61
566.625	36320.38
566.824	36164.74
567.023	36480.13
567.222	36002.95
567.42	36557.95
567.619	36170.88
567.818	36246.66
568.016	36013.19
568.215	36091.01
568.414	35628.17
568.612	36021.38
568.811	35673.23
569.01	35875.98
569.208	35052.69
569.407	35681.42
569.605	35130.51
569.804	35378.32
570.002	35079.32
570.201	35296.4
570.4	34831.51
570.598	34481.31
570.797	34843.8
570.995	34806.94
571.193	34245.79
571.392	35058.84
571.59	34329.76
571.789	34426.01
571.987	34129.06
572.186	34288.8
572.384	34030.76
572.582	34354.33
572.781	34180.26
572.979	33518.76
573.177	34065.57
573.376	33899.69
573.574	33864.87
573.772	33588.39
573.971	33471.66
574.169	33305.77
574.367	33103.03
574.565	33688.74
574.763	33064.11
574.962	33238.19
575.16	32410.81
575.358	32980.15
575.556	32138.43
575.754	33285.29
575.952	32703.67
576.151	32828.6
576.349	32382.14
576.547	32588.99
576.745	32388.28
576.943	32455.87
577.141	32699.58
577.339	32054.47
577.537	32322.75
577.735	32019.65
577.933	31673.54
578.131	31804.61
578.329	31698.12
578.527	31536.33
578.725	31601.86
578.923	31536.33
579.121	31188.17
579.319	31173.84
579.516	31397.07
579.714	31245.52
579.912	31102.16
580.11	30907.6
580.308	30741.72
580.506	30911.7
580.704	30125.28
580.901	30596.31
581.099	31134.93
581.297	30495.96
581.495	30377.18
581.692	30893.27
581.89	29912.29
582.088	30375.13
582.285	29967.59
582.483	30270.68
582.681	29981.92
582.878	29687.01
583.076	29324.52
583.274	30010.59
583.471	29557.99
583.669	29701.35
583.866	29254.89
584.064	29711.59
584.262	29099.25
584.459	29312.24
584.657	29025.52
584.854	29050.1
585.052	28933.36
585.249	28871.92
585.447	28925.17
585.644	28636.41
585.841	28869.87
586.039	28867.83
586.236	28361.98
586.434	28656.89
586.631	28126.46
586.828	28527.86
587.026	28581.11
587.223	28298.49
587.42	28419.32
587.618	28071.17
587.815	27557.13
588.012	27739.4
588.21	27913.47
588.407	27958.53
588.604	27751.68
588.801	27530.5
588.999	27344.14
589.196	27749.64
589.393	27331.85
589.59	27073.81
589.787	26912.02
589.984	26987.79
590.182	26948.88
590.379	27235.6
590.576	26799.38
590.773	26713.36
590.97	26574.1
591.167	26797.33
591.364	26604.82
591.561	26713.36
591.758	26582.29
591.955	26440.98
592.152	26215.71
592.349	26291.48
592.546	26191.13
592.743	26408.22
592.94	25742.63
593.137	25920.8
593.334	26131.74
593.531	25498.92
593.727	25742.63
593.924	25785.63
594.121	25681.19
594.318	25709.86
594.515	25347.37
594.712	25607.46
594.908	25353.51
595.105	25242.92
595.302	24986.93
595.499	24909.1
595.696	24876.34
595.892	24986.93
596.089	24935.73
596.286	24954.16
596.482	25007.41
596.679	24845.62
596.876	24886.57
597.072	24945.97
597.269	24632.63
597.466	24227.13
597.662	24225.08
597.859	24573.24
598.055	24587.57
598.252	24020.28
598.448	24239.42
598.645	24065.34
598.841	23825.73
599.038	23960.89
599.234	24153.4
599.431	23938.37
599.627	23549.25
599.824	23921.98
600.02	23395.65
600.217	23627.07
600.413	23559.49
600.609	23496
600.806	23170.38
601.002	23455.04
601.198	23090.51
601.395	23119.18
601.591	23174.47
601.787	23123.27
601.984	23078.22
602.18	22986.06
602.376	22898
602.572	22910.29
602.769	22605.14
602.965	22279.51
603.161	22689.1
603.357	22533.46
603.553	22320.47
603.75	22500.69
603.946	22287.7
604.142	22349.14
604.338	21988.7
604.534	22230.36
604.73	21597.54
604.926	21624.16
605.122	22027.61
605.318	21505.38
605.514	21534.05
605.71	21470.56
605.906	21513.57
606.102	21529.95
606.298	21515.62
606.494	21575.01
606.69	21456.23
606.886	21824.86
607.082	21126.5
607.278	21194.09
607.474	20989.29
607.67	21517.67
607.866	20979.05
608.062	21405.03
608.257	21030.25
608.453	20981.1
608.649	20899.18
608.845	20680.05
609.041	20882.8
609.236	20725.1
609.432	20858.22
609.628	20626.8
609.824	20448.63
610.019	20620.66
610.215	20475.25
610.411	20542.83
610.606	20487.54
610.802	20561.26
610.998	20262.26
611.193	20286.84
611.389	20454.77
611.584	20202.87
611.78	20342.13
611.976	20223.35
612.171	20147.58
612.367	20348.28
612.562	20071.8
612.758	19721.6
612.953	19680.64
613.149	20184.44
613.344	19840.38
613.539	20155.77
613.735	19625.34
613.93	19930.49
614.126	19723.65
614.321	19776.89
614.517	19770.75
614.712	19697.02
614.907	19459.46
615.103	19912.06
615.298	19660.16
615.493	19817.85
615.688	19357.06
615.884	19826.04
616.079	19484.03
616.274	19391.87
616.47	19463.55
616.665	19418.5
616.86	19522.94
617.055	19406.21
617.25	19348.87
617.445	19246.47
617.641	19006.86
617.836	19201.41
618.031	18947.47
618.226	19004.81
618.421	18701.71
618.616	18951.56
618.811	18582.93
619.006	18982.28
619.201	18341.27
619.396	18609.55
619.591	18226.58
619.786	18593.17
619.981	18261.4
620.176	18349.46
620.371	18273.68
620.566	18335.12
620.761	18136.47
620.956	18156.95
621.151	17997.21
621.346	18077.08
621.541	17485.22
621.735	17935.77
621.93	17595.81
622.125	17735.07
622.32	17360.29
622.515	17591.71
622.709	17159.59
622.904	17214.88
623.099	16989.61
623.294	17208.74
623.488	16987.56
623.683	16975.27
623.878	16629.16
624.072	17094.05
624.267	16686.51
624.462	16672.17
624.656	16364.98
624.851	16514.48
625.046	16403.89
625.24	16266.67
625.435	16274.87
625.629	16215.48
625.824	16195
626.018	16092.6
626.213	15703.48
626.407	15783.35
626.602	15545.79
626.796	15664.57
626.991	15590.84
627.185	15445.44
627.38	15353.28
627.574	15365.57
627.768	15158.72
627.963	14925.25
628.157	14814.66
628.352	15128
628.546	14837.19
628.74	15173.06
628.935	14667.21
629.129	14724.55
629.323	14288.34
629.517	14517.71
629.712	14366.16
629.906	14296.53
630.1	13972.95
630.294	14278.1
630.489	14161.36
630.683	13944.28
630.877	13868.5
631.071	13819.35
631.265	13811.16
631.459	13725.15
631.653	13602.27
631.848	13417.95
632.042	13673.95
632.236	13573.6
632.43	13385.18
632.624	13315.55
632.818	13403.61
633.012	13202.91
633.206	13063.65
633.4	13131.23
633.594	13045.22
633.788	12944.87
633.982	13016.55
634.176	12848.61
634.369	12883.43
634.563	12758.5
634.757	12611.05
634.951	12631.53
635.145	12635.63
635.339	12549.61
635.533	12310
635.726	12310
635.92	12256.75
636.114	12113.39
636.308	12047.86
636.501	11996.66
636.695	12035.57
636.889	11877.88
637.083	11726.33
637.276	11791.86
637.47	11853.3
637.664	11701.75
637.857	11478.52
638.051	11533.82
638.244	11554.3
638.438	11415.04
638.632	11425.28
638.825	11415.04
639.019	11097.6
639.212	11333.12
639.406	11193.86
639.599	11023.87
639.793	11077.12
639.986	10909.19
640.18	11034.11
640.373	11175.42
640.567	10558.99
640.76	11023.87
640.954	10491.4
641.147	10622.47
641.34	10475.02
641.534	10294.8
641.727	10495.5
641.92	10380.81
642.114	10470.92
642.307	10294.8
642.5	10425.87
642.694	10014.23
642.887	10075.66
643.08	10038.8
643.273	10102.29
643.467	10010.13
643.66	9924.12
643.853	9770.52
644.046	9827.86
644.239	9883.16
644.432	9633.3
644.626	9696.79
644.819	9561.62
645.012	9614.87
645.205	9616.92
645.398	9405.98
645.591	9436.7
645.784	9342.49
645.977	9164.32
646.17	9246.24
646.363	9297.44
646.556	9109.02
646.749	9023.01
646.942	9307.68
647.135	9010.72
647.328	8951.33
647.521	8920.61
647.714	8689.19
647.907	8734.25
648.099	8775.2
648.292	8752.68
648.485	8756.77
648.678	8637.99
648.871	8660.52
649.064	8742.44
649.256	8564.26
649.449	8359.47
649.642	8455.72
649.835	8267.31
650.027	8216.11
650.22	8341.04
650.413	8205.87
650.605	8179.25
650.798	8238.64
650.991	7929.39
651.183	8017.46
651.376	7851.57
651.568	7956.02
651.761	7968.31
651.954	7759.41
652.146	7870
652.339	7870
652.531	7779.89
652.724	7712.31
652.916	7480.89
653.109	7743.03
653.301	7714.36
653.494	7605.81
653.686	7392.83
653.879	7667.25
654.071	7642.68
654.263	7663.16
654.456	7405.11
654.648	7233.08
654.84	7241.28
655.033	7353.91
655.225	7110.21
655.417	7284.28
655.61	7163.45
655.802	7030.34
655.994	7263.8
656.186	7177.79
656.379	6977.09
656.571	6807.11
656.763	6934.08
656.955	6772.29
657.148	6717
657.34	6803.01
657.532	6757.96
657.724	6760
657.916	6610.5
658.108	6569.54
658.3	6565.45
658.492	6579.78
658.684	6534.73
658.876	6547.01
659.068	6338.12
659.26	6444.62
659.452	6393.42
659.644	6465.1
659.836	6331.98
660.028	6321.74
660.22	6358.6
660.412	6397.51
660.604	6239.82
660.796	6254.16
660.988	6180.43
661.18	6151.76
661.372	6020.69
661.563	6213.2
661.755	6035.02
661.947	5940.82
662.139	5946.96
662.331	5824.08
662.522	5938.77
662.714	5879.38
662.906	5949.01
663.097	5869.14
663.289	5828.18
663.481	5580.37
663.673	5660.24
663.864	5717.59
664.056	5758.55
664.247	5547.61
664.439	5619.28
664.631	5547.61
664.822	5586.52
665.014	5592.66
665.205	5535.32
665.397	5576.28
665.588	5693.01
665.78	5551.7
665.971	5385.82
666.163	5373.53
666.354	5443.16
666.546	5412.44
666.737	5244.51
666.929	5295.71
667.12	5330.52
667.311	5336.67
667.503	5217.88
667.694	5197.4
667.885	5111.39
668.077	5078.62
668.268	5213.79
668.459	5176.92
668.651	5221.98
668.842	5090.91
669.033	5004.89
669.224	5082.72
669.416	4941.41
669.607	4976.22
669.798	4777.57
669.989	4912.74
670.18	4925.02
670.371	4886.11
670.563	4750.95
670.754	4832.86
670.945	4857.44
671.136	4734.56
671.327	4830.82
671.518	4683.36
671.709	4763.23
671.9	4695.65
672.091	4601.44
672.282	4587.11
672.473	4685.41
672.664	4718.18
672.855	4497
673.046	4617.83
673.237	4562.53
673.428	4529.77
673.619	4542.05
673.809	4511.33
674	4472.42
674.191	4519.53
674.382	4378.22
674.573	4519.53
674.764	4396.65
674.954	4466.28
675.145	4429.42
675.336	4202.09
675.527	4316.78
675.717	4376.17
675.908	4073.07
676.099	4413.03
676.289	4318.82
676.48	4263.53
676.671	4255.34
676.861	4189.8
677.052	4148.84
677.243	4101.74
677.433	4111.98
677.624	4286.06
677.814	4234.86
678.005	4132.46
678.195	4159.08
678.386	4068.97
678.576	4193.9
678.767	4107.88
678.957	4128.36
679.148	4079.21
679.338	4019.82
679.529	4087.4
679.719	3997.29
679.909	3989.1
680.1	3956.33
680.29	4052.59
680.481	3919.47
680.671	3952.24
680.861	3909.23
681.052	3827.31
681.242	3966.57
681.432	3954.29
681.622	3872.37
681.813	3894.9
682.003	3935.85
682.193	3886.7
682.383	3944.05
682.573	3788.4
682.764	3726.96
682.954	3776.11
683.144	3778.16
683.334	3667.57
683.524	3722.87
683.714	3835.5
683.904	3718.77
684.094	3778.16
684.284	3743.35
684.474	3765.87
684.664	3653.23
684.854	3802.74
685.044	3640.95
685.234	3669.62
685.424	3626.61
685.614	3647.09
685.804	3620.47
685.994	3544.69
686.184	3718.77
686.374	3643
686.564	3591.8
686.753	3700.34
686.943	3552.88
687.133	3466.87
687.323	3475.06
687.513	3475.06
687.702	3522.16
687.892	3483.25
688.082	3493.49
688.272	3395.19
688.461	3499.64
688.651	3456.63
688.841	3382.9
689.03	3399.29
689.22	3237.5
689.41	3468.92
689.599	3307.13
689.789	3321.46
689.979	3399.29
690.168	3180.15
690.358	3307.13
690.547	3317.37
690.737	3169.91
690.926	3284.6
691.116	3196.54
691.305	3341.94
691.495	3260.02
691.684	3296.89
691.874	3405.43
692.063	3266.17
692.252	3272.31
692.442	3151.48
692.631	3128.95
692.82	3141.24
693.01	3239.55
693.199	3083.9
693.388	3020.41
693.578	3133.05
693.767	3026.56
693.956	3014.27
694.146	3038.84
694.335	3147.39
694.524	3063.42
694.713	2922.11
694.902	3102.33
695.092	2981.5
695.281	2989.69
695.47	3004.03
695.659	3073.66
695.848	2981.5
696.037	2944.64
696.226	2918.01
696.415	3075.71
696.604	3061.37
696.793	2915.97
696.982	2965.12
697.171	2946.69
697.36	2907.77
697.549	2854.53
697.738	2899.58
697.927	2928.25
698.116	2987.65
698.305	2887.29
698.494	2858.62
698.683	3038.84
698.872	2932.35
699.061	2889.34
699.25	2979.45
699.438	3053.18
699.627	2836.1
699.816	2985.6
700.005	2965.12
700.193	2836.1
700.382	2973.31
700.571	2893.44
700.76	2936.45
700.948	2940.54
701.137	2961.02
701.326	2942.59
701.514	2844.29
701.703	2821.76
701.892	2893.44
702.08	2926.21
702.269	2811.52
702.457	2862.72
702.646	2819.71
702.834	2827.9
703.023	2877.05
703.212	2948.73
703.4	2653.83
703.589	2844.29
703.777	2977.41
703.965	2864.77
704.154	2795.14
704.342	2745.98
704.531	2821.76
704.719	2883.2
704.907	2907.77
705.096	2838.14
705.284	2809.47
705.472	2864.77
705.661	2745.98
705.849	2774.66
706.037	2891.39
706.226	2854.53
706.414	2909.82
706.602	2842.24
706.79	2725.51
706.979	2885.25
707.167	2836.1
707.355	2840.19
707.543	2829.95
707.731	2899.58
707.919	2805.38
708.107	2813.57
708.296	2852.48
708.484	2690.69
708.672	2801.28
708.86	2942.59
709.048	2872.96
709.236	2639.49
709.424	2832
709.612	2815.62
709.8	2659.97
709.988	2698.88
710.176	2786.94
710.364	2745.98
710.551	2862.72
710.739	2799.23
710.927	2590.34
711.115	2850.43
711.303	2829.95
711.491	2807.42
711.679	2864.77
711.866	2756.22
712.054	2692.74
712.242	2723.46
712.43	2709.12
712.617	2748.03
712.805	2735.74
712.993	2717.31
713.181	2793.09
713.368	2700.93
713.556	2616.96
713.744	2606.72
713.931	2735.74
714.119	2768.51
714.306	2793.09
714.494	2702.98
714.682	2727.55
714.869	2604.67
715.057	2840.19
715.244	2571.91
715.432	2666.11
715.619	2567.81
715.807	2774.66
715.994	2637.44
716.182	2719.36
716.369	2600.58
716.556	2801.28
716.744	2686.59
716.931	2662.02
717.119	2612.87
717.306	2762.37
717.493	2535.04
717.681	2526.85
717.868	2614.91
718.055	2586.24
718.242	2770.56
718.43	2637.44
718.617	2649.73
718.804	2543.24
718.991	2676.35
719.179	2547.33
719.366	2516.61
719.553	2629.25
719.74	2666.11
719.927	2586.24
720.114	2621.06
720.301	2522.76
720.488	2563.72
720.676	2545.28
720.863	2602.63
721.05	2573.96
721.237	2676.35
721.424	2655.87
721.611	2621.06
721.798	2578.05
721.985	2614.91
722.172	2543.24
722.358	2487.94
722.545	2508.42
722.732	2520.71
722.919	2662.02
723.106	2543.24
723.293	2528.9
723.48	2479.75
723.667	2553.48
723.853	2506.37
724.04	2543.24
724.227	2467.46
724.414	2485.89
724.6	2645.63
724.787	2449.03
724.974	2530.95
725.161	2467.46
725.347	2522.76
725.534	2481.8
725.72	2410.12
725.907	2576
726.094	2649.73
726.28	2553.48
726.467	2444.93
726.653	2477.7
726.84	2512.52
727.027	2537.09
727.213	2543.24
727.4	2432.65
727.586	2440.84
727.773	2426.5
727.959	2754.18
728.145	2485.89
728.332	2442.89
728.518	2451.08
728.705	2489.99
728.891	2410.12
729.077	2385.54
729.264	2463.37
729.45	2533
729.636	2457.22
729.823	2401.93
730.009	2473.6
730.195	2498.18
730.382	2385.54
730.568	2406.02
730.754	2356.87
730.94	2459.27
731.126	2406.02
731.313	2414.21
731.499	2469.51
731.685	2453.13
731.871	2438.79
732.057	2412.17
732.243	2408.07
732.429	2385.54
732.615	2481.8
732.801	2449.03
732.987	2457.22
733.173	2430.6
733.359	2434.69
733.545	2373.25
733.731	2438.79
733.917	2412.17
734.103	2453.13
734.289	2414.21
734.475	2453.13
734.661	2418.31
734.847	2461.32
735.033	2399.88
735.219	2408.07
735.404	2322.06
735.59	2303.62
735.776	2360.97
735.962	2309.77
736.148	2451.08
736.333	2223.75
736.519	2348.68
736.705	2317.96
736.89	2252.42
737.076	2301.58
737.262	2313.86
737.447	2322.06
737.633	2252.42
737.819	2221.7
738.004	2207.37
738.19	2365.06
738.375	2170.51
738.561	2455.17
738.747	2342.53
738.932	2205.32
739.118	2227.85
739.303	2315.91
739.489	2283.14
739.674	2274.95
739.859	2266.76
740.045	2133.64
740.23	2209.42
740.416	2076.3
740.601	2154.12
740.786	2213.51
740.972	2150.03
741.157	2160.27
741.342	2078.35
741.528	2135.69
741.713	2125.45
741.898	2141.83
742.084	2070.16
742.269	2121.35
742.454	2195.08
742.639	2137.74
742.824	2092.68
743.01	2113.16
743.195	2129.55
743.38	1924.75
743.565	2158.22
743.75	2113.16
743.935	2057.87
744.12	2123.4
744.305	1996.43
744.49	2004.62
744.675	2014.86
744.86	1996.43
745.045	2125.45
745.23	2018.96
745.415	1967.76
745.6	2102.92
745.785	1922.7
745.97	1918.61
746.155	1865.36
746.34	1795.73
746.525	1998.48
746.71	2008.72
746.895	1957.52
747.079	1971.85
747.264	1975.95
747.449	1996.43
747.634	1887.89
747.819	1863.31
748.003	1932.94
748.188	1832.59
748.373	1791.63
748.557	1781.39
748.742	1744.53
748.927	1762.96
749.111	1719.95
749.296	1777.3
749.481	1902.22
749.665	1693.33
749.85	1597.07
750.034	1646.23
750.219	1627.79
750.404	1674.9
750.588	1597.07
750.773	1744.53
750.957	1705.62
751.141	1689.23
751.326	1701.52
751.51	1621.65
751.695	1703.57
751.879	1648.27
752.064	1617.55
752.248	1670.8
752.432	1668.75
752.617	1515.16
752.801	1566.35
752.985	1390.23
753.17	1529.49
753.354	1590.93
753.538	1576.59
753.722	1543.83
753.907	1509.01
754.091	1478.29
754.275	1431.19
754.459	1525.4
754.643	1463.96
754.828	1445.52
755.012	1408.66
755.196	1400.47
755.38	1400.47
755.564	1416.85
755.748	1474.2
755.932	1414.81
756.116	1472.15
756.3	1306.26
756.484	1289.88
756.668	1429.14
756.852	1361.56
757.036	1392.28
757.22	1226.39
757.404	1304.21
757.588	1330.84
757.772	1285.78
757.956	1232.54
758.14	1287.83
758.323	1314.45
758.507	1312.41
758.691	1195.67
758.875	1193.62
759.059	1281.69
759.242	1341.08
759.426	1164.95
759.61	1212.06
759.794	1146.52
759.977	1191.58
760.161	1210.01
760.345	1261.21
760.528	1263.26
760.712	1214.1
760.895	1158.81
761.079	1154.71
761.263	1146.52
761.446	1119.9
761.63	1117.85
761.813	1179.29
761.997	1113.75
762.18	1136.28
762.364	1117.85
762.547	994.97
762.731	1054.36
762.914	1095.32
763.098	1031.83
763.281	1152.67
763.464	1162.9
763.648	1066.65
763.831	1078.94
764.015	1080.99
764.198	1007.26
764.381	1068.7
764.564	1189.53
764.748	1019.55
764.931	1117.85
765.114	964.25
765.297	1087.13
765.481	1005.21
765.664	1035.93
765.847	1015.45
766.03	1062.55
766.213	1009.31
766.397	1115.8
766.58	1017.5
766.763	1015.45
766.946	1019.55
767.129	990.88
767.312	984.73
767.495	966.3
767.678	1001.12
767.861	964.25
768.044	1001.12
768.227	958.11
768.41	1005.21
768.593	1023.64
768.776	970.4
768.959	896.67
769.142	1031.83
769.324	923.29
769.507	921.24
769.69	956.06
769.873	925.34
770.056	976.54
770.239	888.48
770.421	886.43
770.604	915.1
770.787	915.1
770.97	859.81
771.152	814.75
771.335	874.14
771.518	898.72
771.7	861.85
771.883	874.14
772.066	943.77
772.248	814.75
772.431	997.02
772.613	847.52
772.796	839.33
772.978	816.8
773.161	847.52
773.343	841.37
773.526	872.09
773.708	806.56
773.891	751.26
774.073	781.98
774.256	837.28
774.438	837.28
774.621	755.36
774.803	843.42
774.985	822.94
775.168	743.07
775.35	765.6
775.532	747.17
775.715	732.83
775.897	810.65
776.079	734.88
776.261	824.99
776.444	769.69
776.626	753.31
776.808	691.87
776.99	761.5
777.173	761.5
777.355	720.54
777.537	704.16
777.719	736.93
777.901	763.55
778.083	743.07
778.265	704.16
778.447	700.06
778.629	669.34
778.811	708.26
778.993	644.77
779.175	628.39
779.357	661.15
779.539	622.24
779.721	554.66
779.903	603.81
780.085	564.9
780.267	642.72
780.449	577.19
780.631	626.34
780.812	597.67
780.994	679.58
781.176	618.15
781.358	599.71
781.54	581.28
781.721	593.57
781.903	659.1
782.085	568.99
782.267	554.66
782.448	528.03
782.63	628.39
782.812	583.33
782.993	528.03
783.175	573.09
783.357	597.67
783.538	564.9
783.72	628.39
783.901	560.8
784.083	534.18
784.264	550.56
784.446	560.8
784.627	493.22
784.809	462.5
784.99	464.55
785.172	466.6
785.353	607.91
785.535	493.22
785.716	497.32
785.897	429.73
786.079	399.01
786.26	566.95
786.441	470.69
786.623	431.78
786.804	429.73
786.985	497.32
787.167	417.44
787.348	460.45
787.529	491.17
787.71	517.79
787.891	415.4
788.073	407.2
788.254	376.48
788.435	384.68
788.616	435.88
788.797	401.06
788.978	413.35
789.159	372.39
789.34	403.11
789.522	374.44
789.703	448.16
789.884	423.59
790.065	444.07
790.246	407.2
790.427	401.06
790.607	421.54
790.788	446.12
790.969	407.2
791.15	308.9
791.331	376.48
791.512	374.44
791.693	341.67
791.874	331.43
792.054	487.08
792.235	409.25
792.416	327.33
792.597	255.65
792.778	380.58
792.958	313
793.139	339.62
793.32	333.48
793.5	360.1
793.681	349.86
793.862	372.39
794.042	261.8
794.223	308.9
794.404	343.72
794.584	267.94
794.765	300.71
794.945	331.43
795.126	349.86
795.306	313
795.487	257.7
795.667	304.81
795.848	337.57
796.028	317.09
796.209	253.61
796.389	269.99
796.57	276.13
796.75	282.28
796.93	300.71
797.111	321.19
797.291	284.33
797.471	257.7
797.652	255.65
797.832	198.31
798.012	337.57
798.192	304.81
798.373	269.99
798.553	280.23
798.733	272.04
798.913	292.52
799.093	237.22
799.274	265.89
799.454	259.75
799.634	292.52
799.814	356.01
799.994	284.33
800.174	190.12
800.354	269.99
800.534	214.7
800.714	220.84
800.894	249.51
801.074	310.95
801.254	204.46
801.434	296.61
801.614	233.13
801.794	171.69
801.974	581.28
802.154	263.85
802.334	276.13
802.514	257.7
802.693	167.59
802.873	280.23
803.053	188.07
803.233	208.55
803.413	231.08
803.592	179.88
803.772	272.04
803.952	224.94
804.131	179.88
804.311	233.13
804.491	198.31
804.67	196.26
804.85	263.85
805.03	269.99
805.209	220.84
805.389	255.65
805.568	229.03
805.748	229.03
805.928	237.22
806.107	233.13
806.287	224.94
806.466	169.64
806.646	177.83
806.825	192.17
807.004	208.55
807.184	151.21
807.363	198.31
807.543	159.4
807.722	206.5
807.901	306.85
808.081	179.88
808.26	196.26
808.439	196.26
808.619	206.5
808.798	222.89
808.977	210.6
809.156	165.54
809.336	261.8
809.515	126.63
809.694	169.64
809.873	179.88
810.052	245.41
810.231	222.89
810.411	179.88
810.59	143.02
810.769	118.44
810.948	276.13
811.127	157.35
811.306	163.5
811.485	183.98
811.664	224.94
811.843	81.58
812.022	190.12
812.201	161.45
812.38	128.68
812.559	75.43
812.737	157.35
812.916	161.45
813.095	167.59
813.274	93.87
813.453	192.17
813.632	112.3
813.811	188.07
813.989	63.15
814.168	151.21
814.347	132.78
814.526	188.07
814.704	145.06
814.883	134.82
815.062	89.77
815.24	95.91
815.419	69.29
815.598	126.63
815.776	118.44
815.955	208.55
816.133	95.91
816.312	151.21
816.49	110.25
816.669	159.4
816.847	210.6
817.026	153.26
817.204	130.73
817.383	57
817.561	140.97
817.74	147.11
817.918	157.35
818.097	102.06
818.275	83.63
818.453	226.98
818.632	120.49
818.81	151.21
818.988	102.06
819.167	147.11
819.345	167.59
819.523	57
819.701	85.67
819.879	138.92
820.058	114.34
820.236	132.78
820.414	128.68
820.592	128.68
820.77	108.2
820.948	63.15
821.127	112.3
821.305	134.82
821.483	200.36
821.661	159.4
821.839	145.06
822.017	61.1
822.195	122.54
822.373	83.63
822.551	132.78
822.729	122.54
822.907	128.68
823.085	198.31
823.262	173.74
823.44	89.77
823.618	120.49
823.796	71.34
823.974	63.15
824.152	112.3
824.329	73.39
824.507	102.06
824.685	177.83
824.863	126.63
825.04	89.77
825.218	87.72
825.396	57
825.574	95.91
825.751	95.91
825.929	87.72
826.107	26.28
826.284	106.15
826.462	75.43
826.639	40.62
826.817	3.75
826.994	54.95
827.172	75.43
827.349	116.39
827.527	-10.58
827.704	83.63
827.882	91.82
828.059	130.73
828.237	79.53
828.414	112.3
828.591	97.96
828.769	153.26
828.946	22.19
829.124	93.87
829.301	83.63
829.478	116.39
829.655	85.67
829.833	81.58
830.01	91.82
830.187	75.43
830.364	157.35
830.542	91.82
830.719	28.33
830.896	134.82
831.073	97.96
831.25	69.29
831.427	73.39
831.604	116.39
831.782	130.73
831.959	91.82
832.136	22.19
832.313	61.1
832.49	36.52
832.667	116.39
832.844	89.77
833.021	110.25
833.198	20.14
833.374	106.15
833.551	63.15
833.728	13.99
833.905	16.04
834.082	79.53
834.259	67.24
834.436	91.82
834.612	30.38
834.789	59.05
834.966	95.91
835.143	95.91
835.319	102.06
835.496	128.68
835.673	95.91
835.85	200.36
836.026	28.33
836.203	61.1
836.38	46.76
836.556	46.76
836.733	22.19
836.909	85.67
837.086	46.76
837.262	1.71
837.439	24.23
837.616	24.23
837.792	-2.39
837.968	3.75
838.145	104.11
838.321	73.39
838.498	28.33
838.674	102.06
838.851	48.81
839.027	97.96
839.203	63.15
839.38	95.91
839.556	57
839.732	89.77
839.909	20.14
840.085	9.9
840.261	73.39
840.437	40.62
840.614	59.05
840.79	-18.77
840.966	75.43
841.142	-2.39
841.318	83.63
841.494	18.09
841.671	-0.34
841.847	85.67
842.023	7.85
842.199	13.99
842.375	50.86
842.551	54.95
842.727	13.99
842.903	48.81
843.079	48.81
843.255	63.15
843.431	-4.44
843.607	110.25
843.783	48.81
843.959	83.63
844.134	16.04
844.31	157.35
844.486	-47.44
844.662	40.62
844.838	9.9
845.013	71.34
845.189	63.15
845.365	-10.58
845.541	63.15
845.716	79.53
845.892	73.39
846.068	28.33
846.244	-0.34
846.419	9.9
846.595	-22.87
846.77	91.82
846.946	22.19
847.122	22.19
847.297	-6.49
847.473	71.34
847.648	26.28
847.824	138.92
847.999	5.8
848.175	65.19
848.35	32.43
848.526	24.23
848.701	100.01
848.876	30.38
849.052	11.95
849.227	34.47
849.403	57
849.578	-2.39
849.753	20.14
849.929	5.8
850.104	75.43
850.279	24.23
850.454	16.04
850.63	-37.2
850.805	87.72
850.98	36.52
851.155	79.53
851.33	-14.68
851.505	3.75
851.681	130.73
851.856	-31.06
852.031	77.48
852.206	3.75
852.381	16.04
852.556	30.38
852.731	30.38
852.906	1.71
853.081	116.39
853.256	89.77
853.431	48.81
853.606	-0.34
853.781	-31.06
853.956	22.19
854.131	59.05
854.305	1.71
854.48	-31.06
854.655	5.8
854.83	11.95
855.005	40.62
855.18	18.09
855.354	-6.49
855.529	-20.82
855.704	-8.53
855.879	36.52
856.053	26.28
856.228	81.58
856.403	1.71
856.577	48.81
856.752	65.19
856.926	67.24
857.101	-22.87
857.276	46.76
857.45	9.9
857.625	-8.53
857.799	63.15
857.974	9.9
858.148	36.52
858.323	89.77
858.497	-4.44
858.672	48.81
858.846	54.95
859.02	-0.34
859.195	5.8
859.369	11.95
859.543	59.05
859.718	9.9
859.892	-31.06
860.066	7.85
860.241	7.85
860.415	32.43
860.589	-10.58
860.763	5.8
860.938	28.33
861.112	-18.77
861.286	24.23
861.46	42.67
861.634	32.43
861.808	-12.63
861.982	24.23
862.157	44.71
862.331	-43.35
862.505	-31.06
862.679	20.14
862.853	22.19
863.027	-61.78
863.201	83.63
863.375	16.04
863.549	36.52
863.722	50.86
863.896	-14.68
864.07	-49.49
864.244	3.75
864.418	30.38
864.592	52.91
864.766	34.47
864.939	44.71
865.113	-67.92
865.287	44.71
865.461	36.52
865.634	32.43
865.808	-47.44
865.982	22.19
866.156	-10.58
866.329	-55.64
866.503	7.85
866.676	28.33
866.85	-12.63
867.024	-24.92
867.197	-26.96
867.371	-16.73
867.544	-51.54
867.718	46.76
867.891	-8.53
868.065	-18.77
868.238	5.8
868.412	52.91
868.585	3.75
868.759	-16.73
868.932	-24.92
869.105	7.85
869.279	-29.01
869.452	46.76
869.625	65.19
869.799	22.19
869.972	7.85
870.145	-24.92
870.319	3.75
870.492	57
870.665	-119.12
870.838	-24.92
871.011	-37.2
871.185	73.39
871.358	20.14
871.531	30.38
871.704	-14.68
871.877	-8.53
872.05	-45.4
872.223	34.47
872.396	-2.39
872.569	63.15
872.742	-74.07
872.915	79.53
873.088	-16.73
873.261	28.33
873.434	11.95
873.607	16.04
873.78	-24.92
873.953	-18.77
874.126	81.58
874.299	38.57
874.471	52.91
874.644	48.81
874.817	57
874.99	38.57
875.163	-69.97
875.335	24.23
875.508	-41.3
875.681	-31.06
875.853	89.77
876.026	-24.92
876.199	16.04
876.371	13.99
876.544	7.85
876.717	5.8
876.889	44.71
877.062	22.19
877.234	1.71
877.407	11.95
877.579	30.38
877.752	11.95
877.924	18.09
878.097	32.43
878.269	-20.82
878.442	3.75
878.614	44.71
878.786	42.67
878.959	18.09
879.131	34.47
879.303	-10.58
879.476	-16.73
879.648	-26.96
879.82	26.28
879.993	-43.35
880.165	-47.44
880.337	-112.98
880.509	-0.34
880.681	44.71
880.854	-16.73
881.026	-2.39
881.198	-14.68
881.37	28.33
881.542	3.75
881.714	-53.59
881.886	13.99
882.058	-41.3
882.23	77.48
882.402	52.91
882.574	16.04
882.746	13.99
882.918	-6.49
883.09	-39.25
883.262	-65.88
883.434	36.52
883.606	-6.49
883.778	46.76
883.95	52.91
884.122	28.33
884.293	100.01
884.465	11.95
884.637	-10.58
884.809	-8.53
884.98	-57.68
885.152	-51.54
885.324	22.19
885.496	-10.58
885.667	-24.92
885.839	61.1
886.011	28.33
886.182	-0.34
886.354	-22.87
886.525	57
886.697	-43.35
886.869	-22.87
887.04	22.19
887.212	95.91
887.383	91.82
887.555	-18.77
887.726	9.9
887.897	-33.11
888.069	-41.3
888.24	-43.35
888.412	18.09
888.583	13.99
888.754	-0.34
888.926	3.75
889.097	7.85
889.268	-45.4
889.44	-41.3
889.611	-33.11
889.782	28.33
889.953	-43.35
890.125	13.99
890.296	-45.4
890.467	-33.11
890.638	-16.73
890.809	1.71
890.98	18.09
891.151	11.95
891.323	-4.44
891.494	-8.53
891.665	-61.78
891.836	3.75
892.007	-26.96
892.178	24.23
892.349	24.23
892.52	-16.73
892.691	24.23
892.862	-49.49
893.032	-12.63
893.203	-51.54
893.374	-18.77
893.545	24.23
893.716	11.95
893.887	69.29
894.057	-35.16
894.228	-12.63
894.399	22.19
894.57	75.43
894.74	-0.34
894.911	-29.01
895.082	32.43
895.253	9.9
895.423	20.14
895.594	-72.02
895.764	-6.49
895.935	46.76
896.106	5.8
896.276	-26.96
896.447	16.04
896.617	61.1
896.788	3.75
896.958	38.57
897.129	-2.39
897.299	-37.2
897.47	38.57
897.64	30.38
897.81	16.04
897.981	61.1
898.151	-16.73
898.322	-29.01
898.492	7.85
898.662	-33.11
898.832	-67.92
899.003	24.23
899.173	-49.49
899.343	-6.49
899.513	-12.63
