Data from USB4F104151__102__11-07-06-979.txt Node

Date: Wed Mar 12 11:07:06 EDT 2025
User: louis
Spectrometer: USB4F10415
Trigger mode: 4
Integration Time (sec): 2.000000E-2
Scans to average: 1
Electric dark correction enabled: true
Nonlinearity correction enabled: false
Boxcar width: 0
XAxis mode: Wavelengths
Number of Pixels in Spectrum: 3648
>>>>>Begin Spectral Data<<<<<
178.204	-93.35
178.424	-93.35
178.644	-93.35
178.864	-79.02
179.084	-117.93
179.304	-40.11
179.524	23.38
179.744	4.95
179.964	-40.11
180.184	23.38
180.404	2.9
180.624	-15.53
180.844	35.67
181.064	-5.29
181.283	-5.29
181.503	-3.24
181.723	19.29
181.943	-33.96
182.163	119.64
182.383	-23.72
182.602	25.43
182.822	68.44
183.042	7
183.262	35.67
183.482	-5.29
183.701	23.38
183.921	-15.53
184.141	-40.11
184.361	84.82
184.58	0.85
184.8	-52.39
185.02	39.76
185.239	33.62
185.459	-21.67
185.679	17.24
185.898	-17.58
186.118	43.86
186.338	-42.15
186.557	43.86
186.777	9.05
186.997	-29.87
187.216	-11.43
187.436	66.39
187.655	-19.63
187.875	33.62
188.095	-40.11
188.314	-15.53
188.534	64.34
188.753	-17.58
188.973	23.38
189.192	25.43
189.412	-50.35
189.631	21.33
189.851	50
190.07	-19.63
190.29	-44.2
190.509	56.15
190.729	70.48
190.948	45.91
191.168	101.2
191.387	35.67
191.607	23.38
191.826	-7.34
192.045	-50.35
192.265	17.24
192.484	60.24
192.704	41.81
192.923	-50.35
193.142	-21.67
193.362	52.05
193.581	19.29
193.8	27.48
194.02	62.29
194.239	-38.06
194.458	21.33
194.678	-52.39
194.897	-50.35
195.116	27.48
195.335	74.58
195.555	86.87
195.774	4.95
195.993	25.43
196.212	31.57
196.432	7
196.651	-31.91
196.87	37.72
197.089	43.86
197.308	0.85
197.528	-48.3
197.747	74.58
197.966	-13.48
198.185	23.38
198.404	-25.77
198.623	88.92
198.842	-1.19
199.062	64.34
199.281	99.16
199.5	7
199.719	70.48
199.938	13.14
200.157	7
200.376	39.76
200.595	-58.54
200.814	-25.77
201.033	105.3
201.252	33.62
201.471	19.29
201.69	0.85
201.909	23.38
202.128	39.76
202.347	31.57
202.566	4.95
202.785	72.53
203.004	17.24
203.223	29.52
203.442	68.44
203.661	31.57
203.879	-44.2
204.098	95.06
204.317	4.95
204.536	11.09
204.755	-17.58
204.974	37.72
205.193	68.44
205.411	95.06
205.63	-44.2
205.849	-56.49
206.068	54.1
206.287	-7.34
206.505	47.96
206.724	-27.82
206.943	39.76
207.162	27.48
207.381	19.29
207.599	23.38
207.818	-5.29
208.037	-19.63
208.255	58.2
208.474	-25.77
208.693	15.19
208.911	0.85
209.13	74.58
209.349	-7.34
209.567	17.24
209.786	-21.67
210.005	29.52
210.223	33.62
210.442	19.29
210.661	35.67
210.879	-19.63
211.098	0.85
211.316	31.57
211.535	43.86
211.753	23.38
211.972	-19.63
212.191	-33.96
212.409	37.72
212.628	17.24
212.846	-15.53
213.065	29.52
213.283	25.43
213.502	15.19
213.72	68.44
213.938	23.38
214.157	-68.78
214.375	-40.11
214.594	-9.39
214.812	27.48
215.031	-1.19
215.249	25.43
215.467	-1.19
215.686	-27.82
215.904	41.81
216.122	56.15
216.341	15.19
216.559	-3.24
216.778	-42.15
216.996	-3.24
217.214	-23.72
217.432	-36.01
217.651	-21.67
217.869	64.34
218.087	23.38
218.306	80.72
218.524	15.19
218.742	-25.77
218.96	82.77
219.179	-23.72
219.397	-21.67
219.615	66.39
219.833	-3.24
220.051	7
220.27	-5.29
220.488	41.81
220.706	-31.91
220.924	17.24
221.142	33.62
221.36	33.62
221.578	4.95
221.796	-21.67
222.015	-11.43
222.233	47.96
222.451	31.57
222.669	2.9
222.887	-38.06
223.105	-44.2
223.323	31.57
223.541	-7.34
223.759	66.39
223.977	0.85
224.195	64.34
224.413	23.38
224.631	-23.72
224.849	17.24
225.067	47.96
225.285	-27.82
225.503	33.62
225.721	-1.19
225.939	41.81
226.157	-5.29
226.375	45.91
226.592	-1.19
226.81	2.9
227.028	41.81
227.246	84.82
227.464	15.19
227.682	9.05
227.9	-17.58
228.117	11.09
228.335	4.95
228.553	15.19
228.771	37.72
228.989	19.29
229.206	41.81
229.424	43.86
229.642	-1.19
229.86	-46.25
230.077	99.16
230.295	0.85
230.513	45.91
230.731	-36.01
230.948	41.81
231.166	-21.67
231.384	0.85
231.601	-15.53
231.819	74.58
232.037	56.15
232.254	-36.01
232.472	21.33
232.689	-58.54
232.907	45.91
233.125	74.58
233.342	-29.87
233.56	23.38
233.777	2.9
233.995	-23.72
234.213	33.62
234.43	43.86
234.648	-1.19
234.865	-50.35
235.083	33.62
235.3	0.85
235.518	-56.49
235.735	-23.72
235.953	13.14
236.17	7
236.388	-1.19
236.605	41.81
236.822	64.34
237.04	17.24
237.257	25.43
237.475	-7.34
237.692	43.86
237.909	-1.19
238.127	35.67
238.344	25.43
238.562	-3.24
238.779	-7.34
238.996	21.33
239.214	-5.29
239.431	-1.19
239.648	-15.53
239.865	27.48
240.083	-3.24
240.3	11.09
240.517	9.05
240.735	-9.39
240.952	-17.58
241.169	-3.24
241.386	45.91
241.603	-3.24
241.821	9.05
242.038	74.58
242.255	-9.39
242.472	41.81
242.689	119.64
242.907	7
243.124	41.81
243.341	25.43
243.558	23.38
243.775	-23.72
243.992	-25.77
244.209	41.81
244.426	86.87
244.643	43.86
244.86	-23.72
245.078	72.53
245.295	-7.34
245.512	13.14
245.729	-42.15
245.946	56.15
246.163	31.57
246.38	17.24
246.597	27.48
246.814	52.05
247.031	9.05
247.248	43.86
247.464	121.68
247.681	29.52
247.898	7
248.115	31.57
248.332	66.39
248.549	84.82
248.766	0.85
248.983	39.76
249.2	-1.19
249.417	56.15
249.633	-25.77
249.85	21.33
250.067	-3.24
250.284	33.62
250.501	21.33
250.717	62.29
250.934	-31.91
251.151	13.14
251.368	50
251.585	64.34
251.801	45.91
252.018	0.85
252.235	27.48
252.451	21.33
252.668	-11.43
252.885	82.77
253.102	31.57
253.318	58.2
253.535	-15.53
253.752	2.9
253.968	47.96
254.185	4.95
254.401	95.06
254.618	0.85
254.835	31.57
255.051	54.1
255.268	-23.72
255.484	127.83
255.701	25.43
255.917	-21.67
256.134	-44.2
256.351	-1.19
256.567	-17.58
256.784	-3.24
257	80.72
257.217	15.19
257.433	-17.58
257.65	-56.49
257.866	-31.91
258.082	-119.98
258.299	-17.58
258.515	56.15
258.732	54.1
258.948	82.77
259.165	-7.34
259.381	17.24
259.597	47.96
259.814	-38.06
260.03	54.1
260.246	4.95
260.463	0.85
260.679	4.95
260.895	15.19
261.112	-7.34
261.328	-31.91
261.544	78.68
261.761	72.53
261.977	56.15
262.193	-42.15
262.409	-38.06
262.626	39.76
262.842	127.83
263.058	0.85
263.274	37.72
263.49	-31.91
263.707	25.43
263.923	25.43
264.139	11.09
264.355	39.76
264.571	9.05
264.787	0.85
265.004	33.62
265.22	-21.67
265.436	31.57
265.652	-31.91
265.868	15.19
266.084	52.05
266.3	-1.19
266.516	43.86
266.732	-3.24
266.948	-29.87
267.164	-11.43
267.38	50
267.596	58.2
267.812	47.96
268.028	47.96
268.244	-5.29
268.46	15.19
268.676	25.43
268.892	37.72
269.108	-11.43
269.324	13.14
269.54	68.44
269.756	119.64
269.972	25.43
270.188	-58.54
270.403	0.85
270.619	39.76
270.835	29.52
271.051	62.29
271.267	13.14
271.483	-33.96
271.698	-60.59
271.914	7
272.13	0.85
272.346	52.05
272.562	50
272.777	23.38
272.993	-42.15
273.209	25.43
273.425	-11.43
273.64	33.62
273.856	15.19
274.072	41.81
274.287	31.57
274.503	11.09
274.719	9.05
274.934	-64.68
275.15	7
275.366	7
275.581	41.81
275.797	15.19
276.012	-36.01
276.228	-36.01
276.444	-19.63
276.659	33.62
276.875	-40.11
277.09	2.9
277.306	25.43
277.521	23.38
277.737	37.72
277.952	56.15
278.168	-40.11
278.383	35.67
278.599	13.14
278.814	29.52
279.03	31.57
279.245	2.9
279.461	50
279.676	0.85
279.892	-83.11
280.107	-19.63
280.322	7
280.538	29.52
280.753	31.57
280.969	21.33
281.184	-44.2
281.399	33.62
281.615	7
281.83	2.9
282.045	-33.96
282.26	-31.91
282.476	70.48
282.691	66.39
282.906	-25.77
283.122	68.44
283.337	19.29
283.552	52.05
283.767	-9.39
283.983	39.76
284.198	39.76
284.413	84.82
284.628	-17.58
284.843	-27.82
285.058	-52.39
285.274	29.52
285.489	39.76
285.704	58.2
285.919	19.29
286.134	47.96
286.349	88.92
286.564	25.43
286.779	31.57
286.995	105.3
287.21	-11.43
287.425	-9.39
287.64	-31.91
287.855	25.43
288.07	4.95
288.285	27.48
288.5	41.81
288.715	119.64
288.93	0.85
289.145	70.48
289.36	-5.29
289.575	-87.21
289.79	27.48
290.004	19.29
290.219	41.81
290.434	60.24
290.649	39.76
290.864	37.72
291.079	9.05
291.294	-9.39
291.509	31.57
291.724	-9.39
291.938	-21.67
292.153	21.33
292.368	60.24
292.583	-5.29
292.798	47.96
293.012	23.38
293.227	9.05
293.442	47.96
293.657	9.05
293.871	31.57
294.086	45.91
294.301	0.85
294.516	27.48
294.73	54.1
294.945	-3.24
295.16	88.92
295.374	52.05
295.589	15.19
295.804	17.24
296.018	11.09
296.233	41.81
296.447	47.96
296.662	-38.06
296.877	-5.29
297.091	60.24
297.306	13.14
297.52	-3.24
297.735	-7.34
297.949	4.95
298.164	29.52
298.378	15.19
298.593	-17.58
298.807	74.58
299.022	29.52
299.236	23.38
299.451	-11.43
299.665	56.15
299.88	88.92
300.094	-23.72
300.309	-29.87
300.523	-3.24
300.737	41.81
300.952	45.91
301.166	2.9
301.381	19.29
301.595	-1.19
301.809	41.81
302.024	-23.72
302.238	62.29
302.452	21.33
302.667	41.81
302.881	52.05
303.095	25.43
303.309	50
303.524	15.19
303.738	78.68
303.952	-29.87
304.166	2.9
304.381	23.38
304.595	35.67
304.809	-5.29
305.023	0.85
305.237	41.81
305.452	62.29
305.666	50
305.88	74.58
306.094	-29.87
306.308	86.87
306.522	29.52
306.736	64.34
306.95	13.14
307.164	21.33
307.379	172.88
307.593	86.87
307.807	25.43
308.021	27.48
308.235	68.44
308.449	-1.19
308.663	-25.77
308.877	70.48
309.091	-11.43
309.305	37.72
309.519	56.15
309.733	-3.24
309.947	25.43
310.161	7
310.374	54.1
310.588	93.01
310.802	-7.34
311.016	37.72
311.23	70.48
311.444	-1.19
311.658	-40.11
311.872	113.49
312.085	72.53
312.299	64.34
312.513	95.06
312.727	45.91
312.941	2.9
313.154	0.85
313.368	-23.72
313.582	19.29
313.796	43.86
314.009	27.48
314.223	4.95
314.437	-23.72
314.651	64.34
314.864	23.38
315.078	39.76
315.292	37.72
315.505	-31.91
315.719	21.33
315.933	13.14
316.146	25.43
316.36	9.05
316.573	-9.39
316.787	35.67
317.001	29.52
317.214	17.24
317.428	-3.24
317.641	50
317.855	-29.87
318.068	-23.72
318.282	17.24
318.495	4.95
318.709	78.68
318.922	19.29
319.136	76.63
319.349	-25.77
319.563	4.95
319.776	99.16
319.99	33.62
320.203	58.2
320.417	17.24
320.63	-1.19
320.843	39.76
321.057	107.35
321.27	0.85
321.483	-1.19
321.697	-7.34
321.91	13.14
322.124	86.87
322.337	23.38
322.55	35.67
322.763	58.2
322.977	-5.29
323.19	-33.96
323.403	-7.34
323.617	37.72
323.83	21.33
324.043	56.15
324.256	-27.82
324.469	-54.44
324.683	78.68
324.896	86.87
325.109	23.38
325.322	-15.53
325.535	23.38
325.748	-1.19
325.962	47.96
326.175	21.33
326.388	4.95
326.601	-19.63
326.814	33.62
327.027	37.72
327.24	70.48
327.453	-56.49
327.666	-5.29
327.879	-7.34
328.092	7
328.305	0.85
328.518	-29.87
328.731	-7.34
328.944	-17.58
329.157	-13.48
329.37	-13.48
329.583	90.96
329.796	23.38
330.009	45.91
330.222	52.05
330.435	0.85
330.648	74.58
330.861	19.29
331.073	80.72
331.286	72.53
331.499	-1.19
331.712	13.14
331.925	31.57
332.138	47.96
332.35	93.01
332.563	52.05
332.776	64.34
332.989	-42.15
333.202	-5.29
333.414	9.05
333.627	33.62
333.84	-19.63
334.053	47.96
334.265	-3.24
334.478	25.43
334.691	-46.25
334.903	47.96
335.116	-58.54
335.329	33.62
335.541	15.19
335.754	9.05
335.966	58.2
336.179	29.52
336.392	-5.29
336.604	-9.39
336.817	19.29
337.029	99.16
337.242	41.81
337.454	-40.11
337.667	31.57
337.88	54.1
338.092	93.01
338.305	37.72
338.517	93.01
338.729	60.24
338.942	64.34
339.154	58.2
339.367	-58.54
339.579	15.19
339.792	-46.25
340.004	107.35
340.217	-3.24
340.429	13.14
340.641	25.43
340.854	17.24
341.066	-11.43
341.278	74.58
341.491	72.53
341.703	29.52
341.915	17.24
342.128	-3.24
342.34	107.35
342.552	19.29
342.764	9.05
342.977	0.85
343.189	-3.24
343.401	23.38
343.613	-21.67
343.826	-33.96
344.038	27.48
344.25	25.43
344.462	21.33
344.674	-9.39
344.886	-15.53
345.099	35.67
345.311	-38.06
345.523	19.29
345.735	-40.11
345.947	-11.43
346.159	33.62
346.371	37.72
346.583	-52.39
346.795	72.53
347.007	23.38
347.219	43.86
347.431	37.72
347.643	93.01
347.855	-11.43
348.067	78.68
348.279	-19.63
348.491	66.39
348.703	23.38
348.915	-3.24
349.127	-31.91
349.339	47.96
349.551	23.38
349.763	11.09
349.975	-15.53
350.187	39.76
350.399	82.77
350.61	95.06
350.822	41.81
351.034	41.81
351.246	119.64
351.458	76.63
351.669	54.1
351.881	-9.39
352.093	45.91
352.305	54.1
352.517	31.57
352.728	58.2
352.94	68.44
353.152	58.2
353.363	39.76
353.575	-5.29
353.787	76.63
353.999	45.91
354.21	25.43
354.422	0.85
354.633	72.53
354.845	78.68
355.057	-9.39
355.268	29.52
355.48	56.15
355.692	56.15
355.903	4.95
356.115	27.48
356.326	33.62
356.538	33.62
356.749	41.81
356.961	76.63
357.172	39.76
357.384	-3.24
357.595	23.38
357.807	21.33
358.018	7
358.23	31.57
358.441	31.57
358.653	90.96
358.864	-58.54
359.075	82.77
359.287	7
359.498	54.1
359.709	47.96
359.921	50
360.132	29.52
360.344	-19.63
360.555	54.1
360.766	72.53
360.977	-1.19
361.189	-5.29
361.4	25.43
361.611	33.62
361.823	80.72
362.034	17.24
362.245	70.48
362.456	-15.53
362.667	17.24
362.879	31.57
363.09	47.96
363.301	47.96
363.512	15.19
363.723	13.14
363.935	31.57
364.146	37.72
364.357	9.05
364.568	33.62
364.779	9.05
364.99	82.77
365.201	2.9
365.412	88.92
365.623	39.76
365.834	9.05
366.045	72.53
366.256	21.33
366.467	17.24
366.678	50
366.889	25.43
367.1	50
367.311	-1.19
367.522	80.72
367.733	31.57
367.944	25.43
368.155	72.53
368.366	25.43
368.577	7
368.788	50
368.999	80.72
369.209	31.57
369.42	-11.43
369.631	39.76
369.842	29.52
370.053	123.73
370.264	43.86
370.474	-15.53
370.685	58.2
370.896	9.05
371.107	95.06
371.317	35.67
371.528	58.2
371.739	7
371.95	45.91
372.16	82.77
372.371	-5.29
372.582	113.49
372.792	54.1
373.003	-23.72
373.214	78.68
373.424	62.29
373.635	4.95
373.846	33.62
374.056	17.24
374.267	56.15
374.477	11.09
374.688	39.76
374.898	11.09
375.109	33.62
375.319	37.72
375.53	93.01
375.74	90.96
375.951	-33.96
376.161	25.43
376.372	107.35
376.582	4.95
376.793	74.58
377.003	7
377.214	-15.53
377.424	107.35
377.635	60.24
377.845	-1.19
378.055	99.16
378.266	47.96
378.476	31.57
378.686	41.81
378.897	25.43
379.107	-1.19
379.317	131.92
379.528	-19.63
379.738	93.01
379.948	-58.54
380.158	107.35
380.369	29.52
380.579	70.48
380.789	68.44
380.999	72.53
381.21	68.44
381.42	9.05
381.63	70.48
381.84	-33.96
382.05	9.05
382.261	58.2
382.471	60.24
382.681	-15.53
382.891	56.15
383.101	-42.15
383.311	-15.53
383.521	11.09
383.731	4.95
383.941	60.24
384.151	27.48
384.361	41.81
384.571	66.39
384.781	76.63
384.991	113.49
385.201	121.68
385.411	58.2
385.621	47.96
385.831	-58.54
386.041	27.48
386.251	19.29
386.461	64.34
386.671	41.81
386.881	-17.58
387.091	103.25
387.301	121.68
387.511	66.39
387.72	111.44
387.93	0.85
388.14	-58.54
388.35	-7.34
388.56	-3.24
388.769	148.31
388.979	37.72
389.189	39.76
389.399	64.34
389.609	123.73
389.818	47.96
390.028	109.4
390.238	52.05
390.447	82.77
390.657	29.52
390.867	39.76
391.076	90.96
391.286	43.86
391.496	25.43
391.705	58.2
391.915	17.24
392.125	50
392.334	15.19
392.544	107.35
392.753	80.72
392.963	107.35
393.172	56.15
393.382	47.96
393.591	78.68
393.801	62.29
394.01	123.73
394.22	50
394.429	35.67
394.639	25.43
394.848	54.1
395.058	29.52
395.267	152.4
395.477	33.62
395.686	99.16
395.895	84.82
396.105	138.07
396.314	54.1
396.524	-7.34
396.733	47.96
396.942	148.31
397.152	109.4
397.361	47.96
397.57	168.79
397.78	131.92
397.989	107.35
398.198	39.76
398.407	52.05
398.617	78.68
398.826	97.11
399.035	76.63
399.244	33.62
399.453	62.29
399.663	2.9
399.872	136.02
400.081	43.86
400.29	33.62
400.499	107.35
400.708	82.77
400.917	93.01
401.127	82.77
401.336	123.73
401.545	103.25
401.754	90.96
401.963	97.11
402.172	37.72
402.381	105.3
402.59	140.12
402.799	43.86
403.008	90.96
403.217	41.81
403.426	203.6
403.635	131.92
403.844	127.83
404.053	156.5
404.262	72.53
404.471	162.64
404.68	142.16
404.888	174.93
405.097	138.07
405.306	179.03
405.515	148.31
405.724	148.31
405.933	154.45
406.142	131.92
406.35	56.15
406.559	179.03
406.768	193.36
406.977	148.31
407.185	144.21
407.394	217.94
407.603	142.16
407.812	277.33
408.02	252.75
408.229	172.88
408.438	172.88
408.646	125.78
408.855	248.66
409.064	222.03
409.272	136.02
409.481	275.28
409.69	277.33
409.898	299.86
410.107	260.95
410.315	262.99
410.524	228.18
410.733	267.09
410.941	340.82
411.15	359.25
411.358	301.9
411.567	330.58
411.775	269.14
411.984	373.58
412.192	392.02
412.401	435.02
412.609	406.35
412.818	414.54
413.026	383.82
413.234	400.21
413.443	516.94
413.651	463.69
413.86	508.75
414.068	539.47
414.276	525.13
414.485	549.71
414.693	559.95
414.901	584.52
415.11	674.64
415.318	664.4
415.526	639.82
415.734	701.26
415.943	697.16
416.151	666.44
416.359	787.27
416.567	748.36
416.776	748.36
416.984	734.03
417.192	850.76
417.4	834.38
417.608	877.38
417.817	959.3
418.025	1000.26
418.233	1049.41
418.441	936.78
418.649	1073.99
418.857	1137.48
419.065	1213.25
419.273	1129.28
419.481	1280.83
419.689	1262.4
419.897	1266.5
420.105	1454.91
420.313	1442.62
420.521	1463.1
420.729	1407.81
420.937	1581.89
421.145	1614.65
421.353	1688.38
421.561	1745.72
421.769	1758.01
421.977	1809.21
422.185	1833.79
422.393	1862.46
422.601	1909.56
422.809	1999.67
423.017	1925.94
423.224	2071.35
423.432	2140.98
423.64	2278.19
423.848	2378.55
424.056	2394.93
424.263	2509.62
424.471	2597.68
424.679	2601.77
424.887	2816.81
425.094	2876.2
425.302	2812.71
425.51	2927.4
425.718	2937.64
425.925	3085.09
426.133	3099.43
426.341	3322.66
426.548	3543.84
426.756	3531.55
426.964	3545.89
427.171	3724.06
427.379	3767.07
427.586	3928.86
427.794	4125.46
428.001	4158.23
428.209	4295.44
428.417	4301.59
428.624	4582.16
428.832	4653.84
429.039	4573.97
429.247	4651.79
429.454	4975.37
429.662	5311.24
429.869	5059.34
430.076	5368.58
430.284	5317.38
430.491	5581.57
430.699	5724.93
430.906	5683.97
431.114	5868.28
431.321	6122.23
431.528	6181.62
431.736	6787.82
431.943	6888.17
432.15	6730.48
432.358	6853.36
432.565	7185.13
432.772	7103.21
432.979	7504.61
433.187	7662.3
433.394	7488.23
433.601	8313.56
433.808	8047.32
434.016	8299.22
434.223	8516.31
434.43	8977.1
434.637	8671.95
434.844	9288.39
435.052	9702.08
435.259	9517.76
435.466	9618.11
435.673	9349.83
435.88	10347.19
436.087	10666.67
436.294	10666.67
436.501	10169.02
436.708	10545.84
436.915	10867.38
437.122	11502.25
437.329	11346.6
437.537	11883.17
437.743	11940.51
437.95	11905.7
438.157	12395.16
438.364	12925.58
438.571	12911.25
438.778	13021.84
438.985	14277.24
439.192	13490.82
439.399	14189.18
439.606	13802.11
439.813	14680.69
440.02	15450.73
440.227	15053.42
440.433	15157.87
440.64	15354.48
440.847	15436.39
441.054	15825.51
441.261	16955.99
441.467	16648.79
441.674	17203.79
441.881	17427.02
442.088	17424.97
442.294	17197.65
442.501	17889.86
442.708	18217.54
442.914	18795.06
443.121	19673.64
443.328	18975.28
443.534	20423.2
443.741	19980.84
443.948	19671.59
444.154	21238.29
444.361	20881.94
444.568	20922.9
444.774	21094.93
444.981	21301.78
445.187	21989.89
445.394	23075.32
445.6	22530.56
445.807	24496.61
446.013	23751.15
446.22	24007.14
446.426	24988.12
446.633	25133.53
446.839	26251.72
447.046	25221.59
447.252	26546.62
447.459	26569.15
447.665	26229.19
447.871	27720.11
448.078	28770.72
448.284	27257.27
448.491	27902.38
448.697	29569.43
448.903	29606.29
449.11	29854.09
449.316	29258.13
449.522	29651.34
449.728	30630.27
449.935	30628.23
450.141	30654.85
450.347	31601.01
450.553	30249.35
450.76	30914.94
450.966	31676.79
451.172	31596.92
451.378	32581.99
451.584	31369.59
451.791	32067.95
451.997	32315.75
452.203	32518.5
452.409	32627.04
452.615	32876.9
452.821	31338.87
453.027	31062.4
453.233	32854.37
453.44	31396.21
453.646	31748.46
453.852	31748.46
454.058	32307.56
454.264	31172.99
454.47	32088.43
454.676	31428.98
454.882	32070
455.088	29579.67
455.294	30038.41
455.5	30171.53
455.705	30847.36
455.911	29616.53
456.117	28627.36
456.323	28471.71
456.529	26644.93
456.735	28205.48
456.941	27265.46
457.147	26646.97
457.352	26374.59
457.558	25545.17
457.764	26030.54
457.97	25346.51
458.176	24666.59
458.381	24764.89
458.587	23507.44
458.793	23794.15
458.999	22018.57
459.204	23642.6
459.41	23484.91
459.616	21793.29
459.821	21752.33
460.027	21799.43
460.233	21101.08
460.438	20531.74
460.644	20372
460.85	19522.09
461.055	19126.83
461.261	19284.53
461.466	17730.12
461.672	17244.75
461.878	18569.79
462.083	17279.57
462.289	16876.12
462.494	16792.15
462.7	16130.66
462.905	15800.93
463.111	16185.95
463.316	16237.15
463.522	15762.02
463.727	15911.52
463.932	16079.46
464.138	15796.84
464.343	15643.24
464.549	15356.52
464.754	15792.74
464.959	15633
465.165	15526.5
465.37	15022.7
465.575	14500.47
465.781	15053.42
465.986	15170.16
466.191	14666.36
466.397	14293.63
466.602	13738.63
466.807	14152.32
467.012	14146.17
467.218	14350.97
467.423	13963.9
467.628	13955.71
467.833	14568.06
468.038	14125.69
468.244	13861.51
468.449	14168.7
468.654	13742.72
468.859	13511.3
469.064	13503.11
469.269	13036.17
469.474	13001.36
469.679	13607.56
469.885	13062.8
470.09	13236.88
470.295	13179.53
470.5	12657.3
470.705	12982.93
470.91	12401.3
471.115	12382.87
471.32	12733.08
471.525	12604.05
471.73	12325.53
471.935	12241.56
472.139	11840.16
472.344	12044.96
472.549	11825.82
472.754	11610.79
472.959	11481.77
473.164	11379.37
473.369	11465.38
473.574	11559.59
473.778	11317.93
473.983	11207.34
474.188	11276.97
474.393	10625.72
474.598	10711.73
474.802	10732.21
475.007	10472.12
475.212	10537.65
475.417	10341.05
475.621	10076.86
475.826	10326.71
476.031	10046.14
476.235	9822.91
476.44	10019.52
476.645	9775.81
476.849	9700.03
477.054	9591.49
477.259	9542.34
477.463	9552.58
477.668	9353.93
477.872	9274.06
478.077	9306.82
478.282	9179.85
478.486	9036.49
478.691	9011.92
478.895	9065.16
479.1	9132.75
479.304	8946.38
479.509	8760.02
479.713	9059.02
479.918	8405.72
480.122	8407.77
480.326	8700.62
480.531	8706.77
480.735	8272.6
480.94	8688.34
481.144	8735.44
481.348	8325.85
481.553	8577.75
481.757	8180.44
481.961	8233.69
482.166	8471.25
482.37	8454.87
482.574	8114.91
482.778	8223.45
482.983	8495.83
483.187	8139.48
483.391	8418
483.595	8307.41
483.8	8159.96
484.004	8182.49
484.208	8293.08
484.412	8078.04
484.616	8270.55
484.821	8336.09
485.025	8125.15
485.229	8377.05
485.433	8270.55
485.637	8325.85
485.841	8243.93
486.045	8276.7
486.249	8305.37
486.453	8241.88
486.657	8385.24
486.861	8399.57
487.065	8032.99
487.269	8409.81
487.473	8186.58
487.677	8340.18
487.881	8268.5
488.085	8266.46
488.289	8499.92
488.493	8370.9
488.697	8266.46
488.901	8295.13
489.105	8205.02
489.309	8524.5
489.512	8227.54
489.716	8418
489.92	8327.89
490.124	8381.14
490.328	8581.84
490.531	8569.55
490.735	8393.43
490.939	8649.43
491.143	8413.91
491.346	8655.57
491.55	8530.64
491.754	8848.08
491.958	8714.96
492.161	8616.66
492.365	8745.68
492.569	8880.85
492.772	8729.3
492.976	8784.59
493.18	8880.85
493.383	8995.53
493.587	8932.05
493.79	9087.69
493.994	8956.62
494.197	9173.71
494.401	9304.78
494.605	9255.62
494.808	9366.21
495.012	9405.13
495.215	9403.08
495.419	9601.73
495.622	9448.13
495.825	9632.45
496.029	9544.39
496.232	9806.53
496.436	9781.95
496.639	9941.69
496.843	9923.26
497.046	10293.94
497.249	10160.83
497.453	10252.98
497.656	10392.25
497.859	10390.2
498.063	10390.2
498.266	10848.94
498.469	10754.74
498.673	10971.82
498.876	11049.64
499.079	11121.32
499.282	11098.8
499.485	11477.67
499.689	11465.38
499.892	11602.6
500.095	11600.55
500.298	12092.06
500.501	11940.51
500.705	12024.48
500.908	12374.68
501.111	12372.63
501.314	12495.51
501.517	12432.02
501.72	12767.89
501.923	12788.37
502.126	13040.27
502.329	13341.32
502.532	13277.83
502.735	13249.16
502.938	13863.55
503.141	13785.73
503.344	13937.28
503.547	14039.68
503.75	14314.11
503.953	14350.97
504.156	14479.99
504.359	14406.27
504.562	14783.09
504.765	14912.11
504.968	15381.1
505.17	15331.95
505.373	15356.52
505.576	15669.86
505.779	16022.11
505.982	15958.63
506.185	16421.47
506.387	16296.54
506.59	16575.06
506.793	16763.48
506.996	16558.68
507.198	17332.81
507.401	17099.34
507.604	17343.05
507.807	17695.3
508.009	17758.79
508.212	18307.65
508.415	18002.5
508.617	18401.85
508.82	18582.07
509.022	18408
509.225	19022.39
509.428	18885.17
509.63	19169.84
509.833	19272.24
510.035	19743.27
510.238	19614.25
510.44	20056.61
510.643	20331.04
510.845	20531.74
511.048	20312.61
511.25	20754.97
511.453	20630.04
511.655	21406.22
511.858	21545.48
512.06	21725.71
512.262	21989.89
512.465	21651.98
512.667	22049.28
512.87	22729.21
513.072	22567.42
513.274	22821.37
513.477	23187.96
513.679	23327.22
513.881	23339.51
514.084	23384.56
514.286	23650.8
514.488	23978.47
514.69	24771.04
514.893	24713.69
515.095	25008.6
515.297	24889.82
515.499	24836.57
515.701	25921.99
515.904	25868.75
516.106	26255.81
516.308	26120.65
516.51	26546.62
516.712	26548.67
516.914	27027.9
517.116	27353.52
517.318	27363.76
517.52	27890.09
517.722	27771.31
517.925	28045.74
518.127	28686.75
518.329	28670.37
518.531	28457.38
518.733	29249.94
518.935	29499.8
519.136	29364.63
519.338	29680.02
519.54	29962.64
519.742	30448
519.944	30413.19
520.146	30925.18
520.348	31299.96
520.55	31156.6
520.752	31259
520.954	31793.52
521.155	31719.79
521.357	32137.58
521.559	32397.67
521.761	32725.35
521.963	33278.3
522.164	33114.46
522.366	33057.12
522.568	33481.05
522.77	34195.79
522.971	34015.57
523.173	34210.12
523.375	34785.6
523.576	34355.53
523.778	34730.31
523.98	35047.74
524.181	35342.65
524.383	35334.46
524.584	36137.26
524.786	35785.01
524.988	35791.16
525.189	36309.29
525.391	36350.25
525.592	36487.46
525.794	36919.59
525.995	36899.11
526.197	36829.48
526.398	37126.43
526.6	37261.6
526.801	37695.77
527.003	37480.73
527.204	37759.25
527.406	37947.67
527.607	37912.85
527.808	38605.06
528.01	37800.21
528.211	38144.27
528.412	39047.43
528.614	38607.11
528.815	38691.08
529.016	39432.44
529.218	38660.36
529.419	39131.39
529.62	39131.39
529.822	39112.96
530.023	39518.46
530.224	39241.98
530.425	39602.43
530.626	39457.02
530.828	39131.39
531.029	40374.51
531.23	39508.22
531.431	40001.78
531.632	39870.71
531.833	39938.29
532.035	40138.99
532.236	39905.52
532.437	40548.59
532.638	40200.43
532.839	40118.51
533.04	40458.48
533.241	39784.69
533.442	40894.69
533.643	40196.34
533.844	40257.78
534.045	40511.72
534.246	40438
534.447	40636.65
534.648	40294.64
534.849	40235.25
535.05	40560.87
535.251	40876.26
535.451	40388.85
535.652	40646.89
535.853	40259.82
536.054	40659.18
536.255	40597.74
536.456	40474.86
536.657	41128.16
536.857	40175.86
537.058	40257.78
537.259	40847.59
537.46	40747.24
537.66	40642.79
537.861	40728.81
538.062	40761.58
538.263	40732.9
538.463	40343.79
538.664	40481
538.865	40679.66
539.065	41044.2
539.266	40091.89
539.466	40757.48
539.667	40249.58
539.868	41476.32
540.068	40847.59
540.269	40757.48
540.469	40743.14
540.67	40831.21
540.87	40622.31
541.071	40773.86
541.271	40714.47
541.472	40505.58
541.672	40698.09
541.873	40308.97
542.073	40059.12
542.274	40890.6
542.474	40698.09
542.675	40399.08
542.875	40601.83
543.075	40667.37
543.276	40335.6
543.476	40716.52
543.676	40650.99
543.877	40515.82
544.077	40896.74
544.277	40618.22
544.478	40489.2
544.678	40532.2
544.878	40151.28
545.078	40616.17
545.279	40239.34
545.479	40521.96
545.679	41036
545.879	40347.89
546.079	40204.53
546.28	40409.32
546.48	40169.71
546.68	40585.45
546.88	40683.75
547.08	40292.59
547.28	40024.31
547.48	40100.08
547.68	40630.51
547.88	40182
548.081	40665.32
548.281	40630.51
548.481	40308.97
548.681	40622.31
548.881	40433.9
549.081	40349.93
549.28	40214.77
549.48	40296.69
549.68	40118.51
549.88	40798.44
550.08	40444.14
550.28	40825.06
550.48	40263.92
550.68	40583.4
550.88	40169.71
551.08	40446.19
551.279	40087.79
551.479	39770.36
551.679	40360.17
551.879	40042.74
552.079	40507.63
552.278	39913.72
552.478	39758.07
552.678	40401.13
552.878	40265.97
553.077	40073.46
553.277	40202.48
553.477	40786.15
553.676	39856.37
553.876	40026.35
554.076	39889.14
554.275	39868.66
554.475	39717.11
554.674	39583.99
554.874	39887.09
555.074	39768.31
555.273	39725.3
555.473	39909.62
555.672	39672.06
555.872	39190.78
556.071	39811.32
556.271	39981.3
556.47	39000.32
556.67	38711.56
556.869	39579.9
557.068	39454.97
557.268	39262.46
557.467	39223.55
557.667	39448.83
557.866	39184.64
558.065	39213.31
558.265	39168.26
558.464	38891.78
558.663	39450.88
558.863	38732.04
559.062	39176.45
559.261	38727.94
559.461	39074.05
559.66	38627.59
559.859	38750.47
560.058	38283.53
560.258	38590.73
560.457	38181.13
560.656	38660.36
560.855	38246.67
561.054	38467.85
561.253	38050.06
561.453	38443.27
561.652	38086.93
561.851	38545.67
562.05	38172.94
562.249	37951.76
562.448	38050.06
562.647	37951.76
562.846	38168.85
563.045	37830.93
563.244	37302.56
563.443	38095.12
563.642	37325.08
563.841	37343.52
564.04	37517.59
564.239	37706.01
564.438	37228.83
564.637	37480.73
564.836	37286.17
565.035	37142.81
565.234	36952.35
565.432	36774.18
565.631	36712.74
565.83	36935.97
566.029	36765.99
566.228	36632.87
566.427	36307.24
566.625	36337.96
566.824	35920.18
567.023	36620.58
567.222	35940.66
567.42	36434.22
567.619	36206.89
567.818	35932.47
568.016	35711.28
568.215	36434.22
568.414	36030.77
568.612	35592.5
568.811	35809.59
569.01	35658.04
569.208	34916.67
569.407	35430.71
569.605	34793.79
569.804	35234.11
570.002	35111.23
570.201	35735.86
570.4	34947.39
570.598	34378.06
570.797	34677.06
570.995	34601.29
571.193	34224.46
571.392	34754.88
571.59	34197.84
571.789	34382.15
571.987	34052.43
572.186	34130.25
572.384	34091.34
572.582	34191.69
572.781	34279.75
572.979	33630.55
573.177	33685.84
573.376	33677.65
573.574	33401.18
573.772	33544.53
573.971	33458.52
574.169	33155.42
574.367	32876.9
574.565	33276.25
574.763	32940.38
574.962	32780.64
575.16	32553.32
575.358	32731.49
575.556	32528.74
575.754	32876.9
575.952	32422.25
576.151	32332.14
576.349	32348.52
576.547	32162.15
576.745	32311.66
576.943	32098.67
577.141	32094.57
577.339	32422.25
577.537	31918.45
577.735	32231.79
577.933	31590.77
578.131	31943.02
578.329	31418.74
578.527	31349.11
578.725	31461.75
578.923	31435.13
579.121	31203.71
579.319	31195.51
579.516	31494.52
579.714	31189.37
579.912	30753.15
580.11	30818.69
580.308	31091.07
580.506	30929.28
580.704	30278.02
580.901	30544.26
581.099	30708.1
581.297	30251.4
581.495	30503.3
581.692	30271.88
581.89	30206.34
582.088	30228.87
582.285	30245.26
582.483	29786.51
582.681	29669.78
582.878	29739.41
583.076	29624.72
583.274	29886.86
583.471	29317.53
583.669	29489.56
583.866	29383.06
584.064	29469.08
584.262	28918.17
584.459	29553.04
584.657	29012.38
584.854	29163.93
585.052	28432.8
585.249	29020.57
585.447	28840.35
585.644	28518.82
585.841	28621.22
586.039	28703.14
586.236	28219.81
586.434	28637.6
586.631	27990.44
586.828	28471.71
587.026	28228.01
587.223	28225.96
587.42	28035.5
587.618	27920.81
587.815	27996.59
588.012	27875.76
588.21	27691.44
588.407	27693.49
588.604	27351.48
588.801	27390.39
588.999	27271.61
589.196	27630
589.393	27472.31
589.59	27089.34
589.787	26917.31
589.984	27085.24
590.182	26636.73
590.379	26943.93
590.576	26915.26
590.773	27052.47
590.97	26448.32
591.167	26868.16
591.364	26513.86
591.561	26331.59
591.758	26245.57
591.955	26188.23
592.152	26634.69
592.349	26206.66
592.546	25940.43
592.743	26266.05
592.94	25815.5
593.137	25944.52
593.334	25946.57
593.531	25522.64
593.727	25657.81
593.924	25616.85
594.121	25444.82
594.318	25637.33
594.515	25309.65
594.712	25666
594.908	25133.53
595.105	25696.72
595.302	25326.03
595.499	25186.77
595.696	25080.28
595.892	25092.57
596.089	24777.18
596.286	25104.85
596.482	24941.02
596.679	24893.91
596.876	24809.95
597.072	24590.81
597.269	24412.64
597.466	24441.31
597.662	24031.72
597.859	24230.37
598.055	24300
598.252	24076.77
598.448	24087.01
598.645	23980.52
598.841	23665.13
599.038	23964.14
599.234	23794.15
599.431	23351.79
599.627	23642.6
599.824	23712.24
600.02	23392.75
600.217	23540.21
600.413	23263.73
600.609	23171.57
600.806	23108.08
601.002	23130.61
601.198	23224.82
601.395	22917.62
601.591	22977.01
601.787	22753.79
601.984	22721.02
602.18	22931.96
602.376	22553.09
602.572	22596.09
602.769	22440.45
602.965	22436.35
603.161	22663.68
603.357	22350.34
603.553	22120.96
603.75	22532.61
603.946	22057.48
604.142	22325.76
604.338	21977.61
604.534	22268.42
604.73	22102.53
604.926	21815.82
605.122	22129.16
605.318	21737.99
605.514	21574.16
605.71	21355.02
605.906	21662.22
606.102	21447.18
606.298	21508.62
606.494	21377.55
606.69	21551.63
606.886	21305.87
607.082	21299.73
607.278	21244.43
607.474	20988.44
607.67	21355.02
607.866	20630.04
608.062	21172.75
608.257	21105.17
608.453	21000.72
608.649	20881.94
608.845	20795.93
609.041	20851.22
609.236	20814.36
609.432	20869.65
609.628	20849.18
609.824	20718.11
610.019	20642.33
610.215	20513.31
610.411	20480.54
610.606	20140.58
610.802	20576.8
610.998	20429.34
611.193	20560.41
611.389	20347.42
611.584	20292.13
611.78	20193.83
611.976	20195.87
612.171	20236.83
612.367	19941.93
612.562	19986.98
612.758	19847.72
612.953	19659.31
613.149	20126.24
613.344	19747.37
613.539	20173.35
613.735	19712.55
613.93	19970.6
614.126	19728.94
614.321	19610.15
614.517	19675.69
614.712	19536.43
614.907	19669.55
615.103	19839.53
615.298	19534.38
615.493	19728.94
615.688	19249.71
615.884	19913.25
616.079	19241.52
616.274	19405.36
616.47	19493.42
616.665	19251.76
616.86	19268.14
617.055	19327.53
617.25	19178.03
617.445	19182.13
617.641	18747.96
617.836	19190.32
618.031	18801.21
618.226	18760.25
618.421	18811.45
618.616	18770.49
618.811	18551.35
619.006	18633.27
619.201	18504.25
619.396	18526.78
619.591	18244.16
619.786	18526.78
619.981	18260.54
620.176	18209.34
620.371	17908.29
620.566	18264.64
620.761	18096.71
620.956	18254.4
621.151	17916.48
621.346	18002.5
621.541	17699.4
621.735	17848.9
621.93	17558.09
622.125	17351.24
622.32	17445.45
622.515	17373.77
622.709	17222.22
622.904	16898.64
623.099	17046.1
623.294	16869.97
623.488	16753.24
623.683	16919.12
623.878	16747.09
624.072	16958.03
624.267	16554.58
624.462	16513.63
624.656	16382.56
624.851	16403.04
625.046	16378.46
625.24	16290.4
625.435	15809.12
625.629	16177.76
625.824	15845.99
626.018	15874.66
626.213	15503.98
626.407	15745.64
626.602	15583.85
626.796	15594.09
626.991	15536.74
627.185	15401.58
627.38	15489.64
627.574	15178.35
627.768	14969.46
627.963	15161.97
628.157	14801.52
628.352	15043.18
628.546	14848.63
628.74	14785.14
628.935	14541.43
629.129	14832.24
629.323	14441.08
629.517	14469.75
629.712	14113.41
629.906	14262.91
630.1	14064.25
630.294	14269.05
630.489	13982.34
630.683	14045.82
630.877	13994.62
631.071	13826.69
631.265	13724.29
631.459	13691.52
631.653	13734.53
631.848	13599.37
632.042	13392.52
632.236	13705.86
632.43	13181.58
632.624	13402.76
632.818	13316.75
633.012	13124.24
633.206	13077.13
633.4	13087.37
633.594	12745.36
633.788	12972.69
633.982	12696.21
634.176	12728.98
634.369	12728.98
634.563	12397.21
634.757	12733.08
634.951	12632.72
635.145	12483.22
635.339	12423.83
635.533	12460.7
635.726	12346.01
635.92	12051.1
636.114	12167.84
636.308	11954.85
636.501	12049.05
636.695	11895.46
636.889	11864.74
637.083	12010.14
637.276	11645.6
637.47	11661.99
637.664	11559.59
637.857	11659.94
638.051	11614.88
638.244	11340.46
638.438	11604.64
638.632	11297.45
638.825	11287.21
639.019	11209.39
639.212	11408.04
639.406	11211.43
639.599	11145.9
639.793	11078.32
639.986	10977.97
640.18	10834.61
640.373	10910.38
640.567	10640.05
640.76	10642.1
640.954	10527.41
641.147	10562.23
641.34	10494.65
641.534	10564.28
641.727	10361.53
641.92	10377.91
642.114	10328.76
642.307	10142.39
642.5	10199.74
642.694	10001.08
642.887	9960.13
643.08	10138.3
643.273	10013.37
643.467	9822.91
643.66	9630.4
643.853	9734.85
644.046	9872.06
644.239	9906.88
644.432	9573.06
644.626	9683.65
644.819	9700.03
645.012	9603.78
645.205	9712.32
645.398	9444.04
645.591	9239.24
645.784	9284.3
645.977	9149.13
646.17	9093.83
646.363	8975.05
646.556	8995.53
646.749	9032.4
646.942	9120.46
647.135	8874.7
647.328	8895.18
647.521	8970.96
647.714	8796.88
647.907	8835.79
648.099	8768.21
648.292	8518.36
648.485	8581.84
648.678	8389.33
648.871	8622.8
649.064	8444.63
649.256	8499.92
649.449	8446.68
649.642	8426.2
649.835	8426.2
650.027	8303.32
650.22	8176.34
650.413	8147.67
650.605	8266.46
650.798	8166.1
650.991	8075.99
651.183	7946.97
651.376	8018.65
651.568	8012.51
651.761	7828.19
651.954	7768.8
652.146	7787.23
652.339	7807.71
652.531	7817.95
652.724	7693.02
652.916	7604.96
653.109	7451.36
653.301	7598.82
653.494	7586.53
653.686	7256.81
653.879	7371.49
654.071	7414.5
654.263	7412.45
654.456	7312.1
654.648	7418.6
654.84	7314.15
655.033	7267.05
655.225	7164.65
655.417	7221.99
655.61	7371.49
655.802	6984.43
655.994	6996.71
656.186	6994.67
656.379	7133.93
656.571	7052.01
656.763	6843.12
656.955	6853.36
657.148	6841.07
657.34	6816.49
657.532	6806.25
657.724	6767.34
657.916	6755.05
658.108	6578.93
658.3	6628.08
658.492	6615.79
658.684	6546.16
658.876	6607.6
659.068	6589.17
659.26	6503.15
659.452	6468.34
659.644	6367.99
659.836	6288.12
660.028	6337.27
660.22	6335.22
660.412	6435.57
660.604	6171.38
660.796	6232.82
660.988	6054.65
661.18	6228.73
661.372	6169.34
661.563	6167.29
661.755	5892.86
661.947	6068.98
662.139	5899
662.331	5896.96
662.522	5747.45
662.714	5706.49
662.906	5776.13
663.097	5712.64
663.289	5823.23
663.481	5653.25
663.673	5837.56
663.864	5743.36
664.056	5712.64
664.247	5636.86
664.439	5632.77
664.631	5591.81
664.822	5673.73
665.014	5581.57
665.205	5491.46
665.397	5528.32
665.588	5511.94
665.78	5327.62
665.971	5331.72
666.163	5366.53
666.354	5395.2
666.546	5356.29
666.737	5231.37
666.929	5333.76
667.12	5174.02
667.311	5395.2
667.503	5143.3
667.694	5284.61
667.885	5217.03
668.077	5122.82
668.268	4965.13
668.459	5182.21
668.651	4961.03
668.842	5049.1
669.033	4832.01
669.224	4985.61
669.416	4909.83
669.607	4977.42
669.798	4825.87
669.989	4958.99
670.18	4778.76
670.371	4903.69
670.563	4795.15
670.754	4981.51
670.945	4885.26
671.136	4784.91
671.327	4698.89
671.518	4897.55
671.709	4637.45
671.9	4784.91
672.091	4698.89
672.282	4758.28
672.473	4473.62
672.664	4567.82
672.855	4500.24
673.046	4346.64
673.237	4508.43
673.428	4477.71
673.619	4297.49
673.809	4625.17
674	4498.19
674.191	4317.97
674.382	4309.78
674.573	4360.98
674.764	4289.3
674.954	4336.4
675.145	4381.46
675.336	4309.78
675.527	4322.07
675.717	4393.75
675.908	4244.24
676.099	4248.34
676.289	4371.22
676.48	4297.49
676.671	4209.43
676.861	4227.86
677.052	4102.93
677.243	4184.85
677.433	4178.71
677.624	4070.17
677.814	4090.65
678.005	4082.46
678.195	4117.27
678.386	4289.3
678.576	4008.73
678.767	3951.39
678.957	4049.69
679.148	4109.08
679.338	3932.95
679.529	3951.39
679.719	3932.95
679.909	4141.85
680.1	3918.62
680.29	3767.07
680.481	3943.19
680.671	4068.12
680.861	3908.38
681.052	3818.27
681.242	3861.27
681.432	3881.75
681.622	3924.76
681.813	3799.84
682.003	3797.79
682.193	3748.64
682.383	3767.07
682.573	3748.64
682.764	3754.78
682.954	3791.64
683.144	3863.32
683.334	3762.97
683.524	3781.4
683.714	3724.06
683.904	3826.46
684.094	3756.83
684.284	3818.27
684.474	3656.48
684.664	3722.01
684.854	3674.91
685.044	3654.43
685.234	3582.75
685.424	3617.57
685.614	3666.72
685.804	3527.46
685.994	3697.44
686.184	3732.25
686.374	3674.91
686.564	3494.69
686.753	3656.48
686.943	3506.98
687.133	3433.25
687.323	3445.54
687.513	3396.39
687.702	3461.92
687.892	3537.7
688.082	3367.71
688.272	3613.47
688.461	3445.54
688.651	3339.04
688.841	3345.19
689.03	3406.63
689.22	3279.65
689.41	3330.85
689.599	3341.09
689.789	3308.32
689.979	3236.64
690.168	3423.01
690.358	3461.92
690.547	3398.43
690.737	3423.01
690.926	3304.23
691.116	3216.16
691.305	3171.11
691.495	3177.25
691.684	3199.78
691.874	3175.2
692.063	3199.78
692.252	3070.76
692.442	3187.49
692.631	3072.81
692.82	3150.63
693.01	2964.26
693.199	3066.66
693.388	3103.53
693.578	3115.81
693.767	2997.03
693.956	3033.9
694.146	3066.66
694.335	3128.1
694.524	2974.5
694.713	2982.7
694.902	3068.71
695.092	3070.76
695.281	2992.94
695.47	2925.35
695.659	3126.05
695.848	3009.32
696.037	3021.61
696.226	2880.3
696.415	2994.98
696.604	3035.94
696.793	2986.79
696.982	2992.94
697.171	3060.52
697.36	2915.11
697.549	3056.42
697.738	2935.59
697.927	2833.19
698.116	2964.26
698.305	2904.87
698.494	2816.81
698.683	2890.54
698.872	2933.54
699.061	2911.02
699.25	2798.38
699.438	2949.93
699.627	2935.59
699.816	3074.85
700.005	2904.87
700.193	3003.18
700.382	2911.02
700.571	2904.87
700.76	2855.72
700.948	3007.27
701.137	2908.97
701.326	3001.13
701.514	2863.91
701.703	2931.5
701.892	2781.99
702.08	2911.02
702.269	2802.47
702.457	2822.95
702.646	2849.58
702.834	2886.44
703.023	2759.47
703.212	2818.86
703.4	2788.14
703.589	2921.26
703.777	2833.19
703.965	2857.77
704.154	3021.61
704.342	2800.43
704.531	2902.83
704.719	2941.74
704.907	2892.59
705.096	2757.42
705.284	2806.57
705.472	2722.6
705.661	2839.34
705.849	2853.67
706.037	2761.52
706.226	2849.58
706.414	2816.81
706.602	2804.52
706.79	2779.95
706.979	2667.31
707.167	2884.39
707.355	2691.88
707.543	2798.38
707.731	2743.08
707.919	2681.64
708.107	2702.12
708.296	2833.19
708.484	2849.58
708.672	2802.47
708.86	2927.4
709.048	2738.99
709.236	2841.39
709.424	2822.95
709.612	2859.82
709.8	2792.23
709.988	2689.84
710.176	2736.94
710.364	2693.93
710.551	2741.04
710.739	2663.21
710.927	2763.56
711.115	2704.17
711.303	2722.6
711.491	2814.76
711.679	2646.83
711.866	2734.89
712.054	2818.86
712.242	2790.19
712.43	2753.32
712.617	2728.75
712.805	2767.66
712.993	2716.46
713.181	2548.53
713.368	2749.23
713.556	2626.35
713.744	2812.71
713.931	2745.13
714.119	2712.36
714.306	2796.33
714.494	2536.24
714.682	2593.58
714.869	2579.25
715.057	2702.12
715.244	2673.45
715.432	2741.04
715.619	2634.54
715.807	2728.75
715.994	2650.92
716.182	2597.68
716.369	2765.61
716.556	2710.32
716.744	2573.1
716.931	2614.06
717.119	2736.94
717.306	2683.69
717.493	2601.77
717.681	2556.72
717.868	2700.08
718.055	2716.46
718.242	2521.9
718.43	2724.65
718.617	2630.45
718.804	2636.59
718.991	2569.01
719.179	2591.53
719.366	2560.81
719.553	2646.83
719.74	2560.81
719.927	2491.18
720.114	2532.14
720.301	2581.29
720.488	2581.29
720.676	2489.14
720.863	2659.12
721.05	2657.07
721.237	2605.87
721.424	2577.2
721.611	2708.27
721.798	2562.86
721.985	2466.61
722.172	2581.29
722.358	2515.76
722.545	2597.68
722.732	2454.32
722.919	2556.72
723.106	2595.63
723.293	2577.2
723.48	2513.71
723.667	2542.38
723.853	2460.46
724.04	2519.85
724.227	2552.62
724.414	2532.14
724.6	2556.72
724.787	2544.43
724.974	2495.28
725.161	2452.27
725.347	2487.09
725.534	2519.85
725.72	2442.03
725.907	2599.73
726.094	2511.66
726.28	2571.05
726.467	2523.95
726.653	2425.65
726.84	2431.79
727.027	2448.18
727.213	2401.07
727.4	2577.2
727.586	2413.36
727.773	2366.26
727.959	2401.07
728.145	2472.75
728.332	2468.66
728.518	2472.75
728.705	2501.42
728.891	2446.13
729.077	2515.76
729.264	2421.55
729.45	2347.83
729.636	2499.38
729.823	2485.04
730.009	2454.32
730.195	2456.37
730.382	2523.95
730.568	2464.56
730.754	2405.17
730.94	2356.02
731.126	2399.02
731.313	2552.62
731.499	2468.66
731.685	2468.66
731.871	2433.84
732.057	2497.33
732.243	2347.83
732.429	2411.31
732.615	2495.28
732.801	2433.84
732.987	2298.67
733.173	2390.83
733.359	2548.53
733.545	2390.83
733.731	2315.06
733.917	2413.36
734.103	2458.42
734.289	2417.46
734.475	2421.55
734.661	2399.02
734.847	2409.26
735.033	2374.45
735.219	2235.19
735.404	2358.07
735.59	2358.07
735.776	2304.82
735.962	2437.94
736.148	2321.2
736.333	2294.58
736.519	2399.02
736.705	2253.62
736.89	2413.36
737.076	2493.23
737.262	2235.19
737.447	2278.19
737.633	2128.69
737.819	2374.45
738.004	2325.3
738.19	2394.93
738.375	2253.62
738.561	2335.54
738.747	2206.52
738.932	2181.94
739.118	2278.19
739.303	2132.79
739.489	2310.96
739.674	2216.76
739.859	2163.51
740.045	2241.33
740.23	2265.91
740.416	2243.38
740.601	2235.19
740.786	2085.69
740.972	2239.28
741.157	2253.62
741.342	2102.07
741.528	2167.6
741.713	2153.27
741.898	2118.45
742.084	2151.22
742.269	2134.84
742.454	2050.87
742.639	2272.05
742.824	2104.12
743.01	2112.31
743.195	2024.25
743.38	2067.25
743.565	2106.17
743.75	2151.22
743.935	2145.08
744.12	2046.77
744.305	2052.92
744.49	2024.25
744.675	2087.73
744.86	2026.29
745.045	1977.14
745.23	1993.53
745.415	2042.68
745.6	1956.66
745.785	2014.01
745.97	1899.32
746.155	2005.81
746.34	1909.56
746.525	1909.56
746.71	1950.52
746.895	1805.11
747.079	1954.62
747.264	1868.6
747.449	1911.61
747.634	1745.72
747.819	1872.7
748.003	1909.56
748.188	1831.74
748.373	1803.07
748.557	1788.73
748.742	1807.16
748.927	1891.13
749.111	1762.11
749.296	1798.97
749.481	1846.07
749.665	1700.67
749.85	1727.29
750.034	1700.67
750.219	1831.74
750.404	1622.84
750.588	1753.91
750.773	1751.87
750.957	1790.78
751.141	1651.52
751.326	1667.9
751.51	1631.04
751.695	1647.42
751.879	1522.49
752.064	1622.84
752.248	1684.28
752.432	1694.52
752.617	1645.37
752.801	1559.36
752.985	1545.02
753.17	1583.93
753.354	1473.34
753.538	1489.73
753.722	1549.12
753.907	1487.68
754.091	1491.77
754.275	1391.42
754.459	1547.07
754.643	1448.77
754.828	1379.14
755.012	1446.72
755.196	1471.29
755.38	1329.99
755.564	1401.66
755.748	1397.57
755.932	1375.04
756.116	1325.89
756.3	1372.99
756.484	1409.86
756.668	1360.7
756.852	1397.57
757.036	1360.7
757.22	1364.8
757.404	1299.27
757.588	1303.36
757.772	1233.73
757.956	1305.41
758.14	1344.32
758.323	1278.79
758.507	1272.64
758.691	1237.83
758.875	1254.21
759.059	1274.69
759.242	1127.24
759.426	1194.82
759.61	1250.11
759.794	1213.25
759.977	1182.53
760.161	1215.3
760.345	1176.39
760.528	1280.83
760.712	1145.67
760.895	1188.68
761.079	1155.91
761.263	1172.29
761.446	1184.58
761.63	1112.9
761.813	1100.61
761.997	1131.33
762.18	1166.15
762.364	1133.38
762.547	1098.56
762.731	1022.79
762.914	1020.74
763.098	1030.98
763.281	1076.04
763.464	1086.28
763.648	979.78
763.831	1071.94
764.015	1035.08
764.198	1127.24
764.381	981.83
764.564	1121.09
764.748	949.06
764.931	1078.08
765.114	1035.08
765.297	1014.6
765.481	1033.03
765.664	1037.13
765.847	975.69
766.03	1059.65
766.213	987.97
766.397	850.76
766.58	951.11
766.763	1043.27
766.946	1016.65
767.129	1020.74
767.312	1016.65
767.495	1028.93
767.678	899.91
767.861	963.4
768.044	967.49
768.227	932.68
768.41	889.67
768.593	1024.84
768.776	865.1
768.959	947.01
769.142	897.86
769.324	836.42
769.507	926.54
769.69	895.82
769.873	940.87
770.056	959.3
770.239	914.25
770.421	895.82
770.604	863.05
770.787	893.77
770.97	861
771.152	856.9
771.335	822.09
771.518	885.58
771.7	891.72
771.883	856.9
772.066	801.61
772.248	877.38
772.431	885.58
772.613	848.71
772.796	717.64
772.978	848.71
773.161	867.14
773.343	891.72
773.526	752.46
773.708	756.55
773.891	801.61
774.073	820.04
774.256	840.52
774.438	910.15
774.621	758.6
774.803	932.68
774.985	781.13
775.168	803.66
775.35	725.83
775.532	803.66
775.715	803.66
775.897	830.28
776.079	699.21
776.261	734.03
776.444	811.85
776.626	734.03
776.808	691.02
776.99	650.06
777.173	725.83
777.355	768.84
777.537	631.63
777.719	713.55
777.901	627.53
778.083	658.25
778.265	756.55
778.447	680.78
778.629	682.83
778.811	760.65
778.993	598.86
779.175	660.3
779.357	693.07
779.539	553.8
779.721	725.83
779.903	691.02
780.085	645.96
780.267	684.87
780.449	590.67
780.631	723.79
780.812	598.86
780.994	637.77
781.176	549.71
781.358	592.72
781.54	635.72
781.721	656.2
781.903	539.47
782.085	496.46
782.267	574.28
782.448	535.37
782.63	533.33
782.812	557.9
782.993	568.14
783.175	555.85
783.357	566.09
783.538	584.52
783.72	465.74
783.901	516.94
784.083	467.79
784.264	557.9
784.446	461.65
784.627	461.65
784.809	508.75
784.99	471.89
785.172	443.21
785.353	504.65
785.535	504.65
785.716	451.41
785.897	508.75
786.079	473.93
786.26	447.31
786.441	451.41
786.623	494.41
786.804	475.98
786.985	502.61
787.167	482.13
787.348	471.89
787.529	426.83
787.71	537.42
787.891	469.84
788.073	416.59
788.254	406.35
788.435	486.22
788.616	461.65
788.797	365.39
788.978	402.26
789.159	422.73
789.34	432.97
789.522	385.87
789.703	480.08
789.884	373.58
790.065	437.07
790.246	455.5
790.427	338.77
790.607	336.72
790.788	379.73
790.969	338.77
791.15	408.4
791.331	353.1
791.512	404.3
791.693	340.82
791.874	351.06
792.054	361.3
792.235	392.02
792.416	340.82
792.597	346.96
792.778	353.1
792.958	377.68
793.139	359.25
793.32	328.53
793.5	379.73
793.681	402.26
793.862	375.63
794.042	363.34
794.223	256.85
794.404	344.91
794.584	248.66
794.765	254.8
794.945	312.14
795.126	383.82
795.306	361.3
795.487	228.18
795.667	271.19
795.848	301.9
796.028	277.33
796.209	363.34
796.389	334.67
796.57	246.61
796.75	238.42
796.93	332.62
797.111	260.95
797.291	232.27
797.471	265.04
797.652	269.14
797.832	289.62
798.012	236.37
798.192	271.19
798.373	238.42
798.553	301.9
798.733	215.89
798.913	349.01
799.093	201.55
799.274	217.94
799.454	287.57
799.634	246.61
799.814	258.9
799.994	316.24
800.174	293.71
800.354	301.9
800.534	301.9
800.714	301.9
800.894	246.61
801.074	224.08
801.254	219.99
801.434	353.1
801.614	226.13
801.794	213.84
801.974	600.91
802.154	224.08
802.334	258.9
802.514	195.41
802.693	201.55
802.873	349.01
803.053	250.71
803.233	262.99
803.413	238.42
803.592	226.13
803.772	217.94
803.952	228.18
804.131	248.66
804.311	185.17
804.491	224.08
804.67	248.66
804.85	238.42
805.03	195.41
805.209	189.27
805.389	234.32
805.568	201.55
805.748	181.07
805.928	125.78
806.107	205.65
806.287	185.17
806.466	152.4
806.646	125.78
806.825	242.51
807.004	176.98
807.184	207.7
807.363	193.36
807.543	168.79
807.722	99.16
807.901	248.66
808.081	172.88
808.26	209.75
808.439	191.31
808.619	162.64
808.798	152.4
808.977	193.36
809.156	187.22
809.336	215.89
809.515	199.51
809.694	189.27
809.873	209.75
810.052	138.07
810.231	275.28
810.411	191.31
810.59	185.17
810.769	146.26
810.948	187.22
811.127	156.5
811.306	197.46
811.485	209.75
811.664	168.79
811.843	154.45
812.022	193.36
812.201	170.83
812.38	234.32
812.559	189.27
812.737	117.59
812.916	197.46
813.095	222.03
813.274	160.59
813.453	228.18
813.632	131.92
813.811	148.31
813.989	70.48
814.168	197.46
814.347	78.68
814.526	207.7
814.704	123.73
814.883	189.27
815.062	176.98
815.24	219.99
815.419	60.24
815.598	152.4
815.776	109.4
815.955	144.21
816.133	138.07
816.312	107.35
816.49	56.15
816.669	152.4
816.847	123.73
817.026	142.16
817.204	129.88
817.383	119.64
817.561	197.46
817.74	224.08
817.918	90.96
818.097	160.59
818.275	111.44
818.453	129.88
818.632	154.45
818.81	70.48
818.988	56.15
819.167	123.73
819.345	66.39
819.523	138.07
819.701	62.29
819.879	107.35
820.058	172.88
820.236	103.25
820.414	68.44
820.592	185.17
820.77	107.35
820.948	123.73
821.127	127.83
821.305	131.92
821.483	80.72
821.661	129.88
821.839	181.07
822.017	131.92
822.195	45.91
822.373	156.5
822.551	105.3
822.729	54.1
822.907	72.53
823.085	70.48
823.262	86.87
823.44	111.44
823.618	-7.34
823.796	66.39
823.974	113.49
824.152	127.83
824.329	103.25
824.507	107.35
824.685	105.3
824.863	138.07
825.04	138.07
825.218	160.59
825.396	78.68
825.574	9.05
825.751	107.35
825.929	158.55
826.107	27.48
826.284	62.29
826.462	52.05
826.639	78.68
826.817	107.35
826.994	27.48
827.172	62.29
827.349	113.49
827.527	35.67
827.704	133.97
827.882	205.65
828.059	25.43
828.237	162.64
828.414	125.78
828.591	58.2
828.769	43.86
828.946	52.05
829.124	-11.43
829.301	129.88
829.478	125.78
829.655	111.44
829.833	62.29
830.01	105.3
830.187	74.58
830.364	88.92
830.542	33.62
830.719	86.87
830.896	86.87
831.073	27.48
831.25	99.16
831.427	84.82
831.604	50
831.782	95.06
831.959	29.52
832.136	25.43
832.313	41.81
832.49	62.29
832.667	113.49
832.844	95.06
833.021	66.39
833.198	129.88
833.374	60.24
833.551	138.07
833.728	70.48
833.905	62.29
834.082	62.29
834.259	70.48
834.436	56.15
834.612	-27.82
834.789	131.92
834.966	29.52
835.143	64.34
835.319	45.91
835.496	99.16
835.673	97.11
835.85	72.53
836.026	31.57
836.203	113.49
836.38	23.38
836.556	31.57
836.733	70.48
836.909	86.87
837.086	105.3
837.262	47.96
837.439	105.3
837.616	90.96
837.792	13.14
837.968	66.39
838.145	111.44
838.321	88.92
838.498	33.62
838.674	56.15
838.851	31.57
839.027	78.68
839.203	62.29
839.38	95.06
839.556	47.96
839.732	140.12
839.909	56.15
840.085	82.77
840.261	64.34
840.437	90.96
840.614	13.14
840.79	172.88
840.966	62.29
841.142	70.48
841.318	33.62
841.494	35.67
841.671	13.14
841.847	21.33
842.023	11.09
842.199	99.16
842.375	21.33
842.551	-15.53
842.727	-5.29
842.903	50
843.079	-9.39
843.255	52.05
843.431	54.1
843.607	84.82
843.783	66.39
843.959	25.43
844.134	41.81
844.31	84.82
844.486	88.92
844.662	11.09
844.838	54.1
845.013	90.96
845.189	82.77
845.365	70.48
845.541	21.33
845.716	-13.48
845.892	56.15
846.068	144.21
846.244	60.24
846.419	21.33
846.595	84.82
846.77	-101.55
846.946	66.39
847.122	41.81
847.297	-17.58
847.473	-9.39
847.648	-1.19
847.824	111.44
847.999	-9.39
848.175	64.34
848.35	72.53
848.526	47.96
848.701	78.68
848.876	84.82
849.052	45.91
849.227	-7.34
849.403	54.1
849.578	-5.29
849.753	11.09
849.929	39.76
850.104	13.14
850.279	136.02
850.454	43.86
850.63	166.74
850.805	39.76
850.98	56.15
851.155	-11.43
851.33	50
851.505	105.3
851.681	33.62
851.856	-1.19
852.031	66.39
852.206	56.15
852.381	7
852.556	13.14
852.731	25.43
852.906	-23.72
853.081	76.63
853.256	47.96
853.431	35.67
853.606	29.52
853.781	97.11
853.956	25.43
854.131	35.67
854.305	-25.77
854.48	82.77
854.655	13.14
854.83	27.48
855.005	43.86
855.18	84.82
855.354	41.81
855.529	97.11
855.704	-15.53
855.879	80.72
856.053	-29.87
856.228	50
856.403	-1.19
856.577	7
856.752	45.91
856.926	62.29
857.101	-72.87
857.276	13.14
857.45	31.57
857.625	31.57
857.799	56.15
857.974	43.86
858.148	-3.24
858.323	33.62
858.497	60.24
858.672	41.81
858.846	-19.63
859.02	123.73
859.195	-5.29
859.369	-44.2
859.543	45.91
859.718	-9.39
859.892	-19.63
860.066	19.29
860.241	-7.34
860.415	47.96
860.589	-23.72
860.763	27.48
860.938	-5.29
861.112	2.9
861.286	-58.54
861.46	56.15
861.634	-15.53
861.808	37.72
861.982	19.29
862.157	47.96
862.331	9.05
862.505	4.95
862.679	31.57
862.853	-1.19
863.027	17.24
863.201	21.33
863.375	80.72
863.549	19.29
863.722	-1.19
863.896	97.11
864.07	27.48
864.244	15.19
864.418	-21.67
864.592	72.53
864.766	0.85
864.939	-29.87
865.113	-93.35
865.287	-9.39
865.461	25.43
865.634	31.57
865.808	-3.24
865.982	33.62
866.156	-23.72
866.329	37.72
866.503	37.72
866.676	-11.43
866.85	39.76
867.024	7
867.197	25.43
867.371	66.39
867.544	17.24
867.718	11.09
867.891	50
868.065	-44.2
868.238	-1.19
868.412	78.68
868.585	117.59
868.759	21.33
868.932	-27.82
869.105	117.59
869.279	27.48
869.452	31.57
869.625	80.72
869.799	-15.53
869.972	35.67
870.145	62.29
870.319	-9.39
870.492	62.29
870.665	-36.01
870.838	-66.73
871.011	21.33
871.185	-50.35
871.358	41.81
871.531	56.15
871.704	-52.39
871.877	105.3
872.05	-1.19
872.223	33.62
872.396	-15.53
872.569	-11.43
872.742	-5.29
872.915	29.52
873.088	-27.82
873.261	-23.72
873.434	-15.53
873.607	23.38
873.78	23.38
873.953	-38.06
874.126	-40.11
874.299	-56.49
874.471	17.24
874.644	39.76
874.817	84.82
874.99	68.44
875.163	-7.34
875.335	33.62
875.508	-48.3
875.681	-5.29
875.853	17.24
876.026	-1.19
876.199	-56.49
876.371	62.29
876.544	-3.24
876.717	4.95
876.889	-9.39
877.062	21.33
877.234	45.91
877.407	-38.06
877.579	-48.3
877.752	-31.91
877.924	9.05
878.097	80.72
878.269	-11.43
878.442	39.76
878.614	-38.06
878.786	-44.2
878.959	21.33
879.131	-9.39
879.303	-42.15
879.476	-7.34
879.648	-52.39
879.82	-13.48
879.993	-33.96
880.165	-40.11
880.337	-15.53
880.509	45.91
880.681	-15.53
880.854	4.95
881.026	-68.78
881.198	21.33
881.37	-7.34
881.542	39.76
881.714	-23.72
881.886	-66.73
882.058	-56.49
882.23	41.81
882.402	25.43
882.574	-19.63
882.746	76.63
882.918	39.76
883.09	-56.49
883.262	31.57
883.434	90.96
883.606	-9.39
883.778	29.52
883.95	74.58
884.122	-23.72
884.293	19.29
884.465	-52.39
884.637	31.57
884.809	25.43
884.98	23.38
885.152	45.91
885.324	23.38
885.496	-31.91
885.667	9.05
885.839	-1.19
886.011	23.38
886.182	-56.49
886.354	-3.24
886.525	41.81
886.697	35.67
886.869	-15.53
887.04	-81.07
887.212	15.19
887.383	78.68
887.555	-25.77
887.726	7
887.897	45.91
888.069	103.25
888.24	37.72
888.412	15.19
888.583	-36.01
888.754	-38.06
888.926	-103.59
889.097	35.67
889.268	17.24
889.44	-23.72
889.611	-15.53
889.782	-58.54
889.953	-66.73
890.125	39.76
890.296	27.48
890.467	-62.63
890.638	-52.39
890.809	11.09
890.98	-44.2
891.151	23.38
891.323	-50.35
891.494	35.67
891.665	29.52
891.836	33.62
892.007	-11.43
892.178	-7.34
892.349	7
892.52	-54.44
892.691	17.24
892.862	19.29
893.032	37.72
893.203	25.43
893.374	21.33
893.545	23.38
893.716	33.62
893.887	-19.63
894.057	-3.24
894.228	50
894.399	11.09
894.57	95.06
894.74	-36.01
894.911	13.14
895.082	-23.72
895.253	13.14
895.423	-27.82
895.594	13.14
895.764	21.33
895.935	-33.96
896.106	-62.63
896.276	-19.63
896.447	-33.96
896.617	0.85
896.788	-40.11
896.958	-3.24
897.129	-40.11
897.299	-21.67
897.47	9.05
897.64	29.52
897.81	-19.63
897.981	-1.19
898.151	-56.49
898.322	7
898.492	15.19
898.662	-68.78
898.832	64.34
899.003	45.91
899.173	19.29
899.343	-9.39
899.513	9.05
