Data from USB4F104151__290__11-13-02-220.txt Node

Date: Wed Mar 12 11:13:02 EDT 2025
User: louis
Spectrometer: USB4F10415
Trigger mode: 4
Integration Time (sec): 2.000000E-2
Scans to average: 1
Electric dark correction enabled: true
Nonlinearity correction enabled: false
Boxcar width: 0
XAxis mode: Wavelengths
Number of Pixels in Spectrum: 3648
>>>>>Begin Spectral Data<<<<<
178.204	-141.82
178.424	-141.82
178.644	-141.82
178.864	-100.86
179.084	-86.53
179.304	44.54
179.524	-14.85
179.744	-57.86
179.964	91.65
180.184	-70.14
180.404	69.12
180.624	-18.94
180.844	-39.42
181.064	-41.47
181.283	60.93
181.503	11.78
181.723	-35.33
181.943	-43.52
182.163	26.11
182.383	24.06
182.602	87.55
182.822	7.68
183.042	42.5
183.262	75.26
183.482	-10.75
183.701	-2.56
183.921	-12.8
184.141	-23.04
184.361	62.98
184.58	-2.56
184.8	-35.33
185.02	-41.47
185.239	42.5
185.459	60.93
185.679	-8.7
185.898	-51.71
186.118	9.73
186.338	-23.04
186.557	71.17
186.777	-39.42
186.997	60.93
187.216	48.64
187.436	19.97
187.655	15.87
187.875	32.26
188.095	-35.33
188.314	5.63
188.534	-14.85
188.753	60.93
188.973	42.5
189.192	26.11
189.412	75.26
189.631	26.11
189.851	46.59
190.07	-18.94
190.29	24.06
190.509	48.64
190.729	-16.9
190.948	54.78
191.168	75.26
191.387	5.63
191.607	-0.51
191.826	58.88
192.045	-47.62
192.265	46.59
192.484	15.87
192.704	24.06
192.923	-18.94
193.142	-8.7
193.362	-4.61
193.581	73.21
193.8	112.13
194.02	54.78
194.239	-49.66
194.458	73.21
194.678	99.84
194.897	56.83
195.116	34.3
195.335	-27.14
195.555	13.82
195.774	42.5
195.993	42.5
196.212	1.54
196.432	9.73
196.651	-10.75
196.87	75.26
197.089	175.61
197.308	-4.61
197.528	1.54
197.747	-80.38
197.966	65.02
198.185	-10.75
198.404	-2.56
198.623	26.11
198.842	52.74
199.062	65.02
199.281	38.4
199.5	-10.75
199.719	13.82
199.938	19.97
200.157	-8.7
200.376	99.84
200.595	75.26
200.814	46.59
201.033	-0.51
201.252	7.68
201.471	5.63
201.69	52.74
201.909	87.55
202.128	19.97
202.347	34.3
202.566	77.31
202.785	-45.57
203.004	40.45
203.223	32.26
203.442	-0.51
203.661	69.12
203.879	54.78
204.098	58.88
204.317	28.16
204.536	5.63
204.755	22.02
204.974	40.45
205.193	3.58
205.411	-0.51
205.63	42.5
205.849	1.54
206.068	-51.71
206.287	36.35
206.505	5.63
206.724	75.26
206.943	-37.38
207.162	42.5
207.381	17.92
207.599	-6.66
207.818	3.58
208.037	69.12
208.255	30.21
208.474	30.21
208.693	-2.56
208.911	71.17
209.13	95.74
209.349	69.12
209.567	-12.8
209.786	-25.09
210.005	46.59
210.223	42.5
210.442	46.59
210.661	52.74
210.879	56.83
211.098	1.54
211.316	58.88
211.535	-29.18
211.753	26.11
211.972	28.16
212.191	13.82
212.409	48.64
212.628	40.45
212.846	-68.09
213.065	26.11
213.283	108.03
213.502	56.83
213.72	5.63
213.938	-16.9
214.157	-10.75
214.375	17.92
214.594	19.97
214.812	-8.7
215.031	56.83
215.249	22.02
215.467	38.4
215.686	65.02
215.904	13.82
216.122	5.63
216.341	28.16
216.559	42.5
216.778	73.21
216.996	26.11
217.214	-16.9
217.432	-64
217.651	91.65
217.869	-12.8
218.087	81.41
218.306	13.82
218.524	26.11
218.742	52.74
218.96	-18.94
219.179	-66.05
219.397	28.16
219.615	108.03
219.833	28.16
220.051	-33.28
220.27	9.73
220.488	-0.51
220.706	58.88
220.924	71.17
221.142	-20.99
221.36	11.78
221.578	-25.09
221.796	11.78
222.015	38.4
222.233	36.35
222.451	58.88
222.669	-27.14
222.887	-2.56
223.105	-57.86
223.323	-35.33
223.541	83.45
223.759	9.73
223.977	-14.85
224.195	46.59
224.413	5.63
224.631	11.78
224.849	-2.56
225.067	87.55
225.285	48.64
225.503	58.88
225.721	-39.42
225.939	11.78
226.157	-27.14
226.375	-6.66
226.592	13.82
226.81	-4.61
227.028	30.21
227.246	77.31
227.464	120.32
227.682	28.16
227.9	7.68
228.117	-2.56
228.335	1.54
228.553	73.21
228.771	-35.33
228.989	32.26
229.206	-20.99
229.424	-16.9
229.642	73.21
229.86	56.83
230.077	30.21
230.295	-61.95
230.513	79.36
230.731	38.4
230.948	58.88
231.166	24.06
231.384	-25.09
231.601	-39.42
231.819	87.55
232.037	-25.09
232.254	9.73
232.472	32.26
232.689	77.31
232.907	91.65
233.125	71.17
233.342	65.02
233.56	7.68
233.777	22.02
233.995	15.87
234.213	1.54
234.43	67.07
234.648	44.54
234.865	30.21
235.083	17.92
235.3	-37.38
235.518	-43.52
235.735	-29.18
235.953	77.31
236.17	44.54
236.388	7.68
236.605	46.59
236.822	5.63
237.04	13.82
237.257	-2.56
237.475	44.54
237.692	-12.8
237.909	67.07
238.127	24.06
238.344	15.87
238.562	79.36
238.779	-14.85
238.996	26.11
239.214	-2.56
239.431	54.78
239.648	40.45
239.865	26.11
240.083	22.02
240.3	28.16
240.517	-16.9
240.735	-6.66
240.952	-33.28
241.169	60.93
241.386	-16.9
241.603	50.69
241.821	11.78
242.038	34.3
242.255	69.12
242.472	22.02
242.689	50.69
242.907	65.02
243.124	69.12
243.341	52.74
243.558	19.97
243.775	77.31
243.992	-29.18
244.209	48.64
244.426	-6.66
244.643	-29.18
244.86	9.73
245.078	54.78
245.295	26.11
245.512	-27.14
245.729	-10.75
245.946	13.82
246.163	69.12
246.38	32.26
246.597	32.26
246.814	13.82
247.031	46.59
247.248	48.64
247.464	77.31
247.681	-4.61
247.898	69.12
248.115	89.6
248.332	38.4
248.549	58.88
248.766	60.93
248.983	46.59
249.2	5.63
249.417	52.74
249.633	-12.8
249.85	91.65
250.067	75.26
250.284	32.26
250.501	34.3
250.717	128.51
250.934	44.54
251.151	-10.75
251.368	-14.85
251.585	89.6
251.801	-20.99
252.018	3.58
252.235	28.16
252.451	65.02
252.668	24.06
252.885	3.58
253.102	30.21
253.318	30.21
253.535	11.78
253.752	-4.61
253.968	48.64
254.185	38.4
254.401	32.26
254.618	-6.66
254.835	24.06
255.051	3.58
255.268	26.11
255.484	-55.81
255.701	22.02
255.917	91.65
256.134	65.02
256.351	19.97
256.567	-0.51
256.784	34.3
257	-10.75
257.217	32.26
257.433	34.3
257.65	1.54
257.866	-43.52
258.082	1.54
258.299	54.78
258.515	58.88
258.732	17.92
258.948	-0.51
259.165	75.26
259.381	34.3
259.597	48.64
259.814	26.11
260.03	-20.99
260.246	17.92
260.463	52.74
260.679	91.65
260.895	-18.94
261.112	19.97
261.328	22.02
261.544	28.16
261.761	67.07
261.977	-59.9
262.193	40.45
262.409	-6.66
262.626	148.99
262.842	67.07
263.058	67.07
263.274	9.73
263.49	73.21
263.707	17.92
263.923	-14.85
264.139	-12.8
264.355	-4.61
264.571	-45.57
264.787	79.36
265.004	19.97
265.22	-27.14
265.436	36.35
265.652	75.26
265.868	17.92
266.084	5.63
266.3	58.88
266.516	-43.52
266.732	-16.9
266.948	-8.7
267.164	44.54
267.38	65.02
267.596	28.16
267.812	75.26
268.028	-102.91
268.244	-39.42
268.46	36.35
268.676	-8.7
268.892	-25.09
269.108	46.59
269.324	52.74
269.54	52.74
269.756	54.78
269.972	28.16
270.188	62.98
270.403	40.45
270.619	-10.75
270.835	26.11
271.051	7.68
271.267	-6.66
271.483	36.35
271.698	19.97
271.914	-18.94
272.13	-23.04
272.346	42.5
272.562	-10.75
272.777	38.4
272.993	50.69
273.209	56.83
273.425	9.73
273.64	26.11
273.856	71.17
274.072	1.54
274.287	91.65
274.503	13.82
274.719	54.78
274.934	73.21
275.15	-23.04
275.366	50.69
275.581	-57.86
275.797	30.21
276.012	-49.66
276.228	112.13
276.444	9.73
276.659	83.45
276.875	-18.94
277.09	-16.9
277.306	-10.75
277.521	-8.7
277.737	40.45
277.952	17.92
278.168	56.83
278.383	32.26
278.599	-18.94
278.814	-12.8
279.03	42.5
279.245	50.69
279.461	-20.99
279.676	1.54
279.892	42.5
280.107	22.02
280.322	-0.51
280.538	44.54
280.753	5.63
280.969	73.21
281.184	44.54
281.399	42.5
281.615	11.78
281.83	-20.99
282.045	-104.96
282.26	75.26
282.476	44.54
282.691	5.63
282.906	52.74
283.122	19.97
283.337	17.92
283.552	36.35
283.767	36.35
283.983	87.55
284.198	-18.94
284.413	-33.28
284.628	-55.81
284.843	-27.14
285.058	13.82
285.274	87.55
285.489	13.82
285.704	9.73
285.919	38.4
286.134	122.37
286.349	26.11
286.564	46.59
286.779	75.26
286.995	7.68
287.21	-10.75
287.425	56.83
287.64	-29.18
287.855	36.35
288.07	-104.96
288.285	46.59
288.5	69.12
288.715	38.4
288.93	22.02
289.145	-2.56
289.36	40.45
289.575	30.21
289.79	-14.85
290.004	26.11
290.219	73.21
290.434	99.84
290.649	62.98
290.864	67.07
291.079	-10.75
291.294	-14.85
291.509	-12.8
291.724	52.74
291.938	15.87
292.153	17.92
292.368	-0.51
292.583	52.74
292.798	46.59
293.012	15.87
293.227	-27.14
293.442	5.63
293.657	120.32
293.871	5.63
294.086	79.36
294.301	65.02
294.516	79.36
294.73	95.74
294.945	-10.75
295.16	-2.56
295.374	71.17
295.589	50.69
295.804	46.59
296.018	77.31
296.233	56.83
296.447	11.78
296.662	34.3
296.877	36.35
297.091	69.12
297.306	89.6
297.52	36.35
297.735	-8.7
297.949	1.54
298.164	36.35
298.378	69.12
298.593	30.21
298.807	38.4
299.022	50.69
299.236	17.92
299.451	67.07
299.665	75.26
299.88	26.11
300.094	-0.51
300.309	38.4
300.523	-35.33
300.737	-35.33
300.952	89.6
301.166	79.36
301.381	-12.8
301.595	42.5
301.809	40.45
302.024	3.58
302.238	-12.8
302.452	67.07
302.667	22.02
302.881	-10.75
303.095	-10.75
303.309	-6.66
303.524	50.69
303.738	128.51
303.952	24.06
304.166	91.65
304.381	-27.14
304.595	87.55
304.809	38.4
305.023	89.6
305.237	17.92
305.452	46.59
305.666	5.63
305.88	62.98
306.094	42.5
306.308	65.02
306.522	36.35
306.736	112.13
306.95	42.5
307.164	103.93
307.379	83.45
307.593	34.3
307.807	85.5
308.021	26.11
308.235	22.02
308.449	46.59
308.663	42.5
308.877	93.69
309.091	30.21
309.305	9.73
309.519	71.17
309.733	89.6
309.947	75.26
310.161	-0.51
310.374	116.22
310.588	32.26
310.802	83.45
311.016	105.98
311.23	36.35
311.444	79.36
311.658	30.21
311.872	171.52
312.085	11.78
312.299	-2.56
312.513	48.64
312.727	54.78
312.941	40.45
313.154	28.16
313.368	-14.85
313.582	28.16
313.796	40.45
314.009	46.59
314.223	11.78
314.437	17.92
314.651	75.26
314.864	-2.56
315.078	22.02
315.292	62.98
315.505	28.16
315.719	-16.9
315.933	83.45
316.146	15.87
316.36	30.21
316.573	112.13
316.787	50.69
317.001	5.63
317.214	-2.56
317.428	3.58
317.641	75.26
317.855	-8.7
318.068	-37.38
318.282	1.54
318.495	99.84
318.709	93.69
318.922	30.21
319.136	26.11
319.349	95.74
319.563	26.11
319.776	7.68
319.99	-90.62
320.203	89.6
320.417	48.64
320.63	-16.9
320.843	58.88
321.057	24.06
321.27	56.83
321.483	114.17
321.697	79.36
321.91	-2.56
322.124	-6.66
322.337	40.45
322.55	62.98
322.763	26.11
322.977	52.74
323.19	52.74
323.403	65.02
323.617	85.5
323.83	38.4
324.043	-49.66
324.256	-8.7
324.469	58.88
324.683	54.78
324.896	-37.38
325.109	22.02
325.322	-61.95
325.535	54.78
325.748	26.11
325.962	22.02
326.175	11.78
326.388	42.5
326.601	9.73
326.814	13.82
327.027	60.93
327.24	38.4
327.453	-18.94
327.666	91.65
327.879	65.02
328.092	24.06
328.305	30.21
328.518	52.74
328.731	54.78
328.944	71.17
329.157	9.73
329.37	42.5
329.583	77.31
329.796	130.56
330.009	17.92
330.222	71.17
330.435	5.63
330.648	81.41
330.861	9.73
331.073	3.58
331.286	44.54
331.499	54.78
331.712	9.73
331.925	83.45
332.138	75.26
332.35	71.17
332.563	34.3
332.776	105.98
332.989	-29.18
333.202	34.3
333.414	-29.18
333.627	101.89
333.84	9.73
334.053	38.4
334.265	19.97
334.478	22.02
334.691	19.97
334.903	-12.8
335.116	26.11
335.329	30.21
335.541	52.74
335.754	9.73
335.966	56.83
336.179	50.69
336.392	-47.62
336.604	112.13
336.817	46.59
337.029	56.83
337.242	52.74
337.454	95.74
337.667	-23.04
337.88	54.78
338.092	75.26
338.305	116.22
338.517	67.07
338.729	77.31
338.942	11.78
339.154	1.54
339.367	75.26
339.579	87.55
339.792	46.59
340.004	52.74
340.217	-2.56
340.429	-10.75
340.641	13.82
340.854	-16.9
341.066	34.3
341.278	118.27
341.491	65.02
341.703	54.78
341.915	60.93
342.128	58.88
342.34	32.26
342.552	50.69
342.764	67.07
342.977	120.32
343.189	124.41
343.401	50.69
343.613	79.36
343.826	56.83
344.038	13.82
344.25	46.59
344.462	44.54
344.674	46.59
344.886	26.11
345.099	77.31
345.311	67.07
345.523	-14.85
345.735	60.93
345.947	34.3
346.159	-0.51
346.371	36.35
346.583	17.92
346.795	105.98
347.007	22.02
347.219	13.82
347.431	-53.76
347.643	48.64
347.855	62.98
348.067	50.69
348.279	30.21
348.491	46.59
348.703	97.79
348.915	19.97
349.127	5.63
349.339	28.16
349.551	44.54
349.763	30.21
349.975	75.26
350.187	101.89
350.399	112.13
350.61	11.78
350.822	3.58
351.034	42.5
351.246	52.74
351.458	38.4
351.669	9.73
351.881	87.55
352.093	-20.99
352.305	24.06
352.517	34.3
352.728	58.88
352.94	116.22
353.152	69.12
353.363	7.68
353.575	30.21
353.787	130.56
353.999	5.63
354.21	103.93
354.422	26.11
354.633	38.4
354.845	-35.33
355.057	32.26
355.268	79.36
355.48	30.21
355.692	24.06
355.903	19.97
356.115	52.74
356.326	-29.18
356.538	116.22
356.749	60.93
356.961	85.5
357.172	26.11
357.384	-0.51
357.595	42.5
357.807	11.78
358.018	9.73
358.23	36.35
358.441	87.55
358.653	79.36
358.864	-27.14
359.075	50.69
359.287	22.02
359.498	73.21
359.709	46.59
359.921	3.58
360.132	44.54
360.344	103.93
360.555	-68.09
360.766	-20.99
360.977	38.4
361.189	17.92
361.4	17.92
361.611	13.82
361.823	69.12
362.034	71.17
362.245	42.5
362.456	3.58
362.667	73.21
362.879	32.26
363.09	17.92
363.301	71.17
363.512	79.36
363.723	71.17
363.935	42.5
364.146	56.83
364.357	58.88
364.568	79.36
364.779	-70.14
364.99	67.07
365.201	-14.85
365.412	34.3
365.623	67.07
365.834	108.03
366.045	65.02
366.256	9.73
366.467	112.13
366.678	34.3
366.889	62.98
367.1	-0.51
367.311	17.92
367.522	87.55
367.733	40.45
367.944	-8.7
368.155	67.07
368.366	40.45
368.577	73.21
368.788	60.93
368.999	87.55
369.209	83.45
369.42	9.73
369.631	83.45
369.842	50.69
370.053	24.06
370.264	122.37
370.474	17.92
370.685	71.17
370.896	81.41
371.107	56.83
371.317	69.12
371.528	73.21
371.739	89.6
371.95	54.78
372.16	17.92
372.371	7.68
372.582	5.63
372.792	50.69
373.003	44.54
373.214	93.69
373.424	122.37
373.635	105.98
373.846	44.54
374.056	3.58
374.267	26.11
374.477	89.6
374.688	65.02
374.898	22.02
375.109	77.31
375.319	44.54
375.53	19.97
375.74	26.11
375.951	-29.18
376.161	-12.8
376.372	79.36
376.582	38.4
376.793	-23.04
377.003	65.02
377.214	69.12
377.424	105.98
377.635	-27.14
377.845	69.12
378.055	62.98
378.266	30.21
378.476	46.59
378.686	19.97
378.897	5.63
379.107	-31.23
379.317	44.54
379.528	85.5
379.738	132.61
379.948	5.63
380.158	-2.56
380.369	17.92
380.579	79.36
380.789	58.88
380.999	110.08
381.21	22.02
381.42	62.98
381.63	15.87
381.84	91.65
382.05	56.83
382.261	58.88
382.471	140.8
382.681	28.16
382.891	75.26
383.101	19.97
383.311	26.11
383.521	110.08
383.731	87.55
383.941	71.17
384.151	44.54
384.361	1.54
384.571	17.92
384.781	9.73
384.991	79.36
385.201	110.08
385.411	42.5
385.621	69.12
385.831	17.92
386.041	28.16
386.251	71.17
386.461	116.22
386.671	-76.29
386.881	112.13
387.091	11.78
387.301	73.21
387.511	56.83
387.72	71.17
387.93	73.21
388.14	-8.7
388.35	58.88
388.56	50.69
388.769	24.06
388.979	9.73
389.189	73.21
389.399	17.92
389.609	50.69
389.818	140.8
390.028	60.93
390.238	42.5
390.447	44.54
390.657	75.26
390.867	3.58
391.076	85.5
391.286	91.65
391.496	-6.66
391.705	11.78
391.915	132.61
392.125	93.69
392.334	118.27
392.544	148.99
392.753	91.65
392.963	52.74
393.172	112.13
393.382	26.11
393.591	165.37
393.801	62.98
394.01	99.84
394.22	58.88
394.429	42.5
394.639	75.26
394.848	89.6
395.058	83.45
395.267	126.46
395.477	69.12
395.686	71.17
395.895	69.12
396.105	128.51
396.314	83.45
396.524	26.11
396.733	99.84
396.942	99.84
397.152	93.69
397.361	54.78
397.57	-2.56
397.78	112.13
397.989	87.55
398.198	110.08
398.407	75.26
398.617	71.17
398.826	24.06
399.035	71.17
399.244	200.19
399.453	93.69
399.663	136.7
399.872	122.37
400.081	120.32
400.29	120.32
400.499	54.78
400.708	124.41
400.917	128.51
401.127	171.52
401.336	-2.56
401.545	118.27
401.754	165.37
401.963	110.08
402.172	65.02
402.381	81.41
402.59	173.57
402.799	181.76
403.008	163.33
403.217	73.21
403.426	167.42
403.635	116.22
403.844	144.89
404.053	153.09
404.262	159.23
404.471	185.85
404.68	173.57
404.888	103.93
405.097	103.93
405.306	130.56
405.515	140.8
405.724	148.99
405.933	196.09
406.142	208.38
406.35	177.66
406.559	232.96
406.768	218.62
406.977	210.43
407.185	206.33
407.394	224.76
407.603	255.48
407.812	261.63
408.02	214.52
408.229	253.44
408.438	257.53
408.646	329.21
408.855	222.72
409.064	286.2
409.272	224.76
409.481	368.12
409.69	349.69
409.898	298.49
410.107	318.97
410.315	339.45
410.524	353.79
410.733	407.03
410.941	312.83
411.15	337.4
411.358	345.59
411.567	456.19
411.775	450.04
411.984	386.55
412.192	437.75
412.401	488.95
412.609	474.62
412.818	570.87
413.026	544.25
413.234	484.86
413.443	646.65
413.651	566.78
413.86	601.59
414.068	632.31
414.276	611.83
414.485	689.65
414.693	718.33
414.901	787.96
415.11	689.65
415.318	685.56
415.526	775.67
415.734	853.49
415.943	775.67
416.151	835.06
416.359	830.96
416.567	1002.99
416.776	890.35
416.984	888.31
417.192	1021.42
417.4	1089.01
417.608	1019.38
417.817	1150.45
418.025	1123.82
418.233	1347.05
418.441	1158.64
418.649	1261.04
418.857	1402.35
419.065	1390.06
419.273	1318.38
419.481	1392.11
419.689	1445.35
419.897	1555.94
420.105	1607.14
420.313	1658.34
420.521	1644.01
420.729	1603.05
420.937	1717.73
421.145	1807.84
421.353	1863.14
421.561	2041.31
421.769	1955.3
421.977	2160.1
422.185	2063.84
422.393	2266.59
422.601	2280.93
422.809	2301.4
423.017	2389.47
423.224	2577.88
423.432	2637.27
423.64	2555.35
423.848	2885.08
424.056	2829.78
424.263	2891.22
424.471	3081.68
424.679	3030.48
424.887	3210.7
425.094	3337.68
425.302	3366.35
425.51	3411.4
425.718	3497.42
425.925	3620.3
426.133	3677.64
426.341	3999.17
426.548	4103.62
426.756	4103.62
426.964	4169.15
427.171	4281.79
427.379	4562.36
427.586	4388.29
427.794	4634.04
428.001	4793.78
428.209	5170.61
428.417	5045.68
428.624	5322.16
428.832	5514.67
429.039	5369.26
429.247	5422.51
429.454	5944.74
429.662	6208.93
429.869	5985.7
430.076	6180.26
430.284	6249.89
430.491	6524.32
430.699	6702.49
430.906	6837.66
431.114	6788.5
431.321	7157.14
431.528	7273.87
431.736	7605.64
431.943	8048.01
432.15	7957.89
432.358	8017.29
432.565	8125.83
432.772	8263.04
432.979	8682.88
433.187	9061.75
433.394	9137.52
433.601	9565.55
433.808	9663.85
434.016	9575.79
434.223	10005.86
434.43	10696.03
434.637	10405.22
434.844	10802.52
435.052	11074.9
435.259	10943.83
435.466	11279.7
435.673	10855.77
435.88	11828.56
436.087	12469.57
436.294	12522.82
436.501	12184.9
436.708	12481.86
436.915	12645.7
437.122	13311.28
437.329	13356.34
437.537	13567.28
437.743	13901.1
437.95	13856.04
438.157	14691.62
438.364	15303.96
438.571	14951.71
438.778	15131.93
438.985	16561.41
439.192	15768.85
439.399	16420.1
439.606	16002.32
439.813	17175.8
440.02	18029.8
440.227	17655.03
440.433	17468.66
440.64	17882.35
440.847	17775.86
441.054	18345.19
441.261	19596.5
441.467	19533.01
441.674	19797.2
441.881	20479.18
442.088	20116.69
442.294	20227.28
442.501	20917.44
442.708	21347.51
442.914	21550.26
443.121	23106.72
443.328	22484.14
443.534	23858.32
443.741	23069.86
443.948	22686.89
444.154	24607.88
444.361	24429.71
444.568	24814.73
444.774	24642.7
444.981	24847.49
445.187	25713.78
445.394	27110.5
445.6	26248.3
445.807	29205.57
446.013	27655.26
446.22	27995.22
446.426	29037.64
446.633	29375.55
446.839	30524.46
447.046	29291.59
447.252	30909.48
447.459	30880.81
447.665	30669.87
447.871	32048.15
448.078	33297.41
448.284	31652.89
448.491	32775.18
448.697	33797.12
448.903	34788.33
449.11	34386.93
449.316	33586.18
449.522	34952.17
449.728	35130.34
449.935	35947.48
450.141	35408.87
450.347	36600.79
450.553	35415.01
450.76	35455.97
450.966	36848.59
451.172	36391.89
451.378	37428.16
451.584	36508.63
451.791	37362.63
451.997	37428.16
452.203	38095.8
452.409	37583.81
452.615	37653.44
452.821	36318.17
453.027	35957.72
453.233	37405.64
453.44	36533.2
453.646	36793.29
453.852	36731.86
454.058	37518.28
454.264	36058.07
454.47	37012.43
454.676	35820.51
454.882	37376.97
455.088	33856.51
455.294	34790.38
455.5	34943.98
455.705	35410.92
455.911	33735.68
456.117	33285.12
456.323	32564.24
456.529	31116.33
456.735	32373.78
456.941	31691.8
457.147	31104.04
457.352	30426.16
457.558	29637.69
457.764	29975.61
457.97	29471.81
458.176	28664.91
458.381	28513.36
458.587	27257.95
458.793	26979.43
458.999	25990.26
459.204	27655.26
459.41	27102.31
459.616	25169.02
459.821	25150.59
460.027	25316.48
460.233	24720.52
460.438	23407.77
460.644	23649.43
460.85	22539.43
461.055	22217.9
461.261	22135.98
461.466	20561.09
461.672	19805.39
461.878	21400.76
462.083	20075.73
462.289	19506.39
462.494	19395.8
462.7	18400.49
462.905	18105.58
463.111	18693.35
463.316	18609.38
463.522	18257.13
463.727	18322.66
463.932	18404.58
464.138	18154.73
464.343	18406.63
464.549	17753.33
464.754	18582.76
464.959	18097.39
465.165	17947.89
465.37	17214.71
465.575	16792.83
465.781	17413.37
465.986	17503.48
466.191	16792.83
466.397	16616.71
466.602	15924.49
466.807	16588.03
467.012	16362.76
467.218	16209.16
467.423	16170.25
467.628	16295.18
467.833	16747.78
468.038	16317.7
468.244	15840.53
468.449	16342.28
468.654	16026.89
468.859	15852.81
469.064	15602.96
469.269	15156.5
469.474	15273.24
469.679	15506.71
469.885	15017.24
470.09	15260.95
470.295	15070.49
470.5	14777.63
470.705	14748.96
470.91	14431.52
471.115	14296.36
471.32	14699.81
471.525	14392.61
471.73	14054.7
471.935	13987.11
472.139	13593.9
472.344	13921.58
472.549	13608.24
472.754	13491.51
472.959	13387.06
473.164	12934.46
473.369	12836.16
473.574	13301.05
473.778	13079.86
473.983	13006.14
474.188	12858.68
474.393	12639.55
474.598	12387.65
474.802	12072.26
475.007	12434.75
475.212	12219.72
475.417	11953.48
475.621	11779.4
475.826	11914.57
476.031	11421.01
476.235	11410.77
476.44	11642.19
476.645	11375.95
476.849	11316.56
477.054	11347.28
477.259	11418.96
477.463	10972.5
477.668	10534.24
477.872	10847.58
478.077	10657.12
478.282	10409.31
478.486	10726.75
478.691	10388.83
478.895	10409.31
479.1	9956.71
479.304	10300.77
479.509	9854.31
479.713	10134.89
479.918	9987.43
480.122	9954.66
480.326	9850.22
480.531	10046.82
480.735	9760.11
480.94	9594.22
481.144	10110.31
481.348	9397.62
481.553	9782.63
481.757	9602.41
481.961	9624.94
482.166	9764.2
482.37	9452.91
482.574	9409.9
482.778	9612.65
482.983	9631.09
483.187	9543.02
483.391	9543.02
483.595	9436.53
483.8	9268.59
484.004	9325.94
484.208	9678.19
484.412	9301.36
484.616	9344.37
484.821	9678.19
485.025	9352.56
485.229	9811.31
485.433	9391.47
485.637	9360.75
485.841	9401.71
486.045	9452.91
486.249	9479.54
486.453	9399.66
486.657	9659.76
486.861	9493.87
487.065	9100.66
487.269	9426.29
487.473	9526.64
487.677	9457.01
487.881	9438.58
488.085	9506.16
488.289	9444.72
488.493	9411.95
488.697	9581.93
488.901	9631.09
489.105	9282.93
489.309	9661.8
489.512	9555.31
489.716	9674.09
489.92	9713
490.124	9399.66
490.328	9540.97
490.531	9573.74
490.735	9756.01
490.939	9762.16
491.143	9659.76
491.346	9647.47
491.55	9846.12
491.754	9887.08
491.958	9948.52
492.161	9903.46
492.365	10048.87
492.569	9731.44
492.772	9608.56
492.976	10276.2
493.18	10214.76
493.383	10077.54
493.587	10233.19
493.79	10308.96
493.994	10124.65
494.197	10450.27
494.401	10237.28
494.605	10448.22
494.808	10579.29
495.012	10593.63
495.215	10683.74
495.419	10777.95
495.622	10599.77
495.825	10872.15
496.029	10894.68
496.232	10849.63
496.436	11269.46
496.639	11545.94
496.843	11183.45
497.046	11773.26
497.249	11650.38
497.453	11722.06
497.656	11672.91
497.859	11869.51
498.063	11951.43
498.266	12197.19
498.469	12234.05
498.673	12449.09
498.876	12414.27
499.079	12692.8
499.282	12494.15
499.485	12678.46
499.689	12913.98
499.892	13198.65
500.095	13290.81
500.298	13579.57
500.501	13399.35
500.705	13778.22
500.908	13983.02
501.111	13915.44
501.314	14173.48
501.517	14427.43
501.72	14517.54
501.923	14365.99
502.126	14677.28
502.329	15004.96
502.532	15148.31
502.735	15131.93
502.938	15437.08
503.141	15457.56
503.344	15711.5
503.547	15617.3
503.75	15912.21
503.953	16182.54
504.156	16454.92
504.359	16575.75
504.562	16545.03
504.765	16819.46
504.968	16991.48
505.17	17446.13
505.373	17284.34
505.576	17749.23
505.779	17988.85
505.982	17974.51
506.185	18066.67
506.387	18466.02
506.59	18427.11
506.793	18541.8
506.996	18752.74
507.198	19201.24
507.401	19320.03
507.604	19336.41
507.807	19934.42
508.009	20028.62
508.212	19983.57
508.415	20436.17
508.617	20464.84
508.82	20833.47
509.022	20509.9
509.225	20978.88
509.428	21179.58
509.63	21421.24
509.833	21384.38
510.035	22054.06
510.238	21556.41
510.44	21978.29
510.643	22428.84
510.845	22678.69
511.048	22785.19
511.25	23123.1
511.453	22789.28
511.655	24138.9
511.858	23710.87
512.06	23905.43
512.262	24016.02
512.465	24167.57
512.667	24315.02
512.87	24818.82
513.072	24775.81
513.274	25046.15
513.477	25599.1
513.679	25799.8
513.881	25980.02
514.084	26256.5
514.286	26059.89
514.488	26242.16
514.69	27180.13
514.893	26922.09
515.095	27020.39
515.297	27339.87
515.499	27559
515.701	27987.03
515.904	28234.83
516.106	28589.13
516.308	28507.21
516.51	28906.57
516.712	28761.16
516.914	28871.75
517.116	29568.06
517.318	30045.24
517.52	30061.62
517.722	30268.47
517.925	30334
518.127	30891.05
518.329	31054.89
518.531	31040.55
518.733	31415.33
518.935	31863.83
519.136	31665.18
519.338	32115.73
519.54	32480.27
519.742	32562.19
519.944	32478.22
520.146	33291.27
520.348	33379.33
520.55	33487.87
520.752	33747.97
520.954	34100.22
521.155	34096.12
521.357	34726.89
521.559	34595.82
521.761	35116.01
521.963	35245.03
522.164	35541.99
522.366	35447.78
522.568	35949.53
522.77	36058.07
522.971	36316.12
523.173	36383.7
523.375	36719.57
523.576	36293.59
523.778	36641.74
523.98	37329.86
524.181	37344.2
524.383	37231.56
524.584	37770.18
524.786	37786.56
524.988	37764.03
525.189	38298.55
525.391	38370.23
525.592	38624.18
525.794	38779.82
525.995	38407.09
526.197	38910.89
526.398	38527.92
526.6	38925.23
526.801	39267.24
527.003	39521.19
527.204	39109.55
527.406	39754.66
527.607	39998.37
527.808	40158.11
528.01	39445.41
528.211	40240.03
528.412	40784.79
528.614	40348.57
528.815	40352.66
529.016	41077.65
529.218	40481.69
529.419	40276.89
529.62	40854.42
529.822	40668.05
530.023	40567.7
530.224	40776.59
530.425	40543.13
530.626	40799.12
530.828	40340.38
531.029	41440.14
531.23	40749.97
531.431	41180.04
531.632	41063.31
531.833	41270.15
532.035	41345.93
532.236	41655.17
532.437	41669.51
532.638	41431.94
532.839	41747.33
533.04	41892.74
533.241	41210.76
533.442	42109.82
533.643	41622.4
533.844	41653.12
534.045	42036.09
534.246	41581.45
534.447	41913.22
534.648	41759.62
534.849	41819.01
535.05	41601.93
535.251	41530.25
535.451	41345.93
535.652	41788.29
535.853	41479.05
536.054	41501.57
536.255	42005.38
536.456	41655.17
536.657	42404.73
536.857	41634.69
537.058	41544.58
537.259	41712.52
537.46	42001.28
537.66	41565.06
537.861	41991.04
538.062	41763.71
538.263	42144.64
538.463	41569.16
538.664	41665.41
538.865	41896.83
539.065	41784.19
539.266	41472.9
539.466	42369.91
539.667	40989.58
539.868	41884.54
540.068	41737.09
540.269	41798.53
540.469	42048.38
540.67	41874.31
540.87	41364.36
541.071	41696.13
541.271	41804.67
541.472	41591.69
541.672	41671.56
541.873	41388.94
542.073	40930.19
542.274	41692.04
542.474	41853.83
542.675	41253.77
542.875	42015.61
543.075	41517.96
543.276	41186.19
543.476	41870.21
543.676	41151.37
543.877	41739.14
544.077	41814.91
544.277	41284.49
544.478	41401.22
544.678	41626.5
544.878	41384.84
545.078	41759.62
545.279	41159.56
545.479	41098.12
545.679	41565.06
545.879	41585.54
546.079	41104.27
546.28	41169.8
546.48	41178
546.68	41831.3
546.88	41245.58
547.08	41227.15
547.28	41094.03
547.48	40999.82
547.68	41442.18
547.88	41079.69
548.081	41237.39
548.281	41245.58
548.481	41149.32
548.681	41380.74
548.881	40835.98
549.081	41444.23
549.28	41171.85
549.48	41132.94
549.68	40815.51
549.88	41548.68
550.08	41134.99
550.28	41364.36
550.48	40481.69
550.68	41782.15
550.88	40614.8
551.08	40778.64
551.279	41069.45
551.479	40932.24
551.679	41077.65
551.879	40868.75
552.079	41075.6
552.278	40991.63
552.478	41008.01
552.678	40833.94
552.878	41276.3
553.077	41161.61
553.277	40393.62
553.477	41390.98
553.676	40471.45
553.876	40780.69
554.076	40389.53
554.275	40706.96
554.475	40237.98
554.674	40518.55
554.874	40610.71
555.074	40323.99
555.273	40911.76
555.473	40803.22
555.672	40264.6
555.872	40287.13
556.071	40911.76
556.271	40694.68
556.47	40266.65
556.67	39924.64
556.869	40524.69
557.068	40283.03
557.268	39867.3
557.467	40129.44
557.667	40168.35
557.866	40135.58
558.065	40156.06
558.265	39556
558.464	39783.33
558.663	40432.54
558.863	39480.23
559.062	40266.65
559.261	39584.68
559.461	40078.24
559.66	39031.72
559.859	39766.95
560.058	39328.68
560.258	39777.19
560.457	39205.8
560.656	39621.54
560.855	39453.61
561.054	39793.57
561.253	38882.22
561.453	39379.88
561.652	39402.41
561.851	39420.84
562.05	39390.12
562.249	39019.44
562.448	39457.7
562.647	39220.14
562.846	39320.49
563.045	39179.18
563.244	38529.97
563.443	39435.17
563.642	38546.36
563.841	38509.49
564.04	38466.49
564.239	39037.87
564.438	38165.43
564.637	38753.2
564.836	38708.15
565.035	38149.05
565.234	38063.04
565.432	38044.6
565.631	38304.7
565.83	37874.62
566.029	37946.3
566.228	38026.17
566.427	37706.69
566.625	37540.8
566.824	37454.79
567.023	37850.05
567.222	37116.87
567.42	37620.67
567.619	37260.23
567.818	37387.21
568.016	37026.76
568.215	37624.77
568.414	36985.8
568.612	37170.12
568.811	37235.66
569.01	37301.19
569.208	36637.65
569.407	36772.81
569.605	36205.53
569.804	37192.65
570.002	36588.5
570.201	36543.44
570.4	36166.62
570.598	36297.69
570.797	36281.3
570.995	36037.59
571.193	36027.35
571.392	36289.49
571.59	35963.87
571.789	35945.44
571.987	35589.09
572.186	36031.45
572.384	35474.4
572.582	35832.8
572.781	35849.18
572.979	35212.26
573.177	34970.6
573.376	35574.75
573.574	34948.07
573.772	35285.99
573.971	35290.09
574.169	35195.88
574.367	34749.42
574.565	34917.36
574.763	34878.44
574.962	34524.15
575.16	34206.71
575.358	34771.95
575.556	34339.83
575.754	34812.91
575.952	34114.55
576.151	34624.5
576.349	33973.24
576.547	33580.03
576.745	34337.78
576.943	34081.78
577.141	33803.26
577.339	33991.67
577.537	34008.06
577.735	33854.46
577.933	33352.71
578.131	33721.34
578.329	33600.51
578.527	33162.25
578.725	32859.15
578.923	33342.47
579.121	33278.98
579.319	33119.24
579.516	33182.73
579.714	33252.36
579.912	32754.7
580.11	32824.33
580.308	33027.08
580.506	33074.18
580.704	32177.17
580.901	32943.11
581.099	32642.06
581.297	31972.38
581.495	31982.62
581.692	32891.91
581.89	32093.21
582.088	32009.24
582.285	31904.79
582.483	31788.06
582.681	31894.55
582.878	31548.45
583.076	31310.88
583.274	31708.19
583.471	31173.67
583.669	31206.44
583.866	31061.03
584.064	31855.64
584.262	30667.82
584.459	31306.79
584.657	31042.6
584.854	31124.52
585.052	30295.09
585.249	31132.71
585.447	30540.85
585.644	30489.65
585.841	30514.22
586.039	30682.16
586.236	30268.47
586.434	30166.07
586.631	30131.25
586.828	30145.59
587.026	29975.61
587.223	29994.04
587.42	30000.18
587.618	29948.98
587.815	29688.89
588.012	29488.19
588.21	29377.6
588.407	29981.75
588.604	29480
588.801	29254.72
588.999	29383.74
589.196	29072.45
589.393	29125.7
589.59	29074.5
589.787	28949.57
589.984	28550.22
590.182	28851.27
590.379	28705.87
590.576	28585.04
590.773	28466.25
590.97	28814.41
591.167	28783.69
591.364	28087.38
591.561	28300.37
591.758	27972.69
591.955	27907.16
592.152	28378.19
592.349	28150.87
592.546	28140.63
592.743	27937.88
592.94	27608.15
593.137	27780.18
593.334	27837.53
593.531	27423.84
593.727	27552.86
593.924	27542.62
594.121	26831.97
594.318	27448.41
594.515	26965.09
594.712	27628.63
594.908	27047.01
595.105	27190.37
595.302	26711.14
595.499	26858.6
595.696	26778.73
595.892	26362.99
596.089	26774.63
596.286	26743.91
596.482	26362.99
596.679	26268.78
596.876	26213.49
597.072	26309.74
597.269	26047.6
597.466	25715.83
597.662	26018.93
597.859	26045.55
598.055	25769.08
598.252	25465.98
598.448	25392.25
598.645	25769.08
598.841	25078.91
599.038	25599.1
599.234	25316.48
599.431	25105.54
599.627	25330.81
599.824	25279.61
600.02	25207.94
600.217	24892.55
600.413	25164.93
600.609	24820.87
600.806	24837.25
601.002	24845.44
601.198	24781.96
601.395	24491.15
601.591	24358.03
601.787	24599.69
601.984	24366.22
602.18	24540.3
602.376	24222.86
602.572	23956.63
602.769	24247.44
602.965	24108.18
603.161	23768.21
603.357	23938.19
603.553	23676.05
603.75	23975.06
603.946	23819.41
604.142	23594.14
604.338	23407.77
604.534	23772.31
604.73	23110.82
604.926	23438.49
605.122	23348.38
605.318	23430.3
605.514	23053.47
605.71	22863.01
605.906	23006.37
606.102	22754.47
606.298	23045.28
606.494	22631.59
606.69	22629.54
606.886	22768.8
607.082	22559.91
607.278	22738.09
607.474	22189.23
607.67	22570.15
607.866	22314.16
608.062	22707.37
608.257	22258.86
608.453	22400.17
608.649	22357.16
608.845	21963.95
609.041	22291.63
609.236	22389.93
609.432	22074.54
609.628	22103.21
609.824	21845.17
610.019	22002.86
610.215	21847.22
610.411	21949.62
610.606	21548.22
610.802	21906.61
610.998	21882.03
611.193	21896.37
611.389	21451.96
611.584	21415.1
611.78	21275.84
611.976	21585.08
612.171	21472.44
612.367	21322.94
612.562	21372.09
612.758	21341.37
612.953	21122.24
613.149	21404.86
613.344	21101.76
613.539	21470.39
613.735	21077.18
613.93	21435.58
614.126	20915.39
614.321	21013.7
614.517	21077.18
614.712	20903.11
614.907	20663.49
615.103	21093.57
615.298	20735.17
615.493	21056.7
615.688	20630.73
615.884	21032.13
616.079	20503.75
616.274	20675.78
616.47	20774.08
616.665	20405.45
616.86	20638.92
617.055	20157.64
617.25	20133.07
617.445	20817.09
617.641	20200.65
617.836	20114.64
618.031	19977.42
618.226	20413.64
618.421	19950.8
618.616	20104.4
618.811	19741.91
619.006	20368.59
619.201	19602.64
619.396	19952.85
619.591	19834.07
619.786	19774.67
619.981	19518.68
620.176	19696.85
620.371	19246.3
620.566	19573.97
620.761	19121.37
620.956	19311.83
621.151	18762.98
621.346	19274.97
621.541	18599.14
621.735	18851.04
621.93	18601.19
622.125	18926.82
622.32	18365.67
622.515	18515.17
622.709	18177.26
622.904	18341.1
623.099	18318.57
623.294	18093.29
623.488	17990.89
623.683	17990.89
623.878	17691.89
624.072	17882.35
624.267	17837.3
624.462	17616.12
624.656	17419.51
624.851	17655.03
625.046	17263.86
625.24	17313.02
625.435	17016.06
625.629	17069.31
625.824	17145.08
626.018	16911.61
626.213	16723.2
626.407	16735.49
626.602	16446.73
626.796	16471.3
626.991	16839.94
627.185	16602.37
627.38	16149.77
627.574	16178.44
627.768	16047.37
627.963	16035.08
628.157	15809.81
628.352	15961.36
628.546	15549.71
628.74	15512.85
628.935	15461.65
629.129	15813.9
629.323	15326.49
629.517	15480.08
629.712	15119.64
629.906	15330.58
630.1	15045.91
630.294	15154.46
630.489	15064.35
630.683	14945.56
630.877	14812.45
631.071	14798.11
631.265	14677.28
631.459	14368.04
631.653	14495.01
631.848	14634.27
632.042	14363.94
632.236	14368.04
632.43	14138.66
632.624	14005.55
632.818	14085.42
633.012	13927.72
633.206	14116.14
633.4	14034.22
633.594	13702.45
633.788	13661.49
633.982	13753.65
634.176	13839.66
634.369	13305.14
634.563	13614.38
634.757	13278.52
634.951	13247.8
635.145	13538.61
635.339	13352.24
635.533	13112.63
635.726	13182.26
635.92	12961.08
636.114	13065.53
636.308	12809.53
636.501	12895.55
636.695	12809.53
636.889	12946.75
637.083	12500.29
637.276	12412.23
637.47	12522.82
637.664	12356.93
637.857	12334.4
638.051	12272.96
638.244	12150.09
638.438	11871.56
638.632	12066.12
638.825	11849.04
639.019	11984.2
639.212	11865.42
639.406	11863.37
639.599	11697.49
639.793	11943.24
639.986	11525.46
640.18	11779.4
640.373	11560.27
640.567	11400.53
640.76	11367.76
640.954	11185.49
641.147	11498.83
641.34	11246.93
641.534	11203.93
641.727	11205.97
641.92	11044.18
642.114	10978.65
642.307	11060.57
642.5	11066.71
642.694	10718.56
642.887	10616.16
643.08	10837.34
643.273	10450.27
643.467	10653.02
643.66	10460.51
643.853	10683.74
644.046	10466.66
644.239	10317.15
644.432	10284.39
644.626	10354.02
644.819	10227.04
645.012	10245.48
645.205	10175.84
645.398	10059.11
645.591	10108.26
645.784	10012.01
645.977	9885.03
646.17	9880.94
646.363	9885.03
646.556	9616.75
646.749	9618.8
646.942	9731.44
647.135	9670
647.328	9526.64
647.521	9411.95
647.714	9379.18
647.907	9526.64
648.099	9504.11
648.292	9446.77
648.485	9350.51
648.678	9020.79
648.871	9131.38
649.064	9133.43
649.256	9362.8
649.449	9178.48
649.642	8924.54
649.835	9088.37
650.027	8824.19
650.22	8863.1
650.413	8834.43
650.605	8701.31
650.798	8695.16
650.991	8404.35
651.183	8549.76
651.376	8525.18
651.568	8703.36
651.761	8537.47
651.954	8363.39
652.146	8502.65
652.339	8353.15
652.531	8093.06
652.724	8269.19
652.916	7959.94
653.109	8080.77
653.301	8035.72
653.494	7984.52
653.686	7935.37
653.879	8119.68
654.071	7947.65
654.263	7855.5
654.456	7861.64
654.648	7933.32
654.84	7699.85
655.033	7869.83
655.225	7755.15
655.417	7720.33
655.61	7636.36
655.802	7800.2
655.994	7474.57
656.186	7456.14
656.379	7306.64
656.571	7507.34
656.763	7296.4
656.955	7263.63
657.148	7423.37
657.34	7157.14
657.532	7224.72
657.724	7316.88
657.916	7347.6
658.108	7128.47
658.3	7028.12
658.492	7075.22
658.684	7007.64
658.876	6839.7
659.068	6864.28
659.26	6993.3
659.452	6864.28
659.644	6819.22
659.836	6868.38
660.028	6798.74
660.22	6702.49
660.412	6684.06
660.604	6722.97
660.796	6598.04
660.988	6546.84
661.18	6636.95
661.372	6450.59
661.563	6651.29
661.755	6454.69
661.947	6499.74
662.139	6440.35
662.331	6268.32
662.522	6557.08
662.714	6393.25
662.906	6335.9
663.097	6376.86
663.289	6206.88
663.481	6122.91
663.673	6202.79
663.864	6167.97
664.056	5930.41
664.247	6030.76
664.439	6176.16
664.631	5868.97
664.822	6190.5
665.014	5940.65
665.205	5772.71
665.397	5895.59
665.588	5864.87
665.78	5895.59
665.971	5754.28
666.163	5733.8
666.354	5723.56
666.546	5641.64
666.737	5770.66
666.929	5844.39
667.12	5756.33
667.311	5588.39
667.503	5428.65
667.694	5731.75
667.885	5434.8
668.077	5520.81
668.268	5377.45
668.459	5340.59
668.651	5424.56
668.842	5324.21
669.033	5262.77
669.224	5356.97
669.416	5483.95
669.607	5326.25
669.798	5277.1
669.989	5191.09
670.18	5305.78
670.371	5219.76
670.563	5223.86
670.754	5160.37
670.945	5291.44
671.136	5254.58
671.327	5254.58
671.518	4992.44
671.709	5088.69
671.9	5211.57
672.091	5025.2
672.282	5068.21
672.473	4945.33
672.664	5002.68
672.855	4994.48
673.046	5006.77
673.237	4933.04
673.428	4926.9
673.619	4986.29
673.809	4836.79
674	4851.13
674.191	4859.32
674.382	4758.97
674.573	4724.15
674.764	4662.71
674.954	4730.3
675.145	4631.99
675.336	4679.1
675.527	4738.49
675.717	4724.15
675.908	4619.71
676.099	4650.43
676.289	4777.4
676.48	4562.36
676.671	4515.26
676.861	4472.25
677.052	4599.23
677.243	4482.49
677.433	4533.69
677.624	4498.88
677.814	4591.03
678.005	4568.51
678.195	4371.9
678.386	4302.27
678.576	4402.62
678.767	4380.09
678.957	4416.96
679.148	4439.48
679.338	4414.91
679.529	4355.52
679.719	4328.89
679.909	4380.09
680.1	4445.63
680.29	4257.22
680.481	4429.24
680.671	4400.57
680.861	4355.52
681.052	4251.07
681.242	4308.41
681.432	4404.67
681.622	4177.34
681.813	4201.92
682.003	4277.69
682.193	4203.97
682.383	4101.57
682.573	4095.43
682.764	4210.11
682.954	4156.86
683.144	4165.06
683.334	4138.43
683.524	3947.97
683.714	4017.6
683.904	4097.47
684.094	3972.55
684.284	3978.69
684.474	4013.51
684.664	4101.57
684.854	4003.27
685.044	3861.96
685.234	3868.1
685.424	3980.74
685.614	3995.08
685.804	3958.21
685.994	3915.2
686.184	3939.78
686.374	3798.47
686.564	3743.17
686.753	3851.72
686.943	3802.57
687.133	3956.16
687.323	3810.76
687.513	3788.23
687.702	3806.66
687.892	3689.93
688.082	3702.22
688.272	3773.89
688.461	3628.49
688.651	3642.82
688.841	3542.47
689.03	3663.3
689.22	3669.45
689.41	3628.49
689.599	3677.64
689.789	3726.79
689.979	3681.74
690.168	3546.57
690.358	3468.75
690.547	3519.95
690.737	3421.64
690.926	3419.6
691.116	3345.87
691.305	3499.47
691.495	3372.49
691.684	3565
691.874	3335.63
692.063	3392.97
692.252	3388.88
692.442	3380.68
692.631	3253.71
692.82	3327.44
693.01	3202.51
693.199	3327.44
693.388	3241.42
693.578	3280.33
693.767	3136.98
693.956	3147.22
694.146	3255.76
694.335	3116.5
694.524	3128.78
694.713	3225.04
694.902	3247.57
695.092	3179.98
695.281	3102.16
695.47	3204.56
695.659	3014.1
695.848	3067.35
696.037	3102.16
696.226	3147.22
696.415	2971.09
696.604	3028.43
696.793	2993.62
696.982	3044.82
697.171	3046.87
697.36	2915.8
697.549	2825.68
697.738	3073.49
697.927	3005.91
698.116	3034.58
698.305	2936.28
698.494	2887.12
698.683	2846.16
698.872	2907.6
699.061	3020.24
699.25	2874.84
699.438	2969.04
699.627	2848.21
699.816	2842.07
700.005	2770.39
700.193	2723.29
700.382	2940.37
700.571	2817.49
700.76	2952.66
700.948	2790.87
701.137	2829.78
701.326	2858.45
701.514	2672.09
701.703	2807.25
701.892	2754.01
702.08	3024.34
702.269	2811.35
702.457	2676.18
702.646	2831.83
702.834	2745.81
703.023	2725.33
703.212	2725.33
703.4	2766.29
703.589	2667.99
703.777	2774.49
703.965	2737.62
704.154	2809.3
704.342	2723.29
704.531	2704.85
704.719	2723.29
704.907	2655.7
705.096	2624.98
705.284	2655.7
705.472	2604.5
705.661	2704.85
705.849	2606.55
706.037	2584.02
706.226	2618.84
706.414	2612.7
706.602	2674.14
706.79	2678.23
706.979	2590.17
707.167	2688.47
707.355	2643.42
707.543	2659.8
707.731	2651.61
707.919	2627.03
708.107	2624.98
708.296	2731.48
708.484	2543.07
708.672	2602.46
708.86	2670.04
709.048	2631.13
709.236	2665.94
709.424	2594.26
709.612	2680.28
709.8	2608.6
709.988	2571.74
710.176	2651.61
710.364	2635.22
710.551	2551.26
710.739	2584.02
710.927	2741.72
711.115	2631.13
711.303	2561.5
711.491	2600.41
711.679	2530.78
711.866	2676.18
712.054	2553.31
712.242	2545.11
712.43	2557.4
712.617	2487.77
712.805	2577.88
712.993	2487.77
713.181	2448.86
713.368	2655.7
713.556	2733.53
713.744	2498.01
713.931	2700.76
714.119	2561.5
714.306	2579.93
714.494	2549.21
714.682	2391.52
714.869	2448.86
715.057	2584.02
715.244	2405.85
715.432	2512.35
715.619	2495.96
715.807	2493.91
715.994	2536.92
716.182	2676.18
716.369	2510.3
716.556	2498.01
716.744	2479.58
716.931	2653.66
717.119	2624.98
717.306	2512.35
717.493	2409.95
717.681	2483.67
717.868	2614.74
718.055	2522.59
718.242	2452.95
718.43	2538.97
718.617	2561.5
718.804	2528.73
718.991	2528.73
719.179	2473.43
719.366	2371.04
719.553	2579.93
719.74	2498.01
719.927	2350.56
720.114	2498.01
720.301	2389.47
720.488	2561.5
720.676	2475.48
720.863	2446.81
721.05	2575.83
721.237	2452.95
721.424	2418.14
721.611	2526.68
721.798	2549.21
721.985	2471.39
722.172	2463.19
722.358	2561.5
722.545	2471.39
722.732	2459.1
722.919	2510.3
723.106	2440.67
723.293	2479.58
723.48	2428.38
723.667	2491.87
723.853	2344.41
724.04	2485.72
724.227	2362.84
724.414	2399.71
724.6	2452.95
724.787	2477.53
724.974	2506.2
725.161	2368.99
725.347	2371.04
725.534	2391.52
725.72	2577.88
725.907	2373.08
726.094	2502.11
726.28	2455
726.467	2500.06
726.653	2438.62
726.84	2432.47
727.027	2479.58
727.213	2514.39
727.4	2457.05
727.586	2461.15
727.773	2397.66
727.959	2459.1
728.145	2481.63
728.332	2395.61
728.518	2315.74
728.705	2565.59
728.891	2506.2
729.077	2518.49
729.264	2450.91
729.45	2420.19
729.636	2647.51
729.823	2471.39
730.009	2518.49
730.195	2520.54
730.382	2504.15
730.568	2393.56
730.754	2514.39
730.94	2530.78
731.126	2579.93
731.313	2512.35
731.499	2440.67
731.685	2528.73
731.871	2397.66
732.057	2432.47
732.243	2559.45
732.429	2428.38
732.615	2368.99
732.801	2491.87
732.987	2452.95
733.173	2481.63
733.359	2422.24
733.545	2325.98
733.731	2442.71
733.917	2448.86
734.103	2463.19
734.289	2563.54
734.475	2420.19
734.661	2561.5
734.847	2473.43
735.033	2387.42
735.219	2430.43
735.404	2430.43
735.59	2407.9
735.776	2512.35
735.962	2416.09
736.148	2518.49
736.333	2291.17
736.519	2444.76
736.705	2543.07
736.89	2455
737.076	2432.47
737.262	2459.1
737.447	2426.33
737.633	2516.44
737.819	2487.77
738.004	2440.67
738.19	2315.74
738.375	2573.78
738.561	2387.42
738.747	2371.04
738.932	2440.67
739.118	2508.25
739.303	2268.64
739.489	2436.57
739.674	2295.26
739.859	2272.73
740.045	2391.52
740.23	2309.6
740.416	2309.6
740.601	2332.12
740.786	2379.23
740.972	2342.36
741.157	2389.47
741.342	2199.01
741.528	2237.92
741.713	2344.41
741.898	2272.73
742.084	2299.36
742.269	2313.69
742.454	2246.11
742.639	2311.64
742.824	2270.69
743.01	2397.66
743.195	2354.65
743.38	2362.84
743.565	2303.45
743.75	2237.92
743.935	2121.18
744.12	2323.93
744.305	2162.14
744.49	2192.86
744.675	2201.05
744.86	2182.62
745.045	2215.39
745.23	2065.89
745.415	2178.53
745.6	2188.77
745.785	2102.75
745.97	2221.53
746.155	2143.71
746.34	2096.61
746.525	2225.63
746.71	2162.14
746.895	2061.79
747.079	2215.39
747.264	1996.26
747.449	1951.2
747.634	2076.13
747.819	1988.07
748.003	2002.4
748.188	1990.11
748.373	2033.12
748.557	2061.79
748.742	1930.72
748.927	1943.01
749.111	1967.59
749.296	2012.64
749.481	2065.89
749.665	1887.72
749.85	1928.67
750.034	1893.86
750.219	1789.41
750.404	1859.04
750.588	1867.24
750.773	1838.56
750.957	1764.84
751.141	1832.42
751.326	1848.8
751.51	1748.45
751.695	1799.65
751.879	1789.41
752.064	1893.86
752.248	1789.41
752.432	1777.12
752.617	1727.97
752.801	1736.17
752.985	1795.56
753.17	1805.8
753.354	1799.65
753.538	1756.65
753.722	1654.25
753.907	1668.58
754.091	1539.56
754.275	1656.29
754.459	1576.42
754.643	1527.27
754.828	1543.66
755.012	1560.04
755.196	1527.27
755.38	1514.98
755.564	1611.24
755.748	1441.26
755.932	1469.93
756.116	1480.17
756.3	1433.07
756.484	1426.92
756.668	1488.36
756.852	1549.8
757.036	1455.59
757.22	1365.48
757.404	1492.46
757.588	1373.68
757.772	1422.83
757.956	1484.27
758.14	1402.35
758.323	1345
758.507	1379.82
758.691	1363.44
758.875	1439.21
759.059	1347.05
759.242	1320.43
759.426	1326.57
759.61	1287.66
759.794	1359.34
759.977	1299.95
760.161	1406.44
760.345	1283.56
760.528	1271.28
760.712	1308.14
760.895	1267.18
761.079	1258.99
761.263	1148.4
761.446	1295.85
761.63	1277.42
761.813	1287.66
761.997	1168.88
762.18	1181.17
762.364	1160.69
762.547	1289.71
762.731	1256.94
762.914	1185.26
763.098	1142.25
763.281	1207.79
763.464	1211.89
763.648	1209.84
763.831	1215.98
764.015	1164.78
764.198	1150.45
764.381	1160.69
764.564	1119.73
764.748	1009.14
764.931	1162.73
765.114	1068.53
765.297	1146.35
765.481	1146.35
765.664	1132.01
765.847	1103.34
766.03	1134.06
766.213	1146.35
766.397	1101.3
766.58	1072.62
766.763	1056.24
766.946	1009.14
767.129	1086.96
767.312	1097.2
767.495	1056.24
767.678	1103.34
767.861	1084.91
768.044	1035.76
768.227	1002.99
768.41	1103.34
768.593	1019.38
768.776	1000.94
768.959	996.85
769.142	1037.81
769.324	1080.82
769.507	941.55
769.69	1019.38
769.873	1002.99
770.056	1091.06
770.239	966.13
770.421	984.56
770.604	953.84
770.787	1027.57
770.97	994.8
771.152	1019.38
771.335	943.6
771.518	1025.52
771.7	941.55
771.883	962.03
772.066	1046
772.248	976.37
772.431	1025.52
772.613	910.83
772.796	902.64
772.978	947.7
773.161	898.55
773.343	945.65
773.526	898.55
773.708	882.16
773.891	857.59
774.073	816.63
774.256	863.73
774.438	1015.28
774.621	859.63
774.803	931.31
774.985	792.05
775.168	910.83
775.35	880.11
775.532	798.2
775.715	894.45
775.897	828.92
776.079	898.55
776.261	839.16
776.444	808.44
776.626	771.57
776.808	800.24
776.99	761.33
777.173	685.56
777.355	765.43
777.537	886.26
777.719	693.75
777.901	775.67
778.083	740.85
778.265	806.39
778.447	757.24
778.629	675.32
778.811	771.57
778.993	861.68
779.175	742.9
779.357	677.37
779.539	656.89
779.721	706.04
779.903	740.85
780.085	722.42
780.267	712.18
780.449	708.09
780.631	757.24
780.812	708.09
780.994	673.27
781.176	636.41
781.358	687.61
781.54	607.73
781.721	681.46
781.903	687.61
782.085	644.6
782.267	720.37
782.448	560.63
782.63	601.59
782.812	640.5
782.993	583.16
783.175	607.73
783.357	548.34
783.538	603.64
783.72	544.25
783.901	593.4
784.083	607.73
784.264	521.72
784.446	609.78
784.627	624.12
784.809	599.54
784.99	501.24
785.172	611.83
785.353	615.93
785.535	531.96
785.716	529.91
785.897	583.16
786.079	550.39
786.26	560.63
786.441	531.96
786.623	423.42
786.804	632.31
786.985	468.47
787.167	546.3
787.348	470.52
787.529	503.29
787.71	527.86
787.891	525.82
788.073	441.85
788.254	458.23
788.435	482.81
788.616	431.61
788.797	419.32
788.978	470.52
789.159	396.79
789.34	333.31
789.522	468.47
789.703	376.31
789.884	423.42
790.065	439.8
790.246	527.86
790.427	423.42
790.607	386.55
790.788	419.32
790.969	370.17
791.15	474.62
791.331	452.09
791.512	386.55
791.693	398.84
791.874	351.74
792.054	386.55
792.235	398.84
792.416	370.17
792.597	421.37
792.778	415.23
792.958	423.42
793.139	456.19
793.32	488.95
793.5	411.13
793.681	419.32
793.862	425.47
794.042	345.59
794.223	372.22
794.404	296.44
794.584	298.49
794.765	345.59
794.945	409.08
795.126	310.78
795.306	396.79
795.487	364.03
795.667	361.98
795.848	337.4
796.028	298.49
796.209	429.56
796.389	308.73
796.57	398.84
796.75	327.16
796.93	271.87
797.111	308.73
797.291	337.4
797.471	339.45
797.652	329.21
797.832	345.59
798.012	361.98
798.192	321.02
798.373	316.92
798.553	294.4
798.733	306.68
798.913	321.02
799.093	263.68
799.274	304.64
799.454	312.83
799.634	370.17
799.814	361.98
799.994	198.14
800.174	364.03
800.354	300.54
800.534	286.2
800.714	275.96
800.894	292.35
801.074	298.49
801.254	290.3
801.434	302.59
801.614	300.54
801.794	294.4
801.974	615.93
802.154	284.16
802.334	282.11
802.514	308.73
802.693	331.26
802.873	263.68
803.053	235
803.233	232.96
803.413	251.39
803.592	298.49
803.772	228.86
803.952	228.86
804.131	206.33
804.311	183.81
804.491	325.12
804.67	288.25
804.85	230.91
805.03	280.06
805.209	249.34
805.389	189.95
805.568	292.35
805.748	253.44
805.928	265.72
806.107	255.48
806.287	278.01
806.466	165.37
806.646	222.72
806.825	155.13
807.004	265.72
807.184	208.38
807.363	210.43
807.543	235
807.722	212.48
807.901	220.67
808.081	177.66
808.26	239.1
808.439	239.1
808.619	228.86
808.798	239.1
808.977	132.61
809.156	269.82
809.336	169.47
809.515	183.81
809.694	185.85
809.873	235
810.052	224.76
810.231	202.24
810.411	206.33
810.59	202.24
810.769	202.24
810.948	226.81
811.127	140.8
811.306	97.79
811.485	177.66
811.664	214.52
811.843	206.33
812.022	232.96
812.201	210.43
812.38	187.9
812.559	155.13
812.737	218.62
812.916	218.62
813.095	177.66
813.274	134.65
813.453	200.19
813.632	194.05
813.811	208.38
813.989	165.37
814.168	228.86
814.347	171.52
814.526	163.33
814.704	161.28
814.883	249.34
815.062	169.47
815.24	249.34
815.419	126.46
815.598	148.99
815.776	241.15
815.955	259.58
816.133	116.22
816.312	185.85
816.49	132.61
816.669	206.33
816.847	187.9
817.026	140.8
817.204	134.65
817.383	189.95
817.561	169.47
817.74	224.76
817.918	169.47
818.097	177.66
818.275	175.61
818.453	194.05
818.632	65.02
818.81	169.47
818.988	136.7
819.167	99.84
819.345	210.43
819.523	54.78
819.701	122.37
819.879	161.28
820.058	136.7
820.236	93.69
820.414	210.43
820.592	163.33
820.77	169.47
820.948	218.62
821.127	142.85
821.305	140.8
821.483	91.65
821.661	148.99
821.839	167.42
822.017	144.89
822.195	105.98
822.373	151.04
822.551	185.85
822.729	148.99
822.907	114.17
823.085	185.85
823.262	124.41
823.44	89.6
823.618	163.33
823.796	163.33
823.974	179.71
824.152	146.94
824.329	79.36
824.507	114.17
824.685	79.36
824.863	165.37
825.04	103.93
825.218	118.27
825.396	114.17
825.574	130.56
825.751	169.47
825.929	216.57
826.107	44.54
826.284	99.84
826.462	85.5
826.639	130.56
826.817	93.69
826.994	56.83
827.172	97.79
827.349	140.8
827.527	136.7
827.704	159.23
827.882	38.4
828.059	161.28
828.237	17.92
828.414	132.61
828.591	101.89
828.769	105.98
828.946	157.18
829.124	157.18
829.301	85.5
829.478	112.13
829.655	122.37
829.833	87.55
830.01	105.98
830.187	101.89
830.364	101.89
830.542	60.93
830.719	146.94
830.896	124.41
831.073	120.32
831.25	110.08
831.427	169.47
831.604	62.98
831.782	75.26
831.959	83.45
832.136	105.98
832.313	69.12
832.49	-4.61
832.667	93.69
832.844	65.02
833.021	183.81
833.198	79.36
833.374	87.55
833.551	79.36
833.728	112.13
833.905	171.52
834.082	3.58
834.259	198.14
834.436	134.65
834.612	15.87
834.789	105.98
834.966	105.98
835.143	65.02
835.319	91.65
835.496	85.5
835.673	75.26
835.85	85.5
836.026	71.17
836.203	36.35
836.38	73.21
836.556	103.93
836.733	36.35
836.909	110.08
837.086	99.84
837.262	79.36
837.439	75.26
837.616	77.31
837.792	46.59
837.968	116.22
838.145	28.16
838.321	32.26
838.498	52.74
838.674	69.12
838.851	54.78
839.027	52.74
839.203	69.12
839.38	118.27
839.556	-2.56
839.732	110.08
839.909	60.93
840.085	126.46
840.261	62.98
840.437	-0.51
840.614	54.78
840.79	85.5
840.966	69.12
841.142	130.56
841.318	85.5
841.494	130.56
841.671	13.82
841.847	81.41
842.023	54.78
842.199	22.02
842.375	58.88
842.551	5.63
842.727	17.92
842.903	85.5
843.079	28.16
843.255	122.37
843.431	46.59
843.607	112.13
843.783	30.21
843.959	58.88
844.134	28.16
844.31	48.64
844.486	30.21
844.662	48.64
844.838	52.74
845.013	50.69
845.189	30.21
845.365	38.4
845.541	73.21
845.716	77.31
845.892	58.88
846.068	67.07
846.244	134.65
846.419	108.03
846.595	58.88
846.77	1.54
846.946	83.45
847.122	65.02
847.297	-27.14
847.473	17.92
847.648	22.02
847.824	75.26
847.999	34.3
848.175	-4.61
848.35	91.65
848.526	75.26
848.701	62.98
848.876	65.02
849.052	69.12
849.227	17.92
849.403	-4.61
849.578	54.78
849.753	36.35
849.929	99.84
850.104	-20.99
850.279	81.41
850.454	99.84
850.63	28.16
850.805	19.97
850.98	34.3
851.155	65.02
851.33	26.11
851.505	128.51
851.681	28.16
851.856	36.35
852.031	65.02
852.206	5.63
852.381	46.59
852.556	81.41
852.731	19.97
852.906	77.31
853.081	54.78
853.256	87.55
853.431	-2.56
853.606	79.36
853.781	60.93
853.956	-8.7
854.131	46.59
854.305	36.35
854.48	36.35
854.655	40.45
854.83	-2.56
855.005	42.5
855.18	-16.9
855.354	24.06
855.529	108.03
855.704	132.61
855.879	71.17
856.053	-23.04
856.228	58.88
856.403	-29.18
856.577	71.17
856.752	36.35
856.926	38.4
857.101	101.89
857.276	-70.14
857.45	-31.23
857.625	97.79
857.799	19.97
857.974	24.06
858.148	38.4
858.323	44.54
858.497	58.88
858.672	48.64
858.846	-66.05
859.02	101.89
859.195	50.69
859.369	-4.61
859.543	50.69
859.718	54.78
859.892	15.87
860.066	97.79
860.241	-27.14
860.415	75.26
860.589	34.3
860.763	52.74
860.938	3.58
861.112	15.87
861.286	89.6
861.46	24.06
861.634	-31.23
861.808	44.54
861.982	-4.61
862.157	26.11
862.331	-8.7
862.505	26.11
862.679	-33.28
862.853	-10.75
863.027	38.4
863.201	54.78
863.375	32.26
863.549	97.79
863.722	30.21
863.896	50.69
864.07	9.73
864.244	7.68
864.418	11.78
864.592	22.02
864.766	19.97
864.939	34.3
865.113	-35.33
865.287	65.02
865.461	5.63
865.634	52.74
865.808	30.21
865.982	5.63
866.156	3.58
866.329	-27.14
866.503	62.98
866.676	-8.7
866.85	26.11
867.024	7.68
867.197	5.63
867.371	26.11
867.544	30.21
867.718	-16.9
867.891	32.26
868.065	1.54
868.238	-27.14
868.412	-18.94
868.585	-10.75
868.759	60.93
868.932	-2.56
869.105	-29.18
869.279	-23.04
869.452	-78.33
869.625	5.63
869.799	-10.75
869.972	32.26
870.145	32.26
870.319	24.06
870.492	58.88
870.665	5.63
870.838	1.54
871.011	58.88
871.185	26.11
871.358	-8.7
871.531	34.3
871.704	101.89
871.877	1.54
872.05	3.58
872.223	28.16
872.396	44.54
872.569	9.73
872.742	5.63
872.915	17.92
873.088	-8.7
873.261	22.02
873.434	24.06
873.607	75.26
873.78	-76.29
873.953	-2.56
874.126	5.63
874.299	58.88
874.471	1.54
874.644	54.78
874.817	48.64
874.99	73.21
875.163	-29.18
875.335	19.97
875.508	-31.23
875.681	9.73
875.853	22.02
876.026	44.54
876.199	50.69
876.371	97.79
876.544	36.35
876.717	-33.28
876.889	13.82
877.062	17.92
877.234	46.59
877.407	7.68
877.579	48.64
877.752	-6.66
877.924	26.11
878.097	-25.09
878.269	26.11
878.442	73.21
878.614	42.5
878.786	71.17
878.959	28.16
879.131	11.78
879.303	-0.51
879.476	-12.8
879.648	62.98
879.82	24.06
879.993	-53.76
880.165	-37.38
880.337	-14.85
880.509	34.3
880.681	71.17
880.854	28.16
881.026	67.07
881.198	85.5
881.37	52.74
881.542	44.54
881.714	-6.66
881.886	79.36
882.058	-47.62
882.23	42.5
882.402	-18.94
882.574	24.06
882.746	-41.47
882.918	50.69
883.09	-4.61
883.262	1.54
883.434	-4.61
883.606	-18.94
883.778	-37.38
883.95	85.5
884.122	-18.94
884.293	5.63
884.465	26.11
884.637	-8.7
884.809	62.98
884.98	1.54
885.152	71.17
885.324	65.02
885.496	-55.81
885.667	-16.9
885.839	9.73
886.011	15.87
886.182	77.31
886.354	-2.56
886.525	52.74
886.697	34.3
886.869	24.06
887.04	-23.04
887.212	-14.85
887.383	83.45
887.555	26.11
887.726	-31.23
887.897	-2.56
888.069	81.41
888.24	103.93
888.412	5.63
888.583	-23.04
888.754	13.82
888.926	48.64
889.097	-14.85
889.268	54.78
889.44	15.87
889.611	-16.9
889.782	26.11
889.953	3.58
890.125	36.35
890.296	-45.57
890.467	54.78
890.638	46.59
890.809	24.06
890.98	-59.9
891.151	9.73
891.323	44.54
891.494	7.68
891.665	71.17
891.836	19.97
892.007	5.63
892.178	-16.9
892.349	-14.85
892.52	-53.76
892.691	34.3
892.862	32.26
893.032	-61.95
893.203	54.78
893.374	-59.9
893.545	46.59
893.716	-2.56
893.887	-41.47
894.057	-29.18
894.228	-2.56
894.399	-8.7
894.57	17.92
894.74	5.63
894.911	65.02
895.082	-4.61
895.253	5.63
895.423	-16.9
895.594	30.21
895.764	38.4
895.935	-2.56
896.106	60.93
896.276	-6.66
896.447	-8.7
896.617	65.02
896.788	30.21
896.958	22.02
897.129	62.98
897.299	95.74
897.47	19.97
897.64	-33.28
897.81	42.5
897.981	-8.7
898.151	22.02
898.322	30.21
898.492	-2.56
898.662	36.35
898.832	58.88
899.003	-0.51
899.173	75.26
899.343	-57.86
899.513	38.4
