Data from USB4F104151__137__11-07-57-324.txt Node

Date: Wed Mar 12 11:07:57 EDT 2025
User: louis
Spectrometer: USB4F10415
Trigger mode: 4
Integration Time (sec): 2.000000E-2
Scans to average: 1
Electric dark correction enabled: true
Nonlinearity correction enabled: false
Boxcar width: 0
XAxis mode: Wavelengths
Number of Pixels in Spectrum: 3648
>>>>>Begin Spectral Data<<<<<
178.204	-131.24
178.424	-131.24
178.644	-131.24
178.864	-55.47
179.084	-127.14
179.304	34.64
179.524	-4.27
179.744	-34.99
179.964	48.98
180.184	-4.27
180.404	22.36
180.624	14.17
180.844	-22.7
181.064	-14.51
181.283	46.93
181.503	-18.6
181.723	-67.75
181.943	14.17
182.163	69.46
182.383	36.69
182.602	79.7
182.822	18.26
183.042	-26.79
183.262	22.36
183.482	-22.7
183.701	-26.79
183.921	63.32
184.141	-8.36
184.361	38.74
184.58	26.45
184.8	40.79
185.02	-4.27
185.239	75.6
185.459	20.31
185.679	51.03
185.898	-0.17
186.118	102.23
186.338	-8.36
186.557	-18.6
186.777	-53.42
186.997	-22.7
187.216	5.97
187.436	100.18
187.655	-55.47
187.875	67.41
188.095	-8.36
188.314	14.17
188.534	20.31
188.753	30.55
188.973	59.22
189.192	-63.66
189.412	57.17
189.631	-12.46
189.851	-55.47
190.07	36.69
190.29	-49.32
190.509	110.42
190.729	20.31
190.948	57.17
191.168	108.37
191.387	14.17
191.607	-26.79
191.826	48.98
192.045	-14.51
192.265	24.4
192.484	-18.6
192.704	10.07
192.923	1.88
193.142	22.36
193.362	42.84
193.581	51.03
193.8	42.84
194.02	12.12
194.239	55.12
194.458	-86.19
194.678	24.4
194.897	73.56
195.116	-10.41
195.335	18.26
195.555	16.21
195.774	67.41
195.993	10.07
196.212	-51.37
196.432	10.07
196.651	36.69
196.87	20.31
197.089	-20.65
197.308	-0.17
197.528	16.21
197.747	-96.43
197.966	12.12
198.185	85.84
198.404	-37.03
198.623	22.36
198.842	28.5
199.062	32.6
199.281	28.5
199.5	-69.8
199.719	-28.84
199.938	-6.31
200.157	34.64
200.376	18.26
200.595	16.21
200.814	46.93
201.033	-41.13
201.252	18.26
201.471	24.4
201.69	3.93
201.909	12.12
202.128	53.08
202.347	32.6
202.566	26.45
202.785	42.84
203.004	-14.51
203.223	57.17
203.442	28.5
203.661	12.12
203.879	36.69
204.098	91.99
204.317	-14.51
204.536	38.74
204.755	34.64
204.974	63.32
205.193	34.64
205.411	61.27
205.63	10.07
205.849	36.69
206.068	-10.41
206.287	34.64
206.505	59.22
206.724	-16.55
206.943	79.7
207.162	30.55
207.381	-8.36
207.599	38.74
207.818	38.74
208.037	-0.17
208.255	77.65
208.474	16.21
208.693	-18.6
208.911	-37.03
209.13	59.22
209.349	5.97
209.567	-30.89
209.786	-65.71
210.005	3.93
210.223	-45.23
210.442	-24.75
210.661	36.69
210.879	-8.36
211.098	46.93
211.316	-22.7
211.535	28.5
211.753	-57.51
211.972	-20.65
212.191	12.12
212.409	-20.65
212.628	28.5
212.846	46.93
213.065	-0.17
213.283	-8.36
213.502	-43.18
213.72	14.17
213.938	-49.32
214.157	-10.41
214.375	57.17
214.594	3.93
214.812	38.74
215.031	26.45
215.249	14.17
215.467	24.4
215.686	-47.27
215.904	-18.6
216.122	30.55
216.341	135
216.559	-14.51
216.778	-8.36
216.996	-0.17
217.214	1.88
217.432	-2.22
217.651	-30.89
217.869	-10.41
218.087	-18.6
218.306	53.08
218.524	18.26
218.742	46.93
218.96	51.03
219.179	63.32
219.397	-12.46
219.615	-37.03
219.833	42.84
220.051	59.22
220.27	26.45
220.488	44.88
220.706	26.45
220.924	1.88
221.142	-18.6
221.36	42.84
221.578	16.21
221.796	44.88
222.015	-51.37
222.233	1.88
222.451	57.17
222.669	-88.23
222.887	28.5
223.105	18.26
223.323	20.31
223.541	-22.7
223.759	61.27
223.977	-6.31
224.195	44.88
224.413	10.07
224.631	42.84
224.849	-49.32
225.067	40.79
225.285	14.17
225.503	75.6
225.721	-39.08
225.939	-16.55
226.157	-8.36
226.375	120.66
226.592	22.36
226.81	34.64
227.028	26.45
227.246	61.27
227.464	26.45
227.682	1.88
227.9	55.12
228.117	71.51
228.335	36.69
228.553	67.41
228.771	40.79
228.989	53.08
229.206	71.51
229.424	48.98
229.642	8.02
229.86	16.21
230.077	34.64
230.295	-2.22
230.513	55.12
230.731	32.6
230.948	18.26
231.166	-37.03
231.384	75.6
231.601	-14.51
231.819	46.93
232.037	26.45
232.254	-24.75
232.472	36.69
232.689	-30.89
232.907	36.69
233.125	24.4
233.342	24.4
233.56	-59.56
233.777	73.56
233.995	-65.71
234.213	24.4
234.43	40.79
234.648	38.74
234.865	-26.79
235.083	-34.99
235.3	57.17
235.518	42.84
235.735	38.74
235.953	59.22
236.17	65.36
236.388	38.74
236.605	65.36
236.822	67.41
237.04	59.22
237.257	18.26
237.475	-4.27
237.692	65.36
237.909	10.07
238.127	40.79
238.344	22.36
238.562	8.02
238.779	-6.31
238.996	-55.47
239.214	57.17
239.431	65.36
239.648	-51.37
239.865	-0.17
240.083	79.7
240.3	3.93
240.517	-71.85
240.735	22.36
240.952	14.17
241.169	-32.94
241.386	-12.46
241.603	26.45
241.821	-22.7
242.038	3.93
242.255	5.97
242.472	-61.61
242.689	91.99
242.907	51.03
243.124	12.12
243.341	-2.22
243.558	-14.51
243.775	42.84
243.992	-41.13
244.209	16.21
244.426	67.41
244.643	30.55
244.86	-22.7
245.078	44.88
245.295	30.55
245.512	3.93
245.729	5.97
245.946	34.64
246.163	-6.31
246.38	12.12
246.597	12.12
246.814	-43.18
247.031	3.93
247.248	53.08
247.464	26.45
247.681	61.27
247.898	61.27
248.115	-43.18
248.332	30.55
248.549	28.5
248.766	18.26
248.983	42.84
249.2	46.93
249.417	36.69
249.633	-6.31
249.85	12.12
250.067	8.02
250.284	77.65
250.501	-20.65
250.717	5.97
250.934	1.88
251.151	63.32
251.368	42.84
251.585	63.32
251.801	-2.22
252.018	14.17
252.235	22.36
252.451	26.45
252.668	-14.51
252.885	-12.46
253.102	48.98
253.318	-14.51
253.535	-2.22
253.752	-8.36
253.968	38.74
254.185	-53.42
254.401	-18.6
254.618	-14.51
254.835	38.74
255.051	65.36
255.268	16.21
255.484	69.46
255.701	8.02
255.917	30.55
256.134	-8.36
256.351	-22.7
256.567	-0.17
256.784	-28.84
257	-43.18
257.217	24.4
257.433	12.12
257.65	30.55
257.866	16.21
258.082	22.36
258.299	-8.36
258.515	8.02
258.732	83.8
258.948	46.93
259.165	-2.22
259.381	-69.8
259.597	34.64
259.814	61.27
260.03	91.99
260.246	32.6
260.463	46.93
260.679	102.23
260.895	-20.65
261.112	18.26
261.328	-6.31
261.544	12.12
261.761	75.6
261.977	18.26
262.193	-65.71
262.409	89.94
262.626	30.55
262.842	28.5
263.058	5.97
263.274	-0.17
263.49	22.36
263.707	120.66
263.923	-32.94
264.139	-39.08
264.355	40.79
264.571	16.21
264.787	100.18
265.004	98.13
265.22	77.65
265.436	65.36
265.652	-6.31
265.868	12.12
266.084	-55.47
266.3	38.74
266.516	14.17
266.732	48.98
266.948	-6.31
267.164	53.08
267.38	48.98
267.596	-34.99
267.812	20.31
268.028	-20.65
268.244	18.26
268.46	36.69
268.676	8.02
268.892	57.17
269.108	38.74
269.324	-6.31
269.54	38.74
269.756	-59.56
269.972	38.74
270.188	1.88
270.403	14.17
270.619	-14.51
270.835	32.6
271.051	26.45
271.267	3.93
271.483	26.45
271.698	12.12
271.914	79.7
272.13	67.41
272.346	96.08
272.562	26.45
272.777	24.4
272.993	1.88
273.209	30.55
273.425	36.69
273.64	-2.22
273.856	87.89
274.072	-4.27
274.287	26.45
274.503	28.5
274.719	69.46
274.934	-53.42
275.15	12.12
275.366	57.17
275.581	24.4
275.797	38.74
276.012	-2.22
276.228	-24.75
276.444	18.26
276.659	96.08
276.875	-20.65
277.09	28.5
277.306	-12.46
277.521	3.93
277.737	71.51
277.952	24.4
278.168	38.74
278.383	44.88
278.599	-39.08
278.814	73.56
279.03	12.12
279.245	32.6
279.461	-18.6
279.676	14.17
279.892	26.45
280.107	-22.7
280.322	-22.7
280.538	-22.7
280.753	51.03
280.969	-8.36
281.184	32.6
281.399	77.65
281.615	-28.84
281.83	16.21
282.045	-14.51
282.26	-14.51
282.476	1.88
282.691	26.45
282.906	14.17
283.122	18.26
283.337	-26.79
283.552	63.32
283.767	34.64
283.983	147.28
284.198	26.45
284.413	32.6
284.628	-10.41
284.843	-6.31
285.058	-8.36
285.274	-30.89
285.489	-30.89
285.704	-32.94
285.919	26.45
286.134	-55.47
286.349	-0.17
286.564	55.12
286.779	3.93
286.995	22.36
287.21	-71.85
287.425	16.21
287.64	18.26
287.855	1.88
288.07	48.98
288.285	10.07
288.5	116.56
288.715	67.41
288.93	30.55
289.145	-18.6
289.36	46.93
289.575	14.17
289.79	26.45
290.004	8.02
290.219	44.88
290.434	-6.31
290.649	10.07
290.864	26.45
291.079	8.02
291.294	12.12
291.509	36.69
291.724	30.55
291.938	-18.6
292.153	65.36
292.368	5.97
292.583	-0.17
292.798	73.56
293.012	34.64
293.227	-47.27
293.442	42.84
293.657	34.64
293.871	85.84
294.086	1.88
294.301	59.22
294.516	-20.65
294.73	38.74
294.945	22.36
295.16	20.31
295.374	69.46
295.589	38.74
295.804	67.41
296.018	14.17
296.233	65.36
296.447	38.74
296.662	-22.7
296.877	5.97
297.091	-6.31
297.306	26.45
297.52	42.84
297.735	12.12
297.949	46.93
298.164	147.28
298.378	-0.17
298.593	5.97
298.807	-55.47
299.022	26.45
299.236	-22.7
299.451	96.08
299.665	-0.17
299.88	1.88
300.094	-0.17
300.309	-26.79
300.523	57.17
300.737	22.36
300.952	-22.7
301.166	-24.75
301.381	22.36
301.595	28.5
301.809	-10.41
302.024	-6.31
302.238	63.32
302.452	36.69
302.667	-26.79
302.881	-24.75
303.095	14.17
303.309	10.07
303.524	22.36
303.738	-45.23
303.952	40.79
304.166	55.12
304.381	8.02
304.595	57.17
304.809	10.07
305.023	-39.08
305.237	-18.6
305.452	-6.31
305.666	53.08
305.88	-41.13
306.094	18.26
306.308	40.79
306.522	51.03
306.736	28.5
306.95	34.64
307.164	-4.27
307.379	-59.56
307.593	137.04
307.807	87.89
308.021	24.4
308.235	26.45
308.449	22.36
308.663	14.17
308.877	106.32
309.091	46.93
309.305	65.36
309.519	20.31
309.733	30.55
309.947	20.31
310.161	42.84
310.374	26.45
310.588	61.27
310.802	34.64
311.016	-26.79
311.23	-22.7
311.444	79.7
311.658	89.94
311.872	-12.46
312.085	124.76
312.299	38.74
312.513	-45.23
312.727	28.5
312.941	-20.65
313.154	26.45
313.368	55.12
313.582	-65.71
313.796	-30.89
314.009	89.94
314.223	83.8
314.437	-12.46
314.651	51.03
314.864	63.32
315.078	-32.94
315.292	30.55
315.505	-18.6
315.719	-14.51
315.933	59.22
316.146	-53.42
316.36	10.07
316.573	-4.27
316.787	-2.22
317.001	18.26
317.214	-32.94
317.428	53.08
317.641	1.88
317.855	-10.41
318.068	-22.7
318.282	18.26
318.495	26.45
318.709	38.74
318.922	-24.75
319.136	-2.22
319.349	69.46
319.563	-30.89
319.776	59.22
319.99	32.6
320.203	5.97
320.417	-34.99
320.63	-41.13
320.843	114.52
321.057	3.93
321.27	40.79
321.483	14.17
321.697	57.17
321.91	-32.94
322.124	91.99
322.337	100.18
322.55	81.75
322.763	73.56
322.977	-12.46
323.19	51.03
323.403	63.32
323.617	44.88
323.83	57.17
324.043	-14.51
324.256	104.28
324.469	5.97
324.683	63.32
324.896	30.55
325.109	1.88
325.322	5.97
325.535	24.4
325.748	-86.19
325.962	16.21
326.175	18.26
326.388	20.31
326.601	48.98
326.814	87.89
327.027	1.88
327.24	42.84
327.453	16.21
327.666	79.7
327.879	65.36
328.092	44.88
328.305	12.12
328.518	30.55
328.731	14.17
328.944	22.36
329.157	63.32
329.37	59.22
329.583	-32.94
329.796	55.12
330.009	51.03
330.222	-30.89
330.435	110.42
330.648	32.6
330.861	-0.17
331.073	-12.46
331.286	83.8
331.499	-10.41
331.712	28.5
331.925	10.07
332.138	-0.17
332.35	-0.17
332.563	32.6
332.776	55.12
332.989	30.55
333.202	14.17
333.414	18.26
333.627	5.97
333.84	38.74
334.053	83.8
334.265	24.4
334.478	69.46
334.691	69.46
334.903	44.88
335.116	30.55
335.329	30.55
335.541	16.21
335.754	85.84
335.966	-14.51
336.179	26.45
336.392	14.17
336.604	51.03
336.817	-0.17
337.029	20.31
337.242	-51.37
337.454	40.79
337.667	32.6
337.88	75.6
338.092	-2.22
338.305	83.8
338.517	16.21
338.729	3.93
338.942	108.37
339.154	-32.94
339.367	32.6
339.579	73.56
339.792	34.64
340.004	44.88
340.217	5.97
340.429	1.88
340.641	-24.75
340.854	-30.89
341.066	30.55
341.278	51.03
341.491	3.93
341.703	87.89
341.915	51.03
342.128	-26.79
342.34	32.6
342.552	30.55
342.764	5.97
342.977	96.08
343.189	-6.31
343.401	8.02
343.613	26.45
343.826	5.97
344.038	-14.51
344.25	124.76
344.462	12.12
344.674	12.12
344.886	71.51
345.099	14.17
345.311	57.17
345.523	3.93
345.735	53.08
345.947	81.75
346.159	59.22
346.371	8.02
346.583	1.88
346.795	42.84
347.007	32.6
347.219	12.12
347.431	48.98
347.643	8.02
347.855	42.84
348.067	-0.17
348.279	-98.47
348.491	69.46
348.703	-37.03
348.915	12.12
349.127	-22.7
349.339	48.98
349.551	20.31
349.763	30.55
349.975	28.5
350.187	44.88
350.399	63.32
350.61	3.93
350.822	18.26
351.034	71.51
351.246	77.65
351.458	30.55
351.669	32.6
351.881	36.69
352.093	51.03
352.305	87.89
352.517	104.28
352.728	30.55
352.94	-22.7
353.152	57.17
353.363	5.97
353.575	100.18
353.787	28.5
353.999	40.79
354.21	-8.36
354.422	-22.7
354.633	40.79
354.845	55.12
355.057	-20.65
355.268	63.32
355.48	-28.84
355.692	10.07
355.903	59.22
356.115	67.41
356.326	20.31
356.538	122.71
356.749	-6.31
356.961	79.7
357.172	-0.17
357.384	63.32
357.595	59.22
357.807	10.07
358.018	-65.71
358.23	46.93
358.441	40.79
358.653	55.12
358.864	51.03
359.075	-94.38
359.287	51.03
359.498	83.8
359.709	24.4
359.921	114.52
360.132	116.56
360.344	48.98
360.555	-34.99
360.766	51.03
360.977	67.41
361.189	55.12
361.4	28.5
361.611	42.84
361.823	63.32
362.034	20.31
362.245	3.93
362.456	40.79
362.667	14.17
362.879	-22.7
363.09	-8.36
363.301	-16.55
363.512	-0.17
363.723	40.79
363.935	26.45
364.146	3.93
364.357	5.97
364.568	-2.22
364.779	-20.65
364.99	106.32
365.201	-39.08
365.412	-6.31
365.623	12.12
365.834	38.74
366.045	-10.41
366.256	110.42
366.467	5.97
366.678	24.4
366.889	30.55
367.1	34.64
367.311	36.69
367.522	-20.65
367.733	38.74
367.944	102.23
368.155	48.98
368.366	44.88
368.577	42.84
368.788	46.93
368.999	8.02
369.209	24.4
369.42	22.36
369.631	42.84
369.842	51.03
370.053	38.74
370.264	75.6
370.474	-2.22
370.685	8.02
370.896	59.22
371.107	-8.36
371.317	100.18
371.528	-22.7
371.739	30.55
371.95	28.5
372.16	77.65
372.371	-57.51
372.582	48.98
372.792	5.97
373.003	32.6
373.214	108.37
373.424	63.32
373.635	5.97
373.846	44.88
374.056	61.27
374.267	30.55
374.477	16.21
374.688	-73.9
374.898	46.93
375.109	55.12
375.319	53.08
375.53	57.17
375.74	28.5
375.951	40.79
376.161	-14.51
376.372	40.79
376.582	-63.66
376.793	18.26
377.003	-0.17
377.214	16.21
377.424	85.84
377.635	55.12
377.845	-18.6
378.055	79.7
378.266	-0.17
378.476	57.17
378.686	1.88
378.897	36.69
379.107	-43.18
379.317	34.64
379.528	59.22
379.738	42.84
379.948	-10.41
380.158	38.74
380.369	-16.55
380.579	55.12
380.789	57.17
380.999	59.22
381.21	10.07
381.42	126.8
381.63	79.7
381.84	-10.41
382.05	55.12
382.261	85.84
382.471	-14.51
382.681	18.26
382.891	40.79
383.101	143.19
383.311	67.41
383.521	94.04
383.731	5.97
383.941	5.97
384.151	79.7
384.361	79.7
384.571	77.65
384.781	77.65
384.991	85.84
385.201	128.85
385.411	18.26
385.621	94.04
385.831	55.12
386.041	51.03
386.251	44.88
386.461	87.89
386.671	-20.65
386.881	69.46
387.091	57.17
387.301	1.88
387.511	61.27
387.72	14.17
387.93	51.03
388.14	59.22
388.35	83.8
388.56	-10.41
388.769	16.21
388.979	89.94
389.189	16.21
389.399	24.4
389.609	71.51
389.818	14.17
390.028	20.31
390.238	-0.17
390.447	42.84
390.657	116.56
390.867	-34.99
391.076	12.12
391.286	3.93
391.496	-2.22
391.705	30.55
391.915	-2.22
392.125	32.6
392.334	55.12
392.544	-14.51
392.753	-10.41
392.963	32.6
393.172	69.46
393.382	-14.51
393.591	145.24
393.801	38.74
394.01	14.17
394.22	79.7
394.429	53.08
394.639	38.74
394.848	53.08
395.058	26.45
395.267	57.17
395.477	67.41
395.686	48.98
395.895	63.32
396.105	118.61
396.314	24.4
396.524	22.36
396.733	10.07
396.942	108.37
397.152	100.18
397.361	53.08
397.57	40.79
397.78	69.46
397.989	42.84
398.198	104.28
398.407	24.4
398.617	51.03
398.826	42.84
399.035	75.6
399.244	91.99
399.453	94.04
399.663	-16.55
399.872	157.52
400.081	61.27
400.29	141.14
400.499	46.93
400.708	112.47
400.917	53.08
401.127	75.6
401.336	10.07
401.545	61.27
401.754	110.42
401.963	184.15
402.172	102.23
402.381	85.84
402.59	139.09
402.799	91.99
403.008	75.6
403.217	67.41
403.426	112.47
403.635	98.13
403.844	137.04
404.053	59.22
404.262	67.41
404.471	190.29
404.68	135
404.888	198.48
405.097	104.28
405.306	94.04
405.515	122.71
405.724	143.19
405.933	63.32
406.142	147.28
406.35	100.18
406.559	145.24
406.768	145.24
406.977	182.1
407.185	132.95
407.394	173.91
407.603	100.18
407.812	118.61
408.02	122.71
408.229	218.96
408.438	200.53
408.646	239.44
408.855	139.09
409.064	190.29
409.272	173.91
409.481	239.44
409.69	159.57
409.898	200.53
410.107	247.63
410.315	288.59
410.524	243.54
410.733	288.59
410.941	243.54
411.15	270.16
411.358	327.5
411.567	331.6
411.775	251.73
411.984	388.94
412.192	417.61
412.401	290.64
412.609	403.28
412.818	354.13
413.026	395.09
413.234	347.98
413.443	347.98
413.651	366.42
413.86	460.62
414.068	513.87
414.276	493.39
414.485	485.2
414.693	489.29
414.901	575.31
415.11	479.05
415.318	599.88
415.526	528.21
415.734	661.32
415.943	599.88
416.151	624.46
416.359	651.08
416.567	677.71
416.776	730.95
416.984	726.86
417.192	853.83
417.4	761.67
417.608	663.37
417.817	833.35
418.025	923.46
418.233	890.7
418.441	911.18
418.649	890.7
418.857	972.61
419.065	1089.35
419.273	1040.2
419.481	1095.49
419.689	1132.36
419.897	1156.93
420.105	1199.94
420.313	1238.85
420.521	1210.18
420.729	1326.91
420.937	1384.26
421.145	1304.39
421.353	1515.33
421.561	1476.41
421.769	1570.62
421.977	1601.34
422.185	1670.97
422.393	1656.64
422.601	1853.24
422.809	1857.34
423.017	1890.1
423.224	1963.83
423.432	1902.39
423.64	1894.2
423.848	2004.79
424.056	2103.09
424.263	2103.09
424.471	2303.79
424.679	2262.83
424.887	2352.95
425.094	2400.05
425.302	2438.96
425.51	2537.26
425.718	2660.14
425.925	2778.92
426.133	2780.97
426.341	2885.42
426.548	3022.63
426.756	2942.76
426.964	3165.99
427.171	3231.52
427.379	3303.2
427.586	3430.18
427.794	3534.62
428.001	3641.12
428.209	3774.24
428.417	3702.56
428.624	4038.42
428.832	4067.1
429.039	4077.34
429.247	4081.43
429.454	4423.44
429.662	4761.36
429.869	4448.02
430.076	4769.55
430.284	4425.49
430.491	4810.51
430.699	5152.52
430.906	5007.11
431.114	5062.41
431.321	5312.26
431.528	5224.2
431.736	5639.94
431.943	5734.14
432.15	5785.34
432.358	5879.55
432.565	6285.05
432.772	6184.69
432.979	6582
433.187	6545.14
433.394	6706.93
433.601	7116.52
433.808	7030.51
434.016	7085.8
434.223	7425.76
434.43	8009.44
434.637	7724.77
434.844	7939.8
435.052	8445.65
435.259	8339.16
435.466	8470.23
435.673	8148.7
435.88	8789.71
436.087	9277.13
436.294	9342.66
436.501	9205.45
436.708	9404.1
436.915	9543.36
437.122	10051.26
437.329	9975.49
437.537	10266.3
437.743	10630.84
437.95	10499.77
438.157	10872.5
438.364	11101.87
438.571	11347.62
438.778	11419.3
438.985	12304.03
439.192	11941.54
439.399	12289.69
439.606	11996.83
439.813	12607.12
440.02	13420.17
440.227	13145.74
440.433	12998.29
440.64	13674.12
440.847	13469.32
441.054	13719.17
441.261	14757.49
441.467	14585.46
441.674	14691.96
441.881	15156.85
442.088	15160.94
442.294	15195.76
442.501	15488.62
442.708	15783.52
442.914	16518.75
443.121	17204.81
443.328	16680.53
443.534	17882.69
443.741	17292.88
443.948	17196.62
444.154	18470.46
444.361	18273.85
444.568	18380.35
444.774	18284.09
444.981	18710.07
445.187	19340.85
445.394	20190.75
445.6	19652.14
445.807	21589.52
446.013	20866.58
446.22	21052.95
446.426	22070.79
446.633	22046.21
446.839	22818.3
447.046	22111.75
447.252	23080.44
447.459	23274.99
447.665	23121.4
447.871	24165.86
448.078	25011.67
448.284	23754.22
448.491	24747.48
448.697	25718.22
448.903	26136.01
449.11	25953.74
449.316	25304.53
449.522	25939.4
449.728	26682.81
449.935	26961.34
450.141	26977.72
450.347	27409.84
450.553	26430.91
450.76	26938.81
450.966	28038.57
451.172	27186.61
451.378	28282.28
451.584	27305.4
451.791	28517.79
451.997	28429.73
452.203	28843.42
452.409	28827.04
452.615	28589.47
452.821	27512.24
453.027	27076.02
453.233	28579.23
453.44	27536.82
453.646	27729.33
453.852	28022.19
454.058	28274.09
454.264	27387.32
454.47	28026.28
454.676	27581.87
454.882	28222.89
455.088	25832.91
455.294	26285.51
455.5	26672.57
455.705	26897.85
455.911	25722.32
456.117	25122.26
456.323	24810.97
456.529	23492.08
456.735	24767.96
456.941	23991.78
457.147	23752.17
457.352	22695.42
457.558	22719.99
457.764	22644.22
457.97	22236.67
458.176	21556.75
458.381	21712.39
458.587	20622.87
458.793	20629.02
458.999	19613.23
459.204	21048.85
459.41	20301.34
459.616	18921.01
459.821	18822.71
460.027	18882.1
460.233	18490.94
460.438	17638.98
460.644	17995.33
460.85	17012.31
461.055	16891.48
461.261	16727.64
461.466	15603.3
461.672	14919.28
461.878	15982.18
462.083	14984.82
462.289	14747.25
462.494	14909.04
462.7	14042.75
462.905	13647.49
463.111	14188.16
463.316	14233.21
463.522	13717.12
463.727	13874.82
463.932	13946.5
464.138	13672.07
464.343	13969.02
464.549	13481.61
464.754	13954.69
464.959	13702.79
465.165	13704.84
465.37	12942.99
465.575	12572.31
465.781	13366.92
465.986	13276.81
466.191	12910.22
466.397	12439.19
466.602	12312.22
466.807	12289.69
467.012	12508.82
467.218	12383.9
467.423	12250.78
467.628	12291.74
467.833	12658.32
468.038	12439.19
468.244	11830.94
468.449	12715.67
468.654	12119.71
468.859	11867.81
469.064	11892.38
469.269	11505.32
469.474	11488.93
469.679	11663.01
469.885	11443.88
470.09	11490.98
470.295	11421.35
470.5	11112.11
470.705	11437.73
470.91	10991.28
471.115	10999.47
471.32	11036.33
471.525	11126.44
471.73	10790.58
471.935	10602.16
472.139	10391.22
472.344	10536.63
472.549	10378.93
472.754	10272.44
472.959	10073.79
473.164	9789.12
473.369	9807.55
473.574	10094.27
473.778	10006.2
473.983	9907.9
474.188	9938.62
474.393	9565.89
474.598	9553.6
474.802	9340.61
475.007	9324.23
475.212	9359.05
475.417	8861.39
475.621	9111.24
475.826	9148.11
476.031	8818.38
476.235	8586.96
476.44	8740.56
476.645	8664.79
476.849	8632.02
477.054	8376.02
477.259	8480.47
477.463	8474.32
477.668	8203.99
477.872	8302.29
478.077	8341.21
478.282	7888.6
478.486	8007.39
478.691	7945.95
478.895	7945.95
479.1	7778.01
479.304	7810.78
479.509	7726.82
479.713	7704.29
479.918	7673.57
480.122	7530.21
480.326	7503.59
480.531	7515.87
480.735	7409.38
480.94	7292.65
481.144	7628.51
481.348	7423.72
481.553	7339.75
481.757	7272.17
481.961	7343.85
482.166	7360.23
482.37	7366.37
482.574	7276.26
482.778	7329.51
482.983	7446.24
483.187	7296.74
483.391	7218.92
483.595	7319.27
483.8	7274.21
484.004	7384.8
484.208	7157.48
484.412	7266.02
484.616	7274.21
484.821	7358.18
485.025	7292.65
485.229	7376.61
485.433	7149.29
485.637	7292.65
485.841	7284.45
486.045	7067.37
486.249	7358.18
486.453	7296.74
486.657	7370.47
486.861	7261.93
487.065	7112.42
487.269	7339.75
487.473	7143.14
487.677	7333.61
487.881	7397.09
488.085	7132.9
488.289	7374.56
488.493	7208.68
488.697	7427.81
488.901	7436
489.105	7390.95
489.309	7380.71
489.512	7540.45
489.716	7491.3
489.92	7419.62
490.124	7231.21
490.328	7644.9
490.531	7354.09
490.735	7485.16
490.939	7614.18
491.143	7436
491.346	7657.18
491.55	7712.48
491.754	7689.95
491.958	7640.8
492.161	7571.17
492.365	7837.41
492.569	7929.56
492.772	7743.2
492.976	7849.69
493.18	8009.44
493.383	7997.15
493.587	8015.58
493.79	7968.48
493.994	8034.01
494.197	8173.27
494.401	8165.08
494.605	8220.38
494.808	8349.4
495.012	8396.5
495.215	8296.15
495.419	8662.74
495.622	8347.35
495.825	8488.66
496.029	8492.76
496.232	8754.9
496.436	8517.33
496.639	8820.43
496.843	8840.91
497.046	9137.87
497.249	9119.43
497.453	9086.67
497.656	9326.28
497.859	9379.53
498.063	9572.04
498.266	9440.97
498.469	9717.44
498.673	9897.66
498.876	9903.81
499.079	9993.92
499.282	10041.02
499.485	10344.12
499.689	10335.93
499.892	10505.91
500.095	10446.52
500.298	10831.54
500.501	10489.53
500.705	11042.48
500.908	10847.92
501.111	10958.51
501.314	11097.77
501.517	11273.9
501.72	11577
501.923	11275.95
502.126	11605.67
502.329	11837.09
502.532	11689.63
502.735	11957.92
502.938	12228.25
503.141	12080.8
503.344	12525.21
503.547	12512.92
503.75	12648.08
503.953	12918.42
504.156	13098.64
504.359	13112.97
504.562	13354.63
504.765	13438.6
504.968	13543.05
505.17	13729.41
505.373	13792.9
505.576	14169.73
505.779	14255.74
505.982	14151.29
506.185	14489.21
506.387	14378.62
506.59	14644.85
506.793	15287.92
506.996	14917.23
507.198	15375.98
507.401	15427.18
507.604	15502.95
507.807	15847.01
508.009	16000.61
508.212	16051.81
508.415	16217.69
508.617	16397.92
508.82	16449.11
509.022	16555.61
509.225	17043.03
509.428	16948.82
509.63	17155.66
509.833	17454.67
510.035	17780.29
510.238	17528.39
510.44	18075.2
510.643	18097.73
510.845	18269.76
511.048	18087.49
511.25	18552.38
511.453	18861.62
511.655	19287.6
511.858	19060.27
512.06	19322.41
512.262	19600.94
512.465	19637.8
512.667	19863.08
512.87	20399.65
513.072	20213.28
513.274	20467.23
513.477	20878.87
513.679	20809.24
513.881	21388.81
514.084	21315.09
514.286	21206.55
514.488	21597.71
514.69	22095.36
514.893	22457.85
515.095	22525.44
515.297	22826.49
515.499	22691.32
515.701	22965.75
515.904	23182.84
516.106	23375.34
516.308	23819.75
516.51	24030.69
516.712	23731.69
516.914	24303.07
517.116	24917.47
517.318	24608.22
517.52	25339.35
517.722	25195.99
517.925	25755.08
518.127	25853.39
518.329	26353.09
518.531	25955.79
518.733	26609.09
518.935	26604.99
519.136	26662.33
519.338	27194.81
519.54	27219.38
519.742	27674.03
519.944	27280.82
520.146	28224.93
520.348	28282.28
520.55	28407.2
520.752	28421.54
520.954	29001.11
521.155	28802.46
521.357	29296.02
521.559	29664.66
521.761	29793.68
521.963	29875.6
522.164	29873.55
522.366	30293.38
522.568	30635.39
522.77	30952.83
522.971	31296.89
523.173	30987.64
523.375	31434.1
523.576	31362.42
523.778	31243.64
523.98	32288.1
524.181	32238.95
524.383	32548.2
524.584	32867.68
524.786	32716.13
524.988	32703.84
525.189	32804.19
525.391	33367.38
525.592	33383.77
525.794	33828.18
525.995	33625.43
526.197	33758.55
526.398	33961.3
526.6	33885.52
526.801	34223.44
527.003	34696.52
527.204	34813.25
527.406	35106.11
527.607	35009.86
527.808	34917.7
528.01	34749.76
528.211	34940.22
528.412	35837.23
528.614	35722.55
528.815	35755.32
529.016	35880.24
529.218	35738.93
529.419	35808.56
529.62	35927.35
529.822	35878.19
530.023	36048.18
530.224	36293.93
530.425	36326.7
530.626	36031.79
530.828	36175.15
531.029	36769.06
531.23	36214.06
531.431	36642.09
531.632	36738.34
531.833	37002.53
532.035	36789.54
532.236	36947.23
532.437	36877.6
532.638	36619.56
532.839	36916.51
533.04	37301.53
533.241	36674.85
533.442	37668.12
533.643	37055.78
533.844	37145.89
534.045	37520.66
534.246	37250.33
534.447	37352.73
534.648	37412.12
534.849	37567.77
535.05	37268.76
535.251	37602.58
535.451	37539.1
535.652	37664.02
535.853	37555.48
536.054	37817.62
536.255	37569.82
536.456	37240.09
536.657	38024.47
536.857	37317.92
537.058	37641.49
537.259	37979.41
537.46	37911.83
537.66	37160.22
537.861	38180.11
538.062	37756.18
538.263	37616.92
538.463	37555.48
538.664	37487.9
538.865	37731.61
539.065	37897.49
539.266	37451.03
539.466	38313.23
539.667	37367.07
539.868	38143.25
540.068	37877.01
540.269	37616.92
540.469	38051.09
540.67	37907.73
540.87	37868.82
541.071	37760.28
541.271	37956.88
541.472	37762.33
541.672	37827.86
541.873	37713.17
542.073	37047.58
542.274	38122.77
542.474	37788.95
542.675	37510.42
542.875	37647.64
543.075	37655.83
543.276	37405.98
543.476	37827.86
543.676	37741.85
543.877	38014.23
544.077	37926.16
544.277	37715.22
544.478	37563.67
544.678	37530.9
544.878	37684.5
545.078	37829.91
545.279	37446.94
545.479	37375.26
545.679	37762.33
545.879	37729.56
546.079	37680.41
546.28	37836.05
546.48	37750.04
546.68	37780.76
546.88	37690.65
547.08	37592.34
547.28	37592.34
547.48	37422.36
547.68	37645.59
547.88	37113.12
548.081	37784.85
548.281	37416.22
548.481	37545.24
548.681	38085.9
548.881	37664.02
549.081	37784.85
549.28	37416.22
549.48	37762.33
549.68	37657.88
549.88	37903.63
550.08	37225.76
550.28	37940.5
550.48	37801.24
550.68	38141.2
550.88	37285.15
551.08	37592.34
551.279	37481.75
551.479	37068.06
551.679	37580.06
551.879	37455.13
552.079	37440.79
552.278	37467.42
552.478	37471.51
552.678	37866.77
552.878	37539.1
553.077	37160.22
553.277	37217.57
553.477	37786.9
553.676	37571.86
553.876	37203.23
554.076	37137.69
554.275	37319.96
554.475	36605.22
554.674	37205.28
554.874	37156.13
555.074	36982.05
555.273	37242.14
555.473	37465.37
555.672	36916.51
555.872	37258.52
556.071	36734.24
556.271	37135.65
556.47	36902.18
556.67	36777.25
556.869	36420.91
557.068	36906.27
557.268	36707.62
557.467	36881.7
557.667	37051.68
557.866	36824.36
558.065	36492.58
558.265	36472.1
558.464	36597.03
558.663	36697.38
558.863	36304.17
559.062	36740.39
559.261	35972.4
559.461	36867.36
559.66	36027.7
559.859	36279.6
560.058	35755.32
560.258	36349.23
560.457	35540.28
560.656	35968.3
560.855	35988.78
561.054	36201.77
561.253	35734.84
561.453	35851.57
561.652	35974.45
561.851	36039.98
562.05	35540.28
562.249	35607.86
562.448	35865.91
562.647	35411.26
562.846	35646.77
563.045	35345.72
563.244	35007.81
563.443	35396.92
563.642	34817.35
563.841	34872.64
564.04	35140.93
564.239	35310.91
564.438	34569.54
564.637	34913.6
564.836	34960.7
565.035	34628.93
565.234	34727.24
565.432	34604.36
565.631	34577.73
565.83	34866.5
566.029	34239.82
566.228	34477.38
566.427	34026.83
566.625	34250.06
566.824	33549.65
567.023	34063.69
567.222	33383.77
567.42	34147.66
567.619	33621.33
567.818	33705.3
568.016	33228.12
568.215	34102.6
568.414	33207.64
568.612	33705.3
568.811	33377.62
569.01	33373.53
569.208	33047.9
569.407	33408.34
569.605	32343.4
569.804	33002.85
570.002	32585.06
570.201	32935.26
570.4	32658.79
570.598	32617.83
570.797	32322.92
570.995	32542.05
571.193	31915.37
571.392	32468.33
571.59	32154.99
571.789	31858.03
571.987	31716.72
572.186	32036.2
572.384	31903.09
572.582	32210.28
572.781	31593.84
572.979	31288.7
573.177	31657.33
573.376	31708.53
573.574	31145.34
573.772	31272.31
573.971	31278.46
574.169	30825.85
574.367	30854.53
574.565	31202.68
574.763	30952.83
574.962	30545.28
575.16	30498.18
575.358	30737.79
575.556	30496.13
575.754	30788.99
575.952	30354.82
576.151	30621.06
576.349	30223.75
576.547	30094.73
576.745	30305.67
576.943	30035.34
577.141	30021
577.339	30295.43
577.537	30004.62
577.735	29822.35
577.933	29386.13
578.131	29834.64
578.329	29377.94
578.527	29668.75
578.725	29412.76
578.923	29279.64
579.121	29404.56
579.319	28980.64
579.516	29336.98
579.714	28931.48
579.912	28945.82
580.11	28677.54
580.308	28841.37
580.506	28759.45
580.704	28415.4
580.901	28540.32
581.099	28759.45
581.297	28358.05
581.495	28290.47
581.692	28528.03
581.89	28304.81
582.088	28474.79
582.285	28122.54
582.483	28231.08
582.681	27944.36
582.878	27471.28
583.076	27860.4
583.274	28102.06
583.471	27241.91
583.669	27987.37
583.866	27809.2
584.064	27655.6
584.262	27200.95
584.459	27235.77
584.657	27086.26
584.854	27594.16
585.052	26699.2
585.249	27452.85
585.447	26965.43
585.644	27047.35
585.841	27293.11
586.039	27125.18
586.236	26576.32
586.434	26516.93
586.631	26512.83
586.828	26510.78
587.026	26357.19
587.223	26582.46
587.42	26297.8
587.618	26330.56
587.815	26076.62
588.012	25845.19
588.21	25949.64
588.407	26248.64
588.604	25918.92
588.801	25740.75
588.999	25628.11
589.196	25613.77
589.393	25656.78
589.59	25695.69
589.787	25597.39
589.984	25222.61
590.182	25306.58
590.379	25460.18
590.576	25222.61
590.773	25333.2
590.97	25071.06
591.167	25152.98
591.364	24800.73
591.561	25052.63
591.758	24460.77
591.955	24665.56
592.152	24976.86
592.349	24759.77
592.546	24690.14
592.743	24577.5
592.94	24180.2
593.137	24354.27
593.334	24292.83
593.531	23764.46
593.727	24032.74
593.924	24251.88
594.121	23916.01
594.318	24098.28
594.515	23387.63
594.712	24124.9
594.908	23524.85
595.105	23703.02
595.302	23496.17
595.499	23571.95
595.696	23418.35
595.892	23408.11
596.089	23373.3
596.286	23485.93
596.482	22961.65
596.679	23076.34
596.876	23143.92
597.072	22867.45
597.269	22924.79
597.466	22748.67
597.662	22597.12
597.859	22892.02
598.055	22679.04
598.252	22709.75
598.448	22711.8
598.645	22418.94
598.841	22357.5
599.038	22502.91
599.234	22717.95
599.431	22062.6
599.627	22201.86
599.824	22400.51
600.02	21876.23
600.217	22375.94
600.413	21804.55
600.609	21786.12
600.806	21673.48
601.002	21818.89
601.198	21818.89
601.395	21274.13
601.591	21532.17
601.787	21476.88
601.984	21442.06
602.18	21835.27
602.376	21431.82
602.572	21356.05
602.769	21571.08
602.965	20776.47
603.161	21104.15
603.357	20921.88
603.553	20993.56
603.75	21046.8
603.946	20768.28
604.142	20637.21
604.338	20626.97
604.534	20831.77
604.73	20489.76
604.926	20395.55
605.122	20760.09
605.318	20456.99
605.514	20340.25
605.71	20383.26
605.906	20067.88
606.102	20287.01
606.298	20332.06
606.494	20022.82
606.69	20098.59
606.886	20422.17
607.082	20137.51
607.278	20020.77
607.474	19584.55
607.67	19865.13
607.866	19779.11
608.062	19830.31
608.257	19592.75
608.453	19791.4
608.649	19725.86
608.845	19424.81
609.041	19521.07
609.236	19715.62
609.432	19260.98
609.628	19533.36
609.824	19365.42
610.019	19260.98
610.215	19435.05
610.411	19154.48
610.606	19162.67
610.802	19371.57
610.998	18937.4
611.193	19480.11
611.389	19045.94
611.584	18982.45
611.78	18945.59
611.976	19002.93
612.171	19078.71
612.367	19095.09
612.562	18857.53
612.758	18648.63
612.953	18812.47
613.149	18847.29
613.344	18570.81
613.539	18890.29
613.735	18607.67
613.93	18722.36
614.126	18464.32
614.321	18896.44
614.517	18325.05
614.712	18503.23
614.907	18253.37
615.103	18464.32
615.298	18460.22
615.493	18509.37
615.688	18079.3
615.884	18576.95
616.079	18107.97
616.274	18320.96
616.47	18273.85
616.665	18320.96
616.86	18161.22
617.055	18089.54
617.25	17884.74
617.445	18050.63
617.641	17606.22
617.836	17995.33
618.031	17614.41
618.226	18017.86
618.421	17571.4
618.616	18040.39
618.811	17618.5
619.006	17632.84
619.201	17333.84
619.396	17464.91
619.591	17239.63
619.786	17522.25
619.981	16930.39
620.176	17305.17
620.371	16885.33
620.566	17094.22
620.761	16985.68
620.956	17339.98
621.151	16660.06
621.346	16928.34
621.541	16608.86
621.735	16664.15
621.93	16522.84
622.125	16600.66
622.32	16402.01
622.515	16524.89
622.709	16393.82
622.904	16174.69
623.099	16213.6
623.294	15894.11
623.488	15926.88
623.683	15947.36
623.878	15717.99
624.072	15689.32
624.267	15634.02
624.462	15818.34
624.656	15599.21
624.851	15523.43
625.046	15179.37
625.24	15292.01
625.435	14882.42
625.629	15138.41
625.824	14878.32
626.018	15056.5
626.213	14677.62
626.407	14892.66
626.602	14421.63
626.796	14792.31
626.991	14581.37
627.185	14628.47
627.38	14327.42
627.574	14349.95
627.768	14067.33
627.963	14081.66
628.157	14085.76
628.352	14098.05
628.546	14169.73
628.74	14026.37
628.935	13962.88
629.129	13911.68
629.323	13409.93
629.517	13801.09
629.712	13708.93
629.906	13424.26
630.1	13368.97
630.294	13307.53
630.489	13303.43
630.683	13264.52
630.877	13147.79
631.071	13137.55
631.265	13119.12
631.459	13006.48
631.653	12877.46
631.848	12998.29
632.042	12727.96
632.236	12775.06
632.43	12760.72
632.624	12770.96
632.818	12613.27
633.012	12574.36
633.206	12412.57
633.4	12568.21
633.594	12199.58
633.788	12459.67
633.982	12011.17
634.176	12193.44
634.369	12005.02
634.563	11953.82
634.757	12045.98
634.951	11990.69
635.145	11863.71
635.339	11755.17
635.533	11675.3
635.726	11853.47
635.92	11476.65
636.114	11509.41
636.308	11384.49
636.501	11482.79
636.695	11536.04
636.889	11470.5
637.083	11171.5
637.276	11181.74
637.47	11081.39
637.664	11042.48
637.857	11081.39
638.051	11046.57
638.244	10751.67
638.438	10872.5
638.632	10780.34
638.825	10796.72
639.019	10505.91
639.212	10698.42
639.406	10852.02
639.599	10585.78
639.793	10247.86
639.986	10184.38
640.18	10497.72
640.373	10348.22
640.567	9975.49
640.76	10395.32
640.954	10069.69
641.147	10163.9
641.34	9891.52
641.534	10051.26
641.727	9967.29
641.92	9907.9
642.114	9729.73
642.307	9801.41
642.5	9879.23
642.694	9742.02
642.887	9645.76
643.08	9600.71
643.273	9526.98
643.467	9344.71
643.66	9545.41
643.853	9469.64
644.046	9246.41
644.239	9459.4
644.432	9150.15
644.626	9207.5
644.819	9160.39
645.012	9205.45
645.205	9164.49
645.398	8924.88
645.591	8869.58
645.784	9058
645.977	8742.61
646.17	8720.08
646.363	8795.86
646.556	8578.77
646.749	8564.43
646.942	8765.14
647.135	8707.79
647.328	8511.19
647.521	8519.38
647.714	8474.32
647.907	8189.66
648.099	8476.37
648.292	8236.76
648.485	8404.69
648.678	8249.05
648.871	8218.33
649.064	8390.36
649.256	8203.99
649.449	7993.05
649.642	7882.46
649.835	7878.37
650.027	7911.13
650.22	7978.72
650.413	7823.07
650.605	7866.08
650.798	7831.26
650.991	7589.6
651.183	7673.57
651.376	7493.35
651.568	7671.52
651.761	7786.21
651.954	7487.2
652.146	7399.14
652.339	7384.8
652.531	7431.91
652.724	7372.52
652.916	7089.9
653.109	7397.09
653.301	7175.91
653.494	7137
653.686	7304.93
653.879	7263.97
654.071	7116.52
654.263	7132.9
654.456	7061.23
654.648	7102.18
654.84	6903.53
655.033	6807.28
655.225	6829.81
655.417	6653.68
655.61	6942.44
655.802	6811.37
655.994	6657.78
656.186	6774.51
656.379	6598.38
656.571	6588.14
656.763	6641.39
656.955	6538.99
657.148	6459.12
657.34	6493.94
657.532	6407.92
657.724	6436.6
657.916	6487.79
658.108	6450.93
658.3	6346.48
658.492	6409.97
658.684	6387.44
658.876	6326
659.068	6237.94
659.26	6237.94
659.452	6280.95
659.644	6108.92
659.836	6057.72
660.028	6227.7
660.22	6086.39
660.412	6065.91
660.604	5955.32
660.796	5932.79
660.988	6088.44
661.18	5869.31
661.372	5787.39
661.563	5957.37
661.755	5951.23
661.947	5873.4
662.139	5869.31
662.331	5791.48
662.522	5492.48
662.714	5453.57
662.906	5613.31
663.097	5623.55
663.289	5654.27
663.481	5658.37
663.673	5527.3
663.864	5533.44
664.056	5394.18
664.247	5435.14
664.439	5451.52
664.631	5465.86
664.822	5369.6
665.014	5492.48
665.205	5138.18
665.397	5199.62
665.588	5385.99
665.78	5385.99
665.971	5156.61
666.163	5191.43
666.354	5148.42
666.546	5093.13
666.737	5134.09
666.929	5031.69
667.12	5240.58
667.311	5119.75
667.503	4912.91
667.694	5089.03
667.885	4957.96
668.077	5064.46
668.268	4843.28
668.459	5007.11
668.651	4941.58
668.842	4865.8
669.033	4912.91
669.224	4839.18
669.416	4835.08
669.607	4843.28
669.798	4849.42
669.989	4665.1
670.18	4876.04
670.371	4736.78
670.563	4661.01
670.754	4833.04
670.945	4693.77
671.136	4550.42
671.327	4558.61
671.518	4564.75
671.709	4646.67
671.9	4642.57
672.091	4622.09
672.282	4597.52
672.473	4515.6
672.664	4636.43
672.855	4464.4
673.046	4507.41
673.237	4409.11
673.428	4443.92
673.619	4333.33
673.809	4353.81
674	4525.84
674.191	4257.56
674.382	4353.81
674.573	4372.24
674.764	4390.67
674.954	4261.65
675.145	4304.66
675.336	4275.99
675.527	4232.98
675.717	4155.16
675.908	4103.96
676.099	4083.48
676.289	4198.17
676.48	4052.76
676.671	4200.21
676.861	4122.39
677.052	4149.01
677.243	4161.3
677.433	3964.7
677.624	4151.06
677.814	4054.81
678.005	4026.14
678.195	4114.2
678.386	4015.9
678.576	3956.5
678.767	4028.18
678.957	4005.66
679.148	4083.48
679.338	4101.91
679.529	3989.27
679.719	4050.71
679.909	4013.85
680.1	3952.41
680.29	3979.03
680.481	3979.03
680.671	3917.59
680.861	3925.79
681.052	3940.12
681.242	3845.91
681.432	3913.5
681.622	3821.34
681.813	3821.34
682.003	3751.71
682.193	3948.31
682.383	3858.2
682.573	3675.93
682.764	3778.33
682.954	3745.56
683.144	3864.35
683.334	3686.17
683.524	3856.15
683.714	3815.2
683.904	3710.75
684.094	3669.79
684.284	3665.69
684.474	3741.47
684.664	3663.65
684.854	3655.45
685.044	3731.23
685.234	3667.74
685.424	3714.84
685.614	3673.89
685.804	3594.01
685.994	3632.93
686.184	3641.12
686.374	3761.95
686.564	3583.77
686.753	3553.06
686.943	3516.19
687.133	3548.96
687.323	3508
687.513	3557.15
687.702	3542.82
687.892	3495.71
688.082	3536.67
688.272	3573.53
688.461	3405.6
688.651	3481.38
688.841	3454.75
689.03	3571.49
689.22	3315.49
689.41	3301.15
689.599	3358.5
689.789	3456.8
689.979	3378.98
690.168	3352.35
690.358	3393.31
690.547	3213.09
690.737	3430.18
690.926	3399.46
691.116	3243.81
691.305	3376.93
691.495	3180.32
691.684	3213.09
691.874	3241.76
692.063	3350.31
692.252	3264.29
692.442	3227.43
692.631	3243.81
692.82	3258.15
693.01	3262.24
693.199	3172.13
693.388	3168.04
693.578	3215.14
693.767	3053.35
693.956	3082.02
694.146	3149.61
694.335	2987.82
694.524	3069.73
694.713	3188.52
694.902	3182.37
695.092	3039.01
695.281	3098.41
695.47	3135.27
695.659	3061.54
695.848	3090.21
696.037	2987.82
696.226	3157.8
696.415	3045.16
696.604	2987.82
696.793	3032.87
696.982	3043.11
697.171	3057.45
697.36	3127.08
697.549	3071.78
697.738	3026.73
697.927	2918.18
698.116	3004.2
698.305	3016.49
698.494	3018.54
698.683	2950.95
698.872	3073.83
699.061	2998.06
699.25	3022.63
699.438	2977.58
699.627	2924.33
699.816	3073.83
700.005	2975.53
700.193	3024.68
700.382	3094.31
700.571	2936.62
700.76	2987.82
700.948	3053.35
701.137	2936.62
701.326	2926.38
701.514	3053.35
701.703	2940.71
701.892	2989.86
702.08	3030.82
702.269	2936.62
702.457	2934.57
702.646	2858.79
702.834	2830.12
703.023	2926.38
703.212	2979.62
703.4	2973.48
703.589	2828.07
703.777	2967.34
703.965	2819.88
704.154	2930.47
704.342	2924.33
704.531	2885.42
704.719	3000.1
704.907	2940.71
705.096	2938.66
705.284	2930.47
705.472	2938.66
705.661	2832.17
705.849	2971.43
706.037	2981.67
706.226	2785.07
706.414	2862.89
706.602	2901.8
706.79	2850.6
706.979	2961.19
707.167	2766.64
707.355	2897.71
707.543	2869.03
707.731	2967.34
707.919	2973.48
708.107	2834.22
708.296	2926.38
708.484	2912.04
708.672	2846.51
708.86	2979.62
709.048	2944.81
709.236	2813.74
709.424	2897.71
709.612	2916.14
709.8	2860.84
709.988	2836.27
710.176	2881.32
710.364	2772.78
710.551	2975.53
710.739	2817.83
710.927	2899.75
711.115	2856.75
711.303	2828.07
711.491	2733.87
711.679	2895.66
711.866	2811.69
712.054	2901.8
712.242	2854.7
712.43	2821.93
712.617	2723.63
712.805	2826.03
712.993	2760.49
713.181	2768.68
713.368	2821.93
713.556	2920.23
713.744	2723.63
713.931	2789.16
714.119	2920.23
714.306	2869.03
714.494	2635.57
714.682	2809.64
714.869	2637.61
715.057	2729.77
715.244	2891.56
715.432	2836.27
715.619	2815.79
715.807	2817.83
715.994	2789.16
716.182	2694.96
716.369	2826.03
716.556	2770.73
716.744	2760.49
716.931	2766.64
717.119	2676.52
717.306	2854.7
717.493	2760.49
717.681	2809.64
717.868	2846.51
718.055	2797.35
718.242	2674.48
718.43	2758.44
718.617	2754.35
718.804	2750.25
718.991	2766.64
719.179	2733.87
719.366	2684.72
719.553	2799.4
719.74	2797.35
719.927	2756.4
720.114	2733.87
720.301	2703.15
720.488	2615.09
720.676	2836.27
720.863	2754.35
721.05	2907.94
721.237	2649.9
721.424	2770.73
721.611	2686.76
721.798	2787.11
721.985	2705.2
722.172	2725.68
722.358	2688.81
722.545	2731.82
722.732	2627.37
722.919	2725.68
723.106	2715.44
723.293	2672.43
723.48	2645.8
723.667	2717.48
723.853	2774.83
724.04	2623.28
724.227	2697
724.414	2676.52
724.6	2750.25
724.787	2756.4
724.974	2701.1
725.161	2656.04
725.347	2664.24
725.534	2703.15
725.72	2795.31
725.907	2600.75
726.094	2592.56
726.28	2670.38
726.467	2559.79
726.653	2725.68
726.84	2670.38
727.027	2750.25
727.213	2529.07
727.4	2690.86
727.586	2684.72
727.773	2570.03
727.959	2559.79
728.145	2604.85
728.332	2615.09
728.518	2596.65
728.705	2660.14
728.891	2762.54
729.077	2623.28
729.264	2563.89
729.45	2645.8
729.636	2697
729.823	2613.04
730.009	2584.37
730.195	2547.5
730.382	2531.12
730.568	2662.19
730.754	2654
730.94	2723.63
731.126	2635.57
731.313	2729.77
731.499	2553.65
731.685	2647.85
731.871	2660.14
732.057	2633.52
732.243	2598.7
732.429	2574.13
732.615	2647.85
732.801	2637.61
732.987	2553.65
733.173	2473.78
733.359	2567.98
733.545	2522.93
733.731	2610.99
733.917	2610.99
734.103	2539.31
734.289	2676.52
734.475	2441.01
734.661	2533.17
734.847	2637.61
735.033	2633.52
735.219	2596.65
735.404	2580.27
735.59	2518.83
735.776	2574.13
735.962	2457.39
736.148	2613.04
736.333	2494.26
736.519	2592.56
736.705	2473.78
736.89	2570.03
737.076	2502.45
737.262	2576.17
737.447	2504.5
737.633	2420.53
737.819	2400.05
738.004	2508.59
738.19	2549.55
738.375	2555.69
738.561	2635.57
738.747	2490.16
738.932	2404.14
739.118	2426.67
739.303	2506.54
739.489	2502.45
739.674	2398
739.859	2447.15
740.045	2379.57
740.23	2576.17
740.416	2451.25
740.601	2342.71
740.786	2400.05
740.972	2305.84
741.157	2324.27
741.342	2260.79
741.528	2285.36
741.713	2420.53
741.898	2295.6
742.084	2258.74
742.269	2391.86
742.454	2406.19
742.639	2344.75
742.824	2275.12
743.01	2373.43
743.195	2236.21
743.38	2268.98
743.565	2295.6
743.75	2277.17
743.935	2254.64
744.12	2273.07
744.305	2185.01
744.49	2193.2
744.675	2111.29
744.86	2164.53
745.045	2174.77
745.23	2234.16
745.415	2105.14
745.6	2180.92
745.785	2203.44
745.97	2084.66
746.155	2039.61
746.34	2211.64
746.525	2150.2
746.71	1976.12
746.895	2066.23
747.079	2064.18
747.264	2084.66
747.449	2070.33
747.634	1976.12
747.819	2027.32
748.003	2096.95
748.188	1935.16
748.373	1986.36
748.557	1965.88
748.742	2004.79
748.927	2008.89
749.111	1816.38
749.296	1914.68
749.481	2008.89
749.665	1918.78
749.85	1945.4
750.034	1881.91
750.219	1763.13
750.404	1789.75
750.588	1828.67
750.773	1888.06
750.957	1748.79
751.141	1863.48
751.326	1752.89
751.51	1785.66
751.695	1840.95
751.879	1793.85
752.064	1654.59
752.248	1754.94
752.432	1722.17
752.617	1670.97
752.801	1697.6
752.985	1705.79
753.17	1632.06
753.354	1769.27
753.538	1732.41
753.722	1576.77
753.907	1619.77
754.091	1691.45
754.275	1615.68
754.459	1668.92
754.643	1587.01
754.828	1591.1
755.012	1613.63
755.196	1482.56
755.38	1615.68
755.564	1492.8
755.748	1466.17
755.932	1564.48
756.116	1560.38
756.3	1482.56
756.484	1398.59
756.668	1521.47
756.852	1386.3
757.036	1533.76
757.22	1402.69
757.404	1410.88
757.588	1439.55
757.772	1384.26
757.956	1419.07
758.14	1466.17
758.323	1314.63
758.507	1410.88
758.691	1378.11
758.875	1343.3
759.059	1365.82
759.242	1382.21
759.426	1322.82
759.61	1281.86
759.794	1259.33
759.977	1312.58
760.161	1341.25
760.345	1267.52
760.528	1249.09
760.712	1238.85
760.895	1228.61
761.079	1304.39
761.263	1163.08
761.446	1179.46
761.63	1292.1
761.813	1236.8
761.997	1179.46
762.18	1206.08
762.364	1177.41
762.547	1199.94
762.731	1185.6
762.914	1191.75
763.098	1247.04
763.281	1154.88
763.464	1150.79
763.648	1165.12
763.831	1197.89
764.015	1124.16
764.198	1158.98
764.381	1150.79
764.564	1214.27
764.748	1075.01
764.931	1253.19
765.114	1072.96
765.297	1163.08
765.481	1118.02
765.664	1111.88
765.847	1109.83
766.03	1140.55
766.213	1130.31
766.397	1109.83
766.58	1199.94
766.763	1066.82
766.946	1034.05
767.129	1122.12
767.312	1066.82
767.495	993.09
767.678	1029.96
767.861	1054.53
768.044	1075.01
768.227	1013.57
768.41	1038.15
768.593	1054.53
768.776	1060.68
768.959	1060.68
769.142	1050.44
769.324	1021.77
769.507	1017.67
769.69	1013.57
769.873	972.61
770.056	1044.29
770.239	960.33
770.421	960.33
770.604	970.57
770.787	1013.57
770.97	968.52
771.152	968.52
771.335	915.27
771.518	935.75
771.7	937.8
771.883	999.24
772.066	935.75
772.248	868.17
772.431	1029.96
772.613	964.42
772.796	911.18
772.978	935.75
773.161	966.47
773.343	991.05
773.526	862.02
773.708	808.78
773.891	788.3
774.073	907.08
774.256	792.39
774.438	857.93
774.621	804.68
774.803	841.54
774.985	927.56
775.168	804.68
775.35	806.73
775.532	837.45
775.715	800.59
775.897	849.74
776.079	804.68
776.261	739.15
776.444	812.87
776.626	792.39
776.808	821.06
776.99	771.91
777.173	759.63
777.355	771.91
777.537	808.78
777.719	698.19
777.901	743.24
778.083	769.87
778.265	696.14
778.447	720.71
778.629	636.75
778.811	698.19
778.993	675.66
779.175	681.8
779.357	661.32
779.539	677.71
779.721	743.24
779.903	769.87
780.085	689.99
780.267	618.32
780.449	622.41
780.631	636.75
780.812	665.42
780.994	704.33
781.176	698.19
781.358	714.57
781.54	667.47
781.721	653.13
781.903	528.21
782.085	612.17
782.267	657.23
782.448	558.92
782.63	603.98
782.812	692.04
782.993	470.86
783.175	675.66
783.357	538.45
783.538	556.88
783.72	520.01
783.901	554.83
784.083	565.07
784.264	591.69
784.446	479.05
784.627	468.81
784.809	528.21
784.99	571.21
785.172	509.77
785.353	575.31
785.535	491.34
785.716	522.06
785.897	483.15
786.079	575.31
786.26	509.77
786.441	542.54
786.623	421.71
786.804	378.7
786.985	487.25
787.167	477.01
787.348	499.53
787.529	468.81
787.71	513.87
787.891	481.1
788.073	452.43
788.254	450.38
788.435	417.61
788.616	464.72
788.797	360.27
788.978	434
789.159	431.95
789.34	448.33
789.522	366.42
789.703	440.14
789.884	329.55
790.065	415.57
790.246	448.33
790.427	464.72
790.607	382.8
790.788	397.14
790.969	382.8
791.15	466.77
791.331	444.24
791.512	378.7
791.693	288.59
791.874	354.13
792.054	436.05
792.235	401.23
792.416	403.28
792.597	413.52
792.778	321.36
792.958	323.41
793.139	399.18
793.32	313.17
793.5	403.28
793.681	366.42
793.862	364.37
794.042	350.03
794.223	280.4
794.404	276.31
794.584	292.69
794.765	325.46
794.945	362.32
795.126	288.59
795.306	337.74
795.487	294.74
795.667	362.32
795.848	358.22
796.028	315.22
796.209	307.02
796.389	368.46
796.57	368.46
796.75	313.17
796.93	249.68
797.111	259.92
797.291	304.98
797.471	272.21
797.652	292.69
797.832	352.08
798.012	233.3
798.192	347.98
798.373	257.87
798.553	300.88
798.733	366.42
798.913	292.69
799.093	241.49
799.274	276.31
799.454	264.02
799.634	290.64
799.814	241.49
799.994	276.31
800.174	284.5
800.354	337.74
800.534	274.26
800.714	231.25
800.894	214.87
801.074	294.74
801.254	249.68
801.434	298.83
801.614	214.87
801.794	223.06
801.974	614.22
802.154	284.5
802.334	257.87
802.514	227.15
802.693	225.11
802.873	276.31
803.053	278.35
803.233	210.77
803.413	165.71
803.592	243.54
803.772	216.91
803.952	223.06
804.131	300.88
804.311	221.01
804.491	235.35
804.67	186.19
804.85	235.35
805.03	296.78
805.209	257.87
805.389	192.34
805.568	325.46
805.748	206.67
805.928	157.52
806.107	255.83
806.287	300.88
806.466	251.73
806.646	315.22
806.825	268.11
807.004	237.39
807.184	259.92
807.363	229.2
807.543	216.91
807.722	180.05
807.901	122.71
808.081	253.78
808.26	206.67
808.439	151.38
808.619	204.63
808.798	132.95
808.977	159.57
809.156	104.28
809.336	175.95
809.515	161.62
809.694	178
809.873	175.95
810.052	210.77
810.231	204.63
810.411	145.24
810.59	161.62
810.769	182.1
810.948	249.68
811.127	104.28
811.306	184.15
811.485	227.15
811.664	206.67
811.843	155.47
812.022	151.38
812.201	165.71
812.38	227.15
812.559	159.57
812.737	216.91
812.916	112.47
813.095	108.37
813.274	141.14
813.453	182.1
813.632	243.54
813.811	106.32
813.989	141.14
814.168	251.73
814.347	130.9
814.526	167.76
814.704	178
814.883	196.43
815.062	130.9
815.24	147.28
815.419	186.19
815.598	153.43
815.776	79.7
815.955	218.96
816.133	124.76
816.312	186.19
816.49	163.67
816.669	149.33
816.847	98.13
817.026	171.86
817.204	161.62
817.383	122.71
817.561	114.52
817.74	143.19
817.918	173.91
818.097	126.8
818.275	208.72
818.453	126.8
818.632	182.1
818.81	132.95
818.988	51.03
819.167	102.23
819.345	128.85
819.523	169.81
819.701	120.66
819.879	175.95
820.058	124.76
820.236	184.15
820.414	124.76
820.592	120.66
820.77	130.9
820.948	75.6
821.127	124.76
821.305	79.7
821.483	161.62
821.661	175.95
821.839	91.99
822.017	145.24
822.195	83.8
822.373	102.23
822.551	149.33
822.729	165.71
822.907	77.65
823.085	114.52
823.262	106.32
823.44	137.04
823.618	153.43
823.796	161.62
823.974	112.47
824.152	108.37
824.329	38.74
824.507	120.66
824.685	126.8
824.863	110.42
825.04	61.27
825.218	132.95
825.396	65.36
825.574	55.12
825.751	165.71
825.929	137.04
826.107	137.04
826.284	110.42
826.462	108.37
826.639	100.18
826.817	71.51
826.994	143.19
827.172	139.09
827.349	139.09
827.527	77.65
827.704	118.61
827.882	110.42
828.059	77.65
828.237	104.28
828.414	26.45
828.591	59.22
828.769	139.09
828.946	63.32
829.124	85.84
829.301	83.8
829.478	69.46
829.655	132.95
829.833	91.99
830.01	126.8
830.187	112.47
830.364	71.51
830.542	87.89
830.719	40.79
830.896	100.18
831.073	139.09
831.25	75.6
831.427	126.8
831.604	114.52
831.782	46.93
831.959	48.98
832.136	79.7
832.313	55.12
832.49	-10.41
832.667	65.36
832.844	75.6
833.021	67.41
833.198	81.75
833.374	147.28
833.551	26.45
833.728	65.36
833.905	75.6
834.082	77.65
834.259	141.14
834.436	145.24
834.612	100.18
834.789	81.75
834.966	108.37
835.143	108.37
835.319	96.08
835.496	38.74
835.673	38.74
835.85	77.65
836.026	61.27
836.203	67.41
836.38	91.99
836.556	38.74
836.733	116.56
836.909	89.94
837.086	53.08
837.262	40.79
837.439	46.93
837.616	87.89
837.792	96.08
837.968	85.84
838.145	-14.51
838.321	38.74
838.498	120.66
838.674	81.75
838.851	128.85
839.027	30.55
839.203	55.12
839.38	106.32
839.556	-14.51
839.732	96.08
839.909	69.46
840.085	106.32
840.261	114.52
840.437	10.07
840.614	32.6
840.79	36.69
840.966	65.36
841.142	61.27
841.318	28.5
841.494	75.6
841.671	3.93
841.847	65.36
842.023	55.12
842.199	-32.94
842.375	96.08
842.551	1.88
842.727	63.32
842.903	114.52
843.079	59.22
843.255	18.26
843.431	96.08
843.607	91.99
843.783	26.45
843.959	34.64
844.134	-8.36
844.31	91.99
844.486	36.69
844.662	32.6
844.838	59.22
845.013	40.79
845.189	59.22
845.365	44.88
845.541	-18.6
845.716	28.5
845.892	75.6
846.068	106.32
846.244	5.97
846.419	83.8
846.595	10.07
846.77	30.55
846.946	118.61
847.122	18.26
847.297	-57.51
847.473	116.56
847.648	8.02
847.824	132.95
847.999	79.7
848.175	98.13
848.35	71.51
848.526	118.61
848.701	67.41
848.876	137.04
849.052	40.79
849.227	10.07
849.403	38.74
849.578	14.17
849.753	22.36
849.929	42.84
850.104	30.55
850.279	24.4
850.454	79.7
850.63	61.27
850.805	-0.17
850.98	83.8
851.155	63.32
851.33	10.07
851.505	12.12
851.681	28.5
851.856	-10.41
852.031	28.5
852.206	59.22
852.381	55.12
852.556	34.64
852.731	-0.17
852.906	5.97
853.081	57.17
853.256	48.98
853.431	38.74
853.606	-10.41
853.781	112.47
853.956	30.55
854.131	8.02
854.305	-28.84
854.48	-22.7
854.655	16.21
854.83	-53.42
855.005	57.17
855.18	46.93
855.354	38.74
855.529	34.64
855.704	-12.46
855.879	130.9
856.053	1.88
856.228	14.17
856.403	-6.31
856.577	34.64
856.752	-47.27
856.926	153.43
857.101	-0.17
857.276	40.79
857.45	42.84
857.625	-10.41
857.799	75.6
857.974	-20.65
858.148	46.93
858.323	75.6
858.497	8.02
858.672	14.17
858.846	61.27
859.02	46.93
859.195	-16.55
859.369	-16.55
859.543	42.84
859.718	32.6
859.892	51.03
860.066	1.88
860.241	24.4
860.415	112.47
860.589	89.94
860.763	69.46
860.938	-2.22
861.112	22.36
861.286	30.55
861.46	59.22
861.634	75.6
861.808	55.12
861.982	-12.46
862.157	110.42
862.331	-32.94
862.505	26.45
862.679	28.5
862.853	87.89
863.027	8.02
863.201	55.12
863.375	-22.7
863.549	79.7
863.722	57.17
863.896	18.26
864.07	22.36
864.244	-26.79
864.418	-14.51
864.592	-28.84
864.766	-4.27
864.939	44.88
865.113	44.88
865.287	53.08
865.461	3.93
865.634	59.22
865.808	44.88
865.982	-0.17
866.156	-10.41
866.329	20.31
866.503	69.46
866.676	5.97
866.85	-4.27
867.024	48.98
867.197	42.84
867.371	36.69
867.544	-28.84
867.718	57.17
867.891	22.36
868.065	26.45
868.238	44.88
868.412	28.5
868.585	-4.27
868.759	34.64
868.932	34.64
869.105	-43.18
869.279	-10.41
869.452	-28.84
869.625	34.64
869.799	22.36
869.972	-12.46
870.145	73.56
870.319	59.22
870.492	1.88
870.665	-16.55
870.838	63.32
871.011	-4.27
871.185	3.93
871.358	24.4
871.531	98.13
871.704	-63.66
871.877	-4.27
872.05	-41.13
872.223	3.93
872.396	51.03
872.569	-28.84
872.742	-4.27
872.915	96.08
873.088	-0.17
873.261	34.64
873.434	71.51
873.607	30.55
873.78	61.27
873.953	-30.89
874.126	3.93
874.299	-24.75
874.471	-14.51
874.644	65.36
874.817	32.6
874.99	51.03
875.163	-22.7
875.335	36.69
875.508	-6.31
875.681	65.36
875.853	28.5
876.026	75.6
876.199	77.65
876.371	-39.08
876.544	-10.41
876.717	10.07
876.889	-18.6
877.062	-22.7
877.234	-45.23
877.407	53.08
877.579	-16.55
877.752	-47.27
877.924	-6.31
878.097	8.02
878.269	1.88
878.442	57.17
878.614	-14.51
878.786	12.12
878.959	5.97
879.131	57.17
879.303	-55.47
879.476	24.4
879.648	1.88
879.82	40.79
879.993	-41.13
880.165	32.6
880.337	-14.51
880.509	10.07
880.681	-20.65
880.854	1.88
881.026	51.03
881.198	126.8
881.37	34.64
881.542	-10.41
881.714	-16.55
881.886	-55.47
882.058	12.12
882.23	-16.55
882.402	20.31
882.574	5.97
882.746	32.6
882.918	59.22
883.09	-16.55
883.262	16.21
883.434	46.93
883.606	-69.8
883.778	-34.99
883.95	51.03
884.122	20.31
884.293	30.55
884.465	5.97
884.637	48.98
884.809	10.07
884.98	26.45
885.152	1.88
885.324	16.21
885.496	42.84
885.667	-65.71
885.839	-34.99
886.011	46.93
886.182	-94.38
886.354	67.41
886.525	16.21
886.697	10.07
886.869	-77.99
887.04	-67.75
887.212	69.46
887.383	51.03
887.555	10.07
887.726	-49.32
887.897	38.74
888.069	18.26
888.24	-16.55
888.412	-22.7
888.583	18.26
888.754	-4.27
888.926	-47.27
889.097	-6.31
889.268	-28.84
889.44	-30.89
889.611	-4.27
889.782	-49.32
889.953	-10.41
890.125	12.12
890.296	-14.51
890.467	-2.22
890.638	26.45
890.809	24.4
890.98	-30.89
891.151	28.5
891.323	18.26
891.494	94.04
891.665	-30.89
891.836	-18.6
892.007	-49.32
892.178	51.03
892.349	26.45
892.52	-32.94
892.691	-26.79
892.862	14.17
893.032	-49.32
893.203	8.02
893.374	51.03
893.545	53.08
893.716	32.6
893.887	-12.46
894.057	-10.41
894.228	-22.7
894.399	16.21
894.57	18.26
894.74	38.74
894.911	24.4
895.082	-6.31
895.253	20.31
895.423	-49.32
895.594	126.8
895.764	85.84
895.935	-0.17
896.106	10.07
896.276	-49.32
896.447	-10.41
896.617	65.36
896.788	-71.85
896.958	-2.22
897.129	-55.47
897.299	5.97
897.47	14.17
897.64	34.64
897.81	1.88
897.981	-2.22
898.151	1.88
898.322	-0.17
898.492	10.07
898.662	22.36
898.832	-55.47
899.003	-26.79
899.173	3.93
899.343	-69.8
899.513	38.74
