Data from USB4F104151__171__11-08-57-412.txt Node

Date: Wed Mar 12 11:08:57 EDT 2025
User: louis
Spectrometer: USB4F10415
Trigger mode: 4
Integration Time (sec): 2.000000E-2
Scans to average: 1
Electric dark correction enabled: true
Nonlinearity correction enabled: false
Boxcar width: 0
XAxis mode: Wavelengths
Number of Pixels in Spectrum: 3648
>>>>>Begin Spectral Data<<<<<
178.204	-68.95
178.424	-68.95
178.644	-68.95
178.864	-116.05
179.084	-40.28
179.304	-11.61
179.524	27.31
179.744	-44.37
179.964	10.92
180.184	-23.89
180.404	-3.41
180.624	21.16
180.844	47.79
181.064	-13.65
181.283	15.02
181.503	-42.32
181.723	17.07
181.943	-21.84
182.163	49.83
182.383	17.07
182.602	-9.56
182.822	-36.18
183.042	64.17
183.262	-25.94
183.482	-75.09
183.701	-23.89
183.921	37.55
184.141	15.02
184.361	25.26
184.58	47.79
184.8	53.93
185.02	10.92
185.239	27.31
185.459	12.97
185.679	64.17
185.898	-15.7
186.118	-1.37
186.338	8.87
186.557	78.51
186.777	-30.04
186.997	-3.41
187.216	39.59
187.436	-19.8
187.655	45.74
187.875	15.02
188.095	6.83
188.314	0.68
188.534	113.32
188.753	-7.51
188.973	17.07
189.192	-77.14
189.412	10.92
189.631	25.26
189.851	-9.56
190.07	84.65
190.29	21.16
190.509	0.68
190.729	-19.8
190.948	66.22
191.168	127.66
191.387	43.69
191.607	58.03
191.826	41.64
192.045	45.74
192.265	-19.8
192.484	-1.37
192.704	-36.18
192.923	27.31
193.142	162.47
193.362	55.98
193.581	86.7
193.8	10.92
194.02	35.5
194.239	53.93
194.458	41.64
194.678	21.16
194.897	-19.8
195.116	-15.7
195.335	51.88
195.555	2.73
195.774	-11.61
195.993	37.55
196.212	31.4
196.432	-48.47
196.651	27.31
196.87	-52.56
197.089	94.89
197.308	4.78
197.528	21.16
197.747	58.03
197.966	33.45
198.185	47.79
198.404	8.87
198.623	45.74
198.842	17.07
199.062	53.93
199.281	117.42
199.5	8.87
199.719	15.02
199.938	-23.89
200.157	33.45
200.376	-23.89
200.595	58.03
200.814	6.83
201.033	-11.61
201.252	43.69
201.471	6.83
201.69	-5.46
201.909	-25.94
202.128	0.68
202.347	29.35
202.566	117.42
202.785	-52.56
203.004	-7.51
203.223	23.21
203.442	-11.61
203.661	12.97
203.879	53.93
204.098	58.03
204.317	-9.56
204.536	17.07
204.755	31.4
204.974	29.35
205.193	-9.56
205.411	72.36
205.63	49.83
205.849	31.4
206.068	19.11
206.287	12.97
206.505	41.64
206.724	29.35
206.943	-40.28
207.162	41.64
207.381	88.75
207.599	10.92
207.818	58.03
208.037	-64.85
208.255	12.97
208.474	8.87
208.693	80.55
208.911	86.7
209.13	103.08
209.349	53.93
209.567	-36.18
209.786	10.92
210.005	-19.8
210.223	41.64
210.442	4.78
210.661	-21.84
210.879	-30.04
211.098	-7.51
211.316	-5.46
211.535	64.17
211.753	27.31
211.972	-40.28
212.191	-5.46
212.409	49.83
212.628	21.16
212.846	-38.23
213.065	37.55
213.283	19.11
213.502	19.11
213.72	-54.61
213.938	0.68
214.157	37.55
214.375	33.45
214.594	-30.04
214.812	-9.56
215.031	37.55
215.249	23.21
215.467	51.88
215.686	-9.56
215.904	29.35
216.122	19.11
216.341	84.65
216.559	-1.37
216.778	29.35
216.996	31.4
217.214	21.16
217.432	21.16
217.651	23.21
217.869	-23.89
218.087	53.93
218.306	-40.28
218.524	86.7
218.742	-44.37
218.96	0.68
219.179	10.92
219.397	29.35
219.615	23.21
219.833	21.16
220.051	2.73
220.27	66.22
220.488	-7.51
220.706	33.45
220.924	-13.65
221.142	43.69
221.36	8.87
221.578	15.02
221.796	6.83
222.015	-1.37
222.233	-30.04
222.451	49.83
222.669	4.78
222.887	45.74
223.105	-64.85
223.323	-5.46
223.541	15.02
223.759	82.6
223.977	10.92
224.195	47.79
224.413	94.89
224.631	51.88
224.849	27.31
225.067	88.75
225.285	6.83
225.503	39.59
225.721	21.16
225.939	111.27
226.157	-21.84
226.375	74.41
226.592	0.68
226.81	72.36
227.028	96.94
227.246	10.92
227.464	-9.56
227.682	17.07
227.9	80.55
228.117	62.12
228.335	23.21
228.553	27.31
228.771	-21.84
228.989	66.22
229.206	-5.46
229.424	60.07
229.642	-15.7
229.86	29.35
230.077	41.64
230.295	51.88
230.513	-21.84
230.731	66.22
230.948	131.75
231.166	29.35
231.384	-50.52
231.601	-9.56
231.819	43.69
232.037	-56.66
232.254	43.69
232.472	15.02
232.689	19.11
232.907	58.03
233.125	92.84
233.342	0.68
233.56	35.5
233.777	-46.42
233.995	86.7
234.213	53.93
234.43	58.03
234.648	8.87
234.865	58.03
235.083	15.02
235.3	8.87
235.518	-15.7
235.735	21.16
235.953	92.84
236.17	53.93
236.388	39.59
236.605	39.59
236.822	103.08
237.04	2.73
237.257	37.55
237.475	-15.7
237.692	10.92
237.909	8.87
238.127	70.31
238.344	12.97
238.562	39.59
238.779	-44.37
238.996	12.97
239.214	82.6
239.431	74.41
239.648	15.02
239.865	72.36
240.083	31.4
240.3	58.03
240.517	84.65
240.735	55.98
240.952	86.7
241.169	49.83
241.386	-9.56
241.603	-11.61
241.821	-21.84
242.038	45.74
242.255	66.22
242.472	49.83
242.689	53.93
242.907	72.36
243.124	-21.84
243.341	33.45
243.558	-15.7
243.775	39.59
243.992	21.16
244.209	2.73
244.426	35.5
244.643	94.89
244.86	37.55
245.078	37.55
245.295	-25.94
245.512	53.93
245.729	-32.08
245.946	109.23
246.163	43.69
246.38	68.27
246.597	-36.18
246.814	-46.42
247.031	-7.51
247.248	21.16
247.464	-9.56
247.681	4.78
247.898	-60.76
248.115	17.07
248.332	-60.76
248.549	51.88
248.766	80.55
248.983	4.78
249.2	-5.46
249.417	58.03
249.633	53.93
249.85	66.22
250.067	-5.46
250.284	15.02
250.501	0.68
250.717	49.83
250.934	-30.04
251.151	17.07
251.368	33.45
251.585	17.07
251.801	49.83
252.018	2.73
252.235	25.26
252.451	49.83
252.668	17.07
252.885	66.22
253.102	51.88
253.318	41.64
253.535	10.92
253.752	17.07
253.968	-34.13
254.185	58.03
254.401	66.22
254.618	12.97
254.835	2.73
255.051	64.17
255.268	70.31
255.484	66.22
255.701	-17.75
255.917	64.17
256.134	33.45
256.351	37.55
256.567	-34.13
256.784	72.36
257	-23.89
257.217	43.69
257.433	-40.28
257.65	74.41
257.866	49.83
258.082	33.45
258.299	-19.8
258.515	53.93
258.732	-32.08
258.948	2.73
259.165	17.07
259.381	72.36
259.597	39.59
259.814	78.51
260.03	19.11
260.246	33.45
260.463	29.35
260.679	10.92
260.895	-11.61
261.112	21.16
261.328	51.88
261.544	66.22
261.761	41.64
261.977	-46.42
262.193	66.22
262.409	-3.41
262.626	37.55
262.842	68.27
263.058	62.12
263.274	78.51
263.49	53.93
263.707	101.03
263.923	21.16
264.139	-27.99
264.355	66.22
264.571	60.07
264.787	-25.94
265.004	8.87
265.22	62.12
265.436	10.92
265.652	15.02
265.868	70.31
266.084	-5.46
266.3	-44.37
266.516	-54.61
266.732	74.41
266.948	12.97
267.164	4.78
267.38	23.21
267.596	-3.41
267.812	72.36
268.028	62.12
268.244	10.92
268.46	74.41
268.676	15.02
268.892	37.55
269.108	33.45
269.324	-44.37
269.54	2.73
269.756	-11.61
269.972	-15.7
270.188	51.88
270.403	21.16
270.619	66.22
270.835	-58.71
271.051	-7.51
271.267	-13.65
271.483	-23.89
271.698	66.22
271.914	8.87
272.13	19.11
272.346	37.55
272.562	35.5
272.777	-50.52
272.993	86.7
273.209	19.11
273.425	43.69
273.64	66.22
273.856	72.36
274.072	27.31
274.287	92.84
274.503	62.12
274.719	125.61
274.934	-23.89
275.15	29.35
275.366	12.97
275.581	37.55
275.797	39.59
276.012	-3.41
276.228	39.59
276.444	-111.96
276.659	72.36
276.875	80.55
277.09	49.83
277.306	58.03
277.521	29.35
277.737	21.16
277.952	55.98
278.168	37.55
278.383	82.6
278.599	10.92
278.814	15.02
279.03	47.79
279.245	101.03
279.461	25.26
279.676	53.93
279.892	-30.04
280.107	39.59
280.322	47.79
280.538	-23.89
280.753	33.45
280.969	33.45
281.184	29.35
281.399	-11.61
281.615	74.41
281.83	25.26
282.045	-32.08
282.26	37.55
282.476	58.03
282.691	68.27
282.906	2.73
283.122	6.83
283.337	-42.32
283.552	-17.75
283.767	43.69
283.983	53.93
284.198	8.87
284.413	82.6
284.628	43.69
284.843	43.69
285.058	90.79
285.274	-19.8
285.489	8.87
285.704	82.6
285.919	-13.65
286.134	29.35
286.349	21.16
286.564	31.4
286.779	21.16
286.995	-11.61
287.21	12.97
287.425	45.74
287.64	33.45
287.855	-15.7
288.07	10.92
288.285	33.45
288.5	82.6
288.715	10.92
288.93	23.21
289.145	15.02
289.36	21.16
289.575	66.22
289.79	51.88
290.004	-25.94
290.219	62.12
290.434	-3.41
290.649	6.83
290.864	25.26
291.079	29.35
291.294	70.31
291.509	62.12
291.724	15.02
291.938	23.21
292.153	19.11
292.368	70.31
292.583	33.45
292.798	27.31
293.012	-3.41
293.227	45.74
293.442	-7.51
293.657	-17.75
293.871	70.31
294.086	76.46
294.301	92.84
294.516	74.41
294.73	37.55
294.945	27.31
295.16	23.21
295.374	37.55
295.589	19.11
295.804	35.5
296.018	31.4
296.233	0.68
296.447	41.64
296.662	2.73
296.877	84.65
297.091	96.94
297.306	15.02
297.52	29.35
297.735	94.89
297.949	-15.7
298.164	-11.61
298.378	53.93
298.593	19.11
298.807	47.79
299.022	33.45
299.236	80.55
299.451	94.89
299.665	-32.08
299.88	105.13
300.094	45.74
300.309	27.31
300.523	39.59
300.737	82.6
300.952	-5.46
301.166	25.26
301.381	-1.37
301.595	92.84
301.809	27.31
302.024	47.79
302.238	-1.37
302.452	19.11
302.667	103.08
302.881	86.7
303.095	-9.56
303.309	29.35
303.524	53.93
303.738	64.17
303.952	-11.61
304.166	66.22
304.381	66.22
304.595	45.74
304.809	6.83
305.023	53.93
305.237	31.4
305.452	-19.8
305.666	43.69
305.88	49.83
306.094	-23.89
306.308	10.92
306.522	68.27
306.736	25.26
306.95	103.08
307.164	6.83
307.379	23.21
307.593	45.74
307.807	49.83
308.021	-73.04
308.235	49.83
308.449	-27.99
308.663	-34.13
308.877	10.92
309.091	47.79
309.305	8.87
309.519	0.68
309.733	31.4
309.947	68.27
310.161	49.83
310.374	41.64
310.588	33.45
310.802	17.07
311.016	74.41
311.23	86.7
311.444	47.79
311.658	41.64
311.872	78.51
312.085	80.55
312.299	62.12
312.513	35.5
312.727	37.55
312.941	39.59
313.154	0.68
313.368	41.64
313.582	49.83
313.796	-11.61
314.009	-36.18
314.223	35.5
314.437	74.41
314.651	4.78
314.864	39.59
315.078	31.4
315.292	-32.08
315.505	-30.04
315.719	41.64
315.933	-13.65
316.146	-36.18
316.36	19.11
316.573	119.46
316.787	60.07
317.001	82.6
317.214	49.83
317.428	43.69
317.641	-77.14
317.855	-19.8
318.068	-48.47
318.282	70.31
318.495	43.69
318.709	88.75
318.922	64.17
319.136	66.22
319.349	4.78
319.563	-13.65
319.776	37.55
319.99	78.51
320.203	74.41
320.417	58.03
320.63	84.65
320.843	25.26
321.057	62.12
321.27	76.46
321.483	-13.65
321.697	76.46
321.91	33.45
322.124	55.98
322.337	15.02
322.55	41.64
322.763	72.36
322.977	-7.51
323.19	-19.8
323.403	51.88
323.617	51.88
323.83	62.12
324.043	-15.7
324.256	47.79
324.469	-44.37
324.683	94.89
324.896	-1.37
325.109	64.17
325.322	8.87
325.535	8.87
325.748	119.46
325.962	-1.37
326.175	55.98
326.388	58.03
326.601	70.31
326.814	84.65
327.027	66.22
327.24	60.07
327.453	0.68
327.666	90.79
327.879	90.79
328.092	86.7
328.305	25.26
328.518	80.55
328.731	23.21
328.944	107.18
329.157	-11.61
329.37	70.31
329.583	82.6
329.796	25.26
330.009	-19.8
330.222	33.45
330.435	47.79
330.648	19.11
330.861	39.59
331.073	21.16
331.286	58.03
331.499	43.69
331.712	-11.61
331.925	-9.56
332.138	58.03
332.35	70.31
332.563	2.73
332.776	41.64
332.989	12.97
333.202	84.65
333.414	47.79
333.627	-1.37
333.84	29.35
334.053	62.12
334.265	17.07
334.478	33.45
334.691	47.79
334.903	12.97
335.116	27.31
335.329	49.83
335.541	8.87
335.754	49.83
335.966	70.31
336.179	15.02
336.392	-27.99
336.604	21.16
336.817	2.73
337.029	33.45
337.242	43.69
337.454	78.51
337.667	33.45
337.88	72.36
338.092	2.73
338.305	-27.99
338.517	62.12
338.729	37.55
338.942	17.07
339.154	17.07
339.367	35.5
339.579	68.27
339.792	33.45
340.004	29.35
340.217	-19.8
340.429	29.35
340.641	0.68
340.854	66.22
341.066	15.02
341.278	66.22
341.491	111.27
341.703	43.69
341.915	-3.41
342.128	103.08
342.34	21.16
342.552	-17.75
342.764	-58.71
342.977	31.4
343.189	45.74
343.401	58.03
343.613	-5.46
343.826	12.97
344.038	8.87
344.25	43.69
344.462	25.26
344.674	-42.32
344.886	-25.94
345.099	27.31
345.311	76.46
345.523	27.31
345.735	27.31
345.947	21.16
346.159	68.27
346.371	82.6
346.583	10.92
346.795	62.12
347.007	64.17
347.219	62.12
347.431	4.78
347.643	66.22
347.855	53.93
348.067	88.75
348.279	-9.56
348.491	82.6
348.703	53.93
348.915	12.97
349.127	0.68
349.339	55.98
349.551	-17.75
349.763	58.03
349.975	-21.84
350.187	64.17
350.399	68.27
350.61	41.64
350.822	8.87
351.034	66.22
351.246	-11.61
351.458	4.78
351.669	84.65
351.881	21.16
352.093	29.35
352.305	55.98
352.517	-3.41
352.728	66.22
352.94	29.35
353.152	74.41
353.363	8.87
353.575	53.93
353.787	76.46
353.999	58.03
354.21	60.07
354.422	23.21
354.633	66.22
354.845	96.94
355.057	25.26
355.268	47.79
355.48	58.03
355.692	60.07
355.903	49.83
356.115	-48.47
356.326	8.87
356.538	37.55
356.749	0.68
356.961	10.92
357.172	-17.75
357.384	21.16
357.595	45.74
357.807	0.68
358.018	45.74
358.23	33.45
358.441	70.31
358.653	25.26
358.864	31.4
359.075	55.98
359.287	17.07
359.498	25.26
359.709	78.51
359.921	90.79
360.132	15.02
360.344	39.59
360.555	29.35
360.766	86.7
360.977	39.59
361.189	72.36
361.4	39.59
361.611	98.99
361.823	29.35
362.034	37.55
362.245	-1.37
362.456	6.83
362.667	103.08
362.879	17.07
363.09	60.07
363.301	98.99
363.512	68.27
363.723	121.51
363.935	49.83
364.146	31.4
364.357	51.88
364.568	53.93
364.779	19.11
364.99	8.87
365.201	45.74
365.412	123.56
365.623	41.64
365.834	0.68
366.045	25.26
366.256	39.59
366.467	-50.52
366.678	12.97
366.889	31.4
367.1	17.07
367.311	19.11
367.522	31.4
367.733	64.17
367.944	62.12
368.155	94.89
368.366	88.75
368.577	90.79
368.788	47.79
368.999	49.83
369.209	19.11
369.42	86.7
369.631	4.78
369.842	51.88
370.053	23.21
370.264	80.55
370.474	45.74
370.685	6.83
370.896	33.45
371.107	2.73
371.317	64.17
371.528	19.11
371.739	103.08
371.95	60.07
372.16	53.93
372.371	53.93
372.582	39.59
372.792	29.35
373.003	41.64
373.214	45.74
373.424	39.59
373.635	45.74
373.846	113.32
374.056	19.11
374.267	49.83
374.477	37.55
374.688	29.35
374.898	49.83
375.109	70.31
375.319	72.36
375.53	27.31
375.74	90.79
375.951	29.35
376.161	12.97
376.372	82.6
376.582	27.31
376.793	6.83
377.003	19.11
377.214	64.17
377.424	80.55
377.635	111.27
377.845	12.97
378.055	29.35
378.266	-3.41
378.476	98.99
378.686	27.31
378.897	117.42
379.107	33.45
379.317	-13.65
379.528	-19.8
379.738	-52.56
379.948	62.12
380.158	-3.41
380.369	33.45
380.579	41.64
380.789	33.45
380.999	6.83
381.21	51.88
381.42	29.35
381.63	2.73
381.84	23.21
382.05	66.22
382.261	53.93
382.471	51.88
382.681	-9.56
382.891	19.11
383.101	41.64
383.311	25.26
383.521	33.45
383.731	-3.41
383.941	66.22
384.151	117.42
384.361	-11.61
384.571	68.27
384.781	82.6
384.991	39.59
385.201	62.12
385.411	94.89
385.621	68.27
385.831	68.27
386.041	123.56
386.251	70.31
386.461	45.74
386.671	23.21
386.881	33.45
387.091	90.79
387.301	111.27
387.511	-21.84
387.72	43.69
387.93	111.27
388.14	60.07
388.35	41.64
388.56	131.75
388.769	12.97
388.979	103.08
389.189	45.74
389.399	49.83
389.609	58.03
389.818	84.65
390.028	21.16
390.238	64.17
390.447	53.93
390.657	0.68
390.867	39.59
391.076	37.55
391.286	-13.65
391.496	62.12
391.705	60.07
391.915	49.83
392.125	0.68
392.334	6.83
392.544	62.12
392.753	68.27
392.963	10.92
393.172	62.12
393.382	43.69
393.591	68.27
393.801	60.07
394.01	141.99
394.22	21.16
394.429	51.88
394.639	60.07
394.848	115.37
395.058	80.55
395.267	125.61
395.477	98.99
395.686	160.42
395.895	88.75
396.105	158.38
396.314	51.88
396.524	53.93
396.733	133.8
396.942	88.75
397.152	135.85
397.361	125.61
397.57	62.12
397.78	88.75
397.989	92.84
398.198	88.75
398.407	60.07
398.617	80.55
398.826	33.45
399.035	127.66
399.244	94.89
399.453	117.42
399.663	19.11
399.872	23.21
400.081	53.93
400.29	107.18
400.499	64.17
400.708	60.07
400.917	166.57
401.127	119.46
401.336	129.7
401.545	195.24
401.754	55.98
401.963	213.67
402.172	107.18
402.381	105.13
402.59	88.75
402.799	158.38
403.008	105.13
403.217	64.17
403.426	90.79
403.635	31.4
403.844	74.41
404.053	96.94
404.262	135.85
404.471	168.62
404.68	131.75
404.888	98.99
405.097	121.51
405.306	172.71
405.515	101.03
405.724	123.56
405.933	152.23
406.142	156.33
406.35	125.61
406.559	170.66
406.768	144.04
406.977	127.66
407.185	209.58
407.394	201.38
407.603	113.32
407.812	144.04
408.02	176.81
408.229	193.19
408.438	230.06
408.646	195.24
408.855	213.67
409.064	309.93
409.272	172.71
409.481	260.77
409.69	197.29
409.898	225.96
410.107	189.1
410.315	246.44
410.524	221.86
410.733	291.49
410.941	266.92
411.15	303.78
411.358	324.26
411.567	252.58
411.775	377.51
411.984	371.37
412.192	352.93
412.401	332.45
412.609	354.98
412.818	320.17
413.026	426.66
413.234	465.57
413.443	412.32
413.651	475.81
413.86	422.56
414.068	490.15
414.276	596.64
414.485	408.23
414.693	512.67
414.901	504.48
415.11	500.39
415.318	592.55
415.526	543.39
415.734	615.07
415.943	555.68
416.151	729.76
416.359	608.93
416.567	729.76
416.776	740
416.984	846.49
417.192	766.62
417.4	817.82
417.608	762.53
417.817	803.49
418.025	899.74
418.233	909.98
418.441	946.84
418.649	912.03
418.857	1045.15
419.065	1006.24
419.273	1077.91
419.481	1114.78
419.689	1198.74
419.897	1155.74
420.105	1135.26
420.313	1208.98
420.521	1366.68
420.729	1321.62
420.937	1358.49
421.145	1403.54
421.353	1413.78
421.561	1514.13
421.769	1632.91
421.977	1614.48
422.185	1520.28
422.393	1645.2
422.601	1802.9
422.809	1737.36
423.017	1794.7
423.224	1944.21
423.432	2040.46
423.64	1997.45
423.848	2144.91
424.056	2146.95
424.263	2294.41
424.471	2261.64
424.679	2249.35
424.887	2425.48
425.094	2542.21
425.302	2568.84
425.51	2636.42
425.718	2615.94
425.925	2609.79
426.133	2826.88
426.341	3129.98
426.548	3150.46
426.756	3011.2
426.964	3146.36
427.171	3234.43
427.379	3416.69
427.586	3529.33
427.794	3648.12
428.001	3697.27
428.209	3822.19
428.417	3760.75
428.624	4121.2
428.832	4059.76
429.039	4022.89
429.247	4211.31
429.454	4371.05
429.662	4813.41
429.869	4545.13
430.076	4819.55
430.284	4502.12
430.491	4825.7
430.699	5065.31
430.906	5147.23
431.114	5130.84
431.321	5257.82
431.528	5444.18
431.736	5902.93
431.943	6163.02
432.15	5950.03
432.358	5935.7
432.565	6423.11
432.772	6431.3
432.979	6730.31
433.187	6754.88
433.394	6791.75
433.601	7135.81
433.808	7094.85
434.016	7215.68
434.223	7399.99
434.43	8024.62
434.637	7701.05
434.844	8280.62
435.052	8452.65
435.259	8270.38
435.466	8512.04
435.673	8475.18
435.88	8712.74
436.087	9277.98
436.294	9472.54
436.501	9140.77
436.708	9380.38
436.915	9822.74
437.122	10113.55
437.329	10007.06
437.537	10430.99
437.743	10578.44
437.95	10500.62
438.157	11092.48
438.364	11403.77
438.571	11502.08
438.778	11416.06
438.985	12478.96
439.192	11946.48
439.399	12044.79
439.606	12175.86
439.813	12775.91
440.02	13529.56
440.227	13175.27
440.433	13126.11
440.64	13570.52
440.847	13787.61
441.054	14004.69
441.261	14797.26
441.467	14348.75
441.674	14891.46
441.881	15536.57
442.088	15483.33
442.294	15325.63
442.501	15610.3
442.708	16171.44
442.914	16540.08
443.121	17236.39
443.328	16832.94
443.534	17949.08
443.741	17383.84
443.948	17252.77
444.154	18528.66
444.361	18155.93
444.568	18479.5
444.774	18246.04
444.981	18807.18
445.187	19257.73
445.394	20046.2
445.6	19855.74
445.807	21764.45
446.013	20539.76
446.22	21115.24
446.426	21709.15
446.633	21985.63
446.839	22960.46
447.046	21870.94
447.252	23034.19
447.459	22968.65
447.665	22849.87
447.871	24000.83
448.078	25352.49
448.284	24076.6
448.491	24416.57
448.697	25422.12
448.903	25792.8
449.11	25833.76
449.316	25233.71
449.522	25938.21
449.728	26403.1
449.935	26773.78
450.141	26698
450.347	27404.55
450.553	26323.22
450.76	26738.96
450.966	27394.31
451.172	27552.01
451.378	27906.3
451.584	27334.92
451.791	27857.15
451.997	27660.55
452.203	28121.34
452.409	28354.81
452.615	28344.57
452.821	27318.54
453.027	26904.85
453.233	28213.5
453.44	26853.65
453.646	27336.97
453.852	27230.48
454.058	28094.72
454.264	26810.64
454.47	27226.38
454.676	26536.21
454.882	27683.08
455.088	25108.78
455.294	25739.55
455.5	26126.62
455.705	26202.39
455.911	25147.69
456.117	24707.38
456.323	24232.25
456.529	23046.47
456.735	23701.82
456.941	23210.31
457.147	23011.66
457.352	22378.84
457.558	22169.94
457.764	21987.68
457.97	21524.83
458.176	21127.53
458.381	21152.1
458.587	20109.69
458.793	20074.87
458.999	19059.08
459.204	20476.27
459.41	19925.37
459.616	18362.77
459.821	18475.41
460.027	18489.74
460.233	18180.5
460.438	17115.56
460.644	17521.06
460.85	16239.03
461.055	16411.06
461.261	16308.66
461.466	15147.46
461.672	14799.3
461.878	15579.58
462.083	14567.88
462.289	14406.09
462.494	14322.13
462.7	13709.79
462.905	13122.02
463.111	13619.67
463.316	13742.55
463.522	13556.19
463.727	13406.69
463.932	13400.54
464.138	13416.93
464.343	13310.43
464.549	12890.6
464.754	13418.97
464.959	13255.14
465.165	13044.2
465.37	12485.1
465.575	12435.95
465.781	12784.1
465.986	13021.67
466.191	12464.62
466.397	12112.37
466.602	11479.55
466.807	12194.29
467.012	12300.78
467.218	11862.52
467.423	11940.34
467.628	11944.44
467.833	12298.73
468.038	12038.64
468.244	11504.12
468.449	12268.02
468.654	11698.68
468.859	11612.67
469.064	11571.71
469.269	11094.53
469.474	11119.1
469.679	11174.4
469.885	11133.44
470.09	11160.06
470.295	11082.24
470.5	10908.16
470.705	11008.51
470.91	10471.95
471.115	10492.43
471.32	10744.33
471.525	10500.62
471.73	10625.54
471.935	10301.97
472.139	9988.63
472.344	9871.89
472.549	9904.66
472.754	9978.39
472.959	9800.21
473.164	9576.98
473.369	9513.5
473.574	9699.86
473.778	9581.08
473.983	9443.87
474.188	9454.11
474.393	9040.42
474.598	9114.14
474.802	8913.44
475.007	8847.91
475.212	8933.92
475.417	8557.1
475.621	8806.95
475.826	8567.34
476.031	8370.73
476.235	8303.15
476.44	8481.32
476.645	8251.95
476.849	8192.56
477.054	8047.15
477.259	8069.68
477.463	7965.23
477.668	7920.18
477.872	7981.62
478.077	7795.25
478.282	7619.13
478.486	7555.64
478.691	7518.78
478.895	7572.02
479.1	7580.22
479.304	7610.93
479.509	7299.64
479.713	7621.17
479.918	7238.2
480.122	7096.89
480.326	7094.85
480.531	7240.25
480.735	7168.57
480.94	6883.91
481.144	7254.59
481.348	7098.94
481.553	7047.74
481.757	7045.7
481.961	6928.96
482.166	6933.06
482.37	7072.32
482.574	6937.15
482.778	6935.1
482.983	7139.9
483.187	6869.57
483.391	7150.14
483.595	6847.04
483.8	6873.67
484.004	6947.39
484.208	6998.59
484.412	6892.1
484.616	6951.49
484.821	6971.97
485.025	6890.05
485.229	6861.38
485.433	6877.76
485.637	6793.8
485.841	7041.6
486.045	6980.16
486.249	6935.1
486.453	6914.63
486.657	7053.89
486.861	7002.69
487.065	6863.43
487.269	7019.07
487.473	6824.51
487.677	6844.99
487.881	6974.02
488.085	6951.49
488.289	7098.94
488.493	6916.67
488.697	6992.45
488.901	7039.55
489.105	6926.91
489.309	6922.82
489.512	7000.64
489.716	7086.65
489.92	6953.54
490.124	7000.64
490.328	6918.72
490.531	7023.17
490.735	7092.8
490.939	7144
491.143	7096.89
491.346	7154.24
491.55	7150.14
491.754	7297.6
491.958	7389.75
492.161	7291.45
492.365	7303.74
492.569	7254.59
492.772	7287.36
492.976	7340.6
493.18	7375.42
493.383	7557.69
493.587	7402.04
493.79	7443
493.994	7524.92
494.197	7348.79
494.401	7600.69
494.605	7580.22
494.808	7830.07
495.012	7998
495.215	7795.25
495.419	7991.86
495.622	7881.27
495.825	7934.51
496.029	8110.64
496.232	8284.72
496.436	8184.37
496.639	8505.9
496.843	8272.43
497.046	8577.58
497.249	8426.03
497.453	8587.82
497.656	8716.84
497.859	8688.17
498.063	8700.45
498.266	8960.55
498.469	9038.37
498.673	9101.86
498.876	9355.8
499.079	9214.49
499.282	9259.55
499.485	9765.4
499.689	9398.81
499.892	9710.1
500.095	9886.23
500.298	10062.35
500.501	9937.43
500.705	10213.9
500.908	10224.14
501.111	10379.79
501.314	10433.04
501.517	10566.15
501.72	10658.31
501.923	10498.57
502.126	10646.02
502.329	11078.15
502.532	11082.24
502.735	11123.2
502.938	11409.92
503.141	11371.01
503.344	11723.26
503.547	11387.39
503.75	11733.5
503.953	11745.78
504.156	12104.18
504.359	12208.62
504.562	12468.72
504.765	12601.83
504.968	12577.26
505.17	12720.62
505.373	12839.4
505.576	13021.67
505.779	13140.45
505.982	13365.73
506.185	13527.52
506.387	13451.74
506.59	13717.98
506.793	13867.48
506.996	13793.75
507.198	14068.18
507.401	14062.04
507.604	14318.03
507.807	14701
508.009	14614.99
508.212	14897.61
508.415	14868.94
508.617	15309.25
508.82	15231.43
509.022	15143.36
509.225	15552.96
509.428	15624.64
509.63	16060.85
509.833	15825.34
510.035	16310.71
510.238	16036.28
510.44	16157.11
510.643	16673.2
510.845	16857.51
511.048	16785.83
511.25	16941.48
511.453	17090.98
511.655	17662.37
511.858	17545.63
512.06	17633.69
512.262	17654.17
512.465	18002.33
512.667	18143.64
512.87	18762.12
513.072	18399.63
513.274	18784.65
513.477	18930.06
513.679	19044.74
513.881	19167.62
514.084	19550.59
514.286	19519.87
514.488	19630.46
514.69	20052.34
514.893	20238.71
515.095	20326.77
515.297	20447.6
515.499	20543.86
515.701	20762.99
515.904	21387.62
516.106	21367.14
516.308	21504.35
516.51	21662.05
516.712	21627.23
516.914	22018.39
517.116	22323.54
517.318	22415.7
517.52	22409.56
517.722	22759.76
517.925	23040.33
518.127	22931.79
518.329	23427.4
518.531	23265.61
518.733	23613.76
518.935	24041.79
519.136	24271.16
519.338	24645.94
519.54	24353.08
519.742	24639.79
519.944	24838.45
520.146	25104.68
520.348	25309.48
520.55	25520.42
520.752	25450.79
520.954	25903.39
521.155	25676.07
521.357	26317.08
521.559	26452.25
521.761	26867.98
521.963	27056.4
522.164	27130.12
522.366	26831.12
522.568	27166.99
522.77	27418.89
522.971	27914.5
523.173	27791.62
523.375	27681.03
523.576	28127.49
523.778	28029.18
523.98	28729.59
524.181	28420.34
524.383	28512.5
524.584	28887.28
524.786	29063.41
524.988	28776.69
525.189	29290.73
525.391	29436.14
525.592	29370.6
525.794	30257.37
525.995	29835.49
526.197	29982.95
526.398	29952.23
526.6	30863.57
526.801	30277.85
527.003	30853.33
527.204	30531.8
527.406	30859.48
527.607	30669.01
527.808	31224.01
528.01	30783.7
528.211	31105.23
528.412	31432.91
528.614	31389.9
528.815	31441.1
529.016	31959.24
529.218	31439.05
529.419	31678.66
529.62	31910.08
529.822	31611.08
530.023	32098.5
530.224	32084.16
530.425	31969.47
530.626	31621.32
530.828	31766.73
531.029	32624.82
531.23	31912.13
531.431	31867.08
531.632	32032.96
531.833	32563.39
532.035	32401.6
532.236	32291.01
532.437	32780.47
532.638	32180.42
532.839	32594.11
533.04	32450.75
533.241	32176.32
533.442	32977.08
533.643	32737.46
533.844	32456.89
534.045	33358
534.246	32532.67
534.447	32491.71
534.648	32676.02
534.849	32727.22
535.05	32528.57
535.251	32975.03
535.451	32577.72
535.652	32663.74
535.853	32604.35
536.054	32870.58
536.255	33030.32
536.456	32663.74
536.657	32872.63
536.857	32966.84
537.058	32604.35
537.259	32862.39
537.46	32815.29
537.66	32753.85
537.861	32575.67
538.062	32923.83
538.263	32972.98
538.463	32401.6
538.664	33175.73
538.865	33202.35
539.065	32735.42
539.266	32800.95
539.466	33134.77
539.667	32669.88
539.868	32833.72
540.068	32850.1
540.269	32850.1
540.469	33200.3
540.67	32846.01
540.87	33087.67
541.071	32972.98
541.271	33183.92
541.472	32815.29
541.672	32686.26
541.873	32448.7
542.073	32405.69
542.274	33126.58
542.474	32803
542.675	32854.2
542.875	32889.01
543.075	32604.35
543.276	32319.68
543.476	32528.57
543.676	32417.98
543.877	32927.92
544.077	32393.4
544.277	32772.28
544.478	32598.2
544.678	32454.84
544.878	32635.06
545.078	32563.39
545.279	32733.37
545.479	32348.35
545.679	32651.45
545.879	32866.49
546.079	32446.65
546.28	32454.84
546.48	32114.88
546.68	32798.9
546.88	32420.03
547.08	32604.35
547.28	32483.51
547.48	32364.73
547.68	32657.59
547.88	32098.5
548.081	32325.82
548.281	32446.65
548.481	32358.59
548.681	32465.08
548.881	32579.77
549.081	32635.06
549.28	32213.18
549.48	32440.51
549.68	31881.41
549.88	32839.86
550.08	32106.69
550.28	32532.67
550.48	31768.77
550.68	32520.38
550.88	32460.99
551.08	32362.68
551.279	32178.37
551.479	32100.54
551.679	32217.28
551.879	32299.2
552.079	32211.14
552.278	32178.37
552.478	32366.78
552.678	31869.12
552.878	32465.08
553.077	32301.25
553.277	31654.09
553.477	32454.84
553.676	32307.39
553.876	31963.33
554.076	31731.91
554.275	31901.89
554.475	31561.93
554.674	32012.48
554.874	31811.78
555.074	32002.24
555.273	31803.59
555.473	32233.66
555.672	31547.59
555.872	31721.67
556.071	31738.05
556.271	31865.03
556.47	31246.54
556.67	31195.34
556.869	31731.91
557.068	31725.77
557.268	31289.55
557.467	31643.85
557.667	31140.05
557.866	31267.02
558.065	31021.27
558.265	31275.21
558.464	30986.45
558.663	30775.51
558.863	30718.17
559.062	31457.48
559.261	30439.64
559.461	31324.36
559.66	30755.03
559.859	30732.5
560.058	30791.89
560.258	30677.21
560.457	30486.75
560.656	31082.7
560.855	30558.42
561.054	30847.19
561.253	30474.46
561.453	30767.32
561.652	30460.12
561.851	30275.8
562.05	30460.12
562.249	30159.07
562.448	30124.25
562.647	30400.73
562.846	30114.02
563.045	30451.93
563.244	29583.59
563.443	30286.04
563.642	29610.21
563.841	30019.81
564.04	29880.55
564.239	29901.03
564.438	29429.99
564.637	29726.95
564.836	29567.21
565.035	29427.95
565.234	29745.38
565.432	29063.41
565.631	29210.86
565.83	29137.13
566.029	29307.12
566.228	29108.46
566.427	28766.45
566.625	28989.68
566.824	28662.01
567.023	29096.17
567.222	28418.3
567.42	28381.43
567.619	28424.44
567.818	28561.65
568.016	28442.87
568.215	28588.28
568.414	28000.51
568.612	28369.15
568.811	28020.99
569.01	28199.16
569.208	27564.29
569.407	28137.73
569.605	27740.42
569.804	28207.36
570.002	27736.32
570.201	27509
570.4	27363.59
570.598	27273.48
570.797	27459.85
570.995	27541.77
571.193	27089.17
571.392	27406.6
571.59	27003.15
571.789	26945.81
571.987	26880.27
572.186	26951.95
572.384	26880.27
572.582	26921.23
572.781	26853.65
572.979	26540.31
573.177	26601.75
573.376	26749.2
573.574	26013.98
573.772	26550.55
573.971	26288.41
574.169	26210.59
574.367	25790.75
574.565	26429.72
574.763	26087.71
574.962	25532.71
575.16	26026.27
575.358	26120.48
575.556	25346.34
575.754	25669.92
575.952	25567.52
576.151	25653.54
576.349	25440.55
576.547	25254.19
576.745	25504.04
576.943	25237.8
577.141	25223.47
577.339	25137.45
577.537	24860.98
577.735	25221.42
577.933	25002.29
578.131	24920.37
578.329	24836.4
578.527	24623.41
578.725	24488.24
578.923	24680.75
579.121	24463.67
579.319	24295.74
579.516	24545.59
579.714	24328.5
579.912	24353.08
580.11	24131.9
580.308	24111.42
580.506	24127.8
580.704	23562.56
580.901	23914.81
581.099	23959.87
581.297	23677.25
581.495	23793.98
581.692	23898.43
581.89	23462.21
582.088	23484.74
582.285	23484.74
582.483	23591.23
582.681	23492.93
582.878	23335.24
583.076	23351.62
583.274	23376.2
583.471	22933.84
583.669	23019.85
583.866	22815.05
584.064	23177.54
584.262	22825.29
584.459	22980.94
584.657	22778.19
584.854	22858.06
585.052	22411.6
585.249	22501.72
585.447	22716.75
585.644	22116.7
585.841	22464.85
586.039	22401.36
586.236	22085.98
586.434	21899.61
586.631	21854.56
586.828	22116.7
587.026	22014.3
587.223	21887.32
587.42	21578.08
587.618	21967.2
587.815	21678.43
588.012	21809.5
588.21	21580.13
588.407	21633.38
588.604	21412.2
588.801	21397.86
588.999	21465.44
589.196	21612.9
589.393	21283.17
589.59	21037.42
589.787	20951.4
589.984	21016.94
590.182	20687.22
590.379	20959.59
590.576	20574.58
590.773	20828.52
590.97	20597.1
591.167	21057.9
591.364	20746.61
591.561	20636.02
591.758	20275.57
591.955	20511.09
592.152	20650.35
592.349	20132.22
592.546	20267.38
592.743	20386.16
592.94	19855.74
593.137	20193.65
593.334	20140.41
593.531	19769.72
593.727	19970.43
593.924	19620.22
594.121	19644.8
594.318	19939.71
594.515	19786.11
594.712	19646.85
594.908	19356.04
595.105	19698.05
595.302	19351.94
595.499	19542.4
595.696	19179.91
595.892	19009.93
596.089	18942.35
596.286	19308.93
596.482	19093.9
596.679	19198.34
596.876	18866.57
597.072	19065.22
597.269	18905.48
597.466	18477.46
597.662	18626.96
597.859	18686.35
598.055	18882.95
598.252	18459.02
598.448	18618.77
598.645	18624.91
598.841	18375.06
599.038	18196.88
599.234	18612.62
599.431	18174.36
599.627	17953.18
599.824	18350.48
600.02	18127.25
600.217	18151.83
600.413	17938.84
600.609	17987.99
600.806	17676.7
601.002	17922.46
601.198	17775
601.395	17834.39
601.591	17473.95
601.787	17471.9
601.984	17545.63
602.18	17709.47
602.376	17758.62
602.572	17365.41
602.769	17582.49
602.965	17072.55
603.161	17441.18
603.357	17209.76
603.553	17191.33
603.75	17150.37
603.946	16998.82
604.142	17027.49
604.338	16886.18
604.534	16892.33
604.73	16937.38
604.926	16622
605.122	16832.94
605.318	16673.2
605.514	16482.74
605.71	16646.57
605.906	16603.57
606.102	16562.61
606.298	16521.65
606.494	16384.43
606.69	16581.04
606.886	16351.67
607.082	16093.62
607.278	16322.99
607.474	16058.81
607.67	16241.07
607.866	15829.43
608.062	16376.24
608.257	15868.34
608.453	16101.81
608.649	16103.86
608.845	15882.68
609.041	16060.85
609.236	16079.29
609.432	15903.16
609.628	15892.92
609.824	15444.41
610.019	15483.33
610.215	15735.23
610.411	15569.34
610.606	15405.5
610.802	15630.78
610.998	15382.98
611.193	15659.45
611.389	15380.93
611.584	15299.01
611.78	15190.47
611.976	15276.48
612.171	15489.47
612.367	15325.63
612.562	15040.97
612.758	14957
612.953	14959.05
613.149	15081.92
613.344	15100.36
613.539	15045.06
613.735	15096.26
613.93	15014.34
614.126	14707.15
614.321	15239.62
614.517	14688.71
614.712	15102.4
614.907	14840.26
615.103	14631.37
615.298	14830.02
615.493	14735.82
615.688	14350.8
615.884	14934.47
616.079	14557.64
616.274	14686.67
616.47	14758.35
616.665	14825.93
616.86	14537.16
617.055	14891.46
617.25	14621.13
617.445	14604.75
617.641	14137.81
617.836	14240.21
618.031	14303.7
618.226	14522.83
618.421	14170.58
618.616	14272.98
618.811	14309.84
619.006	14229.97
619.201	13820.38
619.396	14146
619.591	13887.96
619.786	14029.27
619.981	13720.03
620.176	13969.88
620.371	13980.12
620.566	13513.18
620.761	13560.28
620.956	13646.3
621.151	13453.79
621.346	13568.48
621.541	13259.23
621.735	13402.59
621.93	13343.2
622.125	13208.03
622.32	13216.22
622.515	13177.31
622.709	12972.52
622.904	13081.06
623.099	12839.4
623.294	12780.01
623.488	12587.5
623.683	12929.51
623.878	12505.58
624.072	12452.33
624.267	12487.15
624.462	12265.97
624.656	12337.65
624.851	12427.76
625.046	12151.28
625.24	12397.04
625.435	12005.88
625.629	12182
625.824	11858.42
626.018	11983.35
626.213	11657.72
626.407	12132.85
626.602	11647.48
626.796	11667.96
626.991	11563.51
627.185	11479.55
627.38	11555.32
627.574	11416.06
627.768	11391.48
627.963	11211.26
628.157	11145.73
628.352	11121.15
628.546	10844.68
628.74	11172.35
628.935	10805.77
629.129	10885.64
629.323	10836.49
629.517	10998.27
629.712	10621.45
629.906	10736.13
630.1	10441.23
630.294	10701.32
630.489	10625.54
630.683	10660.36
630.877	10211.85
631.071	10351.12
631.265	10273.29
631.459	10273.29
631.653	10054.16
631.848	10174.99
632.042	10250.77
632.236	10154.51
632.43	9855.51
632.624	9988.63
632.818	10048.02
633.012	9601.56
633.206	9687.57
633.4	9673.24
633.594	9736.73
633.788	9679.38
633.982	9673.24
634.176	9564.7
634.369	9423.39
634.563	9515.55
634.757	9314.84
634.951	9292.32
635.145	9337.37
635.339	9325.08
635.533	9374.24
635.726	9103.9
635.92	8958.5
636.114	9097.76
636.308	8847.91
636.501	9130.53
636.695	9050.66
636.889	8972.83
637.083	8921.63
637.276	8598.06
637.47	8722.98
637.664	8733.22
637.857	8604.2
638.051	8669.73
638.244	8589.86
638.438	8399.4
638.632	8344.11
638.825	8174.13
639.019	8452.65
639.212	8213.04
639.406	8292.91
639.599	8247.85
639.793	8301.1
639.986	8133.17
640.18	7911.99
640.373	8241.71
640.567	7846.45
640.76	7989.81
640.954	7856.69
641.147	7758.39
641.34	8032.82
641.534	7907.89
641.727	7733.81
641.92	7694.9
642.114	7641.65
642.307	7668.28
642.5	7612.98
642.694	7453.24
642.887	7375.42
643.08	7477.82
643.273	7535.16
643.467	7316.03
643.66	7307.84
643.853	7313.98
644.046	7158.33
644.239	7242.3
644.432	7242.3
644.626	7057.98
644.819	7129.66
645.012	7037.5
645.205	7131.71
645.398	6961.73
645.591	7115.33
645.784	7103.04
645.977	6933.06
646.17	7037.5
646.363	6814.27
646.556	6808.13
646.749	6873.67
646.942	6705.73
647.135	6812.23
647.328	6539.85
647.521	6613.57
647.714	6556.23
647.907	6443.59
648.099	6584.9
648.292	6568.52
648.485	6525.51
648.678	6163.02
648.871	6330.95
649.064	6281.8
649.256	6427.21
649.449	6222.41
649.642	6083.15
649.835	6156.88
650.027	6203.98
650.22	6062.67
650.413	5997.14
650.605	6025.81
650.798	6257.23
650.991	6003.28
651.183	6085.2
651.376	6009.42
651.568	5935.7
651.761	5931.6
651.954	5911.12
652.146	5720.66
652.339	5874.26
652.531	5761.62
652.724	5636.69
652.916	5585.49
653.109	5792.34
653.301	5603.93
653.494	5765.71
653.686	5577.3
653.879	5628.5
654.071	5624.4
654.263	5474.9
654.456	5497.43
654.648	5491.29
654.84	5343.83
655.033	5483.1
655.225	5292.63
655.417	5292.63
655.61	5337.69
655.802	5239.39
655.994	5251.67
656.186	5337.69
656.379	5182.04
656.571	5188.19
656.763	5032.54
656.955	5102.17
657.148	5087.84
657.34	5108.32
657.532	4999.77
657.724	4876.9
657.916	4958.82
658.108	4895.33
658.3	5083.74
658.492	4921.95
658.684	4860.51
658.876	4837.98
659.068	4835.94
659.26	4880.99
659.452	4891.23
659.644	4751.97
659.836	4778.59
660.028	4731.49
660.22	4819.55
660.412	4575.84
660.604	4651.62
660.796	4637.28
660.988	4665.96
661.18	4549.22
661.372	4428.39
661.563	4520.55
661.755	4455.01
661.947	4377.19
662.139	4506.21
662.331	4401.77
662.522	4401.77
662.714	4354.66
662.906	4315.75
663.097	4242.03
663.289	4242.03
663.481	4364.9
663.673	4301.42
663.864	4369
664.056	4305.51
664.247	4172.4
664.439	4209.26
664.631	4203.11
664.822	4221.55
665.014	4278.89
665.205	4135.53
665.397	4123.24
665.588	4123.24
665.78	3963.5
665.971	4153.96
666.163	4125.29
666.354	3918.45
666.546	3990.13
666.737	3895.92
666.929	3834.48
667.12	4051.56
667.311	3932.78
667.503	3877.49
667.694	3818.1
667.885	3799.66
668.077	3793.52
668.268	3709.55
668.459	3826.29
668.651	3916.4
668.842	3762.8
669.033	3717.75
669.224	3791.47
669.416	3652.21
669.607	3564.15
669.798	3607.16
669.989	3646.07
670.18	3631.73
670.371	3601.01
670.563	3613.3
670.754	3445.37
670.945	3592.82
671.136	3574.39
671.327	3527.28
671.518	3519.09
671.709	3512.95
671.9	3539.57
672.091	3535.48
672.282	3414.65
672.473	3402.36
672.664	3453.56
672.855	3431.03
673.046	3445.37
673.237	3576.44
673.428	3488.37
673.619	3359.35
673.809	3437.17
674	3555.96
674.191	3365.5
674.382	3306.1
674.573	3428.98
674.764	3418.74
674.954	3390.07
675.145	3271.29
675.336	3244.67
675.527	3295.86
675.717	3367.54
675.908	3275.38
676.099	3222.14
676.289	3179.13
676.48	3259
676.671	3226.23
676.861	3240.57
677.052	3263.1
677.243	3076.73
677.433	3232.38
677.624	3207.8
677.814	3125.88
678.005	3103.36
678.195	3287.67
678.386	3132.03
678.576	3250.81
678.767	3252.86
678.957	3152.51
679.148	3158.65
679.338	3154.55
679.529	3097.21
679.719	3150.46
679.909	3084.92
680.1	3207.8
680.29	3031.68
680.481	3089.02
680.671	3134.07
680.861	3023.48
681.052	2957.95
681.242	2984.57
681.432	3134.07
681.622	2931.33
681.813	3039.87
682.003	3031.68
682.193	3070.59
682.383	3074.68
682.573	2912.89
682.764	2921.09
682.954	3068.54
683.144	3019.39
683.334	2925.18
683.524	3013.24
683.714	2939.52
683.904	2931.33
684.094	2996.86
684.284	2992.77
684.474	3037.82
684.664	2900.61
684.854	2980.48
685.044	2898.56
685.234	2878.08
685.424	2957.95
685.614	2830.98
685.804	2994.81
685.994	2867.84
686.184	2845.31
686.374	2839.17
686.564	2777.73
686.753	2804.35
686.943	2761.34
687.133	2785.92
687.323	2790.02
687.513	2919.04
687.702	2773.63
687.892	2663.04
688.082	2720.39
688.272	2730.62
688.461	2699.91
688.651	2716.29
688.841	2726.53
689.03	2736.77
689.22	2667.14
689.41	2646.66
689.599	2650.75
689.789	2552.45
689.979	2675.33
690.168	2667.14
690.358	2562.69
690.547	2667.14
690.737	2632.32
690.926	2679.43
691.116	2491.01
691.305	2622.08
691.495	2638.47
691.684	2507.4
691.874	2456.2
692.063	2583.17
692.252	2448.01
692.442	2538.12
692.631	2501.25
692.82	2448.01
693.01	2470.53
693.199	2423.43
693.388	2474.63
693.578	2439.81
693.767	2366.09
693.956	2482.82
694.146	2503.3
694.335	2443.91
694.524	2405
694.713	2484.87
694.902	2409.09
695.092	2355.85
695.281	2341.51
695.47	2275.98
695.659	2351.75
695.848	2380.42
696.037	2370.18
696.226	2445.96
696.415	2310.79
696.604	2370.18
696.793	2359.94
696.982	2343.56
697.171	2364.04
697.36	2316.94
697.549	2355.85
697.738	2351.75
697.927	2370.18
698.116	2427.53
698.305	2323.08
698.494	2316.94
698.683	2138.76
698.872	2327.18
699.061	2235.02
699.25	2167.43
699.438	2271.88
699.627	2247.3
699.816	2300.55
700.005	2261.64
700.193	2351.75
700.382	2314.89
700.571	2368.13
700.76	2232.97
700.948	2333.32
701.137	2312.84
701.326	2323.08
701.514	2337.41
701.703	2142.86
701.892	2292.36
702.08	2249.35
702.269	2220.68
702.457	2235.02
702.646	2288.26
702.834	2294.41
703.023	2216.58
703.212	2308.74
703.4	2331.27
703.589	2202.25
703.777	2241.16
703.965	2263.69
704.154	2284.17
704.342	2218.63
704.531	2185.87
704.719	2161.29
704.907	2333.32
705.096	2259.59
705.284	2323.08
705.472	2349.7
705.661	2294.41
705.849	2222.73
706.037	2243.21
706.226	2314.89
706.414	2177.67
706.602	2237.06
706.79	2206.35
706.979	2316.94
707.167	2265.74
707.355	2163.34
707.543	2243.21
707.731	2224.78
707.919	2253.45
708.107	2241.16
708.296	2216.58
708.484	2151.05
708.672	2245.26
708.86	2245.26
709.048	2181.77
709.236	2151.05
709.424	2318.98
709.612	2220.68
709.8	2163.34
709.988	2316.94
710.176	2304.65
710.364	2173.58
710.551	2220.68
710.739	2273.93
710.927	2210.44
711.115	2126.47
711.303	2181.77
711.491	2235.02
711.679	2230.92
711.866	2194.06
712.054	2165.39
712.242	2073.23
712.43	2226.82
712.617	2265.74
712.805	2194.06
712.993	2218.63
713.181	2257.54
713.368	2210.44
713.556	2228.87
713.744	2198.15
713.931	2273.93
714.119	2167.43
714.306	2159.24
714.494	2263.69
714.682	2286.22
714.869	2169.48
715.057	2273.93
715.244	2179.72
715.432	2241.16
715.619	2267.78
715.807	2261.64
715.994	2216.58
716.182	2110.09
716.369	2179.72
716.556	2243.21
716.744	2239.11
716.931	2173.58
717.119	2232.97
717.306	2261.64
717.493	2255.5
717.681	2204.3
717.868	2230.92
718.055	2226.82
718.242	2257.54
718.43	2192.01
718.617	2218.63
718.804	2241.16
718.991	2169.48
719.179	2179.72
719.366	2308.74
719.553	2265.74
719.74	2228.87
719.927	2290.31
720.114	2335.37
720.301	2267.78
720.488	2245.26
720.676	2142.86
720.863	2275.98
721.05	2232.97
721.237	2204.3
721.424	2235.02
721.611	2257.54
721.798	2353.8
721.985	2185.87
722.172	2204.3
722.358	2245.26
722.545	2370.18
722.732	2237.06
722.919	2275.98
723.106	2275.98
723.293	2134.67
723.48	2185.87
723.667	2220.68
723.853	2142.86
724.04	2208.39
724.227	2331.27
724.414	2232.97
724.6	2278.02
724.787	2253.45
724.974	2235.02
725.161	2222.73
725.347	2253.45
725.534	2269.83
725.72	2237.06
725.907	2198.15
726.094	2310.79
726.28	2179.72
726.467	2318.98
726.653	2267.78
726.84	2187.91
727.027	2235.02
727.213	2163.34
727.4	2261.64
727.586	2304.65
727.773	2284.17
727.959	2175.63
728.145	2194.06
728.332	2216.58
728.518	2163.34
728.705	2321.03
728.891	2218.63
729.077	2316.94
729.264	2155.15
729.45	2206.35
729.636	2282.12
729.823	2140.81
730.009	2192.01
730.195	2232.97
730.382	2261.64
730.568	2265.74
730.754	2157.19
730.94	2181.77
731.126	2202.25
731.313	2282.12
731.499	2321.03
731.685	2171.53
731.871	2208.39
732.057	2228.87
732.243	2189.96
732.429	2253.45
732.615	2249.35
732.801	2306.7
732.987	2339.46
733.173	2224.78
733.359	2269.83
733.545	2202.25
733.731	2228.87
733.917	2302.6
734.103	2226.82
734.289	2163.34
734.475	2171.53
734.661	2245.26
734.847	2187.91
735.033	2263.69
735.219	2255.5
735.404	2196.11
735.59	2208.39
735.776	2179.72
735.962	2267.78
736.148	2325.13
736.333	2257.54
736.519	2267.78
736.705	2210.44
736.89	2255.5
737.076	2294.41
737.262	2214.54
737.447	2146.95
737.633	2171.53
737.819	2171.53
738.004	2134.67
738.19	2210.44
738.375	2105.99
738.561	2200.2
738.747	2173.58
738.932	2214.54
739.118	2140.81
739.303	2118.28
739.489	2126.47
739.674	2067.08
739.859	2122.38
740.045	2140.81
740.23	2069.13
740.416	2185.87
740.601	2130.57
740.786	2065.04
740.972	2038.41
741.157	2062.99
741.342	2079.37
741.528	2105.99
741.713	2073.23
741.898	2024.08
742.084	2036.36
742.269	2019.98
742.454	2110.09
742.639	2075.28
742.824	2060.94
743.01	2022.03
743.195	2122.38
743.38	2034.32
743.565	2122.38
743.75	2050.7
743.935	2128.52
744.12	2024.08
744.305	1933.97
744.49	1972.88
744.675	2026.12
744.86	2036.36
745.045	1981.07
745.23	1874.57
745.415	1956.49
745.6	1847.95
745.785	1966.73
745.97	1886.86
746.155	1868.43
746.34	1952.4
746.525	1933.97
746.71	1901.2
746.895	1794.7
747.079	1839.76
747.264	2015.88
747.449	1862.29
747.634	1854.09
747.819	1856.14
748.003	1880.72
748.188	1751.7
748.373	1780.37
748.557	1686.16
748.742	1788.56
748.927	1739.41
749.111	1763.98
749.296	1684.11
749.481	1804.94
749.665	1770.13
749.85	1698.45
750.034	1698.45
750.219	1675.92
750.404	1696.4
750.588	1565.33
750.773	1600.15
750.957	1606.29
751.141	1634.96
751.326	1692.3
751.51	1700.5
751.695	1639.06
751.879	1491.6
752.064	1604.24
752.248	1524.37
752.432	1510.04
752.617	1614.48
752.801	1507.99
752.985	1634.96
753.17	1571.47
753.354	1618.58
753.538	1512.08
753.722	1419.93
753.907	1479.32
754.091	1434.26
754.275	1397.4
754.459	1475.22
754.643	1409.69
754.828	1454.74
755.012	1409.69
755.196	1376.92
755.38	1311.38
755.564	1436.31
755.748	1311.38
755.932	1344.15
756.116	1260.18
756.3	1354.39
756.484	1340.05
756.668	1268.38
756.852	1311.38
757.036	1317.53
757.22	1274.52
757.404	1168.02
757.588	1233.56
757.772	1329.81
757.956	1268.38
758.14	1295
758.323	1299.09
758.507	1213.08
758.691	1225.37
758.875	1251.99
759.059	1262.23
759.242	1188.5
759.426	1213.08
759.61	1297.05
759.794	1221.27
759.977	1127.07
760.161	1163.93
760.345	1157.79
760.528	1118.87
760.712	1129.11
760.895	1143.45
761.079	1163.93
761.263	1168.02
761.446	1059.48
761.63	1168.02
761.813	1145.5
761.997	1198.74
762.18	1063.58
762.364	1110.68
762.547	1004.19
762.731	1030.81
762.914	1106.59
763.098	1012.38
763.281	1069.72
763.464	1077.91
763.648	983.71
763.831	1079.96
764.015	1028.76
764.198	1026.72
764.381	1073.82
764.564	1045.15
764.748	1086.11
764.931	1034.91
765.114	1084.06
765.297	1016.48
765.481	932.51
765.664	1071.77
765.847	1014.43
766.03	977.56
766.213	981.66
766.397	996
766.58	928.41
766.763	965.28
766.946	1039
767.129	1020.57
767.312	983.71
767.495	1014.43
767.678	1000.09
767.861	1002.14
768.044	963.23
768.227	891.55
768.41	1043.1
768.593	1002.14
768.776	916.12
768.959	891.55
769.142	907.93
769.324	920.22
769.507	828.06
769.69	897.69
769.873	928.41
770.056	830.11
770.239	811.68
770.421	909.98
770.604	961.18
770.787	901.79
770.97	764.58
771.152	846.49
771.335	944.8
771.518	854.69
771.7	869.02
771.883	842.4
772.066	950.94
772.248	961.18
772.431	819.87
772.613	823.97
772.796	801.44
772.978	834.21
773.161	875.17
773.343	787.1
773.526	770.72
773.708	694.94
773.891	766.62
774.073	801.44
774.256	750.24
774.438	778.91
774.621	811.68
774.803	813.73
774.985	740
775.168	795.29
775.35	772.77
775.532	787.1
775.715	764.58
775.897	801.44
776.079	819.87
776.261	791.2
776.444	733.86
776.626	680.61
776.808	744.1
776.99	653.98
777.173	744.1
777.355	621.22
777.537	709.28
777.719	727.71
777.901	619.17
778.083	701.09
778.265	602.79
778.447	701.09
778.629	664.22
778.811	756.38
778.993	613.03
779.175	692.9
779.357	643.74
779.539	637.6
779.721	567.97
779.903	711.33
780.085	613.03
780.267	608.93
780.449	567.97
780.631	623.27
780.812	596.64
780.994	508.58
781.176	610.98
781.358	574.11
781.54	613.03
781.721	572.07
781.903	633.51
782.085	551.59
782.267	574.11
782.448	541.35
782.63	533.15
782.812	574.11
782.993	529.06
783.175	524.96
783.357	514.72
783.538	535.2
783.72	488.1
783.901	535.2
784.083	574.11
784.264	524.96
784.446	539.3
784.627	498.34
784.809	582.31
784.99	492.2
785.172	518.82
785.353	529.06
785.535	524.96
785.716	453.28
785.897	461.48
786.079	479.91
786.26	387.75
786.441	463.52
786.623	441
786.804	481.96
786.985	469.67
787.167	441
787.348	441
787.529	338.6
787.71	387.75
787.891	447.14
788.073	453.28
788.254	473.76
788.435	455.33
788.616	453.28
788.797	473.76
788.978	383.65
789.159	395.94
789.34	402.08
789.522	373.41
789.703	340.65
789.884	422.56
790.065	379.56
790.246	418.47
790.427	375.46
790.607	381.6
790.788	373.41
790.969	338.6
791.15	361.13
791.331	416.42
791.512	354.98
791.693	248.49
791.874	408.23
792.054	383.65
792.235	414.37
792.416	342.69
792.597	410.28
792.778	262.82
792.958	330.41
793.139	338.6
793.32	342.69
793.5	340.65
793.681	354.98
793.862	375.46
794.042	295.59
794.223	271.01
794.404	361.13
794.584	324.26
794.765	279.21
794.945	287.4
795.126	293.54
795.306	328.36
795.487	369.32
795.667	262.82
795.848	334.5
796.028	324.26
796.209	326.31
796.389	324.26
796.57	262.82
796.75	268.97
796.93	365.22
797.111	332.45
797.291	338.6
797.471	285.35
797.652	359.08
797.832	225.96
798.012	201.38
798.192	295.59
798.373	297.64
798.553	252.58
798.733	299.69
798.913	273.06
799.093	291.49
799.274	250.53
799.454	271.01
799.634	256.68
799.814	277.16
799.994	271.01
800.174	219.82
800.354	285.35
800.534	266.92
800.714	285.35
800.894	299.69
801.074	238.25
801.254	211.62
801.434	271.01
801.614	250.53
801.794	252.58
801.974	656.03
802.154	201.38
802.334	250.53
802.514	197.29
802.693	209.58
802.873	217.77
803.053	342.69
803.233	262.82
803.413	256.68
803.592	191.14
803.772	262.82
803.952	299.69
804.131	174.76
804.311	178.86
804.491	232.1
804.67	273.06
804.85	205.48
805.03	268.97
805.209	152.23
805.389	228.01
805.568	295.59
805.748	209.58
805.928	158.38
806.107	266.92
806.287	131.75
806.466	211.62
806.646	164.52
806.825	193.19
807.004	201.38
807.184	197.29
807.363	180.9
807.543	238.25
807.722	221.86
807.901	256.68
808.081	201.38
808.26	107.18
808.439	139.94
808.619	168.62
808.798	213.67
808.977	193.19
809.156	197.29
809.336	232.1
809.515	187.05
809.694	180.9
809.873	135.85
810.052	156.33
810.231	244.39
810.411	182.95
810.59	172.71
810.769	234.15
810.948	273.06
811.127	191.14
811.306	230.06
811.485	246.44
811.664	193.19
811.843	168.62
812.022	164.52
812.201	291.49
812.38	172.71
812.559	137.9
812.737	129.7
812.916	201.38
813.095	193.19
813.274	182.95
813.453	260.77
813.632	158.38
813.811	219.82
813.989	139.94
814.168	117.42
814.347	152.23
814.526	158.38
814.704	174.76
814.883	195.24
815.062	105.13
815.24	250.53
815.419	201.38
815.598	201.38
815.776	133.8
815.955	166.57
816.133	129.7
816.312	170.66
816.49	148.14
816.669	154.28
816.847	144.04
817.026	129.7
817.204	119.46
817.383	105.13
817.561	135.85
817.74	221.86
817.918	160.42
818.097	98.99
818.275	135.85
818.453	158.38
818.632	158.38
818.81	158.38
818.988	68.27
819.167	62.12
819.345	113.32
819.523	109.23
819.701	160.42
819.879	115.37
820.058	80.55
820.236	139.94
820.414	133.8
820.592	111.27
820.77	144.04
820.948	107.18
821.127	47.79
821.305	187.05
821.483	164.52
821.661	172.71
821.839	158.38
822.017	168.62
822.195	113.32
822.373	68.27
822.551	242.34
822.729	172.71
822.907	103.08
823.085	119.46
823.262	125.61
823.44	98.99
823.618	133.8
823.796	154.28
823.974	135.85
824.152	164.52
824.329	115.37
824.507	129.7
824.685	117.42
824.863	-9.56
825.04	29.35
825.218	135.85
825.396	70.31
825.574	141.99
825.751	113.32
825.929	164.52
826.107	121.51
826.284	80.55
826.462	160.42
826.639	109.23
826.817	2.73
826.994	88.75
827.172	98.99
827.349	92.84
827.527	103.08
827.704	125.61
827.882	94.89
828.059	23.21
828.237	70.31
828.414	62.12
828.591	121.51
828.769	74.41
828.946	66.22
829.124	170.66
829.301	43.69
829.478	70.31
829.655	78.51
829.833	105.13
830.01	8.87
830.187	141.99
830.364	123.56
830.542	133.8
830.719	64.17
830.896	111.27
831.073	39.59
831.25	74.41
831.427	176.81
831.604	33.45
831.782	58.03
831.959	154.28
832.136	33.45
832.313	148.14
832.49	8.87
832.667	156.33
832.844	76.46
833.021	66.22
833.198	98.99
833.374	111.27
833.551	62.12
833.728	53.93
833.905	29.35
834.082	4.78
834.259	72.36
834.436	133.8
834.612	88.75
834.789	86.7
834.966	45.74
835.143	76.46
835.319	47.79
835.496	86.7
835.673	66.22
835.85	105.13
836.026	111.27
836.203	64.17
836.38	51.88
836.556	90.79
836.733	45.74
836.909	113.32
837.086	31.4
837.262	45.74
837.439	41.64
837.616	62.12
837.792	88.75
837.968	168.62
838.145	31.4
838.321	72.36
838.498	82.6
838.674	60.07
838.851	10.92
839.027	58.03
839.203	90.79
839.38	-13.65
839.556	78.51
839.732	82.6
839.909	94.89
840.085	127.66
840.261	127.66
840.437	68.27
840.614	86.7
840.79	90.79
840.966	84.65
841.142	101.03
841.318	23.21
841.494	55.98
841.671	111.27
841.847	211.62
842.023	19.11
842.199	19.11
842.375	82.6
842.551	29.35
842.727	68.27
842.903	31.4
843.079	74.41
843.255	139.94
843.431	49.83
843.607	70.31
843.783	19.11
843.959	86.7
844.134	90.79
844.31	25.26
844.486	98.99
844.662	96.94
844.838	96.94
845.013	64.17
845.189	39.59
845.365	80.55
845.541	66.22
845.716	49.83
845.892	62.12
846.068	10.92
846.244	21.16
846.419	0.68
846.595	88.75
846.77	96.94
846.946	70.31
847.122	15.02
847.297	66.22
847.473	-5.46
847.648	15.02
847.824	10.92
847.999	70.31
848.175	60.07
848.35	86.7
848.526	21.16
848.701	21.16
848.876	66.22
849.052	41.64
849.227	-7.51
849.403	2.73
849.578	58.03
849.753	-21.84
849.929	0.68
850.104	25.26
850.279	72.36
850.454	68.27
850.63	31.4
850.805	60.07
850.98	15.02
851.155	21.16
851.33	66.22
851.505	23.21
851.681	47.79
851.856	31.4
852.031	39.59
852.206	45.74
852.381	55.98
852.556	29.35
852.731	111.27
852.906	80.55
853.081	96.94
853.256	8.87
853.431	86.7
853.606	12.97
853.781	-19.8
853.956	-13.65
854.131	51.88
854.305	10.92
854.48	33.45
854.655	6.83
854.83	90.79
855.005	23.21
855.18	64.17
855.354	-30.04
855.529	23.21
855.704	23.21
855.879	82.6
856.053	39.59
856.228	62.12
856.403	45.74
856.577	-9.56
856.752	51.88
856.926	6.83
857.101	37.55
857.276	39.59
857.45	33.45
857.625	49.83
857.799	-25.94
857.974	45.74
858.148	37.55
858.323	8.87
858.497	12.97
858.672	53.93
858.846	58.03
859.02	37.55
859.195	70.31
859.369	92.84
859.543	72.36
859.718	27.31
859.892	12.97
860.066	53.93
860.241	10.92
860.415	27.31
860.589	101.03
860.763	25.26
860.938	101.03
861.112	-48.47
861.286	76.46
861.46	35.5
861.634	-42.32
861.808	88.75
861.982	37.55
862.157	37.55
862.331	4.78
862.505	27.31
862.679	0.68
862.853	80.55
863.027	47.79
863.201	-5.46
863.375	29.35
863.549	-25.94
863.722	-27.99
863.896	72.36
864.07	4.78
864.244	29.35
864.418	64.17
864.592	19.11
864.766	82.6
864.939	39.59
865.113	2.73
865.287	55.98
865.461	8.87
865.634	21.16
865.808	47.79
865.982	76.46
866.156	53.93
866.329	31.4
866.503	27.31
866.676	51.88
866.85	-46.42
867.024	-1.37
867.197	78.51
867.371	66.22
867.544	60.07
867.718	21.16
867.891	29.35
868.065	21.16
868.238	2.73
868.412	6.83
868.585	49.83
868.759	-15.7
868.932	-64.85
869.105	6.83
869.279	31.4
869.452	-32.08
869.625	53.93
869.799	-40.28
869.972	-48.47
870.145	8.87
870.319	4.78
870.492	37.55
870.665	-1.37
870.838	49.83
871.011	6.83
871.185	10.92
871.358	-25.94
871.531	12.97
871.704	45.74
871.877	-48.47
872.05	45.74
872.223	15.02
872.396	58.03
872.569	64.17
872.742	33.45
872.915	15.02
873.088	-3.41
873.261	19.11
873.434	31.4
873.607	41.64
873.78	-23.89
873.953	37.55
874.126	86.7
874.299	-17.75
874.471	27.31
874.644	35.5
874.817	27.31
874.99	74.41
875.163	39.59
875.335	62.12
875.508	60.07
875.681	31.4
875.853	-15.7
876.026	-3.41
876.199	15.02
876.371	47.79
876.544	-25.94
876.717	-7.51
876.889	35.5
877.062	33.45
877.234	-36.18
877.407	-3.41
877.579	25.26
877.752	43.69
877.924	45.74
878.097	43.69
878.269	86.7
878.442	-32.08
878.614	37.55
878.786	49.83
878.959	-11.61
879.131	12.97
879.303	-3.41
879.476	37.55
879.648	31.4
879.82	15.02
879.993	58.03
880.165	-38.23
880.337	0.68
880.509	-13.65
880.681	-25.94
880.854	41.64
881.026	-3.41
881.198	105.13
881.37	0.68
881.542	-9.56
881.714	10.92
881.886	-32.08
882.058	55.98
882.23	45.74
882.402	0.68
882.574	-3.41
882.746	74.41
882.918	39.59
883.09	37.55
883.262	39.59
883.434	10.92
883.606	-15.7
883.778	35.5
883.95	23.21
884.122	6.83
884.293	113.32
884.465	-56.66
884.637	-30.04
884.809	25.26
884.98	8.87
885.152	-62.8
885.324	84.65
885.496	6.83
885.667	41.64
885.839	-5.46
886.011	-13.65
886.182	76.46
886.354	62.12
886.525	17.07
886.697	51.88
886.869	-36.18
887.04	29.35
887.212	21.16
887.383	88.75
887.555	-36.18
887.726	23.21
887.897	-11.61
888.069	-13.65
888.24	0.68
888.412	-9.56
888.583	-25.94
888.754	43.69
888.926	-50.52
889.097	19.11
889.268	-19.8
889.44	-3.41
889.611	-40.28
889.782	107.18
889.953	-46.42
890.125	2.73
890.296	-9.56
890.467	55.98
890.638	2.73
890.809	2.73
890.98	19.11
891.151	15.02
891.323	53.93
891.494	-34.13
891.665	49.83
891.836	-3.41
892.007	-7.51
892.178	78.51
892.349	51.88
892.52	-68.95
892.691	86.7
892.862	-11.61
893.032	-1.37
893.203	-1.37
893.374	10.92
893.545	-19.8
893.716	-60.76
893.887	76.46
894.057	2.73
894.228	39.59
894.399	66.22
894.57	60.07
894.74	33.45
894.911	10.92
895.082	-21.84
895.253	-3.41
895.423	6.83
895.594	19.11
895.764	10.92
895.935	17.07
896.106	21.16
896.276	15.02
896.447	17.07
896.617	-11.61
896.788	-15.7
896.958	-30.04
897.129	-30.04
897.299	21.16
897.47	55.98
897.64	-36.18
897.81	-15.7
897.981	-38.23
898.151	10.92
898.322	60.07
898.492	43.69
898.662	47.79
898.832	17.07
899.003	35.5
899.173	17.07
899.343	-36.18
899.513	4.78
