Data from USB4F104151__201__11-10-08-478.txt Node

Date: Wed Mar 12 11:10:08 EDT 2025
User: louis
Spectrometer: USB4F10415
Trigger mode: 4
Integration Time (sec): 2.000000E-2
Scans to average: 1
Electric dark correction enabled: true
Nonlinearity correction enabled: false
Boxcar width: 0
XAxis mode: Wavelengths
Number of Pixels in Spectrum: 3648
>>>>>Begin Spectral Data<<<<<
178.204	-44.03
178.424	-44.03
178.644	-44.03
178.864	-91.13
179.084	-15.36
179.304	7.17
179.524	1.02
179.744	-70.65
179.964	-1.02
180.184	-13.31
180.404	11.26
180.624	31.74
180.844	-1.02
181.064	-56.32
181.283	52.22
181.503	9.22
181.723	29.7
181.943	-52.22
182.163	-58.37
182.383	23.55
182.602	-78.85
182.822	-54.27
183.042	64.51
183.262	-80.89
183.482	7.17
183.701	-103.42
183.921	46.08
184.141	5.12
184.361	-35.84
184.58	19.46
184.8	-19.46
185.02	9.22
185.239	-11.26
185.459	-48.13
185.679	-25.6
185.898	-48.13
186.118	-1.02
186.338	-3.07
186.557	11.26
186.777	-62.46
186.997	5.12
187.216	23.55
187.436	78.85
187.655	97.28
187.875	5.12
188.095	62.46
188.314	-44.03
188.534	23.55
188.753	-46.08
188.973	-7.17
189.192	33.79
189.412	21.5
189.631	-27.65
189.851	11.26
190.07	54.27
190.29	-37.89
190.509	-19.46
190.729	-50.18
190.948	-17.41
191.168	136.19
191.387	48.13
191.607	48.13
191.826	-33.79
192.045	-39.94
192.265	-29.7
192.484	-48.13
192.704	-39.94
192.923	11.26
193.142	54.27
193.362	3.07
193.581	101.37
193.8	-15.36
194.02	35.84
194.239	-13.31
194.458	7.17
194.678	-80.89
194.897	66.56
195.116	1.02
195.335	-9.22
195.555	17.41
195.774	23.55
195.993	-5.12
196.212	-3.07
196.432	-31.74
196.651	13.31
196.87	9.22
197.089	-15.36
197.308	-9.22
197.528	48.13
197.747	-27.65
197.966	-23.55
198.185	-11.26
198.404	33.79
198.623	-68.61
198.842	-80.89
199.062	9.22
199.281	-37.89
199.5	-41.98
199.719	-3.07
199.938	70.65
200.157	-7.17
200.376	-29.7
200.595	13.31
200.814	78.85
201.033	-25.6
201.252	9.22
201.471	-25.6
201.69	62.46
201.909	15.36
202.128	13.31
202.347	-1.02
202.566	-17.41
202.785	-21.5
203.004	13.31
203.223	68.61
203.442	62.46
203.661	-11.26
203.879	21.5
204.098	27.65
204.317	13.31
204.536	52.22
204.755	-31.74
204.974	50.18
205.193	46.08
205.411	35.84
205.63	1.02
205.849	19.46
206.068	-91.13
206.287	-7.17
206.505	1.02
206.724	11.26
206.943	5.12
207.162	31.74
207.381	27.65
207.599	44.03
207.818	70.65
208.037	-29.7
208.255	19.46
208.474	-21.5
208.693	9.22
208.911	-27.65
209.13	-5.12
209.349	105.47
209.567	-27.65
209.786	5.12
210.005	3.07
210.223	-31.74
210.442	-13.31
210.661	17.41
210.879	-11.26
211.098	17.41
211.316	33.79
211.535	7.17
211.753	41.98
211.972	31.74
212.191	-60.42
212.409	-9.22
212.628	11.26
212.846	15.36
213.065	-1.02
213.283	15.36
213.502	13.31
213.72	-29.7
213.938	39.94
214.157	54.27
214.375	-44.03
214.594	-29.7
214.812	5.12
215.031	-33.79
215.249	-25.6
215.467	-11.26
215.686	44.03
215.904	15.36
216.122	66.56
216.341	35.84
216.559	23.55
216.778	33.79
216.996	-25.6
217.214	-17.41
217.432	9.22
217.651	-97.28
217.869	50.18
218.087	-7.17
218.306	-64.51
218.524	-29.7
218.742	31.74
218.96	-7.17
219.179	-21.5
219.397	1.02
219.615	37.89
219.833	-21.5
220.051	-46.08
220.27	46.08
220.488	48.13
220.706	39.94
220.924	-3.07
221.142	21.5
221.36	21.5
221.578	60.42
221.796	66.56
222.015	-25.6
222.233	1.02
222.451	-11.26
222.669	39.94
222.887	3.07
223.105	25.6
223.323	70.65
223.541	25.6
223.759	-1.02
223.977	-23.55
224.195	13.31
224.413	15.36
224.631	44.03
224.849	-11.26
225.067	27.65
225.285	-17.41
225.503	-27.65
225.721	-35.84
225.939	-9.22
226.157	31.74
226.375	5.12
226.592	-21.5
226.81	48.13
227.028	46.08
227.246	46.08
227.464	-1.02
227.682	78.85
227.9	50.18
228.117	-13.31
228.335	29.7
228.553	17.41
228.771	70.65
228.989	-25.6
229.206	37.89
229.424	44.03
229.642	-11.26
229.86	-31.74
230.077	46.08
230.295	58.37
230.513	41.98
230.731	-9.22
230.948	21.5
231.166	-7.17
231.384	-27.65
231.601	-27.65
231.819	87.04
232.037	-9.22
232.254	-19.46
232.472	23.55
232.689	1.02
232.907	9.22
233.125	-3.07
233.342	35.84
233.56	-27.65
233.777	37.89
233.995	-3.07
234.213	3.07
234.43	39.94
234.648	37.89
234.865	33.79
235.083	1.02
235.3	31.74
235.518	25.6
235.735	23.55
235.953	1.02
236.17	-54.27
236.388	-54.27
236.605	19.46
236.822	76.8
237.04	17.41
237.257	19.46
237.475	-3.07
237.692	31.74
237.909	76.8
238.127	3.07
238.344	-15.36
238.562	31.74
238.779	-31.74
238.996	11.26
239.214	-5.12
239.431	5.12
239.648	-7.17
239.865	64.51
240.083	50.18
240.3	70.65
240.517	17.41
240.735	11.26
240.952	-37.89
241.169	37.89
241.386	27.65
241.603	41.98
241.821	-39.94
242.038	25.6
242.255	1.02
242.472	-1.02
242.689	-25.6
242.907	78.85
243.124	-1.02
243.341	1.02
243.558	-39.94
243.775	33.79
243.992	1.02
244.209	-3.07
244.426	-7.17
244.643	17.41
244.86	19.46
245.078	76.8
245.295	21.5
245.512	-48.13
245.729	-29.7
245.946	-23.55
246.163	48.13
246.38	-87.04
246.597	-21.5
246.814	101.37
247.031	3.07
247.248	33.79
247.464	-17.41
247.681	15.36
247.898	97.28
248.115	-35.84
248.332	-7.17
248.549	-23.55
248.766	56.32
248.983	3.07
249.2	35.84
249.417	35.84
249.633	29.7
249.85	-27.65
250.067	-15.36
250.284	25.6
250.501	39.94
250.717	7.17
250.934	-56.32
251.151	-9.22
251.368	-23.55
251.585	74.75
251.801	-19.46
252.018	13.31
252.235	-19.46
252.451	-21.5
252.668	54.27
252.885	3.07
253.102	46.08
253.318	-84.99
253.535	-27.65
253.752	29.7
253.968	56.32
254.185	-11.26
254.401	70.65
254.618	19.46
254.835	-17.41
255.051	19.46
255.268	-15.36
255.484	25.6
255.701	-17.41
255.917	33.79
256.134	-48.13
256.351	-19.46
256.567	-41.98
256.784	3.07
257	58.37
257.217	66.56
257.433	-13.31
257.65	-31.74
257.866	-27.65
258.082	35.84
258.299	7.17
258.515	17.41
258.732	-17.41
258.948	-3.07
259.165	-35.84
259.381	-19.46
259.597	-1.02
259.814	46.08
260.03	13.31
260.246	99.33
260.463	-33.79
260.679	54.27
260.895	50.18
261.112	-13.31
261.328	-44.03
261.544	35.84
261.761	11.26
261.977	-46.08
262.193	27.65
262.409	-41.98
262.626	29.7
262.842	25.6
263.058	-11.26
263.274	-9.22
263.49	46.08
263.707	-31.74
263.923	23.55
264.139	13.31
264.355	56.32
264.571	66.56
264.787	62.46
265.004	72.7
265.22	35.84
265.436	-60.42
265.652	62.46
265.868	-19.46
266.084	21.5
266.3	37.89
266.516	-23.55
266.732	1.02
266.948	25.6
267.164	37.89
267.38	66.56
267.596	46.08
267.812	17.41
268.028	66.56
268.244	7.17
268.46	-5.12
268.676	-23.55
268.892	50.18
269.108	17.41
269.324	23.55
269.54	-15.36
269.756	66.56
269.972	-9.22
270.188	33.79
270.403	-21.5
270.619	31.74
270.835	37.89
271.051	23.55
271.267	37.89
271.483	72.7
271.698	-60.42
271.914	17.41
272.13	-37.89
272.346	-21.5
272.562	37.89
272.777	62.46
272.993	64.51
273.209	-5.12
273.425	54.27
273.64	-5.12
273.856	21.5
274.072	-25.6
274.287	-3.07
274.503	107.52
274.719	-19.46
274.934	23.55
275.15	44.03
275.366	-9.22
275.581	5.12
275.797	-3.07
276.012	-1.02
276.228	19.46
276.444	-50.18
276.659	31.74
276.875	-74.75
277.09	78.85
277.306	5.12
277.521	3.07
277.737	54.27
277.952	-21.5
278.168	-9.22
278.383	13.31
278.599	5.12
278.814	29.7
279.03	-23.55
279.245	5.12
279.461	89.09
279.676	68.61
279.892	-27.65
280.107	5.12
280.322	-44.03
280.538	35.84
280.753	-13.31
280.969	33.79
281.184	60.42
281.399	-13.31
281.615	87.04
281.83	44.03
282.045	19.46
282.26	-3.07
282.476	44.03
282.691	19.46
282.906	-52.22
283.122	-3.07
283.337	-27.65
283.552	-27.65
283.767	3.07
283.983	58.37
284.198	68.61
284.413	52.22
284.628	-54.27
284.843	33.79
285.058	70.65
285.274	-3.07
285.489	50.18
285.704	64.51
285.919	5.12
286.134	29.7
286.349	44.03
286.564	17.41
286.779	-21.5
286.995	39.94
287.21	-3.07
287.425	37.89
287.64	-33.79
287.855	13.31
288.07	-35.84
288.285	-17.41
288.5	-27.65
288.715	-11.26
288.93	-56.32
289.145	19.46
289.36	-48.13
289.575	99.33
289.79	5.12
290.004	15.36
290.219	-7.17
290.434	50.18
290.649	-68.61
290.864	44.03
291.079	39.94
291.294	52.22
291.509	-44.03
291.724	-25.6
291.938	19.46
292.153	9.22
292.368	17.41
292.583	64.51
292.798	23.55
293.012	17.41
293.227	-3.07
293.442	48.13
293.657	19.46
293.871	39.94
294.086	19.46
294.301	74.75
294.516	46.08
294.73	-11.26
294.945	-46.08
295.16	-37.89
295.374	35.84
295.589	62.46
295.804	-31.74
296.018	9.22
296.233	21.5
296.447	15.36
296.662	23.55
296.877	48.13
297.091	39.94
297.306	-48.13
297.52	9.22
297.735	11.26
297.949	44.03
298.164	-29.7
298.378	3.07
298.593	31.74
298.807	62.46
299.022	-19.46
299.236	19.46
299.451	68.61
299.665	-19.46
299.88	3.07
300.094	-3.07
300.309	64.51
300.523	76.8
300.737	-52.22
300.952	31.74
301.166	-13.31
301.381	-56.32
301.595	-33.79
301.809	-19.46
302.024	89.09
302.238	-48.13
302.452	37.89
302.667	50.18
302.881	46.08
303.095	5.12
303.309	15.36
303.524	15.36
303.738	76.8
303.952	-44.03
304.166	19.46
304.381	-58.37
304.595	60.42
304.809	60.42
305.023	-54.27
305.237	-50.18
305.452	-50.18
305.666	15.36
305.88	31.74
306.094	-3.07
306.308	70.65
306.522	64.51
306.736	19.46
306.95	-70.65
307.164	35.84
307.379	17.41
307.593	17.41
307.807	78.85
308.021	25.6
308.235	37.89
308.449	-33.79
308.663	7.17
308.877	80.89
309.091	-52.22
309.305	9.22
309.519	-44.03
309.733	31.74
309.947	-29.7
310.161	39.94
310.374	19.46
310.588	-29.7
310.802	-9.22
311.016	87.04
311.23	44.03
311.444	37.89
311.658	41.98
311.872	39.94
312.085	35.84
312.299	-37.89
312.513	-5.12
312.727	-35.84
312.941	-44.03
313.154	52.22
313.368	-19.46
313.582	-31.74
313.796	52.22
314.009	27.65
314.223	29.7
314.437	33.79
314.651	82.94
314.864	19.46
315.078	7.17
315.292	-31.74
315.505	21.5
315.719	-5.12
315.933	58.37
316.146	-19.46
316.36	-44.03
316.573	68.61
316.787	9.22
317.001	27.65
317.214	-52.22
317.428	39.94
317.641	-31.74
317.855	58.37
318.068	29.7
318.282	50.18
318.495	29.7
318.709	48.13
318.922	-93.18
319.136	50.18
319.349	-5.12
319.563	1.02
319.776	-23.55
319.99	29.7
320.203	46.08
320.417	37.89
320.63	5.12
320.843	-68.61
321.057	37.89
321.27	7.17
321.483	5.12
321.697	64.51
321.91	-1.02
322.124	11.26
322.337	35.84
322.55	-7.17
322.763	25.6
322.977	21.5
323.19	48.13
323.403	9.22
323.617	33.79
323.83	-17.41
324.043	-33.79
324.256	-31.74
324.469	-35.84
324.683	25.6
324.896	-13.31
325.109	-7.17
325.322	-76.8
325.535	84.99
325.748	44.03
325.962	-1.02
326.175	5.12
326.388	-21.5
326.601	15.36
326.814	-60.42
327.027	7.17
327.24	31.74
327.453	-62.46
327.666	37.89
327.879	64.51
328.092	58.37
328.305	5.12
328.518	50.18
328.731	37.89
328.944	60.42
329.157	25.6
329.37	66.56
329.583	87.04
329.796	44.03
330.009	-3.07
330.222	60.42
330.435	62.46
330.648	-5.12
330.861	-19.46
331.073	-19.46
331.286	93.18
331.499	60.42
331.712	50.18
331.925	25.6
332.138	37.89
332.35	5.12
332.563	21.5
332.776	-1.02
332.989	17.41
333.202	-25.6
333.414	15.36
333.627	3.07
333.84	56.32
334.053	115.71
334.265	13.31
334.478	-41.98
334.691	13.31
334.903	-23.55
335.116	-97.28
335.329	48.13
335.541	74.75
335.754	82.94
335.966	-74.75
336.179	-44.03
336.392	39.94
336.604	76.8
336.817	54.27
337.029	29.7
337.242	70.65
337.454	37.89
337.667	54.27
337.88	9.22
338.092	-5.12
338.305	17.41
338.517	-46.08
338.729	21.5
338.942	-23.55
339.154	11.26
339.367	54.27
339.579	103.42
339.792	-5.12
340.004	-15.36
340.217	-15.36
340.429	64.51
340.641	19.46
340.854	-19.46
341.066	-3.07
341.278	37.89
341.491	68.61
341.703	9.22
341.915	70.65
342.128	33.79
342.34	50.18
342.552	50.18
342.764	-1.02
342.977	-35.84
343.189	35.84
343.401	-46.08
343.613	5.12
343.826	72.7
344.038	5.12
344.25	68.61
344.462	-3.07
344.674	93.18
344.886	66.56
345.099	11.26
345.311	13.31
345.523	13.31
345.735	-37.89
345.947	56.32
346.159	31.74
346.371	-7.17
346.583	1.02
346.795	150.53
347.007	-33.79
347.219	25.6
347.431	-7.17
347.643	-3.07
347.855	54.27
348.067	93.18
348.279	-41.98
348.491	27.65
348.703	33.79
348.915	91.13
349.127	23.55
349.339	50.18
349.551	41.98
349.763	-74.75
349.975	17.41
350.187	66.56
350.399	17.41
350.61	-7.17
350.822	-78.85
351.034	50.18
351.246	44.03
351.458	-9.22
351.669	52.22
351.881	-15.36
352.093	46.08
352.305	48.13
352.517	1.02
352.728	17.41
352.94	11.26
353.152	-44.03
353.363	37.89
353.575	-7.17
353.787	35.84
353.999	-11.26
354.21	52.22
354.422	-15.36
354.633	39.94
354.845	5.12
355.057	25.6
355.268	54.27
355.48	29.7
355.692	-29.7
355.903	-1.02
356.115	5.12
356.326	-7.17
356.538	33.79
356.749	-35.84
356.961	-27.65
357.172	-5.12
357.384	-19.46
357.595	103.42
357.807	9.22
358.018	-31.74
358.23	29.7
358.441	109.57
358.653	25.6
358.864	19.46
359.075	-13.31
359.287	46.08
359.498	56.32
359.709	66.56
359.921	87.04
360.132	56.32
360.344	-9.22
360.555	-31.74
360.766	19.46
360.977	11.26
361.189	1.02
361.4	27.65
361.611	103.42
361.823	-19.46
362.034	54.27
362.245	46.08
362.456	70.65
362.667	9.22
362.879	5.12
363.09	29.7
363.301	44.03
363.512	1.02
363.723	-3.07
363.935	56.32
364.146	23.55
364.357	31.74
364.568	-23.55
364.779	-11.26
364.99	-3.07
365.201	-1.02
365.412	39.94
365.623	37.89
365.834	17.41
366.045	-17.41
366.256	-27.65
366.467	-44.03
366.678	25.6
366.889	9.22
367.1	-19.46
367.311	3.07
367.522	-62.46
367.733	25.6
367.944	74.75
368.155	-11.26
368.366	-15.36
368.577	72.7
368.788	27.65
368.999	-7.17
369.209	29.7
369.42	37.89
369.631	33.79
369.842	-15.36
370.053	-13.31
370.264	17.41
370.474	19.46
370.685	33.79
370.896	48.13
371.107	70.65
371.317	-1.02
371.528	-9.22
371.739	91.13
371.95	66.56
372.16	-25.6
372.371	33.79
372.582	31.74
372.792	-7.17
373.003	56.32
373.214	-52.22
373.424	84.99
373.635	62.46
373.846	95.23
374.056	-9.22
374.267	-33.79
374.477	11.26
374.688	13.31
374.898	-5.12
375.109	25.6
375.319	-19.46
375.53	68.61
375.74	-23.55
375.951	27.65
376.161	58.37
376.372	-5.12
376.582	41.98
376.793	29.7
377.003	-31.74
377.214	-15.36
377.424	-3.07
377.635	17.41
377.845	-7.17
378.055	115.71
378.266	-97.28
378.476	99.33
378.686	15.36
378.897	64.51
379.107	111.61
379.317	54.27
379.528	87.04
379.738	-29.7
379.948	25.6
380.158	-39.94
380.369	87.04
380.579	60.42
380.789	-31.74
380.999	21.5
381.21	-17.41
381.42	50.18
381.63	33.79
381.84	-7.17
382.05	46.08
382.261	-39.94
382.471	-1.02
382.681	13.31
382.891	17.41
383.101	60.42
383.311	50.18
383.521	-29.7
383.731	41.98
383.941	39.94
384.151	46.08
384.361	52.22
384.571	68.61
384.781	58.37
384.991	78.85
385.201	101.37
385.411	13.31
385.621	-3.07
385.831	-11.26
386.041	74.75
386.251	-25.6
386.461	78.85
386.671	1.02
386.881	64.51
387.091	35.84
387.301	23.55
387.511	50.18
387.72	29.7
387.93	80.89
388.14	23.55
388.35	74.75
388.56	68.61
388.769	56.32
388.979	46.08
389.189	48.13
389.399	17.41
389.609	5.12
389.818	-3.07
390.028	35.84
390.238	37.89
390.447	72.7
390.657	37.89
390.867	15.36
391.076	44.03
391.286	21.5
391.496	58.37
391.705	1.02
391.915	84.99
392.125	25.6
392.334	27.65
392.544	82.94
392.753	37.89
392.963	9.22
393.172	21.5
393.382	33.79
393.591	115.71
393.801	56.32
394.01	140.29
394.22	60.42
394.429	1.02
394.639	46.08
394.848	82.94
395.058	19.46
395.267	101.37
395.477	25.6
395.686	78.85
395.895	37.89
396.105	78.85
396.314	64.51
396.524	95.23
396.733	54.27
396.942	39.94
397.152	146.43
397.361	52.22
397.57	105.47
397.78	62.46
397.989	107.52
398.198	-9.22
398.407	33.79
398.617	103.42
398.826	119.81
399.035	74.75
399.244	101.37
399.453	19.46
399.663	117.76
399.872	89.09
400.081	50.18
400.29	119.81
400.499	95.23
400.708	58.37
400.917	-25.6
401.127	25.6
401.336	78.85
401.545	134.14
401.754	54.27
401.963	19.46
402.172	48.13
402.381	109.57
402.59	103.42
402.799	25.6
403.008	60.42
403.217	39.94
403.426	160.77
403.635	37.89
403.844	175.1
404.053	115.71
404.262	80.89
404.471	148.48
404.68	105.47
404.888	91.13
405.097	156.67
405.306	103.42
405.515	132.09
405.724	113.66
405.933	89.09
406.142	144.38
406.35	80.89
406.559	115.71
406.768	168.96
406.977	173.05
407.185	136.19
407.394	214.01
407.603	164.86
407.812	93.18
408.02	136.19
408.229	160.77
408.438	193.53
408.646	89.09
408.855	125.95
409.064	173.05
409.272	150.53
409.481	144.38
409.69	207.87
409.898	189.44
410.107	248.83
410.315	248.83
410.524	254.97
410.733	320.51
410.941	263.16
411.15	304.12
411.358	289.79
411.567	254.97
411.775	322.56
411.984	343.03
412.192	334.84
412.401	353.27
412.609	287.74
412.818	406.52
413.026	349.18
413.234	373.75
413.443	406.52
413.651	449.53
413.86	521.21
414.068	439.29
414.276	424.95
414.485	443.39
414.693	551.93
414.901	551.93
415.11	539.64
415.318	480.25
415.526	644.09
415.734	646.13
415.943	576.5
416.151	658.42
416.359	601.08
416.567	646.13
416.776	687.09
416.984	797.68
417.192	801.78
417.4	797.68
417.608	787.44
417.817	773.11
418.025	924.66
418.233	836.6
418.441	885.75
418.649	885.75
418.857	977.91
419.065	1047.54
419.273	967.67
419.481	1047.54
419.689	1098.74
419.897	1061.87
420.105	1102.83
420.313	1168.37
420.521	1264.62
420.729	1295.34
420.937	1319.92
421.145	1256.43
421.353	1383.4
421.561	1403.88
421.769	1493.99
421.977	1659.88
422.185	1582.06
422.393	1608.68
422.601	1754.09
422.809	1717.22
423.017	1850.34
423.224	1768.42
423.432	1999.84
423.64	2071.52
423.848	2122.72
424.056	2012.13
424.263	2253.79
424.471	2284.51
424.679	2094.05
424.887	2288.61
425.094	2436.06
425.302	2370.52
425.51	2550.75
425.718	2489.31
425.925	2513.88
426.133	2665.43
426.341	2737.11
426.548	2964.43
426.756	2941.91
426.964	3134.42
427.171	3167.18
427.379	3361.74
427.586	3417.04
427.794	3435.47
428.001	3564.49
428.209	3816.39
428.417	3574.73
428.624	3949.51
428.832	3857.35
429.039	3974.08
429.247	3900.36
429.454	4252.61
429.662	4508.6
429.869	4445.12
430.076	4643.77
430.284	4488.12
430.491	4606.91
430.699	4981.68
430.906	5006.26
431.114	4905.91
431.321	5270.45
431.528	5239.73
431.736	5514.16
431.943	5772.2
432.15	5845.93
432.358	5686.19
432.565	6163.36
432.772	6046.63
432.979	6333.34
433.187	6419.36
433.394	6466.46
433.601	6871.96
433.808	6882.2
434.016	6941.59
434.223	7068.56
434.43	7711.63
434.637	7566.22
434.844	7900.04
435.052	8039.3
435.259	8080.26
435.466	8188.8
435.673	7832.46
435.88	8555.39
436.087	9014.13
436.294	9071.48
436.501	8811.39
436.708	9040.76
436.915	9380.72
437.122	9616.24
437.329	9845.61
437.537	9929.58
437.743	10249.06
437.95	10077.03
438.157	10566.49
438.364	10910.55
438.571	10971.99
438.778	10912.6
438.985	11940.68
439.192	11572.05
439.399	12153.67
439.606	11526.99
439.813	12245.83
440.02	13177.65
440.227	12802.88
440.433	12534.59
440.64	13226.81
440.847	12878.65
441.054	13253.43
441.261	14191.4
441.467	13812.53
441.674	14396.2
441.881	14730.02
442.088	14746.4
442.294	14496.55
442.501	15076.12
442.708	15356.69
442.914	16020.24
443.121	16739.07
443.328	16509.7
443.534	17265.4
443.741	16700.16
443.948	16597.76
444.154	17631.99
444.361	17429.24
444.568	17918.7
444.774	17586.93
444.981	18236.14
445.187	18379.5
445.394	19366.62
445.6	19051.23
445.807	20728.52
446.013	20187.85
446.22	20398.79
446.426	21107.39
446.633	21340.86
446.839	21906.1
447.046	20609.73
447.252	22223.53
447.459	22319.79
447.665	22006.45
447.871	23118.5
448.078	24017.55
448.284	22655.65
448.491	23603.86
448.697	24265.36
448.903	24509.07
449.11	24922.76
449.316	24142.48
449.522	25168.51
449.728	25537.15
449.935	25617.02
450.141	25711.22
450.347	26284.65
450.553	25426.56
450.76	25350.78
450.966	26268.27
451.172	26219.12
451.378	26534.51
451.584	26102.39
451.791	26792.55
451.997	26929.77
452.203	27308.64
452.409	27044.45
452.615	26798.7
452.821	26083.95
453.027	25963.12
453.233	27073.12
453.44	25719.42
453.646	26106.48
453.852	26366.57
454.058	26610.28
454.264	25774.71
454.47	26243.7
454.676	25684.6
454.882	26540.65
455.088	24091.28
455.294	24324.75
455.5	24828.55
455.705	25174.66
455.911	24158.86
456.117	23685.78
456.323	23192.22
456.529	21932.72
456.735	22790.82
456.941	22354.6
457.147	22014.64
457.352	21353.15
457.558	21242.56
457.764	21281.47
457.97	20732.61
458.176	20046.54
458.381	20253.39
458.587	19182.3
458.793	19223.26
458.999	18047.72
459.204	19614.42
459.41	18873.06
459.616	17750.77
459.821	17543.92
460.027	17697.52
460.233	17251.06
460.438	16106.25
460.644	16536.32
460.85	15749.9
461.055	15610.64
461.261	15688.46
461.466	14299.94
461.672	14156.58
461.878	14979.87
462.083	13736.75
462.289	13650.74
462.494	13546.29
462.7	12802.88
462.905	12614.46
463.111	13159.22
463.316	13038.39
463.522	12768.06
463.727	12995.39
463.932	12727.1
464.138	12901.18
464.343	12813.12
464.549	12317.51
464.754	12907.32
464.959	12856.12
465.165	12442.43
465.37	12004.17
465.575	11789.13
465.781	12424
465.986	12409.67
466.191	11899.72
466.397	11635.53
466.602	11074.39
466.807	11553.62
467.012	11580.24
467.218	11627.34
467.423	11283.28
467.628	11492.18
467.833	11975.5
468.038	11303.76
468.244	11227.99
468.449	11447.12
468.654	11092.82
468.859	10918.75
469.064	10949.46
469.269	10568.54
469.474	10748.76
469.679	10785.63
469.885	10464.1
470.09	10697.56
470.295	10718.04
470.5	10304.35
470.705	10406.75
470.91	10345.31
471.115	10072.93
471.32	10136.42
471.525	10181.48
471.73	10005.35
471.935	9896.81
472.139	9470.83
472.344	9503.6
472.549	9620.33
472.754	9450.35
472.959	9278.32
473.164	9020.28
473.369	9077.62
473.574	9407.34
473.778	9216.88
473.983	9075.57
474.188	9253.75
474.393	8647.55
474.598	8684.41
474.802	8610.68
475.007	8561.53
475.212	8586.11
475.417	8287.11
475.621	8156.04
475.826	8309.63
476.031	8049.54
476.235	8055.69
476.44	8156.04
476.645	7949.19
476.849	7969.67
477.054	7869.32
477.259	7752.59
477.463	7615.37
477.668	7607.18
477.872	7824.26
478.077	7555.98
478.282	7392.14
478.486	7226.26
478.691	7193.49
478.895	7132.05
479.1	7080.85
479.304	7216.02
479.509	6927.25
479.713	7213.97
479.918	6996.89
480.122	6779.8
480.326	6890.39
480.531	7043.99
480.735	7041.94
480.94	6847.38
481.144	7170.96
481.348	6728.6
481.553	6792.09
481.757	6620.06
481.961	6685.59
482.166	6886.29
482.37	6841.24
482.574	6927.25
482.778	6656.92
482.983	6777.75
483.187	6861.72
483.391	6687.64
483.595	6775.7
483.8	6611.87
484.004	6697.88
484.208	6794.14
484.412	6587.29
484.616	6589.34
484.821	6775.7
485.025	6370.21
485.229	6607.77
485.433	6640.54
485.637	6779.8
485.841	6644.63
486.045	6712.22
486.249	6648.73
486.453	6626.2
486.657	6673.31
486.861	6749.08
487.065	6538.14
487.269	6501.28
487.473	6435.74
487.677	6677.4
487.881	6628.25
488.085	6519.71
488.289	6597.53
488.493	6648.73
488.697	6742.94
488.901	6722.46
489.105	6722.46
489.309	6663.07
489.512	6658.97
489.716	6974.36
489.92	6638.49
490.124	6681.5
490.328	6849.43
490.531	6630.3
490.735	6718.36
490.939	6683.55
491.143	6837.14
491.346	6847.38
491.55	6876.06
491.754	6898.58
491.958	6853.53
492.161	6949.78
492.365	6822.81
492.569	6976.41
492.772	6880.15
492.976	7154.58
493.18	7078.8
493.383	6980.5
493.587	7228.31
493.79	7416.72
493.994	7287.7
494.197	7402.38
494.401	7330.7
494.605	7230.35
494.808	7582.6
495.012	7476.11
495.215	7639.95
495.419	7811.98
495.622	7533.45
495.825	7662.48
496.029	7728.01
496.232	7959.43
496.436	7973.77
496.639	8188.8
496.843	8070.02
497.046	8426.37
497.249	8196.99
497.453	8260.48
497.656	8510.33
497.859	8481.66
498.063	8737.66
498.266	8754.04
498.469	8653.69
498.673	8751.99
498.876	8870.78
499.079	9063.29
499.282	8989.56
499.485	9239.41
499.689	9280.37
499.892	9347.95
500.095	9343.86
500.298	9659.24
500.501	9354.1
500.705	9866.09
500.908	9939.82
501.111	10249.06
501.314	9970.54
501.517	10236.77
501.72	10380.13
501.923	10298.21
502.126	10369.89
502.329	10615.65
502.532	10814.3
502.735	10689.37
502.938	11105.11
503.141	11109.21
503.344	11154.26
503.547	11281.24
503.75	11357.01
503.953	11758.41
504.156	11686.73
504.359	11774.8
504.562	11653.97
504.765	12202.82
504.968	12231.49
505.17	12143.43
505.373	12434.24
505.576	12860.22
505.779	12843.84
505.982	12839.74
506.185	13097.78
506.387	13144.89
506.59	13335.35
506.793	13775.66
506.996	13540.15
507.198	14007.08
507.401	13642.54
507.604	13992.75
507.807	14134.06
508.009	14136.1
508.212	14537.51
508.415	14695.2
508.617	14768.93
508.82	14818.08
509.022	14910.24
509.225	15153.94
509.428	15336.21
509.63	15297.3
509.833	15590.16
510.035	15977.23
510.238	15829.77
510.44	15907.6
510.643	16147.21
510.845	16425.73
511.048	16397.06
511.25	16542.47
511.453	16696.07
511.655	17300.22
511.858	17285.88
512.06	17375.99
512.262	17619.7
512.465	17531.64
512.667	17863.41
512.87	18242.28
513.072	18369.26
513.274	18500.33
513.477	18594.53
513.679	18918.11
513.881	19122.91
514.084	19296.99
514.286	19233.5
514.488	19495.64
514.69	20052.69
514.893	20069.07
515.095	20177.61
515.297	20288.2
515.499	20259.53
515.701	20669.12
515.904	20832.96
516.106	21121.73
516.308	21289.66
516.51	21355.19
516.712	21801.65
516.914	22071.98
517.116	21920.43
517.318	22491.82
517.52	22266.54
517.722	22667.94
517.925	22870.69
518.127	23075.49
518.329	23079.58
518.531	23243.42
518.733	23730.84
518.935	23999.12
519.136	23722.65
519.338	24435.34
519.54	24177.3
519.742	24801.93
519.944	24896.13
520.146	25430.65
520.348	25256.57
520.55	25494.14
520.752	25488
520.954	26114.67
521.155	25873.01
521.357	26477.16
521.559	26329.71
521.761	26978.92
521.963	26755.69
522.164	26772.07
522.366	27060.84
522.568	27282.02
522.77	27548.25
522.971	28093.01
523.173	27986.52
523.375	28113.49
523.576	28140.11
523.778	28471.89
523.98	28543.56
524.181	28987.97
524.383	29211.2
524.584	29186.63
524.786	29289.03
524.988	29207.11
525.189	29737.53
525.391	30130.74
525.592	30048.82
525.794	30071.35
525.995	30333.49
526.197	30405.17
526.398	30431.79
526.6	30734.89
526.801	30999.08
527.003	30806.57
527.204	31003.17
527.406	31470.11
527.607	31527.45
527.808	31564.32
528.01	31197.73
528.211	31543.84
528.412	32193.04
528.614	31771.16
528.815	31816.22
529.016	32279.06
529.218	32025.11
529.419	32340.5
529.62	32170.52
529.822	32432.66
530.023	32086.55
530.224	32496.14
530.425	32406.03
530.626	32387.6
530.828	32354.83
531.029	33077.77
531.23	32619.02
531.431	32725.52
531.632	32850.44
531.833	33174.02
532.035	33159.69
532.236	33231.36
532.437	33274.37
532.638	32985.61
532.839	33163.78
533.04	33301
533.241	32676.37
533.442	33479.17
533.643	33622.53
533.844	33208.84
534.045	33237.51
534.246	33065.48
534.447	33374.72
534.648	33726.97
534.849	33823.23
535.05	33249.8
535.251	33372.67
535.451	33663.49
535.652	33784.32
535.853	33710.59
536.054	34097.66
536.255	33624.57
536.456	33665.53
536.657	34159.09
536.857	33634.81
537.058	33667.58
537.259	33886.71
537.46	33694.21
537.66	33573.38
537.861	33692.16
538.062	33473.03
538.263	33841.66
538.463	33798.65
538.664	34040.31
538.865	33829.37
539.065	34142.71
539.266	33532.42
539.466	33978.87
539.667	33712.64
539.868	34370.04
540.068	33876.48
540.269	33507.84
540.469	34091.51
540.67	34011.64
540.87	33925.63
541.071	33808.89
541.271	34009.59
541.472	33561.09
541.672	33935.87
541.873	33792.51
542.073	33341.96
542.274	34099.7
542.474	33833.47
542.675	33419.78
542.875	33884.67
543.075	33942.01
543.276	33413.63
543.476	33894.91
543.676	33507.84
543.877	33966.59
544.077	33423.87
544.277	33774.08
544.478	33427.97
544.678	33634.81
544.878	33739.26
545.078	33610.24
545.279	33522.18
545.479	33665.53
545.679	33464.83
545.879	33753.6
546.079	33833.47
546.28	33870.33
546.48	33501.7
546.68	33976.83
546.88	33792.51
547.08	33856
547.28	33722.88
547.48	33452.55
547.68	33339.91
547.88	33552.9
548.081	33569.28
548.281	33571.33
548.481	33720.83
548.681	33643.01
548.881	33772.03
549.081	33376.77
549.28	33667.58
549.48	33602.05
549.68	33434.11
549.88	34081.27
550.08	33593.86
550.28	33638.91
550.48	33241.6
550.68	33720.83
550.88	33686.01
551.08	33751.55
551.279	33458.69
551.479	33409.54
551.679	33534.46
551.879	33366.53
552.079	33733.12
552.278	33290.76
552.478	33352.2
552.678	33309.19
552.878	33530.37
553.077	33239.56
553.277	32993.8
553.477	33405.44
553.676	33317.38
553.876	33280.52
554.076	32709.13
554.275	33237.51
554.475	32938.51
554.674	33184.26
554.874	33444.35
555.074	32715.28
555.273	33425.92
555.473	33231.36
555.672	33100.29
555.872	33120.77
556.071	33028.62
556.271	33565.18
556.47	32528.91
556.67	32377.36
556.869	32717.32
557.068	32754.19
557.268	32322.07
557.467	32389.65
557.667	32475.66
557.866	32735.76
558.065	32389.65
558.265	32195.09
558.464	32178.71
558.663	32631.31
558.863	31883.8
559.062	32543.25
559.261	32021.02
559.461	32408.08
559.66	31689.24
559.859	32047.64
560.058	31932.95
560.258	32330.26
560.457	31431.2
560.656	31740.44
560.855	31611.42
561.054	31939.1
561.253	31711.77
561.453	31707.68
561.652	31619.61
561.851	31885.85
562.05	31275.55
562.249	31578.65
562.448	31638.05
562.647	31167.01
562.846	31207.97
563.045	31099.43
563.244	30693.93
563.443	31212.07
563.642	30554.67
563.841	30816.81
564.04	30857.77
564.239	30763.56
564.438	30421.55
564.637	30960.17
564.836	30583.34
565.035	30245.43
565.234	30394.93
565.432	30321.2
565.631	30077.49
565.83	30333.49
566.029	30159.41
566.228	29874.74
566.427	29981.24
566.625	29772.35
566.824	29481.53
567.023	29723.19
567.222	29213.25
567.42	29661.76
567.619	29635.13
567.818	29411.9
568.016	29241.92
568.215	29520.45
568.414	29278.79
568.612	29358.66
568.811	28828.23
569.01	29108.8
569.208	28617.29
569.407	29114.95
569.605	28465.74
569.804	28936.77
570.002	28398.16
570.201	28629.58
570.4	28471.89
570.598	28164.69
570.797	27914.84
570.995	28025.43
571.193	27615.83
571.392	28013.14
571.59	27789.91
571.789	27574.88
571.987	27920.98
572.186	27515.48
572.384	27535.96
572.582	27865.69
572.781	27626.07
572.979	27363.93
573.177	27112.03
573.376	27251.3
573.574	26849.89
573.772	27048.55
573.971	26968.68
574.169	26641
574.367	26274.42
574.565	26886.76
574.763	26393.2
574.962	26458.73
575.16	25973.36
575.358	26272.37
575.556	26391.15
575.754	26446.44
575.952	25877.11
576.151	26217.07
576.349	25967.22
576.547	25709.18
576.745	25795.19
576.943	25782.9
577.141	25553.53
577.339	25563.77
577.537	25287.29
577.735	25461.37
577.933	25100.93
578.131	25330.3
578.329	24857.22
578.527	24801.93
578.725	24976
578.923	25260.67
579.121	24953.48
579.319	24621.7
579.516	25004.67
579.714	24935.04
579.912	24728.2
580.11	24660.62
580.308	24472.2
580.506	24425.1
580.704	23741.08
580.901	24201.87
581.099	24320.65
581.297	23882.39
581.495	23913.11
581.692	24218.25
581.89	23857.81
582.088	23816.85
582.285	23773.85
582.483	23739.03
582.681	23597.72
582.878	23734.93
583.076	23546.52
583.274	23636.63
583.471	23429.79
583.669	23313.05
583.866	23093.92
584.064	23550.62
584.262	22923.94
584.459	23098.02
584.657	23224.99
584.854	23016.1
585.052	22420.14
585.249	22993.57
585.447	22997.67
585.644	22745.76
585.841	22514.34
586.039	22686.37
586.236	22381.23
586.434	22317.74
586.631	22078.13
586.828	22307.5
587.026	22229.68
587.223	22002.35
587.42	22170.29
587.618	21949.11
587.815	21881.52
588.012	21811.89
588.21	21764.79
588.407	22057.65
588.604	21484.22
588.801	21693.11
588.999	21447.35
589.196	21824.18
589.393	21322.43
589.59	21465.78
589.787	21408.44
589.984	21146.3
590.182	20900.55
590.379	21220.03
590.576	20693.7
590.773	20749
590.97	20615.88
591.167	21160.64
591.364	20347.59
591.561	20798.15
591.758	20533.96
591.955	20761.28
592.152	20503.24
592.349	20153.04
592.546	20449.99
592.743	20247.24
592.94	20308.68
593.137	20013.77
593.334	20208.33
593.531	19782.35
593.727	20138.7
593.924	20261.58
594.121	19569.37
594.318	20093.65
594.515	19471.06
594.712	19602.13
594.908	19649.24
595.105	19684.05
595.302	19499.73
595.499	19639
595.696	19395.29
595.892	19649.24
596.089	19278.55
596.286	19190.49
596.482	19151.58
596.679	18795.23
596.876	19313.37
597.072	18807.52
597.269	18828
597.466	18707.17
597.662	18793.19
597.859	18864.86
598.055	19020.51
598.252	18494.18
598.448	18492.13
598.645	18660.07
598.841	18191.08
599.038	18320.1
599.234	18541.29
599.431	18068.2
599.627	18107.12
599.824	18213.61
600.02	17990.38
600.217	18012.91
600.413	17971.95
600.609	18023.15
600.806	17941.23
601.002	17816.3
601.198	17963.76
601.395	17738.48
601.591	17351.42
601.787	17361.66
601.984	17242.87
602.18	17603.32
602.376	17429.24
602.572	17277.69
602.769	17433.33
602.965	17267.45
603.161	17236.73
603.357	16970.49
603.553	16997.12
603.75	16917.25
603.946	16767.74
604.142	17122.04
604.338	16646.91
604.534	17033.98
604.73	16681.73
604.926	16818.94
605.122	16691.97
605.318	16569.09
605.514	16331.53
605.71	16499.46
605.906	16716.54
606.102	16569.09
606.298	16489.22
606.494	16605.95
606.69	16397.06
606.886	16390.92
607.082	15999.76
607.278	16171.79
607.474	16036.62
607.67	16104.2
607.866	15956.75
608.062	16143.11
608.257	16055.05
608.453	15899.41
608.649	15971.08
608.845	15620.88
609.041	15579.92
609.236	15905.55
609.432	15606.55
609.628	15676.18
609.824	15422.23
610.019	15561.49
610.215	15432.47
610.411	15473.43
610.606	15397.65
610.802	15528.72
610.998	15166.23
611.193	15508.24
611.389	15354.65
611.584	15110.94
611.78	15162.14
611.976	15153.94
612.171	15160.09
612.367	15078.17
612.562	15080.22
612.758	14717.73
612.953	14789.41
613.149	15190.81
613.344	15018.78
613.539	15194.9
613.735	14861.09
613.93	14719.78
614.126	14660.38
614.321	14914.33
614.517	14775.07
614.712	14727.97
614.907	14521.12
615.103	14598.95
615.298	14287.65
615.493	14658.34
615.688	14177.06
615.884	14727.97
616.079	14406.44
616.274	14447.4
616.47	14297.89
616.665	14361.38
616.86	14213.93
617.055	14306.09
617.25	14246.69
617.445	14215.98
617.641	13816.62
617.836	14187.3
618.031	13968.17
618.226	14119.72
618.421	14021.42
618.616	14379.81
618.811	13716.27
619.006	14097.19
619.201	13667.12
619.396	13884.2
619.591	13773.61
619.786	13746.99
619.981	13464.37
620.176	13630.26
620.371	13394.74
620.566	13372.21
620.761	13382.45
620.956	13546.29
621.151	13177.65
621.346	13062.97
621.541	13026.11
621.735	13202.23
621.93	12872.51
622.125	12833.6
622.32	12962.62
622.515	12979
622.709	12753.73
622.904	12714.81
623.099	12657.47
623.294	12426.05
623.488	12284.74
623.683	12636.99
623.878	12237.64
624.072	12297.03
624.267	12356.42
624.462	12217.16
624.656	12008.26
624.851	11991.88
625.046	12043.08
625.24	11793.23
625.435	11899.72
625.629	11678.54
625.824	11510.61
626.018	11639.63
626.213	11420.5
626.407	11395.92
626.602	11287.38
626.796	11330.39
626.991	11336.53
627.185	11328.34
627.38	10971.99
627.574	11180.89
627.768	10863.45
627.963	10949.46
628.157	10771.29
628.352	10974.04
628.546	10926.94
628.74	10998.62
628.935	10720.09
629.129	10730.33
629.323	10566.49
629.517	10627.93
629.712	10359.65
629.906	10574.69
630.1	10224.48
630.294	10431.33
630.489	10292.07
630.683	10249.06
630.877	9964.39
631.071	10150.76
631.265	9980.78
631.459	10029.93
631.653	9773.93
631.848	10087.27
632.042	9792.36
632.236	9784.17
632.43	9675.63
632.624	9810.79
632.818	9900.9
633.012	9497.46
633.206	9530.22
633.4	9597.81
633.594	9319.28
633.788	9470.83
633.982	9474.93
634.176	9251.7
634.369	8987.51
634.563	9094.01
634.757	9157.49
634.951	9151.35
635.145	8928.12
635.339	8997.75
635.533	9137.01
635.726	8983.41
635.92	8768.38
636.114	8842.11
636.308	8995.7
636.501	8491.9
636.695	8768.38
636.889	8465.28
637.083	8545.15
637.276	8723.32
637.47	8391.55
637.664	8508.29
637.857	8358.78
638.051	8323.97
638.244	8190.85
638.438	8158.08
638.632	8336.26
638.825	8219.52
639.019	8092.55
639.212	8070.02
639.406	7961.48
639.599	7953.29
639.793	7803.78
639.986	7936.9
640.18	7897.99
640.373	7889.8
640.567	7650.19
640.76	7619.47
640.954	7693.19
641.147	7609.23
641.34	7601.04
641.534	7512.97
641.727	7549.84
641.92	7601.04
642.114	7375.76
642.307	7408.53
642.5	7275.41
642.694	7228.31
642.887	7252.88
643.08	7338.9
643.273	7256.98
643.467	6974.36
643.66	6976.41
643.853	7046.04
644.046	6923.16
644.239	6984.6
644.432	7084.95
644.626	7109.52
644.819	6894.49
645.012	6927.25
645.205	6757.27
645.398	6747.03
645.591	6701.98
645.784	6661.02
645.977	6546.33
646.17	6652.83
646.363	6476.7
646.556	6431.65
646.749	6568.86
646.942	6529.95
647.135	6517.66
647.328	6521.76
647.521	6239.14
647.714	6153.12
647.907	6314.91
648.099	6101.92
648.292	6280.1
648.485	6245.28
648.678	6243.23
648.871	6194.08
649.064	6110.11
649.256	6099.87
649.449	6050.72
649.642	5938.09
649.835	5815.21
650.027	5884.84
650.22	5878.69
650.413	5977
650.605	5802.92
650.798	5657.51
650.991	5725.1
651.183	5637.03
651.376	5585.83
651.568	5624.75
651.761	5702.57
651.954	5692.33
652.146	5673.9
652.339	5575.59
652.531	5467.05
652.724	5548.97
652.916	5247.92
653.109	5407.66
653.301	5295.02
653.494	5434.29
653.686	5297.07
653.879	5460.91
654.071	5235.63
654.263	5135.28
654.456	5227.44
654.648	5145.52
654.84	5135.28
655.033	5110.71
655.225	5155.76
655.417	5120.95
655.61	5098.42
655.802	5108.66
655.994	4965.3
656.186	5059.51
656.379	4985.78
656.571	4754.36
656.763	4926.39
656.955	4889.53
657.148	4858.81
657.34	5008.31
657.532	4690.87
657.724	4727.74
657.916	4654.01
658.108	4883.38
658.3	4723.64
658.492	4694.97
658.684	4561.85
658.876	4715.45
659.068	4496.32
659.26	4506.56
659.452	4692.92
659.644	4494.27
659.836	4557.75
660.028	4498.36
660.22	4334.53
660.412	4447.16
660.604	4510.65
660.796	4355.01
660.988	4408.25
661.18	4293.57
661.372	4320.19
661.563	4400.06
661.755	4236.22
661.947	4162.5
662.139	4211.65
662.331	4203.46
662.522	4160.45
662.714	4264.89
662.906	4084.67
663.097	4199.36
663.289	4148.16
663.481	3949.51
663.673	3986.37
663.864	3974.08
664.056	3959.75
664.247	3904.45
664.439	3924.93
664.631	4017.09
664.822	4047.81
665.014	3982.28
665.205	3879.88
665.397	3732.42
665.588	3843.01
665.78	3961.8
665.971	3689.42
666.163	3646.41
666.354	3806.15
666.546	3713.99
666.737	3670.98
666.929	3650.5
667.12	3695.56
667.311	3683.27
667.503	3470.28
667.694	3687.37
667.885	3611.59
668.077	3640.26
668.268	3492.81
668.459	3490.76
668.651	3478.47
668.842	3468.24
669.033	3498.95
669.224	3400.65
669.416	3398.6
669.607	3550.15
669.798	3347.4
669.989	3371.98
670.18	3240.91
670.371	3281.87
670.563	3310.54
670.754	3335.12
670.945	3302.35
671.136	3197.9
671.327	3179.47
671.518	3238.86
671.709	3285.97
671.9	3199.95
672.091	3204.05
672.282	3158.99
672.473	3189.71
672.664	3322.83
672.855	3191.76
673.046	3255.25
673.237	3259.34
673.428	3140.56
673.619	3118.03
673.809	3109.84
674	3204.05
674.191	3113.94
674.382	3038.16
674.573	3034.07
674.764	3040.21
674.954	3015.63
675.145	2921.43
675.336	2970.58
675.527	3054.55
675.717	3122.13
675.908	3095.5
676.099	2921.43
676.289	3079.12
676.48	2933.72
676.671	2796.5
676.861	2905.04
677.052	2896.85
677.243	2753.49
677.433	2733.01
677.624	2724.82
677.814	2909.14
678.005	2849.75
678.195	2825.17
678.386	2722.77
678.576	2786.26
678.767	2683.86
678.957	2612.18
679.148	2837.46
679.338	2679.77
679.529	2814.93
679.719	2690.01
679.909	2839.51
680.1	2681.82
680.29	2730.97
680.481	2722.77
680.671	2651.1
680.861	2626.52
681.052	2690.01
681.242	2669.53
681.432	2622.42
681.622	2636.76
681.813	2593.75
682.003	2554.84
682.193	2565.08
682.383	2560.98
682.573	2753.49
682.764	2544.6
682.954	2696.15
683.144	2509.79
683.334	2431.96
683.524	2470.87
683.714	2655.19
683.904	2515.93
684.094	2522.07
684.284	2567.13
684.474	2616.28
684.664	2454.49
684.854	2405.34
685.044	2608.09
685.234	2485.21
685.424	2442.2
685.614	2493.4
685.804	2407.39
685.994	2583.51
686.184	2425.82
686.374	2466.78
686.564	2436.06
686.753	2356.19
686.943	2358.24
687.133	2395.1
687.323	2417.63
687.513	2458.59
687.702	2413.53
687.892	2218.97
688.082	2360.28
688.272	2368.48
688.461	2378.72
688.651	2366.43
688.841	2276.32
689.03	2274.27
689.22	2171.87
689.41	2278.37
689.599	2337.76
689.789	2294.75
689.979	2251.74
690.168	2337.76
690.358	2239.45
690.547	2261.98
690.737	2284.51
690.926	2233.31
691.116	2153.44
691.305	2141.15
691.495	2151.39
691.684	2182.11
691.874	2210.78
692.063	2100.19
692.252	2155.49
692.442	2227.17
692.631	2151.39
692.82	2108.38
693.01	2180.06
693.199	2077.66
693.388	2124.77
693.578	2186.21
693.767	2231.26
693.956	2114.53
694.146	2089.95
694.335	2137.06
694.524	2227.17
694.713	2122.72
694.902	2051.04
695.092	2106.34
695.281	2102.24
695.47	1995.75
695.659	2022.37
695.848	2178.01
696.037	2077.66
696.226	2171.87
696.415	2057.18
696.604	2132.96
696.793	2051.04
696.982	2038.75
697.171	2034.66
697.36	2081.76
697.549	2014.18
697.738	1932.26
697.927	2071.52
698.116	2030.56
698.305	2100.19
698.494	2044.9
698.683	2053.09
698.872	2085.86
699.061	1979.36
699.25	2048.99
699.438	1995.75
699.627	2075.62
699.816	1973.22
700.005	2030.56
700.193	1973.22
700.382	2028.51
700.571	1985.51
700.76	2096.1
700.948	2171.87
701.137	2073.57
701.326	2016.23
701.514	2118.62
701.703	1991.65
701.892	2130.91
702.08	2098.14
702.269	1989.6
702.457	2065.38
702.646	2048.99
702.834	2096.1
703.023	2171.87
703.212	2028.51
703.4	2063.33
703.589	2055.14
703.777	2083.81
703.965	2061.28
704.154	2044.9
704.342	1999.84
704.531	2003.94
704.719	2077.66
704.907	2055.14
705.096	2120.67
705.284	2046.94
705.472	2075.62
705.661	2003.94
705.849	2128.86
706.037	2059.23
706.226	2051.04
706.414	2038.75
706.602	2016.23
706.79	1975.27
706.979	2094.05
707.167	2061.28
707.355	2159.58
707.543	2081.76
707.731	2051.04
707.919	2065.38
708.107	2044.9
708.296	1999.84
708.484	2024.42
708.672	1938.4
708.86	2020.32
709.048	2147.3
709.236	1965.03
709.424	2030.56
709.612	2161.63
709.8	2092
709.988	2063.33
710.176	2032.61
710.364	1967.07
710.551	2016.23
710.739	1942.5
710.927	2075.62
711.115	1975.27
711.303	2087.9
711.491	1913.83
711.679	1936.35
711.866	2012.13
712.054	2128.86
712.242	2108.38
712.43	1954.79
712.617	2038.75
712.805	2020.32
712.993	1960.93
713.181	2034.66
713.368	1977.31
713.556	2092
713.744	1952.74
713.931	2094.05
714.119	1989.6
714.306	2036.7
714.494	2030.56
714.682	2005.99
714.869	2096.1
715.057	2057.18
715.244	2059.23
715.432	2040.8
715.619	1924.07
715.807	1975.27
715.994	1860.58
716.182	2032.61
716.369	2132.96
716.556	1930.21
716.744	1909.73
716.931	1934.31
717.119	2089.95
717.306	1905.63
717.493	2059.23
717.681	2022.37
717.868	1989.6
718.055	2069.47
718.242	1936.35
718.43	1975.27
718.617	1967.07
718.804	1917.92
718.991	1936.35
719.179	2032.61
719.366	1965.03
719.553	1911.78
719.74	1936.35
719.927	2036.7
720.114	1932.26
720.301	1922.02
720.488	1915.87
720.676	1942.5
720.863	1958.88
721.05	2069.47
721.237	1987.55
721.424	1948.64
721.611	1985.51
721.798	1928.16
721.985	1975.27
722.172	1987.55
722.358	1934.31
722.545	1936.35
722.732	1962.98
722.919	1985.51
723.106	1858.53
723.293	1907.68
723.48	1940.45
723.667	1885.16
723.853	1944.55
724.04	1960.93
724.227	2038.75
724.414	2005.99
724.6	1922.02
724.787	1960.93
724.974	1948.64
725.161	1934.31
725.347	1930.21
725.534	1844.2
725.72	1848.29
725.907	1803.24
726.094	1999.84
726.28	1924.07
726.467	1899.49
726.653	2008.03
726.84	1876.96
727.027	1932.26
727.213	1903.59
727.4	1829.86
727.586	1817.57
727.773	1864.68
727.959	1891.3
728.145	1962.98
728.332	1868.77
728.518	1772.52
728.705	1889.25
728.891	1948.64
729.077	1821.67
729.264	1893.35
729.45	1788.9
729.636	1831.91
729.823	1801.19
730.009	1991.65
730.195	1926.11
730.382	1850.34
730.568	1850.34
730.754	1852.39
730.94	1897.44
731.126	1799.14
731.313	1862.63
731.499	1866.72
731.685	1829.86
731.871	1803.24
732.057	1928.16
732.243	1813.48
732.429	1797.09
732.615	1848.29
732.801	1844.2
732.987	1795.04
733.173	1958.88
733.359	1819.62
733.545	1774.56
733.731	1829.86
733.917	1889.25
734.103	1876.96
734.289	1844.2
734.475	1702.89
734.661	1907.68
734.847	1766.37
735.033	1817.57
735.219	1758.18
735.404	1872.87
735.59	1833.96
735.776	1807.33
735.962	1706.98
736.148	1797.09
736.333	1831.91
736.519	1709.03
736.705	1852.39
736.89	1737.7
737.076	1975.27
737.262	1745.89
737.447	1706.98
737.633	1723.37
737.819	1788.9
738.004	1721.32
738.19	1764.33
738.375	1741.8
738.561	1627.11
738.747	1762.28
738.932	1749.99
739.118	1772.52
739.303	1743.85
739.489	1737.7
739.674	1639.4
739.859	1817.57
740.045	1666.02
740.23	1741.8
740.416	1594.34
740.601	1555.43
740.786	1676.26
740.972	1704.93
741.157	1627.11
741.342	1719.27
741.528	1649.64
741.713	1643.49
741.898	1588.2
742.084	1596.39
742.269	1565.67
742.454	1559.53
742.639	1614.82
742.824	1637.35
743.01	1631.21
743.195	1610.73
743.38	1553.38
743.565	1496.04
743.75	1557.48
743.935	1557.48
744.12	1498.09
744.305	1508.33
744.49	1520.62
744.675	1532.9
744.86	1500.14
745.045	1524.71
745.23	1571.82
745.415	1473.51
745.6	1537
745.785	1364.97
745.97	1545.19
746.155	1510.38
746.34	1438.7
746.525	1491.95
746.71	1496.04
746.895	1489.9
747.079	1401.83
747.264	1389.55
747.449	1477.61
747.634	1496.04
747.819	1405.93
748.003	1338.35
748.188	1358.83
748.373	1358.83
748.557	1264.62
748.742	1307.63
748.927	1373.16
749.111	1258.48
749.296	1307.63
749.481	1278.96
749.665	1221.61
749.85	1293.29
750.034	1287.15
750.219	1283.05
750.404	1233.9
750.588	1268.72
750.773	1256.43
750.957	1186.8
751.141	1266.67
751.326	1238
751.51	1192.94
751.695	1151.98
751.879	1233.9
752.064	1213.42
752.248	1281
752.432	1268.72
752.617	1301.48
752.801	1301.48
752.985	1213.42
753.17	1160.17
753.354	1061.87
753.538	1119.21
753.722	1194.99
753.907	1086.45
754.091	1137.65
754.275	1160.17
754.459	1121.26
754.643	1180.65
754.828	1180.65
755.012	1061.87
755.196	1055.73
755.38	1025.01
755.564	1125.36
755.748	1041.39
755.932	1018.86
756.116	1053.68
756.3	1006.58
756.484	1033.2
756.668	1053.68
756.852	1000.43
757.036	996.34
757.22	1014.77
757.404	975.86
757.588	943.09
757.772	1016.82
757.956	963.57
758.14	961.52
758.323	992.24
758.507	918.51
758.691	941.04
758.875	955.38
759.059	1012.72
759.242	902.13
759.426	973.81
759.61	926.71
759.794	984.05
759.977	902.13
760.161	900.08
760.345	910.32
760.528	938.99
760.712	906.23
760.895	891.89
761.079	1010.67
761.263	852.98
761.446	834.55
761.63	879.6
761.813	873.46
761.997	906.23
762.18	824.31
762.364	904.18
762.547	838.64
762.731	824.31
762.914	855.03
763.098	818.16
763.281	752.63
763.464	832.5
763.648	842.74
763.831	764.92
764.015	855.03
764.198	738.29
764.381	824.31
764.564	869.36
764.748	760.82
764.931	781.3
765.114	814.07
765.297	807.92
765.481	801.78
765.664	781.3
765.847	863.22
766.03	779.25
766.213	783.35
766.397	807.92
766.58	687.09
766.763	789.49
766.946	824.31
767.129	689.14
767.312	801.78
767.495	693.24
767.678	842.74
767.861	756.72
768.044	715.77
768.227	701.43
768.41	699.38
768.593	760.82
768.776	709.62
768.959	760.82
769.142	652.28
769.324	766.96
769.507	717.81
769.69	766.96
769.873	699.38
770.056	734.2
770.239	732.15
770.421	736.24
770.604	764.92
770.787	676.85
770.97	668.66
771.152	734.2
771.335	775.16
771.518	637.94
771.7	691.19
771.883	703.48
772.066	705.53
772.248	631.8
772.431	689.14
772.613	670.71
772.796	697.33
772.978	670.71
773.161	662.52
773.343	648.18
773.526	662.52
773.708	586.74
773.891	586.74
774.073	695.29
774.256	605.17
774.438	707.57
774.621	652.28
774.803	594.93
774.985	586.74
775.168	639.99
775.35	609.27
775.532	658.42
775.715	607.22
775.897	609.27
776.079	617.46
776.261	545.78
776.444	529.4
776.626	578.55
776.808	611.32
776.99	584.7
777.173	633.85
777.355	578.55
777.537	570.36
777.719	541.69
777.901	537.59
778.083	601.08
778.265	510.97
778.447	613.37
778.629	564.22
778.811	592.89
778.993	572.41
779.175	570.36
779.357	572.41
779.539	527.35
779.721	508.92
779.903	476.15
780.085	617.46
780.267	549.88
780.449	463.86
780.631	517.11
780.812	488.44
780.994	523.26
781.176	480.25
781.358	443.39
781.54	461.82
781.721	537.59
781.903	451.58
782.085	455.67
782.267	553.98
782.448	396.28
782.63	408.57
782.812	453.63
782.993	457.72
783.175	498.68
783.357	328.7
783.538	367.61
783.72	457.72
783.901	427
784.083	418.81
784.264	377.85
784.446	478.2
784.627	418.81
784.809	400.38
784.99	449.53
785.172	357.37
785.353	443.39
785.535	422.91
785.716	357.37
785.897	435.19
786.079	371.71
786.26	353.27
786.441	410.62
786.623	355.32
786.804	410.62
786.985	377.85
787.167	330.75
787.348	267.26
787.529	287.74
787.71	369.66
787.891	416.76
788.073	318.46
788.254	349.18
788.435	304.12
788.616	424.95
788.797	316.41
788.978	373.75
789.159	265.21
789.34	287.74
789.522	246.78
789.703	302.08
789.884	330.75
790.065	310.27
790.246	349.18
790.427	340.99
790.607	240.64
790.788	287.74
790.969	277.5
791.15	361.47
791.331	261.12
791.512	293.88
791.693	349.18
791.874	308.22
792.054	265.21
792.235	302.08
792.416	250.88
792.597	259.07
792.778	320.51
792.958	289.79
793.139	259.07
793.32	312.32
793.5	252.92
793.681	349.18
793.862	340.99
794.042	336.89
794.223	185.34
794.404	240.64
794.584	269.31
794.765	318.46
794.945	236.54
795.126	287.74
795.306	242.68
795.487	257.02
795.667	277.5
795.848	250.88
796.028	224.25
796.209	263.16
796.389	269.31
796.57	281.6
796.75	238.59
796.93	285.69
797.111	203.77
797.291	263.16
797.471	250.88
797.652	291.84
797.832	312.32
798.012	209.92
798.192	152.57
798.373	193.53
798.553	246.78
798.733	220.16
798.913	179.2
799.093	205.82
799.274	191.49
799.454	218.11
799.634	160.77
799.814	283.64
799.994	201.72
800.174	168.96
800.354	175.1
800.534	205.82
800.714	228.35
800.894	166.91
801.074	185.34
801.254	171.01
801.434	234.49
801.614	189.44
801.794	230.4
801.974	617.46
802.154	183.29
802.334	185.34
802.514	158.72
802.693	179.2
802.873	209.92
803.053	185.34
803.233	146.43
803.413	259.07
803.592	177.15
803.772	201.72
803.952	211.96
804.131	195.58
804.311	193.53
804.491	158.72
804.67	228.35
804.85	191.49
805.03	234.49
805.209	308.22
805.389	171.01
805.568	168.96
805.748	216.06
805.928	109.57
806.107	185.34
806.287	185.34
806.466	140.29
806.646	250.88
806.825	148.48
807.004	105.47
807.184	168.96
807.363	140.29
807.543	87.04
807.722	152.57
807.901	158.72
808.081	209.92
808.26	82.94
808.439	123.9
808.619	185.34
808.798	171.01
808.977	123.9
809.156	109.57
809.336	107.52
809.515	166.91
809.694	177.15
809.873	150.53
810.052	197.63
810.231	211.96
810.411	95.23
810.59	148.48
810.769	125.95
810.948	134.14
811.127	27.65
811.306	128
811.485	113.66
811.664	107.52
811.843	154.62
812.022	46.08
812.201	132.09
812.38	128
812.559	119.81
812.737	177.15
812.916	70.65
813.095	91.13
813.274	62.46
813.453	144.38
813.632	84.99
813.811	218.11
813.989	128
814.168	62.46
814.347	109.57
814.526	95.23
814.704	128
814.883	111.61
815.062	9.22
815.24	87.04
815.419	160.77
815.598	109.57
815.776	37.89
815.955	119.81
816.133	91.13
816.312	35.84
816.49	60.42
816.669	156.67
816.847	117.76
817.026	121.85
817.204	87.04
817.383	74.75
817.561	140.29
817.74	128
817.918	140.29
818.097	68.61
818.275	72.7
818.453	33.79
818.632	103.42
818.81	132.09
818.988	105.47
819.167	164.86
819.345	113.66
819.523	95.23
819.701	128
819.879	95.23
820.058	123.9
820.236	125.95
820.414	156.67
820.592	123.9
820.77	68.61
820.948	48.13
821.127	74.75
821.305	117.76
821.483	5.12
821.661	19.46
821.839	111.61
822.017	48.13
822.195	111.61
822.373	33.79
822.551	123.9
822.729	97.28
822.907	80.89
823.085	48.13
823.262	50.18
823.44	99.33
823.618	166.91
823.796	101.37
823.974	87.04
824.152	35.84
824.329	103.42
824.507	56.32
824.685	156.67
824.863	60.42
825.04	101.37
825.218	66.56
825.396	27.65
825.574	123.9
825.751	48.13
825.929	91.13
826.107	37.89
826.284	97.28
826.462	31.74
826.639	134.14
826.817	33.79
826.994	80.89
827.172	33.79
827.349	203.77
827.527	113.66
827.704	115.71
827.882	9.22
828.059	15.36
828.237	91.13
828.414	58.37
828.591	52.22
828.769	52.22
828.946	15.36
829.124	105.47
829.301	19.46
829.478	70.65
829.655	50.18
829.833	29.7
830.01	-52.22
830.187	87.04
830.364	3.07
830.542	15.36
830.719	164.86
830.896	37.89
831.073	95.23
831.25	115.71
831.427	80.89
831.604	68.61
831.782	23.55
831.959	39.94
832.136	68.61
832.313	44.03
832.49	72.7
832.667	70.65
832.844	54.27
833.021	39.94
833.198	3.07
833.374	125.95
833.551	31.74
833.728	68.61
833.905	46.08
834.082	31.74
834.259	41.98
834.436	97.28
834.612	-27.65
834.789	91.13
834.966	80.89
835.143	97.28
835.319	-7.17
835.496	60.42
835.673	70.65
835.85	54.27
836.026	9.22
836.203	82.94
836.38	46.08
836.556	33.79
836.733	125.95
836.909	82.94
837.086	76.8
837.262	58.37
837.439	-33.79
837.616	29.7
837.792	48.13
837.968	130.05
838.145	29.7
838.321	11.26
838.498	41.98
838.674	27.65
838.851	52.22
839.027	48.13
839.203	44.03
839.38	3.07
839.556	74.75
839.732	54.27
839.909	50.18
840.085	-19.46
840.261	3.07
840.437	62.46
840.614	-23.55
840.79	54.27
840.966	72.7
841.142	-7.17
841.318	-5.12
841.494	41.98
841.671	3.07
841.847	72.7
842.023	-31.74
842.199	7.17
842.375	-21.5
842.551	44.03
842.727	17.41
842.903	35.84
843.079	19.46
843.255	41.98
843.431	5.12
843.607	-27.65
843.783	58.37
843.959	25.6
844.134	25.6
844.31	29.7
844.486	-29.7
844.662	11.26
844.838	50.18
845.013	17.41
845.189	41.98
845.365	99.33
845.541	-13.31
845.716	-1.02
845.892	66.56
846.068	-7.17
846.244	-82.94
846.419	99.33
846.595	37.89
846.77	52.22
846.946	5.12
847.122	29.7
847.297	23.55
847.473	128
847.648	-41.98
847.824	103.42
847.999	-3.07
848.175	50.18
848.35	27.65
848.526	113.66
848.701	84.99
848.876	60.42
849.052	111.61
849.227	29.7
849.403	56.32
849.578	44.03
849.753	1.02
849.929	82.94
850.104	11.26
850.279	37.89
850.454	33.79
850.63	5.12
850.805	37.89
850.98	23.55
851.155	13.31
851.33	-3.07
851.505	44.03
851.681	54.27
851.856	64.51
852.031	35.84
852.206	21.5
852.381	23.55
852.556	-13.31
852.731	21.5
852.906	-46.08
853.081	23.55
853.256	37.89
853.431	54.27
853.606	1.02
853.781	15.36
853.956	1.02
854.131	-39.94
854.305	-33.79
854.48	17.41
854.655	-29.7
854.83	-9.22
855.005	-21.5
855.18	21.5
855.354	44.03
855.529	-15.36
855.704	-29.7
855.879	13.31
856.053	-21.5
856.228	64.51
856.403	-3.07
856.577	21.5
856.752	-29.7
856.926	-9.22
857.101	58.37
857.276	-58.37
857.45	-9.22
857.625	29.7
857.799	-37.89
857.974	-15.36
858.148	-3.07
858.323	-58.37
858.497	-31.74
858.672	-15.36
858.846	11.26
859.02	13.31
859.195	-23.55
859.369	62.46
859.543	7.17
859.718	-37.89
859.892	56.32
860.066	-19.46
860.241	-41.98
860.415	33.79
860.589	-5.12
860.763	-56.32
860.938	-3.07
861.112	82.94
861.286	-9.22
861.46	113.66
861.634	70.65
861.808	31.74
861.982	-39.94
862.157	80.89
862.331	19.46
862.505	52.22
862.679	-11.26
862.853	-23.55
863.027	46.08
863.201	9.22
863.375	5.12
863.549	-7.17
863.722	35.84
863.896	54.27
864.07	15.36
864.244	9.22
864.418	-3.07
864.592	33.79
864.766	29.7
864.939	23.55
865.113	-23.55
865.287	33.79
865.461	13.31
865.634	136.19
865.808	-33.79
865.982	-7.17
866.156	-13.31
866.329	-52.22
866.503	76.8
866.676	70.65
866.85	3.07
867.024	31.74
867.197	-23.55
867.371	-52.22
867.544	-35.84
867.718	7.17
867.891	35.84
868.065	23.55
868.238	-52.22
868.412	23.55
868.585	58.37
868.759	27.65
868.932	-7.17
869.105	13.31
869.279	-7.17
869.452	74.75
869.625	-44.03
869.799	-62.46
869.972	17.41
870.145	-15.36
870.319	-11.26
870.492	-21.5
870.665	13.31
870.838	15.36
871.011	-31.74
871.185	-52.22
871.358	29.7
871.531	-44.03
871.704	-7.17
871.877	-37.89
872.05	-3.07
872.223	-33.79
872.396	-56.32
872.569	-9.22
872.742	-19.46
872.915	76.8
873.088	-33.79
873.261	13.31
873.434	21.5
873.607	7.17
873.78	-13.31
873.953	46.08
874.126	35.84
874.299	-15.36
874.471	-27.65
874.644	74.75
874.817	3.07
874.99	-11.26
875.163	27.65
875.335	70.65
875.508	-1.02
875.681	72.7
875.853	-37.89
876.026	48.13
876.199	41.98
876.371	11.26
876.544	-19.46
876.717	-1.02
876.889	-7.17
877.062	27.65
877.234	-25.6
877.407	50.18
877.579	60.42
877.752	39.94
877.924	17.41
878.097	11.26
878.269	1.02
878.442	29.7
878.614	-1.02
878.786	-1.02
878.959	-1.02
879.131	-5.12
879.303	-31.74
879.476	-46.08
879.648	23.55
879.82	17.41
879.993	7.17
880.165	-80.89
880.337	-21.5
880.509	60.42
880.681	-37.89
880.854	-15.36
881.026	-5.12
881.198	37.89
881.37	-3.07
881.542	54.27
881.714	-52.22
881.886	-31.74
882.058	56.32
882.23	-50.18
882.402	9.22
882.574	76.8
882.746	62.46
882.918	41.98
883.09	17.41
883.262	-48.13
883.434	3.07
883.606	9.22
883.778	44.03
883.95	35.84
884.122	-27.65
884.293	-13.31
884.465	15.36
884.637	50.18
884.809	-3.07
884.98	9.22
885.152	-9.22
885.324	1.02
885.496	1.02
885.667	-9.22
885.839	-44.03
886.011	27.65
886.182	-35.84
886.354	-41.98
886.525	-21.5
886.697	-31.74
886.869	13.31
887.04	19.46
887.212	60.42
887.383	66.56
887.555	15.36
887.726	41.98
887.897	31.74
888.069	13.31
888.24	-21.5
888.412	-11.26
888.583	11.26
888.754	-27.65
888.926	46.08
889.097	-23.55
889.268	23.55
889.44	41.98
889.611	17.41
889.782	-41.98
889.953	17.41
890.125	25.6
890.296	-91.13
890.467	39.94
890.638	11.26
890.809	1.02
890.98	-19.46
891.151	19.46
891.323	9.22
891.494	-25.6
891.665	-25.6
891.836	-5.12
892.007	-35.84
892.178	23.55
892.349	52.22
892.52	58.37
892.691	5.12
892.862	-60.42
893.032	-60.42
893.203	46.08
893.374	-11.26
893.545	3.07
893.716	-64.51
893.887	-39.94
894.057	-62.46
894.228	1.02
894.399	33.79
894.57	-23.55
894.74	-29.7
894.911	29.7
895.082	3.07
895.253	37.89
895.423	15.36
895.594	21.5
895.764	-3.07
895.935	15.36
896.106	5.12
896.276	-19.46
896.447	52.22
896.617	50.18
896.788	5.12
896.958	-46.08
897.129	-19.46
897.299	-58.37
897.47	-52.22
897.64	50.18
897.81	1.02
897.981	39.94
898.151	21.5
898.322	-13.31
898.492	82.94
898.662	-23.55
898.832	-27.65
899.003	78.85
899.173	-21.5
899.343	-105.47
899.513	-9.22
