Data from USB4F104151__78__11-06-24-964.txt Node

Date: Wed Mar 12 11:06:24 EDT 2025
User: louis
Spectrometer: USB4F10415
Trigger mode: 4
Integration Time (sec): 2.000000E-2
Scans to average: 1
Electric dark correction enabled: true
Nonlinearity correction enabled: false
Boxcar width: 0
XAxis mode: Wavelengths
Number of Pixels in Spectrum: 3648
>>>>>Begin Spectral Data<<<<<
178.204	-23.89
178.424	-23.89
178.644	-23.89
178.864	-50.52
179.084	-3.41
179.304	12.97
179.524	-52.56
179.744	31.4
179.964	39.59
180.184	41.64
180.404	-30.04
180.624	-21.85
180.844	-1.37
181.064	-79.19
181.283	27.31
181.503	-9.56
181.723	41.64
181.943	-85.33
182.163	172.71
182.383	12.97
182.602	113.32
182.822	70.31
183.042	-1.37
183.262	23.21
183.482	62.12
183.701	10.92
183.921	47.79
184.141	8.87
184.361	27.31
184.58	12.97
184.8	25.26
185.02	62.12
185.239	35.5
185.459	-40.28
185.679	58.03
185.898	4.78
186.118	-1.37
186.338	-3.41
186.557	76.46
186.777	27.31
186.997	15.02
187.216	-32.08
187.436	58.03
187.655	60.07
187.875	109.22
188.095	-30.04
188.314	31.4
188.534	35.5
188.753	58.03
188.973	25.26
189.192	15.02
189.412	47.79
189.631	58.03
189.851	58.03
190.07	62.12
190.29	68.27
190.509	15.02
190.729	27.31
190.948	-3.41
191.168	131.75
191.387	53.93
191.607	15.02
191.826	-7.51
192.045	-66.9
192.265	31.4
192.484	68.27
192.704	41.64
192.923	-54.61
193.142	92.84
193.362	80.55
193.581	33.45
193.8	70.31
194.02	33.45
194.239	72.36
194.458	21.16
194.678	29.35
194.897	74.41
195.116	31.4
195.335	2.73
195.555	37.55
195.774	29.35
195.993	-7.51
196.212	-13.65
196.432	58.03
196.651	51.88
196.87	45.74
197.089	74.41
197.308	15.02
197.528	35.5
197.747	-81.24
197.966	0.68
198.185	17.07
198.404	25.26
198.623	103.08
198.842	49.83
199.062	41.64
199.281	47.79
199.5	-5.46
199.719	58.03
199.938	121.51
200.157	84.65
200.376	66.22
200.595	78.51
200.814	129.7
201.033	-32.08
201.252	37.55
201.471	51.88
201.69	8.87
201.909	12.97
202.128	12.97
202.347	6.83
202.566	80.55
202.785	68.27
203.004	-9.56
203.223	31.4
203.442	10.92
203.661	66.22
203.879	98.99
204.098	86.7
204.317	45.74
204.536	70.31
204.755	117.42
204.974	29.35
205.193	103.08
205.411	88.75
205.63	-3.41
205.849	64.17
206.068	76.46
206.287	-7.51
206.505	35.5
206.724	74.41
206.943	-15.7
207.162	-40.28
207.381	47.79
207.599	113.32
207.818	23.21
208.037	25.26
208.255	39.59
208.474	29.35
208.693	31.4
208.911	23.21
209.13	-40.28
209.349	72.36
209.567	12.97
209.786	88.75
210.005	-5.46
210.223	49.83
210.442	-1.37
210.661	55.98
210.879	62.12
211.098	23.21
211.316	80.55
211.535	53.93
211.753	10.92
211.972	19.11
212.191	51.88
212.409	-5.46
212.628	2.73
212.846	23.21
213.065	31.4
213.283	6.83
213.502	-11.61
213.72	62.12
213.938	21.16
214.157	43.69
214.375	19.11
214.594	10.92
214.812	27.31
215.031	70.31
215.249	23.21
215.467	31.4
215.686	60.07
215.904	-11.61
216.122	49.83
216.341	64.17
216.559	64.17
216.778	35.5
216.996	62.12
217.214	-13.65
217.432	-3.41
217.651	70.31
217.869	23.21
218.087	33.45
218.306	29.35
218.524	64.17
218.742	41.64
218.96	62.12
219.179	-25.94
219.397	117.42
219.615	60.07
219.833	125.61
220.051	-13.65
220.27	12.97
220.488	19.11
220.706	68.27
220.924	-3.41
221.142	4.78
221.36	-9.56
221.578	21.16
221.796	17.07
222.015	49.83
222.233	47.79
222.451	103.08
222.669	4.78
222.887	72.36
223.105	4.78
223.323	-21.85
223.541	39.59
223.759	82.6
223.977	-23.89
224.195	47.79
224.413	76.46
224.631	-32.08
224.849	29.35
225.067	94.89
225.285	76.46
225.503	-13.65
225.721	-75.09
225.939	-5.46
226.157	64.17
226.375	115.37
226.592	-9.56
226.81	12.97
227.028	-15.7
227.246	78.51
227.464	53.93
227.682	58.03
227.9	-9.56
228.117	6.83
228.335	21.16
228.553	25.26
228.771	62.12
228.989	47.79
229.206	60.07
229.424	39.59
229.642	-36.18
229.86	43.69
230.077	88.75
230.295	-25.94
230.513	66.22
230.731	-1.37
230.948	23.21
231.166	74.41
231.384	-30.04
231.601	35.5
231.819	35.5
232.037	-21.85
232.254	31.4
232.472	29.35
232.689	39.59
232.907	-1.37
233.125	10.92
233.342	82.6
233.56	53.93
233.777	23.21
233.995	64.17
234.213	88.75
234.43	27.31
234.648	55.98
234.865	21.16
235.083	-9.56
235.3	19.11
235.518	51.88
235.735	88.75
235.953	47.79
236.17	29.35
236.388	-11.61
236.605	47.79
236.822	72.36
237.04	12.97
237.257	41.64
237.475	47.79
237.692	31.4
237.909	76.46
238.127	25.26
238.344	35.5
238.562	-32.08
238.779	-56.66
238.996	-13.65
239.214	-27.99
239.431	29.35
239.648	39.59
239.865	107.18
240.083	78.51
240.3	10.92
240.517	-5.46
240.735	92.84
240.952	-44.37
241.169	4.78
241.386	-21.85
241.603	88.75
241.821	35.5
242.038	105.13
242.255	64.17
242.472	17.07
242.689	101.03
242.907	53.93
243.124	41.64
243.341	68.27
243.558	15.02
243.775	2.73
243.992	74.41
244.209	82.6
244.426	12.97
244.643	96.94
244.86	-9.56
245.078	21.16
245.295	-1.37
245.512	60.07
245.729	-9.56
245.946	-46.42
246.163	-56.66
246.38	76.46
246.597	55.98
246.814	47.79
247.031	70.31
247.248	144.04
247.464	78.51
247.681	82.6
247.898	68.27
248.115	66.22
248.332	-30.04
248.549	19.11
248.766	41.64
248.983	55.98
249.2	58.03
249.417	31.4
249.633	53.93
249.85	58.03
250.067	33.45
250.284	23.21
250.501	15.02
250.717	-19.8
250.934	39.59
251.151	49.83
251.368	17.07
251.585	55.98
251.801	76.46
252.018	-1.37
252.235	-1.37
252.451	15.02
252.668	-40.28
252.885	94.89
253.102	35.5
253.318	117.42
253.535	6.83
253.752	10.92
253.968	23.21
254.185	84.65
254.401	-5.46
254.618	84.65
254.835	88.75
255.051	58.03
255.268	-15.7
255.484	39.59
255.701	-13.65
255.917	51.88
256.134	60.07
256.351	-5.46
256.567	-19.8
256.784	125.61
257	35.5
257.217	35.5
257.433	51.88
257.65	105.13
257.866	53.93
258.082	2.73
258.299	19.11
258.515	55.98
258.732	-3.41
258.948	43.69
259.165	64.17
259.381	-7.51
259.597	39.59
259.814	35.5
260.03	-21.85
260.246	72.36
260.463	66.22
260.679	2.73
260.895	21.16
261.112	88.75
261.328	37.55
261.544	-7.51
261.761	68.27
261.977	29.35
262.193	8.87
262.409	70.31
262.626	37.55
262.842	8.87
263.058	10.92
263.274	62.12
263.49	33.45
263.707	49.83
263.923	39.59
264.139	80.55
264.355	47.79
264.571	17.07
264.787	-34.13
265.004	53.93
265.22	23.21
265.436	45.74
265.652	-75.09
265.868	35.5
266.084	-13.65
266.3	41.64
266.516	2.73
266.732	39.59
266.948	27.31
267.164	-3.41
267.38	31.4
267.596	53.93
267.812	111.27
268.028	88.75
268.244	92.84
268.46	45.74
268.676	45.74
268.892	17.07
269.108	-5.46
269.324	0.68
269.54	125.61
269.756	62.12
269.972	-38.23
270.188	19.11
270.403	-13.65
270.619	33.45
270.835	17.07
271.051	119.46
271.267	31.4
271.483	-7.51
271.698	4.78
271.914	8.87
272.13	41.64
272.346	12.97
272.562	51.88
272.777	15.02
272.993	119.46
273.209	-9.56
273.425	90.79
273.64	31.4
273.856	92.84
274.072	25.26
274.287	19.11
274.503	-15.7
274.719	107.18
274.934	35.5
275.15	-42.32
275.366	-7.51
275.581	47.79
275.797	80.55
276.012	33.45
276.228	82.6
276.444	25.26
276.659	64.17
276.875	8.87
277.09	6.83
277.306	51.88
277.521	55.98
277.737	15.02
277.952	64.17
278.168	19.11
278.383	113.32
278.599	23.21
278.814	43.69
279.03	15.02
279.245	33.45
279.461	45.74
279.676	-46.42
279.892	-17.75
280.107	12.97
280.322	-46.42
280.538	-15.7
280.753	29.35
280.969	39.59
281.184	15.02
281.399	-25.94
281.615	12.97
281.83	17.07
282.045	39.59
282.26	25.26
282.476	25.26
282.691	60.07
282.906	31.4
283.122	37.55
283.337	58.03
283.552	82.6
283.767	82.6
283.983	94.89
284.198	-3.41
284.413	55.98
284.628	10.92
284.843	39.59
285.058	96.94
285.274	17.07
285.489	12.97
285.704	41.64
285.919	-7.51
286.134	51.88
286.349	29.35
286.564	-111.96
286.779	129.7
286.995	-27.99
287.21	55.98
287.425	92.84
287.64	2.73
287.855	-1.37
288.07	-48.47
288.285	10.92
288.5	58.03
288.715	6.83
288.93	4.78
289.145	12.97
289.36	76.46
289.575	2.73
289.79	43.69
290.004	90.79
290.219	86.7
290.434	-111.96
290.649	-1.37
290.864	76.46
291.079	21.16
291.294	47.79
291.509	58.03
291.724	8.87
291.938	-17.75
292.153	37.55
292.368	31.4
292.583	12.97
292.798	64.17
293.012	41.64
293.227	12.97
293.442	-15.7
293.657	80.55
293.871	43.69
294.086	51.88
294.301	98.99
294.516	55.98
294.73	19.11
294.945	23.21
295.16	80.55
295.374	98.99
295.589	88.75
295.804	80.55
296.018	10.92
296.233	62.12
296.447	-13.65
296.662	-5.46
296.877	2.73
297.091	55.98
297.306	-25.94
297.52	15.02
297.735	21.16
297.949	6.83
298.164	-15.7
298.378	27.31
298.593	6.83
298.807	43.69
299.022	43.69
299.236	84.65
299.451	0.68
299.665	4.78
299.88	25.26
300.094	55.98
300.309	74.41
300.523	-9.56
300.737	21.16
300.952	10.92
301.166	60.07
301.381	33.45
301.595	23.21
301.809	-21.85
302.024	115.37
302.238	12.97
302.452	66.22
302.667	45.74
302.881	55.98
303.095	33.45
303.309	35.5
303.524	98.99
303.738	55.98
303.952	-42.32
304.166	41.64
304.381	27.31
304.595	29.35
304.809	64.17
305.023	88.75
305.237	90.79
305.452	58.03
305.666	33.45
305.88	19.11
306.094	76.46
306.308	25.26
306.522	10.92
306.736	39.59
306.95	64.17
307.164	92.84
307.379	21.16
307.593	25.26
307.807	51.88
308.021	66.22
308.235	6.83
308.449	45.74
308.663	31.4
308.877	15.02
309.091	76.46
309.305	58.03
309.519	68.27
309.733	55.98
309.947	15.02
310.161	74.41
310.374	94.89
310.588	80.55
310.802	17.07
311.016	25.26
311.23	19.11
311.444	45.74
311.658	-58.71
311.872	47.79
312.085	33.45
312.299	45.74
312.513	33.45
312.727	45.74
312.941	55.98
313.154	111.27
313.368	-21.85
313.582	23.21
313.796	-48.47
314.009	51.88
314.223	96.94
314.437	-1.37
314.651	70.31
314.864	-7.51
315.078	49.83
315.292	109.22
315.505	62.12
315.719	62.12
315.933	27.31
316.146	51.88
316.36	33.45
316.573	98.99
316.787	45.74
317.001	51.88
317.214	39.59
317.428	64.17
317.641	-9.56
317.855	51.88
318.068	76.46
318.282	45.74
318.495	74.41
318.709	64.17
318.922	62.12
319.136	60.07
319.349	80.55
319.563	41.64
319.776	0.68
319.99	51.88
320.203	15.02
320.417	43.69
320.63	45.74
320.843	90.79
321.057	80.55
321.27	51.88
321.483	47.79
321.697	19.11
321.91	35.5
322.124	127.66
322.337	21.16
322.55	45.74
322.763	-21.85
322.977	58.03
323.19	27.31
323.403	-7.51
323.617	113.32
323.83	23.21
324.043	31.4
324.256	53.93
324.469	31.4
324.683	-17.75
324.896	70.31
325.109	47.79
325.322	27.31
325.535	23.21
325.748	25.26
325.962	19.11
326.175	23.21
326.388	113.32
326.601	129.7
326.814	72.36
327.027	15.02
327.24	113.32
327.453	68.27
327.666	51.88
327.879	64.17
328.092	43.69
328.305	19.11
328.518	0.68
328.731	-9.56
328.944	37.55
329.157	49.83
329.37	78.51
329.583	62.12
329.796	29.35
330.009	27.31
330.222	133.8
330.435	76.46
330.648	55.98
330.861	33.45
331.073	39.59
331.286	15.02
331.499	35.5
331.712	64.17
331.925	-5.46
332.138	43.69
332.35	64.17
332.563	66.22
332.776	107.18
332.989	-21.85
333.202	78.51
333.414	62.12
333.627	60.07
333.84	101.03
334.053	45.74
334.265	88.75
334.478	53.93
334.691	94.89
334.903	68.27
335.116	-17.75
335.329	82.6
335.541	68.27
335.754	76.46
335.966	-15.7
336.179	0.68
336.392	66.22
336.604	53.93
336.817	31.4
337.029	41.64
337.242	72.36
337.454	92.84
337.667	113.32
337.88	70.31
338.092	62.12
338.305	51.88
338.517	55.98
338.729	72.36
338.942	98.99
339.154	39.59
339.367	6.83
339.579	58.03
339.792	27.31
340.004	98.99
340.217	37.55
340.429	37.55
340.641	94.89
340.854	4.78
341.066	15.02
341.278	103.08
341.491	51.88
341.703	33.45
341.915	19.11
342.128	-13.65
342.34	-5.46
342.552	-13.65
342.764	55.98
342.977	82.6
343.189	88.75
343.401	84.65
343.613	35.5
343.826	-1.37
344.038	4.78
344.25	0.68
344.462	64.17
344.674	66.22
344.886	-34.13
345.099	43.69
345.311	68.27
345.523	88.75
345.735	70.31
345.947	88.75
346.159	8.87
346.371	45.74
346.583	6.83
346.795	113.32
347.007	31.4
347.219	49.83
347.431	90.79
347.643	113.32
347.855	72.36
348.067	125.61
348.279	-1.37
348.491	10.92
348.703	68.27
348.915	121.51
349.127	17.07
349.339	88.75
349.551	19.11
349.763	45.74
349.975	82.6
350.187	101.03
350.399	72.36
350.61	21.16
350.822	0.68
351.034	78.51
351.246	-21.85
351.458	109.22
351.669	53.93
351.881	39.59
352.093	25.26
352.305	101.03
352.517	51.88
352.728	64.17
352.94	84.65
353.152	19.11
353.363	43.69
353.575	39.59
353.787	53.93
353.999	72.36
354.21	80.55
354.422	74.41
354.633	60.07
354.845	37.55
355.057	74.41
355.268	66.22
355.48	55.98
355.692	37.55
355.903	84.65
356.115	-1.37
356.326	41.64
356.538	72.36
356.749	72.36
356.961	82.6
357.172	-7.51
357.384	-7.51
357.595	133.8
357.807	51.88
358.018	33.45
358.23	80.55
358.441	78.51
358.653	49.83
358.864	39.59
359.075	-5.46
359.287	41.64
359.498	90.79
359.709	70.31
359.921	78.51
360.132	45.74
360.344	62.12
360.555	117.42
360.766	31.4
360.977	39.59
361.189	0.68
361.4	23.21
361.611	78.51
361.823	74.41
362.034	60.07
362.245	105.13
362.456	49.83
362.667	123.56
362.879	-5.46
363.09	29.35
363.301	23.21
363.512	51.88
363.723	70.31
363.935	23.21
364.146	107.18
364.357	49.83
364.568	78.51
364.779	33.45
364.99	51.88
365.201	29.35
365.412	121.51
365.623	146.09
365.834	98.99
366.045	64.17
366.256	78.51
366.467	55.98
366.678	58.03
366.889	23.21
367.1	49.83
367.311	107.18
367.522	51.88
367.733	141.99
367.944	37.55
368.155	141.99
368.366	111.27
368.577	60.07
368.788	68.27
368.999	117.42
369.209	55.98
369.42	43.69
369.631	144.04
369.842	78.51
370.053	78.51
370.264	10.92
370.474	35.5
370.685	15.02
370.896	53.93
371.107	47.79
371.317	-38.23
371.528	-13.65
371.739	72.36
371.95	53.93
372.16	58.03
372.371	10.92
372.582	72.36
372.792	-5.46
373.003	92.84
373.214	45.74
373.424	133.8
373.635	80.55
373.846	86.7
374.056	64.17
374.267	55.98
374.477	58.03
374.688	0.68
374.898	27.31
375.109	51.88
375.319	43.69
375.53	96.94
375.74	58.03
375.951	111.27
376.161	15.02
376.372	109.22
376.582	31.4
376.793	66.22
377.003	88.75
377.214	-9.56
377.424	21.16
377.635	86.7
377.845	25.26
378.055	137.9
378.266	2.73
378.476	109.22
378.686	0.68
378.897	96.94
379.107	37.55
379.317	23.21
379.528	53.93
379.738	78.51
379.948	-54.61
380.158	88.75
380.369	88.75
380.579	66.22
380.789	121.51
380.999	92.84
381.21	92.84
381.42	70.31
381.63	62.12
381.84	125.61
382.05	113.32
382.261	37.55
382.471	-11.61
382.681	74.41
382.891	150.18
383.101	53.93
383.311	45.74
383.521	84.65
383.731	23.21
383.941	96.94
384.151	90.79
384.361	111.27
384.571	60.07
384.781	29.35
384.991	72.36
385.201	43.69
385.411	111.27
385.621	92.84
385.831	101.03
386.041	94.89
386.251	27.31
386.461	115.37
386.671	-5.46
386.881	123.56
387.091	88.75
387.301	72.36
387.511	60.07
387.72	70.31
387.93	64.17
388.14	70.31
388.35	47.79
388.56	101.03
388.769	109.22
388.979	94.89
389.189	84.65
389.399	68.27
389.609	45.74
389.818	62.12
390.028	55.98
390.238	115.37
390.447	80.55
390.657	33.45
390.867	45.74
391.076	10.92
391.286	72.36
391.496	160.42
391.705	72.36
391.915	119.46
392.125	94.89
392.334	129.7
392.544	66.22
392.753	78.51
392.963	72.36
393.172	74.41
393.382	60.07
393.591	68.27
393.801	121.51
394.01	195.24
394.22	90.79
394.429	74.41
394.639	49.83
394.848	66.22
395.058	70.31
395.267	131.75
395.477	49.83
395.686	176.81
395.895	117.42
396.105	101.03
396.314	25.26
396.524	101.03
396.733	121.51
396.942	148.14
397.152	109.22
397.361	121.51
397.57	107.18
397.78	105.13
397.989	105.13
398.198	168.62
398.407	70.31
398.617	101.03
398.826	101.03
399.035	68.27
399.244	119.46
399.453	174.76
399.663	94.89
399.872	123.56
400.081	154.28
400.29	109.22
400.499	105.13
400.708	92.84
400.917	170.66
401.127	154.28
401.336	131.75
401.545	80.55
401.754	123.56
401.963	131.75
402.172	154.28
402.381	21.16
402.59	144.04
402.799	172.71
403.008	164.52
403.217	172.71
403.426	150.18
403.635	139.94
403.844	117.42
404.053	92.84
404.262	195.24
404.471	162.47
404.68	191.14
404.888	201.38
405.097	193.19
405.306	201.38
405.515	205.48
405.724	119.46
405.933	217.77
406.142	152.23
406.35	135.85
406.559	168.62
406.768	203.43
406.977	254.63
407.185	228.01
407.394	258.73
407.603	187.05
407.812	162.47
408.02	264.87
408.229	283.3
408.438	273.06
408.646	182.95
408.855	303.78
409.064	307.88
409.272	266.92
409.481	322.21
409.69	246.44
409.898	287.4
410.107	266.92
410.315	322.21
410.524	322.21
410.733	379.56
410.941	379.56
411.15	389.8
411.358	465.57
411.567	465.57
411.775	303.78
411.984	428.71
412.192	477.86
412.401	436.9
412.609	426.66
412.818	516.77
413.026	516.77
413.234	520.87
413.443	490.15
413.651	518.82
413.86	555.68
414.068	621.22
414.276	662.18
414.485	600.74
414.693	703.14
414.901	676.51
415.11	721.57
415.318	756.38
415.526	772.77
415.734	799.39
415.943	850.59
416.151	819.87
416.359	901.79
416.567	877.21
416.776	967.32
416.984	899.74
417.192	1004.19
417.4	975.52
417.608	1088.15
417.817	1096.35
418.025	1157.78
418.233	1149.59
418.441	1090.2
418.649	1286.81
418.857	1333.91
419.065	1350.29
419.273	1254.04
419.481	1305.24
419.689	1485.46
419.897	1583.76
420.105	1569.43
420.313	1567.38
420.521	1688.21
420.729	1759.89
420.937	1753.74
421.145	1739.41
421.353	1852.05
421.561	1968.78
421.769	2019.98
421.977	2028.17
422.185	2155.15
422.393	2312.84
422.601	2331.27
422.809	2345.61
423.017	2361.99
423.224	2380.42
423.432	2673.28
423.64	2583.17
423.848	2783.87
424.056	2730.62
424.263	2871.93
424.471	2865.79
424.679	3046.01
424.887	3150.46
425.094	3246.71
425.302	3220.09
425.51	3431.03
425.718	3488.37
425.925	3596.92
426.133	3650.16
426.341	3895.92
426.548	4131.44
426.756	3930.73
426.964	4178.54
427.171	4409.96
427.379	4467.3
427.586	4555.37
427.794	4657.76
428.001	4889.18
428.209	5294.68
428.417	5194.33
428.624	5528.15
428.832	5618.26
429.039	5374.55
429.247	5421.66
429.454	5894.74
429.662	6244.94
429.869	5839.44
430.076	6343.24
430.284	6179.4
430.491	6468.17
430.699	6670.92
430.906	6648.39
431.114	7010.88
431.321	7270.97
431.528	7377.47
431.736	7653.94
431.943	8178.22
432.15	7750.2
432.358	7983.66
432.565	8428.07
432.772	8479.27
432.979	8733.22
433.187	9005.6
433.394	9038.37
433.601	9581.08
433.808	9656.86
434.016	9679.38
434.223	10136.08
434.43	10517
434.637	10385.93
434.844	11043.33
435.052	11303.42
435.259	11102.72
435.466	11284.99
435.673	11166.21
435.88	12106.23
436.087	12466.67
436.294	12507.63
436.501	12112.37
436.708	12653.03
436.915	13060.58
437.122	13605.34
437.329	13509.08
437.537	13926.87
437.743	14131.67
437.95	14250.45
438.157	14635.47
438.364	15358.4
438.571	15151.56
438.778	15231.43
438.985	16738.73
439.192	15811
439.399	16556.46
439.606	16288.18
439.813	17355.17
440.02	18170.26
440.227	17750.43
440.433	17861.02
440.64	18557.33
440.847	18233.75
441.054	18710.93
441.261	19779.96
441.467	19609.98
441.674	19976.57
441.881	20754.8
442.088	20730.22
442.294	20679.02
442.501	21416.29
442.708	21551.46
442.914	22356.31
443.121	23566.66
443.328	22911.31
443.534	24541.49
443.741	23513.41
443.948	23583.04
444.154	25368.87
444.361	25090.35
444.568	25225.51
444.774	25506.09
444.981	25588
445.187	25942.3
445.394	27099.41
445.6	26976.53
445.807	29466.86
446.013	28391.67
446.22	28717.3
446.426	29939.94
446.633	30265.56
446.839	31090.9
447.046	29894.88
447.252	31473.87
447.459	31453.39
447.665	31449.29
447.871	32604.35
448.078	33943.72
448.284	32495.8
448.491	33591.47
448.697	34594.97
448.903	35358.86
449.11	35489.93
449.316	34871.45
449.522	35266.7
449.728	36225.15
449.935	36339.84
450.141	36540.54
450.347	37648.49
450.553	36337.79
450.76	36937.85
450.966	37658.73
451.172	37447.79
451.378	37939.3
451.584	37472.37
451.791	38574.17
451.997	38346.85
452.203	39034.97
452.409	38633.57
452.615	38703.2
452.821	37206.13
453.027	37109.88
453.233	38531.17
453.44	37146.74
453.646	37697.64
453.852	37509.23
454.058	38285.41
454.264	36776.06
454.47	37640.3
454.676	36845.69
454.882	38041.7
455.088	34642.07
455.294	34918.55
455.5	35872.9
455.705	36288.64
455.911	34664.6
456.117	34113.7
456.323	33362.09
456.529	31697.09
456.735	32755.89
456.941	31985.86
457.147	31946.95
457.352	30896.34
457.558	30054.62
457.764	30200.03
457.97	29722.85
458.176	29214.96
458.381	29020.4
458.587	27414.79
458.793	27717.89
458.999	26165.53
459.204	28313.85
459.41	27511.05
459.616	25717.03
459.821	25555.24
460.027	25788.71
460.233	25198.89
460.438	23900.48
460.644	23900.48
460.85	23009.61
461.055	22851.92
461.261	22810.96
461.466	20797.81
461.672	20199.8
461.878	21918.04
462.083	20257.14
462.289	19988.86
462.494	19749.25
462.7	18993.54
462.905	18510.22
463.111	19315.08
463.316	19114.38
463.522	18868.62
463.727	18819.47
463.932	18497.94
464.138	18565.52
464.343	18649.49
464.549	18135.45
464.754	18692.49
464.959	18563.47
465.165	18364.82
465.37	17432.99
465.575	16996.78
465.781	17803.67
465.986	17994.14
466.191	17346.98
466.397	17054.12
466.602	16169.4
466.807	16730.54
467.012	16976.3
467.218	16841.13
467.423	16570.8
467.628	16654.76
467.833	17351.07
468.038	16779.69
468.244	16472.5
468.449	16931.24
468.654	16306.61
468.859	16216.5
469.064	16208.31
469.269	15858.1
469.474	15673.79
469.679	16101.81
469.885	15612.35
470.09	15612.35
470.295	15833.53
470.5	15147.46
470.705	15344.06
470.91	15253.95
471.115	14922.18
471.32	15194.56
471.525	15075.78
471.73	14696.91
471.935	14533.07
472.139	14119.38
472.344	14195.15
472.549	14262.74
472.754	13818.33
472.959	13851.1
473.164	13359.58
473.369	13318.62
473.574	13898.2
473.778	13775.32
473.983	13580.76
474.188	13337.06
474.393	12927.46
474.598	12743.14
474.802	12526.06
475.007	12808.68
475.212	12708.33
475.417	12327.41
475.621	12321.26
475.826	12220.91
476.031	11987.44
476.235	11721.21
476.44	12061.17
476.645	11723.26
476.849	11969.01
477.054	11581.95
477.259	11567.61
477.463	11409.92
477.668	11072
477.872	11272.7
478.077	11416.06
478.282	10842.63
478.486	10967.56
478.691	10928.64
478.895	10992.13
479.1	10607.11
479.304	10514.95
479.509	10414.6
479.713	10609.16
479.918	10318.35
480.122	10344.97
480.326	10359.31
480.531	10437.13
480.735	10232.33
480.94	10209.81
481.144	10381.84
481.348	10070.54
481.553	10041.87
481.757	9818.64
481.961	10050.07
482.166	10101.26
482.37	9824.79
482.574	9718.29
482.778	9808.4
482.983	10078.74
483.187	9986.58
483.391	9923.09
483.595	9953.81
483.8	10035.73
484.004	9996.82
484.208	9951.76
484.412	9978.39
484.616	9923.09
484.821	9927.19
485.025	9841.17
485.229	10045.97
485.433	9988.63
485.637	9935.38
485.841	9871.89
486.045	9769.49
486.249	9968.15
486.453	9841.17
486.657	9900.56
486.861	9839.12
487.065	9781.78
487.269	10179.09
487.473	9962
487.677	9959.95
487.881	10109.46
488.085	9959.95
488.289	10308.11
488.493	10076.69
488.697	10011.15
488.901	10074.64
489.105	10101.26
489.309	10168.85
489.512	10152.46
489.716	10246.67
489.92	10232.33
490.124	10111.5
490.328	10271.25
490.531	10048.02
490.735	10324.49
490.939	10416.65
491.143	10263.05
491.346	10187.28
491.55	10367.5
491.754	10603.02
491.958	10736.13
492.161	10517
492.365	10631.69
492.569	10639.88
492.772	10553.87
492.976	10609.16
493.18	10834.44
493.383	10834.44
493.587	10985.99
493.79	11088.39
493.994	10912.26
494.197	10891.78
494.401	11053.57
494.605	11145.73
494.808	11323.9
495.012	11426.3
495.215	11520.51
495.419	11745.78
495.622	11639.29
495.825	11747.83
496.029	11745.78
496.232	11999.73
496.436	11934.2
496.639	12075.51
496.843	12218.86
497.046	12388.85
497.249	12472.81
497.453	12681.71
497.656	12767.72
497.859	12751.34
498.063	12919.27
498.266	13089.25
498.469	13011.43
498.673	13421.02
498.876	13418.97
499.079	13636.06
499.282	13543.9
499.485	13961.69
499.689	13986.26
499.892	14291.41
500.095	14211.54
500.298	14875.08
500.501	14703.05
500.705	14897.61
500.908	14940.61
501.111	15161.8
501.314	15217.09
501.517	15694.27
501.72	15690.17
501.923	15333.82
502.126	16073.14
502.329	16232.88
502.532	16366
502.735	16409.01
502.938	16644.52
503.141	16888.23
503.344	17060.26
503.547	17054.12
503.75	17506.72
503.953	17648.03
504.156	17793.44
504.359	17963.42
504.562	17998.23
504.765	18330
504.968	18459.03
505.17	18739.6
505.373	18909.58
505.576	19263.88
505.779	19427.71
505.982	19857.79
506.185	19849.6
506.387	19978.62
506.59	20066.68
506.793	20566.38
506.996	20339.06
507.198	20826.48
507.401	20699.5
507.604	21184.87
507.807	21655.9
508.009	21881.18
508.212	21713.25
508.415	22495.57
508.617	22565.2
508.82	22536.53
509.022	22124.89
509.225	23013.71
509.428	23398.73
509.63	23515.46
509.833	23576.9
510.035	24240.44
510.238	24238.39
510.44	24144.19
510.643	24797.49
510.845	24990
511.048	24832.3
511.25	25375.02
511.453	25518.37
511.655	26347.8
511.858	25944.35
512.06	26413.34
512.262	26655
512.465	26546.45
512.667	26700.05
512.87	27291.91
513.072	27609.35
513.274	27484.42
513.477	28258.56
513.679	28420.34
513.881	28969.2
514.084	28999.92
514.286	28895.47
514.488	28905.71
514.69	30050.53
514.893	30003.42
515.095	30200.03
515.297	30626.01
515.499	31031.51
515.701	30949.59
515.904	31299.79
516.106	31826.12
516.308	31662.28
516.51	32379.07
516.712	32084.16
516.914	32968.88
517.116	33284.27
517.318	33237.17
517.52	33231.02
517.722	33761.45
517.925	34078.88
518.127	34468
518.329	34799.77
518.531	34779.29
518.733	35330.19
518.935	35518.6
519.136	35524.75
519.338	36286.59
519.54	36575.36
519.742	36642.94
519.944	36952.18
520.146	37593.2
520.348	37392.5
520.55	37949.54
520.752	38129.76
520.954	38549.6
521.155	38109.29
521.357	39061.59
521.559	38946.9
521.761	39923.79
521.963	39680.08
522.164	39387.22
522.366	39794.76
522.568	40267.84
522.77	40906.81
522.971	41175.09
523.173	40865.85
523.375	41902.12
523.576	41312.31
523.778	41635.89
523.98	42367.01
524.181	42645.54
524.383	42846.24
524.584	43104.28
524.786	43356.18
524.988	42952.73
525.189	43307.03
525.391	43302.93
525.592	43900.94
525.794	43855.89
525.995	44222.47
526.197	44077.07
526.398	44124.17
526.6	44331.01
526.801	44621.83
527.003	45064.19
527.204	44781.57
527.406	45600.75
527.607	45383.67
527.808	45899.76
528.01	44879.87
528.211	45301.75
528.412	46542.82
528.614	46082.03
528.815	46131.18
529.016	46897.12
529.218	46252.01
529.419	46393.32
529.62	46606.31
529.822	46645.22
530.023	46809.06
530.224	46735.33
530.425	46931.93
530.626	46692.32
530.828	46862.3
531.029	47658.96
531.23	46933.98
531.431	47189.98
531.632	47075.29
531.833	47796.18
532.035	47566.8
532.236	47445.97
532.437	48023.5
532.638	47661.01
532.839	48056.27
533.04	48070.61
533.241	47577.04
533.442	48261.07
533.643	47450.07
533.844	47929.3
534.045	48060.37
534.246	47878.1
534.447	47978.45
534.648	47929.3
534.849	48359.37
535.05	47996.88
535.251	48398.28
535.451	48017.36
535.652	48218.06
535.853	48539.59
536.054	48295.88
536.255	48359.37
536.456	47929.3
536.657	48844.74
536.857	48287.69
537.058	48345.03
537.259	48578.5
537.46	48537.54
537.66	48310.22
537.861	48504.77
538.062	47994.83
538.263	48154.57
538.463	48000.97
538.664	48136.14
538.865	48541.64
539.065	48666.56
539.266	47947.73
539.466	48711.62
539.667	47720.4
539.868	48873.41
540.068	48193.48
540.269	48392.14
540.469	48658.37
540.67	48222.15
540.87	48181.2
541.071	48555.97
541.271	48779.2
541.472	48564.17
541.672	48302.03
541.873	48375.75
542.073	47798.23
542.274	48365.51
542.474	48603.08
542.675	47730.64
542.875	48328.65
543.075	48508.87
543.276	47828.94
543.476	49092.54
543.676	48023.5
543.877	48465.86
544.077	48295.88
544.277	48205.77
544.478	48676.8
544.678	48682.95
544.878	48158.67
545.078	48340.94
545.279	48080.84
545.479	48312.27
545.679	48209.87
545.879	48586.69
546.079	48080.84
546.28	48426.95
546.48	47677.4
546.68	48478.15
546.88	48392.14
547.08	48431.05
547.28	48197.58
547.48	47562.71
547.68	48279.5
547.88	47972.3
548.081	48164.81
548.281	48152.52
548.481	47800.27
548.681	48445.38
548.881	48185.29
549.081	48302.03
549.28	48029.65
549.48	48486.34
549.68	47775.7
549.88	48711.62
550.08	47919.06
550.28	48226.25
550.48	47951.82
550.68	48287.69
550.88	48324.55
551.08	48459.72
551.279	48037.84
551.479	47589.33
551.679	47947.73
551.879	47818.7
552.079	47650.77
552.278	47892.43
552.478	48467.91
552.678	48015.31
552.878	47775.7
553.077	48060.37
553.277	47456.21
553.477	48267.21
553.676	47374.3
553.876	47841.23
554.076	47644.63
554.275	48191.44
554.475	47108.06
554.674	47798.23
554.874	47867.86
555.074	47630.29
555.273	47847.38
555.473	47796.18
555.672	47103.96
555.872	47386.58
556.071	47392.73
556.271	48054.22
556.47	47765.46
556.67	47222.75
556.869	47202.27
557.068	47769.55
557.268	46952.41
557.467	47298.52
557.667	47319
557.866	47255.51
558.065	47122.4
558.265	46567.4
558.464	46798.82
558.663	47226.84
558.863	46090.22
559.062	47040.48
559.261	46766.05
559.461	46725.09
559.66	46446.57
559.859	46782.43
560.058	46346.22
560.258	46555.11
560.457	46079.98
560.656	46434.28
560.855	45711.35
561.054	46542.82
561.253	46104.56
561.453	45989.87
561.652	46436.33
561.851	46608.36
562.05	46376.93
562.249	46204.91
562.448	46372.84
562.647	45723.63
562.846	45602.8
563.045	46153.71
563.244	45203.45
563.443	46067.69
563.642	44847.1
563.841	45522.93
564.04	45006.84
564.239	45912.05
564.438	45094.91
564.637	45408.25
564.836	45314.04
565.035	45092.86
565.234	45039.61
565.432	45023.23
565.631	44580.87
565.83	45047.8
566.029	44298.25
566.228	44797.95
566.427	44787.71
566.625	44023.82
566.824	44034.06
567.023	44591.11
567.222	43544.59
567.42	44234.76
567.619	44158.98
567.818	43501.59
568.016	43800.59
568.215	43874.32
568.414	43354.13
568.612	44103.69
568.811	43362.32
569.01	43331.61
569.208	42948.64
569.407	43487.25
569.605	42745.89
569.804	43728.91
570.002	42883.1
570.201	42797.09
570.4	42790.94
570.598	42559.52
570.797	42745.89
570.995	42913.82
571.193	42426.4
571.392	42819.61
571.59	42344.48
571.789	42326.05
571.987	42119.21
572.186	42168.36
572.384	42111.02
572.582	42254.37
572.781	42281
572.979	41594.93
573.177	41795.63
573.376	41680.94
573.574	41398.32
573.772	41816.11
573.971	41187.38
574.169	41087.03
574.367	40796.22
574.565	40882.23
574.763	40931.39
574.962	41021.5
575.16	40439.87
575.358	40814.65
575.556	40349.76
575.754	40927.29
575.952	40093.77
576.151	40427.59
576.349	39917.64
576.547	40011.85
576.745	40396.87
576.943	40304.71
577.141	39805
577.339	40187.97
577.537	39452.75
577.735	39751.76
577.933	39368.79
578.131	39581.77
578.329	39184.47
578.527	39045.21
578.725	39219.28
578.923	39555.15
579.121	38981.72
579.319	38789.21
579.516	39034.97
579.714	38637.66
579.912	38346.85
580.11	38924.38
580.308	38199.4
580.506	38219.88
580.704	37998.69
580.901	38551.65
581.099	38230.12
581.297	37679.21
581.495	38189.16
581.692	38512.73
581.89	37609.58
582.088	37937.26
582.285	37351.54
582.483	38062.18
582.681	37415.02
582.878	37308.53
583.076	37097.59
583.274	37458.03
583.471	36915.32
583.669	36962.42
583.866	36835.45
584.064	37097.59
584.262	36274.31
584.459	36866.17
584.657	36233.35
584.854	36810.87
585.052	36305.02
585.249	36341.89
585.447	36341.89
585.644	35864.71
585.841	35938.44
586.039	36302.98
586.236	36024.45
586.434	35747.98
586.631	35762.31
586.828	35643.53
587.026	35467.41
587.223	35661.96
587.42	35246.22
587.618	35328.14
587.815	34986.13
588.012	34924.69
588.21	34971.8
588.407	35080.34
588.604	34771.1
588.801	34605.21
588.999	34601.11
589.196	34414.75
589.393	34814.1
589.59	34521.24
589.787	34029.73
589.984	34373.79
590.182	34009.25
590.379	34218.14
590.576	33489.07
590.773	33919.14
590.97	33861.8
591.167	34107.55
591.364	33351.85
591.561	33753.26
591.758	33456.3
591.955	33503.4
592.152	33392.81
592.349	33308.85
592.546	33513.64
592.743	33190.06
592.94	32604.35
593.137	33003.7
593.334	33167.54
593.531	32481.47
593.727	32622.78
593.924	32481.47
594.121	32503.99
594.318	32600.25
594.515	31752.39
594.712	32334.01
594.908	31736.01
595.105	32080.07
595.302	31736.01
595.499	31977.67
595.696	31725.77
595.892	31443.15
596.089	31742.15
596.286	31641.8
596.482	31326.41
596.679	31578.31
596.876	31305.93
597.072	31033.55
597.269	30804.18
597.466	31019.22
597.662	30961.87
597.859	30933.2
598.055	31424.72
598.252	30847.19
598.448	30718.17
598.645	30400.73
598.841	30365.92
599.038	30365.92
599.234	30157.02
599.431	30392.54
599.627	30015.71
599.824	30580.95
600.02	29677.8
600.217	29825.25
600.413	29729
600.609	29524.2
600.806	29513.96
601.002	29458.67
601.198	29186.29
601.395	29370.6
601.591	29049.07
601.787	29440.23
601.984	29081.84
602.18	29192.43
602.376	28578.04
602.572	28684.53
602.769	28696.82
602.965	28426.49
603.161	28543.22
603.357	28268.8
603.553	28494.07
603.75	28514.55
603.946	28502.26
604.142	28469.5
604.338	27773.19
604.534	28049.66
604.73	27898.11
604.926	27865.35
605.122	28020.99
605.318	27894.02
605.514	27523.33
605.71	27631.88
605.906	27648.26
606.102	27631.88
606.298	27515.14
606.494	27513.09
606.69	27515.14
606.886	27609.35
607.082	26947.86
607.278	27433.22
607.474	26773.78
607.67	27001.1
607.866	26939.66
608.062	27162.89
608.257	26777.87
608.453	26757.39
608.649	26861.84
608.845	26542.36
609.041	26607.89
609.236	26480.92
609.432	26579.22
609.628	26474.77
609.824	26614.04
610.019	26521.88
610.215	26100
610.411	26534.17
610.606	26329.37
610.802	26478.87
610.998	26296.6
611.193	26372.38
611.389	25930.01
611.584	25856.29
611.78	25927.97
611.976	25921.82
612.171	25983.26
612.367	26118.43
612.562	25764.13
612.758	25477.41
612.953	25700.64
613.149	25704.74
613.344	25442.6
613.539	25860.38
613.735	25727.27
613.93	25567.52
614.126	25350.44
614.321	25686.31
614.517	25260.33
614.712	25442.6
614.907	25276.71
615.103	25420.07
615.298	25366.82
615.493	25393.45
615.688	25119.02
615.884	25518.37
616.079	24779.06
616.274	25284.9
616.47	25196.84
616.665	25037.1
616.86	24983.85
617.055	24981.81
617.25	24949.04
617.445	25102.64
617.641	24404.28
617.836	25039.15
618.031	24314.17
618.226	24287.54
618.421	24328.5
618.616	25049.39
618.811	24129.85
619.006	24406.33
619.201	23869.76
619.396	24111.42
619.591	23824.7
619.786	23972.16
619.981	23816.51
620.176	23953.73
620.371	23691.59
620.566	23746.88
620.761	23511.36
620.956	23505.22
621.151	23013.71
621.346	23279.94
621.541	22763.86
621.735	22952.27
621.93	22741.33
622.125	22651.22
622.32	22534.48
622.515	22694.22
622.709	22225.24
622.904	22374.74
623.099	22249.82
623.294	22182.23
623.488	21920.09
623.683	22296.92
623.878	21801.31
624.072	21725.54
624.267	21754.21
624.462	21668.19
624.656	21475.68
624.851	21567.84
625.046	21215.59
625.24	21221.73
625.435	21080.42
625.629	21162.34
625.824	20623.73
626.018	21025.13
626.213	20160.89
626.407	20339.06
626.602	20105.59
626.796	20287.86
626.991	20406.64
627.185	20220.28
627.38	20162.94
627.574	19626.37
627.768	19822.97
627.963	19960.19
628.157	19388.8
628.352	19433.86
628.546	19222.92
628.74	19474.82
628.935	19100.04
629.129	19347.84
629.323	19014.02
629.517	19130.76
629.712	18846.09
629.906	18803.08
630.1	18522.51
630.294	18491.79
630.489	18325.91
630.683	18489.74
630.877	18422.16
631.071	18268.56
631.265	18362.77
631.459	18104.73
631.653	17901.98
631.848	17723.8
632.042	17641.89
632.236	17846.68
632.43	17363.36
632.624	17656.22
632.818	17521.06
633.012	17240.48
633.206	17412.51
633.4	17310.11
633.594	16894.38
633.788	17086.89
633.982	17025.45
634.176	16855.47
634.369	16832.94
634.563	16791.98
634.757	16810.41
634.951	16513.45
635.145	16554.41
635.339	16605.61
635.533	16183.73
635.726	16153.01
635.92	16116.15
636.114	16132.53
636.308	16163.25
636.501	16206.26
636.695	15960.5
636.889	15626.68
637.083	15815.1
637.276	15413.7
637.47	15501.76
637.664	15393.22
637.857	15458.75
638.051	15399.36
638.244	15446.46
638.438	15061.44
638.632	15094.21
638.825	14924.23
639.019	14834.12
639.212	14860.74
639.406	14733.77
639.599	14639.56
639.793	14719.43
639.986	14307.79
640.18	14692.81
640.373	14539.21
640.567	14039.51
640.76	14281.17
640.954	14031.32
641.147	14221.78
641.34	14006.74
641.534	13959.64
641.727	13910.49
641.92	14021.08
642.114	13752.79
642.307	13693.4
642.5	13779.42
642.694	13396.45
642.887	13355.49
643.08	13566.43
643.273	13496.8
643.467	13205.99
643.66	13134.31
643.853	13054.44
644.046	13029.86
644.239	13036
644.432	13085.15
644.626	12906.98
644.819	12806.63
645.012	12683.75
645.205	12710.38
645.398	12767.72
645.591	12552.68
645.784	12579.31
645.977	12407.28
646.17	12771.82
646.363	12448.24
646.556	12257.78
646.749	12339.69
646.942	12319.21
647.135	12212.72
647.328	12136.95
647.521	12018.16
647.714	11874.81
647.907	11792.89
648.099	11698.68
648.292	11964.92
648.485	11745.78
648.678	11583.99
648.871	11581.95
649.064	11532.79
649.256	11475.45
649.449	11491.84
649.642	11268.61
649.835	11047.43
650.027	11436.54
650.22	11067.91
650.413	11188.74
650.605	11053.57
650.798	10967.56
650.991	10879.49
651.183	10873.35
651.376	10719.75
651.568	10859.01
651.761	10916.36
651.954	10639.88
652.146	10740.23
652.339	10588.68
652.531	10625.54
652.724	10529.29
652.916	10213.9
653.109	10330.64
653.301	10340.88
653.494	10103.31
653.686	10119.7
653.879	10228.24
654.071	10039.83
654.263	10072.59
654.456	10009.11
654.648	9986.58
654.84	9902.61
655.033	9896.47
655.225	9902.61
655.417	9708.05
655.61	9663
655.802	9765.4
655.994	9566.74
656.186	9597.46
656.379	9509.4
656.571	9462.3
656.763	9441.82
656.955	9251.36
657.148	9439.77
657.34	9402.91
657.532	9339.42
657.724	9228.83
657.916	9302.56
658.108	9026.08
658.3	9062.94
658.492	8997.41
658.684	8976.93
658.876	8981.03
659.068	8837.67
659.26	9085.47
659.452	8921.63
659.644	8665.64
659.836	8598.06
660.028	8722.98
660.22	8487.47
660.412	8708.65
660.604	8499.75
660.796	8481.32
660.988	8417.83
661.18	8507.94
661.372	8528.42
661.563	8530.47
661.755	8280.62
661.947	8208.94
662.139	8385.07
662.331	8243.76
662.522	8297
662.714	8227.37
662.906	8079.92
663.097	8174.13
663.289	8028.72
663.481	8043.06
663.673	7883.31
663.864	7909.94
664.056	7985.71
664.247	7811.64
664.439	7805.49
664.631	7674.42
664.822	7762.48
665.014	7787.06
665.205	7664.18
665.397	7440.95
665.588	7520.82
665.78	7477.82
665.971	7397.95
666.163	7522.87
666.354	7295.55
666.546	7395.9
666.737	7273.02
666.929	7088.7
667.12	7422.52
667.311	7268.92
667.503	7135.81
667.694	7223.87
667.885	7000.64
668.077	7152.19
668.268	7066.17
668.459	6980.16
668.651	7062.08
668.842	7031.36
669.033	6928.96
669.224	6847.04
669.416	7019.07
669.607	6877.76
669.798	6808.13
669.989	6986.3
670.18	6701.64
670.371	6879.81
670.563	6668.87
670.754	6632.01
670.945	6685.25
671.136	6638.15
671.327	6384.2
671.518	6482.5
671.709	6603.33
671.9	6576.71
672.091	6437.45
672.282	6423.11
672.473	6419.02
672.664	6625.86
672.855	6289.99
673.046	6314.57
673.237	6277.71
673.428	6261.32
673.619	6171.21
673.809	6261.32
674	6238.8
674.191	6197.84
674.382	6203.98
674.573	6105.68
674.764	6044.24
674.954	6105.68
675.145	6040.14
675.336	5845.59
675.527	6083.15
675.717	5978.7
675.908	5933.65
676.099	5980.75
676.289	5943.89
676.48	5931.6
676.671	5634.64
676.861	5798.48
677.052	5818.96
677.243	5710.42
677.433	5753.43
677.624	5665.36
677.814	5847.63
678.005	5798.48
678.195	5648.98
678.386	5702.23
678.576	5554.77
678.767	5448.28
678.957	5591.64
679.148	5589.59
679.338	5560.92
679.529	5636.69
679.719	5552.73
679.909	5489.24
680.1	5501.53
680.29	5517.91
680.481	5374.55
680.671	5378.65
680.861	5392.98
681.052	5505.62
681.242	5587.54
681.432	5489.24
681.622	5233.24
681.813	5372.5
682.003	5237.34
682.193	5263.96
682.383	5251.67
682.573	5278.3
682.764	5286.49
682.954	5108.32
683.144	5141.08
683.334	5251.67
683.524	5175.9
683.714	5237.34
683.904	5106.27
684.094	5149.28
684.284	5124.7
684.474	5253.72
684.664	5184.09
684.854	5165.66
685.044	4991.58
685.234	5069.41
685.424	5063.26
685.614	4967.01
685.804	4995.68
685.994	4944.48
686.184	4958.81
686.374	4919.9
686.564	4954.72
686.753	5012.06
686.943	4731.49
687.133	4799.07
687.323	4743.78
687.513	4889.18
687.702	4729.44
687.892	4690.53
688.082	4737.63
688.272	4592.23
688.461	4639.33
688.651	4770.4
688.841	4586.08
689.03	4602.47
689.22	4557.41
689.41	4620.9
689.599	4651.62
689.789	4573.8
689.979	4448.87
690.168	4489.83
690.358	4426.34
690.547	4412.01
690.737	4383.34
690.926	4403.82
691.116	4373.1
691.305	4532.84
691.495	4399.72
691.684	4360.81
691.874	4430.44
692.063	4342.38
692.252	4305.51
692.442	4274.79
692.631	4291.18
692.82	4399.72
693.01	4258.41
693.199	4217.45
693.388	4268.65
693.578	4201.07
693.767	4147.82
693.956	4051.56
694.146	4168.3
694.335	4178.54
694.524	4153.96
694.713	4139.63
694.902	4098.67
695.092	4078.19
695.281	4098.67
695.47	4049.52
695.659	4016.75
695.848	3969.65
696.037	4106.86
696.226	4180.59
696.415	4057.71
696.604	4084.33
696.793	3850.86
696.982	3963.5
697.171	4127.34
697.36	3971.69
697.549	3961.45
697.738	3932.78
697.927	3998.32
698.116	4008.56
698.305	3893.87
698.494	3818.1
698.683	3893.87
698.872	4037.23
699.061	3904.11
699.25	3871.34
699.438	3770.99
699.627	3779.18
699.816	3932.78
700.005	3955.31
700.193	3869.3
700.382	3811.95
700.571	3779.18
700.76	3809.9
700.948	3983.98
701.137	3654.26
701.326	3654.26
701.514	3902.06
701.703	3842.67
701.892	3730.03
702.08	3830.38
702.269	3723.89
702.457	3687.03
702.646	3785.33
702.834	3687.03
703.023	3773.04
703.212	3768.95
703.4	3652.21
703.589	3689.07
703.777	3738.23
703.965	3613.3
704.154	3660.4
704.342	3734.13
704.531	3584.63
704.719	3580.53
704.907	3801.71
705.096	3701.36
705.284	3594.87
705.472	3605.11
705.661	3605.11
705.849	3586.68
706.037	3529.33
706.226	3596.92
706.414	3615.35
706.602	3590.77
706.79	3691.12
706.979	3609.2
707.167	3627.64
707.355	3617.4
707.543	3545.72
707.731	3562.1
707.919	3461.75
708.107	3416.69
708.296	3469.94
708.484	3654.26
708.672	3588.72
708.86	3519.09
709.048	3463.8
709.236	3527.28
709.424	3478.13
709.612	3379.83
709.8	3562.1
709.988	3484.28
710.176	3484.28
710.364	3494.52
710.551	3353.21
710.739	3469.94
710.927	3574.39
711.115	3474.04
711.303	3400.31
711.491	3435.13
711.679	3394.17
711.866	3445.37
712.054	3304.06
712.242	3310.2
712.43	3433.08
712.617	3349.11
712.805	3373.69
712.993	3328.63
713.181	3179.13
713.368	3287.67
713.556	3189.37
713.744	3230.33
713.931	3345.02
714.119	3330.68
714.306	3314.3
714.494	3426.93
714.682	3345.02
714.869	3213.95
715.057	3312.25
715.244	3232.38
715.432	3150.46
715.619	3402.36
715.807	3355.26
715.994	3259
716.182	3152.51
716.369	3158.65
716.556	3224.19
716.744	3222.14
716.931	3107.45
717.119	3207.8
717.306	3177.08
717.493	3222.14
717.681	3203.71
717.868	3064.44
718.055	3125.88
718.242	3138.17
718.43	3119.74
718.617	3132.03
718.804	3185.27
718.991	3062.4
719.179	3097.21
719.366	3226.23
719.553	3109.5
719.74	3078.78
719.927	3025.53
720.114	3064.44
720.301	2919.04
720.488	2941.57
720.676	2982.53
720.863	3060.35
721.05	3132.03
721.237	2980.48
721.424	2994.81
721.611	3023.48
721.798	3066.49
721.985	2986.62
722.172	3076.73
722.358	2982.53
722.545	2908.8
722.732	3111.55
722.919	2994.81
723.106	2947.71
723.293	2968.19
723.48	2933.37
723.667	2892.41
723.853	2882.17
724.04	2943.61
724.227	2951.81
724.414	2996.86
724.6	2925.18
724.787	2882.17
724.974	2796.16
725.161	2921.09
725.347	2855.55
725.534	3015.29
725.72	2835.07
725.907	2945.66
726.094	2822.78
726.28	2953.85
726.467	2816.64
726.653	2902.65
726.84	2865.79
727.027	2919.04
727.213	2718.34
727.4	2939.52
727.586	2798.21
727.773	2843.26
727.959	2822.78
728.145	2837.12
728.332	2830.98
728.518	2794.11
728.705	2734.72
728.891	2904.7
729.077	2777.73
729.264	2798.21
729.45	2704
729.636	2812.54
729.823	2876.03
730.009	2863.74
730.195	2847.36
730.382	2800.26
730.568	2802.3
730.754	2783.87
730.94	2710.15
731.126	2812.54
731.313	2867.84
731.499	2744.96
731.685	2800.26
731.871	2732.67
732.057	2658.95
732.243	2761.34
732.429	2730.62
732.615	2849.41
732.801	2716.29
732.987	2767.49
733.173	2622.08
733.359	2714.24
733.545	2765.44
733.731	2699.91
733.917	2767.49
734.103	2685.57
734.289	2710.15
734.475	2587.27
734.661	2740.86
734.847	2687.62
735.033	2665.09
735.219	2593.41
735.404	2685.57
735.59	2685.57
735.776	2646.66
735.962	2562.69
736.148	2679.43
736.333	2720.39
736.519	2577.03
736.705	2615.94
736.89	2558.6
737.076	2579.08
737.262	2603.65
737.447	2472.58
737.633	2560.64
737.819	2611.84
738.004	2480.77
738.19	2542.21
738.375	2484.87
738.561	2695.81
738.747	2603.65
738.932	2470.53
739.118	2513.54
739.303	2546.31
739.489	2517.64
739.674	2503.3
739.859	2454.15
740.045	2464.39
740.23	2476.68
740.416	2486.92
740.601	2376.33
740.786	2511.49
740.972	2437.77
741.157	2396.81
741.342	2441.86
741.528	2370.18
741.713	2312.84
741.898	2353.8
742.084	2425.48
742.269	2390.66
742.454	2361.99
742.639	2327.18
742.824	2355.85
743.01	2247.3
743.195	2333.32
743.38	2269.83
743.565	2294.41
743.75	2402.95
743.935	2267.78
744.12	2349.7
744.305	2329.22
744.49	2237.06
744.675	2251.4
744.86	2263.69
745.045	2198.15
745.23	2282.12
745.415	2169.48
745.6	2271.88
745.785	2114.19
745.97	2232.97
746.155	2218.63
746.34	2169.48
746.525	2167.43
746.71	2175.63
746.895	2099.85
747.079	2151.05
747.264	2181.77
747.449	2042.51
747.634	2120.33
747.819	1993.36
748.003	1925.77
748.188	2069.13
748.373	2073.23
748.557	2036.36
748.742	1806.99
748.927	2024.08
749.111	1979.02
749.296	1956.49
749.481	1936.01
749.665	1913.49
749.85	1983.12
750.034	1911.44
750.219	1804.94
750.404	1997.45
750.588	1860.24
750.773	1831.57
750.957	1843.85
751.141	1829.52
751.326	1815.18
751.51	1714.83
751.695	1792.66
751.879	1788.56
752.064	1739.41
752.248	1688.21
752.432	1788.56
752.617	1641.11
752.801	1759.89
752.985	1710.74
753.17	1639.06
753.354	1723.02
753.538	1696.4
753.722	1677.97
753.907	1684.11
754.091	1686.16
754.275	1555.09
754.459	1596.05
754.643	1645.2
754.828	1575.57
755.012	1598.1
755.196	1630.87
755.38	1591.95
755.564	1577.62
755.748	1555.09
755.932	1514.13
756.116	1557.14
756.3	1538.71
756.484	1514.13
756.668	1596.05
756.852	1399.45
757.036	1391.25
757.22	1487.51
757.404	1473.17
757.588	1442.45
757.772	1434.26
757.956	1424.02
758.14	1360.53
758.323	1419.92
758.507	1452.69
758.691	1407.64
758.875	1407.64
759.059	1385.11
759.242	1364.63
759.426	1342.1
759.61	1217.18
759.794	1354.39
759.977	1342.1
760.161	1391.25
760.345	1338.01
760.528	1358.49
760.712	1280.66
760.895	1354.39
761.079	1249.94
761.263	1264.28
761.446	1260.18
761.63	1282.71
761.813	1254.04
761.997	1198.74
762.18	1165.98
762.364	1231.51
762.547	1176.22
762.731	1213.08
762.914	1168.02
763.098	1182.36
763.281	1178.26
763.464	1251.99
763.648	1178.26
763.831	1208.98
764.015	1161.88
764.198	1159.83
764.381	1096.35
764.564	1182.36
764.748	1180.31
764.931	1178.26
765.114	1022.62
765.297	1129.11
765.481	1153.69
765.664	1034.91
765.847	1020.57
766.03	1129.11
766.213	1157.78
766.397	1213.08
766.58	1041.05
766.763	1155.74
766.946	1129.11
767.129	1022.62
767.312	1086.11
767.495	1120.92
767.678	1075.87
767.861	1020.57
768.044	1100.44
768.227	1043.1
768.41	1079.96
768.593	1000.09
768.776	1002.14
768.959	1073.82
769.142	1065.63
769.324	1127.07
769.507	1004.19
769.69	977.56
769.873	1071.77
770.056	1116.83
770.239	965.28
770.421	1096.35
770.604	1059.48
770.787	1010.33
770.97	991.9
771.152	967.32
771.335	971.42
771.518	1043.1
771.7	973.47
771.883	952.99
772.066	875.17
772.248	983.71
772.431	856.73
772.613	922.27
772.796	909.98
772.978	981.66
773.161	981.66
773.343	1102.49
773.526	1000.09
773.708	854.69
773.891	907.93
774.073	920.22
774.256	785.05
774.438	832.16
774.621	854.69
774.803	885.41
774.985	889.5
775.168	901.79
775.35	920.22
775.532	848.54
775.715	866.97
775.897	813.73
776.079	864.93
776.261	844.45
776.444	832.16
776.626	881.31
776.808	760.48
776.99	809.63
777.173	828.06
777.355	766.62
777.537	813.73
777.719	721.57
777.901	785.05
778.083	842.4
778.265	676.51
778.447	731.81
778.629	795.29
778.811	762.53
778.993	748.19
779.175	705.18
779.357	760.48
779.539	768.67
779.721	717.47
779.903	795.29
780.085	699.04
780.267	735.9
780.449	803.49
780.631	756.38
780.812	680.61
780.994	754.34
781.176	672.42
781.358	656.03
781.54	651.94
781.721	662.18
781.903	766.62
782.085	623.27
782.267	649.89
782.448	709.28
782.63	535.2
782.812	627.36
782.993	670.37
783.175	588.45
783.357	613.03
783.538	656.03
783.72	520.87
783.901	619.17
784.083	602.79
784.264	481.96
784.446	484
784.627	531.11
784.809	580.26
784.99	606.88
785.172	625.31
785.353	606.88
785.535	531.11
785.716	506.53
785.897	516.77
786.079	604.83
786.26	496.29
786.441	543.39
786.623	514.72
786.804	565.92
786.985	559.78
787.167	535.2
787.348	518.82
787.529	547.49
787.71	512.67
787.891	475.81
788.073	455.33
788.254	484
788.435	490.15
788.616	404.13
788.797	459.43
788.978	441
789.159	391.84
789.34	412.32
789.522	426.66
789.703	455.33
789.884	389.8
790.065	422.56
790.246	404.13
790.427	371.36
790.607	453.28
790.788	465.57
790.969	443.04
791.15	400.04
791.331	432.8
791.512	424.61
791.693	342.69
791.874	320.17
792.054	373.41
792.235	428.71
792.416	438.95
792.597	361.13
792.778	461.48
792.958	395.94
793.139	418.47
793.32	406.18
793.5	400.04
793.681	484
793.862	357.03
794.042	395.94
794.223	367.27
794.404	408.23
794.584	318.12
794.765	402.08
794.945	424.61
795.126	354.98
795.306	346.79
795.487	344.74
795.667	416.42
795.848	303.78
796.028	311.97
796.209	309.93
796.389	389.8
796.57	410.28
796.75	328.36
796.93	416.42
797.111	283.3
797.291	346.79
797.471	389.8
797.652	346.79
797.832	365.22
798.012	293.54
798.192	389.8
798.373	389.8
798.553	289.45
798.733	359.08
798.913	303.78
799.093	359.08
799.274	408.23
799.454	381.6
799.634	266.92
799.814	324.26
799.994	383.65
800.174	340.65
800.354	258.73
800.534	289.45
800.714	359.08
800.894	262.82
801.074	262.82
801.254	242.34
801.434	295.59
801.614	228.01
801.794	197.29
801.974	531.11
802.154	273.06
802.334	266.92
802.514	217.77
802.693	324.26
802.873	217.77
803.053	311.97
803.233	301.73
803.413	244.39
803.592	258.73
803.772	281.25
803.952	289.45
804.131	211.62
804.311	299.69
804.491	232.1
804.67	215.72
804.85	252.58
805.03	250.53
805.209	203.43
805.389	123.56
805.568	234.15
805.748	219.82
805.928	223.91
806.107	197.29
806.287	236.2
806.466	250.53
806.646	248.49
806.825	215.72
807.004	254.63
807.184	260.77
807.363	209.58
807.543	246.44
807.722	156.33
807.901	254.63
808.081	293.54
808.26	207.53
808.439	240.29
808.619	289.45
808.798	234.15
808.977	252.58
809.156	279.21
809.336	217.77
809.515	236.2
809.694	213.67
809.873	260.77
810.052	242.34
810.231	221.86
810.411	289.45
810.59	285.35
810.769	232.1
810.948	256.68
811.127	160.42
811.306	123.56
811.485	236.2
811.664	236.2
811.843	144.04
812.022	207.53
812.201	215.72
812.38	205.48
812.559	219.82
812.737	209.58
812.916	197.29
813.095	158.38
813.274	182.95
813.453	230.06
813.632	234.15
813.811	273.06
813.989	154.28
814.168	223.91
814.347	113.32
814.526	158.38
814.704	154.28
814.883	234.15
815.062	230.06
815.24	254.63
815.419	185
815.598	166.57
815.776	123.56
815.955	146.09
816.133	182.95
816.312	182.95
816.49	154.28
816.669	141.99
816.847	123.56
817.026	221.86
817.204	203.43
817.383	185
817.561	139.94
817.74	203.43
817.918	168.62
818.097	146.09
818.275	195.24
818.453	144.04
818.632	156.33
818.81	125.61
818.988	125.61
819.167	182.95
819.345	185
819.523	141.99
819.701	135.85
819.879	166.57
820.058	172.71
820.236	170.66
820.414	82.6
820.592	199.34
820.77	166.57
820.948	76.46
821.127	228.01
821.305	174.76
821.483	156.33
821.661	225.96
821.839	127.66
822.017	96.94
822.195	148.14
822.373	141.99
822.551	158.38
822.729	141.99
822.907	127.66
823.085	123.56
823.262	133.8
823.44	144.04
823.618	119.46
823.796	139.94
823.974	168.62
824.152	170.66
824.329	144.04
824.507	115.37
824.685	166.57
824.863	211.62
825.04	139.94
825.218	64.17
825.396	115.37
825.574	98.99
825.751	152.23
825.929	82.6
826.107	133.8
826.284	146.09
826.462	119.46
826.639	121.51
826.817	137.9
826.994	68.27
827.172	119.46
827.349	137.9
827.527	80.55
827.704	6.83
827.882	125.61
828.059	70.31
828.237	94.89
828.414	78.51
828.591	113.32
828.769	78.51
828.946	127.66
829.124	152.23
829.301	129.7
829.478	96.94
829.655	125.61
829.833	164.52
830.01	113.32
830.187	82.6
830.364	117.42
830.542	221.86
830.719	121.51
830.896	117.42
831.073	39.59
831.25	105.13
831.427	82.6
831.604	98.99
831.782	105.13
831.959	121.51
832.136	78.51
832.313	109.22
832.49	139.94
832.667	86.7
832.844	105.13
833.021	148.14
833.198	170.66
833.374	125.61
833.551	76.46
833.728	109.22
833.905	92.84
834.082	154.28
834.259	80.55
834.436	90.79
834.612	86.7
834.789	119.46
834.966	47.79
835.143	98.99
835.319	19.11
835.496	58.03
835.673	111.27
835.85	90.79
836.026	144.04
836.203	90.79
836.38	92.84
836.556	62.12
836.733	150.18
836.909	90.79
837.086	148.14
837.262	105.13
837.439	-9.56
837.616	60.07
837.792	31.4
837.968	78.51
838.145	41.64
838.321	96.94
838.498	133.8
838.674	121.51
838.851	39.59
839.027	117.42
839.203	31.4
839.38	53.93
839.556	45.74
839.732	150.18
839.909	39.59
840.085	72.36
840.261	8.87
840.437	94.89
840.614	123.56
840.79	107.18
840.966	51.88
841.142	113.32
841.318	156.33
841.494	53.93
841.671	64.17
841.847	51.88
842.023	53.93
842.199	72.36
842.375	37.55
842.551	144.04
842.727	-44.37
842.903	111.27
843.079	86.7
843.255	78.51
843.431	88.75
843.607	137.9
843.783	15.02
843.959	78.51
844.134	47.79
844.31	64.17
844.486	70.31
844.662	41.64
844.838	4.78
845.013	98.99
845.189	53.93
845.365	43.69
845.541	41.64
845.716	80.55
845.892	74.41
846.068	6.83
846.244	-23.89
846.419	80.55
846.595	31.4
846.77	86.7
846.946	90.79
847.122	76.46
847.297	64.17
847.473	94.89
847.648	29.35
847.824	-40.28
847.999	96.94
848.175	-1.37
848.35	23.21
848.526	70.31
848.701	107.18
848.876	60.07
849.052	84.65
849.227	55.98
849.403	-5.46
849.578	-1.37
849.753	96.94
849.929	92.84
850.104	27.31
850.279	62.12
850.454	53.93
850.63	101.03
850.805	121.51
850.98	90.79
851.155	31.4
851.33	90.79
851.505	51.88
851.681	53.93
851.856	15.02
852.031	37.55
852.206	49.83
852.381	47.79
852.556	2.73
852.731	58.03
852.906	35.5
853.081	115.37
853.256	17.07
853.431	98.99
853.606	-1.37
853.781	53.93
853.956	43.69
854.131	29.35
854.305	21.16
854.48	101.03
854.655	41.64
854.83	29.35
855.005	150.18
855.18	27.31
855.354	-40.28
855.529	96.94
855.704	-19.8
855.879	107.18
856.053	15.02
856.228	12.97
856.403	74.41
856.577	60.07
856.752	51.88
856.926	35.5
857.101	12.97
857.276	53.93
857.45	45.74
857.625	51.88
857.799	35.5
857.974	82.6
858.148	68.27
858.323	-21.85
858.497	6.83
858.672	105.13
858.846	80.55
859.02	35.5
859.195	-25.94
859.369	55.98
859.543	15.02
859.718	21.16
859.892	-23.89
860.066	84.65
860.241	45.74
860.415	4.78
860.589	4.78
860.763	51.88
860.938	31.4
861.112	4.78
861.286	-15.7
861.46	84.65
861.634	19.11
861.808	70.31
861.982	-21.85
862.157	-21.85
862.331	94.89
862.505	10.92
862.679	45.74
862.853	-5.46
863.027	-1.37
863.201	90.79
863.375	8.87
863.549	25.26
863.722	4.78
863.896	21.16
864.07	33.45
864.244	27.31
864.418	84.65
864.592	6.83
864.766	-15.7
864.939	96.94
865.113	-25.94
865.287	72.36
865.461	31.4
865.634	37.55
865.808	17.07
865.982	39.59
866.156	31.4
866.329	8.87
866.503	72.36
866.676	43.69
866.85	0.68
867.024	31.4
867.197	-1.37
867.371	92.84
867.544	19.11
867.718	6.83
867.891	27.31
868.065	49.83
868.238	80.55
868.412	31.4
868.585	-9.56
868.759	64.17
868.932	4.78
869.105	55.98
869.279	33.45
869.452	-7.51
869.625	-5.46
869.799	-3.41
869.972	15.02
870.145	47.79
870.319	47.79
870.492	60.07
870.665	76.46
870.838	64.17
871.011	15.02
871.185	-25.94
871.358	-5.46
871.531	2.73
871.704	12.97
871.877	-5.46
872.05	4.78
872.223	51.88
872.396	19.11
872.569	33.45
872.742	-25.94
872.915	4.78
873.088	-40.28
873.261	31.4
873.434	33.45
873.607	-40.28
873.78	31.4
873.953	12.97
874.126	12.97
874.299	86.7
874.471	-34.13
874.644	70.31
874.817	60.07
874.99	86.7
875.163	-27.99
875.335	21.16
875.508	33.45
875.681	45.74
875.853	-19.8
876.026	17.07
876.199	49.83
876.371	51.88
876.544	33.45
876.717	33.45
876.889	-13.65
877.062	21.16
877.234	15.02
877.407	33.45
877.579	66.22
877.752	6.83
877.924	19.11
878.097	-7.51
878.269	17.07
878.442	2.73
878.614	-27.99
878.786	-71
878.959	60.07
879.131	35.5
879.303	-64.85
879.476	43.69
879.648	12.97
879.82	31.4
879.993	-1.37
880.165	82.6
880.337	53.93
880.509	31.4
880.681	21.16
880.854	-13.65
881.026	70.31
881.198	33.45
881.37	12.97
881.542	12.97
881.714	-19.8
881.886	-21.85
882.058	37.55
882.23	27.31
882.402	-13.65
882.574	58.03
882.746	-34.13
882.918	39.59
883.09	31.4
883.262	55.98
883.434	37.55
883.606	45.74
883.778	-48.47
883.95	113.32
884.122	12.97
884.293	2.73
884.465	47.79
884.637	84.65
884.809	-15.7
884.98	27.31
885.152	10.92
885.324	43.69
885.496	0.68
885.667	8.87
885.839	17.07
886.011	41.64
886.182	47.79
886.354	29.35
886.525	88.75
886.697	25.26
886.869	25.26
887.04	-54.61
887.212	35.5
887.383	58.03
887.555	-36.18
887.726	35.5
887.897	2.73
888.069	17.07
888.24	-5.46
888.412	43.69
888.583	29.35
888.754	64.17
888.926	33.45
889.097	-50.52
889.268	-58.71
889.44	27.31
889.611	17.07
889.782	39.59
889.953	19.11
890.125	25.26
890.296	12.97
890.467	33.45
890.638	47.79
890.809	35.5
890.98	-46.42
891.151	58.03
891.323	27.31
891.494	39.59
891.665	-3.41
891.836	27.31
892.007	37.55
892.178	84.65
892.349	-1.37
892.52	25.26
892.691	33.45
892.862	0.68
893.032	-30.04
893.203	-3.41
893.374	27.31
893.545	-9.56
893.716	51.88
893.887	25.26
894.057	12.97
894.228	-19.8
894.399	-7.51
894.57	49.83
894.74	2.73
894.911	60.07
895.082	-36.18
895.253	15.02
895.423	15.02
895.594	21.16
895.764	-5.46
895.935	-38.23
896.106	45.74
896.276	12.97
896.447	55.98
896.617	29.35
896.788	-23.89
896.958	2.73
897.129	111.27
897.299	62.12
897.47	19.11
897.64	10.92
897.81	8.87
897.981	2.73
898.151	-42.32
898.322	64.17
898.492	-19.8
898.662	0.68
898.832	6.83
899.003	-7.51
899.173	6.83
899.343	66.22
899.513	84.65
