Data from USB4F104151__223__11-10-48-535.txt Node

Date: Wed Mar 12 11:10:48 EDT 2025
User: louis
Spectrometer: USB4F10415
Trigger mode: 4
Integration Time (sec): 2.000000E-2
Scans to average: 1
Electric dark correction enabled: true
Nonlinearity correction enabled: false
Boxcar width: 0
XAxis mode: Wavelengths
Number of Pixels in Spectrum: 3648
>>>>>Begin Spectral Data<<<<<
178.204	-119.46
178.424	-119.46
178.644	-119.46
178.864	-25.26
179.084	-47.79
179.304	13.65
179.524	-47.79
179.744	30.04
179.964	-4.78
180.184	-10.92
180.404	36.18
180.624	-53.93
180.844	-21.16
181.064	3.41
181.283	-8.87
181.503	-8.87
181.723	73.04
181.943	11.61
182.163	34.13
182.383	116.05
182.602	23.89
182.822	-29.35
183.042	42.32
183.262	-4.78
183.482	83.28
183.701	52.56
183.921	-2.73
184.141	44.37
184.361	73.04
184.58	21.85
184.8	103.76
185.02	27.99
185.239	54.61
185.459	-12.97
185.679	85.33
185.898	15.7
186.118	3.41
186.338	1.37
186.557	11.61
186.777	83.28
186.997	-21.16
187.216	38.23
187.436	54.61
187.655	48.47
187.875	42.32
188.095	21.85
188.314	-0.68
188.534	77.14
188.753	60.76
188.973	32.08
189.192	27.99
189.412	79.19
189.631	17.75
189.851	83.28
190.07	83.28
190.29	75.09
190.509	13.65
190.729	-35.5
190.948	46.42
191.168	73.04
191.387	60.76
191.607	11.61
191.826	40.28
192.045	7.51
192.265	48.47
192.484	81.24
192.704	27.99
192.923	87.38
193.142	44.37
193.362	68.95
193.581	36.18
193.8	-6.83
194.02	-17.07
194.239	116.05
194.458	30.04
194.678	21.85
194.897	62.8
195.116	-21.16
195.335	99.67
195.555	32.08
195.774	44.37
195.993	15.7
196.212	50.52
196.432	-76.46
196.651	-39.59
196.87	-12.97
197.089	40.28
197.308	30.04
197.528	36.18
197.747	-8.87
197.966	62.8
198.185	77.14
198.404	-27.31
198.623	23.89
198.842	13.65
199.062	44.37
199.281	60.76
199.5	32.08
199.719	73.04
199.938	85.33
200.157	23.89
200.376	38.23
200.595	62.8
200.814	-4.78
201.033	48.47
201.252	-45.74
201.471	-10.92
201.69	73.04
201.909	40.28
202.128	25.94
202.347	58.71
202.566	42.32
202.785	64.85
203.004	32.08
203.223	105.81
203.442	19.8
203.661	-8.87
203.879	64.85
204.098	21.85
204.317	15.7
204.536	30.04
204.755	52.56
204.974	73.04
205.193	77.14
205.411	111.96
205.63	19.8
205.849	73.04
206.068	17.75
206.287	30.04
206.505	56.66
206.724	7.51
206.943	-0.68
207.162	5.46
207.381	60.76
207.599	27.99
207.818	79.19
208.037	-12.97
208.255	54.61
208.474	73.04
208.693	15.7
208.911	101.72
209.13	34.13
209.349	99.67
209.567	1.37
209.786	79.19
210.005	36.18
210.223	46.42
210.442	-29.35
210.661	44.37
210.879	83.28
211.098	66.9
211.316	-10.92
211.535	114
211.753	62.8
211.972	64.85
212.191	73.04
212.409	89.43
212.628	38.23
212.846	38.23
213.065	46.42
213.283	58.71
213.502	-33.45
213.72	73.04
213.938	60.76
214.157	-10.92
214.375	-12.97
214.594	21.85
214.812	42.32
215.031	21.85
215.249	-15.02
215.467	-21.16
215.686	-51.88
215.904	44.37
216.122	-35.5
216.341	17.75
216.559	17.75
216.778	79.19
216.996	58.71
217.214	64.85
217.432	19.8
217.651	32.08
217.869	-37.55
218.087	52.56
218.306	7.51
218.524	54.61
218.742	48.47
218.96	140.63
219.179	54.61
219.397	62.8
219.615	79.19
219.833	87.38
220.051	-10.92
220.27	103.76
220.488	44.37
220.706	42.32
220.924	-58.03
221.142	27.99
221.36	89.43
221.578	58.71
221.796	105.81
222.015	107.86
222.233	64.85
222.451	66.9
222.669	25.94
222.887	-12.97
223.105	9.56
223.323	56.66
223.541	62.8
223.759	-39.59
223.977	44.37
224.195	27.99
224.413	25.94
224.631	-0.68
224.849	-8.87
225.067	93.52
225.285	-37.55
225.503	19.8
225.721	-55.98
225.939	19.8
226.157	40.28
226.375	40.28
226.592	25.94
226.81	58.71
227.028	144.72
227.246	50.52
227.464	-17.07
227.682	132.44
227.9	64.85
228.117	9.56
228.335	126.29
228.553	19.8
228.771	52.56
228.989	7.51
229.206	3.41
229.424	-53.93
229.642	-17.07
229.86	64.85
230.077	54.61
230.295	30.04
230.513	66.9
230.731	93.52
230.948	7.51
231.166	81.24
231.384	13.65
231.601	30.04
231.819	-25.26
232.037	-31.4
232.254	-29.35
232.472	1.37
232.689	36.18
232.907	48.47
233.125	60.76
233.342	-8.87
233.56	-12.97
233.777	89.43
233.995	-39.59
234.213	77.14
234.43	-6.83
234.648	50.52
234.865	93.52
235.083	120.15
235.3	46.42
235.518	46.42
235.735	126.29
235.953	62.8
236.17	-0.68
236.388	-45.74
236.605	19.8
236.822	89.43
237.04	-2.73
237.257	54.61
237.475	87.38
237.692	48.47
237.909	-17.07
238.127	5.46
238.344	23.89
238.562	101.72
238.779	46.42
238.996	21.85
239.214	15.7
239.431	15.7
239.648	-39.59
239.865	58.71
240.083	11.61
240.3	83.28
240.517	36.18
240.735	109.91
240.952	58.71
241.169	56.66
241.386	66.9
241.603	50.52
241.821	-12.97
242.038	66.9
242.255	-17.07
242.472	81.24
242.689	7.51
242.907	50.52
243.124	50.52
243.341	34.13
243.558	19.8
243.775	-21.16
243.992	-21.16
244.209	48.47
244.426	81.24
244.643	62.8
244.86	-15.02
245.078	48.47
245.295	56.66
245.512	68.95
245.729	73.04
245.946	50.52
246.163	81.24
246.38	-8.87
246.597	19.8
246.814	17.75
247.031	-8.87
247.248	40.28
247.464	83.28
247.681	130.39
247.898	1.37
248.115	7.51
248.332	-21.16
248.549	3.41
248.766	132.44
248.983	77.14
249.2	58.71
249.417	44.37
249.633	-43.69
249.85	144.72
250.067	89.43
250.284	44.37
250.501	114
250.717	40.28
250.934	50.52
251.151	19.8
251.368	1.37
251.585	85.33
251.801	23.89
252.018	-4.78
252.235	38.23
252.451	19.8
252.668	-10.92
252.885	-12.97
253.102	81.24
253.318	54.61
253.535	5.46
253.752	40.28
253.968	66.9
254.185	64.85
254.401	44.37
254.618	89.43
254.835	-35.5
255.051	85.33
255.268	38.23
255.484	77.14
255.701	7.51
255.917	11.61
256.134	3.41
256.351	-0.68
256.567	46.42
256.784	83.28
257	-29.35
257.217	79.19
257.433	91.48
257.65	42.32
257.866	27.99
258.082	50.52
258.299	79.19
258.515	-4.78
258.732	50.52
258.948	91.48
259.165	64.85
259.381	105.81
259.597	71
259.814	1.37
260.03	-4.78
260.246	32.08
260.463	73.04
260.679	71
260.895	38.23
261.112	40.28
261.328	52.56
261.544	19.8
261.761	48.47
261.977	46.42
262.193	44.37
262.409	73.04
262.626	56.66
262.842	101.72
263.058	-12.97
263.274	-0.68
263.49	36.18
263.707	97.62
263.923	73.04
264.139	87.38
264.355	11.61
264.571	27.99
264.787	75.09
265.004	46.42
265.22	77.14
265.436	42.32
265.652	-17.07
265.868	27.99
266.084	68.95
266.3	-29.35
266.516	44.37
266.732	44.37
266.948	7.51
267.164	58.71
267.38	48.47
267.596	-37.55
267.812	5.46
268.028	93.52
268.244	-37.55
268.46	68.95
268.676	91.48
268.892	21.85
269.108	40.28
269.324	32.08
269.54	21.85
269.756	95.57
269.972	-17.07
270.188	38.23
270.403	27.99
270.619	-12.97
270.835	36.18
271.051	44.37
271.267	-8.87
271.483	23.89
271.698	79.19
271.914	13.65
272.13	62.8
272.346	30.04
272.562	-4.78
272.777	30.04
272.993	-12.97
273.209	5.46
273.425	66.9
273.64	11.61
273.856	101.72
274.072	91.48
274.287	89.43
274.503	30.04
274.719	56.66
274.934	50.52
275.15	66.9
275.366	-0.68
275.581	21.85
275.797	40.28
276.012	46.42
276.228	27.99
276.444	77.14
276.659	58.71
276.875	-2.73
277.09	138.58
277.306	44.37
277.521	42.32
277.737	44.37
277.952	-4.78
278.168	105.81
278.383	11.61
278.599	116.05
278.814	58.71
279.03	25.94
279.245	46.42
279.461	21.85
279.676	85.33
279.892	-37.55
280.107	48.47
280.322	36.18
280.538	52.56
280.753	3.41
280.969	89.43
281.184	58.71
281.399	66.9
281.615	34.13
281.83	79.19
282.045	-47.79
282.26	-6.83
282.476	71
282.691	21.85
282.906	144.72
283.122	99.67
283.337	30.04
283.552	97.62
283.767	52.56
283.983	128.34
284.198	54.61
284.413	32.08
284.628	42.32
284.843	34.13
285.058	13.65
285.274	77.14
285.489	105.81
285.704	32.08
285.919	13.65
286.134	-4.78
286.349	23.89
286.564	40.28
286.779	-19.11
286.995	81.24
287.21	42.32
287.425	46.42
287.64	9.56
287.855	71
288.07	54.61
288.285	79.19
288.5	101.72
288.715	36.18
288.93	-47.79
289.145	103.76
289.36	89.43
289.575	50.52
289.79	-4.78
290.004	23.89
290.219	120.15
290.434	93.52
290.649	13.65
290.864	23.89
291.079	7.51
291.294	109.91
291.509	30.04
291.724	73.04
291.938	-10.92
292.153	87.38
292.368	79.19
292.583	36.18
292.798	75.09
293.012	-0.68
293.227	19.8
293.442	-6.83
293.657	111.96
293.871	21.85
294.086	58.71
294.301	27.99
294.516	54.61
294.73	58.71
294.945	-6.83
295.16	75.09
295.374	77.14
295.589	60.76
295.804	17.75
296.018	68.95
296.233	21.85
296.447	11.61
296.662	15.7
296.877	68.95
297.091	81.24
297.306	-12.97
297.52	73.04
297.735	64.85
297.949	99.67
298.164	11.61
298.378	23.89
298.593	-0.68
298.807	42.32
299.022	21.85
299.236	48.47
299.451	9.56
299.665	7.51
299.88	97.62
300.094	68.95
300.309	-4.78
300.523	44.37
300.737	124.24
300.952	77.14
301.166	9.56
301.381	13.65
301.595	64.85
301.809	13.65
302.024	64.85
302.238	5.46
302.452	120.15
302.667	21.85
302.881	52.56
303.095	-19.11
303.309	68.95
303.524	54.61
303.738	62.8
303.952	46.42
304.166	38.23
304.381	87.38
304.595	64.85
304.809	-2.73
305.023	85.33
305.237	34.13
305.452	-27.31
305.666	64.85
305.88	73.04
306.094	9.56
306.308	60.76
306.522	58.71
306.736	38.23
306.95	81.24
307.164	68.95
307.379	3.41
307.593	-10.92
307.807	42.32
308.021	60.76
308.235	48.47
308.449	58.71
308.663	46.42
308.877	130.39
309.091	81.24
309.305	50.52
309.519	114
309.733	54.61
309.947	5.46
310.161	-6.83
310.374	1.37
310.588	15.7
310.802	46.42
311.016	81.24
311.23	89.43
311.444	38.23
311.658	36.18
311.872	48.47
312.085	-41.64
312.299	-6.83
312.513	97.62
312.727	34.13
312.941	21.85
313.154	32.08
313.368	87.38
313.582	52.56
313.796	105.81
314.009	73.04
314.223	64.85
314.437	120.15
314.651	30.04
314.864	50.52
315.078	42.32
315.292	36.18
315.505	44.37
315.719	79.19
315.933	52.56
316.146	-27.31
316.36	83.28
316.573	54.61
316.787	-0.68
317.001	42.32
317.214	-51.88
317.428	58.71
317.641	-0.68
317.855	60.76
318.068	44.37
318.282	99.67
318.495	40.28
318.709	-15.02
318.922	46.42
319.136	136.53
319.349	40.28
319.563	3.41
319.776	5.46
319.99	40.28
320.203	-19.11
320.417	109.91
320.63	1.37
320.843	75.09
321.057	62.8
321.27	17.75
321.483	13.65
321.697	46.42
321.91	58.71
322.124	58.71
322.337	77.14
322.55	38.23
322.763	32.08
322.977	36.18
323.19	7.51
323.403	136.53
323.617	11.61
323.83	122.2
324.043	50.52
324.256	40.28
324.469	97.62
324.683	38.23
324.896	56.66
325.109	25.94
325.322	101.72
325.535	38.23
325.748	95.57
325.962	89.43
326.175	-49.83
326.388	99.67
326.601	68.95
326.814	34.13
327.027	7.51
327.24	9.56
327.453	73.04
327.666	-12.97
327.879	60.76
328.092	66.9
328.305	48.47
328.518	3.41
328.731	66.9
328.944	83.28
329.157	68.95
329.37	38.23
329.583	56.66
329.796	134.48
330.009	56.66
330.222	36.18
330.435	5.46
330.648	75.09
330.861	44.37
331.073	-0.68
331.286	116.05
331.499	81.24
331.712	23.89
331.925	-10.92
332.138	97.62
332.35	75.09
332.563	77.14
332.776	7.51
332.989	34.13
333.202	105.81
333.414	64.85
333.627	46.42
333.84	68.95
334.053	19.8
334.265	3.41
334.478	136.53
334.691	85.33
334.903	44.37
335.116	9.56
335.329	36.18
335.541	107.86
335.754	111.96
335.966	126.29
336.179	25.94
336.392	44.37
336.604	19.8
336.817	36.18
337.029	19.8
337.242	132.44
337.454	66.9
337.667	27.99
337.88	60.76
338.092	13.65
338.305	114
338.517	62.8
338.729	17.75
338.942	56.66
339.154	42.32
339.367	44.37
339.579	-31.4
339.792	66.9
340.004	97.62
340.217	32.08
340.429	34.13
340.641	15.7
340.854	58.71
341.066	3.41
341.278	42.32
341.491	152.91
341.703	56.66
341.915	-41.64
342.128	109.91
342.34	58.71
342.552	27.99
342.764	62.8
342.977	97.62
343.189	7.51
343.401	40.28
343.613	30.04
343.826	126.29
344.038	101.72
344.25	32.08
344.462	9.56
344.674	-6.83
344.886	32.08
345.099	19.8
345.311	-6.83
345.523	7.51
345.735	11.61
345.947	79.19
346.159	42.32
346.371	122.2
346.583	93.52
346.795	93.52
347.007	60.76
347.219	73.04
347.431	7.51
347.643	83.28
347.855	54.61
348.067	101.72
348.279	-2.73
348.491	34.13
348.703	44.37
348.915	25.94
349.127	-2.73
349.339	36.18
349.551	48.47
349.763	-15.02
349.975	-21.16
350.187	50.52
350.399	77.14
350.61	97.62
350.822	27.99
351.034	40.28
351.246	-17.07
351.458	19.8
351.669	64.85
351.881	46.42
352.093	77.14
352.305	30.04
352.517	54.61
352.728	42.32
352.94	71
353.152	68.95
353.363	25.94
353.575	105.81
353.787	27.99
353.999	85.33
354.21	54.61
354.422	79.19
354.633	-8.87
354.845	42.32
355.057	93.52
355.268	73.04
355.48	21.85
355.692	66.9
355.903	99.67
356.115	7.51
356.326	19.8
356.538	73.04
356.749	66.9
356.961	34.13
357.172	-0.68
357.384	34.13
357.595	132.44
357.807	97.62
358.018	81.24
358.23	71
358.441	27.99
358.653	165.2
358.864	15.7
359.075	5.46
359.287	146.77
359.498	58.71
359.709	85.33
359.921	85.33
360.132	-0.68
360.344	46.42
360.555	77.14
360.766	9.56
360.977	15.7
361.189	46.42
361.4	25.94
361.611	58.71
361.823	64.85
362.034	34.13
362.245	19.8
362.456	116.05
362.667	89.43
362.879	79.19
363.09	60.76
363.301	103.76
363.512	58.71
363.723	38.23
363.935	-4.78
364.146	77.14
364.357	25.94
364.568	13.65
364.779	5.46
364.99	77.14
365.201	-8.87
365.412	105.81
365.623	46.42
365.834	38.23
366.045	19.8
366.256	46.42
366.467	60.76
366.678	42.32
366.889	118.1
367.1	40.28
367.311	89.43
367.522	118.1
367.733	50.52
367.944	163.15
368.155	38.23
368.366	38.23
368.577	42.32
368.788	93.52
368.999	-10.92
369.209	52.56
369.42	81.24
369.631	93.52
369.842	58.71
370.053	91.48
370.264	105.81
370.474	93.52
370.685	54.61
370.896	62.8
371.107	114
371.317	130.39
371.528	77.14
371.739	130.39
371.95	27.99
372.16	116.05
372.371	-25.26
372.582	44.37
372.792	97.62
373.003	118.1
373.214	30.04
373.424	52.56
373.635	-23.21
373.846	140.63
374.056	71
374.267	138.58
374.477	73.04
374.688	75.09
374.898	42.32
375.109	111.96
375.319	83.28
375.53	44.37
375.74	109.91
375.951	23.89
376.161	58.71
376.372	93.52
376.582	7.51
376.793	27.99
377.003	81.24
377.214	15.7
377.424	27.99
377.635	134.48
377.845	64.85
378.055	46.42
378.266	15.7
378.476	83.28
378.686	64.85
378.897	46.42
379.107	68.95
379.317	118.1
379.528	40.28
379.738	138.58
379.948	44.37
380.158	85.33
380.369	73.04
380.579	52.56
380.789	62.8
380.999	101.72
381.21	130.39
381.42	48.47
381.63	126.29
381.84	17.75
382.05	77.14
382.261	134.48
382.471	101.72
382.681	40.28
382.891	40.28
383.101	142.68
383.311	23.89
383.521	40.28
383.731	13.65
383.941	142.68
384.151	79.19
384.361	93.52
384.571	-6.83
384.781	50.52
384.991	81.24
385.201	99.67
385.411	109.91
385.621	71
385.831	30.04
386.041	111.96
386.251	54.61
386.461	154.96
386.671	44.37
386.881	81.24
387.091	71
387.301	66.9
387.511	83.28
387.72	46.42
387.93	56.66
388.14	1.37
388.35	44.37
388.56	64.85
388.769	77.14
388.979	91.48
389.189	150.87
389.399	15.7
389.609	77.14
389.818	73.04
390.028	25.94
390.238	71
390.447	50.52
390.657	132.44
390.867	23.89
391.076	62.8
391.286	23.89
391.496	109.91
391.705	75.09
391.915	46.42
392.125	140.63
392.334	62.8
392.544	152.91
392.753	71
392.963	128.34
393.172	34.13
393.382	56.66
393.591	66.9
393.801	71
394.01	118.1
394.22	68.95
394.429	124.24
394.639	128.34
394.848	54.61
395.058	120.15
395.267	93.52
395.477	148.82
395.686	60.76
395.895	120.15
396.105	165.2
396.314	154.96
396.524	111.96
396.733	71
396.942	169.3
397.152	140.63
397.361	134.48
397.57	93.52
397.78	167.25
397.989	103.76
398.198	144.72
398.407	46.42
398.617	64.85
398.826	44.37
399.035	126.29
399.244	159.06
399.453	128.34
399.663	81.24
399.872	116.05
400.081	103.76
400.29	175.44
400.499	122.2
400.708	107.86
400.917	111.96
401.127	189.78
401.336	83.28
401.545	152.91
401.754	120.15
401.963	161.11
402.172	101.72
402.381	32.08
402.59	93.52
402.799	150.87
403.008	114
403.217	83.28
403.426	152.91
403.635	91.48
403.844	136.53
404.053	79.19
404.262	64.85
404.471	122.2
404.68	150.87
404.888	150.87
405.097	134.48
405.306	163.15
405.515	232.79
405.724	120.15
405.933	163.15
406.142	140.63
406.35	216.4
406.559	157.01
406.768	175.44
406.977	191.83
407.185	173.39
407.394	195.92
407.603	226.64
407.812	214.35
408.02	208.21
408.229	191.83
408.438	193.87
408.646	202.07
408.855	226.64
409.064	210.26
409.272	195.92
409.481	333.14
409.69	275.79
409.898	281.94
410.107	306.51
410.315	286.03
410.524	329.04
410.733	343.38
410.941	359.76
411.15	326.99
411.358	390.48
411.567	359.76
411.775	318.8
411.984	419.15
412.192	390.48
412.401	437.58
412.609	458.06
412.818	464.21
413.026	431.44
413.234	449.87
413.443	441.68
413.651	494.93
413.86	494.93
414.068	568.65
414.276	666.96
414.485	615.76
414.693	591.18
414.901	689.48
415.11	671.05
415.318	699.72
415.526	677.19
415.734	703.82
415.943	800.07
416.151	808.27
416.359	695.63
416.567	789.83
416.776	841.03
416.984	869.7
417.192	1008.97
417.4	963.91
417.608	853.32
417.817	949.57
418.025	992.58
418.233	1074.5
418.441	1037.64
418.649	1146.18
418.857	1181
419.065	1285.44
419.273	1103.17
419.481	1240.39
419.689	1353.02
419.897	1406.27
420.105	1463.62
420.313	1414.46
420.521	1500.48
420.729	1469.76
420.937	1551.68
421.145	1649.98
421.353	1754.43
421.561	1783.1
421.769	1762.62
421.977	1828.15
422.185	1918.26
422.393	1885.5
422.601	2129.2
422.809	2139.44
423.017	2075.96
423.224	2159.92
423.432	2188.6
423.64	2348.34
423.848	2508.08
424.056	2501.94
424.263	2528.56
424.471	2624.81
424.679	2659.63
424.887	2805.03
425.094	2876.71
425.302	2975.02
425.51	3071.27
425.718	3054.89
425.925	3075.37
426.133	3145
426.341	3333.41
426.548	3548.45
426.756	3595.55
426.964	3620.13
427.171	3839.26
427.379	3949.85
427.586	3902.75
427.794	4060.44
428.001	4281.62
428.209	4435.22
428.417	4381.97
428.624	4734.22
428.832	4756.75
429.039	4699.41
429.247	4637.97
429.454	5123.34
429.662	5377.28
429.869	5250.31
430.076	5438.72
430.284	5330.18
430.491	5520.64
430.699	5786.88
430.906	5770.49
431.114	5905.66
431.321	5940.47
431.528	6268.15
431.736	6700.27
431.943	6993.13
432.15	6823.15
432.358	6898.92
432.565	7281.89
432.772	7224.55
432.979	7605.47
433.187	7884
433.394	7726.3
433.601	8279.25
433.808	8320.21
434.016	8244.44
434.223	8838.35
434.43	9143.5
434.637	8871.12
434.844	9430.21
435.052	9725.12
435.259	9700.55
435.466	9727.17
435.673	9493.7
435.88	10222.78
436.087	10894.51
436.294	10738.87
436.501	10396.85
436.708	10728.63
436.915	11082.92
437.122	11500.71
437.329	11513
437.537	11807.91
437.743	11986.08
437.95	12117.15
438.157	12758.16
438.364	13110.41
438.571	12852.37
438.778	13073.55
438.985	14175.36
439.192	13681.8
439.399	14029.95
439.606	13870.21
439.813	14697.59
440.02	15594.6
440.227	15314.03
440.433	14842.99
440.64	15838.31
440.847	15455.34
441.054	15764.58
441.261	16862.29
441.467	16542.81
441.674	17224.78
441.881	17318.99
442.088	17198.16
442.294	17468.49
442.501	17886.28
442.708	18213.95
442.914	18654.26
443.121	19801.13
443.328	19168.3
443.534	20685.85
443.741	19921.96
443.948	19792.94
444.154	21167.12
444.361	20788.25
444.568	21267.47
444.774	20931.61
444.981	21447.69
445.187	21920.77
445.394	22754.3
445.6	22711.29
445.807	24880.09
446.013	23344.11
446.22	24302.56
446.426	25154.52
446.633	25275.35
446.839	26061.77
447.046	25242.58
447.252	26342.34
447.459	26584
447.665	26309.57
447.871	27530.16
448.078	28654.5
448.284	27327.41
448.491	28068.78
448.697	29129.62
448.903	29668.24
449.11	29504.4
449.316	28806.05
449.522	29760.4
449.728	30509.96
449.935	30524.29
450.141	31001.47
450.347	30985.08
450.553	30559.11
450.76	30837.63
450.966	31671.15
451.172	31341.43
451.378	31587.19
451.584	31611.76
451.791	32084.84
451.997	32050.03
452.203	32236.39
452.409	32557.92
452.615	32269.16
452.821	31011.71
453.027	30776.19
453.233	32465.77
453.44	30854.01
453.646	31273.85
453.852	31513.46
454.058	32107.37
454.264	31015.8
454.47	31685.49
454.676	30628.74
454.882	31785.84
455.088	29072.28
455.294	29535.12
455.5	29766.54
455.705	30077.83
455.911	28748.7
456.117	28580.77
456.323	28242.85
456.529	26586.05
456.735	27544.5
456.941	26923.96
457.147	26581.95
457.352	25744.33
457.558	25256.92
457.764	25443.28
457.97	24994.78
458.176	24366.05
458.381	24167.4
458.587	23432.18
458.793	23174.13
458.999	21840.9
459.204	23487.47
459.41	23014.39
459.616	21128.21
459.821	21709.83
460.027	21337.1
460.233	21060.63
460.438	20034.6
460.644	20370.46
460.85	19213.36
461.055	18906.16
461.261	18764.85
461.466	17443.92
461.672	17099.86
461.878	18275.39
462.083	17103.95
462.289	16772.18
462.494	16522.33
462.7	15828.07
462.905	15363.18
463.111	15930.47
463.316	15918.18
463.522	15473.77
463.727	15688.81
463.932	15514.73
464.138	15490.15
464.343	15377.51
464.549	14873.71
464.754	15780.96
464.959	15504.49
465.165	15117.42
465.37	14433.4
465.575	14494.84
465.781	14947.44
465.986	14945.39
466.191	14396.54
466.397	14322.81
466.602	13272.2
466.807	13921.41
467.012	14091.39
467.218	13993.09
467.423	13603.97
467.628	14048.38
467.833	14462.07
468.038	13542.53
468.244	13468.81
468.449	13902.98
468.654	13481.1
468.859	13610.12
469.064	13436.04
469.269	12926.1
469.474	12872.85
469.679	13098.13
469.885	12792.98
470.09	13083.79
470.295	12674.2
470.5	12702.87
470.705	12709.01
470.91	12389.53
471.115	12166.3
471.32	12387.48
471.525	12291.23
471.73	12231.83
471.935	11990.17
472.139	11482.28
472.344	11644.07
472.549	11402.41
472.754	11300.01
472.959	11230.38
473.164	10992.81
473.369	10841.26
473.574	11132.08
473.778	11123.88
473.983	10859.7
474.188	11058.35
474.393	10384.57
474.598	10638.51
474.802	10400.95
475.007	10431.67
475.212	10489.01
475.417	10015.93
475.621	9968.83
475.826	10343.61
476.031	9817.28
476.235	9764.03
476.44	9903.29
476.645	9567.43
476.849	9714.88
477.054	9557.19
477.259	9407.69
477.463	9297.1
477.668	9229.51
477.872	9192.65
478.077	9075.91
478.282	8821.97
478.486	8903.89
478.691	8662.23
478.895	8785.1
479.1	8512.72
479.304	8641.75
479.509	8494.29
479.713	8645.84
479.918	8572.11
480.122	8289.49
480.326	8631.51
480.531	8248.54
480.735	8363.22
480.94	8271.06
481.144	8606.93
481.348	8209.62
481.553	8176.86
481.757	8176.86
481.961	8191.19
482.166	8041.69
482.37	8223.96
482.574	7924.96
482.778	8133.85
482.983	8279.25
483.187	8086.75
483.391	8045.79
483.595	8006.88
483.8	7838.94
484.004	8135.9
484.208	7959.77
484.412	7978.2
484.616	7955.68
484.821	8072.41
485.025	7976.16
485.229	8092.89
485.433	7820.51
485.637	8015.07
485.841	7886.05
486.045	8015.07
486.249	8111.32
486.453	8133.85
486.657	7941.34
486.861	7957.72
487.065	7998.68
487.269	7908.57
487.473	8094.94
487.677	8152.28
487.881	8088.79
488.085	7949.53
488.289	8086.75
488.493	8025.31
488.697	8066.27
488.901	8172.76
489.105	8193.24
489.309	8154.33
489.512	8043.74
489.716	8203.48
489.92	7996.64
490.124	8101.08
490.328	8379.61
490.531	8162.52
490.735	8269.02
490.939	8336.6
491.143	8248.54
491.346	8289.49
491.55	8494.29
491.754	8207.58
491.958	8301.78
492.161	8498.39
492.365	8340.69
492.569	8287.45
492.772	8402.13
492.976	8705.23
493.18	8649.94
493.383	8686.8
493.587	8901.84
493.79	8883.41
493.994	8572.11
494.197	8766.67
494.401	8940.75
494.605	9051.34
494.808	9018.57
495.012	9086.15
495.215	9129.16
495.419	9065.67
495.622	9088.2
495.825	9239.75
496.029	9243.85
496.232	9583.81
496.436	9473.22
496.639	9667.78
496.843	9770.18
497.046	9860.29
497.249	10056.89
497.453	10233.02
497.656	10079.42
497.859	10081.47
498.063	10370.23
498.266	10583.22
498.469	10280.12
498.673	10386.61
498.876	10572.98
499.079	10702
499.282	10845.36
499.485	11156.65
499.689	11019.44
499.892	11179.18
500.095	11289.77
500.298	11668.64
500.501	11433.13
500.705	11666.6
500.908	11947.17
501.111	11850.91
501.314	12117.15
501.517	12176.54
501.72	12309.66
501.923	12192.92
502.126	12442.78
502.329	12866.7
502.532	12928.14
502.735	12883.09
502.938	13257.87
503.141	13419.66
503.344	13501.58
503.547	13417.61
503.75	13788.29
503.953	13835.39
504.156	14025.86
504.359	14267.52
504.562	14335.1
504.765	14658.68
504.968	14584.95
505.17	14865.52
505.373	14853.23
505.576	15240.3
505.779	15101.04
505.982	15404.14
506.185	15451.24
506.387	15715.43
506.59	15938.66
506.793	16041.06
506.996	15983.71
507.198	16544.86
507.401	16286.81
507.604	16645.21
507.807	16872.53
508.009	16807
508.212	17030.23
508.415	17306.7
508.617	17472.59
508.82	17718.34
509.022	17376.33
509.225	17984.58
509.428	18158.66
509.63	18123.84
509.833	18232.38
510.035	19018.8
510.238	18723.9
510.44	19160.11
510.643	19340.33
510.845	19588.14
511.048	19344.43
511.25	19860.52
511.453	19903.53
511.655	20593.69
511.858	20243.49
512.06	20212.77
512.262	20741.14
512.465	20735
512.667	20923.41
512.87	21259.28
513.072	21324.82
513.274	21662.73
513.477	21926.92
513.679	22160.39
513.881	22342.66
514.084	22313.98
514.286	22520.83
514.488	22672.38
514.69	23299.06
514.893	23143.41
515.095	23598.06
515.297	23694.32
515.499	23546.86
515.701	24021.99
515.904	24157.16
516.106	24581.09
516.308	24591.33
516.51	24880.09
516.712	25058.26
516.914	25334.74
517.116	26061.77
517.318	25840.59
517.52	26084.3
517.722	26168.26
517.925	26321.86
518.127	26778.56
518.329	27005.88
518.531	26762.17
518.733	27526.07
518.935	27227.06
519.136	27698.09
519.338	28031.91
519.54	28042.15
519.742	28384.16
519.944	28236.71
520.146	28775.33
520.348	29012.89
520.55	29369.24
520.752	29438.87
520.954	29887.37
521.155	29561.75
521.357	30229.38
521.559	30579.59
521.761	30862.21
521.963	30800.77
522.164	31212.41
522.366	31173.5
522.568	31333.24
522.77	31632.24
522.971	32015.21
523.173	31419.25
523.375	32246.63
523.576	32279.4
523.778	31984.49
523.98	32838.5
524.181	32826.21
524.383	32867.17
524.584	33317.72
524.786	33114.97
524.988	33076.06
525.189	33622.87
525.391	34222.92
525.592	34564.93
525.794	34110.28
525.995	34067.28
526.197	34784.07
526.398	34229.07
526.6	34724.68
526.801	34671.43
527.003	34820.93
527.204	35013.44
527.406	35570.49
527.607	35191.61
527.808	35552.05
528.01	35152.7
528.211	35150.65
528.412	36406.06
528.614	36281.13
528.815	36219.69
529.016	36211.5
529.218	35760.95
529.419	36481.83
529.62	36148.01
529.822	36256.56
530.023	36287.28
530.224	36070.19
530.425	36629.29
530.626	36537.13
530.828	36037.42
531.029	36989.73
531.23	36502.31
531.431	36533.03
531.632	36789.03
531.833	37067.55
532.035	36827.94
532.236	36803.36
532.437	37266.2
532.638	36856.61
532.839	36909.86
533.04	37036.83
533.241	36559.66
533.442	37620.5
533.643	37724.95
533.844	37131.04
534.045	37317.4
534.246	36905.76
534.447	37229.34
534.648	37081.89
534.849	37219.1
535.05	37292.83
535.251	37501.72
535.451	37190.43
535.652	37815.06
535.853	37651.22
536.054	37944.08
536.255	37464.86
536.456	37278.49
536.657	38073.1
536.857	37794.58
537.058	37139.23
537.259	37384.99
537.46	37954.32
537.66	37128.99
537.861	37520.15
538.062	37796.63
538.263	37520.15
538.463	37344.03
538.664	37120.8
538.865	37292.83
539.065	37972.75
539.266	36991.78
539.466	37518.1
539.667	37067.55
539.868	38048.53
540.068	37290.78
540.269	37571.35
540.469	37536.54
540.67	37397.27
540.87	37548.82
541.071	37434.14
541.271	37466.91
541.472	37669.65
541.672	37331.74
541.873	37458.71
542.073	36793.12
542.274	37872.4
542.474	37466.91
542.675	37233.44
542.875	37724.95
543.075	37253.92
543.276	36889.38
543.476	37503.77
543.676	37258.01
543.877	37479.19
544.077	37493.53
544.277	37626.65
544.478	37274.4
544.678	37348.12
544.878	37038.88
545.078	37432.09
545.279	37120.8
545.479	37384.99
545.679	37466.91
545.879	37413.66
546.079	37159.71
546.28	37008.16
546.48	37067.55
546.68	37188.38
546.88	37065.5
547.08	37202.72
547.28	37002.02
547.48	36934.43
547.68	37290.78
547.88	37049.12
548.081	37266.2
548.281	36999.97
548.481	36694.82
548.681	37157.66
548.881	36981.54
549.081	36897.57
549.28	36952.87
549.48	37204.77
549.68	36784.93
549.88	37006.11
550.08	36766.5
550.28	36901.67
550.48	36758.31
550.68	37108.51
550.88	36860.71
551.08	36735.78
551.279	37030.69
551.479	36899.62
551.679	36635.43
551.879	36797.22
552.079	36954.91
552.278	36610.85
552.478	36903.71
552.678	36500.26
552.878	36760.36
553.077	37090.08
553.277	36320.04
553.477	36952.87
553.676	36623.14
553.876	36715.3
554.076	36350.76
554.275	36637.48
554.475	35912.5
554.674	36776.74
554.874	36301.61
555.074	35894.07
555.273	36240.17
555.473	36905.76
555.672	36086.57
555.872	36088.62
556.071	36457.26
556.271	36424.49
556.47	35961.65
556.67	36008.75
556.869	36010.8
557.068	36000.56
557.268	35613.49
557.467	35873.59
557.667	35584.82
557.866	35713.84
558.065	35947.31
558.265	35519.29
558.464	35371.83
558.663	35468.09
558.863	35351.35
559.062	36018.99
559.261	35027.77
559.461	35541.81
559.66	34972.48
559.859	35545.91
560.058	34913.09
560.258	35087.17
560.457	35001.15
560.656	34974.53
560.855	35271.48
561.054	34925.38
561.253	34630.47
561.453	35187.52
561.652	34882.37
561.851	35111.74
562.05	34394.95
562.249	34628.42
562.448	34337.61
562.647	34427.72
562.846	34786.11
563.045	34509.64
563.244	33964.88
563.443	34509.64
563.642	33833.81
563.841	33985.36
564.04	33868.62
564.239	34077.52
564.438	33653.59
564.637	33823.57
564.836	33745.75
565.035	33430.36
565.234	33829.71
565.432	33352.54
565.631	33346.39
565.83	33454.93
566.029	33311.58
566.228	33016.67
566.427	33037.15
566.625	32967.52
566.824	32387.94
567.023	33160.03
567.222	32516.97
567.42	32928.61
567.619	32910.18
567.818	32201.58
568.016	32396.14
568.215	32760.67
568.414	32310.12
568.612	32600.93
568.811	32086.89
569.01	32226.15
569.208	31751.02
569.407	32109.42
569.605	31728.5
569.804	31880.05
570.002	31656.82
570.201	31976.3
570.4	31368.05
570.598	31552.37
570.797	31300.47
570.995	31533.94
571.193	31206.27
571.392	31513.46
571.59	31097.72
571.789	31028.09
571.987	30765.95
572.186	30649.22
572.384	30649.22
572.582	30847.87
572.781	30772.1
572.979	30167.94
573.177	30417.8
573.376	30337.93
573.574	30215.05
573.772	30546.82
573.971	30190.47
574.169	29916.04
574.367	30004.11
574.565	30157.71
574.763	29760.4
574.962	29617.04
575.16	29406.1
575.358	29430.68
575.556	29383.57
575.754	29879.18
575.952	29039.51
576.151	29457.3
576.349	29279.13
576.547	28976.03
576.745	29256.6
576.943	29016.99
577.141	28795.81
577.339	29074.33
577.537	28484.51
577.735	28781.47
577.933	28322.73
578.131	28328.87
578.329	28246.95
578.527	28236.71
578.725	28396.45
578.923	28101.54
579.121	28337.06
579.319	27902.89
579.516	28357.54
579.714	27956.14
579.912	27757.49
580.11	27782.06
580.308	27433.91
580.506	27964.33
580.704	27063.22
580.901	27544.5
581.099	27573.17
581.297	27120.57
581.495	27163.57
581.692	27282.36
581.89	26971.07
582.088	27098.04
582.285	26817.47
582.483	27229.11
582.681	26948.54
582.878	26379.2
583.076	26471.36
583.274	26491.84
583.471	26346.44
583.669	26586.05
583.866	25953.23
584.064	26526.66
584.262	25994.18
584.459	26483.65
584.657	26252.23
584.854	25924.55
585.052	25545.68
585.249	25887.69
585.447	25637.84
585.644	25387.99
585.841	25502.67
586.039	25803.72
586.236	25371.6
586.434	25238.48
586.631	25261.01
586.828	25209.81
587.026	25514.96
587.223	25150.42
587.42	24962.01
587.618	25342.93
587.815	24837.08
588.012	24869.85
588.21	24574.94
588.407	24886.23
588.604	24280.03
588.801	24544.22
588.999	24359.91
589.196	24433.63
589.393	24288.23
589.59	24257.51
589.787	23923.69
589.984	24151.01
590.182	23593.97
590.379	24351.71
590.576	23624.68
590.773	23813.1
590.97	23868.39
591.167	24001.51
591.364	23276.53
591.561	23563.25
591.758	23143.41
591.955	23385.07
592.152	23389.17
592.349	23202.8
592.546	23145.46
592.743	23213.04
592.94	22727.67
593.137	22914.04
593.334	23131.12
593.531	22561.79
593.727	22897.66
593.924	22815.74
594.121	22301.7
594.318	22518.78
594.515	22537.21
594.712	22520.83
594.908	22215.68
595.105	22600.7
595.302	22385.66
595.499	22248.45
595.696	22168.58
595.892	21912.58
596.089	22021.13
596.286	22103.04
596.482	21953.54
596.679	21947.4
596.876	21615.63
597.072	21761.03
597.269	21511.18
597.466	21517.33
597.662	21324.82
597.859	21390.35
598.055	21367.82
598.252	21025.81
598.448	21083.16
598.645	21120.02
598.841	20853.78
599.038	21099.54
599.234	21265.42
599.431	20800.54
599.627	20595.74
599.824	20909.08
600.02	20700.19
600.217	20737.05
600.413	20515.87
600.609	20667.42
600.806	20180
601.002	20431.9
601.198	20450.33
601.395	20345.89
601.591	20141.09
601.787	20329.5
601.984	20110.37
602.18	20263.97
602.376	19934.25
602.572	20040.74
602.769	19915.81
602.965	19608.62
603.161	19889.19
603.357	19680.3
603.553	19581.99
603.75	19516.46
603.946	19541.04
604.142	19557.42
604.338	19106.87
604.534	19307.57
604.73	19166.26
604.926	19098.67
605.122	19014.71
605.318	18900.02
605.514	18744.38
605.71	18928.69
605.906	18771
606.102	18781.24
606.298	18814.01
606.494	18822.2
606.69	18842.68
606.886	18635.83
607.082	18322.49
607.278	18746.42
607.474	17980.48
607.67	18771
607.866	18193.47
608.062	18330.69
608.257	18254.91
608.453	18314.3
608.649	18238.53
608.845	17806.41
609.041	18082.88
609.236	18086.98
609.432	18232.38
609.628	18080.83
609.824	18046.02
610.019	17759.3
610.215	17873.99
610.411	17855.56
610.606	17894.47
610.802	17812.55
610.998	17585.22
611.193	17677.38
611.389	17570.89
611.584	17624.14
611.78	17300.56
611.976	17405
612.171	17390.67
612.367	17687.62
612.562	17306.7
612.758	17151.06
612.953	17116.24
613.149	17374.28
613.344	17267.79
613.539	17452.11
613.735	17300.56
613.93	16974.93
614.126	16909.4
614.321	17069.14
614.517	17118.29
614.712	16876.63
614.907	16895.06
615.103	17089.62
615.298	16856.15
615.493	16882.77
615.688	16673.88
615.884	17081.42
616.079	16710.74
616.274	16802.9
616.47	16884.82
616.665	16749.65
616.86	16630.87
617.055	16514.14
617.25	16618.58
617.445	16694.36
617.641	16319.58
617.836	16473.18
618.031	16221.28
618.226	16522.33
618.421	16315.48
618.616	16362.59
618.811	15952.99
619.006	16131.17
619.201	15971.43
619.396	15963.23
619.591	15680.61
619.786	15907.94
619.981	15596.65
620.176	15791.2
620.371	15602.79
620.566	15715.43
620.761	15643.75
620.956	15447.15
621.151	15346.8
621.346	15332.46
621.541	15125.61
621.735	15266.92
621.93	14984.3
622.125	14959.73
622.32	14877.81
622.515	14998.64
622.709	14802.04
622.904	14695.54
623.099	14892.15
623.294	14859.38
623.488	14541.94
623.683	14298.24
623.878	13931.65
624.072	14142.59
624.267	14081.15
624.462	14240.89
624.656	14220.41
624.851	14079.1
625.046	13876.35
625.24	13821.06
625.435	13626.5
625.629	13835.39
625.824	13683.84
626.018	13569.16
626.213	13253.77
626.407	13454.47
626.602	13059.21
626.796	13372.55
626.991	13046.93
627.185	12954.77
627.38	13206.67
627.574	12991.63
627.768	12696.72
627.963	13075.6
628.157	12962.96
628.352	12643.48
628.546	12479.64
628.74	12754.07
628.935	12471.45
629.129	12479.64
629.323	12323.99
629.517	12235.93
629.712	12217.5
629.906	12399.77
630.1	12121.24
630.294	11961.5
630.489	11971.74
630.683	11850.91
630.877	11967.65
631.071	11795.62
631.265	11951.26
631.459	11750.56
631.653	11734.18
631.848	11615.4
632.042	11732.13
632.236	11455.65
632.43	11355.3
632.624	11250.86
632.818	11281.58
633.012	10968.24
633.206	11103.4
633.4	11070.64
633.594	11023.53
633.788	10962.09
633.982	10900.65
634.176	10960.05
634.369	10781.87
634.563	10755.25
634.757	10767.54
634.951	10704.05
635.145	10558.64
635.339	10685.62
635.533	10489.01
635.726	10403
635.92	10265.78
636.114	10300.6
636.308	10482.87
636.501	10495.16
636.695	10233.02
636.889	10075.32
637.083	9911.49
637.276	10069.18
637.47	10130.62
637.664	10048.7
637.857	9872.57
638.051	9723.07
638.244	9739.46
638.438	9565.38
638.632	9596.1
638.825	9684.16
639.019	9538.76
639.212	9551.04
639.406	9456.84
639.599	9440.45
639.793	9403.59
639.986	9284.81
640.18	9290.95
640.373	9344.2
640.567	9286.86
640.76	9100.49
640.954	8830.16
641.147	8910.03
641.34	8940.75
641.534	8907.98
641.727	8981.71
641.92	8918.22
642.114	8807.63
642.307	8688.85
642.5	8809.68
642.694	8475.86
642.887	8580.31
643.08	8557.78
643.273	8238.3
643.467	8297.69
643.66	8334.55
643.853	8242.39
644.046	8232.15
644.239	8244.44
644.432	8203.48
644.626	8023.26
644.819	8162.52
645.012	8060.12
645.205	7990.49
645.398	7974.11
645.591	7947.48
645.784	7931.1
645.977	7896.28
646.17	7904.48
646.363	7582.95
646.556	7695.58
646.749	7775.45
646.942	7660.77
647.135	7576.8
647.328	7636.19
647.521	7519.46
647.714	7576.8
647.907	7384.29
648.099	7267.56
648.292	7408.87
648.485	7351.53
648.678	7281.89
648.871	7388.39
649.064	7206.12
649.256	7236.84
649.449	7302.37
649.642	7189.74
649.835	7021.8
650.027	7083.24
650.22	6874.35
650.413	6956.27
650.605	6745.33
650.798	6866.16
650.991	6673.65
651.183	6880.49
651.376	6808.81
651.568	6692.08
651.761	6573.3
651.954	6696.18
652.146	6653.17
652.339	6511.86
652.531	6653.17
652.724	6466.8
652.916	6438.13
653.109	6491.38
653.301	6458.61
653.494	6599.92
653.686	6266.1
653.879	6630.64
654.071	6315.25
654.263	6192.37
654.456	6305.01
654.648	6311.16
654.84	6210.81
655.033	5901.56
655.225	6204.66
655.417	6046.97
655.61	6018.3
655.802	6157.56
655.994	5833.98
656.186	5829.88
656.379	5874.94
656.571	5737.73
656.763	5854.46
656.955	5756.16
657.148	5637.38
657.34	5651.71
657.532	5700.86
657.724	5637.38
657.916	5666.05
658.108	5684.48
658.3	5561.6
658.492	5469.44
658.684	5594.37
658.876	5631.23
659.068	5461.25
659.26	5567.74
659.452	5563.65
659.644	5348.61
659.836	5369.09
660.028	5623.04
660.22	5258.5
660.412	5307.65
660.604	5180.68
660.796	5205.25
660.988	5258.5
661.18	5254.41
661.372	5178.63
661.563	5195.01
661.755	5182.73
661.947	5158.15
662.139	4883.72
662.331	5010.7
662.522	4873.48
662.714	4908.3
662.906	5068.04
663.097	4824.33
663.289	4826.38
663.481	4853
663.673	4932.87
663.864	4818.19
664.056	4906.25
664.247	4791.56
664.439	4793.61
664.631	4820.24
664.822	4592.91
665.014	4820.24
665.205	4680.97
665.397	4666.64
665.588	4558.1
665.78	4599.06
665.971	4500.75
666.163	4605.2
666.354	4435.22
666.546	4529.42
666.737	4480.27
666.929	4429.07
667.12	4273.43
667.311	4439.31
667.503	4433.17
667.694	4355.35
667.885	4345.11
668.077	4338.96
668.268	4211.99
668.459	4144.41
668.651	4181.27
668.842	4228.37
669.033	4300.05
669.224	4173.08
669.416	4300.05
669.607	4080.92
669.798	3951.9
669.989	4220.18
670.18	4154.65
670.371	4033.82
670.563	4050.2
670.754	3974.42
670.945	3925.27
671.136	4009.24
671.327	4017.43
671.518	3927.32
671.709	3937.56
671.9	4054.3
672.091	3925.27
672.282	3835.16
672.473	3824.92
672.664	3878.17
672.855	3886.36
673.046	3839.26
673.237	3808.54
673.428	3732.76
673.619	3800.35
673.809	3656.99
674	3636.51
674.191	3788.06
674.382	3685.66
674.573	3656.99
674.764	3724.57
674.954	3679.52
675.145	3595.55
675.336	3730.72
675.527	3636.51
675.717	3749.15
675.908	3503.39
676.099	3622.17
676.289	3587.36
676.48	3538.21
676.671	3560.73
676.861	3640.61
677.052	3376.42
677.243	3382.56
677.433	3538.21
677.624	3439.9
677.814	3374.37
678.005	3548.45
678.195	3523.87
678.386	3394.85
678.576	3437.86
678.767	3376.42
678.957	3310.88
679.148	3415.33
679.338	3290.4
679.529	3282.21
679.719	3329.31
679.909	3345.7
680.1	3226.92
680.29	3312.93
680.481	3298.6
680.671	3212.58
680.861	3282.21
681.052	3407.14
681.242	3069.22
681.432	3282.21
681.622	3282.21
681.813	3267.88
682.003	3202.34
682.193	3218.72
682.383	3282.21
682.573	3249.44
682.764	3218.72
682.954	3179.81
683.144	3200.29
683.334	3108.13
683.524	3140.9
683.714	3282.21
683.904	3239.2
684.094	3112.23
684.284	3237.16
684.474	3067.17
684.664	3065.13
684.854	3067.17
685.044	3044.65
685.234	3063.08
685.424	2960.68
685.614	2960.68
685.804	3087.65
685.994	2983.21
686.184	2995.5
686.374	2948.39
686.564	2839.85
686.753	3034.41
686.943	2913.58
687.133	2942.25
687.323	2858.28
687.513	2948.39
687.702	2972.97
687.892	2866.47
688.082	2747.69
688.272	2889
688.461	2825.51
688.651	2833.71
688.841	2903.34
689.03	2729.26
689.22	2794.79
689.41	2876.71
689.599	2827.56
689.789	2721.07
689.979	2651.44
690.168	2796.84
690.358	2819.37
690.547	2663.72
690.737	2637.1
690.926	2719.02
691.116	2600.24
691.305	2743.6
691.495	2747.69
691.684	2639.15
691.874	2684.2
692.063	2604.33
692.252	2745.64
692.442	2659.63
692.631	2608.43
692.82	2653.48
693.01	2604.33
693.199	2725.16
693.388	2501.94
693.578	2546.99
693.767	2575.66
693.956	2536.75
694.146	2659.63
694.335	2477.36
694.524	2491.7
694.713	2559.28
694.902	2583.85
695.092	2544.94
695.281	2434.35
695.47	2434.35
695.659	2432.3
695.848	2549.04
696.037	2383.15
696.226	2526.51
696.415	2473.26
696.604	2501.94
696.793	2489.65
696.982	2420.02
697.171	2440.5
697.36	2444.59
697.549	2331.95
697.738	2399.54
697.927	2370.87
698.116	2475.31
698.305	2352.43
698.494	2432.3
698.683	2417.97
698.872	2399.54
699.061	2428.21
699.25	2471.22
699.438	2528.56
699.627	2477.36
699.816	2374.96
700.005	2397.49
700.193	2458.93
700.382	2288.95
700.571	2456.88
700.76	2295.09
700.948	2385.2
701.137	2368.82
701.326	2329.91
701.514	2327.86
701.703	2372.91
701.892	2336.05
702.08	2446.64
702.269	2379.06
702.457	2377.01
702.646	2407.73
702.834	2383.15
703.023	2307.38
703.212	2395.44
703.4	2276.66
703.589	2383.15
703.777	2297.14
703.965	2209.08
704.154	2499.89
704.342	2262.32
704.531	2272.56
704.719	2360.63
704.907	2397.49
705.096	2305.33
705.284	2121.01
705.472	2288.95
705.661	2297.14
705.849	2348.34
706.037	2413.87
706.226	2321.71
706.414	2270.51
706.602	2164.02
706.79	2290.99
706.979	2350.39
707.167	2374.96
707.355	2295.09
707.543	2348.34
707.731	2354.48
707.919	2288.95
708.107	2350.39
708.296	2237.75
708.484	2204.98
708.672	2329.91
708.86	2415.92
709.048	2284.85
709.236	2233.65
709.424	2299.19
709.612	2362.67
709.8	2334
709.988	2311.47
710.176	2374.96
710.364	2319.67
710.551	2325.81
710.739	2288.95
710.927	2284.85
711.115	2344.24
711.303	2258.23
711.491	2204.98
711.679	2319.67
711.866	2250.03
712.054	2245.94
712.242	2223.41
712.43	2303.28
712.617	2264.37
712.805	2286.9
712.993	2334
713.181	2299.19
713.368	2278.71
713.556	2278.71
713.744	2266.42
713.931	2241.84
714.119	2284.85
714.306	2297.14
714.494	2350.39
714.682	2385.2
714.869	2264.37
715.057	2186.55
715.244	2223.41
715.432	2309.43
715.619	2264.37
715.807	2227.51
715.994	2149.68
716.182	2282.8
716.369	2268.47
716.556	2272.56
716.744	2305.33
716.931	2282.8
717.119	2245.94
717.306	2247.99
717.493	2344.24
717.681	2139.44
717.868	2147.64
718.055	2268.47
718.242	2209.08
718.43	2227.51
718.617	2352.43
718.804	2182.45
718.991	2323.76
719.179	2250.03
719.366	2221.36
719.553	2309.43
719.74	2102.58
719.927	2241.84
720.114	2102.58
720.301	2188.6
720.488	2164.02
720.676	2252.08
720.863	2245.94
721.05	2166.07
721.237	2204.98
721.424	2188.6
721.611	2217.27
721.798	2161.97
721.985	2176.31
722.172	2241.84
722.358	2219.32
722.545	2145.59
722.732	2184.5
722.919	2168.12
723.106	2110.77
723.293	2241.84
723.48	2198.84
723.667	2264.37
723.853	2112.82
724.04	2202.93
724.227	2278.71
724.414	2215.22
724.6	2147.64
724.787	2184.5
724.974	2215.22
725.161	2211.12
725.347	2190.64
725.534	2266.42
725.72	2151.73
725.907	2149.68
726.094	2207.03
726.28	2252.08
726.467	2174.26
726.653	2225.46
726.84	2082.1
727.027	2225.46
727.213	2192.69
727.4	2159.92
727.586	2247.99
727.773	2168.12
727.959	2170.16
728.145	2198.84
728.332	2075.96
728.518	2149.68
728.705	2219.32
728.891	2172.21
729.077	2252.08
729.264	2200.88
729.45	2262.32
729.636	2274.61
729.823	2215.22
730.009	2209.08
730.195	2106.68
730.382	2217.27
730.568	2182.45
730.754	2174.26
730.94	2147.64
731.126	2133.3
731.313	2164.02
731.499	2078.01
731.685	2243.89
731.871	2071.86
732.057	2161.97
732.243	2147.64
732.429	2215.22
732.615	2186.55
732.801	2071.86
732.987	2035
733.173	2002.23
733.359	2161.97
733.545	2225.46
733.731	2108.73
733.917	2114.87
734.103	2141.49
734.289	2157.88
734.475	2086.2
734.661	2184.5
734.847	2180.4
735.033	2186.55
735.219	2151.73
735.404	2100.53
735.59	2051.38
735.776	2243.89
735.962	2309.43
736.148	2057.53
736.333	2084.15
736.519	1973.56
736.705	2112.82
736.89	2010.42
737.076	2073.91
737.262	2104.63
737.447	2053.43
737.633	2082.1
737.819	2020.66
738.004	2041.14
738.19	2047.29
738.375	2022.71
738.561	1957.18
738.747	2090.29
738.932	1924.41
739.118	2254.13
739.303	2016.57
739.489	2059.57
739.674	1998.13
739.859	2057.53
740.045	2004.28
740.23	2012.47
740.416	1895.74
740.601	2100.53
740.786	2082.1
740.972	2010.42
741.157	2010.42
741.342	1971.51
741.528	1912.12
741.713	1912.12
741.898	1918.26
742.084	1885.5
742.269	1961.27
742.454	1957.18
742.639	1994.04
742.824	2041.14
743.01	1928.5
743.195	1977.66
743.38	1942.84
743.565	1854.78
743.75	1875.26
743.935	1916.22
744.12	1899.83
744.305	1905.98
744.49	1840.44
744.675	1860.92
744.86	1865.02
745.045	1787.19
745.23	1822.01
745.415	1664.32
745.6	1701.18
745.785	1819.96
745.97	1881.4
746.155	1762.62
746.34	1938.74
746.525	1797.43
746.71	1891.64
746.895	1688.89
747.079	1637.69
747.264	1723.71
747.449	1805.63
747.634	1654.08
747.819	1766.71
748.003	1729.85
748.188	1699.13
748.373	1709.37
748.557	1678.65
748.742	1652.03
748.927	1631.55
749.111	1774.91
749.296	1629.5
749.481	1662.27
749.665	1547.58
749.85	1611.07
750.034	1572.16
750.219	1586.49
750.404	1666.36
750.588	1551.68
750.773	1496.38
750.957	1592.64
751.141	1523.01
751.326	1453.38
751.51	1477.95
751.695	1445.18
751.879	1471.81
752.064	1484.09
752.248	1457.47
752.432	1504.57
752.617	1416.51
752.801	1459.52
752.985	1453.38
753.17	1426.75
753.354	1406.27
753.538	1396.03
753.722	1377.6
753.907	1383.74
754.091	1307.97
754.275	1326.4
754.459	1342.78
754.643	1398.08
754.828	1359.17
755.012	1359.17
755.196	1236.29
755.38	1322.31
755.564	1310.02
755.748	1293.63
755.932	1228.1
756.116	1275.2
756.3	1353.02
756.484	1342.78
756.668	1219.91
756.852	1191.24
757.036	1158.47
757.22	1224
757.404	1238.34
757.588	1176.9
757.772	1131.84
757.956	1238.34
758.14	1207.62
758.323	1158.47
758.507	1213.76
758.691	1185.09
758.875	1172.8
759.059	1189.19
759.242	1191.24
759.426	1250.63
759.61	1156.42
759.794	1121.6
759.977	1113.41
760.161	1074.5
760.345	1060.17
760.528	1078.6
760.712	1066.31
760.895	1105.22
761.079	1082.69
761.263	1047.88
761.446	1090.88
761.63	1025.35
761.813	1090.88
761.997	1072.45
762.18	1092.93
762.364	1013.06
762.547	1019.21
762.731	986.44
762.914	957.77
763.098	970.05
763.281	970.05
763.464	1072.45
763.648	1031.49
763.831	1031.49
764.015	1054.02
764.198	1025.35
764.381	1017.16
764.564	1041.73
764.748	943.43
764.931	1017.16
765.114	978.25
765.297	1015.11
765.481	875.85
765.664	927.05
765.847	953.67
766.03	912.71
766.213	1004.87
766.397	1006.92
766.58	974.15
766.763	951.62
766.946	978.25
767.129	884.04
767.312	935.24
767.495	978.25
767.678	886.09
767.861	951.62
768.044	902.47
768.227	986.44
768.41	914.76
768.593	953.67
768.776	935.24
768.959	863.56
769.142	937.29
769.324	890.18
769.507	902.47
769.69	900.42
769.873	949.57
770.056	957.77
770.239	873.8
770.421	851.27
770.604	804.17
770.787	826.7
770.97	847.18
771.152	814.41
771.335	906.57
771.518	843.08
771.7	873.8
771.883	910.66
772.066	822.6
772.248	798.03
772.431	929.1
772.613	777.55
772.796	820.55
772.978	822.6
773.161	767.31
773.343	742.73
773.526	804.17
773.708	771.4
773.891	820.55
774.073	802.12
774.256	734.54
774.438	851.27
774.621	750.92
774.803	798.03
774.985	777.55
775.168	750.92
775.35	732.49
775.532	785.74
775.715	701.77
775.897	748.87
776.079	761.16
776.261	759.11
776.444	683.34
776.626	742.73
776.808	666.96
776.99	703.82
777.173	587.08
777.355	675.15
777.537	736.59
777.719	687.43
777.901	675.15
778.083	646.48
778.265	585.04
778.447	714.06
778.629	658.76
778.811	654.67
778.993	656.72
779.175	640.33
779.357	679.24
779.539	632.14
779.721	658.76
779.903	634.19
780.085	664.91
780.267	603.47
780.449	681.29
780.631	597.32
780.812	677.19
780.994	576.84
781.176	562.51
781.358	548.17
781.54	607.56
781.721	548.17
781.903	533.84
782.085	578.89
782.267	591.18
782.448	505.17
782.63	546.12
782.812	527.69
782.993	544.08
783.175	503.12
783.357	488.78
783.538	677.19
783.72	482.64
783.901	572.75
784.083	515.41
784.264	480.59
784.446	539.98
784.627	490.83
784.809	564.56
784.99	462.16
785.172	529.74
785.353	564.56
785.535	484.69
785.716	417.1
785.897	458.06
786.079	451.92
786.26	451.92
786.441	423.25
786.623	439.63
786.804	462.16
786.985	425.29
787.167	505.17
787.348	394.58
787.529	453.97
787.71	402.77
787.891	476.49
788.073	460.11
788.254	460.11
788.435	406.86
788.616	429.39
788.797	417.1
788.978	435.53
789.159	343.38
789.34	376.14
789.522	372.05
789.703	367.95
789.884	390.48
790.065	367.95
790.246	429.39
790.427	367.95
790.607	413.01
790.788	404.82
790.969	367.95
791.15	400.72
791.331	429.39
791.512	326.99
791.693	398.67
791.874	425.29
792.054	318.8
792.235	339.28
792.416	388.43
792.597	302.42
792.778	394.58
792.958	353.62
793.139	345.42
793.32	322.9
793.5	419.15
793.681	374.1
793.862	324.94
794.042	355.66
794.223	326.99
794.404	263.51
794.584	376.14
794.765	292.18
794.945	367.95
795.126	390.48
795.306	195.92
795.487	314.7
795.667	394.58
795.848	380.24
796.028	312.66
796.209	283.98
796.389	300.37
796.57	286.03
796.75	277.84
796.93	343.38
797.111	339.28
797.291	263.51
797.471	339.28
797.652	322.9
797.832	265.55
798.012	298.32
798.192	302.42
798.373	273.75
798.553	234.83
798.733	224.59
798.913	202.07
799.093	292.18
799.274	279.89
799.454	281.94
799.634	247.12
799.814	226.64
799.994	329.04
800.174	206.16
800.354	208.21
800.534	232.79
800.714	273.75
800.894	224.59
801.074	279.89
801.254	265.55
801.434	277.84
801.614	269.65
801.794	277.84
801.974	589.13
802.154	283.98
802.334	261.46
802.514	265.55
802.693	191.83
802.873	154.96
803.053	255.31
803.233	165.2
803.413	249.17
803.592	97.62
803.772	255.31
803.952	245.07
804.131	300.37
804.311	204.11
804.491	292.18
804.67	245.07
804.85	312.66
805.03	243.03
805.209	236.88
805.389	210.26
805.568	161.11
805.748	138.58
805.928	181.59
806.107	232.79
806.287	277.84
806.466	240.98
806.646	234.83
806.825	191.83
807.004	216.4
807.184	210.26
807.363	208.21
807.543	253.27
807.722	308.56
807.901	200.02
808.081	224.59
808.26	171.35
808.439	230.74
808.619	240.98
808.798	232.79
808.977	208.21
809.156	249.17
809.336	154.96
809.515	218.45
809.694	200.02
809.873	161.11
810.052	212.31
810.231	193.87
810.411	204.11
810.59	181.59
810.769	218.45
810.948	154.96
811.127	169.3
811.306	187.73
811.485	159.06
811.664	132.44
811.843	159.06
812.022	208.21
812.201	253.27
812.38	152.91
812.559	185.68
812.737	169.3
812.916	195.92
813.095	167.25
813.274	165.2
813.453	109.91
813.632	152.91
813.811	193.87
813.989	163.15
814.168	251.22
814.347	181.59
814.526	126.29
814.704	189.78
814.883	144.72
815.062	140.63
815.24	144.72
815.419	118.1
815.598	228.69
815.776	99.67
815.955	191.83
816.133	132.44
816.312	230.74
816.49	175.44
816.669	114
816.847	204.11
817.026	130.39
817.204	154.96
817.383	224.59
817.561	97.62
817.74	105.81
817.918	120.15
818.097	83.28
818.275	105.81
818.453	130.39
818.632	136.53
818.81	107.86
818.988	52.56
819.167	116.05
819.345	142.68
819.523	173.39
819.701	134.48
819.879	195.92
820.058	175.44
820.236	249.17
820.414	130.39
820.592	208.21
820.77	99.67
820.948	189.78
821.127	138.58
821.305	19.8
821.483	87.38
821.661	177.49
821.839	146.77
822.017	105.81
822.195	167.25
822.373	85.33
822.551	150.87
822.729	165.2
822.907	85.33
823.085	161.11
823.262	154.96
823.44	144.72
823.618	93.52
823.796	107.86
823.974	87.38
824.152	32.08
824.329	99.67
824.507	89.43
824.685	58.71
824.863	157.01
825.04	128.34
825.218	202.07
825.396	159.06
825.574	87.38
825.751	124.24
825.929	75.09
826.107	152.91
826.284	46.42
826.462	54.61
826.639	91.48
826.817	73.04
826.994	179.54
827.172	71
827.349	85.33
827.527	101.72
827.704	191.83
827.882	126.29
828.059	142.68
828.237	85.33
828.414	68.95
828.591	54.61
828.769	138.58
828.946	87.38
829.124	116.05
829.301	109.91
829.478	105.81
829.655	114
829.833	77.14
830.01	101.72
830.187	87.38
830.364	23.89
830.542	169.3
830.719	124.24
830.896	111.96
831.073	95.57
831.25	148.82
831.427	132.44
831.604	15.7
831.782	101.72
831.959	99.67
832.136	111.96
832.313	89.43
832.49	79.19
832.667	44.37
832.844	85.33
833.021	126.29
833.198	105.81
833.374	97.62
833.551	136.53
833.728	85.33
833.905	81.24
834.082	97.62
834.259	60.76
834.436	64.85
834.612	93.52
834.789	60.76
834.966	154.96
835.143	128.34
835.319	83.28
835.496	81.24
835.673	152.91
835.85	56.66
836.026	93.52
836.203	75.09
836.38	83.28
836.556	122.2
836.733	54.61
836.909	87.38
837.086	103.76
837.262	15.7
837.439	85.33
837.616	85.33
837.792	97.62
837.968	114
838.145	7.51
838.321	36.18
838.498	13.65
838.674	126.29
838.851	114
839.027	54.61
839.203	89.43
839.38	73.04
839.556	62.8
839.732	66.9
839.909	58.71
840.085	140.63
840.261	154.96
840.437	105.81
840.614	75.09
840.79	116.05
840.966	44.37
841.142	103.76
841.318	60.76
841.494	38.23
841.671	111.96
841.847	62.8
842.023	60.76
842.199	97.62
842.375	48.47
842.551	30.04
842.727	-19.11
842.903	122.2
843.079	44.37
843.255	40.28
843.431	68.95
843.607	54.61
843.783	-39.59
843.959	38.23
844.134	52.56
844.31	60.76
844.486	81.24
844.662	1.37
844.838	11.61
845.013	71
845.189	56.66
845.365	79.19
845.541	42.32
845.716	103.76
845.892	56.66
846.068	9.56
846.244	44.37
846.419	60.76
846.595	11.61
846.77	23.89
846.946	73.04
847.122	27.99
847.297	109.91
847.473	134.48
847.648	50.52
847.824	95.57
847.999	85.33
848.175	111.96
848.35	120.15
848.526	64.85
848.701	27.99
848.876	83.28
849.052	101.72
849.227	54.61
849.403	50.52
849.578	23.89
849.753	44.37
849.929	27.99
850.104	27.99
850.279	-17.07
850.454	-8.87
850.63	23.89
850.805	68.95
850.98	71
851.155	56.66
851.33	40.28
851.505	21.85
851.681	68.95
851.856	-25.26
852.031	91.48
852.206	42.32
852.381	60.76
852.556	50.52
852.731	34.13
852.906	81.24
853.081	93.52
853.256	87.38
853.431	50.52
853.606	50.52
853.781	1.37
853.956	25.94
854.131	25.94
854.305	42.32
854.48	58.71
854.655	25.94
854.83	32.08
855.005	66.9
855.18	7.51
855.354	7.51
855.529	21.85
855.704	64.85
855.879	48.47
856.053	48.47
856.228	66.9
856.403	21.85
856.577	46.42
856.752	-21.16
856.926	15.7
857.101	-19.11
857.276	13.65
857.45	46.42
857.625	-12.97
857.799	46.42
857.974	44.37
858.148	-17.07
858.323	89.43
858.497	-27.31
858.672	36.18
858.846	62.8
859.02	77.14
859.195	68.95
859.369	-10.92
859.543	79.19
859.718	36.18
859.892	48.47
860.066	60.76
860.241	3.41
860.415	27.99
860.589	30.04
860.763	32.08
860.938	73.04
861.112	54.61
861.286	3.41
861.46	42.32
861.634	-0.68
861.808	-37.55
861.982	32.08
862.157	73.04
862.331	46.42
862.505	13.65
862.679	-58.03
862.853	68.95
863.027	44.37
863.201	62.8
863.375	-2.73
863.549	38.23
863.722	38.23
863.896	99.67
864.07	71
864.244	58.71
864.418	23.89
864.592	44.37
864.766	73.04
864.939	46.42
865.113	9.56
865.287	79.19
865.461	52.56
865.634	38.23
865.808	126.29
865.982	27.99
866.156	71
866.329	60.76
866.503	19.8
866.676	75.09
866.85	25.94
867.024	30.04
867.197	19.8
867.371	50.52
867.544	11.61
867.718	19.8
867.891	9.56
868.065	-0.68
868.238	42.32
868.412	89.43
868.585	-37.55
868.759	-2.73
868.932	-23.21
869.105	-0.68
869.279	5.46
869.452	3.41
869.625	64.85
869.799	52.56
869.972	-12.97
870.145	32.08
870.319	95.57
870.492	-6.83
870.665	1.37
870.838	66.9
871.011	-55.98
871.185	1.37
871.358	-2.73
871.531	48.47
871.704	-27.31
871.877	34.13
872.05	50.52
872.223	-4.78
872.396	71
872.569	-12.97
872.742	-25.26
872.915	68.95
873.088	9.56
873.261	40.28
873.434	58.71
873.607	25.94
873.78	46.42
873.953	-53.93
874.126	85.33
874.299	64.85
874.471	-23.21
874.644	11.61
874.817	44.37
874.99	40.28
875.163	56.66
875.335	50.52
875.508	46.42
875.681	62.8
875.853	34.13
876.026	44.37
876.199	81.24
876.371	58.71
876.544	-2.73
876.717	-0.68
876.889	11.61
877.062	25.94
877.234	9.56
877.407	23.89
877.579	11.61
877.752	3.41
877.924	21.85
878.097	17.75
878.269	23.89
878.442	105.81
878.614	73.04
878.786	36.18
878.959	40.28
879.131	77.14
879.303	-12.97
879.476	36.18
879.648	36.18
879.82	23.89
879.993	7.51
880.165	-8.87
880.337	75.09
880.509	40.28
880.681	-12.97
880.854	11.61
881.026	52.56
881.198	60.76
881.37	3.41
881.542	-43.69
881.714	68.95
881.886	5.46
882.058	7.51
882.23	27.99
882.402	23.89
882.574	-8.87
882.746	56.66
882.918	62.8
883.09	23.89
883.262	50.52
883.434	19.8
883.606	7.51
883.778	30.04
883.95	68.95
884.122	11.61
884.293	21.85
884.465	-76.46
884.637	32.08
884.809	56.66
884.98	77.14
885.152	89.43
885.324	-6.83
885.496	11.61
885.667	79.19
885.839	34.13
886.011	99.67
886.182	-47.79
886.354	81.24
886.525	9.56
886.697	23.89
886.869	128.34
887.04	-4.78
887.212	3.41
887.383	73.04
887.555	-8.87
887.726	-94.89
887.897	34.13
888.069	-8.87
888.24	21.85
888.412	77.14
888.583	40.28
888.754	83.28
888.926	7.51
889.097	42.32
889.268	25.94
889.44	58.71
889.611	-43.69
889.782	23.89
889.953	-41.64
890.125	1.37
890.296	1.37
890.467	34.13
890.638	36.18
890.809	11.61
890.98	17.75
891.151	77.14
891.323	93.52
891.494	62.8
891.665	68.95
891.836	109.91
892.007	68.95
892.178	50.52
892.349	42.32
892.52	73.04
892.691	38.23
892.862	89.43
893.032	-33.45
893.203	81.24
893.374	42.32
893.545	13.65
893.716	11.61
893.887	13.65
894.057	27.99
894.228	13.65
894.399	-6.83
894.57	64.85
894.74	-17.07
894.911	71
895.082	-6.83
895.253	-19.11
895.423	1.37
895.594	27.99
895.764	25.94
895.935	56.66
896.106	50.52
896.276	60.76
896.447	46.42
896.617	30.04
896.788	25.94
896.958	62.8
897.129	23.89
897.299	-0.68
897.47	21.85
897.64	19.8
897.81	7.51
897.981	5.46
898.151	3.41
898.322	-6.83
898.492	25.94
898.662	-4.78
898.832	81.24
899.003	-17.07
899.173	52.56
899.343	19.8
899.513	30.04
