Data from USB4F104151__32__11-05-14-891.txt Node

Date: Wed Mar 12 11:05:14 EDT 2025
User: louis
Spectrometer: USB4F10415
Trigger mode: 4
Integration Time (sec): 2.000000E-2
Scans to average: 1
Electric dark correction enabled: true
Nonlinearity correction enabled: false
Boxcar width: 0
XAxis mode: Wavelengths
Number of Pixels in Spectrum: 3648
>>>>>Begin Spectral Data<<<<<
178.204	-47.27
178.424	-47.27
178.644	-47.27
178.864	-90.28
179.084	-96.43
179.304	-37.03
179.524	22.36
179.744	-14.51
179.964	46.93
180.184	-37.03
180.404	85.84
180.624	48.98
180.844	22.36
181.064	-43.18
181.283	-41.13
181.503	-69.8
181.723	16.21
181.943	22.36
182.163	18.26
182.383	-12.46
182.602	26.45
182.822	-4.27
183.042	14.17
183.262	-22.7
183.482	-65.71
183.701	18.26
183.921	36.69
184.141	-12.46
184.361	89.94
184.58	32.6
184.8	67.41
185.02	12.12
185.239	28.5
185.459	-26.79
185.679	1.88
185.898	-12.46
186.118	32.6
186.338	44.88
186.557	-43.18
186.777	-55.47
186.997	24.4
187.216	44.88
187.436	-28.84
187.655	32.6
187.875	151.38
188.095	22.36
188.314	12.12
188.534	20.31
188.753	-2.22
188.973	55.12
189.192	57.17
189.412	51.03
189.631	8.02
189.851	14.17
190.07	42.84
190.29	-22.7
190.509	-39.08
190.729	-30.89
190.948	-30.89
191.168	83.8
191.387	30.55
191.607	32.6
191.826	28.5
192.045	73.56
192.265	26.45
192.484	-6.31
192.704	-51.37
192.923	-32.94
193.142	135
193.362	10.07
193.581	3.93
193.8	51.03
194.02	8.02
194.239	59.22
194.458	-18.6
194.678	-8.36
194.897	-28.84
195.116	28.5
195.335	36.69
195.555	-28.84
195.774	20.31
195.993	-14.51
196.212	14.17
196.432	-18.6
196.651	-2.22
196.87	53.08
197.089	30.55
197.308	51.03
197.528	5.97
197.747	1.88
197.966	10.07
198.185	71.51
198.404	-24.75
198.623	-69.8
198.842	87.89
199.062	59.22
199.281	48.98
199.5	-34.99
199.719	-37.03
199.938	14.17
200.157	10.07
200.376	-37.03
200.595	30.55
200.814	42.84
201.033	-53.42
201.252	10.07
201.471	53.08
201.69	16.21
201.909	48.98
202.128	-82.09
202.347	42.84
202.566	-28.84
202.785	38.74
203.004	-0.17
203.223	8.02
203.442	-0.17
203.661	-41.13
203.879	30.55
204.098	22.36
204.317	-47.27
204.536	63.32
204.755	24.4
204.974	69.46
205.193	-18.6
205.411	53.08
205.63	20.31
205.849	48.98
206.068	57.17
206.287	3.93
206.505	5.97
206.724	-14.51
206.943	32.6
207.162	26.45
207.381	63.32
207.599	16.21
207.818	28.5
208.037	22.36
208.255	-45.23
208.474	-0.17
208.693	44.88
208.911	10.07
209.13	28.5
209.349	-4.27
209.567	26.45
209.786	-28.84
210.005	75.6
210.223	-67.75
210.442	-49.32
210.661	38.74
210.879	42.84
211.098	32.6
211.316	53.08
211.535	67.41
211.753	-69.8
211.972	-2.22
212.191	53.08
212.409	18.26
212.628	46.93
212.846	24.4
213.065	67.41
213.283	-16.55
213.502	-69.8
213.72	-22.7
213.938	1.88
214.157	32.6
214.375	-12.46
214.594	-32.94
214.812	22.36
215.031	26.45
215.249	22.36
215.467	28.5
215.686	-8.36
215.904	30.55
216.122	-39.08
216.341	16.21
216.559	1.88
216.778	28.5
216.996	94.04
217.214	42.84
217.432	-102.57
217.651	-8.36
217.869	22.36
218.087	-47.27
218.306	-47.27
218.524	26.45
218.742	-4.27
218.96	-8.36
219.179	5.97
219.397	110.42
219.615	110.42
219.833	48.98
220.051	16.21
220.27	28.5
220.488	69.46
220.706	32.6
220.924	-18.6
221.142	-12.46
221.36	-37.03
221.578	81.75
221.796	85.84
222.015	22.36
222.233	-6.31
222.451	-12.46
222.669	-26.79
222.887	-12.46
223.105	-26.79
223.323	81.75
223.541	-53.42
223.759	87.89
223.977	-18.6
224.195	-14.51
224.413	14.17
224.631	42.84
224.849	-14.51
225.067	106.32
225.285	-18.6
225.503	-16.55
225.721	-43.18
225.939	-0.17
226.157	55.12
226.375	102.23
226.592	-10.41
226.81	-10.41
227.028	1.88
227.246	55.12
227.464	-4.27
227.682	12.12
227.9	-16.55
228.117	24.4
228.335	61.27
228.553	61.27
228.771	-18.6
228.989	22.36
229.206	32.6
229.424	26.45
229.642	1.88
229.86	1.88
230.077	-0.17
230.295	5.97
230.513	-49.32
230.731	-8.36
230.948	44.88
231.166	8.02
231.384	-16.55
231.601	-8.36
231.819	38.74
232.037	81.75
232.254	28.5
232.472	42.84
232.689	-80.04
232.907	81.75
233.125	-4.27
233.342	69.46
233.56	-12.46
233.777	-0.17
233.995	-10.41
234.213	28.5
234.43	-18.6
234.648	46.93
234.865	-20.65
235.083	75.6
235.3	-0.17
235.518	46.93
235.735	30.55
235.953	36.69
236.17	100.18
236.388	-8.36
236.605	40.79
236.822	-10.41
237.04	1.88
237.257	-61.61
237.475	-12.46
237.692	16.21
237.909	-30.89
238.127	53.08
238.344	61.27
238.562	36.69
238.779	-10.41
238.996	40.79
239.214	28.5
239.431	-47.27
239.648	-24.75
239.865	24.4
240.083	-0.17
240.3	10.07
240.517	73.56
240.735	-41.13
240.952	-26.79
241.169	20.31
241.386	1.88
241.603	-22.7
241.821	10.07
242.038	44.88
242.255	42.84
242.472	-26.79
242.689	1.88
242.907	34.64
243.124	-6.31
243.341	53.08
243.558	36.69
243.775	63.32
243.992	22.36
244.209	42.84
244.426	-0.17
244.643	1.88
244.86	85.84
245.078	22.36
245.295	-37.03
245.512	-10.41
245.729	1.88
245.946	-14.51
246.163	-22.7
246.38	-0.17
246.597	-45.23
246.814	5.97
247.031	55.12
247.248	3.93
247.464	-14.51
247.681	46.93
247.898	12.12
248.115	48.98
248.332	-61.61
248.549	20.31
248.766	83.8
248.983	-0.17
249.2	104.28
249.417	3.93
249.633	-20.65
249.85	20.31
250.067	48.98
250.284	-6.31
250.501	20.31
250.717	87.89
250.934	-30.89
251.151	28.5
251.368	46.93
251.585	40.79
251.801	40.79
252.018	73.56
252.235	-10.41
252.451	-10.41
252.668	-16.55
252.885	100.18
253.102	-51.37
253.318	38.74
253.535	8.02
253.752	-8.36
253.968	-12.46
254.185	20.31
254.401	34.64
254.618	18.26
254.835	30.55
255.051	40.79
255.268	14.17
255.484	61.27
255.701	24.4
255.917	79.7
256.134	14.17
256.351	28.5
256.567	-26.79
256.784	20.31
257	-51.37
257.217	34.64
257.433	-12.46
257.65	91.99
257.866	34.64
258.082	-20.65
258.299	14.17
258.515	18.26
258.732	-90.28
258.948	30.55
259.165	89.94
259.381	18.26
259.597	61.27
259.814	3.93
260.03	-24.75
260.246	20.31
260.463	98.13
260.679	-0.17
260.895	-0.17
261.112	-8.36
261.328	-8.36
261.544	-37.03
261.761	36.69
261.977	18.26
262.193	-2.22
262.409	-18.6
262.626	36.69
262.842	8.02
263.058	-8.36
263.274	-2.22
263.49	79.7
263.707	16.21
263.923	-0.17
264.139	28.5
264.355	-34.99
264.571	8.02
264.787	10.07
265.004	61.27
265.22	16.21
265.436	-2.22
265.652	12.12
265.868	-0.17
266.084	-22.7
266.3	1.88
266.516	-45.23
266.732	10.07
266.948	16.21
267.164	55.12
267.38	40.79
267.596	-8.36
267.812	8.02
268.028	69.46
268.244	67.41
268.46	3.93
268.676	38.74
268.892	28.5
269.108	69.46
269.324	-26.79
269.54	8.02
269.756	-12.46
269.972	-59.56
270.188	34.64
270.403	12.12
270.619	73.56
270.835	-55.47
271.051	32.6
271.267	59.22
271.483	22.36
271.698	-39.08
271.914	83.8
272.13	36.69
272.346	-16.55
272.562	-41.13
272.777	-28.84
272.993	40.79
273.209	-8.36
273.425	22.36
273.64	36.69
273.856	16.21
274.072	59.22
274.287	14.17
274.503	26.45
274.719	-8.36
274.934	32.6
275.15	3.93
275.366	108.37
275.581	22.36
275.797	28.5
276.012	53.08
276.228	28.5
276.444	8.02
276.659	30.55
276.875	24.4
277.09	57.17
277.306	26.45
277.521	-4.27
277.737	5.97
277.952	36.69
278.168	-37.03
278.383	65.36
278.599	-26.79
278.814	79.7
279.03	48.98
279.245	141.14
279.461	40.79
279.676	32.6
279.892	-39.08
280.107	-28.84
280.322	40.79
280.538	5.97
280.753	20.31
280.969	12.12
281.184	30.55
281.399	46.93
281.615	20.31
281.83	-20.65
282.045	85.84
282.26	81.75
282.476	-55.47
282.691	55.12
282.906	20.31
283.122	85.84
283.337	48.98
283.552	20.31
283.767	10.07
283.983	46.93
284.198	-34.99
284.413	44.88
284.628	106.32
284.843	91.99
285.058	18.26
285.274	-0.17
285.489	-10.41
285.704	26.45
285.919	-63.66
286.134	-24.75
286.349	-8.36
286.564	-18.6
286.779	-16.55
286.995	48.98
287.21	-10.41
287.425	24.4
287.64	-4.27
287.855	14.17
288.07	-4.27
288.285	65.36
288.5	28.5
288.715	26.45
288.93	16.21
289.145	77.65
289.36	-14.51
289.575	5.97
289.79	34.64
290.004	10.07
290.219	22.36
290.434	-20.65
290.649	79.7
290.864	53.08
291.079	38.74
291.294	55.12
291.509	40.79
291.724	59.22
291.938	69.46
292.153	59.22
292.368	30.55
292.583	-37.03
292.798	44.88
293.012	18.26
293.227	-34.99
293.442	46.93
293.657	73.56
293.871	42.84
294.086	48.98
294.301	94.04
294.516	85.84
294.73	5.97
294.945	-8.36
295.16	20.31
295.374	96.08
295.589	135
295.804	-18.6
296.018	28.5
296.233	42.84
296.447	30.55
296.662	63.32
296.877	55.12
297.091	14.17
297.306	-18.6
297.52	48.98
297.735	42.84
297.949	5.97
298.164	46.93
298.378	20.31
298.593	71.51
298.807	-10.41
299.022	46.93
299.236	22.36
299.451	48.98
299.665	-26.79
299.88	-39.08
300.094	16.21
300.309	34.64
300.523	16.21
300.737	3.93
300.952	-39.08
301.166	34.64
301.381	14.17
301.595	44.88
301.809	28.5
302.024	-32.94
302.238	28.5
302.452	40.79
302.667	36.69
302.881	106.32
303.095	40.79
303.309	26.45
303.524	22.36
303.738	91.99
303.952	18.26
304.166	36.69
304.381	34.64
304.595	32.6
304.809	-28.84
305.023	48.98
305.237	32.6
305.452	1.88
305.666	32.6
305.88	-10.41
306.094	77.65
306.308	53.08
306.522	65.36
306.736	10.07
306.95	14.17
307.164	28.5
307.379	-6.31
307.593	69.46
307.807	38.74
308.021	26.45
308.235	69.46
308.449	-0.17
308.663	79.7
308.877	157.52
309.091	-12.46
309.305	16.21
309.519	-22.7
309.733	139.09
309.947	28.5
310.161	63.32
310.374	14.17
310.588	106.32
310.802	12.12
311.016	22.36
311.23	-37.03
311.444	38.74
311.658	42.84
311.872	137.04
312.085	-51.37
312.299	110.42
312.513	48.98
312.727	-28.84
312.941	26.45
313.154	16.21
313.368	-10.41
313.582	36.69
313.796	-16.55
314.009	30.55
314.223	12.12
314.437	16.21
314.651	94.04
314.864	34.64
315.078	30.55
315.292	-16.55
315.505	96.08
315.719	42.84
315.933	-28.84
316.146	8.02
316.36	48.98
316.573	-8.36
316.787	61.27
317.001	5.97
317.214	30.55
317.428	44.88
317.641	-0.17
317.855	53.08
318.068	36.69
318.282	30.55
318.495	63.32
318.709	16.21
318.922	28.5
319.136	63.32
319.349	-6.31
319.563	32.6
319.776	65.36
319.99	26.45
320.203	-30.89
320.417	42.84
320.63	28.5
320.843	5.97
321.057	30.55
321.27	32.6
321.483	40.79
321.697	81.75
321.91	87.89
322.124	20.31
322.337	61.27
322.55	36.69
322.763	16.21
322.977	5.97
323.19	34.64
323.403	-14.51
323.617	24.4
323.83	48.98
324.043	79.7
324.256	75.6
324.469	22.36
324.683	-10.41
324.896	24.4
325.109	36.69
325.322	1.88
325.535	14.17
325.748	5.97
325.962	26.45
326.175	67.41
326.388	98.13
326.601	38.74
326.814	28.5
327.027	40.79
327.24	24.4
327.453	32.6
327.666	24.4
327.879	36.69
328.092	53.08
328.305	61.27
328.518	-24.75
328.731	44.88
328.944	42.84
329.157	36.69
329.37	-14.51
329.583	114.52
329.796	16.21
330.009	-2.22
330.222	36.69
330.435	87.89
330.648	28.5
330.861	8.02
331.073	-0.17
331.286	-28.84
331.499	10.07
331.712	-32.94
331.925	75.6
332.138	44.88
332.35	98.13
332.563	46.93
332.776	26.45
332.989	55.12
333.202	24.4
333.414	24.4
333.627	-22.7
333.84	-51.37
334.053	32.6
334.265	-0.17
334.478	-45.23
334.691	8.02
334.903	5.97
335.116	38.74
335.329	42.84
335.541	65.36
335.754	40.79
335.966	8.02
336.179	46.93
336.392	91.99
336.604	55.12
336.817	44.88
337.029	94.04
337.242	-0.17
337.454	34.64
337.667	32.6
337.88	38.74
338.092	20.31
338.305	34.64
338.517	-32.94
338.729	5.97
338.942	-41.13
339.154	32.6
339.367	-18.6
339.579	53.08
339.792	5.97
340.004	-8.36
340.217	67.41
340.429	-8.36
340.641	30.55
340.854	67.41
341.066	18.26
341.278	40.79
341.491	-10.41
341.703	8.02
341.915	-30.89
342.128	130.9
342.34	44.88
342.552	38.74
342.764	-12.46
342.977	71.51
343.189	16.21
343.401	16.21
343.613	-22.7
343.826	-30.89
344.038	22.36
344.25	3.93
344.462	-59.56
344.674	12.12
344.886	40.79
345.099	36.69
345.311	20.31
345.523	-0.17
345.735	-14.51
345.947	36.69
346.159	61.27
346.371	24.4
346.583	46.93
346.795	22.36
347.007	-20.65
347.219	67.41
347.431	44.88
347.643	40.79
347.855	36.69
348.067	79.7
348.279	63.32
348.491	-0.17
348.703	79.7
348.915	44.88
349.127	-22.7
349.339	24.4
349.551	67.41
349.763	51.03
349.975	69.46
350.187	77.65
350.399	67.41
350.61	-10.41
350.822	44.88
351.034	8.02
351.246	40.79
351.458	59.22
351.669	-8.36
351.881	36.69
352.093	106.32
352.305	55.12
352.517	61.27
352.728	42.84
352.94	3.93
353.152	83.8
353.363	61.27
353.575	48.98
353.787	89.94
353.999	26.45
354.21	5.97
354.422	57.17
354.633	5.97
354.845	73.56
355.057	-0.17
355.268	87.89
355.48	1.88
355.692	16.21
355.903	1.88
356.115	-49.32
356.326	46.93
356.538	38.74
356.749	67.41
356.961	116.56
357.172	-4.27
357.384	65.36
357.595	44.88
357.807	-18.6
358.018	3.93
358.23	5.97
358.441	-0.17
358.653	16.21
358.864	5.97
359.075	-2.22
359.287	51.03
359.498	32.6
359.709	24.4
359.921	67.41
360.132	79.7
360.344	55.12
360.555	81.75
360.766	34.64
360.977	61.27
361.189	79.7
361.4	-6.31
361.611	48.98
361.823	51.03
362.034	-12.46
362.245	-63.66
362.456	55.12
362.667	36.69
362.879	34.64
363.09	85.84
363.301	-20.65
363.512	-30.89
363.723	-2.22
363.935	18.26
364.146	77.65
364.357	32.6
364.568	34.64
364.779	-28.84
364.99	24.4
365.201	-8.36
365.412	59.22
365.623	22.36
365.834	16.21
366.045	-12.46
366.256	38.74
366.467	67.41
366.678	69.46
366.889	98.13
367.1	20.31
367.311	114.52
367.522	-26.79
367.733	30.55
367.944	-16.55
368.155	22.36
368.366	40.79
368.577	94.04
368.788	69.46
368.999	20.31
369.209	85.84
369.42	28.5
369.631	61.27
369.842	20.31
370.053	59.22
370.264	-8.36
370.474	-12.46
370.685	40.79
370.896	44.88
371.107	34.64
371.317	59.22
371.528	48.98
371.739	8.02
371.95	38.74
372.16	67.41
372.371	-14.51
372.582	-0.17
372.792	96.08
373.003	71.51
373.214	-16.55
373.424	40.79
373.635	-4.27
373.846	85.84
374.056	104.28
374.267	106.32
374.477	36.69
374.688	-47.27
374.898	-18.6
375.109	51.03
375.319	-14.51
375.53	73.56
375.74	40.79
375.951	63.32
376.161	51.03
376.372	63.32
376.582	18.26
376.793	55.12
377.003	-24.75
377.214	26.45
377.424	14.17
377.635	40.79
377.845	8.02
378.055	128.85
378.266	-34.99
378.476	12.12
378.686	65.36
378.897	36.69
379.107	-2.22
379.317	12.12
379.528	-55.47
379.738	-61.61
379.948	1.88
380.158	96.08
380.369	87.89
380.579	40.79
380.789	51.03
380.999	10.07
381.21	44.88
381.42	87.89
381.63	98.13
381.84	28.5
382.05	55.12
382.261	59.22
382.471	65.36
382.681	40.79
382.891	16.21
383.101	81.75
383.311	118.61
383.521	-4.27
383.731	79.7
383.941	55.12
384.151	57.17
384.361	48.98
384.571	57.17
384.781	-0.17
384.991	42.84
385.201	108.37
385.411	-8.36
385.621	-4.27
385.831	30.55
386.041	40.79
386.251	53.08
386.461	77.65
386.671	24.4
386.881	-2.22
387.091	12.12
387.301	44.88
387.511	61.27
387.72	40.79
387.93	61.27
388.14	61.27
388.35	26.45
388.56	55.12
388.769	85.84
388.979	141.14
389.189	-2.22
389.399	44.88
389.609	28.5
389.818	5.97
390.028	42.84
390.238	132.95
390.447	-30.89
390.657	67.41
390.867	91.99
391.076	69.46
391.286	65.36
391.496	73.56
391.705	36.69
391.915	65.36
392.125	24.4
392.334	118.61
392.544	110.42
392.753	48.98
392.963	16.21
393.172	5.97
393.382	57.17
393.591	89.94
393.801	46.93
394.01	106.32
394.22	139.09
394.429	44.88
394.639	5.97
394.848	44.88
395.058	77.65
395.267	91.99
395.477	102.23
395.686	96.08
395.895	106.32
396.105	141.14
396.314	126.8
396.524	73.56
396.733	65.36
396.942	79.7
397.152	30.55
397.361	159.57
397.57	32.6
397.78	18.26
397.989	94.04
398.198	91.99
398.407	46.93
398.617	71.51
398.826	61.27
399.035	-12.46
399.244	118.61
399.453	44.88
399.663	51.03
399.872	79.7
400.081	114.52
400.29	89.94
400.499	91.99
400.708	110.42
400.917	24.4
401.127	110.42
401.336	91.99
401.545	163.67
401.754	83.8
401.963	67.41
402.172	36.69
402.381	81.75
402.59	53.08
402.799	112.47
403.008	55.12
403.217	81.75
403.426	-32.94
403.635	55.12
403.844	89.94
404.053	55.12
404.262	79.7
404.471	104.28
404.68	87.89
404.888	96.08
405.097	57.17
405.306	96.08
405.515	126.8
405.724	48.98
405.933	147.28
406.142	132.95
406.35	128.85
406.559	139.09
406.768	145.24
406.977	137.04
407.185	167.76
407.394	139.09
407.603	194.39
407.812	167.76
408.02	100.18
408.229	184.15
408.438	104.28
408.646	241.49
408.855	169.81
409.064	159.57
409.272	221.01
409.481	157.52
409.69	135
409.898	94.04
410.107	229.2
410.315	186.19
410.524	186.19
410.733	266.07
410.941	210.77
411.15	264.02
411.358	286.54
411.567	274.26
411.775	307.02
411.984	339.79
412.192	315.22
412.401	319.31
412.609	286.54
412.818	395.09
413.026	307.02
413.234	520.01
413.443	380.75
413.651	423.76
413.86	356.18
414.068	384.85
414.276	540.49
414.485	423.76
414.693	554.83
414.901	528.21
415.11	452.43
415.318	530.25
415.526	618.32
415.734	634.7
415.943	630.6
416.151	616.27
416.359	573.26
416.567	589.64
416.776	741.19
416.984	646.99
417.192	802.63
417.4	829.26
417.608	728.91
417.817	872.26
418.025	806.73
418.233	915.27
418.441	915.27
418.649	909.13
418.857	966.47
419.065	997.19
419.273	913.22
419.481	1050.44
419.689	1109.83
419.897	1072.96
420.105	1124.16
420.313	1204.03
420.521	1244.99
420.729	1308.48
420.937	1294.15
421.145	1437.5
421.353	1408.83
421.561	1437.5
421.769	1539.9
421.977	1679.16
422.185	1486.65
422.393	1713.98
422.601	1871.67
422.809	1634.11
423.017	1756.99
423.224	1806.14
423.432	1908.54
423.64	1906.49
423.848	2092.85
424.056	2021.17
424.263	2244.4
424.471	2101.05
424.679	2250.55
424.887	2285.36
425.094	2297.65
425.302	2453.3
425.51	2488.11
425.718	2600.75
425.925	2639.66
426.133	2754.35
426.341	2803.5
426.548	2996.01
426.756	2969.38
426.964	3096.36
427.171	3206.95
427.379	3329.83
427.586	3342.11
427.794	3477.28
428.001	3589.92
428.209	3835.67
428.417	3714.84
428.624	4001.56
428.832	4136.73
429.039	4019.99
429.247	3970.84
429.454	4316.95
429.662	4730.64
429.869	4280.08
430.076	4732.69
430.284	4513.55
430.491	4847.37
430.699	5031.69
430.906	4908.81
431.114	4974.35
431.321	5332.74
431.528	5410.56
431.736	5834.49
431.943	5971.71
432.15	5877.5
432.358	5875.45
432.565	6082.3
432.772	6397.68
432.979	6520.56
433.187	6586.1
433.394	6657.78
433.601	7165.67
433.808	7151.34
434.016	7005.93
434.223	7431.91
434.43	7745.25
434.637	7472.87
434.844	8201.94
435.052	8384.21
435.259	8199.9
435.466	8406.74
435.673	8017.63
435.88	8812.24
436.087	9197.26
436.294	9219.78
436.501	9096.91
436.708	9311.94
436.915	9395.91
437.122	9944.77
437.329	9862.85
437.537	9969.34
437.743	10401.46
437.95	10239.67
438.157	10905.26
438.364	11243.18
438.571	11083.44
438.778	11415.21
438.985	12318.36
439.192	11814.56
439.399	12099.23
439.606	11837.09
439.813	12582.55
440.02	13315.72
440.227	13180.56
440.433	12838.55
440.64	13422.22
440.847	13330.06
441.054	13713.03
441.261	14638.71
441.467	14642.81
441.674	14724.72
441.881	15177.33
442.088	15203.95
442.294	15181.42
442.501	15674.98
442.708	15742.57
442.914	16625.24
443.121	17157.71
443.328	16705.11
443.534	17800.77
443.741	17335.88
443.948	17018.45
444.154	18329.15
444.361	18312.77
444.568	18224.7
444.774	18509.37
444.981	18570.81
445.187	19033.65
445.394	19928.61
445.6	19625.51
445.807	21566.99
446.013	20579.87
446.22	20917.78
446.426	21777.93
446.633	21988.87
446.839	22851.06
447.046	21958.15
447.252	23148.02
447.459	22975.99
447.665	22879.74
447.871	23834.09
448.078	24954.33
448.284	23952.87
448.491	24448.48
448.697	25193.94
448.903	25716.17
449.11	25572.82
449.316	25230.8
449.522	26058.18
449.728	26676.67
449.935	26467.78
450.141	26568.13
450.347	27329.97
450.553	25980.36
450.76	26750.4
450.966	27440.56
451.172	27000.25
451.378	27776.43
451.584	27385.27
451.791	27923.88
451.997	27839.92
452.203	28071.34
452.409	27950.51
452.615	27913.64
452.821	26770.88
453.027	26789.31
453.233	28036.52
453.44	27039.16
453.646	26899.9
453.852	27256.25
454.058	27665.84
454.264	26584.51
454.47	27385.27
454.676	26764.73
454.882	27622.83
455.088	24694.24
455.294	25402.83
455.5	25767.37
455.705	26047.94
455.911	24763.87
456.117	24180.2
456.323	24208.87
456.529	22683.13
456.735	23528.94
456.941	22957.56
457.147	22781.43
457.352	22220.29
457.558	21949.96
457.764	21751.31
457.97	21198.35
458.176	20831.77
458.381	20643.35
458.587	19891.75
458.793	19525.16
458.999	18705.98
459.204	20237.86
459.41	19707.43
459.616	18011.71
459.821	18048.58
460.027	17937.99
460.233	17888.84
460.438	16909.91
460.644	17192.53
460.85	16299.61
461.055	16070.24
461.261	16119.39
461.466	14952.05
461.672	14315.13
461.878	15566.44
462.083	14380.67
462.289	14167.68
462.494	14253.69
462.7	13223.56
462.905	12793.49
463.111	13518.47
463.316	13688.45
463.522	13250.19
463.727	13520.52
463.932	13129.36
464.138	13188.75
464.343	13317.77
464.549	12641.94
464.754	13196.94
464.959	12986
465.165	12836.5
465.37	12342.94
465.575	12041.89
465.781	12492.44
465.986	12756.63
466.191	12320.41
466.397	12025.5
466.602	11581.09
466.807	11945.63
467.012	11935.39
467.218	11765.41
467.423	11667.11
467.628	11730.59
467.833	12308.12
468.038	11775.65
468.244	11271.85
468.449	11683.49
468.654	11652.77
468.859	11531.94
469.064	11259.56
469.269	10915.5
469.474	10952.37
469.679	11202.22
469.885	10911.41
470.09	11091.63
470.295	10899.12
470.5	10704.56
470.705	10802.86
470.91	10544.82
471.115	10239.67
471.32	10641.07
471.525	10362.55
471.73	10315.45
471.935	10053.31
472.139	10028.73
472.344	9895.61
472.549	9903.81
472.754	9893.57
472.959	9283.27
473.164	9299.66
473.369	9217.74
473.574	9551.56
473.778	9395.91
473.983	9445.06
474.188	9305.8
474.393	9014.99
474.598	8945.36
474.802	8918.73
475.007	8670.93
475.212	8941.26
475.417	8531.67
475.621	8642.26
475.826	8462.04
476.031	8263.38
476.235	8224.47
476.44	8247
476.645	8216.28
476.849	8218.33
477.054	7821.02
477.259	7984.86
477.463	7972.57
477.668	7870.17
477.872	7667.42
478.077	7741.15
478.282	7485.16
478.486	7575.27
478.691	7349.99
478.895	7515.87
479.1	7401.19
479.304	7288.55
479.509	7143.14
479.713	7241.45
479.918	7202.54
480.122	6866.67
480.326	7020.27
480.531	7339.75
480.735	7278.31
480.94	6975.21
481.144	7298.79
481.348	6928.11
481.553	6967.02
481.757	6827.76
481.961	6862.57
482.166	7001.83
482.37	7145.19
482.574	6895.34
482.778	6893.29
482.983	6844.14
483.187	6913.77
483.391	6883.05
483.595	6835.95
483.8	6760.17
484.004	6860.52
484.208	7110.38
484.412	6838
484.616	6921.96
484.821	6831.85
485.025	6731.5
485.229	6823.66
485.433	6797.04
485.637	6813.42
485.841	6842.09
486.045	6766.32
486.249	6823.66
486.453	6805.23
486.657	6838
486.861	6805.23
487.065	6711.02
487.269	6809.33
487.473	6745.84
487.677	6987.5
487.881	6895.34
488.085	6838
488.289	6901.48
488.493	6889.2
488.697	6751.98
488.901	6835.95
489.105	6891.24
489.309	6823.66
489.512	6960.88
489.716	6913.77
489.92	7073.51
490.124	6895.34
490.328	7118.57
490.531	6987.5
490.735	7040.75
490.939	7167.72
491.143	6946.54
491.346	6969.07
491.55	7229.16
491.754	7091.95
491.958	7360.23
492.161	7352.04
492.365	7218.92
492.569	7194.34
492.772	7313.13
492.976	7528.16
493.18	7288.55
493.383	7640.8
493.587	7395.04
493.79	7581.41
493.994	7565.03
494.197	7612.13
494.401	7667.42
494.605	7663.33
494.808	7714.53
495.012	7939.8
495.215	7960.28
495.419	7948
495.622	7964.38
495.825	8089.31
496.029	8040.15
496.232	8197.85
496.436	8347.35
496.639	8300.25
496.843	8468.18
497.046	8701.65
497.249	8654.55
497.453	8767.18
497.656	8763.09
497.859	8746.7
498.063	9019.08
498.266	9129.67
498.469	9146.06
498.673	9121.48
498.876	9176.78
499.079	9350.85
499.282	9350.85
499.485	9580.23
499.689	9545.41
499.892	9836.22
500.095	9805.5
500.298	10053.31
500.501	9744.06
500.705	10417.85
500.908	10288.82
501.111	10454.71
501.314	10571.44
501.517	10682.03
501.72	10722.99
501.923	10835.63
502.126	10958.51
502.329	11185.83
502.532	11118.25
502.735	11372.2
502.938	11421.35
503.141	11521.7
503.344	11660.96
503.547	11841.18
503.75	11863.71
503.953	12213.91
504.156	12367.51
504.359	12566.17
504.562	12480.15
504.765	12637.84
504.968	12986
505.17	13133.45
505.373	13037.2
505.576	13203.08
505.779	13301.39
505.982	13502.09
506.185	13747.84
506.387	13653.64
506.59	13717.12
506.793	14308.99
506.996	14114.43
507.198	14425.72
507.401	14499.45
507.604	14763.64
507.807	14724.72
508.009	14988.91
508.212	15044.21
508.415	15554.15
508.617	15605.35
508.82	15572.58
509.022	15785.57
509.225	16025.18
509.428	16215.65
509.63	16152.16
509.833	16262.75
510.035	16666.2
510.238	16518.75
510.44	16909.91
510.643	16959.06
510.845	17600.07
511.048	17301.07
511.25	17413.71
511.453	17520.2
511.655	18464.32
511.858	18089.54
512.06	18198.08
512.262	18490.94
512.465	18525.75
512.667	18798.13
512.87	18771.51
513.072	19252.78
513.274	19590.7
513.477	19476.01
513.679	19584.55
513.881	19834.41
514.084	20248.1
514.286	20475.42
514.488	20520.48
514.69	21210.64
514.893	21143.06
515.095	21188.11
515.297	21534.22
515.499	21663.24
515.701	21833.22
515.904	22089.22
516.106	22095.36
516.308	22658.56
516.51	22918.65
516.712	22668.8
516.914	23270.9
517.116	23408.11
517.318	23197.17
517.52	23823.85
517.722	23754.22
517.925	24116.71
518.127	24270.31
518.329	24393.19
518.531	24321.51
518.733	25050.58
518.935	25089.49
519.136	25331.15
519.338	25492.94
519.54	25595.34
519.742	26054.09
519.944	26082.76
520.146	26836.41
520.348	26844.6
520.55	26774.97
520.752	27198.9
520.954	27495.86
521.155	27166.13
521.357	27954.6
521.559	27819.44
521.761	28425.64
521.963	28546.47
522.164	28552.61
522.366	28788.13
522.568	28763.55
522.77	29224.34
522.971	29494.68
523.173	29586.83
523.375	29916.56
523.576	29943.18
523.778	29926.8
523.98	30293.38
524.181	30852.48
524.383	30864.77
524.584	31063.42
524.786	31104.38
524.988	31090.04
525.189	31579.51
525.391	31896.94
525.592	31985.01
525.794	31982.96
525.995	32351.59
526.197	32488.81
526.398	32398.69
526.6	32714.08
526.801	32830.82
527.003	33307.99
527.204	33215.83
527.406	33385.82
527.607	33561.94
527.808	33615.19
528.01	32968.03
528.211	33396.06
528.412	34086.22
528.614	33959.25
528.815	33828.18
529.016	34162
529.218	34104.65
529.419	34499.91
529.62	34282.83
529.822	34344.27
530.023	34741.57
530.224	34563.4
530.425	34530.63
530.626	34481.48
530.828	34833.73
531.029	35472.7
531.23	34983.23
531.431	34823.49
531.632	34923.84
531.833	35495.22
532.035	35401.02
532.236	35439.93
532.437	35159.36
532.638	35382.59
532.839	35364.15
533.04	35767.6
533.241	35046.72
533.442	35964.21
533.643	35523.9
533.844	35603.77
534.045	35857.71
534.246	35259.71
534.447	35534.14
534.648	35589.43
534.849	35976.5
535.05	35409.21
535.251	35743.03
535.451	35843.38
535.652	36252.97
535.853	35431.74
536.054	36007.22
536.255	36132.14
536.456	35536.18
536.657	36218.16
536.857	35947.82
537.058	35747.12
537.259	36384.04
537.46	36052.27
537.66	35884.34
537.861	36068.65
538.062	36017.46
538.263	36283.69
538.463	35902.77
538.664	35923.25
538.865	36252.97
539.065	36427.05
539.266	35722.55
539.466	36236.59
539.667	35863.86
539.868	36599.08
540.068	35859.76
540.269	36085.04
540.469	36302.12
540.67	35657.01
540.87	35751.22
541.071	35947.82
541.271	36275.5
541.472	35833.14
541.672	35863.86
541.873	35736.88
542.073	35532.09
542.274	36074.8
542.474	36011.31
542.675	35667.25
542.875	36121.9
543.075	35980.59
543.276	35501.37
543.476	36275.5
543.676	35697.97
543.877	36273.45
544.077	36097.33
544.277	35861.81
544.478	35956.02
544.678	35839.28
544.878	36177.2
545.078	36011.31
545.279	35622.2
545.479	35870
545.679	36158.77
545.879	35781.94
546.079	35632.44
546.28	35917.11
546.48	35558.71
546.68	36214.06
546.88	36025.65
547.08	36054.32
547.28	35890.48
547.48	35941.68
547.68	35861.81
547.88	35626.29
548.081	35702.07
548.281	35767.6
548.481	35880.24
548.681	35874.1
548.881	35880.24
549.081	35575.09
549.28	35573.05
549.48	36009.26
549.68	35917.11
549.88	36105.52
550.08	35661.11
550.28	35753.27
550.48	35777.84
550.68	35966.26
550.88	35906.87
551.08	35650.87
551.279	35720.5
551.479	35372.35
551.679	35575.09
551.879	35431.74
552.079	35984.69
552.278	35521.85
552.478	35536.18
552.678	35091.77
552.878	35671.35
553.077	35515.7
553.277	35341.63
553.477	35579.19
553.676	35118.4
553.876	34932.03
554.076	35274.04
554.275	35353.91
554.475	34772.29
554.674	35136.83
554.874	35163.45
555.074	35097.92
555.273	34837.83
555.473	35513.66
555.672	34829.63
555.872	35360.06
556.071	34895.17
556.271	35267.9
556.47	34954.56
556.67	34639.17
556.869	34624.84
557.068	35161.4
557.268	34342.22
557.467	34735.43
557.667	34532.68
557.866	34391.37
558.065	34751.81
558.265	34762.05
558.464	34237.77
558.663	34739.52
558.863	34010.45
559.062	34858.31
559.261	34202.96
559.461	34350.41
559.66	33817.94
559.859	34188.62
560.058	33463.64
560.258	34045.26
560.457	33695.06
560.656	34346.31
560.855	33901.9
561.054	33776.98
561.253	33506.65
561.453	33869.14
561.652	34049.36
561.851	33846.61
562.05	33459.54
562.249	33377.62
562.448	33494.36
562.647	33258.84
562.846	33351
563.045	33453.4
563.244	33052
563.443	33488.21
563.642	32568.68
563.841	32980.32
564.04	32937.31
564.239	33490.26
564.438	32830.82
564.637	32898.4
564.836	32413.03
565.035	32116.08
565.234	32558.44
565.432	32306.54
565.631	32210.28
565.83	32273.77
566.029	32142.7
566.228	31925.61
566.427	31812.98
566.625	31782.26
566.824	31653.23
567.023	31970.67
567.222	31171.96
567.42	31792.5
567.619	31518.07
567.818	31540.6
568.016	30862.72
568.215	31282.55
568.414	31341.94
568.612	31356.28
568.811	30807.42
569.01	30936.45
569.208	30436.74
569.407	30793.09
569.605	30557.57
569.804	30862.72
570.002	30164.36
570.201	30440.84
570.4	30236.04
570.598	30403.97
570.797	29857.17
570.995	30047.63
571.193	29498.77
571.392	30168.46
571.59	29592.98
571.789	29633.94
571.987	29640.08
572.186	29349.27
572.384	29474.2
572.582	29226.39
572.781	29263.25
572.979	29164.95
573.177	28908.96
573.376	29179.29
573.574	28849.57
573.772	29052.31
573.971	28874.14
574.169	28902.81
574.367	28595.62
574.565	28456.36
574.763	28304.81
574.962	28274.09
575.16	28190.12
575.358	28431.78
575.556	27993.51
575.754	28261.8
575.952	27686.32
576.151	28044.71
576.349	27674.03
576.547	27614.64
576.745	27530.67
576.943	27788.72
577.141	27405.75
577.339	27641.26
577.537	27063.74
577.735	27295.16
577.933	27184.57
578.131	27137.46
578.329	27336.12
578.527	26609.09
578.725	26928.57
578.923	26828.22
579.121	26979.77
579.319	26523.07
579.516	26492.35
579.714	26633.66
579.912	26418.63
580.11	26426.82
580.308	26531.26
580.506	26224.07
580.704	25576.91
580.901	26250.69
581.099	26105.29
581.297	25824.72
581.495	25933.26
581.692	25593.29
581.89	25443.79
582.088	25675.21
582.285	25408.98
582.483	25468.37
582.681	25263.57
582.878	25750.99
583.076	25288.15
583.274	25224.66
583.471	24952.28
583.669	24997.34
583.866	24876.51
584.064	25036.25
584.262	24393.19
584.459	24886.75
584.657	25013.72
584.854	25187.8
585.052	24509.92
585.249	24565.21
585.447	24468.96
585.644	24223.2
585.841	24153.57
586.039	24606.17
586.236	23965.16
586.434	24149.48
586.631	24034.79
586.828	23973.35
587.026	23975.4
587.223	24137.19
587.42	23520.75
587.618	23719.4
587.815	23426.54
588.012	23379.44
588.21	23463.41
588.407	23500.27
588.604	23178.74
588.801	23289.33
588.999	22912.5
589.196	23039.48
589.393	22846.97
589.59	23209.46
589.787	22765.05
589.984	22881.78
590.182	22507.01
590.379	22947.32
590.576	22441.47
590.773	22738.43
590.97	22523.39
591.167	22621.69
591.364	22119.94
591.561	22636.03
591.758	22226.43
591.955	22078.98
592.152	22267.39
592.349	22240.77
592.546	22029.83
592.743	22205.95
592.94	21810.7
593.137	21888.52
593.334	21925.38
593.531	21321.23
593.727	21820.94
593.924	21501.45
594.121	21206.55
594.318	21581.32
594.515	21098
594.712	21419.53
594.908	21399.05
595.105	21245.46
595.302	21104.15
595.499	20958.74
595.696	20819.48
595.892	21073.43
596.089	20962.84
596.286	20860.44
596.482	20690.46
596.679	20698.65
596.876	20807.19
597.072	20497.95
597.269	20516.38
597.466	20389.41
597.662	20391.45
597.859	20160.03
598.055	20268.58
598.252	19967.52
598.448	20121.12
598.645	20246.05
598.841	19871.27
599.038	19920.42
599.234	20041.25
599.431	19727.91
599.627	19662.38
599.824	19983.91
600.02	19842.6
600.217	19609.13
600.413	19453.48
600.609	19308.08
600.806	19662.38
601.002	19416.62
601.198	19013.17
601.395	19076.66
601.591	19009.08
601.787	19156.53
601.984	19021.36
602.18	19129.91
602.376	18593.34
602.572	18863.67
602.769	18961.97
602.965	18701.88
603.161	18697.78
603.357	18499.13
603.553	18609.72
603.75	18759.22
603.946	18363.97
604.142	18409.02
604.338	18107.97
604.534	18308.67
604.73	18161.22
604.926	17962.56
605.122	18085.44
605.318	18169.41
605.514	17899.08
605.71	17915.46
605.906	17950.28
606.102	17849.92
606.298	17870.4
606.494	17561.16
606.69	17907.27
606.886	17694.28
607.082	17514.06
607.278	17645.13
607.474	17460.81
607.67	17583.69
607.866	17335.88
608.062	17708.62
608.257	17129.04
608.453	17247.82
608.649	17227.34
608.845	17335.88
609.041	17225.29
609.236	17344.08
609.432	16918.1
609.628	17102.42
609.824	17327.69
610.019	16662.1
610.215	17110.61
610.411	17307.21
610.606	16545.37
610.802	17053.27
610.998	16756.31
611.193	16914
611.389	16766.55
611.584	16952.91
611.78	16465.5
611.976	16604.76
612.171	16850.52
612.367	16485.98
612.562	16612.95
612.758	16369.24
612.953	16182.88
613.149	16492.12
613.344	16252.51
613.539	16483.93
613.735	16178.78
613.93	16412.25
614.126	16111.2
614.321	16240.22
614.517	15949.41
614.712	16051.81
614.907	15976.03
615.103	16074.34
615.298	15861.35
615.493	16047.71
615.688	16002.66
615.884	16166.49
616.079	15693.41
616.274	15668.84
616.47	15748.71
616.665	15795.81
616.86	15814.24
617.055	15836.77
617.25	15859.3
617.445	15662.69
617.641	15314.54
617.836	15519.34
618.031	15294.06
618.226	15447.66
618.421	15249
618.616	15439.47
618.811	15287.92
619.006	15607.4
619.201	14833.27
619.396	14970.48
619.591	14880.37
619.786	15406.7
619.981	14829.17
620.176	15160.94
620.371	14620.28
620.566	14726.77
620.761	14462.58
620.956	14855.79
621.151	14562.94
621.346	14630.52
621.541	14143.1
621.735	14513.78
621.93	14151.29
622.125	14198.4
622.32	14282.36
622.515	14339.71
622.709	13790.85
622.904	14009.98
623.099	13604.49
623.294	13860.48
623.488	13569.67
623.683	13674.12
623.878	13454.98
624.072	13786.75
624.267	13436.55
624.462	13350.54
624.656	13149.84
624.851	13309.58
625.046	13133.45
625.24	13203.08
625.435	13080.21
625.629	13143.69
625.824	12791.44
626.018	12805.78
626.213	12533.4
626.407	12818.07
626.602	12584.6
626.796	12652.18
626.991	12476.05
627.185	12357.27
627.38	12428.95
627.574	12299.93
627.768	12220.06
627.963	12228.25
628.157	11843.23
628.352	12144.28
628.546	11849.38
628.74	12138.14
628.935	11660.96
629.129	11968.16
629.323	11622.05
629.517	11706.02
629.712	11527.85
629.906	11531.94
630.1	11239.08
630.294	11277.99
630.489	11159.21
630.683	11339.43
630.877	11255.47
631.071	11179.69
631.265	11202.22
631.459	10735.28
631.653	10956.46
631.848	10819.25
632.042	10876.59
632.236	10819.25
632.43	10841.78
632.624	10813.1
632.818	10714.8
633.012	10596.02
633.206	10497.72
633.4	10661.55
633.594	10200.76
633.788	10409.65
633.982	10387.13
634.176	10202.81
634.369	10170.04
634.563	10141.37
634.757	10157.75
634.951	10114.75
635.145	9938.62
635.339	9920.19
635.533	9916.09
635.726	9942.72
635.92	9627.33
636.114	9668.29
636.308	9768.64
636.501	9813.7
636.695	9754.3
636.889	9459.4
637.083	9569.99
637.276	9465.54
637.47	9549.51
637.664	9432.77
637.857	9576.13
638.051	9494.21
638.244	9397.96
638.438	9207.5
638.632	9162.44
638.825	8965.84
639.019	9125.58
639.212	9053.9
639.406	8824.53
639.599	8861.39
639.793	8896.21
639.986	8644.31
640.18	8916.69
640.373	8904.4
640.567	8578.77
640.76	8464.08
640.954	8425.17
641.147	8494.8
641.34	8453.84
641.534	8333.01
641.727	8443.6
641.92	8185.56
642.114	8261.34
642.307	8236.76
642.5	8111.83
642.694	7972.57
642.887	8185.56
643.08	8210.14
643.273	8036.06
643.467	7972.57
643.66	7933.66
643.853	7878.37
644.046	7806.69
644.239	7786.21
644.432	7653.09
644.626	7605.99
644.819	7712.48
645.012	7589.6
645.205	7571.17
645.398	7524.07
645.591	7458.53
645.784	7575.27
645.977	7409.38
646.17	7460.58
646.363	7397.09
646.556	7315.17
646.749	7255.78
646.942	7335.65
647.135	7114.47
647.328	7003.88
647.521	7048.94
647.714	7143.14
647.907	7050.99
648.099	6997.74
648.292	7077.61
648.485	6954.73
648.678	6774.51
648.871	6854.38
649.064	6846.19
649.256	6799.09
649.449	6901.48
649.642	6665.97
649.835	6692.59
650.027	6582
650.22	6547.19
650.413	6536.95
650.605	6639.34
650.798	6553.33
650.991	6450.93
651.183	6338.29
651.376	6289.14
651.568	6440.69
651.761	6436.6
651.954	6205.17
652.146	6395.64
652.339	6235.89
652.531	6164.22
652.724	6145.78
652.916	6000.38
653.109	6283
653.301	6196.98
653.494	6192.89
653.686	5967.61
653.879	6014.71
654.071	5938.94
654.263	5850.88
654.456	5748.48
654.648	5867.26
654.84	5840.64
655.033	5789.44
655.225	5789.44
655.417	5656.32
655.61	5603.07
655.802	5842.68
655.994	5672.7
656.186	5680.89
656.379	5605.12
656.571	5672.7
656.763	5416.71
656.955	5543.68
657.148	5527.3
657.34	5498.63
657.532	5431.04
657.724	5316.36
657.916	5332.74
658.108	5402.37
658.3	5318.4
658.492	5400.32
658.684	5089.03
658.876	5304.07
659.068	5238.53
659.26	5179.14
659.452	5199.62
659.644	5218.05
659.836	5111.56
660.028	5103.37
660.22	4982.54
660.412	5027.59
660.604	4982.54
660.796	4927.24
660.988	4929.29
661.18	5029.64
661.372	4824.84
661.563	4898.57
661.755	4771.6
661.947	4679.44
662.139	4732.69
662.331	4781.84
662.522	4740.88
662.714	4661.01
662.906	4697.87
663.097	4669.2
663.289	4630.29
663.481	4699.92
663.673	4667.15
663.864	4548.37
664.056	4648.72
664.247	4601.62
664.439	4456.21
664.631	4562.7
664.822	4521.74
665.014	4359.95
665.205	4353.81
665.397	4280.08
665.588	4402.96
665.78	4245.27
665.971	4247.32
666.163	4290.32
666.354	4259.6
666.546	4355.86
666.737	4275.99
666.929	4341.52
667.12	4310.8
667.311	4237.08
667.503	4167.45
667.694	4353.81
667.885	4063
668.077	4149.01
668.268	4054.81
668.459	4140.82
668.651	4118.29
668.842	4163.35
669.033	3976.98
669.224	4011.8
669.416	4173.59
669.607	4157.21
669.798	3966.74
669.989	4050.71
670.18	3845.91
670.371	4005.66
670.563	3909.4
670.754	3931.93
670.945	3794.72
671.136	3888.92
671.327	3747.61
671.518	3954.46
671.709	3911.45
671.9	3780.38
672.091	3749.66
672.282	3759.9
672.473	3833.63
672.664	3680.03
672.855	3712.8
673.046	3850.01
673.237	3852.06
673.428	3647.26
673.619	3739.42
673.809	3665.69
674	3673.89
674.191	3626.78
674.382	3542.82
674.573	3673.89
674.764	3618.59
674.954	3514.14
675.145	3499.81
675.336	3542.82
675.527	3641.12
675.717	3708.7
675.908	3508
676.099	3555.1
676.289	3610.4
676.48	3514.14
676.671	3510.05
676.861	3522.34
677.052	3477.28
677.243	3469.09
677.433	3409.7
677.624	3501.86
677.814	3407.65
678.005	3737.37
678.195	3501.86
678.386	3383.07
678.576	3385.12
678.767	3438.37
678.957	3497.76
679.148	3415.84
679.338	3338.02
679.529	3397.41
679.719	3327.78
679.909	3348.26
680.1	3321.63
680.29	3219.24
680.481	3243.81
680.671	3274.53
680.861	3399.46
681.052	3399.46
681.242	3413.79
681.432	3348.26
681.622	3325.73
681.813	3331.87
682.003	3321.63
682.193	3301.15
682.383	3235.62
682.573	3245.86
682.764	3198.76
682.954	3211.04
683.144	3239.72
683.334	3186.47
683.524	3274.53
683.714	3241.76
683.904	3204.9
684.094	3190.56
684.284	3206.95
684.474	3141.41
684.664	3354.4
684.854	3211.04
685.044	3219.24
685.234	3200.8
685.424	3100.45
685.614	3190.56
685.804	3118.89
685.994	3198.76
686.184	3157.8
686.374	3127.08
686.564	3114.79
686.753	3108.65
686.943	3139.37
687.133	3022.63
687.323	3053.35
687.513	3071.78
687.702	3116.84
687.892	3073.83
688.082	3012.39
688.272	3016.49
688.461	3002.15
688.651	2932.52
688.841	3039.01
689.03	2940.71
689.22	2959.14
689.41	2858.79
689.599	2969.38
689.789	2815.79
689.979	2813.74
690.168	2864.94
690.358	2842.41
690.547	2864.94
690.737	2912.04
690.926	2928.42
691.116	2795.31
691.305	2891.56
691.495	2858.79
691.684	2742.06
691.874	2846.51
692.063	2787.11
692.252	2768.68
692.442	2791.21
692.631	2740.01
692.82	2733.87
693.01	2709.29
693.199	2703.15
693.388	2746.16
693.578	2705.2
693.767	2623.28
693.956	2613.04
694.146	2627.37
694.335	2641.71
694.524	2703.15
694.713	2780.97
694.902	2662.19
695.092	2768.68
695.281	2731.82
695.47	2594.61
695.659	2758.44
695.848	2674.48
696.037	2619.18
696.226	2666.28
696.415	2629.42
696.604	2643.76
696.793	2586.41
696.982	2672.43
697.171	2586.41
697.36	2545.45
697.549	2719.53
697.738	2567.98
697.927	2613.04
698.116	2508.59
698.305	2676.52
698.494	2658.09
698.683	2531.12
698.872	2494.26
699.061	2584.37
699.25	2602.8
699.438	2535.21
699.627	2572.08
699.816	2574.13
700.005	2465.58
700.193	2649.9
700.382	2631.47
700.571	2590.51
700.76	2592.56
700.948	2479.92
701.137	2559.79
701.326	2641.71
701.514	2654
701.703	2582.32
701.892	2524.97
702.08	2672.43
702.269	2656.04
702.457	2545.45
702.646	2647.85
702.834	2623.28
703.023	2709.29
703.212	2594.61
703.4	2467.63
703.589	2518.83
703.777	2674.48
703.965	2647.85
704.154	2645.8
704.342	2678.57
704.531	2641.71
704.719	2496.3
704.907	2539.31
705.096	2617.13
705.284	2608.94
705.472	2535.21
705.661	2674.48
705.849	2580.27
706.037	2570.03
706.226	2631.47
706.414	2555.69
706.602	2488.11
706.79	2563.89
706.979	2574.13
707.167	2555.69
707.355	2664.24
707.543	2524.97
707.731	2627.37
707.919	2617.13
708.107	2559.79
708.296	2656.04
708.484	2572.08
708.672	2465.58
708.86	2551.6
709.048	2635.57
709.236	2492.21
709.424	2535.21
709.612	2529.07
709.8	2551.6
709.988	2533.17
710.176	2613.04
710.364	2588.46
710.551	2658.09
710.739	2600.75
710.927	2555.69
711.115	2717.48
711.303	2524.97
711.491	2561.84
711.679	2502.45
711.866	2608.94
712.054	2506.54
712.242	2518.83
712.43	2666.28
712.617	2584.37
712.805	2617.13
712.993	2535.21
713.181	2565.93
713.368	2570.03
713.556	2570.03
713.744	2629.42
713.931	2654
714.119	2545.45
714.306	2551.6
714.494	2518.83
714.682	2662.19
714.869	2588.46
715.057	2533.17
715.244	2541.36
715.432	2643.76
715.619	2529.07
715.807	2529.07
715.994	2559.79
716.182	2463.54
716.369	2465.58
716.556	2514.73
716.744	2541.36
716.931	2547.5
717.119	2553.65
717.306	2533.17
717.493	2516.78
717.681	2637.61
717.868	2510.64
718.055	2486.06
718.242	2553.65
718.43	2588.46
718.617	2537.26
718.804	2551.6
718.991	2514.73
719.179	2529.07
719.366	2424.62
719.553	2555.69
719.74	2498.35
719.927	2543.41
720.114	2398
720.301	2574.13
720.488	2539.31
720.676	2545.45
720.863	2561.84
721.05	2586.41
721.237	2449.2
721.424	2539.31
721.611	2393.9
721.798	2578.22
721.985	2477.87
722.172	2447.15
722.358	2447.15
722.545	2518.83
722.732	2449.2
722.919	2461.49
723.106	2514.73
723.293	2438.96
723.48	2535.21
723.667	2441.01
723.853	2457.39
724.04	2479.92
724.227	2578.22
724.414	2567.98
724.6	2551.6
724.787	2559.79
724.974	2418.48
725.161	2535.21
725.347	2533.17
725.534	2535.21
725.72	2395.95
725.907	2424.62
726.094	2481.97
726.28	2563.89
726.467	2414.38
726.653	2531.12
726.84	2490.16
727.027	2567.98
727.213	2488.11
727.4	2498.35
727.586	2572.08
727.773	2486.06
727.959	2467.63
728.145	2455.34
728.332	2604.85
728.518	2594.61
728.705	2563.89
728.891	2518.83
729.077	2453.3
729.264	2371.38
729.45	2479.92
729.636	2457.39
729.823	2496.3
730.009	2522.93
730.195	2508.59
730.382	2531.12
730.568	2504.5
730.754	2504.5
730.94	2438.96
731.126	2522.93
731.313	2471.73
731.499	2459.44
731.685	2453.3
731.871	2477.87
732.057	2479.92
732.243	2461.49
732.429	2463.54
732.615	2406.19
732.801	2387.76
732.987	2516.78
733.173	2479.92
733.359	2572.08
733.545	2383.66
733.731	2496.3
733.917	2490.16
734.103	2424.62
734.289	2471.73
734.475	2477.87
734.661	2469.68
734.847	2449.2
735.033	2340.66
735.219	2426.67
735.404	2400.05
735.59	2416.43
735.776	2371.38
735.962	2533.17
736.148	2672.43
736.333	2430.77
736.519	2459.44
736.705	2406.19
736.89	2381.62
737.076	2469.68
737.262	2389.81
737.447	2354.99
737.633	2443.06
737.819	2453.3
738.004	2367.28
738.19	2375.47
738.375	2148.15
738.561	2490.16
738.747	2354.99
738.932	2320.18
739.118	2422.58
739.303	2391.86
739.489	2240.31
739.674	2260.79
739.859	2297.65
740.045	2420.53
740.23	2344.75
740.416	2242.36
740.601	2305.84
740.786	2334.51
740.972	2195.25
741.157	2305.84
741.342	2277.17
741.528	2279.22
741.713	2287.41
741.898	2301.75
742.084	2293.55
742.269	2203.44
742.454	2209.59
742.639	2180.92
742.824	2193.2
743.01	2197.3
743.195	2260.79
743.38	2113.33
743.565	2242.36
743.75	2205.49
743.935	2207.54
744.12	2080.57
744.305	2197.3
744.49	2129.72
744.675	2232.12
744.86	2099
745.045	2076.47
745.23	2094.9
745.415	2053.94
745.6	2123.57
745.785	2101.05
745.97	2078.52
746.155	2055.99
746.34	2117.43
746.525	2035.51
746.71	2004.79
746.895	2000.69
747.079	1902.39
747.264	1847.1
747.449	1881.91
747.634	1957.69
747.819	1859.38
748.003	1904.44
748.188	1955.64
748.373	2000.69
748.557	1898.3
748.742	1916.73
748.927	1986.36
749.111	1953.59
749.296	1865.53
749.481	1859.38
749.665	1822.52
749.85	1740.6
750.034	1843
750.219	1793.85
750.404	1765.18
750.588	1744.7
750.773	1787.71
750.957	1736.51
751.141	1851.19
751.326	1666.88
751.51	1705.79
751.695	1697.6
751.879	1654.59
752.064	1822.52
752.248	1746.75
752.432	1673.02
752.617	1625.92
752.801	1716.03
752.985	1756.99
753.17	1605.44
753.354	1593.15
753.538	1664.83
753.722	1613.63
753.907	1550.14
754.091	1503.04
754.275	1548.09
754.459	1550.14
754.643	1460.03
754.828	1445.7
755.012	1503.04
755.196	1550.14
755.38	1490.75
755.564	1427.26
755.748	1462.08
755.932	1455.94
756.116	1464.13
756.3	1505.09
756.484	1404.74
756.668	1349.44
756.852	1408.83
757.036	1462.08
757.22	1357.63
757.404	1361.73
757.588	1380.16
757.772	1394.5
757.956	1312.58
758.14	1288
758.323	1343.3
758.507	1302.34
758.691	1345.34
758.875	1396.54
759.059	1277.76
759.242	1181.51
759.426	1234.75
759.61	1312.58
759.794	1212.23
759.977	1302.34
760.161	1302.34
760.345	1163.08
760.528	1298.24
760.712	1255.23
760.895	1185.6
761.079	1222.47
761.263	1240.9
761.446	1242.95
761.63	1097.54
761.813	1208.13
761.997	1193.8
762.18	1158.98
762.364	1228.61
762.547	1128.26
762.731	1226.56
762.914	1099.59
763.098	1181.51
763.281	1154.88
763.464	1150.79
763.648	1126.21
763.831	1101.64
764.015	1163.08
764.198	1208.13
764.381	1064.77
764.564	1034.05
764.748	1146.69
764.931	1113.92
765.114	1115.97
765.297	1048.39
765.481	1113.92
765.664	1124.16
765.847	1052.49
766.03	1128.26
766.213	995.14
766.397	1105.73
766.58	1072.96
766.763	1054.53
766.946	915.27
767.129	1036.1
767.312	1023.81
767.495	1034.05
767.678	991.05
767.861	964.42
768.044	1097.54
768.227	952.13
768.41	1005.38
768.593	991.05
768.776	950.09
768.959	888.65
769.142	945.99
769.324	1019.72
769.507	1083.2
769.69	882.5
769.873	1011.53
770.056	1044.29
770.239	958.28
770.421	1032.01
770.604	1021.77
770.787	909.13
770.97	968.52
771.152	921.42
771.335	896.84
771.518	929.61
771.7	896.84
771.883	1013.57
772.066	876.36
772.248	902.98
772.431	923.46
772.613	835.4
772.796	939.85
772.978	837.45
773.161	884.55
773.343	888.65
773.526	827.21
773.708	874.31
773.891	831.3
774.073	796.49
774.256	923.46
774.438	823.11
774.621	816.97
774.803	911.18
774.985	798.54
775.168	782.15
775.35	816.97
775.532	790.35
775.715	794.44
775.897	733
776.079	823.11
776.261	710.47
776.444	792.39
776.626	773.96
776.808	763.72
776.99	669.52
777.173	790.35
777.355	712.52
777.537	661.32
777.719	790.35
777.901	712.52
778.083	737.1
778.265	661.32
778.447	702.28
778.629	724.81
778.811	689.99
778.993	634.7
779.175	698.19
779.357	661.32
779.539	683.85
779.721	673.61
779.903	581.45
780.085	579.4
780.267	728.91
780.449	608.08
780.631	653.13
780.812	610.12
780.994	659.28
781.176	630.6
781.358	628.56
781.54	636.75
781.721	538.45
781.903	634.7
782.085	520.01
782.267	622.41
782.448	571.21
782.63	610.12
782.812	597.84
782.993	675.66
783.175	538.45
783.357	603.98
783.538	522.06
783.72	497.49
783.901	509.77
784.083	524.11
784.264	491.34
784.446	438.09
784.627	513.87
784.809	517.97
784.99	499.53
785.172	493.39
785.353	540.49
785.535	513.87
785.716	524.11
785.897	515.92
786.079	483.15
786.26	438.09
786.441	429.9
786.623	438.09
786.804	479.05
786.985	524.11
787.167	485.2
787.348	376.66
787.529	515.92
787.71	442.19
787.891	558.92
788.073	429.9
788.254	434
788.435	474.96
788.616	421.71
788.797	413.52
788.978	390.99
789.159	487.25
789.34	474.96
789.522	343.89
789.703	452.43
789.884	429.9
790.065	409.42
790.246	446.29
790.427	384.85
790.607	403.28
790.788	366.42
790.969	425.81
791.15	460.62
791.331	411.47
791.512	335.7
791.693	405.33
791.874	374.61
792.054	413.52
792.235	429.9
792.416	331.6
792.597	415.57
792.778	390.99
792.958	350.03
793.139	335.7
793.32	323.41
793.5	290.64
793.681	401.23
793.862	366.42
794.042	366.42
794.223	323.41
794.404	302.93
794.584	304.98
794.765	372.56
794.945	343.89
795.126	335.7
795.306	386.9
795.487	333.65
795.667	278.35
795.848	288.59
796.028	257.87
796.209	350.03
796.389	290.64
796.57	343.89
796.75	347.98
796.93	319.31
797.111	331.6
797.291	292.69
797.471	311.12
797.652	290.64
797.832	307.02
798.012	296.78
798.192	221.01
798.373	280.4
798.553	337.74
798.733	274.26
798.913	239.44
799.093	290.64
799.274	282.45
799.454	216.91
799.634	358.22
799.814	350.03
799.994	257.87
800.174	272.21
800.354	180.05
800.534	268.11
800.714	253.78
800.894	245.59
801.074	264.02
801.254	229.2
801.434	253.78
801.614	233.3
801.794	202.58
801.974	606.03
802.154	274.26
802.334	264.02
802.514	327.5
802.693	210.77
802.873	198.48
803.053	206.67
803.233	208.72
803.413	280.4
803.592	175.95
803.772	221.01
803.952	122.71
804.131	161.62
804.311	290.64
804.491	218.96
804.67	202.58
804.85	186.19
805.03	245.59
805.209	243.54
805.389	229.2
805.568	237.39
805.748	204.63
805.928	302.93
806.107	206.67
806.287	173.91
806.466	227.15
806.646	221.01
806.825	231.25
807.004	212.82
807.184	225.11
807.363	204.63
807.543	182.1
807.722	243.54
807.901	251.73
808.081	202.58
808.26	241.49
808.439	153.43
808.619	198.48
808.798	173.91
808.977	216.91
809.156	190.29
809.336	180.05
809.515	223.06
809.694	57.17
809.873	132.95
810.052	163.67
810.231	178
810.411	231.25
810.59	192.34
810.769	218.96
810.948	278.35
811.127	163.67
811.306	198.48
811.485	163.67
811.664	137.04
811.843	194.39
812.022	190.29
812.201	218.96
812.38	186.19
812.559	89.94
812.737	128.85
812.916	151.38
813.095	200.53
813.274	81.75
813.453	171.86
813.632	161.62
813.811	124.76
813.989	194.39
814.168	98.13
814.347	194.39
814.526	210.77
814.704	171.86
814.883	206.67
815.062	145.24
815.24	182.1
815.419	206.67
815.598	198.48
815.776	186.19
815.955	73.56
816.133	94.04
816.312	102.23
816.49	112.47
816.669	188.24
816.847	149.33
817.026	155.47
817.204	120.66
817.383	155.47
817.561	98.13
817.74	227.15
817.918	132.95
818.097	218.96
818.275	110.42
818.453	132.95
818.632	143.19
818.81	102.23
818.988	141.14
819.167	171.86
819.345	153.43
819.523	130.9
819.701	139.09
819.879	157.52
820.058	163.67
820.236	171.86
820.414	135
820.592	178
820.77	108.37
820.948	116.56
821.127	110.42
821.305	118.61
821.483	96.08
821.661	122.71
821.839	124.76
822.017	151.38
822.195	61.27
822.373	182.1
822.551	81.75
822.729	104.28
822.907	65.36
823.085	143.19
823.262	112.47
823.44	102.23
823.618	96.08
823.796	135
823.974	96.08
824.152	155.47
824.329	59.22
824.507	151.38
824.685	149.33
824.863	122.71
825.04	159.57
825.218	57.17
825.396	75.6
825.574	112.47
825.751	55.12
825.929	77.65
826.107	151.38
826.284	159.57
826.462	44.88
826.639	143.19
826.817	114.52
826.994	85.84
827.172	51.03
827.349	167.76
827.527	106.32
827.704	135
827.882	61.27
828.059	65.36
828.237	98.13
828.414	145.24
828.591	75.6
828.769	139.09
828.946	118.61
829.124	124.76
829.301	135
829.478	163.67
829.655	40.79
829.833	98.13
830.01	38.74
830.187	122.71
830.364	44.88
830.542	118.61
830.719	130.9
830.896	118.61
831.073	98.13
831.25	204.63
831.427	57.17
831.604	81.75
831.782	73.56
831.959	122.71
832.136	79.7
832.313	102.23
832.49	14.17
832.667	149.33
832.844	85.84
833.021	71.51
833.198	132.95
833.374	91.99
833.551	122.71
833.728	14.17
833.905	65.36
834.082	67.41
834.259	53.08
834.436	143.19
834.612	81.75
834.789	42.84
834.966	26.45
835.143	61.27
835.319	-2.22
835.496	169.81
835.673	89.94
835.85	83.8
836.026	155.47
836.203	143.19
836.38	65.36
836.556	85.84
836.733	53.08
836.909	81.75
837.086	63.32
837.262	8.02
837.439	118.61
837.616	57.17
837.792	81.75
837.968	91.99
838.145	100.18
838.321	83.8
838.498	26.45
838.674	118.61
838.851	87.89
839.027	18.26
839.203	61.27
839.38	124.76
839.556	122.71
839.732	69.46
839.909	77.65
840.085	102.23
840.261	57.17
840.437	61.27
840.614	83.8
840.79	57.17
840.966	63.32
841.142	42.84
841.318	55.12
841.494	67.41
841.671	34.64
841.847	32.6
842.023	89.94
842.199	51.03
842.375	114.52
842.551	-26.79
842.727	118.61
842.903	71.51
843.079	16.21
843.255	22.36
843.431	18.26
843.607	44.88
843.783	116.56
843.959	53.08
844.134	8.02
844.31	102.23
844.486	53.08
844.662	28.5
844.838	32.6
845.013	5.97
845.189	44.88
845.365	94.04
845.541	42.84
845.716	-14.51
845.892	67.41
846.068	79.7
846.244	40.79
846.419	81.75
846.595	81.75
846.77	8.02
846.946	110.42
847.122	104.28
847.297	59.22
847.473	75.6
847.648	65.36
847.824	87.89
847.999	-92.33
848.175	20.31
848.35	63.32
848.526	24.4
848.701	57.17
848.876	61.27
849.052	38.74
849.227	8.02
849.403	12.12
849.578	114.52
849.753	63.32
849.929	94.04
850.104	63.32
850.279	48.98
850.454	1.88
850.63	36.69
850.805	116.56
850.98	20.31
851.155	53.08
851.33	32.6
851.505	18.26
851.681	16.21
851.856	48.98
852.031	-16.55
852.206	36.69
852.381	26.45
852.556	59.22
852.731	20.31
852.906	79.7
853.081	10.07
853.256	63.32
853.431	100.18
853.606	5.97
853.781	44.88
853.956	-30.89
854.131	20.31
854.305	3.93
854.48	-63.66
854.655	110.42
854.83	-18.6
855.005	28.5
855.18	110.42
855.354	5.97
855.529	81.75
855.704	63.32
855.879	79.7
856.053	-8.36
856.228	24.4
856.403	38.74
856.577	-10.41
856.752	40.79
856.926	-14.51
857.101	77.65
857.276	34.64
857.45	8.02
857.625	20.31
857.799	65.36
857.974	65.36
858.148	53.08
858.323	69.46
858.497	61.27
858.672	3.93
858.846	42.84
859.02	69.46
859.195	59.22
859.369	112.47
859.543	-2.22
859.718	12.12
859.892	40.79
860.066	26.45
860.241	32.6
860.415	-41.13
860.589	-18.6
860.763	36.69
860.938	-26.79
861.112	77.65
861.286	69.46
861.46	79.7
861.634	-26.79
861.808	36.69
861.982	-8.36
862.157	8.02
862.331	-18.6
862.505	28.5
862.679	-43.18
862.853	32.6
863.027	18.26
863.201	44.88
863.375	94.04
863.549	-6.31
863.722	26.45
863.896	22.36
864.07	-24.75
864.244	12.12
864.418	22.36
864.592	-6.31
864.766	-16.55
864.939	-4.27
865.113	1.88
865.287	55.12
865.461	77.65
865.634	102.23
865.808	24.4
865.982	3.93
866.156	32.6
866.329	-16.55
866.503	-10.41
866.676	-20.65
866.85	-32.94
867.024	44.88
867.197	-8.36
867.371	12.12
867.544	-0.17
867.718	-28.84
867.891	53.08
868.065	85.84
868.238	40.79
868.412	-0.17
868.585	32.6
868.759	24.4
868.932	-34.99
869.105	67.41
869.279	20.31
869.452	-0.17
869.625	14.17
869.799	-12.46
869.972	18.26
870.145	-8.36
870.319	22.36
870.492	-43.18
870.665	-61.61
870.838	40.79
871.011	-8.36
871.185	20.31
871.358	-41.13
871.531	-32.94
871.704	18.26
871.877	3.93
872.05	104.28
872.223	1.88
872.396	69.46
872.569	20.31
872.742	-24.75
872.915	12.12
873.088	1.88
873.261	-26.79
873.434	40.79
873.607	-26.79
873.78	-10.41
873.953	46.93
874.126	-26.79
874.299	63.32
874.471	1.88
874.644	12.12
874.817	38.74
874.99	81.75
875.163	-20.65
875.335	5.97
875.508	-10.41
875.681	24.4
875.853	16.21
876.026	32.6
876.199	53.08
876.371	-8.36
876.544	24.4
876.717	-18.6
876.889	26.45
877.062	-4.27
877.234	-8.36
877.407	22.36
877.579	-2.22
877.752	26.45
877.924	32.6
878.097	-47.27
878.269	61.27
878.442	-0.17
878.614	-20.65
878.786	-45.23
878.959	-41.13
879.131	104.28
879.303	8.02
879.476	48.98
879.648	69.46
879.82	40.79
879.993	3.93
880.165	1.88
880.337	-24.75
880.509	-16.55
880.681	-20.65
880.854	-45.23
881.026	48.98
881.198	65.36
881.37	10.07
881.542	34.64
881.714	-37.03
881.886	5.97
882.058	63.32
882.23	26.45
882.402	18.26
882.574	-41.13
882.746	-8.36
882.918	-26.79
883.09	18.26
883.262	14.17
883.434	-14.51
883.606	20.31
883.778	22.36
883.95	38.74
884.122	-24.75
884.293	18.26
884.465	30.55
884.637	-6.31
884.809	-77.99
884.98	14.17
885.152	-2.22
885.324	10.07
885.496	34.64
885.667	-16.55
885.839	12.12
886.011	67.41
886.182	5.97
886.354	3.93
886.525	-57.51
886.697	28.5
886.869	36.69
887.04	-28.84
887.212	16.21
887.383	63.32
887.555	40.79
887.726	-32.94
887.897	10.07
888.069	34.64
888.24	48.98
888.412	-6.31
888.583	8.02
888.754	77.65
888.926	16.21
889.097	3.93
889.268	-16.55
889.44	-67.75
889.611	57.17
889.782	16.21
889.953	-55.47
890.125	3.93
890.296	-16.55
890.467	-0.17
890.638	-0.17
890.809	30.55
890.98	-28.84
891.151	24.4
891.323	8.02
891.494	5.97
891.665	-34.99
891.836	12.12
892.007	22.36
892.178	51.03
892.349	46.93
892.52	14.17
892.691	-41.13
892.862	24.4
893.032	42.84
893.203	83.8
893.374	20.31
893.545	38.74
893.716	-4.27
893.887	26.45
894.057	8.02
894.228	61.27
894.399	-20.65
894.57	26.45
894.74	-6.31
894.911	71.51
895.082	-0.17
895.253	34.64
895.423	-0.17
895.594	28.5
895.764	26.45
895.935	14.17
896.106	67.41
896.276	-43.18
896.447	-116.9
896.617	12.12
896.788	12.12
896.958	-8.36
897.129	1.88
897.299	-12.46
897.47	16.21
897.64	57.17
897.81	-18.6
897.981	36.69
898.151	-51.37
898.322	-4.27
898.492	8.02
898.662	-2.22
898.832	-14.51
899.003	55.12
899.173	36.69
899.343	46.93
899.513	32.6
