Data from USB4F104151__72__11-06-18-724.txt Node

Date: Wed Mar 12 11:06:18 EDT 2025
User: louis
Spectrometer: USB4F10415
Trigger mode: 4
Integration Time (sec): 2.000000E-2
Scans to average: 1
Electric dark correction enabled: true
Nonlinearity correction enabled: false
Boxcar width: 0
XAxis mode: Wavelengths
Number of Pixels in Spectrum: 3648
>>>>>Begin Spectral Data<<<<<
178.204	-65.02
178.424	-65.02
178.644	-65.02
178.864	-122.37
179.084	-138.75
179.304	-15.87
179.524	41.47
179.744	8.7
179.964	-9.73
180.184	29.18
180.404	70.14
180.624	-42.5
180.844	41.47
181.064	-15.87
181.283	-28.16
181.503	-93.69
181.723	14.85
181.943	0.51
182.163	84.48
182.383	10.75
182.602	45.57
182.822	55.81
183.042	-7.68
183.262	66.05
183.482	41.47
183.701	27.14
183.921	51.71
184.141	-50.69
184.361	55.81
184.58	8.7
184.8	39.42
185.02	-22.02
185.239	68.09
185.459	18.94
185.679	61.95
185.898	-13.82
186.118	45.57
186.338	-36.35
186.557	53.76
186.777	-32.26
186.997	-28.16
187.216	66.05
187.436	8.7
187.655	-11.78
187.875	4.61
188.095	70.14
188.314	0.51
188.534	45.57
188.753	57.86
188.973	10.75
189.192	37.38
189.412	-13.82
189.631	6.66
189.851	53.76
190.07	33.28
190.29	41.47
190.509	-17.92
190.729	2.56
190.948	45.57
191.168	53.76
191.387	82.43
191.607	-11.78
191.826	31.23
192.045	39.42
192.265	78.33
192.484	0.51
192.704	0.51
192.923	2.56
193.142	135.68
193.362	55.81
193.581	39.42
193.8	27.14
194.02	33.28
194.239	2.56
194.458	57.86
194.678	-32.26
194.897	27.14
195.116	43.52
195.335	33.28
195.555	23.04
195.774	43.52
195.993	-1.54
196.212	39.42
196.432	8.7
196.651	59.9
196.87	25.09
197.089	70.14
197.308	-9.73
197.528	33.28
197.747	-32.26
197.966	43.52
198.185	4.61
198.404	-15.87
198.623	57.86
198.842	29.18
199.062	53.76
199.281	23.04
199.5	20.99
199.719	-36.35
199.938	29.18
200.157	-15.87
200.376	29.18
200.595	6.66
200.814	2.56
201.033	35.33
201.252	29.18
201.471	68.09
201.69	86.53
201.909	-36.35
202.128	-40.45
202.347	0.51
202.566	0.51
202.785	12.8
203.004	-15.87
203.223	33.28
203.442	39.42
203.661	53.76
203.879	72.19
204.098	55.81
204.317	-13.82
204.536	55.81
204.755	49.66
204.974	61.95
205.193	55.81
205.411	70.14
205.63	25.09
205.849	68.09
206.068	33.28
206.287	53.76
206.505	76.29
206.724	39.42
206.943	47.62
207.162	61.95
207.381	47.62
207.599	20.99
207.818	59.9
208.037	-36.35
208.255	-3.58
208.474	20.99
208.693	14.85
208.911	66.05
209.13	53.76
209.349	53.76
209.567	10.75
209.786	31.23
210.005	35.33
210.223	39.42
210.442	59.9
210.661	37.38
210.879	51.71
211.098	31.23
211.316	-7.68
211.535	55.81
211.753	12.8
211.972	-3.58
212.191	23.04
212.409	-62.98
212.628	61.95
212.846	20.99
213.065	-5.63
213.283	29.18
213.502	4.61
213.72	29.18
213.938	0.51
214.157	-54.78
214.375	-7.68
214.594	-15.87
214.812	49.66
215.031	6.66
215.249	100.86
215.467	-13.82
215.686	-30.21
215.904	25.09
216.122	-11.78
216.341	10.75
216.559	-13.82
216.778	68.09
216.996	72.19
217.214	4.61
217.432	0.51
217.651	25.09
217.869	6.66
218.087	64
218.306	-93.69
218.524	43.52
218.742	-44.54
218.96	-28.16
219.179	-7.68
219.397	-17.92
219.615	39.42
219.833	14.85
220.051	18.94
220.27	39.42
220.488	53.76
220.706	78.33
220.924	18.94
221.142	57.86
221.36	-28.16
221.578	-11.78
221.796	-3.58
222.015	2.56
222.233	41.47
222.451	84.48
222.669	4.61
222.887	51.71
223.105	10.75
223.323	41.47
223.541	6.66
223.759	33.28
223.977	0.51
224.195	92.67
224.413	10.75
224.631	27.14
224.849	29.18
225.067	57.86
225.285	53.76
225.503	-17.92
225.721	-1.54
225.939	-11.78
226.157	16.9
226.375	49.66
226.592	33.28
226.81	70.14
227.028	16.9
227.246	64
227.464	8.7
227.682	66.05
227.9	27.14
228.117	-11.78
228.335	-65.02
228.553	0.51
228.771	47.62
228.989	57.86
229.206	88.57
229.424	-13.82
229.642	76.29
229.86	-7.68
230.077	16.9
230.295	-15.87
230.513	59.9
230.731	25.09
230.948	33.28
231.166	-28.16
231.384	33.28
231.601	23.04
231.819	-32.26
232.037	20.99
232.254	8.7
232.472	37.38
232.689	-3.58
232.907	-36.35
233.125	49.66
233.342	0.51
233.56	82.43
233.777	-15.87
233.995	-7.68
234.213	49.66
234.43	6.66
234.648	29.18
234.865	-7.68
235.083	25.09
235.3	68.09
235.518	51.71
235.735	41.47
235.953	57.86
236.17	35.33
236.388	66.05
236.605	-24.06
236.822	-40.45
237.04	37.38
237.257	51.71
237.475	64
237.692	86.53
237.909	16.9
238.127	14.85
238.344	-26.11
238.562	53.76
238.779	-62.98
238.996	27.14
239.214	-73.21
239.431	68.09
239.648	-5.63
239.865	51.71
240.083	25.09
240.3	51.71
240.517	20.99
240.735	-9.73
240.952	-5.63
241.169	59.9
241.386	39.42
241.603	70.14
241.821	-19.97
242.038	31.23
242.255	4.61
242.472	25.09
242.689	-1.54
242.907	-11.78
243.124	59.9
243.341	-89.6
243.558	49.66
243.775	12.8
243.992	-17.92
244.209	0.51
244.426	18.94
244.643	100.86
244.86	68.09
245.078	6.66
245.295	14.85
245.512	16.9
245.729	-44.54
245.946	45.57
246.163	47.62
246.38	31.23
246.597	35.33
246.814	10.75
247.031	45.57
247.248	90.62
247.464	37.38
247.681	-1.54
247.898	43.52
248.115	-15.87
248.332	29.18
248.549	23.04
248.766	59.9
248.983	-5.63
249.2	6.66
249.417	70.14
249.633	-1.54
249.85	74.24
250.067	55.81
250.284	68.09
250.501	10.75
250.717	39.42
250.934	16.9
251.151	51.71
251.368	51.71
251.585	45.57
251.801	66.05
252.018	12.8
252.235	14.85
252.451	49.66
252.668	43.52
252.885	45.57
253.102	49.66
253.318	37.38
253.535	55.81
253.752	-15.87
253.968	16.9
254.185	2.56
254.401	-3.58
254.618	47.62
254.835	23.04
255.051	35.33
255.268	64
255.484	33.28
255.701	-19.97
255.917	51.71
256.134	20.99
256.351	-30.21
256.567	20.99
256.784	-3.58
257	45.57
257.217	111.1
257.433	29.18
257.65	-28.16
257.866	100.86
258.082	68.09
258.299	74.24
258.515	94.72
258.732	16.9
258.948	-26.11
259.165	80.38
259.381	49.66
259.597	61.95
259.814	61.95
260.03	76.29
260.246	18.94
260.463	37.38
260.679	74.24
260.895	82.43
261.112	94.72
261.328	123.39
261.544	8.7
261.761	84.48
261.977	72.19
262.193	-1.54
262.409	107.01
262.626	80.38
262.842	-48.64
263.058	61.95
263.274	14.85
263.49	109.05
263.707	129.53
263.923	-50.69
264.139	-5.63
264.355	88.57
264.571	14.85
264.787	-28.16
265.004	20.99
265.22	43.52
265.436	76.29
265.652	23.04
265.868	-11.78
266.084	98.81
266.3	119.29
266.516	-56.83
266.732	74.24
266.948	-19.97
267.164	20.99
267.38	59.9
267.596	-11.78
267.812	94.72
268.028	29.18
268.244	53.76
268.46	33.28
268.676	35.33
268.892	-1.54
269.108	8.7
269.324	14.85
269.54	-79.36
269.756	55.81
269.972	-9.73
270.188	27.14
270.403	45.57
270.619	47.62
270.835	12.8
271.051	61.95
271.267	74.24
271.483	57.86
271.698	33.28
271.914	86.53
272.13	41.47
272.346	64
272.562	107.01
272.777	88.57
272.993	25.09
273.209	16.9
273.425	14.85
273.64	29.18
273.856	72.19
274.072	47.62
274.287	10.75
274.503	113.15
274.719	4.61
274.934	53.76
275.15	49.66
275.366	14.85
275.581	12.8
275.797	33.28
276.012	47.62
276.228	-7.68
276.444	29.18
276.659	55.81
276.875	4.61
277.09	33.28
277.306	8.7
277.521	4.61
277.737	-60.93
277.952	41.47
278.168	25.09
278.383	14.85
278.599	-28.16
278.814	16.9
279.03	61.95
279.245	53.76
279.461	80.38
279.676	70.14
279.892	8.7
280.107	14.85
280.322	-7.68
280.538	10.75
280.753	12.8
280.969	20.99
281.184	82.43
281.399	-7.68
281.615	23.04
281.83	-3.58
282.045	-79.36
282.26	57.86
282.476	4.61
282.691	76.29
282.906	4.61
283.122	39.42
283.337	-56.83
283.552	57.86
283.767	-3.58
283.983	27.14
284.198	76.29
284.413	-46.59
284.628	18.94
284.843	45.57
285.058	33.28
285.274	43.52
285.489	12.8
285.704	29.18
285.919	72.19
286.134	25.09
286.349	-28.16
286.564	4.61
286.779	74.24
286.995	59.9
287.21	45.57
287.425	35.33
287.64	70.14
287.855	27.14
288.07	-26.11
288.285	78.33
288.5	27.14
288.715	29.18
288.93	92.67
289.145	4.61
289.36	16.9
289.575	-5.63
289.79	53.76
290.004	72.19
290.219	-22.02
290.434	6.66
290.649	2.56
290.864	51.71
291.079	61.95
291.294	51.71
291.509	55.81
291.724	72.19
291.938	29.18
292.153	86.53
292.368	31.23
292.583	66.05
292.798	18.94
293.012	-1.54
293.227	23.04
293.442	84.48
293.657	72.19
293.871	84.48
294.086	23.04
294.301	55.81
294.516	64
294.73	41.47
294.945	23.04
295.16	25.09
295.374	25.09
295.589	86.53
295.804	43.52
296.018	25.09
296.233	88.57
296.447	119.29
296.662	68.09
296.877	0.51
297.091	12.8
297.306	8.7
297.52	8.7
297.735	-11.78
297.949	51.71
298.164	78.33
298.378	90.62
298.593	20.99
298.807	74.24
299.022	80.38
299.236	-22.02
299.451	-38.4
299.665	84.48
299.88	41.47
300.094	23.04
300.309	59.9
300.523	57.86
300.737	78.33
300.952	16.9
301.166	57.86
301.381	31.23
301.595	8.7
301.809	45.57
302.024	4.61
302.238	16.9
302.452	98.81
302.667	70.14
302.881	47.62
303.095	2.56
303.309	94.72
303.524	64
303.738	43.52
303.952	68.09
304.166	10.75
304.381	37.38
304.595	33.28
304.809	-44.54
305.023	14.85
305.237	49.66
305.452	39.42
305.666	49.66
305.88	20.99
306.094	-15.87
306.308	109.05
306.522	-1.54
306.736	4.61
306.95	115.2
307.164	-19.97
307.379	12.8
307.593	35.33
307.807	78.33
308.021	14.85
308.235	-19.97
308.449	0.51
308.663	18.94
308.877	55.81
309.091	68.09
309.305	143.87
309.519	-24.06
309.733	51.71
309.947	-7.68
310.161	94.72
310.374	57.86
310.588	57.86
310.802	29.18
311.016	66.05
311.23	55.81
311.444	53.76
311.658	94.72
311.872	70.14
312.085	70.14
312.299	86.53
312.513	-22.02
312.727	27.14
312.941	37.38
313.154	107.01
313.368	66.05
313.582	68.09
313.796	100.86
314.009	-36.35
314.223	6.66
314.437	41.47
314.651	27.14
314.864	74.24
315.078	-71.17
315.292	88.57
315.505	-13.82
315.719	53.76
315.933	51.71
316.146	-26.11
316.36	-48.64
316.573	68.09
316.787	100.86
317.001	43.52
317.214	109.05
317.428	10.75
317.641	57.86
317.855	70.14
318.068	16.9
318.282	31.23
318.495	86.53
318.709	25.09
318.922	-3.58
319.136	80.38
319.349	37.38
319.563	-19.97
319.776	57.86
319.99	39.42
320.203	18.94
320.417	94.72
320.63	25.09
320.843	100.86
321.057	41.47
321.27	-19.97
321.483	55.81
321.697	70.14
321.91	45.57
322.124	158.21
322.337	39.42
322.55	29.18
322.763	41.47
322.977	49.66
323.19	31.23
323.403	14.85
323.617	102.91
323.83	70.14
324.043	86.53
324.256	45.57
324.469	53.76
324.683	68.09
324.896	25.09
325.109	4.61
325.322	-11.78
325.535	80.38
325.748	53.76
325.962	16.9
326.175	74.24
326.388	-24.06
326.601	23.04
326.814	12.8
327.027	33.28
327.24	129.53
327.453	33.28
327.666	2.56
327.879	10.75
328.092	70.14
328.305	61.95
328.518	4.61
328.731	74.24
328.944	98.81
329.157	43.52
329.37	41.47
329.583	147.97
329.796	-22.02
330.009	25.09
330.222	100.86
330.435	-3.58
330.648	-46.59
330.861	102.91
331.073	47.62
331.286	-17.92
331.499	45.57
331.712	14.85
331.925	-28.16
332.138	80.38
332.35	72.19
332.563	45.57
332.776	70.14
332.989	68.09
333.202	0.51
333.414	84.48
333.627	-7.68
333.84	82.43
334.053	49.66
334.265	-19.97
334.478	-7.68
334.691	51.71
334.903	94.72
335.116	-24.06
335.329	78.33
335.541	96.77
335.754	76.29
335.966	51.71
336.179	57.86
336.392	29.18
336.604	25.09
336.817	-5.63
337.029	100.86
337.242	-1.54
337.454	25.09
337.667	0.51
337.88	102.91
338.092	86.53
338.305	70.14
338.517	45.57
338.729	12.8
338.942	49.66
339.154	41.47
339.367	29.18
339.579	61.95
339.792	45.57
340.004	43.52
340.217	74.24
340.429	4.61
340.641	25.09
340.854	-11.78
341.066	-11.78
341.278	88.57
341.491	121.34
341.703	55.81
341.915	-19.97
342.128	33.28
342.34	45.57
342.552	72.19
342.764	31.23
342.977	74.24
343.189	33.28
343.401	111.1
343.613	14.85
343.826	41.47
344.038	115.2
344.25	-7.68
344.462	49.66
344.674	45.57
344.886	119.29
345.099	64
345.311	-17.92
345.523	-11.78
345.735	35.33
345.947	31.23
346.159	27.14
346.371	80.38
346.583	76.29
346.795	111.1
347.007	37.38
347.219	82.43
347.431	66.05
347.643	90.62
347.855	23.04
348.067	61.95
348.279	18.94
348.491	6.66
348.703	14.85
348.915	94.72
349.127	10.75
349.339	123.39
349.551	10.75
349.763	39.42
349.975	-28.16
350.187	33.28
350.399	47.62
350.61	53.76
350.822	125.44
351.034	12.8
351.246	107.01
351.458	139.77
351.669	45.57
351.881	55.81
352.093	-73.21
352.305	51.71
352.517	53.76
352.728	70.14
352.94	43.52
353.152	35.33
353.363	27.14
353.575	92.67
353.787	8.7
353.999	31.23
354.21	74.24
354.422	74.24
354.633	51.71
354.845	61.95
355.057	107.01
355.268	27.14
355.48	4.61
355.692	47.62
355.903	20.99
356.115	25.09
356.326	45.57
356.538	88.57
356.749	96.77
356.961	37.38
357.172	4.61
357.384	43.52
357.595	139.77
357.807	-9.73
358.018	35.33
358.23	55.81
358.441	86.53
358.653	0.51
358.864	86.53
359.075	82.43
359.287	16.9
359.498	74.24
359.709	66.05
359.921	-5.63
360.132	31.23
360.344	115.2
360.555	66.05
360.766	107.01
360.977	66.05
361.189	86.53
361.4	119.29
361.611	96.77
361.823	70.14
362.034	33.28
362.245	10.75
362.456	6.66
362.667	82.43
362.879	66.05
363.09	-17.92
363.301	98.81
363.512	66.05
363.723	84.48
363.935	29.18
364.146	84.48
364.357	-42.5
364.568	119.29
364.779	10.75
364.99	107.01
365.201	6.66
365.412	49.66
365.623	-48.64
365.834	70.14
366.045	64
366.256	107.01
366.467	68.09
366.678	53.76
366.889	29.18
367.1	88.57
367.311	135.68
367.522	86.53
367.733	90.62
367.944	18.94
368.155	25.09
368.366	43.52
368.577	143.87
368.788	-5.63
368.999	33.28
369.209	141.82
369.42	129.53
369.631	102.91
369.842	41.47
370.053	72.19
370.264	66.05
370.474	84.48
370.685	47.62
370.896	31.23
371.107	80.38
371.317	66.05
371.528	64
371.739	47.62
371.95	96.77
372.16	31.23
372.371	45.57
372.582	64
372.792	86.53
373.003	98.81
373.214	4.61
373.424	23.04
373.635	86.53
373.846	68.09
374.056	70.14
374.267	55.81
374.477	86.53
374.688	35.33
374.898	39.42
375.109	66.05
375.319	53.76
375.53	33.28
375.74	98.81
375.951	94.72
376.161	39.42
376.372	162.3
376.582	10.75
376.793	57.86
377.003	29.18
377.214	14.85
377.424	82.43
377.635	53.76
377.845	6.66
378.055	-11.78
378.266	37.38
378.476	131.58
378.686	66.05
378.897	74.24
379.107	74.24
379.317	123.39
379.528	53.76
379.738	68.09
379.948	-24.06
380.158	107.01
380.369	57.86
380.579	29.18
380.789	66.05
380.999	66.05
381.21	59.9
381.42	117.25
381.63	53.76
381.84	47.62
382.05	12.8
382.261	107.01
382.471	64
382.681	37.38
382.891	98.81
383.101	45.57
383.311	37.38
383.521	35.33
383.731	94.72
383.941	131.58
384.151	33.28
384.361	115.2
384.571	0.51
384.781	125.44
384.991	125.44
385.201	98.81
385.411	20.99
385.621	119.29
385.831	72.19
386.041	51.71
386.251	78.33
386.461	84.48
386.671	45.57
386.881	41.47
387.091	80.38
387.301	113.15
387.511	111.1
387.72	12.8
387.93	127.49
388.14	35.33
388.35	33.28
388.56	133.63
388.769	74.24
388.979	47.62
389.189	80.38
389.399	53.76
389.609	127.49
389.818	109.05
390.028	33.28
390.238	123.39
390.447	94.72
390.657	88.57
390.867	53.76
391.076	2.56
391.286	66.05
391.496	70.14
391.705	18.94
391.915	82.43
392.125	90.62
392.334	84.48
392.544	96.77
392.753	18.94
392.963	61.95
393.172	98.81
393.382	12.8
393.591	94.72
393.801	72.19
394.01	125.44
394.22	66.05
394.429	104.96
394.639	119.29
394.848	78.33
395.058	57.86
395.267	6.66
395.477	135.68
395.686	109.05
395.895	141.82
396.105	104.96
396.314	113.15
396.524	156.16
396.733	107.01
396.942	164.35
397.152	107.01
397.361	143.87
397.57	102.91
397.78	109.05
397.989	104.96
398.198	205.31
398.407	70.14
398.617	176.64
398.826	111.1
399.035	90.62
399.244	113.15
399.453	135.68
399.663	209.4
399.872	61.95
400.081	121.34
400.29	184.83
400.499	121.34
400.708	176.64
400.917	111.1
401.127	96.77
401.336	111.1
401.545	135.68
401.754	160.25
401.963	154.11
402.172	121.34
402.381	147.97
402.59	125.44
402.799	127.49
403.008	143.87
403.217	98.81
403.426	170.49
403.635	164.35
403.844	168.45
404.053	135.68
404.262	49.66
404.471	258.56
404.68	143.87
404.888	203.26
405.097	154.11
405.306	170.49
405.515	199.16
405.724	193.02
405.933	215.55
406.142	150.01
406.35	236.03
406.559	322.04
406.768	262.65
406.977	221.69
407.185	385.53
407.394	340.47
407.603	221.69
407.812	303.61
408.02	262.65
408.229	233.98
408.438	332.28
408.646	238.08
408.855	315.9
409.064	311.8
409.272	272.89
409.481	418.3
409.69	379.39
409.898	446.97
410.107	395.77
410.315	428.54
410.524	467.45
410.733	416.25
410.941	385.53
411.15	512.5
411.358	514.55
411.567	623.09
411.775	541.18
411.984	543.22
412.192	649.72
412.401	647.67
412.609	637.43
412.818	686.58
413.026	698.87
413.234	731.64
413.443	752.12
413.651	786.93
413.86	666.1
414.068	788.98
414.276	774.64
414.485	831.99
414.693	854.51
414.901	913.91
415.11	887.28
415.318	1026.54
415.526	1020.4
415.734	991.73
415.943	999.92
416.151	1077.74
416.359	1038.83
416.567	1188.33
416.776	1245.68
416.984	1260.01
417.192	1270.25
417.4	1278.44
417.608	1303.02
417.817	1382.89
418.025	1423.85
418.233	1632.74
418.441	1556.97
418.649	1661.41
418.857	1675.75
419.065	1745.38
419.273	1647.08
419.481	1860.07
419.689	1894.88
419.897	2036.19
420.105	2025.95
420.313	1999.33
420.521	2023.91
420.729	2120.16
420.937	2216.41
421.145	2408.92
421.353	2466.27
421.561	2494.94
421.769	2660.82
421.977	2834.9
422.185	2845.14
422.393	2912.72
422.601	3060.18
422.809	3109.33
423.017	3176.91
423.224	3357.13
423.432	3336.65
423.64	3359.18
423.848	3574.22
424.056	3547.59
424.263	3871.17
424.471	3822.02
424.679	4016.58
424.887	4209.09
425.094	4223.42
425.302	4342.21
425.51	4493.76
425.718	4587.96
425.925	4590.01
426.133	4768.18
426.341	4958.64
426.548	5216.69
426.756	5321.13
426.964	5300.66
427.171	5585.32
427.379	5880.23
427.586	5929.38
427.794	6023.59
428.001	6322.59
428.209	6668.7
428.417	6478.24
428.624	7141.78
428.832	7131.54
429.039	6912.41
429.247	7182.74
429.454	7848.33
429.662	8266.11
429.869	7725.45
430.076	8305.03
430.284	8057.22
430.491	8391.04
430.699	8784.25
430.906	8933.75
431.114	9046.39
431.321	9369.97
431.528	9400.69
431.736	9963.88
431.943	10670.43
432.15	10119.53
432.358	10531.17
432.565	10877.27
432.772	10852.7
432.979	11194.71
433.187	11721.04
433.394	11733.32
433.601	12554.56
433.808	12546.37
434.016	12403.01
434.223	12843.32
434.43	14022.95
434.637	13578.54
434.844	14399.78
435.052	14551.33
435.259	14530.85
435.466	14674.21
435.673	14330.15
435.88	15569.17
436.087	16201.99
436.294	16560.39
436.501	16052.49
436.708	16296.2
436.915	16750.85
437.122	17565.94
437.329	17711.35
437.537	18041.07
437.743	18335.98
437.95	17918.19
438.157	19122.4
438.364	19968.21
438.571	19818.71
438.778	19814.61
438.985	21936.31
439.192	20840.64
439.399	21762.23
439.606	21061.82
439.813	22112.43
440.02	23675.03
440.227	23222.43
440.433	22880.42
440.64	23656.6
440.847	23818.39
441.054	24270.99
441.261	25938.04
441.467	25483.39
441.674	26017.91
441.881	26728.55
442.088	27021.41
442.294	26542.19
442.501	27744.34
442.708	27967.57
442.914	28936.26
443.121	30072.89
443.328	29442.11
443.534	31334.43
443.741	30554.16
443.948	30238.77
444.154	32477.2
444.361	32053.27
444.568	32313.36
444.774	32606.22
444.981	32509.97
445.187	33710.08
445.394	35131.37
445.6	34684.91
445.807	38107.07
446.013	36224.98
446.22	36882.38
446.426	38203.32
446.633	38760.37
446.839	39630.76
447.046	38391.73
447.252	40363.93
447.459	40685.46
447.665	40769.43
447.871	41924.48
448.078	43583.33
448.284	41217.93
448.491	42504.06
448.697	44685.14
448.903	45463.37
449.11	45373.26
449.316	44423
449.522	45313.87
449.728	46634.81
449.935	46911.28
450.141	46245.69
450.347	47363.89
450.553	45979.46
450.76	46786.36
450.966	47552.3
451.172	47734.57
451.378	48379.68
451.584	47630.12
451.791	48733.98
451.997	48484.12
452.203	49800.97
452.409	49399.57
452.615	48865.05
452.821	47298.35
453.027	46933.81
453.233	49123.09
453.44	47228.72
453.646	47826.73
453.852	47560.49
454.058	48097.06
454.264	47052.59
454.47	47863.59
454.676	46886.71
454.882	48195.36
455.088	44042.08
455.294	44808.02
455.5	45694.79
455.705	45801.29
455.911	43841.38
456.117	43161.45
456.323	42694.52
456.529	40236.95
456.735	42090.37
456.941	40638.36
457.147	40269.72
457.352	38993.84
457.558	38582.2
457.764	38531
457.97	37961.66
458.176	36952.01
458.381	36935.63
458.587	35100.65
458.793	35342.31
458.999	33468.42
459.204	35706.85
459.41	34906.09
459.616	32282.64
459.821	32999.43
460.027	32264.21
460.233	31897.63
460.438	30451.76
460.644	30230.58
460.85	29085.76
461.055	28960.84
461.261	28727.37
461.466	26665.07
461.672	25723
461.878	27854.93
462.083	25766.01
462.289	25356.41
462.494	25204.86
462.7	24076.43
462.905	23623.83
463.111	23998.61
463.316	24215.69
463.522	23914.64
463.727	23953.55
463.932	23842.96
464.138	23441.56
464.343	23556.25
464.549	23048.35
464.754	24160.4
464.959	23763.09
465.165	23355.55
465.37	22331.56
465.575	21962.93
465.781	22847.65
465.986	22921.38
466.191	21881.01
466.397	21618.87
466.602	20617.41
466.807	21276.86
467.012	21278.91
467.218	21336.25
467.423	20830.4
467.628	21319.87
467.833	22352.04
468.038	21170.36
468.244	20738.24
468.449	21387.45
468.654	20701.38
468.859	20594.89
469.064	20281.55
469.269	19718.36
469.474	19878.1
469.679	19882.19
469.885	19618
470.09	19540.18
470.295	19638.48
470.5	19341.53
470.705	19515.61
470.91	19101.92
471.115	18725.09
471.32	19050.72
471.525	19163.36
471.73	18518.25
471.935	18139.37
472.139	17783.02
472.344	18186.47
472.549	17768.69
472.754	17715.44
472.959	17359.1
473.164	16779.52
473.369	16789.76
473.574	17178.87
473.778	17361.14
473.983	17004.8
474.188	16992.51
474.393	15974.67
474.598	16179.47
474.802	15989
475.007	16011.53
475.212	15952.14
475.417	15567.12
475.621	15352.09
475.826	15546.64
476.031	15192.34
476.235	15022.36
476.44	15036.7
476.645	14731.55
476.849	14893.34
477.054	14594.34
477.259	14364.96
477.463	14471.46
477.668	14090.54
477.872	14389.54
478.077	14041.39
478.282	13703.47
478.486	13705.52
478.691	13398.32
478.895	13488.43
479.1	13609.26
479.304	13463.86
479.509	13214.01
479.713	13070.65
479.918	12896.57
480.122	12781.88
480.326	13113.66
480.531	13314.36
480.735	13070.65
480.94	12622.14
481.144	13281.59
481.348	12704.06
481.553	12826.94
481.757	12534.08
481.961	12714.3
482.166	12675.39
482.37	12792.12
482.574	12521.79
482.778	12618.05
482.983	12933.43
483.187	12439.87
483.391	12699.97
483.595	12564.8
483.8	12456.26
484.004	12583.23
484.208	12607.81
484.412	12507.46
484.616	12540.22
484.821	12652.86
485.025	12616
485.229	12775.74
485.433	12599.62
485.637	12751.17
485.841	12392.77
486.045	12517.7
486.249	12497.22
486.453	12599.62
486.657	12521.79
486.861	12783.93
487.065	12151.11
487.269	12605.76
487.473	12173.64
487.677	12613.95
487.881	12650.81
488.085	12702.01
488.289	12652.86
488.493	12628.29
488.697	12693.82
488.901	12618.05
489.105	12628.29
489.309	12718.4
489.512	12792.12
489.716	12632.38
489.92	12951.87
490.124	12585.28
490.328	12867.9
490.531	13058.36
490.735	12919.1
490.939	13058.36
491.143	12986.68
491.346	13115.7
491.55	12953.91
491.754	13185.33
491.958	13265.21
492.161	13164.86
492.365	13328.69
492.569	13197.62
492.772	13363.51
492.976	13504.82
493.18	13414.71
493.383	13635.89
493.587	13650.22
493.79	13787.44
493.994	13676.85
494.197	13795.63
494.401	14119.21
494.605	14057.77
494.808	14194.98
495.012	14293.29
495.215	14260.52
495.419	14625.06
495.622	14362.92
495.825	14453.03
496.029	14649.63
496.232	15005.98
496.436	14823.71
496.639	15509.78
496.843	15204.63
497.046	15532.31
497.249	15702.29
497.453	16023.82
497.656	15997.2
497.859	15948.04
498.063	16363.78
498.266	16548.1
498.469	16494.85
498.673	16617.73
498.876	16857.34
499.079	17156.35
499.282	17119.48
499.485	17377.53
499.689	17520.88
499.892	17783.02
500.095	17858.8
500.298	18454.76
500.501	17891.57
500.705	18622.69
500.908	18637.03
501.111	18954.46
501.314	18970.85
501.517	19370.2
501.72	19683.54
501.923	19263.71
502.126	19839.19
502.329	20234.44
502.532	20549.83
502.735	20648.13
502.938	20826.31
503.141	20945.09
503.344	21416.12
503.547	21348.54
503.75	21532.86
503.953	22007.98
504.156	22141.1
504.359	22526.12
504.562	22376.62
504.765	23011.49
504.968	23220.38
505.17	23034.02
505.373	23505.05
505.576	23933.07
505.779	23935.12
505.982	24154.26
506.185	24871.04
506.387	24899.72
506.59	24973.44
506.793	25686.14
506.996	25206.91
507.198	26261.62
507.401	26136.69
507.604	26157.17
507.807	26620.01
508.009	27064.42
508.212	27197.54
508.415	27508.83
508.617	27883.61
508.82	28399.69
509.022	27770.97
509.225	28579.92
509.428	28993.61
509.63	28983.37
509.833	29378.62
510.035	29970.49
510.238	29655.1
510.44	30085.17
510.643	30349.36
510.845	30627.88
511.048	30810.15
511.25	31547.42
511.453	31471.65
511.655	32426
511.858	32026.65
512.06	31946.78
512.262	33099.78
512.465	32913.42
512.667	33185.8
512.87	33763.32
513.072	33951.74
513.274	34285.56
513.477	34928.62
513.679	35028.97
513.881	35506.15
514.084	35629.02
514.286	36007.9
514.488	35657.7
514.69	36788.17
514.893	36941.77
515.095	36937.68
515.297	37443.52
515.499	37494.72
515.701	38133.69
515.904	38019
516.106	38762.42
516.308	39020.46
516.51	39434.15
516.712	39790.5
516.914	40273.82
517.116	40683.41
517.318	40892.3
517.52	41056.14
517.722	41279.37
517.925	41850.75
518.127	41969.54
518.329	42403.7
518.531	42434.42
518.733	43433.83
518.935	43405.16
519.136	43364.2
519.338	44365.66
519.54	44124
519.742	44631.89
519.944	44582.74
520.146	45676.36
520.348	45461.32
520.55	45524.81
520.752	46053.19
520.954	47062.83
521.155	46282.56
521.357	47173.42
521.559	47460.14
521.761	48135.97
521.963	47900.45
522.164	48293.66
522.366	48224.03
522.568	48813.85
522.77	49383.18
522.971	49788.68
523.173	49659.66
523.375	49805.06
523.576	50181.89
523.778	50349.82
523.98	50902.78
524.181	51123.96
524.383	50994.93
524.584	51699.44
524.786	51971.81
524.988	52023.01
525.189	52532.96
525.391	52535.01
525.592	53040.85
525.794	52905.69
525.995	53362.39
526.197	53335.76
526.398	53448.4
526.6	53720.78
526.801	53583.57
527.003	54312.64
527.204	54245.06
527.406	54703.81
527.607	54136.52
527.808	54978.23
528.01	54040.26
528.211	54996.66
528.412	55715.5
528.614	55355.06
528.815	55711.41
529.016	56082.09
529.218	55176.89
529.419	55527.09
529.62	55682.73
529.822	55959.21
530.023	55824.04
530.224	55793.32
530.425	56106.66
530.626	56133.29
530.828	55967.4
531.029	57190.04
531.23	56383.14
531.431	55998.12
531.632	56420
531.833	56903.32
532.035	56383.14
532.236	56680.1
532.437	56776.35
532.638	57013.91
532.839	57173.66
533.04	56776.35
533.241	56098.47
533.442	57642.64
533.643	56948.38
533.844	56940.19
534.045	57181.85
534.246	56714.91
534.447	57214.61
534.648	56411.81
534.849	57097.88
535.05	56809.12
535.251	57319.06
535.451	57378.45
535.652	57568.91
535.853	57251.48
536.054	57095.83
536.255	57204.38
536.456	56948.38
536.657	57689.74
536.857	56954.52
537.058	56880.8
537.259	57517.71
537.46	57714.32
537.66	57116.31
537.861	57515.67
538.062	57175.7
538.263	57276.05
538.463	57091.74
538.664	56991.39
538.865	57085.59
539.065	57749.13
539.266	56751.77
539.466	57562.77
539.667	56821.4
539.868	57570.96
540.068	57151.13
540.269	57319.06
540.469	57335.45
540.67	57038.49
540.87	57263.77
541.071	57104.02
541.271	57239.19
541.472	56739.49
541.672	57339.54
541.873	56886.94
542.073	56358.56
542.274	57392.79
542.474	56444.58
542.675	56786.59
542.875	57392.79
543.075	57095.83
543.276	56555.17
543.476	57280.15
543.676	56888.99
543.877	57482.9
544.077	57153.18
544.277	56901.28
544.478	56817.31
544.678	57173.66
544.878	56759.97
545.078	56921.76
545.279	56856.22
545.479	56329.89
545.679	57050.78
545.879	56989.34
546.079	57003.67
546.28	57089.69
546.48	56321.7
546.68	56997.53
546.88	57118.36
547.08	56534.69
547.28	56454.82
547.48	56415.91
547.68	56956.57
547.88	56762.01
548.081	56866.46
548.281	56327.84
548.481	56190.63
548.681	56858.27
548.881	56778.4
549.081	56489.63
549.28	56708.77
549.48	56649.38
549.68	56852.12
549.88	57065.11
550.08	56639.14
550.28	56821.4
550.48	56264.36
550.68	56878.75
550.88	56305.32
551.08	56477.35
551.279	56739.49
551.479	56125.1
551.679	56606.37
551.879	56250.02
552.079	56551.07
552.278	56264.36
552.478	56080.04
552.678	56592.03
552.878	56399.52
553.077	56145.58
553.277	55787.18
553.477	56678.05
553.676	56506.02
553.876	56051.37
554.076	56239.78
554.275	56340.13
554.475	55490.23
554.674	55948.97
554.874	56045.22
555.074	55860.91
555.273	56188.58
555.473	56344.23
555.672	55604.91
555.872	55981.74
556.071	56047.27
556.271	55785.13
556.47	55690.93
556.67	55191.22
556.869	55387.83
557.068	55899.82
557.268	55275.19
557.467	55699.12
557.667	55416.5
557.866	55109.3
558.065	55490.23
558.265	55477.94
558.464	54580.93
558.663	55271.09
558.863	54394.56
559.062	55482.03
559.261	54744.76
559.461	55375.54
559.66	54660.8
559.859	55015.1
560.058	54568.64
560.258	54900.41
560.457	54189.77
560.656	54748.86
560.855	54562.5
561.054	54421.19
561.253	53888.71
561.453	54482.62
561.652	54136.52
561.851	54351.55
562.05	54171.33
562.249	53806.79
562.448	54220.48
562.647	53993.16
562.846	53978.82
563.045	54032.07
563.244	53016.28
563.443	53976.78
563.642	53337.81
563.841	53696.2
564.04	53323.47
564.239	53712.59
564.438	53184.21
564.637	52991.7
564.836	53634.77
565.035	53147.35
565.234	52659.93
565.432	52786.91
565.631	52793.05
565.83	53044.95
566.029	52451.04
566.228	52389.6
566.427	52279.01
566.625	52246.24
566.824	51525.36
567.023	52737.76
567.222	51721.96
567.42	52588.25
567.619	51996.39
567.818	51910.38
568.016	51654.38
568.215	52111.08
568.414	51777.26
568.612	52074.21
568.811	51406.58
569.01	51541.74
569.208	50861.82
569.407	51441.39
569.605	50609.92
569.804	51199.73
570.002	50388.74
570.201	51001.08
570.4	50806.52
570.598	50464.51
570.797	50263.81
570.995	50616.06
571.193	49852.17
571.392	50544.38
571.59	49864.46
571.789	49805.06
571.987	49827.59
572.186	49788.68
572.384	49592.08
572.582	49751.82
572.781	49721.1
572.979	49116.95
573.177	49458.96
573.376	49626.89
573.574	49432.33
573.772	49276.69
573.971	48549.66
574.169	48875.29
574.367	48342.81
574.565	48858.9
574.763	48189.22
574.962	48232.22
575.16	47757.1
575.358	48334.62
575.556	47763.24
575.754	48287.52
575.952	47482.67
576.151	48174.88
576.349	47564.59
576.547	47523.63
576.745	47456.04
576.943	47638.31
577.141	47367.98
577.339	47163.18
577.537	46815.03
577.735	46985.01
577.933	46937.91
578.131	47011.63
578.329	46540.6
578.527	46556.99
578.725	46434.11
578.923	46520.12
579.121	46286.65
579.319	46257.98
579.516	46069.57
579.714	46151.49
579.912	45811.52
580.11	45791.05
580.308	46073.66
580.506	45770.57
580.704	45250.38
580.901	45924.16
581.099	45465.42
581.297	45186.89
581.495	44889.94
581.692	45569.86
581.89	44408.67
582.088	45305.68
582.285	44697.43
582.483	45059.92
582.681	44750.68
582.878	44578.65
583.076	44212.06
583.274	44509.02
583.471	44029.79
583.669	44040.03
583.866	43816.8
584.064	44111.71
584.262	43327.34
584.459	43722.6
584.657	43290.48
584.854	43904.87
585.052	43061.1
585.249	43693.93
585.447	43528.04
585.644	42803.06
585.841	42844.02
586.039	43419.5
586.236	42588.02
586.434	42809.2
586.631	42567.54
586.828	42608.5
587.026	42565.49
587.223	42436.47
587.42	42014.59
587.618	41940.86
587.815	42063.74
588.012	41674.63
588.21	41742.21
588.407	41990.02
588.604	41580.42
588.801	41457.54
588.999	41432.97
589.196	41310.09
589.393	41428.87
589.59	40859.54
589.787	40689.56
589.984	40626.07
590.182	40574.87
590.379	41187.21
590.576	40490.9
590.773	40896.4
590.97	40163.23
591.167	40404.89
591.364	39880.61
591.561	40167.32
591.758	39880.61
591.955	39708.58
592.152	39718.82
592.349	39493.54
592.546	39724.96
592.743	39612.32
592.94	38956.97
593.137	39495.59
593.334	39616.42
593.531	38903.73
593.727	39036.84
593.924	38961.07
594.121	38494.13
594.318	38963.12
594.515	38361.01
594.712	39110.57
594.908	38100.92
595.105	38309.82
595.302	37889.98
595.499	38451.13
595.696	37781.44
595.892	37517.25
596.089	38057.92
596.286	38021.05
596.482	37541.83
596.679	37451.72
596.876	37431.24
597.072	37656.51
597.269	37414.85
597.466	37040.07
597.662	37177.29
597.859	36978.64
598.055	37226.44
598.252	36861.9
598.448	37025.74
598.645	36646.86
598.841	36526.03
599.038	36702.16
599.234	36124.63
599.431	36280.28
599.627	36022.23
599.824	35799.01
600.02	35747.81
600.217	36130.78
600.413	35741.66
600.609	35512.29
600.806	35399.65
601.002	35358.69
601.198	35174.38
601.395	35078.12
601.591	35223.53
601.787	35201
601.984	34545.65
602.18	34969.58
602.376	35284.97
602.572	34703.34
602.769	34541.55
602.965	34265.08
603.161	34707.44
603.357	34226.17
603.553	33947.64
603.75	34512.88
603.946	33894.39
604.142	33961.98
604.338	33777.66
604.534	33984.51
604.73	33284.1
604.926	33519.62
605.122	33748.99
605.318	33748.99
605.514	33243.14
605.71	33183.75
605.906	32727.05
606.102	32731.15
606.298	33153.03
606.494	33024.01
606.69	33013.77
606.886	33073.16
607.082	32415.76
607.278	32765.96
607.474	32303.12
607.67	32851.98
607.866	32018.46
608.062	32233.49
608.257	32413.71
608.453	32321.55
608.649	32040.98
608.845	32194.58
609.041	31989.78
609.236	32176.15
609.432	32032.79
609.628	31852.57
609.824	31653.92
610.019	31543.33
610.215	31592.48
610.411	31731.74
610.606	31455.26
610.802	31756.32
610.998	32000.02
611.193	31418.4
611.389	31299.62
611.584	31461.41
611.78	31080.49
611.976	31381.54
612.171	31193.12
612.367	31371.3
612.562	31035.43
612.758	30494.77
612.953	30597.17
613.149	31213.6
613.344	30642.22
613.539	31070.25
613.735	30765.1
613.93	30709.8
614.126	30691.37
614.321	30818.35
614.517	30580.78
614.712	30603.31
614.907	30339.12
615.103	30818.35
615.298	29902.9
615.493	30478.38
615.688	30230.58
615.884	30539.82
616.079	29956.15
616.274	30087.22
616.47	29956.15
616.665	30130.23
616.86	30025.78
617.055	29843.51
617.25	29990.97
617.445	30144.56
617.641	29589.56
617.836	29730.87
618.031	29511.74
618.226	29573.18
618.421	29087.81
618.616	29603.9
618.811	29085.76
619.006	29499.45
619.201	28483.66
619.396	29040.71
619.591	28319.82
619.786	28667.98
619.981	28297.3
620.176	28653.64
620.371	28203.09
620.566	28278.86
620.761	28209.23
620.956	28553.29
621.151	28033.11
621.346	27770.97
621.541	27457.63
621.735	27836.5
621.93	27211.87
622.125	27500.64
622.32	27037.8
622.515	27197.54
622.709	26706.02
622.904	26845.29
623.099	26941.54
623.294	26880.1
623.488	26568.81
623.683	26415.21
623.878	26151.02
624.072	26028.15
624.267	26007.67
624.462	25907.32
624.656	25395.32
624.851	25868.41
625.046	25428.09
625.24	25430.14
625.435	25024.64
625.629	25206.91
625.824	24834.18
626.018	24928.39
626.213	24318.09
626.407	24569.99
626.602	24488.07
626.796	24592.52
626.991	24109.2
627.185	23947.41
627.38	23967.89
627.574	23834.77
627.768	23838.87
627.963	23597.21
628.157	23328.92
628.352	23392.41
628.546	23074.98
628.74	23367.84
628.935	23230.62
629.129	23101.6
629.323	22573.22
629.517	22657.19
629.712	22472.87
629.906	22679.72
630.1	22087.85
630.294	22378.67
630.489	21969.07
630.683	22075.57
630.877	21645.49
631.071	21997.74
631.265	22055.09
631.459	21407.93
631.653	21297.34
631.848	21444.79
632.042	21266.62
632.236	21104.83
632.43	20682.95
632.624	21029.06
632.818	20668.61
633.012	20400.33
633.206	20555.97
633.4	20672.71
633.594	20056.27
633.788	20267.21
633.982	20029.65
634.176	20281.55
634.369	19898.58
634.563	20000.97
634.757	19814.61
634.951	19976.4
635.145	19493.08
635.339	20052.17
635.533	19585.24
635.726	19486.93
635.92	18817.25
636.114	19136.73
636.308	19050.72
636.501	19056.86
636.695	18960.61
636.889	18671.84
637.083	18686.18
637.276	18735.33
637.47	18260.2
637.664	18338.02
637.857	18292.97
638.051	18368.74
638.244	17953.01
638.438	18133.23
638.632	17901.81
638.825	17961.2
639.019	17590.52
639.212	17488.12
639.406	17678.58
639.599	17467.64
639.793	17527.03
639.986	17180.92
640.18	17252.6
640.373	17387.77
640.567	16998.65
640.76	17010.94
640.954	16830.72
641.147	16660.74
641.34	16519.43
641.534	16627.97
641.727	16611.59
641.92	16648.45
642.114	16253.19
642.307	16351.49
642.5	16423.17
642.694	15986.96
642.887	15802.64
643.08	16281.86
643.273	15841.55
643.467	15888.65
643.66	15749.39
643.853	15538.45
644.046	15423.76
644.239	15407.38
644.432	15288.6
644.626	15347.99
644.819	15218.97
645.012	15319.32
645.205	15210.78
645.398	15038.75
645.591	15010.07
645.784	15122.71
645.977	14551.33
646.17	14897.44
646.363	14493.99
646.556	14416.16
646.749	14364.96
646.942	14467.36
647.135	14135.59
647.328	14352.68
647.521	14254.37
647.714	13926.7
647.907	14100.78
648.099	14010.67
648.292	14172.46
648.485	13740.33
648.678	13701.42
648.871	13461.81
649.064	13537.59
649.256	13594.93
649.449	13492.53
649.642	13304.12
649.835	13449.52
650.027	13390.13
650.22	13082.94
650.413	13033.79
650.605	13185.33
650.798	13115.7
650.991	12876.09
651.183	12847.42
651.376	12742.97
651.568	12804.41
651.761	12321.09
651.954	12644.67
652.146	12572.99
652.339	12667.2
652.531	12319.04
652.724	12423.49
652.916	12056.9
653.109	12253.51
653.301	11864.39
653.494	12325.19
653.686	11895.11
653.879	11979.08
654.071	11970.89
654.263	11776.33
654.456	11499.86
654.648	11678.03
654.84	11536.72
655.033	11600.21
655.225	11497.81
655.417	11307.35
655.61	11481.42
655.802	11301.2
655.994	11188.57
656.186	11473.23
656.379	11168.09
656.571	11192.66
656.763	11067.74
656.955	11030.87
657.148	11043.16
657.34	10940.76
657.532	10707.29
657.724	10682.72
657.916	10801.5
658.108	10608.99
658.3	10645.85
658.492	10551.65
658.684	10436.96
658.876	10527.07
659.068	10291.55
659.26	10297.7
659.452	10365.28
659.644	10271.08
659.836	10154.34
660.028	10150.25
660.22	10187.11
660.412	9963.88
660.604	10043.75
660.796	9900.39
660.988	9742.7
661.18	9757.04
661.372	9859.43
661.563	10039.65
661.755	9496.94
661.947	9578.86
662.139	9533.81
662.331	9449.84
662.522	9472.37
662.714	9265.52
662.906	9396.59
663.097	9204.08
663.289	9161.08
663.481	9077.11
663.673	9173.36
663.864	9068.92
664.056	8868.22
664.247	9236.85
664.439	9113.97
664.631	8993.14
664.822	9058.68
665.014	8984.95
665.205	8864.12
665.397	8731
665.588	8872.31
665.78	8726.91
665.971	8491.39
666.163	8688
666.354	8417.66
666.546	8429.95
666.737	8331.65
666.929	8354.18
667.12	8259.97
667.311	8434.05
667.503	8233.35
667.694	8364.42
667.885	8270.21
668.077	8171.91
668.268	8194.43
668.459	8173.96
668.651	8063.36
668.842	8032.65
669.033	7971.21
669.224	7942.53
669.416	8003.97
669.607	7860.62
669.798	7729.55
669.989	7969.16
670.18	7733.64
670.371	7803.27
670.563	7877
670.754	7561.61
670.945	7475.6
671.136	7825.8
671.327	7518.61
671.518	7553.42
671.709	7500.17
671.9	7508.37
672.091	7276.94
672.282	7356.82
672.473	7371.15
672.664	7491.98
672.855	7262.61
673.046	7238.03
673.237	7182.74
673.428	7416.21
673.619	7129.49
673.809	7002.52
674	7027.09
674.191	7109.01
674.382	6826.39
674.573	6996.37
674.764	7070.1
674.954	7008.66
675.145	6785.43
675.336	6875.54
675.527	6859.16
675.717	6848.92
675.908	6867.35
676.099	6752.66
676.289	6748.57
676.48	6607.26
676.671	6615.45
676.861	6683.03
677.052	6586.78
677.243	6623.64
677.433	6488.48
677.624	6685.08
677.814	6418.85
678.005	6523.29
678.195	6468
678.386	6351.26
678.576	6480.29
678.767	6480.29
678.957	6289.82
679.148	6451.61
679.338	6318.5
679.529	6349.22
679.719	6283.68
679.909	6468
680.1	6019.49
680.29	6394.27
680.481	6197.67
680.671	6095.27
680.861	6160.8
681.052	6203.81
681.242	6101.41
681.432	6154.66
681.622	5974.44
681.813	5949.86
682.003	5988.77
682.193	5974.44
682.383	6132.13
682.573	5947.81
682.764	5867.94
682.954	5849.51
683.144	5906.85
683.334	5786.02
683.524	5777.83
683.714	5710.25
683.904	5894.57
684.094	5966.24
684.284	5685.67
684.474	5689.77
684.664	5697.96
684.854	5685.67
685.044	5722.54
685.234	5609.9
685.424	5609.9
685.614	5575.08
685.804	5519.79
685.994	5620.14
686.184	5562.8
686.374	5499.31
686.564	5536.17
686.753	5560.75
686.943	5382.57
687.133	5591.47
687.323	5433.77
687.513	5530.03
687.702	5366.19
687.892	5390.77
688.082	5222.83
688.272	5396.91
688.461	5251.5
688.651	5251.5
688.841	5239.22
689.03	5218.74
689.22	5175.73
689.41	5022.13
689.599	5267.89
689.789	5011.89
689.979	5120.43
690.168	5050.8
690.358	5046.71
690.547	4979.12
690.737	4964.79
690.926	5013.94
691.116	4858.29
691.305	4997.56
691.495	4891.06
691.684	4809.14
691.874	4870.58
692.063	4768.18
692.252	4796.85
692.442	5034.42
692.631	4870.58
692.82	4862.39
693.01	4723.13
693.199	4874.68
693.388	4794.81
693.578	4692.41
693.767	4745.66
693.956	4553.15
694.146	4751.8
694.335	4624.83
694.524	4579.77
694.713	4657.59
694.902	4620.73
695.092	4686.26
695.281	4657.59
695.47	4450.75
695.659	4481.47
695.848	4438.46
696.037	4567.48
696.226	4571.58
696.415	4520.38
696.604	4592.06
696.793	4479.42
696.982	4379.07
697.171	4454.84
697.36	4454.84
697.549	4489.66
697.738	4303.29
697.927	4401.6
698.116	4438.46
698.305	4331.97
698.494	4397.5
698.683	4436.41
698.872	4448.7
699.061	4248
699.25	4137.41
699.438	4280.77
699.627	4323.77
699.816	4297.15
700.005	4239.81
700.193	4204.99
700.382	4395.45
700.571	4248
700.76	4123.07
700.948	4299.2
701.137	4276.67
701.326	4239.81
701.514	4225.47
701.703	4200.9
701.892	4264.38
702.08	4219.33
702.269	4284.86
702.457	4176.32
702.646	4188.61
702.834	4131.26
703.023	4172.22
703.212	4166.08
703.4	4204.99
703.589	4166.08
703.777	4051.39
703.965	3989.96
704.154	4157.89
704.342	3998.15
704.531	3985.86
704.719	3949
704.907	4094.4
705.096	4006.34
705.284	4061.63
705.472	4004.29
705.661	4061.63
705.849	4217.28
706.037	4065.73
706.226	3965.38
706.414	4098.5
706.602	3977.67
706.79	4114.88
706.979	3883.46
707.167	3862.98
707.355	3858.89
707.543	4035.01
707.731	3961.28
707.919	4004.29
708.107	3920.32
708.296	4051.39
708.484	3893.7
708.672	3867.08
708.86	3830.21
709.048	3850.69
709.236	3760.58
709.424	3973.57
709.612	3805.64
709.8	3860.93
709.988	3799.49
710.176	3887.56
710.364	3918.28
710.551	3797.45
710.739	3850.69
710.927	3668.42
711.115	3774.92
711.303	3772.87
711.491	3758.53
711.679	3666.38
711.866	3787.21
712.054	3697.1
712.242	3838.41
712.43	3768.77
712.617	3768.77
712.805	3731.91
712.993	3690.95
713.181	3615.18
713.368	3686.86
713.556	3551.69
713.744	3541.45
713.931	3733.96
714.119	3641.8
714.306	3676.62
714.494	3606.98
714.682	3678.66
714.869	3680.71
715.057	3717.58
715.244	3617.22
715.432	3475.91
715.619	3580.36
715.807	3523.02
715.994	3633.61
716.182	3520.97
716.369	3563.98
716.556	3617.22
716.744	3488.2
716.931	3592.65
717.119	3486.15
717.306	3570.12
717.493	3580.36
717.681	3584.46
717.868	3504.59
718.055	3465.68
718.242	3424.72
718.43	3457.48
718.617	3498.44
718.804	3555.79
718.991	3518.92
719.179	3432.91
719.366	3428.81
719.553	3541.45
719.74	3488.2
719.927	3512.78
720.114	3336.65
720.301	3357.13
720.488	3326.41
720.676	3439.05
720.863	3416.52
721.05	3363.28
721.237	3426.76
721.424	3459.53
721.611	3447.24
721.798	3404.24
721.985	3389.9
722.172	3426.76
722.358	3318.22
722.545	3303.89
722.732	3264.97
722.919	3367.37
723.106	3320.27
723.293	3342.8
723.48	3330.51
723.667	3230.16
723.853	3176.91
724.04	3336.65
724.227	3236.3
724.414	3244.49
724.6	3230.16
724.787	3201.49
724.974	3252.69
725.161	3250.64
725.347	3230.16
725.534	3236.3
725.72	3250.64
725.907	3195.34
726.094	3209.68
726.28	3097.04
726.467	3224.01
726.653	3209.68
726.84	3092.94
727.027	3275.21
727.213	3205.58
727.4	3199.44
727.586	3084.75
727.773	3248.59
727.959	3199.44
728.145	3297.74
728.332	3142.1
728.518	3199.44
728.705	3158.48
728.891	3035.6
729.077	3281.36
729.264	3176.91
729.45	3187.15
729.636	3154.38
729.823	3111.38
730.009	3113.42
730.195	3172.82
730.382	3125.71
730.568	3086.8
730.754	2898.39
730.94	3101.14
731.126	2982.35
731.313	3097.04
731.499	3019.22
731.685	3129.81
731.871	3021.27
732.057	2927.06
732.243	3109.33
732.429	3047.89
732.615	3117.52
732.801	3047.89
732.987	3115.47
733.173	2961.87
733.359	2976.21
733.545	3023.31
733.731	2851.28
733.917	2996.69
734.103	3062.23
734.289	2994.64
734.475	3037.65
734.661	3011.03
734.847	3004.88
735.033	2955.73
735.219	2886.1
735.404	3074.51
735.59	2947.54
735.776	2865.62
735.962	2904.53
736.148	2961.87
736.333	2920.92
736.519	2750.93
736.705	2927.06
736.89	2857.43
737.076	2898.39
737.262	3006.93
737.447	2884.05
737.633	2841.04
737.819	2884.05
738.004	2804.18
738.19	2804.18
738.375	2834.9
738.561	2820.56
738.747	2914.77
738.932	2669.02
739.118	2931.16
739.303	2826.71
739.489	2959.83
739.674	2853.33
739.859	2705.88
740.045	2746.84
740.23	2701.78
740.416	2666.97
740.601	2793.94
740.786	2640.34
740.972	2634.2
741.157	2634.2
741.342	2679.26
741.528	2662.87
741.713	2728.41
741.898	2621.91
742.084	2662.87
742.269	2654.68
742.454	2613.72
742.639	2591.19
742.824	2572.76
743.01	2591.19
743.195	2591.19
743.38	2554.33
743.565	2476.51
743.75	2531.8
743.935	2626.01
744.12	2539.99
744.305	2568.66
744.49	2548.19
744.675	2501.08
744.86	2490.84
745.045	2494.94
745.23	2464.22
745.415	2447.83
745.6	2486.75
745.785	2478.55
745.97	2601.43
746.155	2292.19
746.34	2402.78
746.525	2318.81
746.71	2509.27
746.895	2296.28
747.079	2382.3
747.264	2206.17
747.449	2271.71
747.634	2345.44
747.819	2404.83
748.003	2214.37
748.188	2163.17
748.373	2384.35
748.557	2331.1
748.742	2312.67
748.927	2154.98
749.111	2263.52
749.296	2095.58
749.481	2185.69
749.665	2206.17
749.85	2091.49
750.034	2050.53
750.219	2152.93
750.404	2171.36
750.588	2060.77
750.773	2081.25
750.957	1958.37
751.141	2052.58
751.326	2023.91
751.51	1917.41
751.695	2028
751.879	1944.03
752.064	1958.37
752.248	1948.13
752.432	1892.84
752.617	1911.27
752.801	1941.99
752.985	1968.61
753.17	1825.25
753.354	1948.13
753.538	1898.98
753.722	1905.12
753.907	1788.39
754.091	1800.68
754.275	1872.36
754.459	1729
754.643	1694.18
754.828	1769.96
755.012	1800.68
755.196	1751.53
755.38	1718.76
755.564	1673.7
755.748	1729
755.932	1671.65
756.116	1657.32
756.3	1579.5
756.484	1661.41
756.668	1559.02
756.852	1612.26
757.036	1653.22
757.22	1706.47
757.404	1561.06
757.588	1554.92
757.772	1581.54
757.956	1487.34
758.14	1528.3
758.323	1653.22
758.507	1614.31
758.691	1538.54
758.875	1606.12
759.059	1530.34
759.242	1524.2
759.426	1475.05
759.61	1464.81
759.794	1473
759.977	1460.71
760.161	1509.86
760.345	1548.78
760.528	1554.92
760.712	1419.75
760.895	1456.62
761.079	1395.18
761.263	1397.23
761.446	1456.62
761.63	1411.56
761.813	1380.84
761.997	1278.44
762.18	1366.51
762.364	1397.23
762.547	1294.83
762.731	1356.27
762.914	1382.89
763.098	1303.02
763.281	1327.6
763.464	1350.12
763.648	1266.16
763.831	1331.69
764.015	1421.8
764.198	1270.25
764.381	1368.56
764.564	1384.94
764.748	1303.02
764.931	1290.73
765.114	1331.69
765.297	1358.32
765.481	1282.54
765.664	1167.85
765.847	1296.88
766.03	1200.62
766.213	1270.25
766.397	1235.44
766.58	1264.11
766.763	1245.68
766.946	1251.82
767.129	1253.87
767.312	1278.44
767.495	1192.43
767.678	1186.29
767.861	1253.87
768.044	1249.77
768.227	1276.4
768.41	1196.53
768.593	1180.14
768.776	1092.08
768.959	1169.9
769.142	1241.58
769.324	1196.53
769.507	1262.06
769.69	1161.71
769.873	1147.37
770.056	1163.76
770.239	1069.55
770.421	1094.13
770.604	1149.42
770.787	1008.11
770.97	1096.18
771.152	1143.28
771.335	1120.75
771.518	1079.79
771.7	1114.61
771.883	1104.37
772.066	1053.17
772.248	1108.46
772.431	1020.4
772.613	1174
772.796	1090.03
772.978	1065.46
773.161	1153.52
773.343	1028.59
773.526	1010.16
773.708	1020.4
773.891	995.82
774.073	1059.31
774.256	1049.07
774.438	1014.26
774.621	920.05
774.803	1016.3
774.985	913.91
775.168	963.06
775.35	907.76
775.532	926.19
775.715	928.24
775.897	973.3
776.079	928.24
776.261	963.06
776.444	862.71
776.626	889.33
776.808	831.99
776.99	893.43
777.173	909.81
777.355	905.71
777.537	815.6
777.719	924.15
777.901	879.09
778.083	840.18
778.265	872.95
778.447	889.33
778.629	840.18
778.811	934.39
778.993	866.8
779.175	883.19
779.357	903.67
779.539	815.6
779.721	772.6
779.903	786.93
780.085	856.56
780.267	688.63
780.449	766.45
780.631	778.74
780.812	807.41
780.994	774.64
781.176	758.26
781.358	735.73
781.54	688.63
781.721	741.88
781.903	793.08
782.085	692.73
782.267	692.73
782.448	709.11
782.63	672.25
782.812	688.63
782.993	702.97
783.175	741.88
783.357	627.19
783.538	676.34
783.72	678.39
783.901	657.91
784.083	702.97
784.264	596.47
784.446	659.96
784.627	690.68
784.809	647.67
784.99	637.43
785.172	657.91
785.353	586.23
785.535	625.14
785.716	631.29
785.897	637.43
786.079	549.37
786.26	606.71
786.441	498.17
786.623	535.03
786.804	629.24
786.985	594.42
787.167	590.33
787.348	559.61
787.529	657.91
787.71	582.14
787.891	504.31
788.073	512.5
788.254	492.02
788.435	549.37
788.616	543.22
788.797	498.17
788.978	489.98
789.159	590.33
789.34	469.5
789.522	449.02
789.703	512.5
789.884	565.75
790.065	451.07
790.246	512.5
790.427	514.55
790.607	457.21
790.788	516.6
790.969	457.21
791.15	512.5
791.331	563.7
791.512	500.22
791.693	430.59
791.874	420.35
792.054	496.12
792.235	489.98
792.416	459.26
792.597	373.24
792.778	485.88
792.958	473.59
793.139	489.98
793.32	424.44
793.5	399.87
793.681	489.98
793.862	434.68
794.042	432.63
794.223	446.97
794.404	399.87
794.584	442.87
794.765	438.78
794.945	383.48
795.126	426.49
795.306	410.11
795.487	457.21
795.667	289.28
795.848	369.15
796.028	373.24
796.209	348.67
796.389	412.15
796.57	459.26
796.75	305.66
796.93	410.11
797.111	330.23
797.291	342.52
797.471	358.91
797.652	377.34
797.832	313.85
798.012	342.52
798.192	330.23
798.373	385.53
798.553	305.66
798.733	354.81
798.913	317.95
799.093	344.57
799.274	317.95
799.454	334.33
799.634	346.62
799.814	377.34
799.994	336.38
800.174	305.66
800.354	330.23
800.534	299.52
800.714	332.28
800.894	328.19
801.074	332.28
801.254	266.75
801.434	324.09
801.614	287.23
801.794	291.32
801.974	670.2
802.154	338.43
802.334	326.14
802.514	305.66
802.693	256.51
802.873	332.28
803.053	334.33
803.233	332.28
803.413	309.76
803.592	203.26
803.772	254.46
803.952	287.23
804.131	240.12
804.311	338.43
804.491	354.81
804.67	258.56
804.85	297.47
805.03	242.17
805.209	285.18
805.389	252.41
805.568	252.41
805.748	301.56
805.928	274.94
806.107	285.18
806.287	215.55
806.466	389.63
806.646	217.6
806.825	244.22
807.004	256.51
807.184	223.74
807.363	238.08
807.543	205.31
807.722	256.51
807.901	164.35
808.081	213.5
808.26	244.22
808.439	283.13
808.619	233.98
808.798	242.17
808.977	291.32
809.156	193.02
809.336	274.94
809.515	272.89
809.694	289.28
809.873	238.08
810.052	262.65
810.231	332.28
810.411	250.36
810.59	264.7
810.769	184.83
810.948	176.64
811.127	178.69
811.306	223.74
811.485	201.21
811.664	260.6
811.843	221.69
812.022	236.03
812.201	266.75
812.38	254.46
812.559	205.31
812.737	274.94
812.916	213.5
813.095	207.36
813.274	231.93
813.453	248.32
813.632	225.79
813.811	209.4
813.989	197.12
814.168	186.88
814.347	143.87
814.526	166.4
814.704	266.75
814.883	174.59
815.062	186.88
815.24	207.36
815.419	166.4
815.598	127.49
815.776	199.16
815.955	258.56
816.133	152.06
816.312	223.74
816.49	221.69
816.669	164.35
816.847	164.35
817.026	162.3
817.204	162.3
817.383	160.25
817.561	174.59
817.74	180.73
817.918	145.92
818.097	137.73
818.275	119.29
818.453	199.16
818.632	233.98
818.81	164.35
818.988	121.34
819.167	131.58
819.345	143.87
819.523	152.06
819.701	184.83
819.879	186.88
820.058	170.49
820.236	166.4
820.414	168.45
820.592	131.58
820.77	139.77
820.948	98.81
821.127	164.35
821.305	107.01
821.483	199.16
821.661	190.97
821.839	176.64
822.017	92.67
822.195	88.57
822.373	207.36
822.551	131.58
822.729	201.21
822.907	107.01
823.085	188.93
823.262	125.44
823.44	207.36
823.618	154.11
823.796	147.97
823.974	57.86
824.152	96.77
824.329	135.68
824.507	145.92
824.685	186.88
824.863	137.73
825.04	147.97
825.218	176.64
825.396	137.73
825.574	145.92
825.751	172.54
825.929	184.83
826.107	125.44
826.284	131.58
826.462	111.1
826.639	59.9
826.817	139.77
826.994	123.39
827.172	78.33
827.349	197.12
827.527	113.15
827.704	152.06
827.882	78.33
828.059	72.19
828.237	102.91
828.414	127.49
828.591	174.59
828.769	135.68
828.946	90.62
829.124	160.25
829.301	135.68
829.478	100.86
829.655	184.83
829.833	137.73
830.01	90.62
830.187	96.77
830.364	78.33
830.542	72.19
830.719	170.49
830.896	111.1
831.073	90.62
831.25	119.29
831.427	141.82
831.604	72.19
831.782	94.72
831.959	86.53
832.136	70.14
832.313	135.68
832.49	135.68
832.667	158.21
832.844	57.86
833.021	123.39
833.198	66.05
833.374	158.21
833.551	111.1
833.728	74.24
833.905	74.24
834.082	102.91
834.259	152.06
834.436	86.53
834.612	82.43
834.789	102.91
834.966	115.2
835.143	119.29
835.319	84.48
835.496	68.09
835.673	23.04
835.85	215.55
836.026	113.15
836.203	45.57
836.38	96.77
836.556	109.05
836.733	125.44
836.909	139.77
837.086	57.86
837.262	156.16
837.439	90.62
837.616	53.76
837.792	90.62
837.968	119.29
838.145	111.1
838.321	107.01
838.498	107.01
838.674	31.23
838.851	123.39
839.027	66.05
839.203	49.66
839.38	166.4
839.556	133.63
839.732	94.72
839.909	111.1
840.085	98.81
840.261	121.34
840.437	111.1
840.614	49.66
840.79	107.01
840.966	33.28
841.142	180.73
841.318	70.14
841.494	35.33
841.671	72.19
841.847	37.38
842.023	64
842.199	107.01
842.375	92.67
842.551	45.57
842.727	-5.63
842.903	129.53
843.079	37.38
843.255	35.33
843.431	74.24
843.607	156.16
843.783	47.62
843.959	102.91
844.134	4.61
844.31	133.63
844.486	98.81
844.662	41.47
844.838	20.99
845.013	49.66
845.189	102.91
845.365	104.96
845.541	49.66
845.716	41.47
845.892	72.19
846.068	53.76
846.244	43.52
846.419	111.1
846.595	-19.97
846.77	72.19
846.946	43.52
847.122	88.57
847.297	66.05
847.473	64
847.648	-42.5
847.824	53.76
847.999	37.38
848.175	137.73
848.35	29.18
848.526	14.85
848.701	55.81
848.876	41.47
849.052	27.14
849.227	137.73
849.403	107.01
849.578	51.71
849.753	76.29
849.929	0.51
850.104	78.33
850.279	121.34
850.454	20.99
850.63	55.81
850.805	12.8
850.98	94.72
851.155	76.29
851.33	61.95
851.505	10.75
851.681	55.81
851.856	4.61
852.031	53.76
852.206	57.86
852.381	18.94
852.556	88.57
852.731	74.24
852.906	-19.97
853.081	86.53
853.256	111.1
853.431	2.56
853.606	41.47
853.781	57.86
853.956	-130.56
854.131	59.9
854.305	-13.82
854.48	145.92
854.655	49.66
854.83	41.47
855.005	35.33
855.18	49.66
855.354	25.09
855.529	70.14
855.704	55.81
855.879	104.96
856.053	8.7
856.228	64
856.403	-7.68
856.577	86.53
856.752	76.29
856.926	-13.82
857.101	37.38
857.276	-40.45
857.45	-9.73
857.625	39.42
857.799	-36.35
857.974	6.66
858.148	-1.54
858.323	6.66
858.497	-13.82
858.672	76.29
858.846	51.71
859.02	61.95
859.195	-3.58
859.369	94.72
859.543	25.09
859.718	61.95
859.892	-42.5
860.066	-1.54
860.241	-32.26
860.415	61.95
860.589	27.14
860.763	90.62
860.938	25.09
861.112	111.1
861.286	29.18
861.46	20.99
861.634	45.57
861.808	33.28
861.982	72.19
862.157	37.38
862.331	-48.64
862.505	35.33
862.679	20.99
862.853	33.28
863.027	12.8
863.201	66.05
863.375	-36.35
863.549	25.09
863.722	59.9
863.896	94.72
864.07	-17.92
864.244	-54.78
864.418	14.85
864.592	33.28
864.766	29.18
864.939	80.38
865.113	35.33
865.287	51.71
865.461	-28.16
865.634	45.57
865.808	49.66
865.982	51.71
866.156	-3.58
866.329	27.14
866.503	-30.21
866.676	20.99
866.85	76.29
867.024	-34.3
867.197	-11.78
867.371	31.23
867.544	-15.87
867.718	-17.92
867.891	-28.16
868.065	12.8
868.238	20.99
868.412	12.8
868.585	55.81
868.759	-48.64
868.932	18.94
869.105	37.38
869.279	53.76
869.452	-1.54
869.625	0.51
869.799	39.42
869.972	-13.82
870.145	31.23
870.319	-1.54
870.492	25.09
870.665	49.66
870.838	12.8
871.011	45.57
871.185	45.57
871.358	-40.45
871.531	29.18
871.704	39.42
871.877	14.85
872.05	10.75
872.223	12.8
872.396	53.76
872.569	39.42
872.742	-28.16
872.915	-15.87
873.088	31.23
873.261	25.09
873.434	29.18
873.607	43.52
873.78	47.62
873.953	-11.78
874.126	23.04
874.299	92.67
874.471	51.71
874.644	61.95
874.817	18.94
874.99	6.66
875.163	4.61
875.335	-15.87
875.508	98.81
875.681	98.81
875.853	14.85
876.026	49.66
876.199	-24.06
876.371	57.86
876.544	-40.45
876.717	74.24
876.889	51.71
877.062	82.43
877.234	84.48
877.407	23.04
877.579	-15.87
877.752	16.9
877.924	-36.35
878.097	49.66
878.269	74.24
878.442	49.66
878.614	-81.41
878.786	12.8
878.959	8.7
879.131	29.18
879.303	-52.74
879.476	41.47
879.648	25.09
879.82	4.61
879.993	72.19
880.165	20.99
880.337	14.85
880.509	45.57
880.681	29.18
880.854	-62.98
881.026	12.8
881.198	14.85
881.37	37.38
881.542	37.38
881.714	35.33
881.886	-28.16
882.058	29.18
882.23	-3.58
882.402	55.81
882.574	39.42
882.746	2.56
882.918	-3.58
883.09	10.75
883.262	-28.16
883.434	27.14
883.606	-13.82
883.778	16.9
883.95	33.28
884.122	49.66
884.293	8.7
884.465	8.7
884.637	-3.58
884.809	-15.87
884.98	59.9
885.152	-44.54
885.324	4.61
885.496	-17.92
885.667	25.09
885.839	-81.41
886.011	90.62
886.182	72.19
886.354	-42.5
886.525	-65.02
886.697	12.8
886.869	-22.02
887.04	49.66
887.212	59.9
887.383	66.05
887.555	-30.21
887.726	-26.11
887.897	-13.82
888.069	16.9
888.24	59.9
888.412	-3.58
888.583	12.8
888.754	-3.58
888.926	-3.58
889.097	70.14
889.268	-58.88
889.44	-54.78
889.611	-5.63
889.782	-50.69
889.953	-15.87
890.125	66.05
890.296	25.09
890.467	45.57
890.638	-17.92
890.809	57.86
890.98	33.28
891.151	43.52
891.323	64
891.494	8.7
891.665	14.85
891.836	68.09
892.007	20.99
892.178	20.99
892.349	-7.68
892.52	27.14
892.691	-13.82
892.862	-24.06
893.032	-7.68
893.203	37.38
893.374	-44.54
893.545	31.23
893.716	-40.45
893.887	-3.58
894.057	59.9
894.228	23.04
894.399	45.57
894.57	33.28
894.74	0.51
894.911	-24.06
895.082	-1.54
895.253	-56.83
895.423	86.53
895.594	51.71
895.764	-5.63
895.935	80.38
896.106	-44.54
896.276	-13.82
896.447	-34.3
896.617	35.33
896.788	6.66
896.958	23.04
897.129	-3.58
897.299	66.05
897.47	39.42
897.64	55.81
897.81	-46.59
897.981	37.38
898.151	-38.4
898.322	-44.54
898.492	-19.97
898.662	4.61
898.832	-17.92
899.003	49.66
899.173	-32.26
899.343	2.56
899.513	29.18
