Data from USB4F104151__136__11-07-56-753.txt Node

Date: Wed Mar 12 11:07:56 EDT 2025
User: louis
Spectrometer: USB4F10415
Trigger mode: 4
Integration Time (sec): 2.000000E-2
Scans to average: 1
Electric dark correction enabled: true
Nonlinearity correction enabled: false
Boxcar width: 0
XAxis mode: Wavelengths
Number of Pixels in Spectrum: 3648
>>>>>Begin Spectral Data<<<<<
178.204	-60.59
178.424	-60.59
178.644	-60.59
178.864	-72.87
179.084	-68.78
179.304	-44.2
179.524	-21.67
179.744	-7.34
179.964	11.09
180.184	50
180.404	41.81
180.624	-19.63
180.844	74.58
181.064	-54.44
181.283	23.38
181.503	-58.54
181.723	4.95
181.943	-101.55
182.163	7
182.383	-9.39
182.602	43.86
182.822	-1.19
183.042	9.05
183.262	7
183.482	37.72
183.701	37.72
183.921	19.29
184.141	-29.87
184.361	97.11
184.58	-1.19
184.8	31.57
185.02	58.2
185.239	17.24
185.459	33.62
185.679	39.76
185.898	-60.59
186.118	56.15
186.338	11.09
186.557	60.24
186.777	39.76
186.997	-70.83
187.216	-27.82
187.436	37.72
187.655	0.85
187.875	56.15
188.095	-11.43
188.314	76.63
188.534	62.29
188.753	56.15
188.973	-19.63
189.192	21.33
189.412	-1.19
189.631	-50.35
189.851	33.62
190.07	29.52
190.29	11.09
190.509	-40.11
190.729	-25.77
190.948	29.52
191.168	115.54
191.387	58.2
191.607	11.09
191.826	-1.19
192.045	-64.68
192.265	19.29
192.484	-11.43
192.704	-29.87
192.923	29.52
193.142	43.86
193.362	29.52
193.581	43.86
193.8	7
194.02	52.05
194.239	33.62
194.458	13.14
194.678	17.24
194.897	23.38
195.116	72.53
195.335	45.91
195.555	41.81
195.774	54.1
195.993	17.24
196.212	-23.72
196.432	-5.29
196.651	56.15
196.87	45.91
197.089	70.48
197.308	37.72
197.528	-19.63
197.747	37.72
197.966	-31.91
198.185	-17.58
198.404	-36.01
198.623	45.91
198.842	9.05
199.062	11.09
199.281	9.05
199.5	31.57
199.719	21.33
199.938	58.2
200.157	54.1
200.376	39.76
200.595	-13.48
200.814	-85.16
201.033	-7.34
201.252	50
201.471	86.87
201.69	19.29
201.909	15.19
202.128	47.96
202.347	66.39
202.566	19.29
202.785	41.81
203.004	-5.29
203.223	78.68
203.442	13.14
203.661	41.81
203.879	52.05
204.098	74.58
204.317	-3.24
204.536	78.68
204.755	64.34
204.974	37.72
205.193	-40.11
205.411	97.11
205.63	19.29
205.849	62.29
206.068	39.76
206.287	54.1
206.505	29.52
206.724	80.72
206.943	-5.29
207.162	-31.91
207.381	-83.11
207.599	45.91
207.818	45.91
208.037	29.52
208.255	-23.72
208.474	111.44
208.693	4.95
208.911	4.95
209.13	78.68
209.349	25.43
209.567	17.24
209.786	66.39
210.005	-36.01
210.223	56.15
210.442	-74.92
210.661	39.76
210.879	54.1
211.098	47.96
211.316	60.24
211.535	-23.72
211.753	37.72
211.972	41.81
212.191	11.09
212.409	-9.39
212.628	86.87
212.846	43.86
213.065	43.86
213.283	29.52
213.502	-19.63
213.72	54.1
213.938	25.43
214.157	45.91
214.375	-19.63
214.594	-48.3
214.812	35.67
215.031	43.86
215.249	-48.3
215.467	-27.82
215.686	82.77
215.904	54.1
216.122	21.33
216.341	-11.43
216.559	39.76
216.778	84.82
216.996	7
217.214	45.91
217.432	37.72
217.651	0.85
217.869	-7.34
218.087	-40.11
218.306	-48.3
218.524	103.25
218.742	58.2
218.96	-5.29
219.179	-42.15
219.397	4.95
219.615	27.48
219.833	0.85
220.051	64.34
220.27	86.87
220.488	17.24
220.706	70.48
220.924	-5.29
221.142	66.39
221.36	17.24
221.578	-3.24
221.796	66.39
222.015	13.14
222.233	39.76
222.451	70.48
222.669	-19.63
222.887	-38.06
223.105	2.9
223.323	-15.53
223.541	9.05
223.759	45.91
223.977	17.24
224.195	72.53
224.413	29.52
224.631	-19.63
224.849	-21.67
225.067	129.88
225.285	-40.11
225.503	54.1
225.721	9.05
225.939	41.81
226.157	-3.24
226.375	-13.48
226.592	-19.63
226.81	19.29
227.028	21.33
227.246	47.96
227.464	-27.82
227.682	97.11
227.9	-29.87
228.117	35.67
228.335	17.24
228.553	54.1
228.771	25.43
228.989	66.39
229.206	45.91
229.424	-62.63
229.642	37.72
229.86	-48.3
230.077	95.06
230.295	19.29
230.513	31.57
230.731	25.43
230.948	-3.24
231.166	107.35
231.384	7
231.601	-3.24
231.819	62.29
232.037	-5.29
232.254	9.05
232.472	39.76
232.689	33.62
232.907	72.53
233.125	33.62
233.342	13.14
233.56	11.09
233.777	17.24
233.995	37.72
234.213	41.81
234.43	-81.07
234.648	80.72
234.865	35.67
235.083	23.38
235.3	23.38
235.518	64.34
235.735	-38.06
235.953	9.05
236.17	35.67
236.388	37.72
236.605	35.67
236.822	99.16
237.04	-1.19
237.257	58.2
237.475	-17.58
237.692	-7.34
237.909	9.05
238.127	39.76
238.344	33.62
238.562	41.81
238.779	52.05
238.996	-42.15
239.214	-36.01
239.431	31.57
239.648	66.39
239.865	23.38
240.083	13.14
240.3	66.39
240.517	-7.34
240.735	-52.39
240.952	64.34
241.169	82.77
241.386	-25.77
241.603	-15.53
241.821	7
242.038	-23.72
242.255	-11.43
242.472	19.29
242.689	82.77
242.907	47.96
243.124	35.67
243.341	72.53
243.558	-40.11
243.775	19.29
243.992	9.05
244.209	9.05
244.426	88.92
244.643	107.35
244.86	25.43
245.078	86.87
245.295	43.86
245.512	70.48
245.729	17.24
245.946	37.72
246.163	47.96
246.38	23.38
246.597	66.39
246.814	45.91
247.031	105.3
247.248	88.92
247.464	29.52
247.681	15.19
247.898	0.85
248.115	52.05
248.332	66.39
248.549	-29.87
248.766	72.53
248.983	-1.19
249.2	35.67
249.417	35.67
249.633	35.67
249.85	-27.82
250.067	-23.72
250.284	60.24
250.501	23.38
250.717	117.59
250.934	27.48
251.151	-17.58
251.368	-3.24
251.585	66.39
251.801	15.19
252.018	58.2
252.235	66.39
252.451	-21.67
252.668	-52.39
252.885	-11.43
253.102	-5.29
253.318	90.96
253.535	9.05
253.752	-44.2
253.968	41.81
254.185	111.44
254.401	-64.68
254.618	21.33
254.835	-17.58
255.051	66.39
255.268	33.62
255.484	37.72
255.701	13.14
255.917	86.87
256.134	25.43
256.351	54.1
256.567	17.24
256.784	11.09
257	-3.24
257.217	52.05
257.433	15.19
257.65	15.19
257.866	4.95
258.082	-11.43
258.299	29.52
258.515	4.95
258.732	39.76
258.948	17.24
259.165	39.76
259.381	76.63
259.597	37.72
259.814	0.85
260.03	-36.01
260.246	45.91
260.463	31.57
260.679	-52.39
260.895	33.62
261.112	-5.29
261.328	50
261.544	-13.48
261.761	33.62
261.977	11.09
262.193	-3.24
262.409	121.68
262.626	95.06
262.842	35.67
263.058	15.19
263.274	58.2
263.49	-5.29
263.707	47.96
263.923	58.2
264.139	25.43
264.355	43.86
264.571	-21.67
264.787	97.11
265.004	15.19
265.22	37.72
265.436	9.05
265.652	37.72
265.868	82.77
266.084	56.15
266.3	37.72
266.516	17.24
266.732	70.48
266.948	43.86
267.164	93.01
267.38	-7.34
267.596	54.1
267.812	76.63
268.028	13.14
268.244	29.52
268.46	66.39
268.676	76.63
268.892	47.96
269.108	15.19
269.324	-1.19
269.54	68.44
269.756	66.39
269.972	-54.44
270.188	29.52
270.403	41.81
270.619	43.86
270.835	70.48
271.051	39.76
271.267	-54.44
271.483	-27.82
271.698	27.48
271.914	58.2
272.13	37.72
272.346	9.05
272.562	11.09
272.777	103.25
272.993	23.38
273.209	-52.39
273.425	27.48
273.64	39.76
273.856	-13.48
274.072	21.33
274.287	29.52
274.503	11.09
274.719	54.1
274.934	17.24
275.15	13.14
275.366	50
275.581	-83.11
275.797	-36.01
276.012	21.33
276.228	-15.53
276.444	-23.72
276.659	56.15
276.875	37.72
277.09	0.85
277.306	-42.15
277.521	-21.67
277.737	39.76
277.952	-33.96
278.168	-13.48
278.383	-7.34
278.599	-5.29
278.814	88.92
279.03	-23.72
279.245	19.29
279.461	41.81
279.676	47.96
279.892	-23.72
280.107	27.48
280.322	-46.25
280.538	-27.82
280.753	-21.67
280.969	21.33
281.184	-54.44
281.399	39.76
281.615	47.96
281.83	31.57
282.045	54.1
282.26	31.57
282.476	62.29
282.691	13.14
282.906	15.19
283.122	133.97
283.337	9.05
283.552	60.24
283.767	-9.39
283.983	-1.19
284.198	25.43
284.413	-5.29
284.628	-19.63
284.843	-21.67
285.058	-52.39
285.274	64.34
285.489	58.2
285.704	-21.67
285.919	23.38
286.134	13.14
286.349	-36.01
286.564	23.38
286.779	64.34
286.995	131.92
287.21	39.76
287.425	66.39
287.64	41.81
287.855	45.91
288.07	35.67
288.285	109.4
288.5	23.38
288.715	-3.24
288.93	-5.29
289.145	39.76
289.36	19.29
289.575	35.67
289.79	66.39
290.004	41.81
290.219	99.16
290.434	72.53
290.649	4.95
290.864	56.15
291.079	17.24
291.294	68.44
291.509	19.29
291.724	21.33
291.938	-3.24
292.153	70.48
292.368	-13.48
292.583	-31.91
292.798	-29.87
293.012	25.43
293.227	21.33
293.442	-3.24
293.657	66.39
293.871	54.1
294.086	-29.87
294.301	136.02
294.516	17.24
294.73	11.09
294.945	56.15
295.16	-9.39
295.374	60.24
295.589	101.2
295.804	95.06
296.018	-50.35
296.233	45.91
296.447	-19.63
296.662	15.19
296.877	25.43
297.091	-36.01
297.306	25.43
297.52	4.95
297.735	27.48
297.949	-1.19
298.164	64.34
298.378	11.09
298.593	33.62
298.807	80.72
299.022	17.24
299.236	47.96
299.451	84.82
299.665	52.05
299.88	4.95
300.094	-17.58
300.309	111.44
300.523	50
300.737	15.19
300.952	60.24
301.166	-19.63
301.381	4.95
301.595	-36.01
301.809	45.91
302.024	7
302.238	-1.19
302.452	41.81
302.667	68.44
302.881	78.68
303.095	-11.43
303.309	-31.91
303.524	4.95
303.738	33.62
303.952	-25.77
304.166	21.33
304.381	-33.96
304.595	99.16
304.809	86.87
305.023	58.2
305.237	43.86
305.452	39.76
305.666	47.96
305.88	68.44
306.094	54.1
306.308	76.63
306.522	45.91
306.736	54.1
306.95	0.85
307.164	41.81
307.379	62.29
307.593	47.96
307.807	82.77
308.021	41.81
308.235	74.58
308.449	58.2
308.663	17.24
308.877	33.62
309.091	21.33
309.305	113.49
309.519	86.87
309.733	74.58
309.947	56.15
310.161	23.38
310.374	41.81
310.588	84.82
310.802	13.14
311.016	82.77
311.23	97.11
311.444	19.29
311.658	74.58
311.872	21.33
312.085	35.67
312.299	21.33
312.513	56.15
312.727	-44.2
312.941	33.62
313.154	37.72
313.368	9.05
313.582	15.19
313.796	-31.91
314.009	58.2
314.223	29.52
314.437	39.76
314.651	62.29
314.864	-15.53
315.078	29.52
315.292	-31.91
315.505	-46.25
315.719	82.77
315.933	84.82
316.146	-13.48
316.36	-9.39
316.573	54.1
316.787	-56.49
317.001	39.76
317.214	-15.53
317.428	37.72
317.641	80.72
317.855	33.62
318.068	56.15
318.282	33.62
318.495	82.77
318.709	37.72
318.922	47.96
319.136	60.24
319.349	19.29
319.563	97.11
319.776	23.38
319.99	37.72
320.203	9.05
320.417	13.14
320.63	15.19
320.843	123.73
321.057	60.24
321.27	-40.11
321.483	74.58
321.697	101.2
321.91	72.53
322.124	13.14
322.337	-17.58
322.55	52.05
322.763	31.57
322.977	19.29
323.19	2.9
323.403	-11.43
323.617	90.96
323.83	70.48
324.043	9.05
324.256	27.48
324.469	-17.58
324.683	68.44
324.896	21.33
325.109	88.92
325.322	-15.53
325.535	129.88
325.748	58.2
325.962	4.95
326.175	43.86
326.388	113.49
326.601	82.77
326.814	21.33
327.027	19.29
327.24	56.15
327.453	64.34
327.666	23.38
327.879	21.33
328.092	80.72
328.305	117.59
328.518	31.57
328.731	29.52
328.944	37.72
329.157	37.72
329.37	19.29
329.583	78.68
329.796	95.06
330.009	29.52
330.222	78.68
330.435	29.52
330.648	82.77
330.861	-15.53
331.073	58.2
331.286	76.63
331.499	76.63
331.712	84.82
331.925	29.52
332.138	35.67
332.35	50
332.563	-21.67
332.776	4.95
332.989	-44.2
333.202	43.86
333.414	39.76
333.627	-17.58
333.84	78.68
334.053	31.57
334.265	-21.67
334.478	50
334.691	31.57
334.903	76.63
335.116	11.09
335.329	39.76
335.541	4.95
335.754	68.44
335.966	45.91
336.179	-5.29
336.392	47.96
336.604	-27.82
336.817	25.43
337.029	37.72
337.242	25.43
337.454	76.63
337.667	4.95
337.88	37.72
338.092	-62.63
338.305	21.33
338.517	-33.96
338.729	68.44
338.942	66.39
339.154	-66.73
339.367	-38.06
339.579	72.53
339.792	-9.39
340.004	29.52
340.217	25.43
340.429	2.9
340.641	35.67
340.854	60.24
341.066	39.76
341.278	33.62
341.491	115.54
341.703	60.24
341.915	-38.06
342.128	4.95
342.34	-7.34
342.552	23.38
342.764	-3.24
342.977	-48.3
343.189	41.81
343.401	-9.39
343.613	4.95
343.826	27.48
344.038	15.19
344.25	0.85
344.462	-15.53
344.674	-42.15
344.886	21.33
345.099	84.82
345.311	64.34
345.523	64.34
345.735	-9.39
345.947	27.48
346.159	-25.77
346.371	78.68
346.583	9.05
346.795	58.2
347.007	2.9
347.219	-31.91
347.431	13.14
347.643	41.81
347.855	84.82
348.067	86.87
348.279	2.9
348.491	58.2
348.703	7
348.915	64.34
349.127	0.85
349.339	37.72
349.551	95.06
349.763	23.38
349.975	13.14
350.187	33.62
350.399	76.63
350.61	41.81
350.822	25.43
351.034	33.62
351.246	7
351.458	39.76
351.669	45.91
351.881	76.63
352.093	21.33
352.305	47.96
352.517	11.09
352.728	33.62
352.94	111.44
353.152	19.29
353.363	4.95
353.575	41.81
353.787	37.72
353.999	33.62
354.21	7
354.422	27.48
354.633	-15.53
354.845	-36.01
355.057	68.44
355.268	27.48
355.48	43.86
355.692	64.34
355.903	29.52
356.115	58.2
356.326	4.95
356.538	66.39
356.749	70.48
356.961	17.24
357.172	45.91
357.384	0.85
357.595	66.39
357.807	-15.53
358.018	9.05
358.23	17.24
358.441	93.01
358.653	76.63
358.864	11.09
359.075	23.38
359.287	19.29
359.498	15.19
359.709	-15.53
359.921	-17.58
360.132	29.52
360.344	127.83
360.555	33.62
360.766	68.44
360.977	-7.34
361.189	62.29
361.4	88.92
361.611	52.05
361.823	4.95
362.034	47.96
362.245	-68.78
362.456	76.63
362.667	68.44
362.879	62.29
363.09	68.44
363.301	-11.43
363.512	72.53
363.723	58.2
363.935	103.25
364.146	113.49
364.357	-27.82
364.568	-21.67
364.779	23.38
364.99	52.05
365.201	-9.39
365.412	78.68
365.623	7
365.834	72.53
366.045	70.48
366.256	11.09
366.467	43.86
366.678	7
366.889	4.95
367.1	50
367.311	15.19
367.522	-58.54
367.733	19.29
367.944	60.24
368.155	54.1
368.366	58.2
368.577	78.68
368.788	66.39
368.999	25.43
369.209	52.05
369.42	86.87
369.631	66.39
369.842	109.4
370.053	-29.87
370.264	41.81
370.474	-11.43
370.685	17.24
370.896	-9.39
371.107	-17.58
371.317	82.77
371.528	23.38
371.739	11.09
371.95	-44.2
372.16	37.72
372.371	15.19
372.582	103.25
372.792	78.68
373.003	43.86
373.214	66.39
373.424	54.1
373.635	-21.67
373.846	80.72
374.056	27.48
374.267	60.24
374.477	70.48
374.688	0.85
374.898	25.43
375.109	15.19
375.319	-9.39
375.53	29.52
375.74	76.63
375.951	62.29
376.161	-9.39
376.372	62.29
376.582	13.14
376.793	13.14
377.003	41.81
377.214	-3.24
377.424	93.01
377.635	-3.24
377.845	15.19
378.055	39.76
378.266	43.86
378.476	31.57
378.686	62.29
378.897	50
379.107	54.1
379.317	62.29
379.528	72.53
379.738	99.16
379.948	62.29
380.158	64.34
380.369	101.2
380.579	113.49
380.789	37.72
380.999	56.15
381.21	-1.19
381.42	82.77
381.63	25.43
381.84	43.86
382.05	66.39
382.261	29.52
382.471	27.48
382.681	45.91
382.891	60.24
383.101	70.48
383.311	62.29
383.521	82.77
383.731	-13.48
383.941	27.48
384.151	33.62
384.361	41.81
384.571	-7.34
384.781	64.34
384.991	41.81
385.201	144.21
385.411	70.48
385.621	117.59
385.831	90.96
386.041	74.58
386.251	35.67
386.461	129.88
386.671	31.57
386.881	64.34
387.091	-33.96
387.301	56.15
387.511	13.14
387.72	21.33
387.93	115.54
388.14	21.33
388.35	97.11
388.56	93.01
388.769	23.38
388.979	-1.19
389.189	80.72
389.399	111.44
389.609	129.88
389.818	56.15
390.028	33.62
390.238	47.96
390.447	35.67
390.657	123.73
390.867	93.01
391.076	27.48
391.286	105.3
391.496	29.52
391.705	43.86
391.915	70.48
392.125	31.57
392.334	119.64
392.544	66.39
392.753	23.38
392.963	50
393.172	76.63
393.382	37.72
393.591	125.78
393.801	95.06
394.01	105.3
394.22	142.16
394.429	47.96
394.639	9.05
394.848	27.48
395.058	68.44
395.267	105.3
395.477	72.53
395.686	21.33
395.895	33.62
396.105	107.35
396.314	39.76
396.524	7
396.733	70.48
396.942	15.19
397.152	41.81
397.361	56.15
397.57	109.4
397.78	13.14
397.989	144.21
398.198	138.07
398.407	97.11
398.617	117.59
398.826	68.44
399.035	86.87
399.244	136.02
399.453	19.29
399.663	31.57
399.872	70.48
400.081	62.29
400.29	115.54
400.499	140.12
400.708	148.31
400.917	82.77
401.127	66.39
401.336	90.96
401.545	111.44
401.754	127.83
401.963	93.01
402.172	127.83
402.381	121.68
402.59	37.72
402.799	115.54
403.008	111.44
403.217	148.31
403.426	52.05
403.635	140.12
403.844	50
404.053	154.45
404.262	107.35
404.471	123.73
404.68	162.64
404.888	121.68
405.097	121.68
405.306	45.91
405.515	181.07
405.724	191.31
405.933	160.59
406.142	179.03
406.35	144.21
406.559	109.4
406.768	158.55
406.977	193.36
407.185	152.4
407.394	183.12
407.603	158.55
407.812	189.27
408.02	230.23
408.229	140.12
408.438	158.55
408.646	174.93
408.855	201.55
409.064	172.88
409.272	269.14
409.481	197.46
409.69	226.13
409.898	238.42
410.107	166.74
410.315	242.51
410.524	232.27
410.733	271.19
410.941	308.05
411.15	338.77
411.358	371.54
411.567	381.78
411.775	312.14
411.984	310.1
412.192	291.66
412.401	301.9
412.609	394.06
412.818	475.98
413.026	373.58
413.234	478.03
413.443	451.41
413.651	291.66
413.86	469.84
414.068	471.89
414.276	500.56
414.485	525.13
414.693	508.75
414.901	553.8
415.11	506.7
415.318	574.28
415.526	594.76
415.734	596.81
415.943	584.52
416.151	611.15
416.359	686.92
416.567	662.35
416.776	707.4
416.984	729.93
417.192	795.47
417.4	713.55
417.608	779.08
417.817	826.18
418.025	830.28
418.233	959.3
418.441	799.56
418.649	934.73
418.857	1000.26
419.065	1039.17
419.273	973.64
419.481	1045.32
419.689	1256.26
419.897	1192.77
420.105	1143.62
420.313	1270.59
420.521	1256.26
420.729	1278.79
420.937	1332.03
421.145	1366.85
421.353	1438.53
421.561	1528.64
421.769	1569.6
421.977	1639.23
422.185	1545.02
422.393	1700.67
422.601	1809.21
422.809	1846.07
423.017	1764.15
423.224	1956.66
423.432	1938.23
423.64	1966.9
423.848	2208.56
424.056	1968.95
424.263	2210.61
424.471	2296.63
424.679	2376.5
424.887	2368.31
425.094	2417.46
425.302	2478.9
425.51	2515.76
425.718	2603.82
425.925	2669.36
426.133	2732.84
426.341	3011.37
426.548	3060.52
426.756	2919.21
426.964	3134.25
427.171	3285.8
427.379	3451.68
427.586	3453.73
427.794	3466.02
428.001	3681.05
428.209	3783.45
428.417	3758.88
428.624	4004.63
428.832	4094.74
429.039	4074.26
429.247	3965.72
429.454	4571.92
429.662	4657.93
429.869	4412.18
430.076	4719.37
430.284	4631.31
430.491	4903.69
430.699	5057.29
430.906	4842.25
431.114	5085.96
431.321	5464.83
431.528	5536.51
431.736	5710.59
431.943	5999.35
432.15	5694.21
432.358	5919.48
432.565	6111.99
432.772	6296.31
432.979	6560.5
433.187	6609.65
433.394	6648.56
433.601	7105.26
433.808	7187.18
434.016	7095.02
434.223	7559.91
434.43	7922.4
434.637	7729.89
434.844	7965.4
435.052	8477.4
435.259	8250.07
435.466	8467.16
435.673	8155.86
435.88	8833.74
436.087	9302.73
436.294	9333.45
436.501	9208.52
436.708	9329.35
436.915	9685.7
437.122	9913.02
437.329	9941.69
437.537	10429.11
437.743	10472.12
437.95	10298.04
438.157	10894
438.364	11305.64
438.571	11342.5
438.778	11264.68
438.985	12745.36
439.192	11983.52
439.399	12278.43
439.606	12204.7
439.813	12685.97
440.02	13632.13
440.227	13333.13
440.433	13220.49
440.64	13705.86
440.847	13488.78
441.054	13826.69
441.261	14600.82
441.467	14346.87
441.674	15092.34
441.881	15446.63
442.088	15295.08
442.294	15190.64
442.501	15645.29
442.708	16067.17
442.914	16382.56
443.121	17226.32
443.328	16677.46
443.534	18008.64
443.741	17513.03
443.948	17582.67
444.154	18747.96
444.361	18260.54
444.568	18487.87
444.774	18514.49
444.981	18745.91
445.187	19380.78
445.394	20107.81
445.6	19671.59
445.807	22018.57
446.013	20744.73
446.22	21176.85
446.426	22161.92
446.633	22112.77
446.839	22913.53
447.046	22032.9
447.252	23417.33
447.459	23575.02
447.665	23323.12
447.871	24312.29
448.078	24738.27
448.284	23937.51
448.491	24824.28
448.697	25627.09
448.903	26288.58
449.11	26071.5
449.316	25842.12
449.522	26259.91
449.728	26827.2
449.935	27208.12
450.141	26632.64
450.347	27836.84
450.553	26671.55
450.76	27263.41
450.966	27974.06
451.172	27404.72
451.378	28252.58
451.584	27650.48
451.791	28672.42
451.997	28453.28
452.203	28762.53
452.409	28649.89
452.615	28649.89
452.821	27345.33
453.027	27189.69
453.233	28770.72
453.44	27560.37
453.646	27804.08
453.852	28148.14
454.058	28049.83
454.264	27523.51
454.47	28021.16
454.676	27386.29
454.882	28264.87
455.088	25977.29
455.294	26200.52
455.5	26642.88
455.705	26821.05
455.911	25801.16
456.117	25338.32
456.323	24861.15
456.529	23632.36
456.735	24603.1
456.941	23919.08
457.147	23271.92
457.352	22729.21
457.558	22419.97
457.764	22465.02
457.97	22254.08
458.176	21473.81
458.381	21508.62
458.587	20736.54
458.793	20720.15
458.999	19665.45
459.204	20972.05
459.41	20118.05
459.616	18967.09
459.821	19055.15
460.027	18727.48
460.233	18696.76
460.438	17601.1
460.644	17914.44
460.85	17138.26
461.055	16888.4
461.261	16673.37
461.466	15407.72
461.672	15049.33
461.878	16241.25
462.083	15133.29
462.289	14676.6
462.494	14637.69
462.7	14107.26
462.905	13830.79
463.111	14160.51
463.316	14029.44
463.522	13900.42
463.727	14002.82
463.932	13841.03
464.138	13773.44
464.343	13437.58
464.549	13453.96
464.754	13886.08
464.959	13812.35
465.165	13728.39
465.37	13107.85
465.575	12755.6
465.781	13314.7
465.986	13193.87
466.191	12829.33
466.397	12477.08
466.602	12071.58
466.807	12573.33
467.012	12419.74
467.218	12239.51
467.423	12083.87
467.628	12403.35
467.833	12835.47
468.038	12333.72
468.244	11956.89
468.449	12466.84
468.654	12040.86
468.859	11946.66
469.064	11987.61
469.269	11518.63
469.474	11545.25
469.679	11891.36
469.885	11446.95
470.09	11797.15
470.295	11504.29
470.5	11170.47
470.705	11326.12
470.91	11115.18
471.115	10924.72
471.32	11227.82
471.525	10934.96
471.73	10597.04
471.935	10705.59
472.139	10433.21
472.344	10508.98
472.549	10506.93
472.754	10500.79
472.959	10252.98
473.164	9702.08
473.369	9749.18
473.574	10154.68
473.778	10070.72
473.983	10154.68
474.188	10246.84
474.393	9525.96
474.598	9446.09
474.802	9243.34
475.007	9370.31
475.212	9470.66
475.417	8956.62
475.621	9013.96
475.826	9110.22
476.031	8911.57
476.235	8798.93
476.44	8927.95
476.645	8667.86
476.849	8776.4
477.054	8497.88
477.259	8405.72
477.463	8659.67
477.668	8164.06
477.872	8352.47
478.077	8166.1
478.282	8112.86
478.486	8094.43
478.691	8016.6
478.895	7992.03
479.1	8139.48
479.304	8051.42
479.509	7676.64
479.713	7883.49
479.918	7742.18
480.122	7547.62
480.326	7660.26
480.531	7545.57
480.735	7488.23
480.94	7480.04
481.144	7863.01
481.348	7277.29
481.553	7437.03
481.757	7262.95
481.961	7396.07
482.166	7633.63
482.37	7346.92
482.574	7295.72
482.778	7344.87
482.983	7516.9
483.187	7332.58
483.391	7367.4
483.595	7322.34
483.8	7168.74
484.004	7291.62
484.208	7557.86
484.412	7316.2
484.616	7400.16
484.821	7217.9
485.025	7164.65
485.229	7291.62
485.433	7119.59
485.637	7221.99
485.841	7199.46
486.045	7277.29
486.249	7443.17
486.453	7283.43
486.657	7254.76
486.861	7316.2
487.065	7023.34
487.269	7441.12
487.473	7148.26
487.677	7500.51
487.881	7342.82
488.085	7172.84
488.289	7178.98
488.493	7457.51
488.697	7394.02
488.901	7381.73
489.105	7492.32
489.309	7484.13
489.512	7129.83
489.716	7527.14
489.92	7611.11
490.124	7381.73
490.328	7568.1
490.531	7457.51
490.735	7564
490.939	7660.26
491.143	7410.4
491.346	7760.61
491.55	7746.27
491.754	7635.68
491.958	7672.54
492.161	7678.69
492.365	7729.89
492.569	7742.18
492.772	7809.76
492.976	7817.95
493.18	7910.11
493.383	7944.92
493.587	8125.15
493.79	7981.79
493.994	7887.58
494.197	8213.21
494.401	8125.15
494.605	8284.89
494.808	8348.37
495.012	8352.47
495.215	8493.78
495.419	8573.65
495.622	8434.39
495.825	8676.05
496.029	8600.27
496.232	8846.03
496.436	8510.16
496.639	8829.65
496.843	9050.83
497.046	9075.4
497.249	9091.79
497.453	9167.56
497.656	9226.95
497.859	9433.8
498.063	9470.66
498.266	9591.49
498.469	9685.7
498.673	9683.65
498.876	9689.79
499.079	10033.85
499.282	9790.14
499.485	10164.92
499.689	10134.2
499.892	10511.03
500.095	10295.99
500.298	10586.8
500.501	10709.68
500.705	11086.51
500.908	11076.27
501.111	11264.68
501.314	11246.25
501.517	11305.64
501.72	11410.09
501.923	11436.71
502.126	11752.1
502.329	11901.6
502.532	11950.75
502.735	11991.71
502.938	12198.56
503.141	12376.73
503.344	12479.13
503.547	12446.36
503.75	12800.66
503.953	13019.79
504.156	12909.2
504.359	13376.14
504.562	13146.76
504.765	13589.13
504.968	13693.57
505.17	13822.59
505.373	13881.99
505.576	14088.83
505.779	14197.37
505.982	14215.8
506.185	14635.64
506.387	14701.17
506.59	14824.05
506.793	14971.5
506.996	14881.39
507.198	15481.45
507.401	15235.69
507.604	15704.68
507.807	16048.74
508.009	16239.2
508.212	16423.51
508.415	16353.88
508.617	16364.12
508.82	16796.25
509.022	16650.84
509.225	17111.63
509.428	17123.92
509.63	17351.24
509.833	17277.52
510.035	17723.97
510.238	17863.24
510.44	17783.37
510.643	18242.11
510.845	18438.72
511.048	18111.04
511.25	18651.7
511.453	18862.65
511.655	19647.02
511.858	18981.43
512.06	19561
512.262	19878.44
512.465	19587.63
512.667	20066.85
512.87	20242.98
513.072	20453.92
513.274	20763.16
513.477	21039.64
513.679	21193.23
513.881	21514.77
514.084	21602.83
514.286	21475.85
514.488	21692.94
514.69	22356.48
514.893	22505.98
515.095	21932.55
515.297	22712.83
515.499	22452.73
515.701	23269.87
515.904	23431.66
516.106	23648.75
516.308	23738.86
516.51	24193.51
516.712	24228.32
516.914	24281.57
517.116	24687.07
517.318	25035.22
517.52	24949.21
517.722	24781.28
517.925	25635.28
518.127	26032.58
518.329	25878.99
518.531	26073.54
518.733	26591.68
518.935	26538.43
519.136	26565.06
519.338	27054.52
519.54	27206.07
519.742	27466.16
519.944	27662.77
520.146	28092.84
520.348	28449.19
520.55	28615.07
520.752	28551.59
520.954	28934.56
521.155	28991.9
521.357	29557.14
521.559	29616.53
521.761	29698.45
521.963	29974.92
522.164	30171.53
522.366	30466.44
522.568	30636.42
522.77	31113.59
522.971	31506.8
523.173	31080.83
523.375	31730.03
523.576	31490.42
523.778	31635.83
523.98	32418.15
524.181	32321.9
524.383	32289.13
524.584	32520.55
524.786	33122.65
524.988	32403.81
525.189	33296.73
525.391	33161.56
525.592	33397.08
525.794	33902.93
525.995	33720.66
526.197	33663.32
526.398	34048.33
526.6	34011.47
526.801	34388.3
527.003	34580.81
527.204	34664.77
527.406	34924.86
527.607	34826.56
527.808	35281.21
528.01	34490.7
528.211	34773.31
528.412	35963.18
528.614	35563.83
528.815	35393.85
529.016	35897.65
529.218	35985.71
529.419	36108.59
529.62	36038.96
529.822	36147.5
530.023	36002.1
530.224	36297
530.425	35920.18
530.626	36307.24
530.828	35928.37
531.029	36706.6
531.23	36225.32
531.431	36780.32
531.632	37112.1
531.833	37067.04
532.035	36479.27
532.236	36964.64
532.437	37054.75
532.638	37376.28
532.839	37429.53
533.04	37542.17
533.241	36739.36
533.442	37744.92
533.643	37263.64
533.844	37562.65
534.045	37640.47
534.246	37210.4
534.447	37103.9
534.648	37538.07
534.849	37601.56
535.05	37538.07
535.251	37888.28
535.451	37552.41
535.652	37777.68
535.853	37955.86
536.054	37796.12
536.255	37959.95
536.456	37380.38
536.657	38074.64
536.857	37830.93
537.058	37509.4
537.259	38088.98
537.46	37888.28
537.66	37353.76
537.861	38056.21
538.062	37861.65
538.263	37884.18
538.463	37718.29
538.664	37771.54
538.865	37945.62
539.065	38170.89
539.266	37798.16
539.466	38238.48
539.667	37435.67
539.868	38062.35
540.068	38025.49
540.269	37675.29
540.469	38117.65
540.67	38045.97
540.87	37699.86
541.071	37896.47
541.271	38297.87
541.472	38000.91
541.672	37669.14
541.873	37841.17
542.073	37396.76
542.274	38242.57
542.474	37837.08
542.675	37587.22
542.875	38330.64
543.075	37947.67
543.276	37533.98
543.476	37974.29
543.676	37517.59
543.877	38017.3
544.077	37591.32
544.277	37744.92
544.478	37636.38
544.678	37904.66
544.878	37740.82
545.078	38058.26
545.279	37728.53
545.479	37583.13
545.679	37783.83
545.879	37755.16
546.079	37796.12
546.28	37624.09
546.48	37454.11
546.68	37767.45
546.88	38000.91
547.08	37828.88
547.28	37986.58
547.48	37583.13
547.68	37910.8
547.88	37564.7
548.081	37742.87
548.281	37732.63
548.481	37503.26
548.681	38304.01
548.881	37714.2
549.081	37464.35
549.28	37443.87
549.48	37941.52
549.68	37675.29
549.88	38166.8
550.08	37517.59
550.28	37667.09
550.48	37923.09
550.68	37800.21
550.88	37615.9
551.08	37660.95
551.279	38023.44
551.479	37308.7
551.679	37529.88
551.879	37464.35
552.079	37804.31
552.278	37478.68
552.478	37320.99
552.678	37679.38
552.878	37726.49
553.077	37484.83
553.277	37200.16
553.477	37918.99
553.676	37173.53
553.876	37460.25
554.076	37415.19
554.275	36907.3
554.475	36788.52
554.674	37536.02
554.874	37429.53
555.074	36964.64
555.273	37183.77
555.473	37427.48
555.672	36993.31
555.872	37425.43
556.071	37585.18
556.271	37189.92
556.47	37087.52
556.67	36981.03
556.869	37058.85
557.068	36868.39
557.268	36763.94
557.467	36686.12
557.667	36968.74
557.866	37003.55
558.065	36901.15
558.265	36661.54
558.464	36542.76
558.663	37058.85
558.863	36464.94
559.062	37226.78
559.261	36421.93
559.461	36960.55
559.66	36110.64
559.859	36299.05
560.058	36124.97
560.258	36528.42
560.457	35766.58
560.656	36215.08
560.855	36186.41
561.054	35987.76
561.253	35676.47
561.453	35920.18
561.652	35948.85
561.851	36370.73
562.05	35641.65
562.249	35334.46
562.448	35557.69
562.647	35592.5
562.846	35397.95
563.045	35266.88
563.244	35240.25
563.443	35799.35
563.642	34947.39
563.841	35080.51
564.04	34873.67
564.239	35551.54
564.438	34861.38
564.637	34961.73
564.836	35068.22
565.035	34304.33
565.234	34584.9
565.432	34707.78
565.631	34466.12
565.83	34218.32
566.029	34494.79
566.228	34234.7
566.427	34312.52
566.625	34062.67
566.824	34036.05
567.023	34472.26
567.222	33601.88
567.42	33988.94
567.619	33773.91
567.818	33780.05
568.016	33624.4
568.215	33984.85
568.414	33366.36
568.612	33900.88
568.811	33319.26
569.01	33286.49
569.208	33020.25
569.407	33438.04
569.605	32758.11
569.804	33216.86
570.002	32790.88
570.201	32489.83
570.4	32729.44
570.598	32618.85
570.797	32573.8
570.995	32293.22
571.193	31844.72
571.392	32842.08
571.59	32094.57
571.789	32235.88
571.987	31914.35
572.186	31811.95
572.384	31859.06
572.582	31789.42
572.781	32063.85
572.979	31474.04
573.177	31515
573.376	31336.82
573.574	31328.63
573.772	31738.23
573.971	31463.8
574.169	31279.48
574.367	30955.9
574.565	31115.64
574.763	31029.63
574.962	31050.11
575.16	30380.42
575.358	30914.94
575.556	30167.43
575.754	31132.03
575.952	30439.81
576.151	30460.29
576.349	30232.97
576.547	30460.29
576.745	29976.97
576.943	30235.02
577.141	30413.19
577.339	30355.85
577.537	29919.63
577.735	30046.6
577.933	29796.75
578.131	29886.86
578.329	29643.15
578.527	29237.66
578.725	29342.1
578.923	29559.19
579.121	29344.15
579.319	29321.62
579.516	29231.51
579.714	29219.22
579.912	29045.15
580.11	28889.5
580.308	29206.94
580.506	28639.65
580.704	28455.33
580.901	28799.39
581.099	28742.05
581.297	28330.41
581.495	28457.38
581.692	28651.94
581.89	28367.27
582.088	28303.78
582.285	28148.14
582.483	28410.28
582.681	28250.53
582.878	28060.07
583.076	27646.38
583.274	28103.08
583.471	27670.96
583.669	27781.55
583.866	27648.43
584.064	27791.79
584.262	27562.42
584.459	27216.31
584.657	27199.93
584.854	27574.7
585.052	26894.78
585.249	27365.81
585.447	27314.61
585.644	26890.68
585.841	26886.59
586.039	27478.45
586.236	26679.74
586.434	26589.63
586.631	26683.84
586.828	26814.91
587.026	26493.38
587.223	26358.21
587.42	26122.69
587.618	26505.66
587.815	26044.87
588.012	26079.69
588.21	26134.98
588.407	26266.05
588.604	26010.06
588.801	25723.34
588.999	25997.77
589.196	25827.79
589.393	25788.88
589.59	25758.16
589.787	25670.09
589.984	25489.87
590.182	25266.64
590.379	25680.33
590.576	25289.17
590.773	24914.39
590.97	25305.56
591.167	25369.04
591.364	24951.26
591.561	25078.23
591.758	24863.19
591.955	25188.82
592.152	25002.46
592.349	24625.63
592.546	24601.05
592.743	24705.5
592.94	24500.7
593.137	24424.93
593.334	24449.5
593.531	24199.65
593.727	24087.01
593.924	24195.56
594.121	24052.2
594.318	24068.58
594.515	23738.86
594.712	23853.55
594.908	23726.57
595.105	24041.96
595.302	23636.46
595.499	23542.25
595.696	23366.13
595.892	23448.05
596.089	23478.77
596.286	23751.15
596.482	23421.42
596.679	22897.14
596.876	23386.61
597.072	22944.25
597.269	22962.68
597.466	22688.25
597.662	23128.56
597.859	23065.08
598.055	22845.94
598.252	22567.42
598.448	22708.73
598.645	22596.09
598.841	22290.95
599.038	22424.06
599.234	22520.32
599.431	22112.77
599.627	22256.13
599.824	22551.04
600.02	21815.82
600.217	22051.33
600.413	22020.61
600.609	21961.22
600.806	21991.94
601.002	21993.99
601.198	22037
601.395	21637.64
601.591	21385.74
601.787	21619.21
601.984	21602.83
602.18	21690.89
602.376	21594.64
602.572	21379.6
602.769	21316.11
602.965	21287.44
603.161	21277.2
603.357	20927
603.553	21135.89
603.75	21252.63
603.946	21086.74
604.142	20951.57
604.338	20568.6
604.534	21139.99
604.73	20546.08
604.926	20490.78
605.122	20742.68
605.318	20306.46
605.514	20314.66
605.71	20410.91
605.906	20079.14
606.102	20283.94
606.298	20224.54
606.494	20361.76
606.69	20173.35
606.886	20359.71
607.082	20025.89
607.278	20316.7
607.474	19667.5
607.67	20120.1
607.866	19761.7
608.062	19943.97
608.257	20175.39
608.453	19919.4
608.649	19782.18
608.845	19765.8
609.041	19679.79
609.236	19702.31
609.432	19632.68
609.628	19309.1
609.824	19429.93
610.019	19427.88
610.215	19323.44
610.411	19810.86
610.606	19112.5
610.802	19358.25
610.998	19218.99
611.193	19411.5
611.389	19030.58
611.584	19132.98
611.78	19008.05
611.976	19266.1
612.171	19147.31
612.367	18965.04
612.562	18778.68
612.758	18616.89
612.953	18922.04
613.149	19309.1
613.344	18924.08
613.539	18782.77
613.735	18590.27
613.93	18831.93
614.126	18453.05
614.321	18862.65
614.517	18438.72
614.712	18516.54
614.907	18633.27
615.103	18563.64
615.298	18301.5
615.493	18541.11
615.688	18233.92
615.884	18608.7
616.079	18156.1
616.274	18375.23
616.47	18182.72
616.665	18156.1
616.86	18242.11
617.055	18072.13
617.25	18020.93
617.445	18266.69
617.641	17795.65
617.836	18147.9
618.031	17842.76
618.226	18029.12
618.421	17750.6
618.616	17959.49
618.811	17519.18
619.006	17875.52
619.201	17289.81
619.396	17490.51
619.591	17283.66
619.786	17367.63
619.981	16863.83
620.176	17222.22
620.371	17125.97
620.566	17171.02
620.761	17207.89
620.956	17138.26
621.151	16609.88
621.346	16953.94
621.541	16691.8
621.735	16902.74
621.93	16786.01
622.125	16624.22
622.32	16403.04
622.515	16665.18
622.709	16282.2
622.904	16212.57
623.099	16083.55
623.294	16151.13
623.488	15970.91
623.683	15841.89
623.878	15684.2
624.072	15858.28
624.267	15798.88
624.462	15755.88
624.656	15448.68
624.851	15313.52
625.046	15460.97
625.24	15338.09
625.435	15022.7
625.629	15051.38
625.824	15075.95
626.018	14959.22
626.213	14508.66
626.407	14881.39
626.602	14928.5
626.796	14740.08
626.991	14826.1
627.185	14760.56
627.38	14391.93
627.574	14342.78
627.768	14281.34
627.963	14254.72
628.157	14049.92
628.352	14293.63
628.546	14019.2
628.74	14170.75
628.935	13767.3
629.129	13900.42
629.323	13472.39
629.517	13611.65
629.712	13687.43
629.906	13675.14
630.1	13496.97
630.294	13451.91
630.489	13480.58
630.683	13374.09
630.877	12849.81
631.071	13181.58
631.265	13163.15
631.459	13023.89
631.653	12997.26
631.848	12888.72
632.042	12792.47
632.236	13005.45
632.43	12843.67
632.624	12657.3
632.818	12524.18
633.012	12417.69
633.206	12577.43
633.4	12436.12
633.594	12106.4
633.788	12483.22
633.982	12221.08
634.176	12198.56
634.369	12010.14
634.563	11960.99
634.757	12083.87
634.951	12030.62
635.145	11764.39
635.339	12065.44
635.533	11496.1
635.726	11727.52
635.92	11422.38
636.114	11563.68
636.308	11508.39
636.501	11547.3
636.695	11475.62
636.889	11489.96
637.083	11432.61
637.276	11498.15
637.47	11449
637.664	11039.4
637.857	11070.12
638.051	10908.33
638.244	10947.25
638.438	10857.14
638.632	10689.2
638.825	10769.07
639.019	10769.07
639.212	10693.3
639.406	10582.71
639.599	10574.52
639.793	10658.48
639.986	10230.46
640.18	10490.55
640.373	10453.69
640.567	10234.55
640.76	10199.74
640.954	10250.94
641.147	10076.86
641.34	10060.48
641.534	9994.94
641.727	10011.32
641.92	10044.09
642.114	9937.6
642.307	9724.61
642.5	9833.15
642.694	9532.1
642.887	9614.02
643.08	9591.49
643.273	9521.86
643.467	9482.95
643.66	9370.31
643.853	9351.88
644.046	9118.41
644.239	9329.35
644.432	9130.7
644.626	8995.53
644.819	9185.99
645.012	9259.72
645.205	9106.12
645.398	8991.44
645.591	8993.48
645.784	9046.73
645.977	8809.17
646.17	8786.64
646.363	8745.68
646.556	8559.31
646.749	8876.75
646.942	8694.48
647.135	8592.08
647.328	8585.94
647.521	8499.92
647.714	8524.5
647.907	8534.74
648.099	8348.37
648.292	8469.2
648.485	8291.03
648.678	8149.72
648.871	8309.46
649.064	7996.12
649.256	8016.6
649.449	7957.21
649.642	7928.54
649.835	7981.79
650.027	8071.9
650.22	7957.21
650.413	8098.52
650.605	7832.29
650.798	7772.89
650.991	7674.59
651.183	7600.87
651.376	7508.71
651.568	7721.7
651.761	7697.12
651.954	7602.91
652.146	7684.83
652.339	7488.23
652.531	7553.76
652.724	7492.32
652.916	7396.07
653.109	7365.35
653.301	7135.98
653.494	7412.45
653.686	7281.38
653.879	7545.57
654.071	6949.61
654.263	7066.35
654.456	7193.32
654.648	7084.78
654.84	6998.76
655.033	6851.31
655.225	6976.23
655.417	6847.21
655.61	6890.22
655.802	6847.21
655.994	6673.14
656.186	6750.96
656.379	6675.18
656.571	6836.97
656.763	6640.37
656.955	6714.09
657.148	6683.38
657.34	6550.26
657.532	6607.6
657.724	6484.72
657.916	6505.2
658.108	6492.91
658.3	6367.99
658.492	6462.19
658.684	6308.6
658.876	6314.74
659.068	6238.97
659.26	6212.34
659.452	6169.34
659.644	6208.25
659.836	6212.34
660.028	6116.09
660.22	6071.03
660.412	6179.58
660.604	5997.31
660.796	5987.07
660.988	5907.2
661.18	5985.02
661.372	6052.6
661.563	6009.59
661.755	5935.87
661.947	5776.13
662.139	5806.84
662.331	5724.93
662.522	5780.22
662.714	5671.68
662.906	5634.82
663.097	5737.21
663.289	5585.66
663.481	5432.07
663.673	5630.72
663.864	5593.86
664.056	5550.85
664.247	5442.31
664.439	5444.35
664.631	5575.42
664.822	5415.68
665.014	5485.31
665.205	5329.67
665.397	5311.24
665.588	5411.59
665.78	5251.85
665.971	5364.48
666.163	5200.65
666.354	5241.61
666.546	5131.02
666.737	5090.06
666.929	5243.65
667.12	5088.01
667.311	5155.59
667.503	4924.17
667.694	5280.52
667.885	5085.96
668.077	5016.33
668.268	4997.9
668.459	4860.68
668.651	5030.66
668.842	4922.12
669.033	4965.13
669.224	4887.31
669.416	4791.05
669.607	4778.76
669.798	4664.08
669.989	4915.98
670.18	4715.28
670.371	4772.62
670.563	4694.8
670.754	4756.24
670.945	4498.19
671.136	4602.64
671.327	4612.88
671.518	4580.11
671.709	4559.63
671.9	4743.95
672.091	4537.1
672.282	4508.43
672.473	4563.73
672.664	4526.86
672.855	4420.37
673.046	4414.23
673.237	4508.43
673.428	4492.05
673.619	4428.56
673.809	4266.77
674	4592.4
674.191	4381.46
674.382	4397.84
674.573	4438.8
674.764	4326.16
674.954	4311.83
675.145	4369.17
675.336	4297.49
675.527	4217.62
675.717	4219.67
675.908	4207.38
676.099	4133.65
676.289	4283.16
676.48	4154.13
676.671	4172.57
676.861	4170.52
677.052	4107.03
677.243	3953.43
677.433	4231.96
677.624	4199.19
677.814	4057.88
678.005	4203.29
678.195	4104.98
678.386	4064.02
678.576	3935
678.767	4057.88
678.957	4051.74
679.148	4045.59
679.338	4043.54
679.529	3949.34
679.719	3918.62
679.909	3980.06
680.1	3859.23
680.29	3908.38
680.481	3984.15
680.671	3951.39
680.861	3984.15
681.052	3951.39
681.242	4051.74
681.432	3891.99
681.622	3904.28
681.813	3932.95
682.003	3900.19
682.193	3900.19
682.383	3877.66
682.573	3883.8
682.764	3920.67
682.954	3818.27
683.144	3797.79
683.334	3814.17
683.524	3826.46
683.714	3752.73
683.904	3891.99
684.094	3814.17
684.284	3750.68
684.474	3871.51
684.664	3722.01
684.854	3728.16
685.044	3783.45
685.234	3652.38
685.424	3664.67
685.614	3767.07
685.804	3654.43
685.994	3822.36
686.184	3562.27
686.374	3588.89
686.564	3660.57
686.753	3709.72
686.943	3451.68
687.133	3566.37
687.323	3584.8
687.513	3666.72
687.702	3568.41
687.892	3570.46
688.082	3588.89
688.272	3664.67
688.461	3521.31
688.651	3576.61
688.841	3502.88
689.03	3558.18
689.22	3486.5
689.41	3480.35
689.599	3461.92
689.789	3437.34
689.979	3463.97
690.168	3302.18
690.358	3402.53
690.547	3306.27
690.737	3410.72
690.926	3261.22
691.116	3240.74
691.305	3334.95
691.495	3224.36
691.684	3212.07
691.874	3367.71
692.063	3300.13
692.252	3334.95
692.442	3250.98
692.631	3119.91
692.82	3261.22
693.01	3257.12
693.199	3181.35
693.388	3167.01
693.578	3285.8
693.767	3207.97
693.956	3218.21
694.146	2984.74
694.335	2943.78
694.524	3177.25
694.713	3169.06
694.902	3138.34
695.092	3183.4
695.281	3167.01
695.47	2982.7
695.659	3031.85
695.848	3124.01
696.037	3144.49
696.226	3105.57
696.415	3132.2
696.604	3142.44
696.793	3076.9
696.982	3136.29
697.171	3121.96
697.36	3138.34
697.549	3058.47
697.738	2992.94
697.927	2966.31
698.116	3101.48
698.305	3035.94
698.494	3029.8
698.683	2784.04
698.872	3035.94
699.061	3099.43
699.25	3052.33
699.438	2994.98
699.627	2931.5
699.816	2972.46
700.005	2958.12
700.193	2927.4
700.382	3062.57
700.571	2954.02
700.76	3107.62
700.948	3005.22
701.137	2947.88
701.326	2884.39
701.514	2949.93
701.703	3017.51
701.892	2943.78
702.08	3091.24
702.269	2968.36
702.457	2890.54
702.646	3048.23
702.834	2992.94
703.023	2997.03
703.212	3062.57
703.4	3072.81
703.589	3013.42
703.777	3011.37
703.965	2859.82
704.154	2966.31
704.342	2960.17
704.531	3064.61
704.719	2861.87
704.907	2958.12
705.096	3013.42
705.284	3015.46
705.472	2956.07
705.661	2968.36
705.849	2964.26
706.037	2999.08
706.226	2894.63
706.414	2984.74
706.602	2876.2
706.79	2902.83
706.979	2923.3
707.167	2929.45
707.355	2894.63
707.543	2966.31
707.731	2890.54
707.919	2978.6
708.107	2906.92
708.296	2966.31
708.484	2927.4
708.672	2859.82
708.86	2915.11
709.048	2749.23
709.236	2956.07
709.424	2878.25
709.612	2980.65
709.8	2798.38
709.988	2947.88
710.176	2939.69
710.364	2847.53
710.551	2878.25
710.739	2849.58
710.927	2790.19
711.115	2915.11
711.303	2761.52
711.491	2851.63
711.679	2808.62
711.866	2980.65
712.054	2878.25
712.242	2913.06
712.43	2810.67
712.617	2814.76
712.805	2880.3
712.993	2853.67
713.181	2935.59
713.368	2929.45
713.556	2876.2
713.744	2810.67
713.931	2954.02
714.119	2837.29
714.306	2816.81
714.494	2845.48
714.682	2859.82
714.869	2808.62
715.057	2892.59
715.244	2810.67
715.432	2921.26
715.619	2880.3
715.807	2757.42
715.994	2845.48
716.182	2865.96
716.369	2853.67
716.556	2812.71
716.744	2847.53
716.931	2761.52
717.119	2765.61
717.306	2822.95
717.493	2804.52
717.681	2788.14
717.868	2775.85
718.055	2796.33
718.242	2687.79
718.43	2804.52
718.617	2818.86
718.804	2669.36
718.991	2847.53
719.179	2790.19
719.366	2837.29
719.553	2761.52
719.74	2714.41
719.927	2906.92
720.114	2847.53
720.301	2771.76
720.488	2663.21
720.676	2734.89
720.863	2734.89
721.05	2808.62
721.237	2839.34
721.424	2738.99
721.611	2736.94
721.798	2579.25
721.985	2802.47
722.172	2626.35
722.358	2765.61
722.545	2816.81
722.732	2655.02
722.919	2655.02
723.106	2691.88
723.293	2786.09
723.48	2771.76
723.667	2648.88
723.853	2685.74
724.04	2716.46
724.227	2700.08
724.414	2868.01
724.6	2601.77
724.787	2630.45
724.974	2741.04
725.161	2571.05
725.347	2728.75
725.534	2671.4
725.72	2765.61
725.907	2712.36
726.094	2663.21
726.28	2609.97
726.467	2743.08
726.653	2738.99
726.84	2673.45
727.027	2763.56
727.213	2718.51
727.4	2693.93
727.586	2605.87
727.773	2640.69
727.959	2546.48
728.145	2708.27
728.332	2691.88
728.518	2642.73
728.705	2587.44
728.891	2704.17
729.077	2616.11
729.264	2702.12
729.45	2716.46
729.636	2648.88
729.823	2704.17
730.009	2573.1
730.195	2671.4
730.382	2644.78
730.568	2628.4
730.754	2679.6
730.94	2671.4
731.126	2698.03
731.313	2806.57
731.499	2575.15
731.685	2587.44
731.871	2722.6
732.057	2659.12
732.243	2681.64
732.429	2693.93
732.615	2714.41
732.801	2655.02
732.987	2544.43
733.173	2579.25
733.359	2665.26
733.545	2706.22
733.731	2628.4
733.917	2638.64
734.103	2689.84
734.289	2601.77
734.475	2605.87
734.661	2515.76
734.847	2675.5
735.033	2540.33
735.219	2564.91
735.404	2687.79
735.59	2521.9
735.776	2634.54
735.962	2648.88
736.148	2482.99
736.333	2593.58
736.519	2652.97
736.705	2427.7
736.89	2458.42
737.076	2538.29
737.262	2540.33
737.447	2597.68
737.633	2609.97
737.819	2499.38
738.004	2411.31
738.19	2521.9
738.375	2538.29
738.561	2515.76
738.747	2620.21
738.932	2460.46
739.118	2526
739.303	2501.42
739.489	2503.47
739.674	2429.74
739.859	2462.51
740.045	2454.32
740.23	2382.64
740.416	2429.74
740.601	2286.39
740.786	2485.04
740.972	2454.32
741.157	2497.33
741.342	2347.83
741.528	2415.41
741.713	2376.5
741.898	2327.35
742.084	2368.31
742.269	2374.45
742.454	2372.4
742.639	2413.36
742.824	2403.12
743.01	2331.44
743.195	2247.48
743.38	2358.07
743.565	2247.48
743.75	2321.2
743.935	2251.57
744.12	2300.72
744.305	2319.15
744.49	2302.77
744.675	2143.03
744.86	2235.19
745.045	2171.7
745.23	2052.92
745.415	2163.51
745.6	2249.52
745.785	2114.36
745.97	2163.51
746.155	2034.49
746.34	2206.52
746.525	2100.02
746.71	2200.37
746.895	2036.53
747.079	2130.74
747.264	2057.01
747.449	2161.46
747.634	1989.43
747.819	2046.77
748.003	2061.11
748.188	2081.59
748.373	2118.45
748.557	2014.01
748.742	1983.29
748.927	2003.77
749.111	2048.82
749.296	1962.81
749.481	1942.33
749.665	1936.18
749.85	1889.08
750.034	1942.33
750.219	1844.03
750.404	1985.34
750.588	1846.07
750.773	1749.82
750.957	1844.03
751.141	1876.79
751.326	1864.5
751.51	1884.98
751.695	1760.06
751.879	1815.35
752.064	1821.5
752.248	1780.54
752.432	1774.39
752.617	1774.39
752.801	1768.25
752.985	1749.82
753.17	1780.54
753.354	1631.04
753.538	1626.94
753.722	1655.61
753.907	1596.22
754.091	1643.32
754.275	1715
754.459	1733.43
754.643	1661.76
754.828	1555.26
755.012	1450.82
755.196	1624.89
755.38	1551.17
755.564	1463.1
755.748	1606.46
755.932	1600.32
756.116	1502.01
756.3	1424.19
756.484	1502.01
756.668	1520.45
756.852	1407.81
757.036	1479.49
757.22	1469.25
757.404	1389.38
757.588	1456.96
757.772	1346.37
757.956	1495.87
758.14	1428.29
758.323	1377.09
758.507	1436.48
758.691	1497.92
758.875	1317.7
759.059	1475.39
759.242	1366.85
759.426	1356.61
759.61	1350.46
759.794	1323.84
759.977	1344.32
760.161	1334.08
760.345	1364.8
760.528	1284.93
760.712	1372.99
760.895	1323.84
761.079	1323.84
761.263	1241.92
761.446	1327.94
761.63	1258.31
761.813	1276.74
761.997	1360.7
762.18	1223.49
762.364	1106.76
762.547	1127.24
762.731	1127.24
762.914	1207.11
763.098	1217.35
763.281	1215.3
763.464	1151.81
763.648	1295.17
763.831	1209.15
764.015	1127.24
764.198	1192.77
764.381	1147.72
764.564	1100.61
764.748	1155.91
764.931	1215.3
765.114	1190.72
765.297	1149.76
765.481	1149.76
765.664	1168.2
765.847	1127.24
766.03	1129.28
766.213	1106.76
766.397	1198.92
766.58	1092.42
766.763	1061.7
766.946	1018.69
767.129	1069.89
767.312	1094.47
767.495	1047.37
767.678	1147.72
767.861	1088.32
768.044	1131.33
768.227	1125.19
768.41	1014.6
768.593	1121.09
768.776	1047.37
768.959	965.45
769.142	1162.05
769.324	1067.85
769.507	998.21
769.69	1008.45
769.873	971.59
770.056	1133.38
770.239	1055.56
770.421	990.02
770.604	967.49
770.787	940.87
770.97	938.82
771.152	879.43
771.335	875.34
771.518	930.63
771.7	1041.22
771.883	920.39
772.066	906.06
772.248	858.95
772.431	987.97
772.613	858.95
772.796	904.01
772.978	889.67
773.161	875.34
773.343	930.63
773.526	815.94
773.708	828.23
773.891	951.11
774.073	867.14
774.256	885.58
774.438	975.69
774.621	883.53
774.803	830.28
774.985	904.01
775.168	797.51
775.35	801.61
775.532	901.96
775.715	822.09
775.897	865.1
776.079	842.57
776.261	805.71
776.444	783.18
776.626	785.23
776.808	764.75
776.99	838.47
777.173	764.75
777.355	947.01
777.537	789.32
777.719	813.9
777.901	760.65
778.083	793.42
778.265	748.36
778.447	744.27
778.629	760.65
778.811	674.64
778.993	736.07
779.175	772.94
779.357	674.64
779.539	748.36
779.721	691.02
779.903	721.74
780.085	693.07
780.267	686.92
780.449	625.48
780.631	682.83
780.812	662.35
780.994	660.3
781.176	795.47
781.358	637.77
781.54	678.73
781.721	678.73
781.903	611.15
782.085	625.48
782.267	607.05
782.448	609.1
782.63	600.91
782.812	598.86
782.993	559.95
783.175	684.87
783.357	582.48
783.538	568.14
783.72	697.16
783.901	674.64
784.083	594.76
784.264	602.96
784.446	488.27
784.627	574.28
784.809	459.6
784.99	510.8
785.172	545.61
785.353	564.04
785.535	541.52
785.716	488.27
785.897	494.41
786.079	459.6
786.26	502.61
786.441	529.23
786.623	535.37
786.804	488.27
786.985	451.41
787.167	461.65
787.348	443.21
787.529	492.37
787.71	537.42
787.891	465.74
788.073	461.65
788.254	441.17
788.435	533.33
788.616	408.4
788.797	441.17
788.978	514.89
789.159	430.93
789.34	471.89
789.522	500.56
789.703	457.55
789.884	381.78
790.065	486.22
790.246	508.75
790.427	400.21
790.607	449.36
790.788	459.6
790.969	441.17
791.15	432.97
791.331	396.11
791.512	406.35
791.693	394.06
791.874	410.45
792.054	406.35
792.235	426.83
792.416	340.82
792.597	420.69
792.778	414.54
792.958	336.72
793.139	377.68
793.32	439.12
793.5	377.68
793.681	410.45
793.862	414.54
794.042	359.25
794.223	369.49
794.404	363.34
794.584	361.3
794.765	404.3
794.945	387.92
795.126	369.49
795.306	369.49
795.487	410.45
795.667	277.33
795.848	310.1
796.028	256.85
796.209	322.38
796.389	303.95
796.57	353.1
796.75	379.73
796.93	301.9
797.111	291.66
797.291	377.68
797.471	314.19
797.652	262.99
797.832	285.52
798.012	324.43
798.192	242.51
798.373	295.76
798.553	328.53
798.733	275.28
798.913	324.43
799.093	262.99
799.274	308.05
799.454	267.09
799.634	297.81
799.814	357.2
799.994	365.39
800.174	238.42
800.354	287.57
800.534	258.9
800.714	273.23
800.894	260.95
801.074	316.24
801.254	342.86
801.434	228.18
801.614	219.99
801.794	230.23
801.974	613.2
802.154	312.14
802.334	256.85
802.514	228.18
802.693	291.66
802.873	252.75
803.053	271.19
803.233	312.14
803.413	334.67
803.592	310.1
803.772	197.46
803.952	224.08
804.131	232.27
804.311	299.86
804.491	230.23
804.67	215.89
804.85	246.61
805.03	226.13
805.209	262.99
805.389	195.41
805.568	283.47
805.748	215.89
805.928	201.55
806.107	250.71
806.287	248.66
806.466	322.38
806.646	299.86
806.825	209.75
807.004	215.89
807.184	207.7
807.363	242.51
807.543	254.8
807.722	226.13
807.901	232.27
808.081	160.59
808.26	205.65
808.439	195.41
808.619	230.23
808.798	226.13
808.977	187.22
809.156	252.75
809.336	189.27
809.515	230.23
809.694	164.69
809.873	250.71
810.052	213.84
810.231	168.79
810.411	117.59
810.59	201.55
810.769	146.26
810.948	254.8
811.127	119.64
811.306	176.98
811.485	205.65
811.664	314.19
811.843	131.92
812.022	207.7
812.201	174.93
812.38	115.54
812.559	164.69
812.737	181.07
812.916	193.36
813.095	164.69
813.274	232.27
813.453	154.45
813.632	154.45
813.811	201.55
813.989	105.3
814.168	224.08
814.347	275.28
814.526	174.93
814.704	154.45
814.883	105.3
815.062	197.46
815.24	236.37
815.419	160.59
815.598	144.21
815.776	105.3
815.955	172.88
816.133	136.02
816.312	156.5
816.49	150.36
816.669	162.64
816.847	140.12
817.026	215.89
817.204	146.26
817.383	222.03
817.561	117.59
817.74	191.31
817.918	82.77
818.097	193.36
818.275	123.73
818.453	168.79
818.632	189.27
818.81	123.73
818.988	95.06
819.167	154.45
819.345	197.46
819.523	148.31
819.701	168.79
819.879	211.79
820.058	111.44
820.236	154.45
820.414	127.83
820.592	211.79
820.77	125.78
820.948	117.59
821.127	131.92
821.305	123.73
821.483	93.01
821.661	148.31
821.839	187.22
822.017	68.44
822.195	115.54
822.373	162.64
822.551	101.2
822.729	193.36
822.907	142.16
823.085	107.35
823.262	97.11
823.44	74.58
823.618	84.82
823.796	195.41
823.974	125.78
824.152	97.11
824.329	90.96
824.507	162.64
824.685	127.83
824.863	72.53
825.04	203.6
825.218	113.49
825.396	103.25
825.574	146.26
825.751	142.16
825.929	103.25
826.107	154.45
826.284	95.06
826.462	111.44
826.639	176.98
826.817	11.09
826.994	187.22
827.172	25.43
827.349	101.2
827.527	138.07
827.704	123.73
827.882	123.73
828.059	162.64
828.237	117.59
828.414	172.88
828.591	99.16
828.769	80.72
828.946	54.1
829.124	117.59
829.301	174.93
829.478	78.68
829.655	43.86
829.833	131.92
830.01	119.64
830.187	166.74
830.364	80.72
830.542	76.63
830.719	156.5
830.896	142.16
831.073	140.12
831.25	45.91
831.427	56.15
831.604	117.59
831.782	86.87
831.959	142.16
832.136	103.25
832.313	123.73
832.49	82.77
832.667	140.12
832.844	60.24
833.021	140.12
833.198	129.88
833.374	39.76
833.551	97.11
833.728	103.25
833.905	68.44
834.082	76.63
834.259	111.44
834.436	131.92
834.612	80.72
834.789	115.54
834.966	109.4
835.143	4.95
835.319	66.39
835.496	66.39
835.673	99.16
835.85	82.77
836.026	78.68
836.203	152.4
836.38	43.86
836.556	47.96
836.733	43.86
836.909	144.21
837.086	60.24
837.262	105.3
837.439	103.25
837.616	15.19
837.792	148.31
837.968	43.86
838.145	68.44
838.321	70.48
838.498	-23.72
838.674	27.48
838.851	45.91
839.027	39.76
839.203	117.59
839.38	105.3
839.556	84.82
839.732	107.35
839.909	103.25
840.085	82.77
840.261	58.2
840.437	107.35
840.614	66.39
840.79	33.62
840.966	82.77
841.142	76.63
841.318	80.72
841.494	76.63
841.671	4.95
841.847	70.48
842.023	21.33
842.199	72.53
842.375	62.29
842.551	76.63
842.727	29.52
842.903	148.31
843.079	25.43
843.255	66.39
843.431	-3.24
843.607	78.68
843.783	33.62
843.959	56.15
844.134	-11.43
844.31	62.29
844.486	45.91
844.662	66.39
844.838	27.48
845.013	82.77
845.189	21.33
845.365	31.57
845.541	78.68
845.716	74.58
845.892	76.63
846.068	66.39
846.244	62.29
846.419	68.44
846.595	33.62
846.77	54.1
846.946	119.64
847.122	60.24
847.297	64.34
847.473	68.44
847.648	52.05
847.824	78.68
847.999	-48.3
848.175	29.52
848.35	25.43
848.526	50
848.701	62.29
848.876	33.62
849.052	-3.24
849.227	80.72
849.403	78.68
849.578	56.15
849.753	95.06
849.929	58.2
850.104	21.33
850.279	2.9
850.454	62.29
850.63	31.57
850.805	37.72
850.98	45.91
851.155	129.88
851.33	29.52
851.505	56.15
851.681	99.16
851.856	78.68
852.031	50
852.206	78.68
852.381	115.54
852.556	-15.53
852.731	86.87
852.906	27.48
853.081	35.67
853.256	50
853.431	64.34
853.606	4.95
853.781	29.52
853.956	13.14
854.131	35.67
854.305	82.77
854.48	37.72
854.655	27.48
854.83	39.76
855.005	-33.96
855.18	37.72
855.354	29.52
855.529	47.96
855.704	29.52
855.879	43.86
856.053	-33.96
856.228	23.38
856.403	60.24
856.577	78.68
856.752	11.09
856.926	43.86
857.101	19.29
857.276	-11.43
857.45	11.09
857.625	107.35
857.799	-17.58
857.974	0.85
858.148	82.77
858.323	4.95
858.497	23.38
858.672	43.86
858.846	-68.78
859.02	4.95
859.195	-7.34
859.369	54.1
859.543	52.05
859.718	56.15
859.892	66.39
860.066	13.14
860.241	66.39
860.415	82.77
860.589	-36.01
860.763	37.72
860.938	9.05
861.112	27.48
861.286	45.91
861.46	74.58
861.634	78.68
861.808	123.73
861.982	35.67
862.157	41.81
862.331	11.09
862.505	78.68
862.679	-21.67
862.853	35.67
863.027	23.38
863.201	115.54
863.375	2.9
863.549	31.57
863.722	11.09
863.896	-1.19
864.07	-3.24
864.244	74.58
864.418	-15.53
864.592	33.62
864.766	9.05
864.939	-19.63
865.113	0.85
865.287	-13.48
865.461	33.62
865.634	11.09
865.808	47.96
865.982	-15.53
866.156	7
866.329	4.95
866.503	37.72
866.676	86.87
866.85	0.85
867.024	-1.19
867.197	7
867.371	66.39
867.544	72.53
867.718	64.34
867.891	39.76
868.065	41.81
868.238	37.72
868.412	-29.87
868.585	43.86
868.759	25.43
868.932	41.81
869.105	54.1
869.279	25.43
869.452	25.43
869.625	13.14
869.799	64.34
869.972	-36.01
870.145	-68.78
870.319	105.3
870.492	-25.77
870.665	45.91
870.838	31.57
871.011	45.91
871.185	29.52
871.358	0.85
871.531	78.68
871.704	-21.67
871.877	64.34
872.05	33.62
872.223	-3.24
872.396	4.95
872.569	-31.91
872.742	19.29
872.915	41.81
873.088	-36.01
873.261	-15.53
873.434	47.96
873.607	9.05
873.78	33.62
873.953	99.16
874.126	9.05
874.299	23.38
874.471	7
874.644	37.72
874.817	50
874.99	25.43
875.163	23.38
875.335	86.87
875.508	17.24
875.681	7
875.853	-21.67
876.026	25.43
876.199	62.29
876.371	29.52
876.544	17.24
876.717	-23.72
876.889	19.29
877.062	-42.15
877.234	-29.87
877.407	23.38
877.579	41.81
877.752	97.11
877.924	21.33
878.097	113.49
878.269	-5.29
878.442	4.95
878.614	0.85
878.786	4.95
878.959	-3.24
879.131	29.52
879.303	-27.82
879.476	7
879.648	-11.43
879.82	56.15
879.993	23.38
880.165	33.62
880.337	-1.19
880.509	4.95
880.681	31.57
880.854	45.91
881.026	68.44
881.198	62.29
881.37	21.33
881.542	11.09
881.714	-7.34
881.886	-21.67
882.058	74.58
882.23	64.34
882.402	-44.2
882.574	4.95
882.746	43.86
882.918	11.09
883.09	70.48
883.262	9.05
883.434	52.05
883.606	-13.48
883.778	76.63
883.95	35.67
884.122	35.67
884.293	-15.53
884.465	-15.53
884.637	23.38
884.809	-68.78
884.98	-19.63
885.152	15.19
885.324	25.43
885.496	-33.96
885.667	11.09
885.839	-52.39
886.011	-27.82
886.182	45.91
886.354	-5.29
886.525	21.33
886.697	60.24
886.869	15.19
887.04	29.52
887.212	70.48
887.383	47.96
887.555	17.24
887.726	-31.91
887.897	31.57
888.069	11.09
888.24	15.19
888.412	7
888.583	58.2
888.754	-15.53
888.926	-19.63
889.097	62.29
889.268	-64.68
889.44	-38.06
889.611	54.1
889.782	-29.87
889.953	-117.93
890.125	41.81
890.296	11.09
890.467	78.68
890.638	-21.67
890.809	13.14
890.98	62.29
891.151	-15.53
891.323	56.15
891.494	-33.96
891.665	11.09
891.836	78.68
892.007	-42.15
892.178	11.09
892.349	19.29
892.52	62.29
892.691	-9.39
892.862	0.85
893.032	0.85
893.203	-31.91
893.374	7
893.545	-17.58
893.716	-48.3
893.887	15.19
894.057	41.81
894.228	11.09
894.399	-62.63
894.57	17.24
894.74	66.39
894.911	82.77
895.082	-5.29
895.253	-50.35
895.423	4.95
895.594	-3.24
895.764	-19.63
895.935	4.95
896.106	25.43
896.276	0.85
896.447	9.05
896.617	-3.24
896.788	-101.55
896.958	-36.01
897.129	-13.48
897.299	-29.87
897.47	17.24
897.64	56.15
897.81	19.29
897.981	88.92
898.151	17.24
898.322	25.43
898.492	-27.82
898.662	2.9
898.832	9.05
899.003	-27.82
899.173	52.05
899.343	17.24
899.513	15.19
