Data from USB4F104151__42__11-05-28-370.txt Node

Date: Wed Mar 12 11:05:28 EDT 2025
User: louis
Spectrometer: USB4F10415
Trigger mode: 4
Integration Time (sec): 2.000000E-2
Scans to average: 1
Electric dark correction enabled: true
Nonlinearity correction enabled: false
Boxcar width: 0
XAxis mode: Wavelengths
Number of Pixels in Spectrum: 3648
>>>>>Begin Spectral Data<<<<<
178.204	-50.86
178.424	-50.86
178.644	-50.86
178.864	-69.29
179.084	-61.1
179.304	4.44
179.524	61.78
179.744	26.96
179.964	47.44
180.184	-48.81
180.404	-63.15
180.624	-9.9
180.844	-18.09
181.064	35.16
181.283	-18.09
181.503	-75.43
181.723	57.68
181.943	-20.14
182.163	18.77
182.383	-106.15
182.602	26.96
182.822	117.08
183.042	59.73
183.262	47.44
183.482	-48.81
183.701	14.68
183.921	-16.04
184.141	43.35
184.361	84.31
184.58	57.68
184.8	37.2
185.02	37.2
185.239	49.49
185.459	-34.47
185.679	61.78
185.898	-11.95
186.118	84.31
186.338	-32.43
186.557	100.69
186.777	-3.75
186.997	29.01
187.216	-30.38
187.436	82.26
187.655	18.77
187.875	16.73
188.095	47.44
188.314	-11.95
188.534	63.83
188.753	-13.99
188.973	4.44
189.192	4.44
189.412	37.2
189.631	53.59
189.851	14.68
190.07	37.2
190.29	53.59
190.509	-50.86
190.729	31.06
190.948	72.02
191.168	72.02
191.387	-16.04
191.607	6.49
191.826	14.68
192.045	0.34
192.265	2.39
192.484	41.3
192.704	74.07
192.923	45.4
193.142	76.12
193.362	-50.86
193.581	31.06
193.8	35.16
194.02	49.49
194.239	2.39
194.458	10.58
194.678	6.49
194.897	-7.85
195.116	16.73
195.335	4.44
195.555	18.77
195.774	24.92
195.993	20.82
196.212	-24.23
196.432	61.78
196.651	57.68
196.87	12.63
197.089	14.68
197.308	24.92
197.528	49.49
197.747	4.44
197.966	26.96
198.185	18.77
198.404	-5.8
198.623	-30.38
198.842	53.59
199.062	82.26
199.281	24.92
199.5	29.01
199.719	43.35
199.938	51.54
200.157	14.68
200.376	57.68
200.595	78.16
200.814	8.53
201.033	29.01
201.252	74.07
201.471	-24.23
201.69	14.68
201.909	69.97
202.128	82.26
202.347	86.36
202.566	-5.8
202.785	63.83
203.004	-1.71
203.223	69.97
203.442	12.63
203.661	31.06
203.879	39.25
204.098	63.83
204.317	-22.19
204.536	-18.09
204.755	-3.75
204.974	37.2
205.193	29.01
205.411	78.16
205.63	45.4
205.849	26.96
206.068	2.39
206.287	33.11
206.505	-30.38
206.724	-26.28
206.943	43.35
207.162	45.4
207.381	10.58
207.599	26.96
207.818	4.44
208.037	0.34
208.255	-20.14
208.474	-9.9
208.693	10.58
208.911	33.11
209.13	47.44
209.349	45.4
209.567	61.78
209.786	69.97
210.005	53.59
210.223	43.35
210.442	-9.9
210.661	-16.04
210.879	-26.28
211.098	14.68
211.316	41.3
211.535	16.73
211.753	2.39
211.972	-3.75
212.191	24.92
212.409	18.77
212.628	78.16
212.846	39.25
213.065	-1.71
213.283	96.6
213.502	12.63
213.72	-18.09
213.938	16.73
214.157	57.68
214.375	39.25
214.594	29.01
214.812	22.87
215.031	-11.95
215.249	74.07
215.467	20.82
215.686	26.96
215.904	10.58
216.122	-3.75
216.341	16.73
216.559	14.68
216.778	61.78
216.996	102.74
217.214	84.31
217.432	-24.23
217.651	31.06
217.869	-44.71
218.087	-20.14
218.306	76.12
218.524	49.49
218.742	-3.75
218.96	69.97
219.179	-1.71
219.397	24.92
219.615	-1.71
219.833	33.11
220.051	-38.57
220.27	84.31
220.488	45.4
220.706	-26.28
220.924	12.63
221.142	6.49
221.36	20.82
221.578	69.97
221.796	31.06
222.015	86.36
222.233	-32.43
222.451	-20.14
222.669	78.16
222.887	16.73
223.105	8.53
223.323	-36.52
223.541	-38.57
223.759	51.54
223.977	47.44
224.195	2.39
224.413	31.06
224.631	57.68
224.849	20.82
225.067	31.06
225.285	45.4
225.503	-7.85
225.721	-71.34
225.939	39.25
226.157	-18.09
226.375	84.31
226.592	26.96
226.81	31.06
227.028	16.73
227.246	49.49
227.464	-22.19
227.682	57.68
227.9	4.44
228.117	33.11
228.335	-16.04
228.553	-13.99
228.771	33.11
228.989	90.45
229.206	-13.99
229.424	145.75
229.642	41.3
229.86	45.4
230.077	31.06
230.295	45.4
230.513	16.73
230.731	6.49
230.948	29.01
231.166	98.64
231.384	24.92
231.601	67.92
231.819	61.78
232.037	33.11
232.254	-46.76
232.472	61.78
232.689	-69.29
232.907	76.12
233.125	39.25
233.342	14.68
233.56	-11.95
233.777	72.02
233.995	14.68
234.213	26.96
234.43	22.87
234.648	55.64
234.865	-22.19
235.083	49.49
235.3	4.44
235.518	-38.57
235.735	2.39
235.953	2.39
236.17	51.54
236.388	0.34
236.605	59.73
236.822	39.25
237.04	6.49
237.257	-11.95
237.475	-5.8
237.692	41.3
237.909	20.82
238.127	-44.71
238.344	-13.99
238.562	67.92
238.779	-34.47
238.996	-32.43
239.214	108.88
239.431	-22.19
239.648	35.16
239.865	45.4
240.083	115.03
240.3	47.44
240.517	41.3
240.735	-24.23
240.952	96.6
241.169	76.12
241.386	24.92
241.603	47.44
241.821	-63.15
242.038	78.16
242.255	31.06
242.472	55.64
242.689	110.93
242.907	20.82
243.124	45.4
243.341	-48.81
243.558	-42.67
243.775	-71.34
243.992	43.35
244.209	55.64
244.426	55.64
244.643	59.73
244.86	-20.14
245.078	74.07
245.295	10.58
245.512	37.2
245.729	76.12
245.946	18.77
246.163	-9.9
246.38	6.49
246.597	-3.75
246.814	-18.09
247.031	-28.33
247.248	90.45
247.464	160.08
247.681	92.5
247.898	45.4
248.115	-5.8
248.332	47.44
248.549	-11.95
248.766	74.07
248.983	119.12
249.2	-46.76
249.417	-18.09
249.633	-20.14
249.85	49.49
250.067	16.73
250.284	33.11
250.501	29.01
250.717	78.16
250.934	0.34
251.151	8.53
251.368	10.58
251.585	24.92
251.801	51.54
252.018	-11.95
252.235	16.73
252.451	33.11
252.668	49.49
252.885	37.2
253.102	-28.33
253.318	61.78
253.535	-40.62
253.752	26.96
253.968	72.02
254.185	41.3
254.401	39.25
254.618	-28.33
254.835	-42.67
255.051	80.21
255.268	47.44
255.484	94.55
255.701	-18.09
255.917	4.44
256.134	72.02
256.351	-30.38
256.567	2.39
256.784	14.68
257	-22.19
257.217	55.64
257.433	-40.62
257.65	-26.28
257.866	18.77
258.082	-71.34
258.299	-3.75
258.515	90.45
258.732	22.87
258.948	16.73
259.165	65.88
259.381	-16.04
259.597	53.59
259.814	8.53
260.03	-1.71
260.246	0.34
260.463	10.58
260.679	-13.99
260.895	-65.19
261.112	-26.28
261.328	51.54
261.544	20.82
261.761	110.93
261.977	-1.71
262.193	10.58
262.409	37.2
262.626	100.69
262.842	102.74
263.058	43.35
263.274	20.82
263.49	55.64
263.707	16.73
263.923	26.96
264.139	14.68
264.355	49.49
264.571	18.77
264.787	12.63
265.004	63.83
265.22	47.44
265.436	10.58
265.652	51.54
265.868	33.11
266.084	-46.76
266.3	98.64
266.516	22.87
266.732	37.2
266.948	-3.75
267.164	-5.8
267.38	-11.95
267.596	6.49
267.812	78.16
268.028	-11.95
268.244	6.49
268.46	47.44
268.676	125.27
268.892	61.78
269.108	51.54
269.324	31.06
269.54	67.92
269.756	-3.75
269.972	-40.62
270.188	65.88
270.403	51.54
270.619	8.53
270.835	26.96
271.051	51.54
271.267	-83.63
271.483	45.4
271.698	31.06
271.914	-1.71
272.13	65.88
272.346	10.58
272.562	-3.75
272.777	63.83
272.993	51.54
273.209	-42.67
273.425	20.82
273.64	-16.04
273.856	43.35
274.072	-13.99
274.287	-38.57
274.503	18.77
274.719	-3.75
274.934	57.68
275.15	16.73
275.366	67.92
275.581	31.06
275.797	26.96
276.012	24.92
276.228	22.87
276.444	29.01
276.659	29.01
276.875	18.77
277.09	41.3
277.306	12.63
277.521	55.64
277.737	-24.23
277.952	-5.8
278.168	69.97
278.383	8.53
278.599	20.82
278.814	35.16
279.03	-38.57
279.245	74.07
279.461	26.96
279.676	53.59
279.892	-36.52
280.107	10.58
280.322	-34.47
280.538	-5.8
280.753	4.44
280.969	112.98
281.184	-13.99
281.399	-24.23
281.615	18.77
281.83	4.44
282.045	29.01
282.26	33.11
282.476	55.64
282.691	8.53
282.906	33.11
283.122	31.06
283.337	-3.75
283.552	-7.85
283.767	29.01
283.983	74.07
284.198	67.92
284.413	35.16
284.628	31.06
284.843	12.63
285.058	-24.23
285.274	0.34
285.489	-40.62
285.704	88.4
285.919	33.11
286.134	2.39
286.349	-40.62
286.564	37.2
286.779	57.68
286.995	2.39
287.21	20.82
287.425	63.83
287.64	57.68
287.855	-57
288.07	31.06
288.285	45.4
288.5	4.44
288.715	86.36
288.93	53.59
289.145	55.64
289.36	92.5
289.575	-18.09
289.79	-7.85
290.004	-5.8
290.219	29.01
290.434	33.11
290.649	37.2
290.864	-18.09
291.079	67.92
291.294	78.16
291.509	51.54
291.724	6.49
291.938	2.39
292.153	53.59
292.368	18.77
292.583	26.96
292.798	-11.95
293.012	4.44
293.227	35.16
293.442	29.01
293.657	-11.95
293.871	57.68
294.086	16.73
294.301	84.31
294.516	43.35
294.73	26.96
294.945	88.4
295.16	57.68
295.374	72.02
295.589	94.55
295.804	-16.04
296.018	12.63
296.233	59.73
296.447	16.73
296.662	37.2
296.877	53.59
297.091	14.68
297.306	53.59
297.52	112.98
297.735	35.16
297.949	33.11
298.164	26.96
298.378	8.53
298.593	47.44
298.807	-44.71
299.022	-44.71
299.236	-5.8
299.451	-30.38
299.665	53.59
299.88	51.54
300.094	0.34
300.309	22.87
300.523	63.83
300.737	47.44
300.952	20.82
301.166	18.77
301.381	-20.14
301.595	12.63
301.809	37.2
302.024	59.73
302.238	29.01
302.452	106.84
302.667	57.68
302.881	35.16
303.095	41.3
303.309	39.25
303.524	-1.71
303.738	29.01
303.952	49.49
304.166	63.83
304.381	2.39
304.595	100.69
304.809	-36.52
305.023	6.49
305.237	45.4
305.452	82.26
305.666	20.82
305.88	31.06
306.094	82.26
306.308	33.11
306.522	80.21
306.736	63.83
306.95	12.63
307.164	37.2
307.379	61.78
307.593	49.49
307.807	63.83
308.021	31.06
308.235	22.87
308.449	35.16
308.663	61.78
308.877	69.97
309.091	29.01
309.305	51.54
309.519	-1.71
309.733	31.06
309.947	37.2
310.161	10.58
310.374	12.63
310.588	55.64
310.802	49.49
311.016	41.3
311.23	12.63
311.444	33.11
311.658	4.44
311.872	-13.99
312.085	2.39
312.299	-3.75
312.513	39.25
312.727	59.73
312.941	67.92
313.154	51.54
313.368	37.2
313.582	78.16
313.796	-11.95
314.009	98.64
314.223	37.2
314.437	47.44
314.651	-40.62
314.864	53.59
315.078	-24.23
315.292	-26.28
315.505	-11.95
315.719	76.12
315.933	4.44
316.146	0.34
316.36	-38.57
316.573	119.12
316.787	14.68
317.001	-9.9
317.214	-7.85
317.428	121.17
317.641	-3.75
317.855	41.3
318.068	24.92
318.282	86.36
318.495	115.03
318.709	14.68
318.922	26.96
319.136	180.56
319.349	43.35
319.563	35.16
319.776	47.44
319.99	-5.8
320.203	53.59
320.417	-1.71
320.63	102.74
320.843	47.44
321.057	33.11
321.27	106.84
321.483	4.44
321.697	74.07
321.91	39.25
322.124	37.2
322.337	-34.47
322.55	72.02
322.763	-34.47
322.977	-11.95
323.19	14.68
323.403	41.3
323.617	61.78
323.83	59.73
324.043	45.4
324.256	6.49
324.469	-16.04
324.683	45.4
324.896	-48.81
325.109	8.53
325.322	51.54
325.535	26.96
325.748	12.63
325.962	37.2
326.175	65.88
326.388	12.63
326.601	-28.33
326.814	20.82
327.027	20.82
327.24	74.07
327.453	41.3
327.666	49.49
327.879	6.49
328.092	4.44
328.305	-30.38
328.518	-11.95
328.731	-13.99
328.944	-11.95
329.157	18.77
329.37	29.01
329.583	57.68
329.796	12.63
330.009	-16.04
330.222	65.88
330.435	39.25
330.648	29.01
330.861	92.5
331.073	12.63
331.286	47.44
331.499	115.03
331.712	-20.14
331.925	-3.75
332.138	39.25
332.35	84.31
332.563	-46.76
332.776	-38.57
332.989	61.78
333.202	12.63
333.414	33.11
333.627	57.68
333.84	80.21
334.053	37.2
334.265	-26.28
334.478	12.63
334.691	39.25
334.903	59.73
335.116	-20.14
335.329	65.88
335.541	-3.75
335.754	74.07
335.966	4.44
336.179	4.44
336.392	-30.38
336.604	18.77
336.817	0.34
337.029	-3.75
337.242	-7.85
337.454	4.44
337.667	55.64
337.88	74.07
338.092	63.83
338.305	123.22
338.517	29.01
338.729	57.68
338.942	49.49
339.154	-20.14
339.367	-26.28
339.579	31.06
339.792	37.2
340.004	119.12
340.217	33.11
340.429	12.63
340.641	18.77
340.854	-7.85
341.066	90.45
341.278	-18.09
341.491	65.88
341.703	145.75
341.915	20.82
342.128	41.3
342.34	-3.75
342.552	-3.75
342.764	4.44
342.977	22.87
343.189	16.73
343.401	51.54
343.613	53.59
343.826	45.4
344.038	72.02
344.25	108.88
344.462	-32.43
344.674	-28.33
344.886	14.68
345.099	41.3
345.311	35.16
345.523	-16.04
345.735	55.64
345.947	78.16
346.159	35.16
346.371	151.89
346.583	20.82
346.795	24.92
347.007	57.68
347.219	59.73
347.431	24.92
347.643	127.32
347.855	49.49
348.067	90.45
348.279	-16.04
348.491	80.21
348.703	82.26
348.915	-5.8
349.127	4.44
349.339	84.31
349.551	0.34
349.763	59.73
349.975	-16.04
350.187	106.84
350.399	76.12
350.61	88.4
350.822	2.39
351.034	37.2
351.246	33.11
351.458	88.4
351.669	8.53
351.881	86.36
352.093	86.36
352.305	63.83
352.517	65.88
352.728	-36.52
352.94	129.36
353.152	43.35
353.363	-52.91
353.575	31.06
353.787	67.92
353.999	-11.95
354.21	41.3
354.422	8.53
354.633	8.53
354.845	-22.19
355.057	43.35
355.268	80.21
355.48	69.97
355.692	-1.71
355.903	20.82
356.115	31.06
356.326	-3.75
356.538	47.44
356.749	69.97
356.961	65.88
357.172	43.35
357.384	55.64
357.595	12.63
357.807	47.44
358.018	14.68
358.23	53.59
358.441	45.4
358.653	-34.47
358.864	-5.8
359.075	110.93
359.287	86.36
359.498	74.07
359.709	39.25
359.921	-11.95
360.132	55.64
360.344	-28.33
360.555	-3.75
360.766	102.74
360.977	57.68
361.189	67.92
361.4	4.44
361.611	-3.75
361.823	4.44
362.034	61.78
362.245	4.44
362.456	2.39
362.667	16.73
362.879	78.16
363.09	49.49
363.301	41.3
363.512	26.96
363.723	47.44
363.935	41.3
364.146	72.02
364.357	-7.85
364.568	108.88
364.779	29.01
364.99	20.82
365.201	8.53
365.412	18.77
365.623	8.53
365.834	18.77
366.045	-1.71
366.256	115.03
366.467	24.92
366.678	102.74
366.889	61.78
367.1	33.11
367.311	47.44
367.522	16.73
367.733	57.68
367.944	86.36
368.155	61.78
368.366	72.02
368.577	78.16
368.788	31.06
368.999	-3.75
369.209	49.49
369.42	84.31
369.631	53.59
369.842	82.26
370.053	16.73
370.264	53.59
370.474	6.49
370.685	49.49
370.896	31.06
371.107	47.44
371.317	98.64
371.528	106.84
371.739	69.97
371.95	45.4
372.16	78.16
372.371	61.78
372.582	67.92
372.792	-22.19
373.003	61.78
373.214	119.12
373.424	96.6
373.635	102.74
373.846	33.11
374.056	69.97
374.267	12.63
374.477	65.88
374.688	18.77
374.898	78.16
375.109	57.68
375.319	53.59
375.53	59.73
375.74	102.74
375.951	-3.75
376.161	74.07
376.372	12.63
376.582	37.2
376.793	35.16
377.003	59.73
377.214	37.2
377.424	10.58
377.635	45.4
377.845	-13.99
378.055	110.93
378.266	-7.85
378.476	90.45
378.686	26.96
378.897	22.87
379.107	39.25
379.317	72.02
379.528	29.01
379.738	45.4
379.948	26.96
380.158	74.07
380.369	-34.47
380.579	67.92
380.789	49.49
380.999	49.49
381.21	39.25
381.42	35.16
381.63	43.35
381.84	72.02
382.05	26.96
382.261	59.73
382.471	155.99
382.681	69.97
382.891	69.97
383.101	90.45
383.311	53.59
383.521	26.96
383.731	104.79
383.941	12.63
384.151	35.16
384.361	-1.71
384.571	125.27
384.781	61.78
384.991	88.4
385.201	110.93
385.411	43.35
385.621	47.44
385.831	-28.33
386.041	-20.14
386.251	102.74
386.461	45.4
386.671	80.21
386.881	26.96
387.091	78.16
387.301	0.34
387.511	39.25
387.72	-11.95
387.93	49.49
388.14	12.63
388.35	31.06
388.56	119.12
388.769	129.36
388.979	123.22
389.189	20.82
389.399	96.6
389.609	67.92
389.818	121.17
390.028	102.74
390.238	135.51
390.447	45.4
390.657	69.97
390.867	84.31
391.076	37.2
391.286	29.01
391.496	112.98
391.705	69.97
391.915	63.83
392.125	92.5
392.334	112.98
392.544	63.83
392.753	69.97
392.963	61.78
393.172	35.16
393.382	65.88
393.591	82.26
393.801	41.3
394.01	98.64
394.22	69.97
394.429	59.73
394.639	164.18
394.848	51.54
395.058	2.39
395.267	61.78
395.477	82.26
395.686	18.77
395.895	35.16
396.105	76.12
396.314	104.79
396.524	94.55
396.733	82.26
396.942	131.41
397.152	69.97
397.361	29.01
397.57	63.83
397.78	12.63
397.989	100.69
398.198	115.03
398.407	69.97
398.617	74.07
398.826	94.55
399.035	49.49
399.244	53.59
399.453	149.84
399.663	65.88
399.872	76.12
400.081	65.88
400.29	108.88
400.499	72.02
400.708	215.38
400.917	31.06
401.127	127.32
401.336	84.31
401.545	135.51
401.754	110.93
401.963	61.78
402.172	82.26
402.381	98.64
402.59	78.16
402.799	112.98
403.008	57.68
403.217	100.69
403.426	172.37
403.635	47.44
403.844	33.11
404.053	37.2
404.262	14.68
404.471	164.18
404.68	76.12
404.888	149.84
405.097	184.66
405.306	92.5
405.515	84.31
405.724	143.7
405.933	166.23
406.142	196.95
406.35	168.27
406.559	198.99
406.768	164.18
406.977	254.29
407.185	215.38
407.394	192.85
407.603	158.03
407.812	233.81
408.02	209.23
408.229	172.37
408.438	110.93
408.646	119.12
408.855	211.28
409.064	233.81
409.272	262.48
409.481	262.48
409.69	235.86
409.898	229.71
410.107	213.33
410.315	293.2
410.524	328.02
410.733	221.52
410.941	266.58
411.15	278.87
411.358	270.67
411.567	307.54
411.775	336.21
411.984	356.69
412.192	358.74
412.401	414.03
412.609	407.89
412.818	358.74
413.026	487.76
413.234	475.47
413.443	389.46
413.651	467.28
413.86	436.56
414.068	338.26
414.276	526.67
414.485	606.54
414.693	549.2
414.901	704.84
415.11	596.3
415.318	596.3
415.526	622.92
415.734	647.5
415.943	657.74
416.151	747.85
416.359	735.56
416.567	753.99
416.776	737.61
416.984	803.15
417.192	868.68
417.4	756.04
417.608	885.06
417.817	868.68
418.025	999.75
418.233	975.17
418.441	985.41
418.649	1067.33
418.857	1106.24
419.065	1028.42
419.273	1036.61
419.481	1110.34
419.689	1261.89
419.897	1331.52
420.105	1308.99
420.313	1452.35
420.521	1347.9
420.729	1372.48
420.937	1509.69
421.145	1532.22
421.353	1501.5
421.561	1687.87
421.769	1765.69
421.977	1775.93
422.185	1751.35
422.393	1769.79
422.601	1984.82
422.809	2046.26
423.017	1990.97
423.224	2203.96
423.432	2128.18
423.64	2195.76
423.848	2392.37
424.056	2201.91
424.263	2449.71
424.471	2408.75
424.679	2578.73
424.887	2722.09
425.094	2730.28
425.302	2748.72
425.51	2834.73
425.718	2945.32
425.925	2853.16
426.133	3092.77
426.341	3328.29
426.548	3277.09
426.756	3434.78
426.964	3475.74
427.171	3672.35
427.379	3574.05
427.586	3715.36
427.794	3868.95
428.001	4190.49
428.209	4311.32
428.417	4309.27
428.624	4491.54
428.832	4524.3
429.039	4598.03
429.247	4522.26
429.454	4899.08
429.662	5251.33
429.869	4954.38
430.076	5239.05
430.284	5114.12
430.491	5273.86
430.699	5587.2
430.906	5607.68
431.114	5746.94
431.321	5908.73
431.528	6041.85
431.736	6502.64
431.943	6684.91
432.15	6447.35
432.358	6715.63
432.565	7080.17
432.772	6936.81
432.979	7225.58
433.187	7373.03
433.394	7481.57
433.601	7882.97
433.808	8224.98
434.016	7885.02
434.223	8294.61
434.43	8874.19
434.637	8558.8
434.844	8937.68
435.052	9521.35
435.259	9267.4
435.466	9560.26
435.673	9281.74
435.88	9814.21
436.087	10465.46
436.294	10397.88
436.501	10203.32
436.708	10381.49
436.915	10832.05
437.122	11288.75
437.329	11036.84
437.537	11364.52
437.743	11651.24
437.95	11569.32
438.157	12136.6
438.364	12402.84
438.571	12820.63
438.778	12785.81
438.985	13731.97
439.192	13295.75
439.399	13570.18
439.606	13305.99
439.813	14143.61
440.02	14948.47
440.227	14745.72
440.433	14512.25
440.64	15243.37
440.847	15097.97
441.054	15554.66
441.261	16402.52
441.467	16250.97
441.674	16599.13
441.881	17250.38
442.088	17356.88
442.294	17186.9
442.501	17571.91
442.708	17840.2
442.914	18683.96
443.121	19327.02
443.328	19017.78
443.534	20318.24
443.741	19736.62
443.948	19251.25
444.154	20410.4
444.361	20527.13
444.568	20701.21
444.774	20711.45
444.981	21295.12
445.187	21682.19
445.394	22624.25
445.6	22364.16
445.807	24315.87
446.013	23433.2
446.22	23582.7
446.426	24823.77
446.633	24983.51
446.839	25565.14
447.046	24917.98
447.252	25833.42
447.459	26099.66
447.665	25974.73
447.871	26816.44
448.078	27844.52
448.284	26922.94
448.491	27396.02
448.697	28708.77
448.903	28886.94
449.11	29151.13
449.316	28463.01
449.522	29144.98
449.728	29671.31
449.935	30113.67
450.141	30275.46
450.347	30680.96
450.553	29869.97
450.76	30033.8
450.966	31342.46
451.172	30953.34
451.378	31080.32
451.584	30814.08
451.791	31594.36
451.997	31106.94
452.203	31942.51
452.409	31848.3
452.615	31618.93
452.821	30398.34
453.027	30142.35
453.233	31682.42
453.44	30498.69
453.646	30728.06
453.852	30730.11
454.058	31172.47
454.264	30519.17
454.47	31098.75
454.676	29845.39
454.882	30852.99
455.088	28239.78
455.294	28841.89
455.5	29073.31
455.705	29314.97
455.911	28284.84
456.117	27733.93
456.323	27070.39
456.529	25796.56
456.735	27127.74
456.941	26185.67
457.147	25386.96
457.352	24934.36
457.558	24594.4
457.764	24799.19
457.97	24410.08
458.176	23580.65
458.381	23736.3
458.587	22284.29
458.793	22550.53
458.999	21430.29
459.204	22796.28
459.41	22179.84
459.616	20811.8
459.821	20523.04
460.027	20512.8
460.233	20156.45
460.438	19247.15
460.644	19652.65
460.85	18499.64
461.055	18264.13
461.261	18278.46
461.466	16771.16
461.672	16126.05
461.878	17651.78
462.083	16019.55
462.289	16019.55
462.494	15673.45
462.7	15358.06
462.905	14645.37
463.111	15384.68
463.316	15480.94
463.522	15122.54
463.727	14966.9
463.932	15063.15
464.138	14790.77
464.343	15005.81
464.549	14440.57
464.754	15030.38
464.959	14901.36
465.165	14626.93
465.37	14039.17
465.575	13707.4
465.781	14510.2
465.986	14557.3
466.191	13940.86
466.397	13727.88
466.602	13115.53
466.807	13693.06
467.012	13559.94
467.218	13385.87
467.423	13127.82
467.628	13529.22
467.833	13637.77
468.038	13269.13
468.244	12759.19
468.449	13359.24
468.654	12918.93
468.859	12925.07
469.064	12892.3
469.269	12417.18
469.474	12527.77
469.679	12773.52
469.885	12462.23
470.09	12478.61
470.295	12212.38
470.5	12085.4
470.705	12189.85
470.91	11784.35
471.115	11772.07
471.32	11876.51
471.525	11929.76
471.73	11727.01
471.935	11577.51
472.139	11311.27
472.344	11354.28
472.549	11253.93
472.754	11129
472.959	11124.91
473.164	10506.42
473.369	10543.28
473.574	10821.81
473.778	10543.28
473.983	10643.63
474.188	10692.79
474.393	10150.07
474.598	10188.99
474.802	9834.69
475.007	10055.87
475.212	10066.11
475.417	9705.67
475.621	9615.55
475.826	9775.3
476.031	9402.57
476.235	9416.9
476.44	9523.4
476.645	9218.25
476.849	9380.04
477.054	9382.09
477.259	9154.76
477.463	9218.25
477.668	8786.13
477.872	8984.78
478.077	8736.98
478.282	8530.13
478.486	8716.5
478.691	8374.49
478.895	8409.3
479.1	8296.66
479.304	8526.04
479.509	8224.98
479.713	8311
479.918	8175.83
480.122	8020.19
480.326	8132.83
480.531	8122.59
480.735	8036.57
480.94	7983.32
481.144	8151.26
481.348	8036.57
481.553	7913.69
481.757	7829.73
481.961	8016.09
482.166	8153.3
482.37	7911.64
482.574	7735.52
482.778	7870.69
482.983	8114.39
483.187	7960.8
483.391	7893.21
483.595	7559.39
483.8	7899.36
484.004	7862.49
484.208	8046.81
484.412	7876.83
484.616	7776.48
484.821	7885.02
485.025	7682.27
485.229	7784.67
485.433	7631.07
485.637	7811.29
485.841	7823.58
486.045	7889.12
486.249	7866.59
486.453	7598.31
486.657	7866.59
486.861	8063.19
487.065	7571.68
487.269	7796.96
487.473	7712.99
487.677	7882.97
487.881	7987.42
488.085	7792.86
488.289	7882.97
488.493	7842.01
488.697	7907.55
488.901	7835.87
489.105	7803.1
489.309	7854.3
489.512	7801.05
489.716	7866.59
489.92	7923.93
490.124	7874.78
490.328	8081.63
490.531	7942.36
490.735	8122.59
490.939	8052.95
491.143	7960.8
491.346	8171.74
491.55	8124.63
491.754	8265.94
491.958	8186.07
492.161	8186.07
492.365	8241.37
492.569	8325.33
492.772	8483.03
492.976	8450.26
493.18	8507.6
493.383	8704.21
493.587	8663.25
493.79	8636.63
493.994	8599.76
494.197	8689.87
494.401	8663.25
494.605	8612.05
494.808	9027.79
495.012	8814.8
495.215	9105.61
495.419	8974.54
495.622	9091.27
495.825	9160.91
496.029	9265.35
496.232	9441.48
496.436	9312.46
496.639	9693.38
496.843	9394.37
497.046	9777.34
497.249	9615.55
497.453	9965.76
497.656	10127.55
497.859	10055.87
498.063	9887.93
498.266	10270.9
498.469	10428.6
498.673	10477.75
498.876	10551.48
499.079	10713.27
499.282	10735.79
499.485	10850.48
499.689	10703.03
499.892	11129
500.095	11124.91
500.298	11667.62
500.501	11505.83
500.705	11739.3
500.908	11980.96
501.111	11808.93
501.314	11999.39
501.517	12202.14
501.72	12173.47
501.923	12161.18
502.126	12619.92
502.329	12853.39
502.532	12839.06
502.735	12687.51
502.938	13035.66
503.141	13244.56
503.344	13322.38
503.547	13363.34
503.75	13471.88
503.953	13770.88
504.156	13795.46
504.359	14131.33
504.562	14127.23
504.765	14463.1
504.968	14448.76
505.17	14698.61
505.373	14438.52
505.576	14880.88
505.779	15208.56
505.982	15104.11
506.185	15372.39
506.387	15878.24
506.59	15825
506.793	16091.23
506.996	16099.42
507.198	16408.67
507.401	16445.53
507.604	16646.23
507.807	16945.23
508.009	16916.56
508.212	17139.79
508.415	17393.74
508.617	17700.94
508.82	17533
509.022	17725.51
509.225	18098.24
509.428	18382.91
509.63	18522.17
509.833	18608.19
510.035	19064.88
510.238	18913.33
510.44	19206.19
510.643	19286.06
510.845	19601.45
511.048	19548.2
511.25	20170.79
511.453	19863.59
511.655	20893.72
511.858	20303.9
512.06	20621.34
512.262	20895.77
512.465	20883.48
512.667	21346.32
512.87	21825.54
513.072	21653.51
513.274	21878.79
513.477	22077.44
513.679	22724.6
513.881	22614.01
514.084	22558.72
514.286	23007.22
514.488	23054.33
514.69	23635.95
514.893	23760.87
515.095	23807.98
515.297	24004.58
515.499	24281.06
515.701	24557.53
515.904	24793.05
516.106	25118.68
516.308	25180.12
516.51	25479.12
516.712	25616.33
516.914	25956.3
517.116	26406.85
517.318	26267.59
517.52	26572.74
517.722	26531.78
517.925	27217.85
518.127	27353.01
518.329	27713.45
518.531	27228.09
518.733	28395.43
518.935	28018.6
519.136	28364.71
519.338	28985.24
519.54	28641.18
519.742	29398.93
519.944	29398.93
520.146	29822.86
520.348	29988.75
520.55	29831.05
520.752	30072.71
520.954	30816.13
521.155	30789.5
521.357	31414.13
521.559	31569.78
521.761	31700.85
521.963	31840.11
522.164	31801.2
522.366	31950.7
522.568	32397.16
522.77	32677.73
522.971	33183.58
523.173	33154.91
523.375	33437.53
523.576	33417.05
523.778	33544.02
523.98	34068.3
524.181	34053.97
524.383	34127.69
524.584	34424.65
524.786	34918.21
524.988	34846.53
525.189	35403.58
525.391	35043.13
525.592	35276.6
525.794	35659.57
525.995	36155.18
526.197	36044.59
526.398	36112.17
526.6	36407.08
526.801	36316.97
527.003	36699.94
527.204	36525.86
527.406	36800.29
527.607	36820.77
527.808	37472.03
528.01	36783.91
528.211	36775.72
528.412	37984.02
528.614	37990.16
528.815	37670.68
529.016	38033.17
529.218	37621.53
529.419	37850.9
529.62	38184.72
529.822	37832.47
530.023	37879.57
530.224	38127.38
530.425	38289.17
530.626	37947.15
530.828	37902.1
531.029	39032.58
531.23	38342.41
531.431	38500.11
531.632	38602.5
531.833	39028.48
532.035	38762.25
532.236	38889.22
532.437	39188.22
532.638	38979.33
532.839	39280.38
533.04	39108.35
533.241	38948.61
533.442	39544.57
533.643	39360.25
533.844	39608.06
534.045	39190.27
534.246	39286.53
534.447	39513.85
534.648	39704.31
534.849	39468.8
535.05	39546.62
535.251	39511.8
535.451	39704.31
535.652	39786.23
535.853	39577.34
536.054	39749.37
536.255	39673.59
536.456	39536.38
536.657	40316.65
536.857	39575.29
537.058	39343.87
537.259	40056.56
537.46	40034.03
537.66	39780.09
537.861	39884.53
538.062	39446.27
538.263	39900.92
538.463	39702.26
538.664	39423.74
538.865	39687.93
539.065	40244.98
539.266	39370.49
539.466	40181.49
539.667	39096.06
539.868	40195.82
540.068	39436.03
540.269	39534.33
540.469	39757.56
540.67	39692.02
540.87	39714.55
541.071	39773.94
541.271	39700.22
541.472	39573.24
541.672	39200.51
541.873	39493.37
542.073	39118.59
542.274	40199.92
542.474	39755.51
542.675	39517.95
542.875	39536.38
543.075	39489.27
543.276	39120.64
543.476	39718.65
543.676	39460.6
543.877	39798.52
544.077	39638.78
544.277	39868.15
544.478	39651.06
544.678	40019.7
544.878	39198.46
545.078	39671.54
545.279	39216.89
545.479	39218.94
545.679	39798.52
545.879	39735.03
546.079	39606.01
546.28	39280.38
546.48	39061.25
546.68	39509.75
546.88	39628.54
547.08	39685.88
547.28	39376.64
547.48	39403.26
547.68	39872.24
547.88	39151.36
548.081	39474.94
548.281	39579.39
548.481	39388.92
548.681	39737.08
548.881	39417.6
549.081	39376.64
549.28	39251.71
549.48	39675.64
549.68	39143.17
549.88	39759.61
550.08	38633.22
550.28	39343.87
550.48	39229.18
550.68	39522.04
550.88	39413.5
551.08	39608.06
551.279	39548.67
551.479	39048.96
551.679	39298.81
551.879	39419.64
552.079	39376.64
552.278	38967.04
552.478	39386.88
552.678	39030.53
552.878	39341.82
553.077	39239.42
553.277	38696.71
553.477	39556.86
553.676	39003.91
553.876	38958.85
554.076	38917.89
554.275	38756.1
554.475	38663.94
554.674	38651.66
554.874	39163.65
555.074	38506.25
555.273	39061.25
555.473	38698.76
555.672	38680.33
555.872	39304.96
556.071	38919.94
556.271	39212.8
556.47	38377.23
556.67	38319.88
556.869	38475.53
557.068	38635.27
557.268	38156.05
557.467	38213.39
557.667	38049.55
557.866	38262.54
558.065	38035.22
558.265	38182.67
558.464	38059.79
558.663	38043.41
558.863	37861.14
559.062	38199.05
559.261	37502.75
559.461	38405.9
559.66	37269.28
559.859	37748.5
560.058	37365.53
560.258	37719.83
560.457	37451.55
560.656	37713.69
560.855	37355.29
561.054	37617.43
561.253	36912.93
561.453	37615.38
561.652	37234.46
561.851	37392.15
562.05	37383.96
562.249	36970.27
562.448	37590.81
562.647	37205.79
562.846	36738.85
563.045	36923.17
563.244	36138.8
563.443	36607.78
563.642	36468.52
563.841	36505.38
564.04	36460.33
564.239	37031.71
564.438	36235.05
564.637	36343.59
564.836	36546.34
565.035	35415.86
565.234	36048.69
565.432	35956.53
565.631	35911.47
565.83	36177.71
566.029	36085.55
566.228	35610.42
566.427	35491.64
566.625	35630.9
566.824	35272.51
567.023	35383.1
567.222	34883.39
567.42	35436.34
567.619	35391.29
567.818	35256.12
568.016	34641.73
568.215	34707.27
568.414	34836.29
568.612	34998.08
568.811	34746.18
569.01	34776.9
569.208	34443.08
569.407	34543.43
569.605	34199.37
569.804	34475.85
570.002	33931.09
570.201	33898.32
570.4	33906.51
570.598	33814.35
570.797	33636.18
570.995	33484.63
571.193	33443.67
571.392	33861.46
571.59	33150.81
571.789	33574.74
571.987	33152.86
572.186	33208.15
572.384	32948.06
572.582	32999.26
572.781	33032.03
572.979	32761.7
573.177	32573.28
573.376	33292.12
573.574	32307.05
573.772	32579.43
573.971	32421.73
574.169	32257.9
574.367	31948.65
574.565	32331.62
574.763	31881.07
574.962	32196.46
575.16	31586.16
575.358	31506.29
575.556	31276.92
575.754	31864.69
575.952	31242.1
576.151	31248.25
576.349	31311.74
576.547	31391.61
576.745	31442.81
576.943	31106.94
577.141	31035.26
577.339	31209.34
577.537	30766.98
577.735	30926.72
577.933	30625.67
578.131	30844.8
578.329	30539.65
578.527	30429.06
578.725	30398.34
578.923	30369.67
579.121	30103.43
579.319	30140.3
579.516	30199.69
579.714	29949.84
579.912	29855.63
580.11	29581.2
580.308	29548.43
580.506	29689.74
580.704	29310.87
580.901	29296.53
581.099	29517.71
581.297	29089.69
581.495	29177.75
581.692	29018.01
581.89	28862.36
582.088	29292.44
582.285	29030.3
582.483	28782.49
582.681	28510.11
582.878	29005.72
583.076	28581.79
583.274	29067.16
583.471	28358.56
583.669	28475.3
583.866	27998.12
584.064	28479.39
584.262	28045.23
584.459	28385.19
584.657	28137.38
584.854	28178.34
585.052	27652.02
585.249	27680.69
585.447	27735.98
585.644	27826.09
585.841	27828.14
586.039	27989.93
586.236	27342.77
586.434	27172.79
586.631	27293.62
586.828	27223.99
587.026	27516.85
587.223	27314.1
587.42	26972.09
587.618	26765.24
587.815	26550.21
588.012	26765.24
588.21	26570.69
588.407	26845.12
588.604	26458.05
588.801	26476.48
588.999	26193.86
589.196	26146.76
589.393	26595.26
589.59	26245.06
589.787	26251.2
589.984	25948.11
590.182	25937.87
590.379	26097.61
590.576	25667.53
590.773	25989.06
590.97	25630.67
591.167	25630.67
591.364	25280.47
591.561	25515.98
591.758	25348.05
591.955	25182.17
592.152	25391.06
592.349	24883.16
592.546	25038.81
592.743	25083.86
592.94	24825.82
593.137	24874.97
593.334	24975.32
593.531	24778.72
593.727	24498.14
593.924	24596.45
594.121	24623.07
594.318	24745.95
594.515	24555.49
594.712	24360.93
594.908	24303.59
595.105	24260.58
595.302	23865.32
595.499	24078.31
595.696	23676.91
595.892	23738.35
596.089	24201.19
596.286	23844.84
596.482	23564.27
596.679	23541.74
596.876	23807.98
597.072	23398.38
597.269	23752.68
597.466	23599.09
597.662	23205.88
597.859	23332.85
598.055	23240.69
598.252	23050.23
598.448	23146.48
598.645	23037.94
598.841	22714.36
599.038	22980.6
599.234	22900.73
599.431	22736.89
599.627	22523.9
599.824	22726.65
600.02	22480.89
600.217	22544.38
600.413	22249.47
600.609	22005.77
600.806	22472.7
601.002	22550.53
601.198	22235.14
601.395	21903.37
601.591	22016.01
601.787	21970.95
601.984	21684.23
602.18	22024.2
602.376	21929.99
602.572	21772.3
602.769	21727.24
602.965	21461.01
603.161	21739.53
603.357	21510.16
603.553	21131.28
603.75	21565.45
603.946	21186.58
604.142	21254.16
604.338	21119
604.534	21237.78
604.73	20834.33
604.926	20695.07
605.122	20750.36
605.318	20576.28
605.514	20793.37
605.71	20557.85
605.906	20369.44
606.102	20662.3
606.298	20535.32
606.494	20224.03
606.69	20414.49
606.886	20488.22
607.082	20375.58
607.278	20262.94
607.474	20322.34
607.67	20144.16
607.866	19943.46
608.062	20443.17
608.257	19832.87
608.453	19777.58
608.649	19605.55
608.845	19779.62
609.041	19925.03
609.236	19869.73
609.432	19636.27
609.628	19646.51
609.824	19464.24
610.019	19574.83
610.215	19470.38
610.411	19574.83
610.606	19464.24
610.802	19404.85
610.998	19300.4
611.193	19425.32
611.389	19382.32
611.584	19216.43
611.78	19165.23
611.976	19236.91
612.171	19087.41
612.367	19015.73
612.562	18880.57
612.758	18933.81
612.953	18796.6
613.149	19068.98
613.344	18554.94
613.539	19079.22
613.735	18792.5
613.93	18919.48
614.126	18487.36
614.321	19011.64
614.517	18686.01
614.712	18591.8
614.907	18638.9
615.103	18638.9
615.298	18419.77
615.493	18913.33
615.688	18399.29
615.884	18622.52
616.079	18423.87
616.274	18401.34
616.47	18403.39
616.665	18387
616.86	18331.71
617.055	18217.02
617.25	18171.97
617.445	18243.65
617.641	17789
617.836	18319.42
618.031	17686.6
618.226	18036.8
618.421	17877.06
618.616	17936.45
618.811	17709.13
619.006	17805.38
619.201	17399.88
619.396	17535.05
619.591	17356.88
619.786	17463.37
619.981	17287.25
620.176	17313.87
620.371	17236.05
620.566	17164.37
620.761	17012.82
620.956	17248.33
621.151	16828.5
621.346	16947.28
621.541	16640.09
621.735	16719.96
621.93	16627.8
622.125	16484.44
622.32	16193.63
622.515	16339.04
622.709	15941.73
622.904	16156.77
623.099	16064.61
623.294	16066.66
623.488	16017.5
623.683	16070.75
623.878	15556.71
624.072	15736.93
624.267	15771.75
624.462	15671.4
624.656	15687.78
624.851	15523.94
625.046	15257.71
625.24	15511.66
625.435	15251.56
625.629	15331.44
625.824	15155.31
626.018	14880.88
626.213	14604.41
626.407	14899.31
626.602	14784.63
626.796	14661.75
626.991	14835.83
627.185	14475.38
627.38	14262.4
627.574	14213.24
627.768	14248.06
627.963	14000.26
628.157	14088.32
628.352	14104.7
628.546	13803.65
628.74	14155.9
628.935	13602.95
629.129	13629.57
629.323	13500.55
629.517	13717.64
629.712	13459.59
629.906	13312.14
630.1	13439.11
630.294	13355.15
630.489	13052.05
630.683	13308.04
630.877	13228.17
631.071	12929.17
631.265	13144.2
631.459	12923.02
631.653	12667.03
631.848	12935.31
632.042	12869.78
632.236	12744.85
632.43	12466.33
632.624	12707.99
632.818	12314.78
633.012	12183.71
633.206	12294.3
633.4	12357.78
633.594	12220.57
633.788	12204.19
633.982	12327.07
634.176	12142.75
634.369	11919.52
634.563	11800.74
634.757	11931.81
634.951	11808.93
635.145	11798.69
635.339	11421.86
635.533	11530.41
635.726	11616.42
635.92	11387.05
636.114	11514.02
636.308	11298.98
636.501	11274.41
636.695	11053.23
636.889	11329.7
637.083	11034.8
637.276	11067.56
637.47	10918.06
637.664	10901.68
637.857	11163.82
638.051	10856.62
638.244	10840.24
638.438	10854.58
638.632	10741.94
638.825	10559.67
639.019	10590.39
639.212	10748.08
639.406	10639.54
639.599	10399.93
639.793	10260.66
639.986	10078.4
640.18	10223.8
640.373	10260.66
640.567	10037.44
640.76	10246.33
640.954	10121.4
641.147	10019
641.34	9885.89
641.534	9865.41
641.727	9855.17
641.92	9863.36
642.114	9715.91
642.307	9744.58
642.5	9646.27
642.694	9437.38
642.887	9597.12
643.08	9650.37
643.273	9519.3
643.467	9236.68
643.66	9136.33
643.853	9324.74
644.046	9134.28
644.239	9177.29
644.432	8947.92
644.626	9160.91
644.819	9025.74
645.012	9007.31
645.205	9142.47
645.398	8837.33
645.591	8822.99
645.784	8755.41
645.977	8571.09
646.17	8507.6
646.363	8724.69
646.556	8542.42
646.749	8462.55
646.942	8556.75
647.135	8294.61
647.328	8450.26
647.521	8403.16
647.714	8333.53
647.907	8243.42
648.099	8315.09
648.292	8235.22
648.485	8233.18
648.678	8026.33
648.871	8206.55
649.064	7917.79
649.256	8018.14
649.449	8120.54
649.642	7823.58
649.835	7983.32
650.027	7831.77
650.22	7954.65
650.413	7737.57
650.605	7999.71
650.798	7747.81
650.991	7616.74
651.183	7704.8
651.376	7528.67
651.568	7293.16
651.761	7446.76
651.954	7413.99
652.146	7356.65
652.339	7426.28
652.531	7344.36
652.724	7317.73
652.916	7266.53
653.109	7241.96
653.301	7219.43
653.494	7108.84
653.686	7114.98
653.879	7082.22
654.071	7106.79
654.263	6953.2
654.456	6963.44
654.648	6861.04
654.84	6940.91
655.033	6713.58
655.225	6893.8
655.417	6813.93
655.61	6691.06
655.802	6705.39
655.994	6756.59
656.186	6775.02
656.379	6703.34
656.571	6537.46
656.763	6551.79
656.955	6334.71
657.148	6439.16
657.34	6361.33
657.532	6433.01
657.724	6334.71
657.916	6355.19
658.108	6342.9
658.3	6189.3
658.492	6383.86
658.684	6306.04
658.876	6217.97
659.068	6174.97
659.26	6013.18
659.452	6185.21
659.644	5996.79
659.836	6013.18
660.028	5996.79
660.22	5839.1
660.412	5961.98
660.604	5902.59
660.796	5685.5
660.988	5908.73
661.18	5953.79
661.372	5771.52
661.563	5785.85
661.755	5808.38
661.947	5781.76
662.139	5613.82
662.331	5775.61
662.522	5548.29
662.714	5527.81
662.906	5398.79
663.097	5509.38
663.289	5501.19
663.481	5394.69
663.673	5337.35
663.864	5447.94
664.056	5378.31
664.247	5529.86
664.439	5200.13
664.631	5419.27
664.822	5421.31
665.014	5292.29
665.205	5237
665.397	5335.3
665.588	5169.41
665.78	5224.71
665.971	5191.94
666.163	5185.8
666.354	5247.24
666.546	5083.4
666.737	5034.25
666.929	5116.17
667.12	5034.25
667.311	4927.75
667.503	4946.19
667.694	4952.33
667.885	4917.51
668.077	5036.3
668.268	4942.09
668.459	4782.35
668.651	4825.36
668.842	4831.5
669.033	4864.27
669.224	4716.81
669.416	4843.79
669.607	4684.05
669.798	4725.01
669.989	4804.88
670.18	4731.15
670.371	4747.53
670.563	4534.54
670.754	4598.03
670.945	4591.89
671.136	4561.17
671.327	4507.92
671.518	4405.52
671.709	4509.97
671.9	4530.45
672.091	4380.95
672.282	4391.19
672.473	4260.12
672.664	4481.3
672.855	4448.53
673.046	4454.67
673.237	4450.58
673.428	4532.5
673.619	4200.73
673.809	4428.05
674	4337.94
674.191	4382.99
674.382	4202.77
674.573	4391.19
674.764	4339.99
674.954	4436.24
675.145	4153.62
675.336	4081.94
675.527	4301.08
675.717	4288.79
675.908	4180.25
676.099	4292.88
676.289	4133.14
676.48	4231.44
676.671	4061.46
676.861	4231.44
677.052	4043.03
677.243	3989.78
677.433	4079.9
677.624	4032.79
677.814	4018.46
678.005	4032.79
678.195	4034.84
678.386	3977.5
678.576	3981.59
678.767	4096.28
678.957	4028.7
679.148	4110.61
679.338	4000.02
679.529	3971.35
679.719	4110.61
679.909	4022.55
680.1	3928.35
680.29	3920.15
680.481	3772.7
680.671	3961.11
680.861	4016.41
681.052	3930.39
681.242	4067.61
681.432	3944.73
681.622	3852.57
681.813	3854.62
682.003	3744.03
682.193	3858.71
682.383	3985.69
682.573	3836.19
682.764	3823.9
682.954	3834.14
683.144	3864.86
683.334	3871
683.524	3776.8
683.714	3879.19
683.904	3780.89
684.094	3770.65
684.284	3727.64
684.474	3922.2
684.664	3891.48
684.854	3776.8
685.044	3713.31
685.234	3758.36
685.424	3748.12
685.614	3631.39
685.804	3643.68
685.994	3658.01
686.184	3787.04
686.374	3752.22
686.564	3549.47
686.753	3649.82
686.943	3602.72
687.133	3584.29
687.323	3496.22
687.513	3744.03
687.702	3526.94
687.892	3449.12
688.082	3572
688.272	3635.49
688.461	3524.9
688.651	3627.29
688.841	3424.55
689.03	3469.6
689.22	3404.07
689.41	3359.01
689.599	3410.21
689.789	3520.8
689.979	3377.44
690.168	3504.42
690.358	3252.52
690.547	3453.22
690.737	3369.25
690.926	3356.96
691.116	3365.15
691.305	3344.67
691.495	3326.24
691.684	3375.39
691.874	3223.84
692.063	3359.01
692.252	3240.23
692.442	3389.73
692.631	3180.84
692.82	3328.29
693.01	3203.36
693.199	3189.03
693.388	3207.46
693.578	3215.65
693.767	3246.37
693.956	3197.22
694.146	3158.31
694.335	3193.12
694.524	3084.58
694.713	3035.43
694.902	3129.64
695.092	3133.73
695.281	3156.26
695.47	3113.25
695.659	3072.29
695.848	3021.1
696.037	3068.2
696.226	3029.29
696.415	3084.58
696.604	3170.6
696.793	3078.44
696.982	3121.45
697.171	2939.18
697.36	3057.96
697.549	3137.83
697.738	3066.15
697.927	2961.7
698.116	2986.28
698.305	3123.49
698.494	3035.43
698.683	3129.64
698.872	3004.71
699.061	2941.22
699.25	2976.04
699.438	3066.15
699.627	2937.13
699.816	3017
700.005	2976.04
700.193	2937.13
700.382	3057.96
700.571	2834.73
700.76	3113.25
700.948	3017
701.137	3002.66
701.326	3055.91
701.514	2935.08
701.703	2980.14
701.892	3012.9
702.08	2896.17
702.269	2967.85
702.457	2908.46
702.646	2992.42
702.834	3080.49
703.023	3035.43
703.212	2973.99
703.4	2959.66
703.589	2920.74
703.777	3043.62
703.965	2918.7
704.154	2904.36
704.342	3002.66
704.531	2851.11
704.719	2879.79
704.907	3041.57
705.096	2859.31
705.284	2965.8
705.472	2928.94
705.661	2881.83
705.849	3021.1
706.037	2982.18
706.226	2892.07
706.414	2986.28
706.602	3002.66
706.79	2851.11
706.979	2961.7
707.167	2969.9
707.355	2920.74
707.543	3010.86
707.731	2941.22
707.919	2926.89
708.107	2881.83
708.296	2986.28
708.484	2980.14
708.672	2826.54
708.86	2965.8
709.048	2851.11
709.236	2855.21
709.424	3010.86
709.612	2806.06
709.8	2816.3
709.988	2838.83
710.176	3023.14
710.364	2789.67
710.551	2976.04
710.739	2830.63
710.927	2865.45
711.115	2865.45
711.303	2980.14
711.491	2771.24
711.679	2840.87
711.866	2910.5
712.054	2900.27
712.242	2824.49
712.43	2978.09
712.617	2867.5
712.805	2775.34
712.993	2818.35
713.181	2799.91
713.368	3117.35
713.556	2963.75
713.744	2793.77
713.931	2771.24
714.119	2834.73
714.306	2894.12
714.494	2863.4
714.682	2844.97
714.869	2840.87
715.057	2906.41
715.244	2849.07
715.432	2857.26
715.619	2769.2
715.807	2791.72
715.994	2756.91
716.182	2713.9
716.369	2920.74
716.556	2986.28
716.744	2767.15
716.931	2826.54
717.119	2949.42
717.306	2996.52
717.493	2812.2
717.681	2869.55
717.868	2857.26
718.055	2771.24
718.242	2869.55
718.43	2875.69
718.617	2781.48
718.804	2914.6
718.991	2771.24
719.179	2844.97
719.366	2777.39
719.553	2916.65
719.74	2857.26
719.927	2816.3
720.114	2832.68
720.301	2861.35
720.488	2777.39
720.676	2863.4
720.863	2998.57
721.05	2849.07
721.237	2785.58
721.424	2867.5
721.611	2853.16
721.798	2816.3
721.985	2750.76
722.172	2734.38
722.358	2775.34
722.545	2732.33
722.732	2761
722.919	2867.5
723.106	2916.65
723.293	2709.8
723.48	2865.45
723.667	2816.3
723.853	2744.62
724.04	2808.11
724.227	2765.1
724.414	2744.62
724.6	2797.87
724.787	2658.6
724.974	2754.86
725.161	2861.35
725.347	2715.95
725.534	2855.21
725.72	2715.95
725.907	2863.4
726.094	2765.1
726.28	2752.81
726.467	2816.3
726.653	2660.65
726.84	2775.34
727.027	2842.92
727.213	2658.6
727.4	2787.63
727.586	2691.37
727.773	2883.88
727.959	2806.06
728.145	2797.87
728.332	2793.77
728.518	2795.82
728.705	2783.53
728.891	2677.04
729.077	2826.54
729.264	2648.36
729.45	2754.86
729.636	2865.45
729.823	2787.63
730.009	2793.77
730.195	2781.48
730.382	2720.04
730.568	2767.15
730.754	2771.24
730.94	2685.23
731.126	2795.82
731.313	2785.58
731.499	2644.27
731.685	2761
731.871	2734.38
732.057	2689.32
732.243	2801.96
732.429	2765.1
732.615	2885.93
732.801	2687.28
732.987	2740.52
733.173	2672.94
733.359	2697.52
733.545	2572.59
733.731	2785.58
733.917	2754.86
734.103	2861.35
734.289	2660.65
734.475	2621.74
734.661	2732.33
734.847	2689.32
735.033	2732.33
735.219	2752.81
735.404	2670.89
735.59	2773.29
735.776	2621.74
735.962	2734.38
736.148	2728.24
736.333	2656.56
736.519	2631.98
736.705	2693.42
736.89	2672.94
737.076	2652.46
737.262	2713.9
737.447	2556.21
737.633	2572.59
737.819	2666.8
738.004	2654.51
738.19	2683.18
738.375	2584.88
738.561	2660.65
738.747	2619.69
738.932	2593.07
739.118	2742.57
739.303	2642.22
739.489	2679.08
739.674	2529.58
739.859	2541.87
740.045	2683.18
740.23	2539.82
740.416	2595.12
740.601	2586.93
740.786	2584.88
740.972	2439.47
741.157	2593.07
741.342	2462
741.528	2548.01
741.713	2537.77
741.898	2511.15
742.084	2476.34
742.269	2418.99
742.454	2500.91
742.639	2558.25
742.824	2449.71
743.01	2455.86
743.195	2476.34
743.38	2453.81
743.565	2498.86
743.75	2511.15
743.935	2441.52
744.12	2414.9
744.305	2353.46
744.49	2371.89
744.675	2369.84
744.86	2396.46
745.045	2240.82
745.23	2371.89
745.415	2339.12
745.6	2378.03
745.785	2277.68
745.97	2232.63
746.155	2296.11
746.34	2306.35
746.525	2328.88
746.71	2343.22
746.895	2212.15
747.079	2224.44
747.264	2185.52
747.449	2142.52
747.634	2136.37
747.819	2226.48
748.003	2079.03
748.188	2259.25
748.373	2183.48
748.557	2253.11
748.742	2163
748.927	2146.61
749.111	2109.75
749.296	2044.21
749.481	2101.56
749.665	2015.54
749.85	1868.09
750.034	2011.45
750.219	2097.46
750.404	1915.19
750.588	2031.93
750.773	1972.54
750.957	1845.56
751.141	1911.1
751.326	1923.38
751.51	1954.1
751.695	1900.86
751.879	1902.9
752.064	1876.28
752.248	1825.08
752.432	1777.98
752.617	1917.24
752.801	1841.47
752.985	1784.12
753.17	1804.6
753.354	1749.31
753.538	1757.5
753.722	1845.56
753.907	1732.92
754.091	1718.59
754.275	1677.63
754.459	1784.12
754.643	1798.46
754.828	1694.01
755.012	1683.77
755.196	1696.06
755.38	1661.24
755.564	1653.05
755.748	1659.2
755.932	1653.05
756.116	1546.56
756.3	1550.65
756.484	1591.61
756.668	1669.44
756.852	1524.03
757.036	1507.65
757.22	1528.13
757.404	1603.9
757.588	1540.41
757.772	1601.85
757.956	1487.17
758.14	1485.12
758.323	1468.73
758.507	1444.16
758.691	1454.4
758.875	1452.35
759.059	1511.74
759.242	1376.58
759.426	1288.51
759.61	1485.12
759.794	1419.58
759.977	1456.45
760.161	1317.19
760.345	1317.19
760.528	1376.58
760.712	1372.48
760.895	1499.45
761.079	1368.38
761.263	1319.23
761.446	1268.03
761.63	1327.43
761.813	1397.06
761.997	1286.47
762.18	1292.61
762.364	1306.95
762.547	1241.41
762.731	1356.1
762.914	1354.05
763.098	1194.31
763.281	1243.46
763.464	1308.99
763.648	1345.86
763.831	1304.9
764.015	1216.83
764.198	1145.16
764.381	1235.27
764.564	1229.12
764.748	1263.94
764.931	1184.07
765.114	1167.68
765.297	1337.66
765.481	1237.31
765.664	1204.55
765.847	1134.92
766.03	1184.07
766.213	1141.06
766.397	1192.26
766.58	1153.35
766.763	1192.26
766.946	1136.96
767.129	1147.2
767.312	1149.25
767.495	1089.86
767.678	1126.72
767.861	1167.68
768.044	1093.96
768.227	1157.44
768.41	1132.87
768.593	1098.05
768.776	1110.34
768.959	1141.06
769.142	1085.76
769.324	1132.87
769.507	1104.2
769.69	999.75
769.873	1130.82
770.056	1216.83
770.239	979.27
770.421	1028.42
770.604	1050.95
770.787	1071.43
770.97	1018.18
771.152	1024.33
771.335	962.89
771.518	1048.9
771.7	1048.9
771.883	1044.81
772.066	1075.52
772.248	1001.8
772.431	938.31
772.613	991.56
772.796	930.12
772.978	999.75
773.161	979.27
773.343	868.68
773.526	1026.37
773.708	958.79
773.891	928.07
774.073	991.56
774.256	934.22
774.438	942.41
774.621	889.16
774.803	987.46
774.985	809.29
775.168	966.98
775.35	966.98
775.532	930.12
775.715	805.19
775.897	893.26
776.079	848.2
776.261	940.36
776.444	835.91
776.626	872.78
776.808	872.78
776.99	854.34
777.173	864.58
777.355	883.02
777.537	864.58
777.719	883.02
777.901	735.56
778.083	786.76
778.265	723.27
778.447	737.61
778.629	780.62
778.811	741.71
778.993	799.05
779.175	774.47
779.357	710.99
779.539	786.76
779.721	706.89
779.903	756.04
780.085	762.19
780.267	727.37
780.449	672.08
780.631	741.71
780.812	686.41
780.994	702.79
781.176	704.84
781.358	778.57
781.54	688.46
781.721	719.18
781.903	674.12
782.085	649.55
782.267	655.69
782.448	670.03
782.63	518.48
782.812	506.19
782.993	639.31
783.175	594.25
783.357	553.29
783.538	719.18
783.72	639.31
783.901	602.44
784.083	618.83
784.264	565.58
784.446	516.43
784.627	555.34
784.809	538.96
784.99	553.29
785.172	563.53
785.353	657.74
785.535	577.87
785.716	581.96
785.897	545.1
786.079	510.29
786.26	532.81
786.441	555.34
786.623	432.46
786.804	516.43
786.985	510.29
787.167	528.72
787.348	518.48
787.529	569.68
787.71	559.44
787.891	534.86
788.073	524.62
788.254	487.76
788.435	491.85
788.616	586.06
788.797	528.72
788.978	450.89
789.159	446.8
789.34	491.85
789.522	446.8
789.703	399.7
789.884	442.7
790.065	495.95
790.246	500.05
790.427	442.7
790.607	397.65
790.788	440.65
790.969	432.46
791.15	418.13
791.331	407.89
791.512	422.22
791.693	463.18
791.874	401.74
792.054	493.9
792.235	479.57
792.416	375.12
792.597	323.92
792.778	391.5
792.958	405.84
793.139	360.78
793.32	418.13
793.5	424.27
793.681	405.84
793.862	422.22
794.042	366.93
794.223	389.46
794.404	373.07
794.584	299.34
794.765	358.74
794.945	434.51
795.126	409.94
795.306	366.93
795.487	391.5
795.667	411.98
795.848	395.6
796.028	354.64
796.209	452.94
796.389	399.7
796.57	379.22
796.75	264.53
796.93	334.16
797.111	342.35
797.291	328.02
797.471	313.68
797.652	387.41
797.832	305.49
798.012	340.3
798.192	350.54
798.373	303.44
798.553	350.54
798.733	289.1
798.913	223.57
799.093	303.44
799.274	360.78
799.454	287.06
799.634	395.6
799.814	342.35
799.994	334.16
800.174	268.63
800.354	250.19
800.534	301.39
800.714	295.25
800.894	282.96
801.074	201.04
801.254	325.97
801.434	237.91
801.614	252.24
801.794	215.38
801.974	643.4
802.154	172.37
802.334	313.68
802.514	227.67
802.693	266.58
802.873	229.71
803.053	280.91
803.233	242
803.413	313.68
803.592	221.52
803.772	198.99
803.952	303.44
804.131	239.95
804.311	231.76
804.491	295.25
804.67	203.09
804.85	291.15
805.03	256.34
805.209	295.25
805.389	221.52
805.568	270.67
805.748	244.05
805.928	301.39
806.107	295.25
806.287	248.15
806.466	274.77
806.646	215.38
806.825	291.15
807.004	211.28
807.184	295.25
807.363	231.76
807.543	258.39
807.722	209.23
807.901	256.34
808.081	205.14
808.26	151.89
808.439	211.28
808.619	207.19
808.798	266.58
808.977	188.75
809.156	196.95
809.336	213.33
809.515	190.8
809.694	196.95
809.873	223.57
810.052	223.57
810.231	295.25
810.411	196.95
810.59	221.52
810.769	198.99
810.948	182.61
811.127	252.24
811.306	145.75
811.485	127.32
811.664	260.43
811.843	233.81
812.022	262.48
812.201	108.88
812.38	239.95
812.559	217.43
812.737	233.81
812.916	131.41
813.095	135.51
813.274	160.08
813.453	297.3
813.632	190.8
813.811	131.41
813.989	184.66
814.168	137.56
814.347	180.56
814.526	145.75
814.704	198.99
814.883	248.15
815.062	231.76
815.24	174.42
815.419	188.75
815.598	184.66
815.776	110.93
815.955	180.56
816.133	100.69
816.312	225.62
816.49	115.03
816.669	184.66
816.847	94.55
817.026	86.36
817.204	213.33
817.383	198.99
817.561	151.89
817.74	237.91
817.918	166.23
818.097	131.41
818.275	158.03
818.453	188.75
818.632	190.8
818.81	229.71
818.988	67.92
819.167	172.37
819.345	143.7
819.523	119.12
819.701	115.03
819.879	158.03
820.058	147.8
820.236	149.84
820.414	115.03
820.592	94.55
820.77	94.55
820.948	115.03
821.127	139.6
821.305	166.23
821.483	174.42
821.661	110.93
821.839	76.12
822.017	112.98
822.195	135.51
822.373	180.56
822.551	194.9
822.729	117.08
822.907	117.08
823.085	182.61
823.262	96.6
823.44	170.32
823.618	110.93
823.796	149.84
823.974	57.68
824.152	115.03
824.329	262.48
824.507	119.12
824.685	90.45
824.863	63.83
825.04	96.6
825.218	164.18
825.396	158.03
825.574	170.32
825.751	104.79
825.929	127.32
826.107	90.45
826.284	112.98
826.462	184.66
826.639	94.55
826.817	84.31
826.994	49.49
827.172	151.89
827.349	106.84
827.527	108.88
827.704	59.73
827.882	125.27
828.059	131.41
828.237	98.64
828.414	53.59
828.591	59.73
828.769	135.51
828.946	43.35
829.124	168.27
829.301	78.16
829.478	74.07
829.655	168.27
829.833	84.31
830.01	129.36
830.187	67.92
830.364	63.83
830.542	143.7
830.719	78.16
830.896	59.73
831.073	149.84
831.25	100.69
831.427	137.56
831.604	90.45
831.782	72.02
831.959	72.02
832.136	76.12
832.313	153.94
832.49	45.4
832.667	53.59
832.844	135.51
833.021	53.59
833.198	49.49
833.374	117.08
833.551	90.45
833.728	63.83
833.905	82.26
834.082	94.55
834.259	78.16
834.436	43.35
834.612	86.36
834.789	117.08
834.966	110.93
835.143	112.98
835.319	72.02
835.496	72.02
835.673	67.92
835.85	61.78
836.026	47.44
836.203	4.44
836.38	86.36
836.556	127.32
836.733	129.36
836.909	196.95
837.086	94.55
837.262	61.78
837.439	104.79
837.616	45.4
837.792	127.32
837.968	108.88
838.145	37.2
838.321	49.49
838.498	26.96
838.674	135.51
838.851	53.59
839.027	57.68
839.203	88.4
839.38	90.45
839.556	43.35
839.732	125.27
839.909	65.88
840.085	74.07
840.261	59.73
840.437	-20.14
840.614	78.16
840.79	139.6
840.966	39.25
841.142	-28.33
841.318	0.34
841.494	16.73
841.671	16.73
841.847	86.36
842.023	82.26
842.199	41.3
842.375	84.31
842.551	-24.23
842.727	65.88
842.903	55.64
843.079	41.3
843.255	127.32
843.431	59.73
843.607	33.11
843.783	-9.9
843.959	72.02
844.134	49.49
844.31	55.64
844.486	31.06
844.662	37.2
844.838	102.74
845.013	117.08
845.189	-20.14
845.365	22.87
845.541	29.01
845.716	108.88
845.892	76.12
846.068	26.96
846.244	47.44
846.419	10.58
846.595	51.54
846.77	41.3
846.946	88.4
847.122	53.59
847.297	67.92
847.473	139.6
847.648	69.97
847.824	65.88
847.999	94.55
848.175	-26.28
848.35	117.08
848.526	47.44
848.701	76.12
848.876	61.78
849.052	76.12
849.227	-11.95
849.403	8.53
849.578	16.73
849.753	41.3
849.929	26.96
850.104	31.06
850.279	16.73
850.454	33.11
850.63	-63.15
850.805	49.49
850.98	-5.8
851.155	94.55
851.33	88.4
851.505	-3.75
851.681	33.11
851.856	67.92
852.031	4.44
852.206	78.16
852.381	-32.43
852.556	61.78
852.731	78.16
852.906	31.06
853.081	51.54
853.256	37.2
853.431	102.74
853.606	65.88
853.781	-32.43
853.956	0.34
854.131	76.12
854.305	59.73
854.48	20.82
854.655	74.07
854.83	65.88
855.005	0.34
855.18	47.44
855.354	18.77
855.529	45.4
855.704	29.01
855.879	102.74
856.053	129.36
856.228	-24.23
856.403	33.11
856.577	55.64
856.752	45.4
856.926	67.92
857.101	-3.75
857.276	-40.62
857.45	2.39
857.625	24.92
857.799	4.44
857.974	-11.95
858.148	-5.8
858.323	41.3
858.497	12.63
858.672	-11.95
858.846	125.27
859.02	12.63
859.195	-36.52
859.369	74.07
859.543	-16.04
859.718	37.2
859.892	29.01
860.066	41.3
860.241	37.2
860.415	72.02
860.589	26.96
860.763	-16.04
860.938	33.11
861.112	96.6
861.286	59.73
861.46	-24.23
861.634	0.34
861.808	-26.28
861.982	2.39
862.157	49.49
862.331	39.25
862.505	0.34
862.679	-3.75
862.853	39.25
863.027	45.4
863.201	59.73
863.375	110.93
863.549	26.96
863.722	14.68
863.896	82.26
864.07	29.01
864.244	35.16
864.418	43.35
864.592	47.44
864.766	-46.76
864.939	61.78
865.113	10.58
865.287	47.44
865.461	37.2
865.634	57.68
865.808	4.44
865.982	92.5
866.156	-44.71
866.329	76.12
866.503	12.63
866.676	80.21
866.85	35.16
867.024	37.2
867.197	90.45
867.371	82.26
867.544	76.12
867.718	0.34
867.891	51.54
868.065	8.53
868.238	37.2
868.412	63.83
868.585	78.16
868.759	-7.85
868.932	29.01
869.105	63.83
869.279	-26.28
869.452	22.87
869.625	-1.71
869.799	72.02
869.972	-7.85
870.145	57.68
870.319	67.92
870.492	33.11
870.665	39.25
870.838	-7.85
871.011	-54.95
871.185	26.96
871.358	67.92
871.531	4.44
871.704	12.63
871.877	-3.75
872.05	55.64
872.223	47.44
872.396	76.12
872.569	0.34
872.742	18.77
872.915	10.58
873.088	33.11
873.261	45.4
873.434	45.4
873.607	39.25
873.78	57.68
873.953	-36.52
874.126	20.82
874.299	35.16
874.471	37.2
874.644	20.82
874.817	10.58
874.99	-18.09
875.163	-9.9
875.335	-20.14
875.508	4.44
875.681	92.5
875.853	33.11
876.026	14.68
876.199	-34.47
876.371	76.12
876.544	-22.19
876.717	-30.38
876.889	78.16
877.062	82.26
877.234	-61.1
877.407	20.82
877.579	-26.28
877.752	37.2
877.924	-3.75
878.097	-1.71
878.269	39.25
878.442	18.77
878.614	-69.29
878.786	-18.09
878.959	-73.39
879.131	47.44
879.303	-28.33
879.476	31.06
879.648	35.16
879.82	31.06
879.993	65.88
880.165	39.25
880.337	0.34
880.509	-57
880.681	-13.99
880.854	-5.8
881.026	-9.9
881.198	59.73
881.37	45.4
881.542	-16.04
881.714	-20.14
881.886	20.82
882.058	18.77
882.23	-59.05
882.402	39.25
882.574	-7.85
882.746	-69.29
882.918	39.25
883.09	-24.23
883.262	0.34
883.434	14.68
883.606	88.4
883.778	37.2
883.95	16.73
884.122	-40.62
884.293	0.34
884.465	26.96
884.637	4.44
884.809	6.49
884.98	-7.85
885.152	-30.38
885.324	31.06
885.496	-28.33
885.667	-36.52
885.839	26.96
886.011	82.26
886.182	37.2
886.354	49.49
886.525	-65.19
886.697	20.82
886.869	14.68
887.04	26.96
887.212	59.73
887.383	31.06
887.555	18.77
887.726	22.87
887.897	-3.75
888.069	-3.75
888.24	57.68
888.412	18.77
888.583	4.44
888.754	-3.75
888.926	16.73
889.097	-36.52
889.268	-59.05
889.44	72.02
889.611	67.92
889.782	-36.52
889.953	-83.63
890.125	-22.19
890.296	12.63
890.467	-13.99
890.638	-50.86
890.809	14.68
890.98	-32.43
891.151	115.03
891.323	29.01
891.494	18.77
891.665	82.26
891.836	72.02
892.007	29.01
892.178	8.53
892.349	-11.95
892.52	29.01
892.691	59.73
892.862	69.97
893.032	-77.48
893.203	6.49
893.374	-73.39
893.545	-16.04
893.716	4.44
893.887	14.68
894.057	-22.19
894.228	10.58
894.399	-9.9
894.57	-9.9
894.74	-28.33
894.911	16.73
895.082	-3.75
895.253	-20.14
895.423	-36.52
895.594	82.26
895.764	41.3
895.935	-24.23
896.106	2.39
896.276	24.92
896.447	18.77
896.617	-11.95
896.788	22.87
896.958	63.83
897.129	2.39
897.299	-16.04
897.47	-1.71
897.64	47.44
897.81	14.68
897.981	35.16
898.151	69.97
898.322	24.92
898.492	43.35
898.662	-40.62
898.832	-42.67
899.003	37.2
899.173	-5.8
899.343	-36.52
899.513	-59.05
