Data from USB4F104151__40__11-05-24-130.txt Node

Date: Wed Mar 12 11:05:24 EDT 2025
User: louis
Spectrometer: USB4F10415
Trigger mode: 4
Integration Time (sec): 2.000000E-2
Scans to average: 1
Electric dark correction enabled: true
Nonlinearity correction enabled: false
Boxcar width: 0
XAxis mode: Wavelengths
Number of Pixels in Spectrum: 3648
>>>>>Begin Spectral Data<<<<<
178.204	-65.19
178.424	-65.19
178.644	-65.19
178.864	-20.14
179.084	-24.23
179.304	-26.28
179.524	-16.04
179.744	-46.76
179.964	41.3
180.184	-13.99
180.404	22.87
180.624	47.44
180.844	47.44
181.064	-110.25
181.283	59.73
181.503	-22.19
181.723	16.73
181.943	26.96
182.163	31.06
182.383	-42.67
182.602	37.2
182.822	-36.52
183.042	49.49
183.262	-7.85
183.482	110.93
183.701	49.49
183.921	12.63
184.141	59.73
184.361	96.6
184.58	4.44
184.8	47.44
185.02	94.55
185.239	80.21
185.459	35.16
185.679	43.35
185.898	76.12
186.118	63.83
186.338	96.6
186.557	53.59
186.777	-1.71
186.997	24.92
187.216	8.53
187.436	135.51
187.655	43.35
187.875	18.77
188.095	76.12
188.314	-5.8
188.534	102.74
188.753	18.77
188.973	117.08
189.192	76.12
189.412	61.78
189.631	8.53
189.851	-13.99
190.07	106.84
190.29	22.87
190.509	90.45
190.729	29.01
190.948	63.83
191.168	155.99
191.387	18.77
191.607	33.11
191.826	39.25
192.045	-26.28
192.265	-1.71
192.484	63.83
192.704	35.16
192.923	6.49
193.142	88.4
193.362	-1.71
193.581	47.44
193.8	12.63
194.02	24.92
194.239	16.73
194.458	39.25
194.678	-22.19
194.897	-18.09
195.116	55.64
195.335	51.54
195.555	43.35
195.774	117.08
195.993	53.59
196.212	-28.33
196.432	61.78
196.651	-30.38
196.87	29.01
197.089	29.01
197.308	22.87
197.528	-11.95
197.747	-9.9
197.966	53.59
198.185	139.6
198.404	-7.85
198.623	35.16
198.842	12.63
199.062	43.35
199.281	41.3
199.5	86.36
199.719	37.2
199.938	80.21
200.157	69.97
200.376	-1.71
200.595	33.11
200.814	35.16
201.033	131.41
201.252	94.55
201.471	-3.75
201.69	35.16
201.909	61.78
202.128	37.2
202.347	164.18
202.566	10.58
202.785	82.26
203.004	10.58
203.223	117.08
203.442	45.4
203.661	-24.23
203.879	29.01
204.098	49.49
204.317	4.44
204.536	41.3
204.755	2.39
204.974	57.68
205.193	4.44
205.411	53.59
205.63	12.63
205.849	78.16
206.068	69.97
206.287	82.26
206.505	-30.38
206.724	-50.86
206.943	-36.52
207.162	61.78
207.381	88.4
207.599	65.88
207.818	74.07
208.037	61.78
208.255	47.44
208.474	45.4
208.693	43.35
208.911	65.88
209.13	26.96
209.349	90.45
209.567	49.49
209.786	-9.9
210.005	20.82
210.223	100.69
210.442	-7.85
210.661	37.2
210.879	45.4
211.098	10.58
211.316	53.59
211.535	12.63
211.753	18.77
211.972	26.96
212.191	14.68
212.409	119.12
212.628	-7.85
212.846	22.87
213.065	90.45
213.283	63.83
213.502	-1.71
213.72	33.11
213.938	2.39
214.157	6.49
214.375	65.88
214.594	45.4
214.812	92.5
215.031	-13.99
215.249	86.36
215.467	82.26
215.686	39.25
215.904	16.73
216.122	47.44
216.341	104.79
216.559	37.2
216.778	59.73
216.996	127.32
217.214	-22.19
217.432	26.96
217.651	14.68
217.869	26.96
218.087	26.96
218.306	37.2
218.524	108.88
218.742	-9.9
218.96	90.45
219.179	29.01
219.397	-11.95
219.615	86.36
219.833	160.08
220.051	63.83
220.27	-7.85
220.488	49.49
220.706	49.49
220.924	49.49
221.142	65.88
221.36	37.2
221.578	-22.19
221.796	12.63
222.015	65.88
222.233	-13.99
222.451	12.63
222.669	-20.14
222.887	6.49
223.105	-3.75
223.323	88.4
223.541	69.97
223.759	26.96
223.977	-34.47
224.195	59.73
224.413	37.2
224.631	35.16
224.849	74.07
225.067	94.55
225.285	-18.09
225.503	-30.38
225.721	2.39
225.939	82.26
226.157	35.16
226.375	90.45
226.592	31.06
226.81	67.92
227.028	65.88
227.246	29.01
227.464	43.35
227.682	51.54
227.9	59.73
228.117	98.64
228.335	90.45
228.553	59.73
228.771	57.68
228.989	-9.9
229.206	74.07
229.424	16.73
229.642	33.11
229.86	29.01
230.077	14.68
230.295	-9.9
230.513	47.44
230.731	143.7
230.948	33.11
231.166	61.78
231.384	-7.85
231.601	35.16
231.819	-48.81
232.037	-38.57
232.254	12.63
232.472	43.35
232.689	65.88
232.907	106.84
233.125	4.44
233.342	61.78
233.56	-24.23
233.777	100.69
233.995	26.96
234.213	18.77
234.43	63.83
234.648	29.01
234.865	8.53
235.083	80.21
235.3	110.93
235.518	61.78
235.735	176.47
235.953	35.16
236.17	78.16
236.388	20.82
236.605	4.44
236.822	33.11
237.04	88.4
237.257	33.11
237.475	-18.09
237.692	12.63
237.909	76.12
238.127	112.98
238.344	57.68
238.562	45.4
238.779	-11.95
238.996	16.73
239.214	29.01
239.431	-16.04
239.648	26.96
239.865	22.87
240.083	-5.8
240.3	102.74
240.517	33.11
240.735	53.59
240.952	14.68
241.169	98.64
241.386	8.53
241.603	24.92
241.821	47.44
242.038	74.07
242.255	20.82
242.472	57.68
242.689	33.11
242.907	119.12
243.124	-38.57
243.341	76.12
243.558	-5.8
243.775	33.11
243.992	-24.23
244.209	72.02
244.426	43.35
244.643	63.83
244.86	59.73
245.078	43.35
245.295	53.59
245.512	55.64
245.729	-3.75
245.946	69.97
246.163	26.96
246.38	104.79
246.597	31.06
246.814	84.31
247.031	69.97
247.248	74.07
247.464	69.97
247.681	39.25
247.898	2.39
248.115	37.2
248.332	-26.28
248.549	43.35
248.766	26.96
248.983	14.68
249.2	29.01
249.417	104.79
249.633	39.25
249.85	29.01
250.067	16.73
250.284	96.6
250.501	14.68
250.717	0.34
250.934	33.11
251.151	110.93
251.368	57.68
251.585	18.77
251.801	-57
252.018	49.49
252.235	37.2
252.451	59.73
252.668	8.53
252.885	69.97
253.102	47.44
253.318	10.58
253.535	22.87
253.752	49.49
253.968	76.12
254.185	26.96
254.401	51.54
254.618	35.16
254.835	47.44
255.051	31.06
255.268	37.2
255.484	22.87
255.701	39.25
255.917	65.88
256.134	51.54
256.351	45.4
256.567	-40.62
256.784	-22.19
257	53.59
257.217	18.77
257.433	2.39
257.65	61.78
257.866	0.34
258.082	29.01
258.299	72.02
258.515	31.06
258.732	59.73
258.948	-3.75
259.165	59.73
259.381	26.96
259.597	20.82
259.814	55.64
260.03	26.96
260.246	45.4
260.463	131.41
260.679	67.92
260.895	61.78
261.112	78.16
261.328	59.73
261.544	41.3
261.761	47.44
261.977	86.36
262.193	4.44
262.409	86.36
262.626	47.44
262.842	-13.99
263.058	104.79
263.274	37.2
263.49	57.68
263.707	55.64
263.923	63.83
264.139	72.02
264.355	47.44
264.571	43.35
264.787	106.84
265.004	76.12
265.22	39.25
265.436	-44.71
265.652	26.96
265.868	51.54
266.084	10.58
266.3	57.68
266.516	24.92
266.732	6.49
266.948	74.07
267.164	74.07
267.38	86.36
267.596	74.07
267.812	39.25
268.028	74.07
268.244	104.79
268.46	153.94
268.676	-3.75
268.892	80.21
269.108	-50.86
269.324	59.73
269.54	-5.8
269.756	20.82
269.972	72.02
270.188	22.87
270.403	78.16
270.619	41.3
270.835	94.55
271.051	39.25
271.267	35.16
271.483	94.55
271.698	12.63
271.914	72.02
272.13	26.96
272.346	0.34
272.562	35.16
272.777	22.87
272.993	22.87
273.209	57.68
273.425	-16.04
273.64	24.92
273.856	39.25
274.072	-36.52
274.287	-18.09
274.503	-1.71
274.719	-9.9
274.934	-16.04
275.15	57.68
275.366	74.07
275.581	8.53
275.797	69.97
276.012	22.87
276.228	39.25
276.444	-7.85
276.659	98.64
276.875	-13.99
277.09	37.2
277.306	45.4
277.521	76.12
277.737	29.01
277.952	69.97
278.168	-11.95
278.383	4.44
278.599	43.35
278.814	31.06
279.03	45.4
279.245	94.55
279.461	35.16
279.676	94.55
279.892	-20.14
280.107	6.49
280.322	37.2
280.538	61.78
280.753	8.53
280.969	53.59
281.184	16.73
281.399	61.78
281.615	63.83
281.83	53.59
282.045	74.07
282.26	20.82
282.476	6.49
282.691	-26.28
282.906	20.82
283.122	-13.99
283.337	16.73
283.552	112.98
283.767	8.53
283.983	67.92
284.198	67.92
284.413	-18.09
284.628	8.53
284.843	12.63
285.058	78.16
285.274	49.49
285.489	80.21
285.704	16.73
285.919	49.49
286.134	96.6
286.349	69.97
286.564	59.73
286.779	112.98
286.995	65.88
287.21	20.82
287.425	-3.75
287.64	-20.14
287.855	20.82
288.07	51.54
288.285	102.74
288.5	31.06
288.715	72.02
288.93	20.82
289.145	22.87
289.36	74.07
289.575	8.53
289.79	76.12
290.004	47.44
290.219	43.35
290.434	18.77
290.649	-1.71
290.864	53.59
291.079	92.5
291.294	55.64
291.509	123.22
291.724	69.97
291.938	41.3
292.153	37.2
292.368	20.82
292.583	29.01
292.798	10.58
293.012	41.3
293.227	18.77
293.442	65.88
293.657	16.73
293.871	22.87
294.086	43.35
294.301	20.82
294.516	29.01
294.73	72.02
294.945	53.59
295.16	43.35
295.374	84.31
295.589	33.11
295.804	29.01
296.018	84.31
296.233	82.26
296.447	-1.71
296.662	65.88
296.877	57.68
297.091	127.32
297.306	65.88
297.52	57.68
297.735	84.31
297.949	65.88
298.164	82.26
298.378	88.4
298.593	29.01
298.807	61.78
299.022	119.12
299.236	72.02
299.451	18.77
299.665	67.92
299.88	31.06
300.094	0.34
300.309	55.64
300.523	26.96
300.737	45.4
300.952	119.12
301.166	37.2
301.381	-9.9
301.595	96.6
301.809	-13.99
302.024	69.97
302.238	10.58
302.452	86.36
302.667	47.44
302.881	88.4
303.095	90.45
303.309	82.26
303.524	24.92
303.738	94.55
303.952	22.87
304.166	59.73
304.381	24.92
304.595	43.35
304.809	24.92
305.023	108.88
305.237	4.44
305.452	14.68
305.666	12.63
305.88	127.32
306.094	59.73
306.308	39.25
306.522	-5.8
306.736	53.59
306.95	45.4
307.164	67.92
307.379	65.88
307.593	59.73
307.807	61.78
308.021	82.26
308.235	61.78
308.449	61.78
308.663	55.64
308.877	43.35
309.091	-30.38
309.305	43.35
309.519	22.87
309.733	59.73
309.947	-7.85
310.161	49.49
310.374	84.31
310.588	29.01
310.802	22.87
311.016	51.54
311.23	53.59
311.444	26.96
311.658	78.16
311.872	59.73
312.085	31.06
312.299	45.4
312.513	4.44
312.727	53.59
312.941	110.93
313.154	37.2
313.368	-3.75
313.582	47.44
313.796	-3.75
314.009	94.55
314.223	24.92
314.437	72.02
314.651	106.84
314.864	106.84
315.078	43.35
315.292	45.4
315.505	20.82
315.719	37.2
315.933	31.06
316.146	29.01
316.36	18.77
316.573	-16.04
316.787	88.4
317.001	61.78
317.214	59.73
317.428	78.16
317.641	53.59
317.855	63.83
318.068	22.87
318.282	41.3
318.495	115.03
318.709	51.54
318.922	106.84
319.136	84.31
319.349	33.11
319.563	74.07
319.776	55.64
319.99	-3.75
320.203	18.77
320.417	61.78
320.63	63.83
320.843	88.4
321.057	72.02
321.27	106.84
321.483	94.55
321.697	108.88
321.91	51.54
322.124	20.82
322.337	78.16
322.55	53.59
322.763	18.77
322.977	78.16
323.19	61.78
323.403	139.6
323.617	39.25
323.83	74.07
324.043	51.54
324.256	39.25
324.469	74.07
324.683	86.36
324.896	88.4
325.109	-11.95
325.322	-79.53
325.535	43.35
325.748	123.22
325.962	47.44
326.175	41.3
326.388	112.98
326.601	31.06
326.814	86.36
327.027	-11.95
327.24	55.64
327.453	22.87
327.666	26.96
327.879	57.68
328.092	53.59
328.305	16.73
328.518	47.44
328.731	-3.75
328.944	-5.8
329.157	61.78
329.37	37.2
329.583	26.96
329.796	24.92
330.009	61.78
330.222	49.49
330.435	76.12
330.648	14.68
330.861	29.01
331.073	12.63
331.286	-16.04
331.499	61.78
331.712	96.6
331.925	12.63
332.138	106.84
332.35	127.32
332.563	88.4
332.776	69.97
332.989	-22.19
333.202	10.58
333.414	45.4
333.627	67.92
333.84	69.97
334.053	63.83
334.265	8.53
334.478	22.87
334.691	12.63
334.903	63.83
335.116	39.25
335.329	4.44
335.541	55.64
335.754	94.55
335.966	69.97
336.179	33.11
336.392	24.92
336.604	82.26
336.817	67.92
337.029	94.55
337.242	49.49
337.454	67.92
337.667	37.2
337.88	57.68
338.092	76.12
338.305	86.36
338.517	31.06
338.729	45.4
338.942	29.01
339.154	8.53
339.367	-32.43
339.579	96.6
339.792	-18.09
340.004	49.49
340.217	37.2
340.429	24.92
340.641	57.68
340.854	24.92
341.066	133.46
341.278	10.58
341.491	76.12
341.703	106.84
341.915	80.21
342.128	80.21
342.34	16.73
342.552	90.45
342.764	80.21
342.977	80.21
343.189	45.4
343.401	49.49
343.613	63.83
343.826	123.22
344.038	29.01
344.25	92.5
344.462	61.78
344.674	86.36
344.886	65.88
345.099	20.82
345.311	49.49
345.523	86.36
345.735	41.3
345.947	65.88
346.159	53.59
346.371	51.54
346.583	61.78
346.795	20.82
347.007	90.45
347.219	119.12
347.431	80.21
347.643	110.93
347.855	39.25
348.067	74.07
348.279	-13.99
348.491	10.58
348.703	108.88
348.915	33.11
349.127	102.74
349.339	94.55
349.551	59.73
349.763	49.49
349.975	47.44
350.187	20.82
350.399	8.53
350.61	115.03
350.822	20.82
351.034	67.92
351.246	43.35
351.458	115.03
351.669	92.5
351.881	102.74
352.093	168.27
352.305	35.16
352.517	49.49
352.728	141.65
352.94	26.96
353.152	78.16
353.363	31.06
353.575	69.97
353.787	-28.33
353.999	151.89
354.21	119.12
354.422	102.74
354.633	72.02
354.845	-3.75
355.057	26.96
355.268	135.51
355.48	67.92
355.692	37.2
355.903	55.64
356.115	10.58
356.326	26.96
356.538	86.36
356.749	2.39
356.961	72.02
357.172	84.31
357.384	61.78
357.595	76.12
357.807	57.68
358.018	45.4
358.23	98.64
358.441	69.97
358.653	90.45
358.864	31.06
359.075	33.11
359.287	31.06
359.498	141.65
359.709	22.87
359.921	98.64
360.132	65.88
360.344	69.97
360.555	-13.99
360.766	10.58
360.977	61.78
361.189	-3.75
361.4	-42.67
361.611	39.25
361.823	-13.99
362.034	37.2
362.245	82.26
362.456	80.21
362.667	86.36
362.879	53.59
363.09	74.07
363.301	33.11
363.512	112.98
363.723	22.87
363.935	74.07
364.146	84.31
364.357	72.02
364.568	78.16
364.779	10.58
364.99	61.78
365.201	12.63
365.412	90.45
365.623	59.73
365.834	35.16
366.045	-11.95
366.256	98.64
366.467	20.82
366.678	33.11
366.889	63.83
367.1	55.64
367.311	69.97
367.522	12.63
367.733	69.97
367.944	69.97
368.155	145.75
368.366	76.12
368.577	61.78
368.788	37.2
368.999	90.45
369.209	49.49
369.42	47.44
369.631	166.23
369.842	151.89
370.053	65.88
370.264	41.3
370.474	26.96
370.685	61.78
370.896	49.49
371.107	12.63
371.317	94.55
371.528	139.6
371.739	92.5
371.95	65.88
372.16	141.65
372.371	-5.8
372.582	59.73
372.792	74.07
373.003	37.2
373.214	26.96
373.424	39.25
373.635	127.32
373.846	69.97
374.056	41.3
374.267	72.02
374.477	94.55
374.688	43.35
374.898	61.78
375.109	43.35
375.319	16.73
375.53	65.88
375.74	108.88
375.951	51.54
376.161	10.58
376.372	41.3
376.582	131.41
376.793	100.69
377.003	59.73
377.214	49.49
377.424	55.64
377.635	86.36
377.845	26.96
378.055	117.08
378.266	80.21
378.476	53.59
378.686	98.64
378.897	88.4
379.107	-16.04
379.317	33.11
379.528	110.93
379.738	69.97
379.948	31.06
380.158	26.96
380.369	49.49
380.579	74.07
380.789	18.77
380.999	117.08
381.21	0.34
381.42	92.5
381.63	49.49
381.84	61.78
382.05	35.16
382.261	80.21
382.471	43.35
382.681	22.87
382.891	59.73
383.101	45.4
383.311	-22.19
383.521	72.02
383.731	74.07
383.941	45.4
384.151	26.96
384.361	65.88
384.571	4.44
384.781	88.4
384.991	94.55
385.201	80.21
385.411	80.21
385.621	57.68
385.831	55.64
386.041	106.84
386.251	53.59
386.461	33.11
386.671	65.88
386.881	131.41
387.091	67.92
387.301	20.82
387.511	47.44
387.72	74.07
387.93	74.07
388.14	63.83
388.35	69.97
388.56	117.08
388.769	57.68
388.979	82.26
389.189	-26.28
389.399	92.5
389.609	69.97
389.818	123.22
390.028	63.83
390.238	86.36
390.447	12.63
390.657	117.08
390.867	41.3
391.076	63.83
391.286	125.27
391.496	110.93
391.705	133.46
391.915	53.59
392.125	106.84
392.334	24.92
392.544	72.02
392.753	76.12
392.963	41.3
393.172	82.26
393.382	57.68
393.591	117.08
393.801	102.74
394.01	76.12
394.22	92.5
394.429	151.89
394.639	61.78
394.848	78.16
395.058	90.45
395.267	147.8
395.477	26.96
395.686	96.6
395.895	90.45
396.105	153.94
396.314	112.98
396.524	151.89
396.733	29.01
396.942	51.54
397.152	94.55
397.361	67.92
397.57	110.93
397.78	61.78
397.989	129.36
398.198	139.6
398.407	160.08
398.617	129.36
398.826	106.84
399.035	102.74
399.244	94.55
399.453	125.27
399.663	98.64
399.872	188.75
400.081	92.5
400.29	143.7
400.499	98.64
400.708	92.5
400.917	49.49
401.127	127.32
401.336	160.08
401.545	215.38
401.754	184.66
401.963	72.02
402.172	53.59
402.381	141.65
402.59	117.08
402.799	57.68
403.008	149.84
403.217	117.08
403.426	102.74
403.635	82.26
403.844	135.51
404.053	139.6
404.262	158.03
404.471	127.32
404.68	137.56
404.888	201.04
405.097	92.5
405.306	139.6
405.515	237.91
405.724	139.6
405.933	117.08
406.142	186.71
406.35	176.47
406.559	209.23
406.768	176.47
406.977	225.62
407.185	168.27
407.394	182.61
407.603	207.19
407.812	217.43
408.02	180.56
408.229	260.43
408.438	237.91
408.646	176.47
408.855	196.95
409.064	254.29
409.272	242
409.481	309.58
409.69	272.72
409.898	278.87
410.107	287.06
410.315	282.96
410.524	260.43
410.733	328.02
410.941	328.02
411.15	340.3
411.358	297.3
411.567	328.02
411.775	420.17
411.984	360.78
412.192	334.16
412.401	336.21
412.609	502.09
412.818	434.51
413.026	479.57
413.234	477.52
413.443	411.98
413.651	434.51
413.86	569.68
414.068	504.14
414.276	594.25
414.485	682.31
414.693	584.01
414.901	723.27
415.11	655.69
415.318	651.6
415.526	700.75
415.734	715.08
415.943	680.27
416.151	770.38
416.359	753.99
416.567	799.05
416.776	782.67
416.984	856.39
417.192	848.2
417.4	907.59
417.608	930.12
417.817	909.64
418.025	1030.47
418.233	1128.77
418.441	1001.8
418.649	1110.34
418.857	1173.83
419.065	1233.22
419.273	1184.07
419.481	1268.03
419.689	1245.51
419.897	1386.82
420.105	1380.67
420.313	1405.25
420.521	1497.41
420.729	1458.5
420.937	1618.24
421.145	1669.44
421.353	1642.81
421.561	1734.97
421.769	1794.36
421.977	1952.06
422.185	1790.27
422.393	1923.38
422.601	1982.78
422.809	2046.26
423.017	2134.32
423.224	2206
423.432	2324.79
423.64	2283.83
423.848	2466.1
424.056	2337.07
424.263	2494.77
424.471	2685.23
424.679	2552.11
424.887	2789.67
425.094	2736.43
425.302	2918.7
425.51	2867.5
425.718	2988.33
425.925	3152.17
426.133	3109.16
426.341	3416.35
426.548	3549.47
426.756	3567.9
426.964	3711.26
427.171	3707.16
427.379	3748.12
427.586	3940.63
427.794	4055.32
428.001	4301.08
428.209	4528.4
428.417	4432.15
428.624	4749.58
428.832	4788.49
429.039	4751.63
429.247	4628.75
429.454	5210.37
429.662	5464.32
429.869	5046.54
430.076	5396.74
430.284	5552.38
430.491	5595.39
430.699	5912.83
430.906	5863.68
431.114	5980.41
431.321	6283.51
431.528	6453.49
431.736	6746.35
431.943	7020.78
432.15	6811.89
432.358	6992.11
432.565	7344.36
432.772	7088.36
432.979	7758.05
433.187	7942.36
433.394	7915.74
433.601	8210.65
433.808	8397.01
434.016	8376.53
434.223	8675.54
434.43	9138.38
434.637	9066.7
434.844	9599.17
435.052	9711.81
435.259	9642.18
435.466	9711.81
435.673	9658.56
435.88	10305.72
436.087	10938.54
436.294	10950.83
436.501	10660.02
436.708	10754.23
436.915	11126.96
437.122	11649.19
437.329	11763.87
437.537	12093.6
437.743	12099.74
437.95	11919.52
438.157	12892.3
438.364	13330.57
438.571	13228.17
438.778	13201.55
438.985	14557.3
439.192	13774.98
439.399	14415.99
439.606	13779.08
439.813	14866.55
440.02	15825
440.227	15321.2
440.433	15116.4
440.64	15814.76
440.847	15685.73
441.054	16130.14
441.261	17186.9
441.467	16818.26
441.674	17328.2
441.881	17922.12
442.088	17770.57
442.294	17748.04
442.501	18266.17
442.708	18505.79
442.914	19257.39
443.121	20015.14
443.328	19705.9
443.534	20832.28
443.741	20432.93
443.948	20019.24
444.154	21413.9
444.361	21184.53
444.568	21491.73
444.774	21493.77
444.981	22138.88
445.187	22388.74
445.394	23324.66
445.6	23128.05
445.807	25360.34
446.013	24348.64
446.22	24657.89
446.426	25579.47
446.633	26017.74
446.839	26812.35
447.046	25391.06
447.252	27121.59
447.459	27031.48
447.665	26800.06
447.871	28161.96
448.078	29339.54
448.284	27727.79
448.491	28413.86
448.697	29386.64
448.903	30523.27
449.11	30105.48
449.316	29521.81
449.522	30056.33
449.728	31139.71
449.935	31094.65
450.141	31332.22
450.347	31958.89
450.553	30996.35
450.76	31340.41
450.966	32266.09
451.172	31938.41
451.378	32589.67
451.584	31754.1
451.791	32624.48
451.997	32380.78
452.203	33462.1
452.409	33226.59
452.615	32931.68
452.821	31881.07
453.027	31475.57
453.233	32843.62
453.44	31336.31
453.646	31823.73
453.852	31715.19
454.058	32659.3
454.264	31131.51
454.47	31930.22
454.676	31258.49
454.882	32169.83
455.088	29587.35
455.294	30095.24
455.5	30193.54
455.705	30492.55
455.911	29208.47
456.117	28811.17
456.323	28352.42
456.529	26675.13
456.735	27969.45
456.941	27105.21
457.147	26697.66
457.352	25851.85
457.558	25581.52
457.764	25591.76
457.97	24930.26
458.176	24584.16
458.381	24545.25
458.587	23246.83
458.793	23111.67
458.999	21786.63
459.204	23517.17
459.41	22978.55
459.616	21973
459.821	21712.91
460.027	21288.98
460.233	20901.91
460.438	19652.65
460.644	20111.39
460.85	19200.05
461.055	18921.52
461.261	18769.97
461.466	17569.87
461.672	16912.47
461.878	18155.58
462.083	16945.23
462.289	16558.17
462.494	16439.39
462.7	16072.8
462.905	15220.85
463.111	15894.63
463.316	16048.22
463.522	15716.45
463.727	15790.18
463.932	15741.03
464.138	15456.36
464.343	15360.11
464.549	14854.26
464.754	15396.97
464.959	15306.86
465.165	15370.35
465.37	14862.45
465.575	14262.4
465.781	14741.62
465.986	14889.07
466.191	14366.84
466.397	14258.3
466.602	13529.22
466.807	14010.5
467.012	13944.96
467.218	14049.41
467.423	13525.13
467.628	13906.05
467.833	14336.12
468.038	13789.31
468.244	13605
468.449	14080.13
468.654	13510.79
468.859	13688.96
469.064	13265.03
469.269	12888.21
469.474	13101.2
469.679	13252.75
469.885	12988.56
470.09	13015.18
470.295	12882.06
470.5	12548.25
470.705	12507.29
470.91	12245.15
471.115	12136.6
471.32	12419.22
471.525	12277.91
471.73	11968.67
471.935	12218.52
472.139	11565.22
472.344	11600.04
472.549	11675.81
472.754	11489.45
472.959	11419.82
473.164	11108.52
473.369	11012.27
473.574	11374.76
473.778	11008.17
473.983	11108.52
474.188	10924.21
474.393	10557.62
474.598	10592.44
474.802	10391.73
475.007	10461.37
475.212	10240.19
475.417	10086.59
475.621	10133.69
475.826	10004.67
476.031	9924.8
476.235	9701.57
476.44	9775.3
476.645	9734.34
476.849	9466.05
477.054	9509.06
477.259	9427.14
477.463	9380.04
477.668	9007.31
477.872	9300.17
478.077	9165
478.282	8782.03
478.486	8843.47
478.691	8743.12
478.895	8714.45
479.1	8728.78
479.304	8626.39
479.509	8440.02
479.713	8718.54
479.918	8437.97
480.122	8282.33
480.326	8401.11
480.531	8224.98
480.735	8284.37
480.94	8241.37
481.144	8523.99
481.348	8141.02
481.553	8270.04
481.757	8005.85
481.961	8093.91
482.166	8446.16
482.37	8044.76
482.574	8218.84
482.778	8007.9
482.983	8220.89
483.187	8188.12
483.391	8145.11
483.595	8087.77
483.8	8192.22
484.004	8030.43
484.208	8194.26
484.412	8130.78
484.616	8026.33
484.821	8012
485.025	7721.18
485.229	8235.22
485.433	7944.41
485.637	8147.16
485.841	7897.31
486.045	8155.35
486.249	8114.39
486.453	7981.28
486.657	8186.07
486.861	8220.89
487.065	7880.93
487.269	8108.25
487.473	7870.69
487.677	8046.81
487.881	8378.58
488.085	8036.57
488.289	8016.09
488.493	7925.98
488.697	8257.75
488.901	8245.46
489.105	8175.83
489.309	8184.02
489.512	8171.74
489.716	8276.18
489.92	8159.45
490.124	8222.94
490.328	8261.85
490.531	8061.15
490.735	8325.33
490.939	8386.77
491.143	8313.05
491.346	8247.51
491.55	8487.12
491.754	8505.56
491.958	8364.25
492.161	8425.68
492.365	8542.42
492.569	8521.94
492.772	8511.7
492.976	8577.23
493.18	8931.53
493.383	8593.62
493.587	8820.94
493.79	9015.5
493.994	8898.77
494.197	8683.73
494.401	8988.88
494.605	9076.94
494.808	9189.58
495.012	9187.53
495.215	9253.06
495.419	9390.28
495.622	9261.26
495.825	9431.24
496.029	9486.53
496.232	9703.62
496.436	9474.24
496.639	10004.67
496.843	9877.69
497.046	9955.52
497.249	10066.11
497.453	10307.77
497.656	10037.44
497.859	10332.34
498.063	10459.32
498.266	10827.95
498.469	10832.05
498.673	10746.03
498.876	10825.9
499.079	10883.25
499.282	10936.49
499.485	11182.25
499.689	11268.27
499.892	11395.24
500.095	11446.44
500.298	11739.3
500.501	11778.21
500.705	11870.37
500.908	12357.78
501.111	12064.93
501.314	12353.69
501.517	12417.18
501.72	12675.22
501.923	12628.12
502.126	12812.43
502.329	12937.36
502.532	13074.57
502.735	13047.95
502.938	13424.78
503.141	13465.74
503.344	13901.95
503.547	13574.28
503.75	14114.94
503.953	14207.1
504.156	14102.65
504.359	14370.94
504.562	14635.13
504.765	14717.04
504.968	14878.83
505.17	15308.91
505.373	15183.98
505.576	15298.67
505.779	15401.07
505.982	15657.06
506.185	15994.98
506.387	16275.55
506.59	16144.48
506.793	16394.33
506.996	16380
507.198	16715.86
507.401	16951.38
507.604	17041.49
507.807	17557.58
508.009	17395.79
508.212	17524.81
508.415	17879.11
508.617	18038.85
508.82	18004.03
509.022	18088
509.225	18542.65
509.428	18729.02
509.63	18667.58
509.833	19075.12
510.035	19181.62
510.238	19466.28
510.44	19769.38
510.643	19808.3
510.845	19898.41
511.048	20131.87
511.25	20275.23
511.453	20305.95
511.655	21104.66
511.858	20852.76
512.06	21121.04
512.262	21243.92
512.465	21411.85
512.667	21487.63
512.87	22308.86
513.072	21938.18
513.274	22386.69
513.477	22810.62
513.679	23087.09
513.881	23029.75
514.084	23427.06
514.286	23605.23
514.488	23431.15
514.69	24426.46
514.893	24127.46
515.095	24199.14
515.297	24451.04
515.499	24516.58
515.701	25169.88
515.904	25176.02
516.106	25374.67
516.308	25749.45
516.51	25913.29
516.712	26075.08
516.914	26372.03
517.116	26607.55
517.318	26755.01
517.52	26937.27
517.722	26890.17
517.925	27563.95
518.127	28004.27
518.329	28176.3
518.531	27936.68
518.733	28422.05
518.935	28895.13
519.136	28407.72
519.338	28942.24
519.54	29708.18
519.742	29656.98
519.944	29986.7
520.146	30510.98
520.348	30578.56
520.55	30578.56
520.752	30517.12
520.954	31233.91
521.155	30836.61
521.357	31457.14
521.559	31473.53
521.761	32261.99
521.963	31993.71
522.164	32450.41
522.366	32769.89
522.568	32941.92
522.77	33085.28
522.971	33652.56
523.173	33347.42
523.375	33933.14
523.576	33533.78
523.778	34086.73
523.98	34320.2
524.181	34467.66
524.383	34125.64
524.584	35039.04
524.786	34807.62
524.988	34989.89
525.189	35198.78
525.391	35471.16
525.592	35915.57
525.794	36212.52
525.995	36087.6
526.197	36210.48
526.398	35944.24
526.6	36654.89
526.801	36519.72
527.003	37244.7
527.204	36886.31
527.406	37404.44
527.607	37259.04
527.808	37500.7
528.01	36839.2
528.211	37009.18
528.412	38559.5
528.614	37789.46
528.815	37617.43
529.016	38610.7
529.218	37994.26
529.419	38459.15
529.62	38455.05
529.822	38299.4
530.023	38428.43
530.224	38373.13
530.425	38491.91
530.626	38385.42
530.828	38373.13
531.029	39307.01
531.23	38686.47
531.431	39098.11
531.632	39235.33
531.833	39329.53
532.035	39147.26
532.236	39249.66
532.437	39622.39
532.638	38795.01
532.839	39663.35
533.04	39827.19
533.241	38823.68
533.442	39972.6
533.643	39909.11
533.844	39624.44
534.045	39468.8
534.246	39345.92
534.447	39603.96
534.648	39819
534.849	39913.2
535.05	39616.25
535.251	39681.78
535.451	39538.43
535.652	40083.19
535.853	39558.91
536.054	40050.42
536.255	39909.11
536.456	39634.68
536.657	40263.41
536.857	39706.36
537.058	39603.96
537.259	40253.17
537.46	39810.81
537.66	39696.12
537.861	39796.47
538.062	40048.37
538.263	40099.57
538.463	39927.54
538.664	39591.67
538.865	39917.3
539.065	40247.02
539.266	39220.99
539.466	40128.24
539.667	39458.56
539.868	40085.23
540.068	39950.07
540.269	40189.68
540.469	40312.56
540.67	39462.65
540.87	40058.61
541.071	39933.68
541.271	39782.13
541.472	40015.6
541.672	39745.27
541.873	39665.4
542.073	39386.88
542.274	40425.2
542.474	39696.12
542.675	39524.09
542.875	40126.19
543.075	39993.08
543.276	39218.94
543.476	40044.27
543.676	39575.29
543.877	39851.77
544.077	39962.36
544.277	39694.07
544.478	39653.11
544.678	39997.17
544.878	39810.81
545.078	40097.52
545.279	39376.64
545.479	39360.25
545.679	40068.85
545.879	39755.51
546.079	39415.55
546.28	39491.32
546.48	39302.91
546.68	39585.53
546.88	39888.63
547.08	39614.2
547.28	39569.15
547.48	38969.09
547.68	39409.4
547.88	39530.23
548.081	39563
548.281	39673.59
548.481	39591.67
548.681	39888.63
548.881	39796.47
549.081	39636.73
549.28	39100.16
549.48	39872.24
549.68	39286.53
549.88	39812.85
550.08	39565.05
550.28	39878.39
550.48	39458.56
550.68	39417.6
550.88	39251.71
551.08	39532.28
551.279	39501.56
551.479	39137.02
551.679	39315.2
551.879	39462.65
552.079	39337.73
552.278	38967.04
552.478	39479.03
552.678	39454.46
552.878	39595.77
553.077	39556.86
553.277	38598.41
553.477	39757.56
553.676	39522.04
553.876	39143.17
554.076	38819.59
554.275	39137.02
554.475	38655.75
554.674	39051.01
554.874	39145.22
555.074	38928.13
555.273	38942.47
555.473	39114.5
555.672	38606.6
555.872	38678.28
556.071	38762.25
556.271	38715.14
556.47	38493.96
556.67	38485.77
556.869	38569.74
557.068	38721.29
557.268	38160.14
557.467	38389.52
557.667	38383.37
557.866	38256.4
558.065	38526.73
558.265	38012.69
558.464	37967.63
558.663	38258.45
558.863	37697.3
559.062	38438.67
559.261	37584.66
559.461	38422.28
559.66	37480.22
559.859	37883.67
560.058	37918.48
560.258	38035.22
560.457	37093.15
560.656	38240.01
560.855	37003.04
561.054	37310.24
561.253	37197.6
561.453	37715.73
561.652	37273.37
561.851	37758.74
562.05	37021.47
562.249	36718.37
562.448	37465.88
562.647	37267.23
562.846	36841.25
563.045	37302.04
563.244	36927.27
563.443	36960.03
563.642	36296.49
563.841	36669.22
564.04	36280.11
564.239	36861.73
564.438	36022.06
564.637	36437.8
564.836	36212.52
565.035	35962.67
565.234	36206.38
565.432	35757.88
565.631	35718.96
565.83	35847.99
566.029	35825.46
566.228	35800.88
566.427	35290.94
566.625	35528.5
566.824	35278.65
567.023	35542.84
567.222	34791.23
567.42	35739.44
567.619	35202.88
567.818	35149.63
568.016	34848.58
568.215	35436.34
568.414	34643.78
568.612	35278.65
568.811	34455.37
569.01	34785.09
569.208	33953.62
569.407	34649.92
569.605	34023.25
569.804	34629.44
570.002	33791.83
570.201	34170.7
570.4	33656.66
570.598	33795.92
570.797	33675.09
570.995	33609.56
571.193	33535.83
571.392	33865.55
571.59	33273.69
571.789	33519.45
571.987	33357.66
572.186	33038.17
572.384	32999.26
572.582	33263.45
572.781	32808.8
572.979	32687.97
573.177	32419.69
573.376	32784.23
573.574	32374.63
573.772	32561
573.971	32687.97
574.169	32624.48
574.367	31905.65
574.565	32604
574.763	32225.13
574.962	31774.58
575.16	31530.87
575.358	32061.29
575.556	31717.23
575.754	31842.16
575.952	31360.89
576.151	31901.55
576.349	31192.95
576.547	31244.15
576.745	31328.12
576.943	31328.12
577.141	31068.03
577.339	31364.98
577.537	30480.26
577.735	30695.3
577.933	30500.74
578.131	30717.82
578.329	30181.26
578.527	30326.66
578.725	30510.98
578.923	30265.22
579.121	30287.75
579.319	29962.12
579.516	30189.45
579.714	29890.45
579.912	29777.81
580.11	29699.98
580.308	29499.28
580.506	29691.79
580.704	29425.56
580.901	29661.07
581.099	29654.93
581.297	29206.42
581.495	29382.55
581.692	29517.71
581.89	29212.57
582.088	29552.53
582.285	28858.27
582.483	29163.42
582.681	28942.24
582.878	28596.13
583.076	28454.82
583.274	28788.64
583.471	28460.96
583.669	28213.16
583.866	28430.24
584.064	28284.84
584.262	28037.03
584.459	28282.79
584.657	28252.07
584.854	28143.53
585.052	27420.59
585.249	27867.05
585.447	27561.9
585.644	27525.04
585.841	27408.31
586.039	27713.45
586.236	27385.78
586.434	27336.63
586.631	27393.97
586.828	27424.69
587.026	27131.83
587.223	27058.1
587.42	26709.95
587.618	27232.18
587.815	26814.4
588.012	26703.81
588.21	26456
588.407	26658.75
588.604	26396.61
588.801	26073.03
588.999	26331.08
589.196	26441.67
589.393	26427.33
589.59	26228.68
589.787	25737.16
589.984	25561.04
590.182	25847.75
590.379	25987.02
590.576	25460.69
590.773	25675.73
590.97	25688.01
591.167	25857.99
591.364	25266.13
591.561	25376.72
591.758	25221.08
591.955	25296.85
592.152	25122.77
592.349	25122.77
592.546	25147.35
592.743	24995.8
592.94	24715.23
593.137	24868.83
593.334	24881.11
593.531	24561.63
593.727	24786.91
593.924	24813.53
594.121	24348.64
594.318	24590.3
594.515	24135.65
594.712	24297.44
594.908	24262.63
595.105	24096.74
595.302	24164.32
595.499	24201.19
595.696	24049.64
595.892	23578.61
596.089	23779.31
596.286	23719.92
596.482	23807.98
596.679	23511.02
596.876	23695.34
597.072	23465.97
597.269	23580.65
597.466	23136.24
597.662	23169.01
597.859	23136.24
598.055	23269.36
598.252	22941.69
598.448	22931.45
598.645	22929.4
598.841	22804.47
599.038	22790.14
599.234	22886.39
599.431	22542.33
599.627	22665.21
599.824	22910.97
600.02	22274.05
600.217	22530.05
600.413	22241.28
600.609	22376.45
600.806	22069.25
601.002	22231.04
601.198	22075.4
601.395	21864.46
601.591	21858.31
601.787	21981.19
601.984	21741.58
602.18	21905.42
602.376	21673.99
602.572	21684.23
602.769	21538.83
602.965	21184.53
603.161	21655.56
603.357	21467.15
603.553	21202.96
603.75	21434.38
603.946	21188.63
604.142	20901.91
604.338	20836.38
604.534	20846.62
604.73	20797.46
604.926	20578.33
605.122	20711.45
605.318	20762.65
605.514	20733.98
605.71	20326.43
605.906	20531.23
606.102	20525.08
606.298	20348.96
606.494	20279.33
606.69	20144.16
606.886	20228.13
607.082	19884.07
607.278	20285.47
607.474	19785.77
607.67	20086.82
607.866	19589.16
608.062	20183.07
608.257	19847.21
608.453	19804.2
608.649	19816.49
608.845	19314.73
609.041	19597.35
609.236	19609.64
609.432	19419.18
609.628	19728.42
609.824	19206.19
610.019	19296.3
610.215	19298.35
610.411	19509.29
610.606	19224.62
610.802	19425.32
610.998	19236.91
611.193	19314.73
611.389	19159.09
611.584	19232.82
611.78	19032.11
611.976	19146.8
612.171	19081.27
612.367	18810.93
612.562	18638.9
612.758	18790.45
612.953	18602.04
613.149	18657.34
613.344	18497.6
613.539	19013.68
613.735	18669.62
613.93	18577.47
614.126	18513.98
614.321	18700.34
614.517	18524.22
614.712	18587.71
614.907	18518.07
615.103	18544.7
615.298	18214.98
615.493	18645.05
615.688	18047.04
615.884	18399.29
616.079	18210.88
616.274	18344
616.47	18350.14
616.665	18274.37
616.86	18001.99
617.055	18044.99
617.25	17752.13
617.445	18284.61
617.641	17627.21
617.836	17844.29
618.031	17555.53
618.226	17678.41
618.421	17621.06
618.616	17557.58
618.811	17297.49
619.006	17571.91
619.201	17395.79
619.396	17500.23
619.591	17287.25
619.786	17385.55
619.981	16914.52
620.176	17160.27
620.371	16896.08
620.566	16982.1
620.761	16885.84
620.956	16732.25
621.151	16676.95
621.346	16732.25
621.541	16443.48
621.735	16638.04
621.93	16515.16
622.125	16689.24
622.32	16218.21
622.515	16607.32
622.709	16169.05
622.904	16007.27
623.099	16029.79
623.294	15806.56
623.488	15849.57
623.683	15917.15
623.878	15370.35
624.072	15650.92
624.267	15652.97
624.462	15419.5
624.656	15237.23
624.851	15409.26
625.046	14942.32
625.24	15161.45
625.435	14915.7
625.629	14717.04
625.824	14770.29
626.018	14788.72
626.213	14602.36
626.407	14811.25
626.602	14442.62
626.796	14348.41
626.991	14557.3
627.185	14286.97
627.38	14131.33
627.574	14127.23
627.768	13918.34
627.963	14035.07
628.157	13820.03
628.352	13801.6
628.546	13645.96
628.74	14028.93
628.935	13701.25
629.129	13465.74
629.323	13310.09
629.517	13525.13
629.712	13373.58
629.906	13144.2
630.1	13209.74
630.294	13176.97
630.489	12834.96
630.683	13291.66
630.877	12742.8
631.071	12779.67
631.265	12988.56
631.459	12648.6
631.653	12750.99
631.848	12525.72
632.042	12648.6
632.236	12554.39
632.43	12439.7
632.624	12509.33
632.818	12347.54
633.012	12345.5
633.206	11831.46
633.4	12232.86
633.594	12155.04
633.788	11919.52
633.982	11940
634.176	12120.22
634.369	11962.53
634.563	11770.02
634.757	11481.25
634.951	11544.74
635.145	11487.4
635.339	11468.97
635.533	11493.54
635.726	11378.86
635.92	11348.14
636.114	11380.9
636.308	11176.11
636.501	11313.32
636.695	11069.61
636.889	10754.23
637.083	10901.68
637.276	11002.03
637.47	10676.4
637.664	10846.38
637.857	10842.29
638.051	10760.37
638.244	10797.23
638.438	10582.2
638.632	10584.24
638.825	10410.17
639.019	10156.22
639.212	10346.68
639.406	10283.19
639.599	10223.8
639.793	10354.87
639.986	10107.07
640.18	10006.72
640.373	10150.07
640.567	9871.55
640.76	9992.38
640.954	9752.77
641.147	10019
641.34	9611.46
641.534	9593.03
641.727	9832.64
641.92	9558.21
642.114	9593.03
642.307	9609.41
642.5	9445.57
642.694	9201.86
642.887	9285.83
643.08	9433.29
643.273	9212.1
643.467	9087.18
643.66	8937.68
643.853	9146.57
644.046	8775.89
644.239	9009.36
644.432	8945.87
644.626	8798.42
644.819	8650.96
645.012	8999.12
645.205	8812.75
645.398	8698.06
645.591	8519.89
645.784	8687.82
645.977	8511.7
646.17	8603.86
646.363	8327.38
646.556	8394.97
646.749	8460.5
646.942	8401.11
647.135	8358.1
647.328	8251.61
647.521	8448.21
647.714	8055
647.907	8167.64
648.099	8241.37
648.292	8034.52
648.485	8067.29
648.678	7921.88
648.871	7964.89
649.064	7934.17
649.256	7901.4
649.449	7854.3
649.642	7725.28
649.835	7717.09
650.027	7696.61
650.22	7639.26
650.413	7618.79
650.605	7676.13
650.798	7633.12
650.991	7403.75
651.183	7573.73
651.376	7229.67
651.568	7323.88
651.761	7252.2
651.954	7268.58
652.146	7233.77
652.339	7282.92
652.531	7207.14
652.724	7241.96
652.916	7069.93
653.109	6998.25
653.301	6875.37
653.494	7039.21
653.686	6815.98
653.879	7071.98
654.071	6940.91
654.263	6891.76
654.456	6885.61
654.648	6871.28
654.84	6705.39
655.033	6666.48
655.225	6547.7
655.417	6598.9
655.61	6598.9
655.802	6775.02
655.994	6613.23
656.186	6494.45
656.379	6445.3
656.571	6553.84
656.763	6306.04
656.955	6334.71
657.148	6447.35
657.34	6340.85
657.532	6177.02
657.724	6066.42
657.916	6336.76
658.108	6142.2
658.3	6047.99
658.492	6093.05
658.684	6109.43
658.876	6172.92
659.068	6031.61
659.26	5990.65
659.452	5947.64
659.644	5939.45
659.836	5896.44
660.028	5908.73
660.22	5865.72
660.412	5804.28
660.604	5744.89
660.796	5773.57
660.988	5675.26
661.18	5589.25
661.372	5503.23
661.563	5597.44
661.755	5562.62
661.947	5619.97
662.139	5413.12
662.331	5419.27
662.522	5482.75
662.714	5335.3
662.906	5411.07
663.097	5359.88
663.289	5204.23
663.481	5343.49
663.673	5404.93
663.864	5222.66
664.056	5253.38
664.247	5368.07
664.439	5097.74
664.631	5089.54
664.822	5171.46
665.014	5101.83
665.205	5257.48
665.397	5015.82
665.588	5153.03
665.78	5126.41
665.971	4958.47
666.163	4991.24
666.354	4987.15
666.546	4942.09
666.737	5112.07
666.929	4884.75
667.12	4780.3
667.311	4806.92
667.503	4747.53
667.694	4831.5
667.885	4827.4
668.077	4706.57
668.268	4856.08
668.459	4753.68
668.651	4665.61
668.842	4606.22
669.033	4643.09
669.224	4487.44
669.416	4641.04
669.607	4426
669.798	4458.77
669.989	4526.35
670.18	4512.02
670.371	4657.42
670.563	4512.02
670.754	4454.67
670.945	4428.05
671.136	4180.25
671.327	4329.75
671.518	4426
671.709	4352.27
671.9	4350.23
672.091	4210.97
672.282	4272.4
672.473	4276.5
672.664	4327.7
672.855	4385.04
673.046	4274.45
673.237	4305.17
673.428	4143.38
673.619	4227.35
673.809	4247.83
674	4190.49
674.191	4182.29
674.382	4018.46
674.573	4165.91
674.764	4133.14
674.954	4112.66
675.145	4008.22
675.336	4217.11
675.527	4004.12
675.717	3918.11
675.908	3975.45
676.099	4088.09
676.289	4157.72
676.48	3926.3
676.671	3969.3
676.861	3997.98
677.052	3942.68
677.243	3895.58
677.433	3821.85
677.624	3914.01
677.814	3948.83
678.005	3803.42
678.195	3862.81
678.386	3748.12
678.576	3701.02
678.767	3817.76
678.957	3739.93
679.148	3758.36
679.338	3805.47
679.529	3756.32
679.719	3746.08
679.909	3772.7
680.1	3770.65
680.29	3672.35
680.481	3752.22
680.671	3698.97
680.861	3739.93
681.052	3696.92
681.242	3678.49
681.432	3629.34
681.622	3694.88
681.813	3729.69
682.003	3666.21
682.193	3612.96
682.383	3531.04
682.573	3668.25
682.764	3576.09
682.954	3707.16
683.144	3680.54
683.334	3617.05
683.524	3539.23
683.714	3565.85
683.904	3535.14
684.094	3629.34
684.284	3543.33
684.474	3572
684.664	3576.09
684.854	3498.27
685.044	3359.01
685.234	3465.5
685.424	3465.5
685.614	3328.29
685.804	3453.22
685.994	3350.82
686.184	3457.31
686.374	3238.18
686.564	3365.15
686.753	3375.39
686.943	3436.83
687.133	3389.73
687.323	3195.17
687.513	3369.25
687.702	3256.61
687.892	3383.59
688.082	3289.38
688.272	3297.57
688.461	3258.66
688.651	3316
688.841	3229.99
689.03	3264.8
689.22	3273
689.41	3338.53
689.599	3213.6
689.789	3197.22
689.979	3150.12
690.168	3189.03
690.358	3229.99
690.547	3078.44
690.737	3164.45
690.926	3105.06
691.116	3064.1
691.305	3043.62
691.495	3186.98
691.684	3072.29
691.874	3119.4
692.063	3066.15
692.252	3076.39
692.442	2883.88
692.631	3025.19
692.82	2853.16
693.01	3012.9
693.199	2963.75
693.388	2894.12
693.578	2912.55
693.767	2935.08
693.956	2871.59
694.146	2818.35
694.335	2847.02
694.524	2892.07
694.713	2818.35
694.902	2902.31
695.092	2953.51
695.281	2855.21
695.47	2855.21
695.659	2769.2
695.848	2746.67
696.037	2885.93
696.226	2844.97
696.415	2828.59
696.604	2789.67
696.793	2836.78
696.982	2818.35
697.171	2836.78
697.36	2668.84
697.549	2777.39
697.738	2775.34
697.927	2769.2
698.116	2865.45
698.305	2726.19
698.494	2820.39
698.683	2740.52
698.872	2640.17
699.061	2670.89
699.25	2670.89
699.438	2740.52
699.627	2754.86
699.816	2830.63
700.005	2742.57
700.193	2748.72
700.382	2674.99
700.571	2744.62
700.76	2726.19
700.948	2677.04
701.137	2754.86
701.326	2662.7
701.514	2572.59
701.703	2789.67
701.892	2609.45
702.08	2724.14
702.269	2752.81
702.457	2554.16
702.646	2691.37
702.834	2697.52
703.023	2842.92
703.212	2758.96
703.4	2752.81
703.589	2683.18
703.777	2756.91
703.965	2640.17
704.154	2777.39
704.342	2787.63
704.531	2728.24
704.719	2808.11
704.907	2752.81
705.096	2801.96
705.284	2724.14
705.472	2726.19
705.661	2734.38
705.849	2736.43
706.037	2767.15
706.226	2537.77
706.414	2611.5
706.602	2611.5
706.79	2709.8
706.979	2601.26
707.167	2642.22
707.355	2539.82
707.543	2640.17
707.731	2748.72
707.919	2642.22
708.107	2681.13
708.296	2644.27
708.484	2709.8
708.672	2636.08
708.86	2662.7
709.048	2609.45
709.236	2670.89
709.424	2613.55
709.612	2818.35
709.8	2640.17
709.988	2674.99
710.176	2754.86
710.364	2656.56
710.551	2709.8
710.739	2666.8
710.927	2654.51
711.115	2662.7
711.303	2642.22
711.491	2613.55
711.679	2687.28
711.866	2693.42
712.054	2615.6
712.242	2580.78
712.43	2689.32
712.617	2644.27
712.805	2724.14
712.993	2609.45
713.181	2677.04
713.368	2654.51
713.556	2752.81
713.744	2660.65
713.931	2656.56
714.119	2535.73
714.306	2597.17
714.494	2545.97
714.682	2621.74
714.869	2533.68
715.057	2666.8
715.244	2593.07
715.432	2580.78
715.619	2607.41
715.807	2543.92
715.994	2572.59
716.182	2568.49
716.369	2498.86
716.556	2556.21
716.744	2568.49
716.931	2521.39
717.119	2625.84
717.306	2619.69
717.493	2603.31
717.681	2677.04
717.868	2625.84
718.055	2715.95
718.242	2552.11
718.43	2658.6
718.617	2705.71
718.804	2599.21
718.991	2527.53
719.179	2699.56
719.366	2662.7
719.553	2576.69
719.74	2550.06
719.927	2535.73
720.114	2527.53
720.301	2468.14
720.488	2462
720.676	2609.45
720.863	2515.25
721.05	2646.32
721.237	2543.92
721.424	2629.93
721.611	2498.86
721.798	2543.92
721.985	2494.77
722.172	2482.48
722.358	2459.95
722.545	2556.21
722.732	2488.62
722.919	2560.3
723.106	2527.53
723.293	2492.72
723.48	2681.13
723.667	2617.65
723.853	2505.01
724.04	2556.21
724.227	2470.19
724.414	2623.79
724.6	2484.53
724.787	2445.62
724.974	2617.65
725.161	2494.77
725.347	2507.06
725.534	2572.59
725.72	2513.2
725.907	2572.59
726.094	2476.34
726.28	2541.87
726.467	2435.38
726.653	2588.97
726.84	2492.72
727.027	2494.77
727.213	2470.19
727.4	2586.93
727.586	2359.6
727.773	2672.94
727.959	2552.11
728.145	2496.82
728.332	2568.49
728.518	2545.97
728.705	2572.59
728.891	2472.24
729.077	2439.47
729.264	2511.15
729.45	2500.91
729.636	2554.16
729.823	2468.14
730.009	2531.63
730.195	2582.83
730.382	2535.73
730.568	2484.53
730.754	2552.11
730.94	2558.25
731.126	2558.25
731.313	2576.69
731.499	2515.25
731.685	2502.96
731.871	2464.05
732.057	2672.94
732.243	2441.52
732.429	2453.81
732.615	2488.62
732.801	2433.33
732.987	2517.29
733.173	2515.25
733.359	2396.46
733.545	2498.86
733.731	2402.61
733.917	2464.05
734.103	2449.71
734.289	2511.15
734.475	2455.86
734.661	2582.83
734.847	2527.53
735.033	2586.93
735.219	2496.82
735.404	2533.68
735.59	2601.26
735.776	2476.34
735.962	2500.91
736.148	2537.77
736.333	2404.66
736.519	2363.7
736.705	2492.72
736.89	2394.42
737.076	2451.76
737.262	2533.68
737.447	2361.65
737.633	2414.9
737.819	2355.51
738.004	2378.03
738.19	2332.98
738.375	2492.72
738.561	2384.18
738.747	2347.31
738.932	2304.31
739.118	2408.75
739.303	2337.07
739.489	2431.28
739.674	2349.36
739.859	2357.55
740.045	2359.6
740.23	2390.32
740.416	2285.87
740.601	2294.07
740.786	2335.03
740.972	2279.73
741.157	2335.03
741.342	2277.68
741.528	2279.73
741.713	2208.05
741.898	2294.07
742.084	2187.57
742.269	2308.4
742.454	2167.09
742.639	2339.12
742.824	2287.92
743.01	2373.94
743.195	2310.45
743.38	2257.2
743.565	2185.52
743.75	2203.96
743.935	2138.42
744.12	2337.07
744.305	2115.89
744.49	2119.99
744.675	2021.69
744.86	2085.17
745.045	2232.63
745.23	2107.7
745.415	2103.61
745.6	2117.94
745.785	2052.41
745.97	2101.56
746.155	2101.56
746.34	2124.08
746.525	2070.84
746.71	1968.44
746.895	2025.78
747.079	2064.69
747.264	1919.29
747.449	2036.02
747.634	2023.73
747.819	2017.59
748.003	2009.4
748.188	2033.97
748.373	1956.15
748.557	1986.87
748.742	1935.67
748.927	1980.73
749.111	1898.81
749.296	1863.99
749.481	1798.46
749.665	1900.86
749.85	1829.18
750.034	1894.71
750.219	1798.46
750.404	1845.56
750.588	1708.35
750.773	1780.03
750.957	1698.11
751.141	1755.45
751.326	1806.65
751.51	1691.96
751.695	1739.07
751.879	1696.06
752.064	1691.96
752.248	1710.4
752.432	1716.54
752.617	1585.47
752.801	1730.87
752.985	1659.2
753.17	1739.07
753.354	1669.44
753.538	1610.04
753.722	1546.56
753.907	1530.17
754.091	1618.24
754.275	1524.03
754.459	1581.37
754.643	1521.98
754.828	1548.61
755.012	1540.41
755.196	1478.97
755.38	1503.55
755.564	1495.36
755.748	1540.41
755.932	1517.89
756.116	1517.89
756.3	1509.69
756.484	1433.92
756.668	1448.26
756.852	1411.39
757.036	1372.48
757.22	1474.88
757.404	1388.86
757.588	1392.96
757.772	1333.57
757.956	1448.26
758.14	1403.2
758.323	1372.48
758.507	1370.43
758.691	1376.58
758.875	1397.06
759.059	1278.27
759.242	1294.66
759.426	1360.19
759.61	1300.8
759.794	1265.99
759.977	1286.47
760.161	1311.04
760.345	1360.19
760.528	1323.33
760.712	1265.99
760.895	1220.93
761.079	1270.08
761.263	1157.44
761.446	1315.14
761.63	1311.04
761.813	1321.28
761.997	1296.71
762.18	1222.98
762.364	1233.22
762.547	1091.91
762.731	1194.31
762.914	1145.16
763.098	1145.16
763.281	1222.98
763.464	1194.31
763.648	1167.68
763.831	1229.12
764.015	1069.38
764.198	1110.34
764.381	1104.2
764.564	1124.68
764.748	1198.4
764.931	1128.77
765.114	1130.82
765.297	1139.01
765.481	1032.52
765.664	1134.92
765.847	1169.73
766.03	1114.44
766.213	1100.1
766.397	1093.96
766.58	1120.58
766.763	1112.39
766.946	1053
767.129	1048.9
767.312	1020.23
767.495	1110.34
767.678	1007.94
767.861	1079.62
768.044	1030.47
768.227	1085.76
768.41	973.13
768.593	1055.05
768.776	1143.11
768.959	1116.48
769.142	1012.04
769.324	989.51
769.507	956.74
769.69	1028.42
769.873	1020.23
770.056	1046.85
770.239	1050.95
770.421	1016.13
770.604	1036.61
770.787	1001.8
770.97	1009.99
771.152	1028.42
771.335	1022.28
771.518	893.26
771.7	917.83
771.883	921.93
772.066	993.61
772.248	952.65
772.431	932.17
772.613	897.35
772.796	901.45
772.978	936.26
773.161	866.63
773.343	936.26
773.526	858.44
773.708	913.74
773.891	860.49
774.073	917.83
774.256	940.36
774.438	880.97
774.621	878.92
774.803	823.62
774.985	835.91
775.168	885.06
775.35	823.62
775.532	745.8
775.715	840.01
775.897	850.25
776.079	840.01
776.261	803.15
776.444	815.43
776.626	780.62
776.808	819.53
776.99	790.86
777.173	815.43
777.355	782.67
777.537	831.82
777.719	747.85
777.901	721.23
778.083	739.66
778.265	782.67
778.447	801.1
778.629	737.61
778.811	766.28
778.993	694.6
779.175	647.5
779.357	684.36
779.539	731.47
779.721	727.37
779.903	727.37
780.085	676.17
780.267	631.12
780.449	686.41
780.631	612.68
780.812	717.13
780.994	616.78
781.176	649.55
781.358	635.21
781.54	637.26
781.721	672.08
781.903	563.53
782.085	575.82
782.267	610.64
782.448	522.57
782.63	674.12
782.812	559.44
782.993	624.97
783.175	643.4
783.357	586.06
783.538	569.68
783.72	557.39
783.901	633.16
784.083	635.21
784.264	590.16
784.446	610.64
784.627	590.16
784.809	543.05
784.99	622.92
785.172	672.08
785.353	602.44
785.535	520.53
785.716	522.57
785.897	504.14
786.079	512.33
786.26	573.77
786.441	624.97
786.623	526.67
786.804	475.47
786.985	471.37
787.167	524.62
787.348	500.05
787.529	450.89
787.71	518.48
787.891	454.99
788.073	405.84
788.254	457.04
788.435	502.09
788.616	512.33
788.797	414.03
788.978	407.89
789.159	502.09
789.34	532.81
789.522	473.42
789.703	467.28
789.884	393.55
790.065	436.56
790.246	362.83
790.427	418.13
790.607	414.03
790.788	403.79
790.969	397.65
791.15	395.6
791.331	391.5
791.512	373.07
791.693	371.02
791.874	457.04
792.054	375.12
792.235	475.47
792.416	377.17
792.597	440.65
792.778	434.51
792.958	414.03
793.139	420.17
793.32	348.5
793.5	395.6
793.681	379.22
793.862	438.61
794.042	364.88
794.223	293.2
794.404	434.51
794.584	303.44
794.765	395.6
794.945	393.55
795.126	371.02
795.306	383.31
795.487	336.21
795.667	340.3
795.848	321.87
796.028	368.98
796.209	315.73
796.389	368.98
796.57	342.35
796.75	250.19
796.93	280.91
797.111	383.31
797.291	291.15
797.471	307.54
797.652	323.92
797.832	334.16
798.012	328.02
798.192	274.77
798.373	330.06
798.553	299.34
798.733	321.87
798.913	303.44
799.093	321.87
799.274	350.54
799.454	297.3
799.634	315.73
799.814	334.16
799.994	291.15
800.174	295.25
800.354	250.19
800.534	262.48
800.714	270.67
800.894	244.05
801.074	217.43
801.254	282.96
801.434	313.68
801.614	334.16
801.794	381.26
801.974	596.3
802.154	264.53
802.334	280.91
802.514	225.62
802.693	309.58
802.873	203.09
803.053	205.14
803.233	336.21
803.413	272.72
803.592	188.75
803.772	231.76
803.952	213.33
804.131	262.48
804.311	250.19
804.491	297.3
804.67	278.87
804.85	289.1
805.03	215.38
805.209	252.24
805.389	217.43
805.568	225.62
805.748	258.39
805.928	266.58
806.107	196.95
806.287	205.14
806.466	295.25
806.646	201.04
806.825	213.33
807.004	227.67
807.184	201.04
807.363	190.8
807.543	176.47
807.722	235.86
807.901	262.48
808.081	256.34
808.26	190.8
808.439	172.37
808.619	201.04
808.798	231.76
808.977	223.57
809.156	223.57
809.336	229.71
809.515	160.08
809.694	201.04
809.873	168.27
810.052	168.27
810.231	250.19
810.411	162.13
810.59	184.66
810.769	172.37
810.948	266.58
811.127	131.41
811.306	100.69
811.485	215.38
811.664	258.39
811.843	229.71
812.022	244.05
812.201	190.8
812.38	158.03
812.559	211.28
812.737	233.81
812.916	217.43
813.095	147.8
813.274	205.14
813.453	252.24
813.632	180.56
813.811	184.66
813.989	172.37
814.168	196.95
814.347	143.7
814.526	147.8
814.704	190.8
814.883	250.19
815.062	166.23
815.24	94.55
815.419	196.95
815.598	207.19
815.776	180.56
815.955	203.09
816.133	137.56
816.312	198.99
816.49	137.56
816.669	172.37
816.847	151.89
817.026	151.89
817.204	106.84
817.383	147.8
817.561	102.74
817.74	186.71
817.918	172.37
818.097	192.85
818.275	94.55
818.453	151.89
818.632	178.51
818.81	196.95
818.988	147.8
819.167	94.55
819.345	162.13
819.523	153.94
819.701	143.7
819.879	254.29
820.058	131.41
820.236	182.61
820.414	131.41
820.592	131.41
820.77	186.71
820.948	131.41
821.127	110.93
821.305	149.84
821.483	145.75
821.661	133.46
821.839	164.18
822.017	110.93
822.195	90.45
822.373	160.08
822.551	186.71
822.729	162.13
822.907	143.7
823.085	135.51
823.262	190.8
823.44	137.56
823.618	110.93
823.796	155.99
823.974	145.75
824.152	125.27
824.329	110.93
824.507	141.65
824.685	168.27
824.863	139.6
825.04	94.55
825.218	106.84
825.396	86.36
825.574	174.42
825.751	37.2
825.929	84.31
826.107	139.6
826.284	149.84
826.462	127.32
826.639	86.36
826.817	117.08
826.994	158.03
827.172	78.16
827.349	127.32
827.527	145.75
827.704	104.79
827.882	121.17
828.059	115.03
828.237	155.99
828.414	92.5
828.591	84.31
828.769	98.64
828.946	112.98
829.124	135.51
829.301	115.03
829.478	98.64
829.655	98.64
829.833	102.74
830.01	176.47
830.187	145.75
830.364	108.88
830.542	153.94
830.719	153.94
830.896	176.47
831.073	153.94
831.25	145.75
831.427	102.74
831.604	47.44
831.782	92.5
831.959	129.36
832.136	108.88
832.313	121.17
832.49	115.03
832.667	174.42
832.844	172.37
833.021	84.31
833.198	67.92
833.374	80.21
833.551	51.54
833.728	59.73
833.905	155.99
834.082	86.36
834.259	67.92
834.436	131.41
834.612	72.02
834.789	147.8
834.966	121.17
835.143	86.36
835.319	20.82
835.496	139.6
835.673	90.45
835.85	160.08
836.026	90.45
836.203	63.83
836.38	108.88
836.556	141.65
836.733	88.4
836.909	151.89
837.086	69.97
837.262	63.83
837.439	69.97
837.616	86.36
837.792	51.54
837.968	125.27
838.145	82.26
838.321	82.26
838.498	115.03
838.674	90.45
838.851	127.32
839.027	78.16
839.203	80.21
839.38	104.79
839.556	41.3
839.732	65.88
839.909	24.92
840.085	35.16
840.261	90.45
840.437	86.36
840.614	69.97
840.79	98.64
840.966	141.65
841.142	49.49
841.318	110.93
841.494	45.4
841.671	84.31
841.847	35.16
842.023	49.49
842.199	55.64
842.375	47.44
842.551	84.31
842.727	8.53
842.903	82.26
843.079	112.98
843.255	65.88
843.431	26.96
843.607	94.55
843.783	74.07
843.959	86.36
844.134	53.59
844.31	125.27
844.486	115.03
844.662	125.27
844.838	94.55
845.013	55.64
845.189	76.12
845.365	63.83
845.541	59.73
845.716	84.31
845.892	18.77
846.068	26.96
846.244	74.07
846.419	112.98
846.595	49.49
846.77	37.2
846.946	102.74
847.122	63.83
847.297	69.97
847.473	55.64
847.648	84.31
847.824	96.6
847.999	16.73
848.175	39.25
848.35	65.88
848.526	119.12
848.701	59.73
848.876	76.12
849.052	65.88
849.227	88.4
849.403	45.4
849.578	41.3
849.753	59.73
849.929	55.64
850.104	4.44
850.279	-13.99
850.454	65.88
850.63	82.26
850.805	86.36
850.98	80.21
851.155	65.88
851.33	96.6
851.505	80.21
851.681	74.07
851.856	24.92
852.031	69.97
852.206	53.59
852.381	65.88
852.556	4.44
852.731	53.59
852.906	110.93
853.081	69.97
853.256	86.36
853.431	49.49
853.606	-3.75
853.781	8.53
853.956	41.3
854.131	53.59
854.305	-3.75
854.48	24.92
854.655	22.87
854.83	4.44
855.005	14.68
855.18	-13.99
855.354	12.63
855.529	65.88
855.704	61.78
855.879	12.63
856.053	10.58
856.228	67.92
856.403	-1.71
856.577	110.93
856.752	-11.95
856.926	106.84
857.101	47.44
857.276	88.4
857.45	112.98
857.625	100.69
857.799	53.59
857.974	131.41
858.148	-28.33
858.323	84.31
858.497	26.96
858.672	-5.8
858.846	-20.14
859.02	8.53
859.195	45.4
859.369	41.3
859.543	67.92
859.718	108.88
859.892	92.5
860.066	92.5
860.241	-5.8
860.415	35.16
860.589	-9.9
860.763	78.16
860.938	78.16
861.112	14.68
861.286	-9.9
861.46	41.3
861.634	78.16
861.808	63.83
861.982	0.34
862.157	-69.29
862.331	12.63
862.505	104.79
862.679	4.44
862.853	33.11
863.027	6.49
863.201	100.69
863.375	14.68
863.549	59.73
863.722	33.11
863.896	33.11
864.07	-16.04
864.244	51.54
864.418	33.11
864.592	88.4
864.766	4.44
864.939	69.97
865.113	76.12
865.287	94.55
865.461	-11.95
865.634	29.01
865.808	69.97
865.982	47.44
866.156	-52.91
866.329	51.54
866.503	43.35
866.676	61.78
866.85	39.25
867.024	86.36
867.197	33.11
867.371	76.12
867.544	14.68
867.718	78.16
867.891	90.45
868.065	67.92
868.238	18.77
868.412	106.84
868.585	-13.99
868.759	-5.8
868.932	-11.95
869.105	57.68
869.279	14.68
869.452	14.68
869.625	-16.04
869.799	53.59
869.972	26.96
870.145	-18.09
870.319	18.77
870.492	102.74
870.665	-30.38
870.838	37.2
871.011	-75.43
871.185	29.01
871.358	94.55
871.531	31.06
871.704	96.6
871.877	59.73
872.05	41.3
872.223	14.68
872.396	37.2
872.569	31.06
872.742	0.34
872.915	24.92
873.088	-7.85
873.261	39.25
873.434	20.82
873.607	88.4
873.78	18.77
873.953	-11.95
874.126	4.44
874.299	84.31
874.471	-11.95
874.644	8.53
874.817	131.41
874.99	125.27
875.163	98.64
875.335	59.73
875.508	43.35
875.681	160.08
875.853	24.92
876.026	61.78
876.199	-48.81
876.371	74.07
876.544	-7.85
876.717	-36.52
876.889	16.73
877.062	14.68
877.234	92.5
877.407	-34.47
877.579	59.73
877.752	108.88
877.924	65.88
878.097	80.21
878.269	37.2
878.442	57.68
878.614	31.06
878.786	4.44
878.959	49.49
879.131	33.11
879.303	6.49
879.476	86.36
879.648	78.16
879.82	80.21
879.993	-1.71
880.165	45.4
880.337	20.82
880.509	-13.99
880.681	18.77
880.854	29.01
881.026	-30.38
881.198	80.21
881.37	-32.43
881.542	18.77
881.714	41.3
881.886	47.44
882.058	8.53
882.23	31.06
882.402	26.96
882.574	133.46
882.746	47.44
882.918	-11.95
883.09	4.44
883.262	20.82
883.434	24.92
883.606	37.2
883.778	20.82
883.95	-30.38
884.122	39.25
884.293	4.44
884.465	92.5
884.637	4.44
884.809	106.84
884.98	39.25
885.152	63.83
885.324	-7.85
885.496	-63.15
885.667	63.83
885.839	-32.43
886.011	57.68
886.182	-9.9
886.354	43.35
886.525	53.59
886.697	35.16
886.869	-46.76
887.04	33.11
887.212	12.63
887.383	53.59
887.555	-18.09
887.726	6.49
887.897	-22.19
888.069	39.25
888.24	29.01
888.412	41.3
888.583	37.2
888.754	16.73
888.926	26.96
889.097	78.16
889.268	43.35
889.44	14.68
889.611	0.34
889.782	41.3
889.953	4.44
890.125	72.02
890.296	39.25
890.467	-1.71
890.638	57.68
890.809	6.49
890.98	104.79
891.151	49.49
891.323	37.2
891.494	6.49
891.665	59.73
891.836	-16.04
892.007	-1.71
892.178	-9.9
892.349	55.64
892.52	-3.75
892.691	37.2
892.862	12.63
893.032	-48.81
893.203	2.39
893.374	49.49
893.545	45.4
893.716	61.78
893.887	41.3
894.057	29.01
894.228	106.84
894.399	-59.05
894.57	-9.9
894.74	-52.91
894.911	22.87
895.082	-13.99
895.253	74.07
895.423	8.53
895.594	22.87
895.764	-16.04
895.935	96.6
896.106	-36.52
896.276	-32.43
896.447	67.92
896.617	20.82
896.788	-34.47
896.958	10.58
897.129	-20.14
897.299	24.92
897.47	49.49
897.64	35.16
897.81	33.11
897.981	72.02
898.151	-28.33
898.322	133.46
898.492	61.78
898.662	18.77
898.832	29.01
899.003	-24.23
899.173	-20.14
899.343	2.39
899.513	-65.19
