Data from USB4F104151__57__11-05-55-087.txt Node

Date: Wed Mar 12 11:05:55 EDT 2025
User: louis
Spectrometer: USB4F10415
Trigger mode: 4
Integration Time (sec): 2.000000E-2
Scans to average: 1
Electric dark correction enabled: true
Nonlinearity correction enabled: false
Boxcar width: 0
XAxis mode: Wavelengths
Number of Pixels in Spectrum: 3648
>>>>>Begin Spectral Data<<<<<
178.204	38.74
178.424	38.74
178.644	38.74
178.864	-106.67
179.084	-137.38
179.304	10.07
179.524	28.5
179.744	-37.03
179.964	36.69
180.184	-6.31
180.404	18.26
180.624	-18.6
180.844	61.27
181.064	8.02
181.283	1.88
181.503	-18.6
181.723	-84.14
181.943	-41.13
182.163	-22.7
182.383	53.08
182.602	-39.08
182.822	38.74
183.042	34.64
183.262	-24.75
183.482	-24.75
183.701	94.04
183.921	30.55
184.141	118.61
184.361	-4.27
184.58	-41.13
184.8	104.28
185.02	8.02
185.239	18.26
185.459	18.26
185.679	-10.41
185.898	-12.46
186.118	94.04
186.338	40.79
186.557	81.75
186.777	8.02
186.997	38.74
187.216	55.12
187.436	149.33
187.655	48.98
187.875	1.88
188.095	1.88
188.314	16.21
188.534	42.84
188.753	59.22
188.973	32.6
189.192	71.51
189.412	87.89
189.631	16.21
189.851	1.88
190.07	24.4
190.29	22.36
190.509	-28.84
190.729	53.08
190.948	-28.84
191.168	59.22
191.387	26.45
191.607	-6.31
191.826	40.79
192.045	24.4
192.265	108.37
192.484	30.55
192.704	61.27
192.923	-24.75
193.142	30.55
193.362	-69.8
193.581	36.69
193.8	16.21
194.02	79.7
194.239	-20.65
194.458	42.84
194.678	-6.31
194.897	-10.41
195.116	1.88
195.335	40.79
195.555	38.74
195.774	-22.7
195.993	94.04
196.212	106.32
196.432	36.69
196.651	57.17
196.87	32.6
197.089	30.55
197.308	-12.46
197.528	-2.22
197.747	14.17
197.966	40.79
198.185	-14.51
198.404	51.03
198.623	32.6
198.842	24.4
199.062	18.26
199.281	77.65
199.5	96.08
199.719	14.17
199.938	81.75
200.157	24.4
200.376	40.79
200.595	28.5
200.814	-28.84
201.033	36.69
201.252	38.74
201.471	12.12
201.69	75.6
201.909	51.03
202.128	-14.51
202.347	26.45
202.566	8.02
202.785	26.45
203.004	5.97
203.223	3.93
203.442	42.84
203.661	22.36
203.879	8.02
204.098	42.84
204.317	59.22
204.536	46.93
204.755	-12.46
204.974	77.65
205.193	87.89
205.411	53.08
205.63	59.22
205.849	57.17
206.068	28.5
206.287	-22.7
206.505	18.26
206.724	-12.46
206.943	91.99
207.162	22.36
207.381	36.69
207.599	34.64
207.818	5.97
208.037	22.36
208.255	65.36
208.474	51.03
208.693	34.64
208.911	5.97
209.13	59.22
209.349	42.84
209.567	34.64
209.786	30.55
210.005	55.12
210.223	-8.36
210.442	-6.31
210.661	8.02
210.879	69.46
211.098	46.93
211.316	-26.79
211.535	38.74
211.753	67.41
211.972	34.64
212.191	-28.84
212.409	26.45
212.628	1.88
212.846	55.12
213.065	-24.75
213.283	22.36
213.502	51.03
213.72	53.08
213.938	12.12
214.157	22.36
214.375	22.36
214.594	67.41
214.812	63.32
215.031	-0.17
215.249	30.55
215.467	-8.36
215.686	1.88
215.904	42.84
216.122	75.6
216.341	81.75
216.559	38.74
216.778	67.41
216.996	44.88
217.214	34.64
217.432	65.36
217.651	71.51
217.869	-49.32
218.087	55.12
218.306	26.45
218.524	53.08
218.742	-6.31
218.96	69.46
219.179	-67.75
219.397	38.74
219.615	167.76
219.833	-24.75
220.051	-0.17
220.27	73.56
220.488	36.69
220.706	67.41
220.924	-34.99
221.142	63.32
221.36	42.84
221.578	22.36
221.796	-10.41
222.015	38.74
222.233	16.21
222.451	67.41
222.669	16.21
222.887	91.99
223.105	55.12
223.323	-2.22
223.541	-8.36
223.759	34.64
223.977	94.04
224.195	57.17
224.413	26.45
224.631	40.79
224.849	18.26
225.067	18.26
225.285	-26.79
225.503	-0.17
225.721	20.31
225.939	94.04
226.157	46.93
226.375	32.6
226.592	46.93
226.81	-34.99
227.028	16.21
227.246	32.6
227.464	65.36
227.682	112.47
227.9	32.6
228.117	87.89
228.335	18.26
228.553	36.69
228.771	75.6
228.989	22.36
229.206	-6.31
229.424	40.79
229.642	63.32
229.86	36.69
230.077	-30.89
230.295	85.84
230.513	1.88
230.731	40.79
230.948	114.52
231.166	44.88
231.384	-14.51
231.601	-16.55
231.819	79.7
232.037	106.32
232.254	46.93
232.472	55.12
232.689	87.89
232.907	48.98
233.125	-10.41
233.342	46.93
233.56	22.36
233.777	44.88
233.995	67.41
234.213	32.6
234.43	44.88
234.648	38.74
234.865	-8.36
235.083	116.56
235.3	-26.79
235.518	12.12
235.735	67.41
235.953	38.74
236.17	26.45
236.388	10.07
236.605	-0.17
236.822	8.02
237.04	-12.46
237.257	67.41
237.475	40.79
237.692	30.55
237.909	40.79
238.127	67.41
238.344	16.21
238.562	91.99
238.779	79.7
238.996	28.5
239.214	85.84
239.431	77.65
239.648	-22.7
239.865	26.45
240.083	30.55
240.3	12.12
240.517	-12.46
240.735	34.64
240.952	71.51
241.169	100.18
241.386	18.26
241.603	42.84
241.821	36.69
242.038	61.27
242.255	91.99
242.472	5.97
242.689	65.36
242.907	96.08
243.124	75.6
243.341	73.56
243.558	51.03
243.775	-0.17
243.992	59.22
244.209	-20.65
244.426	20.31
244.643	48.98
244.86	-0.17
245.078	-8.36
245.295	14.17
245.512	14.17
245.729	-16.55
245.946	36.69
246.163	32.6
246.38	94.04
246.597	55.12
246.814	61.27
247.031	30.55
247.248	59.22
247.464	53.08
247.681	-2.22
247.898	57.17
248.115	59.22
248.332	-4.27
248.549	53.08
248.766	94.04
248.983	-2.22
249.2	75.6
249.417	71.51
249.633	40.79
249.85	112.47
250.067	81.75
250.284	28.5
250.501	59.22
250.717	32.6
250.934	57.17
251.151	34.64
251.368	14.17
251.585	75.6
251.801	-8.36
252.018	1.88
252.235	83.8
252.451	-28.84
252.668	-14.51
252.885	30.55
253.102	98.13
253.318	10.07
253.535	34.64
253.752	20.31
253.968	42.84
254.185	63.32
254.401	69.46
254.618	34.64
254.835	81.75
255.051	53.08
255.268	16.21
255.484	22.36
255.701	65.36
255.917	59.22
256.134	32.6
256.351	53.08
256.567	36.69
256.784	120.66
257	-30.89
257.217	36.69
257.433	73.56
257.65	5.97
257.866	12.12
258.082	-14.51
258.299	32.6
258.515	18.26
258.732	3.93
258.948	46.93
259.165	5.97
259.381	81.75
259.597	-14.51
259.814	55.12
260.03	-14.51
260.246	55.12
260.463	32.6
260.679	28.5
260.895	24.4
261.112	5.97
261.328	-24.75
261.544	1.88
261.761	100.18
261.977	-26.79
262.193	55.12
262.409	104.28
262.626	-2.22
262.842	28.5
263.058	32.6
263.274	42.84
263.49	51.03
263.707	63.32
263.923	75.6
264.139	5.97
264.355	42.84
264.571	100.18
264.787	26.45
265.004	24.4
265.22	77.65
265.436	3.93
265.652	53.08
265.868	-0.17
266.084	22.36
266.3	-10.41
266.516	26.45
266.732	73.56
266.948	81.75
267.164	10.07
267.38	87.89
267.596	69.46
267.812	10.07
268.028	28.5
268.244	55.12
268.46	61.27
268.676	30.55
268.892	91.99
269.108	5.97
269.324	48.98
269.54	46.93
269.756	5.97
269.972	30.55
270.188	120.66
270.403	61.27
270.619	-28.84
270.835	-2.22
271.051	10.07
271.267	73.56
271.483	77.65
271.698	32.6
271.914	44.88
272.13	34.64
272.346	87.89
272.562	40.79
272.777	87.89
272.993	14.17
273.209	-10.41
273.425	79.7
273.64	51.03
273.856	75.6
274.072	30.55
274.287	75.6
274.503	65.36
274.719	-28.84
274.934	61.27
275.15	38.74
275.366	81.75
275.581	65.36
275.797	5.97
276.012	-2.22
276.228	8.02
276.444	65.36
276.659	171.86
276.875	83.8
277.09	12.12
277.306	38.74
277.521	53.08
277.737	38.74
277.952	91.99
278.168	12.12
278.383	59.22
278.599	94.04
278.814	42.84
279.03	22.36
279.245	24.4
279.461	-55.47
279.676	79.7
279.892	-4.27
280.107	-32.94
280.322	98.13
280.538	28.5
280.753	8.02
280.969	65.36
281.184	-37.03
281.399	61.27
281.615	51.03
281.83	44.88
282.045	20.31
282.26	32.6
282.476	-59.56
282.691	5.97
282.906	79.7
283.122	48.98
283.337	22.36
283.552	55.12
283.767	-34.99
283.983	44.88
284.198	57.17
284.413	100.18
284.628	12.12
284.843	42.84
285.058	16.21
285.274	-41.13
285.489	71.51
285.704	48.98
285.919	44.88
286.134	67.41
286.349	-10.41
286.564	122.71
286.779	63.32
286.995	94.04
287.21	59.22
287.425	79.7
287.64	-34.99
287.855	73.56
288.07	-0.17
288.285	20.31
288.5	116.56
288.715	83.8
288.93	30.55
289.145	57.17
289.36	26.45
289.575	38.74
289.79	8.02
290.004	1.88
290.219	30.55
290.434	61.27
290.649	48.98
290.864	30.55
291.079	18.26
291.294	85.84
291.509	1.88
291.724	53.08
291.938	42.84
292.153	69.46
292.368	-32.94
292.583	20.31
292.798	12.12
293.012	87.89
293.227	8.02
293.442	65.36
293.657	59.22
293.871	48.98
294.086	87.89
294.301	94.04
294.516	40.79
294.73	12.12
294.945	67.41
295.16	14.17
295.374	44.88
295.589	34.64
295.804	-51.37
296.018	28.5
296.233	46.93
296.447	20.31
296.662	-2.22
296.877	44.88
297.091	3.93
297.306	46.93
297.52	63.32
297.735	75.6
297.949	-0.17
298.164	26.45
298.378	73.56
298.593	38.74
298.807	67.41
299.022	106.32
299.236	12.12
299.451	87.89
299.665	1.88
299.88	40.79
300.094	51.03
300.309	57.17
300.523	18.26
300.737	24.4
300.952	71.51
301.166	38.74
301.381	67.41
301.595	83.8
301.809	-43.18
302.024	87.89
302.238	30.55
302.452	10.07
302.667	32.6
302.881	98.13
303.095	5.97
303.309	40.79
303.524	81.75
303.738	20.31
303.952	22.36
304.166	71.51
304.381	55.12
304.595	55.12
304.809	87.89
305.023	79.7
305.237	42.84
305.452	63.32
305.666	69.46
305.88	44.88
306.094	51.03
306.308	1.88
306.522	10.07
306.736	10.07
306.95	26.45
307.164	57.17
307.379	85.84
307.593	87.89
307.807	108.37
308.021	44.88
308.235	42.84
308.449	-16.55
308.663	79.7
308.877	67.41
309.091	36.69
309.305	-6.31
309.519	57.17
309.733	44.88
309.947	26.45
310.161	24.4
310.374	81.75
310.588	75.6
310.802	48.98
311.016	36.69
311.23	30.55
311.444	-32.94
311.658	-24.75
311.872	36.69
312.085	26.45
312.299	20.31
312.513	81.75
312.727	61.27
312.941	46.93
313.154	122.71
313.368	100.18
313.582	59.22
313.796	-2.22
314.009	51.03
314.223	30.55
314.437	79.7
314.651	24.4
314.864	89.94
315.078	104.28
315.292	77.65
315.505	-16.55
315.719	20.31
315.933	24.4
316.146	36.69
316.36	71.51
316.573	89.94
316.787	46.93
317.001	34.64
317.214	12.12
317.428	12.12
317.641	42.84
317.855	65.36
318.068	34.64
318.282	3.93
318.495	55.12
318.709	18.26
318.922	48.98
319.136	85.84
319.349	53.08
319.563	83.8
319.776	91.99
319.99	-22.7
320.203	44.88
320.417	57.17
320.63	36.69
320.843	110.42
321.057	48.98
321.27	141.14
321.483	102.23
321.697	40.79
321.91	-2.22
322.124	51.03
322.337	46.93
322.55	65.36
322.763	12.12
322.977	34.64
323.19	38.74
323.403	16.21
323.617	51.03
323.83	55.12
324.043	55.12
324.256	69.46
324.469	40.79
324.683	116.56
324.896	83.8
325.109	59.22
325.322	1.88
325.535	63.32
325.748	46.93
325.962	104.28
326.175	75.6
326.388	75.6
326.601	112.47
326.814	59.22
327.027	-41.13
327.24	69.46
327.453	-12.46
327.666	73.56
327.879	57.17
328.092	87.89
328.305	57.17
328.518	48.98
328.731	18.26
328.944	75.6
329.157	36.69
329.37	55.12
329.583	124.76
329.796	112.47
330.009	-123.05
330.222	161.62
330.435	1.88
330.648	34.64
330.861	14.17
331.073	-6.31
331.286	36.69
331.499	71.51
331.712	61.27
331.925	5.97
332.138	69.46
332.35	22.36
332.563	14.17
332.776	96.08
332.989	34.64
333.202	83.8
333.414	73.56
333.627	112.47
333.84	100.18
334.053	36.69
334.265	94.04
334.478	44.88
334.691	34.64
334.903	34.64
335.116	59.22
335.329	67.41
335.541	100.18
335.754	116.56
335.966	112.47
336.179	83.8
336.392	65.36
336.604	42.84
336.817	28.5
337.029	104.28
337.242	53.08
337.454	73.56
337.667	-18.6
337.88	63.32
338.092	-2.22
338.305	53.08
338.517	73.56
338.729	85.84
338.942	1.88
339.154	85.84
339.367	100.18
339.579	30.55
339.792	-0.17
340.004	28.5
340.217	69.46
340.429	12.12
340.641	20.31
340.854	57.17
341.066	26.45
341.278	65.36
341.491	40.79
341.703	120.66
341.915	59.22
342.128	48.98
342.34	132.95
342.552	34.64
342.764	120.66
342.977	-2.22
343.189	10.07
343.401	141.14
343.613	-10.41
343.826	67.41
344.038	63.32
344.25	83.8
344.462	42.84
344.674	98.13
344.886	75.6
345.099	55.12
345.311	55.12
345.523	-43.18
345.735	14.17
345.947	36.69
346.159	100.18
346.371	55.12
346.583	30.55
346.795	22.36
347.007	30.55
347.219	40.79
347.431	32.6
347.643	67.41
347.855	87.89
348.067	91.99
348.279	67.41
348.491	71.51
348.703	53.08
348.915	61.27
349.127	85.84
349.339	55.12
349.551	48.98
349.763	28.5
349.975	26.45
350.187	32.6
350.399	69.46
350.61	81.75
350.822	32.6
351.034	81.75
351.246	5.97
351.458	87.89
351.669	98.13
351.881	89.94
352.093	143.19
352.305	30.55
352.517	143.19
352.728	124.76
352.94	67.41
353.152	67.41
353.363	32.6
353.575	96.08
353.787	42.84
353.999	42.84
354.21	98.13
354.422	96.08
354.633	30.55
354.845	147.28
355.057	81.75
355.268	89.94
355.48	130.9
355.692	108.37
355.903	53.08
356.115	38.74
356.326	12.12
356.538	69.46
356.749	51.03
356.961	91.99
357.172	59.22
357.384	61.27
357.595	153.43
357.807	85.84
358.018	51.03
358.23	32.6
358.441	83.8
358.653	51.03
358.864	85.84
359.075	71.51
359.287	75.6
359.498	-10.41
359.709	22.36
359.921	18.26
360.132	67.41
360.344	59.22
360.555	91.99
360.766	59.22
360.977	44.88
361.189	44.88
361.4	112.47
361.611	128.85
361.823	89.94
362.034	53.08
362.245	34.64
362.456	-12.46
362.667	46.93
362.879	98.13
363.09	46.93
363.301	89.94
363.512	67.41
363.723	71.51
363.935	-2.22
364.146	34.64
364.357	118.61
364.568	-6.31
364.779	51.03
364.99	16.21
365.201	106.32
365.412	98.13
365.623	65.36
365.834	106.32
366.045	79.7
366.256	114.52
366.467	48.98
366.678	-0.17
366.889	83.8
367.1	87.89
367.311	89.94
367.522	-18.6
367.733	34.64
367.944	14.17
368.155	57.17
368.366	91.99
368.577	128.85
368.788	87.89
368.999	71.51
369.209	48.98
369.42	67.41
369.631	51.03
369.842	81.75
370.053	91.99
370.264	106.32
370.474	100.18
370.685	94.04
370.896	71.51
371.107	71.51
371.317	65.36
371.528	53.08
371.739	46.93
371.95	67.41
372.16	61.27
372.371	3.93
372.582	69.46
372.792	108.37
373.003	32.6
373.214	51.03
373.424	94.04
373.635	77.65
373.846	22.36
374.056	22.36
374.267	122.71
374.477	96.08
374.688	-10.41
374.898	81.75
375.109	71.51
375.319	-0.17
375.53	91.99
375.74	24.4
375.951	36.69
376.161	79.7
376.372	106.32
376.582	100.18
376.793	63.32
377.003	71.51
377.214	81.75
377.424	124.76
377.635	61.27
377.845	67.41
378.055	67.41
378.266	67.41
378.476	32.6
378.686	14.17
378.897	100.18
379.107	112.47
379.317	91.99
379.528	114.52
379.738	96.08
379.948	102.23
380.158	48.98
380.369	114.52
380.579	77.65
380.789	44.88
380.999	110.42
381.21	110.42
381.42	104.28
381.63	51.03
381.84	108.37
382.05	89.94
382.261	87.89
382.471	75.6
382.681	20.31
382.891	87.89
383.101	81.75
383.311	-39.08
383.521	77.65
383.731	55.12
383.941	85.84
384.151	108.37
384.361	81.75
384.571	53.08
384.781	67.41
384.991	12.12
385.201	159.57
385.411	116.56
385.621	75.6
385.831	38.74
386.041	55.12
386.251	65.36
386.461	26.45
386.671	165.71
386.881	55.12
387.091	106.32
387.301	57.17
387.511	73.56
387.72	132.95
387.93	75.6
388.14	34.64
388.35	55.12
388.56	44.88
388.769	110.42
388.979	81.75
389.189	46.93
389.399	94.04
389.609	167.76
389.818	77.65
390.028	137.04
390.238	161.62
390.447	61.27
390.657	153.43
390.867	61.27
391.076	71.51
391.286	108.37
391.496	83.8
391.705	42.84
391.915	135
392.125	59.22
392.334	114.52
392.544	91.99
392.753	124.76
392.963	46.93
393.172	118.61
393.382	91.99
393.591	102.23
393.801	42.84
394.01	124.76
394.22	34.64
394.429	118.61
394.639	104.28
394.848	46.93
395.058	110.42
395.267	110.42
395.477	139.09
395.686	100.18
395.895	139.09
396.105	143.19
396.314	100.18
396.524	132.95
396.733	87.89
396.942	128.85
397.152	48.98
397.361	108.37
397.57	100.18
397.78	87.89
397.989	100.18
398.198	182.1
398.407	139.09
398.617	141.14
398.826	130.9
399.035	163.67
399.244	108.37
399.453	153.43
399.663	210.77
399.872	167.76
400.081	51.03
400.29	153.43
400.499	147.28
400.708	173.91
400.917	132.95
401.127	112.47
401.336	198.48
401.545	218.96
401.754	218.96
401.963	169.81
402.172	151.38
402.381	104.28
402.59	173.91
402.799	126.8
403.008	196.43
403.217	210.77
403.426	173.91
403.635	155.47
403.844	147.28
404.053	130.9
404.262	132.95
404.471	161.62
404.68	188.24
404.888	143.19
405.097	116.56
405.306	188.24
405.515	196.43
405.724	276.31
405.933	200.53
406.142	169.81
406.35	190.29
406.559	214.87
406.768	274.26
406.977	231.25
407.185	178
407.394	321.36
407.603	227.15
407.812	180.05
408.02	255.83
408.229	276.31
408.438	206.67
408.646	264.02
408.855	378.7
409.064	307.02
409.272	276.31
409.481	309.07
409.69	327.5
409.898	382.8
410.107	360.27
410.315	468.81
410.524	280.4
410.733	413.52
410.941	438.09
411.15	403.28
411.358	372.56
411.567	491.34
411.775	450.38
411.984	462.67
412.192	501.58
412.401	477.01
412.609	540.49
412.818	556.88
413.026	593.74
413.234	587.6
413.443	614.22
413.651	603.98
413.86	624.46
414.068	767.82
414.276	626.51
414.485	685.9
414.693	843.59
414.901	831.3
415.11	843.59
415.318	919.37
415.526	862.02
415.734	882.5
415.943	915.27
416.151	898.89
416.359	945.99
416.567	1009.48
416.776	1050.44
416.984	1097.54
417.192	1122.12
417.4	1046.34
417.608	1154.88
417.817	1208.13
418.025	1201.99
418.233	1353.54
418.441	1298.24
418.649	1423.17
418.857	1496.89
419.065	1445.7
419.273	1603.39
419.481	1609.53
419.689	1679.16
419.897	1797.95
420.105	1711.93
420.313	1791.8
420.521	1945.4
420.729	1826.62
420.937	2008.89
421.145	2105.14
421.353	2219.83
421.561	2246.45
421.769	2240.31
421.977	2352.95
422.185	2428.72
422.393	2625.33
422.601	2543.41
422.809	2688.81
423.017	2600.75
423.224	2885.42
423.432	2852.65
423.64	2936.62
423.848	3112.74
424.056	3036.97
424.263	3385.12
424.471	3340.07
424.679	3481.38
424.887	3520.29
425.094	3880.73
425.302	3602.21
425.51	3948.31
425.718	3915.55
425.925	3970.84
426.133	4116.25
426.341	4470.55
426.548	4538.13
426.756	4601.62
426.964	4630.29
427.171	4816.65
427.379	4996.87
427.586	5142.28
427.794	5359.36
428.001	5635.84
428.209	5895.93
428.417	5656.32
428.624	6006.52
428.832	6219.51
429.039	6033.15
429.247	6096.63
429.454	6668.02
429.662	7130.86
429.869	6731.5
430.076	7089.9
430.284	7044.84
430.491	7139.05
430.699	7646.94
430.906	7640.8
431.114	7798.49
431.321	7935.71
431.528	8357.59
431.736	8597.2
431.943	9035.47
432.15	8883.92
432.358	8832.72
432.565	9656
432.772	9260.74
432.979	9780.93
433.187	10172.09
433.394	10170.04
433.601	10819.25
433.808	10892.98
434.016	10735.28
434.223	11349.67
434.43	11853.47
434.637	11663.01
434.844	12342.94
435.052	12680.85
435.259	12568.21
435.466	12676.76
435.673	12476.05
435.88	13366.92
436.087	14182.01
436.294	14198.4
436.501	13708.93
436.708	14315.13
436.915	14528.12
437.122	15535.72
437.329	15122.03
437.537	15316.59
437.743	16055.9
437.95	15853.16
438.157	16578.14
438.364	17233.49
438.571	17360.46
438.778	17319.5
438.985	18751.03
439.192	18112.06
439.399	18945.59
439.606	18275.9
439.813	19299.89
440.02	20278.82
440.227	20319.78
440.433	20078.11
440.64	20717.08
440.847	20659.74
441.054	20987.41
441.261	22498.81
441.467	22216.19
441.674	22361.6
441.881	23401.97
442.088	23471.6
442.294	23496.17
442.501	23827.95
442.708	24493.54
442.914	25361.87
443.121	26224.07
443.328	25654.73
443.534	27413.94
443.741	26469.83
443.948	26441.15
444.154	28292.52
444.361	27921.84
444.568	28241.32
444.774	28233.13
444.981	28542.37
445.187	29805.97
445.394	30705.02
445.6	30336.39
445.807	33281.37
446.013	31722.87
446.22	32437.61
446.426	33506.65
446.633	33920.34
446.839	34991.42
447.046	33676.63
447.252	35423.54
447.459	35577.14
447.665	35290.43
447.871	36736.29
448.078	38325.52
448.284	36676.9
448.491	37526.81
448.697	38919.43
448.903	39505.15
449.11	39558.39
449.316	38790.41
449.522	39636.22
449.728	40748.26
449.935	41002.21
450.141	41002.21
450.347	42001.62
450.553	40713.45
450.76	41209.06
450.966	42284.24
451.172	41659.61
451.378	42835.14
451.584	42050.77
451.791	42933.45
451.997	42855.62
452.203	43527.36
452.409	43474.11
452.615	43404.48
452.821	41581.79
453.027	41299.17
453.233	42984.65
453.44	41331.93
453.646	42294.48
453.852	42218.71
454.058	42773.7
454.264	41190.62
454.47	42276.05
454.676	41549.02
454.882	42360.01
455.088	38753.54
455.294	39562.49
455.5	40176.88
455.705	40254.7
455.911	38833.41
456.117	38292.75
456.323	37735.7
456.529	35499.32
456.735	36846.88
456.941	36177.2
457.147	35597.62
457.352	34266.44
457.558	34004.3
457.764	34108.75
457.97	33342.81
458.176	32382.31
458.381	32589.16
458.587	30819.71
458.793	31403.38
458.999	29396.37
459.204	31659.38
459.41	30741.89
459.616	28685.73
459.821	28638.62
460.027	28327.33
460.233	27946.41
460.438	26512.83
460.644	26856.89
460.85	25904.59
461.055	25558.48
461.261	25322.96
461.466	23526.89
461.672	22345.22
461.878	24473.06
462.083	22562.3
462.289	22187.52
462.494	22253.06
462.7	21128.72
462.905	20526.62
463.111	21483.02
463.316	21485.07
463.522	20977.17
463.727	20827.67
463.932	21095.96
464.138	20844.06
464.343	20917.78
464.549	20377.12
464.754	20835.86
464.959	20776.47
465.165	20678.17
465.37	19998.24
465.575	19422.76
465.781	19906.09
465.986	20219.42
466.191	19338.8
466.397	19232.3
466.602	18091.59
466.807	19074.61
467.012	18867.77
467.218	18568.76
467.423	18341.44
467.628	18701.88
467.833	19562.03
468.038	18656.82
468.244	18083.39
468.449	19037.75
468.654	18355.77
468.859	18105.92
469.064	18114.11
469.269	17575.5
469.474	17376.84
469.679	17512.01
469.885	17448.52
470.09	17411.66
470.295	17571.4
470.5	16936.53
470.705	17249.87
470.91	16787.03
471.115	16539.22
471.32	16909.91
471.525	16430.68
471.73	16328.28
471.935	16168.54
472.139	15603.3
472.344	16213.6
472.549	15701.61
472.754	15267.44
472.959	15474.28
473.164	14730.87
473.369	14767.73
473.574	15222.38
473.778	15076.98
473.983	14993.01
474.188	15156.85
474.393	14333.56
474.598	14288.51
474.802	14001.79
475.007	14108.29
475.212	13999.74
475.417	13545.09
475.621	13596.29
475.826	13682.31
476.031	13418.12
476.235	13100.69
476.44	13366.92
476.645	12975.76
476.849	13149.84
477.054	12883.6
477.259	12766.87
477.463	12721.81
477.668	12551.83
477.872	12586.65
478.077	12295.83
478.282	12021.41
478.486	12011.17
478.691	12023.45
478.895	11951.77
479.1	11810.47
479.304	11906.72
479.509	11476.65
479.713	11734.69
479.918	11423.4
480.122	11402.92
480.326	11523.75
480.531	11574.95
480.735	11230.89
480.94	11110.06
481.144	11779.75
481.348	11212.46
481.553	11151.02
481.757	10907.31
481.961	10964.65
482.166	11210.41
482.37	11183.79
482.574	10919.6
482.778	10987.18
482.983	11267.75
483.187	11058.86
483.391	11024.05
483.595	11026.09
483.8	10921.65
484.004	11140.78
484.208	11110.06
484.412	11275.95
484.616	11323.05
484.821	10972.85
485.025	11036.33
485.229	11331.24
485.433	10976.94
485.637	11062.96
485.841	10911.41
486.045	11124.4
486.249	11110.06
486.453	11144.88
486.657	11157.16
486.861	11042.48
487.065	10761.91
487.269	11060.91
487.473	10839.73
487.677	11208.36
487.881	11173.55
488.085	10888.88
488.289	11187.88
488.493	11177.64
488.697	11081.39
488.901	11185.83
489.105	11288.23
489.309	11187.88
489.512	11095.72
489.716	11095.72
489.92	11419.3
490.124	11177.64
490.328	11558.56
490.531	11351.72
490.735	11382.44
490.939	11716.26
491.143	11265.71
491.346	11519.65
491.55	11695.78
491.754	11603.62
491.958	11708.07
492.161	11738.79
492.365	11878.05
492.569	11777.7
492.772	11628.2
492.976	12113.56
493.18	12066.46
493.383	11919.01
493.587	12070.56
493.79	12160.67
493.994	12058.27
494.197	12381.85
494.401	12349.08
494.605	12357.27
494.808	12459.67
495.012	12633.75
495.215	12605.08
495.419	12805.78
495.622	12816.02
495.825	13004.43
496.029	13112.97
496.232	13207.18
496.436	13153.93
496.639	13506.18
496.843	13602.44
497.046	13880.96
497.249	14012.03
497.453	14034.56
497.656	14212.73
497.859	14130.81
498.063	14284.41
498.266	14753.4
498.469	14790.26
498.673	14700.15
498.876	14900.85
499.079	15052.4
499.282	15132.27
499.485	15371.88
499.689	15744.61
499.892	15832.68
500.095	16135.78
500.298	16397.92
500.501	15961.7
500.705	16508.51
500.908	16707.16
501.111	16942.67
501.314	17260.11
501.517	16864.85
501.72	17366.6
501.923	17342.03
502.126	17804.87
502.329	18107.97
502.532	18091.59
502.735	18296.38
502.938	18742.84
503.141	18521.66
503.344	19043.89
503.547	19025.46
503.75	19263.02
503.953	19670.57
504.156	19772.97
504.359	19906.09
504.562	20155.94
504.765	20661.79
504.968	20325.92
505.17	20905.49
505.373	20948.5
505.576	21175.83
505.779	21648.91
505.982	21663.24
506.185	21954.05
506.387	22384.13
506.59	22609.4
506.793	22971.89
506.996	22822.39
507.198	23735.79
507.401	23231.99
507.604	23645.68
507.807	24204.77
508.009	24169.96
508.212	24243.68
508.415	24774.11
508.617	24991.19
508.82	24915.42
509.022	25109.97
509.225	25796.04
509.428	25994.7
509.63	26107.33
509.833	26297.8
510.035	26979.77
510.238	27098.55
510.44	27297.2
510.643	27637.17
510.845	28247.46
511.048	27733.42
511.25	28136.87
511.453	28235.17
511.655	29455.76
511.858	28937.63
512.06	29509.01
512.262	29670.8
512.465	29425.04
512.667	30287.24
512.87	30567.81
513.072	30600.58
513.274	31268.22
513.477	31563.12
513.679	31657.33
513.881	32122.22
514.084	32789.86
514.286	32566.63
514.488	32646.5
514.69	33887.57
514.893	33846.61
515.095	33443.16
515.297	34415.94
515.499	34280.78
515.701	35048.77
515.904	35063.1
516.106	35466.55
516.308	35913.01
516.51	36105.52
516.712	36162.86
516.914	36805.92
517.116	37403.93
517.318	37434.65
517.52	37696.79
517.722	37627.16
517.925	38243.6
518.127	38726.92
518.329	38825.22
518.531	39142.66
518.733	39841.01
518.935	40103.15
519.136	40226.03
519.338	41231.58
519.54	40953.06
519.742	41422.05
519.944	41571.55
520.146	42183.89
520.348	42026.2
520.55	42720.46
520.752	42738.89
520.954	43553.98
521.155	43379.9
521.357	43920.57
521.559	44270.77
521.761	44956.84
521.963	44569.77
522.164	44571.82
522.366	45081.77
522.568	45509.79
522.77	46167.19
522.971	46621.84
523.173	46011.54
523.375	46689.42
523.576	46660.75
523.778	46648.46
523.98	47848.57
524.181	48147.57
524.383	47619.2
524.584	48577.65
524.786	48696.43
524.988	48614.51
525.189	49376.36
525.391	49163.37
525.592	49593.44
525.794	49740.89
525.995	50105.43
526.197	49966.17
526.398	50136.15
526.6	50351.19
526.801	50654.29
527.003	51143.75
527.204	50908.24
527.406	51891.26
527.607	51399.75
527.808	52171.83
528.01	51186.76
528.211	51608.64
528.412	53031.98
528.614	52280.38
528.815	52530.23
529.016	53218.35
529.218	52464.69
529.419	53290.02
529.62	53066.8
529.822	53040.17
530.023	52898.86
530.224	53304.36
530.425	53306.41
530.626	53107.75
530.828	52890.67
531.029	54574.1
531.23	53382.18
531.431	53369.89
531.632	53394.47
531.833	54416.41
532.035	54107.16
532.236	54139.93
532.437	54148.12
532.638	53906.46
532.839	54635.54
533.04	54832.14
533.241	54154.27
533.442	55061.52
533.643	54502.42
533.844	54504.47
534.045	54545.43
534.246	54406.17
534.447	54733.84
534.648	54959.12
534.849	54588.44
535.05	54373.4
535.251	54815.76
535.451	54469.65
535.652	54709.27
535.853	54694.93
536.054	54567.96
536.255	55186.44
536.456	54717.46
536.657	55454.73
536.857	54596.63
537.058	54811.66
537.259	54832.14
537.46	54932.5
537.66	54965.26
537.861	55172.11
538.062	54674.45
538.263	55045.13
538.463	54426.65
538.664	55239.69
538.865	54965.26
539.065	55047.18
539.266	54553.62
539.466	55139.34
539.667	54766.61
539.868	55282.7
540.068	54842.38
540.269	54922.26
540.469	55581.7
540.67	54631.44
540.87	55010.32
541.071	54930.45
541.271	54926.35
541.472	54465.56
541.672	54352.92
541.873	54529.05
542.073	54443.03
542.274	55045.13
542.474	54578.2
542.675	54692.88
542.875	55137.29
543.075	54649.88
543.276	54637.59
543.476	54858.77
543.676	54598.68
543.877	55063.57
544.077	54410.26
544.277	54805.52
544.478	54529.05
544.678	55266.31
544.878	54848.53
545.078	54787.09
545.279	54205.47
545.479	54750.23
545.679	54914.06
545.879	54623.25
546.079	54529.05
546.28	54891.54
546.48	54137.88
546.68	54834.19
546.88	54793.23
547.08	54889.49
547.28	54699.03
547.48	54400.02
547.68	54699.03
547.88	54336.54
548.081	54893.58
548.281	54744.08
548.481	54617.11
548.681	54891.54
548.881	54656.02
549.081	54699.03
549.28	54275.1
549.48	54809.62
549.68	54555.67
549.88	55190.54
550.08	54217.75
550.28	54316.06
550.48	54946.83
550.68	54873.1
550.88	54238.23
551.08	54201.37
551.279	54797.33
551.479	54232.09
551.679	54764.56
551.879	54207.51
552.079	54893.58
552.278	54127.64
552.478	54340.63
552.678	54373.4
552.878	54658.07
553.077	54750.23
553.277	54197.27
553.477	54858.77
553.676	54797.33
553.876	54103.07
554.076	54449.17
554.275	53701.67
554.475	53386.28
554.674	53982.24
554.874	54205.47
555.074	54203.42
555.273	54191.13
555.473	54397.98
555.672	53666.85
555.872	53967.9
556.071	54141.98
556.271	54053.92
556.47	53601.32
556.67	53527.59
556.869	53433.38
557.068	53752.87
557.268	53455.91
557.467	53941.28
557.667	53632.03
557.866	53300.26
558.065	53513.25
558.265	53505.06
558.464	52595.76
558.663	53783.58
558.863	53304.36
559.062	53392.42
559.261	52501.56
559.461	53140.52
559.66	52538.42
559.859	52931.63
560.058	52161.59
560.258	52444.21
560.457	51833.92
560.656	52952.11
560.855	52360.25
561.054	52825.14
561.253	52380.73
561.453	52112.44
561.652	52046.91
561.851	52880.43
562.05	51872.83
562.249	51891.26
562.448	52108.35
562.647	52175.93
562.846	52030.52
563.045	52268.09
563.244	51668.03
563.443	51905.6
563.642	51022.92
563.841	51719.23
564.04	51047.5
564.239	51579.97
564.438	51217.48
564.637	51461.19
564.836	51233.86
565.035	50381.91
565.234	50750.54
565.432	50625.62
565.631	50424.92
565.83	50738.26
566.029	50293.85
566.228	50396.24
566.427	50564.18
566.625	49876.06
566.824	49695.84
567.023	50238.55
567.222	49427.56
567.42	50146.39
567.619	49663.07
567.818	49708.13
568.016	49419.36
568.215	49572.96
568.414	49390.69
568.612	49779.81
568.811	49208.42
569.01	49200.23
569.208	48628.85
569.407	48966.76
569.605	48297.08
569.804	48626.8
570.002	48278.64
570.201	48710.77
570.4	48149.62
570.598	48223.35
570.797	47873.15
570.995	47946.87
571.193	47178.89
571.392	48235.64
571.59	47506.56
571.789	47789.18
571.987	47453.31
572.186	47484.03
572.384	46740.62
572.582	47434.88
572.781	47463.55
572.979	46470.29
573.177	46683.28
573.376	46998.66
573.574	46386.32
573.772	46924.94
573.971	46562.45
574.169	46013.59
574.367	46132.37
574.565	46324.88
574.763	45978.78
574.962	46032.02
575.16	45333.67
575.358	45870.23
575.556	45061.29
575.754	46189.72
575.952	45218.98
576.151	45917.34
576.349	45046.95
576.547	45051.05
576.745	44954.79
576.943	45061.29
577.141	44946.6
577.339	44772.52
577.537	44440.75
577.735	44639.4
577.933	44362.93
578.131	44670.12
578.329	43803.83
578.527	44309.68
578.725	44225.71
578.923	44022.97
579.121	43932.85
579.319	43627.71
579.516	44143.8
579.714	43564.22
579.912	43558.08
580.11	43672.76
580.308	43025.6
580.506	43359.42
580.704	42466.51
580.901	43029.7
581.099	42955.97
581.297	42484.94
581.495	42441.93
581.692	42540.24
581.89	42441.93
582.088	42274
582.285	42181.84
582.483	42581.2
582.681	42306.77
582.878	42052.82
583.076	41891.03
583.274	42286.29
583.471	41368.8
583.669	41622.75
583.866	41471.2
584.064	41479.39
584.262	40924.39
584.459	41409.76
584.657	40903.91
584.854	41102.56
585.052	40445.16
585.249	40979.68
585.447	40684.78
585.644	40484.08
585.841	40373.49
586.039	40725.74
586.236	40293.61
586.434	40008.95
586.631	39845.11
586.828	40037.62
587.026	40064.24
587.223	40113.39
587.42	39496.95
587.618	39830.77
587.815	39331.07
588.012	39544.06
588.21	39179.52
588.407	39568.63
588.604	39013.63
588.801	38716.68
588.999	39023.87
589.196	38749.45
589.393	38792.45
589.59	38724.87
589.787	38366.48
589.984	38393.1
590.182	38069.52
590.379	38448.39
590.576	38259.98
590.773	38468.87
590.97	37762.33
591.167	38135.06
591.364	37174.56
591.561	37416.22
591.758	37139.74
591.955	37494.04
592.152	37309.72
592.349	36939.04
592.546	37096.74
592.743	37360.92
592.94	36621.61
593.137	36791.59
593.334	36857.12
593.531	36138.29
593.727	36683.05
593.924	36594.98
594.121	36281.64
594.318	36474.15
594.515	35872.05
594.712	35994.93
594.908	35892.53
595.105	35999.02
595.302	35446.07
595.499	35937.58
595.696	35435.83
595.892	35462.46
596.089	35763.51
596.286	35261.76
596.482	35263.8
596.679	35306.81
596.876	35018.05
597.072	34688.32
597.269	34927.94
597.466	34424.14
597.662	34461
597.859	34526.53
598.055	34710.85
598.252	34348.36
598.448	34213.2
598.645	34149.71
598.841	34100.56
599.038	33711.44
599.234	34082.13
599.431	33957.2
599.627	34243.91
599.824	34057.55
600.02	33398.1
600.217	33230.17
600.413	33690.96
600.609	33131.87
600.806	32738.66
601.002	33240.41
601.198	33189.21
601.395	32824.67
601.591	32542.05
601.787	32800.1
601.984	32750.95
602.18	32998.75
602.376	32066.92
602.572	32410.98
602.769	32157.03
602.965	31907.18
603.161	32189.8
603.357	32157.03
603.553	31933.81
603.75	32001.39
603.946	31642.99
604.142	31827.31
604.338	31053.18
604.534	31217.02
604.73	30832
604.926	31108.47
605.122	31319.42
605.318	31159.67
605.514	30903.68
605.71	30797.18
605.906	30721.41
606.102	30920.06
606.298	31092.09
606.494	30627.2
606.69	30709.12
606.886	30776.7
607.082	30279.05
607.278	30641.54
607.474	29830.54
607.67	30739.84
607.866	29570.45
608.062	30107.02
608.257	30088.59
608.453	30008.72
608.649	30363.01
608.845	29740.43
609.041	29672.85
609.236	29730.19
609.432	29674.9
609.628	29627.79
609.824	29330.84
610.019	29480.34
610.215	29484.44
610.411	29681.04
610.606	29289.88
610.802	29474.2
610.998	29070.75
611.193	29105.56
611.389	29046.17
611.584	28769.69
611.78	28765.6
611.976	29162.9
612.171	28925.34
612.367	29189.53
612.562	28573.09
612.758	28409.25
612.953	28204.45
613.149	28450.21
613.344	28376.48
613.539	28937.63
613.735	28505.51
613.93	28593.57
614.126	28401.06
614.321	28552.61
614.517	28081.58
614.712	28382.63
614.907	27868.59
615.103	28534.18
615.298	28212.65
615.493	28110.25
615.688	27805.1
615.884	28401.06
616.079	27356.6
616.274	28192.17
616.47	27862.44
616.665	27772.33
616.86	27340.21
617.055	27458.99
617.25	27588.02
617.445	27676.08
617.641	27094.46
617.836	27358.64
618.031	27170.23
618.226	27379.12
618.421	27082.17
618.616	26830.27
618.811	26639.81
619.006	27250.1
619.201	26678.72
619.396	26916.28
619.591	26512.83
619.786	26891.71
619.981	26097.1
620.176	26508.74
620.371	26170.82
620.566	26254.79
620.761	25992.65
620.956	26332.61
621.151	25558.48
621.346	25873.87
621.541	25302.48
621.735	25925.07
621.93	25331.15
622.125	25230.8
622.32	24913.37
622.515	25132.5
622.709	24970.71
622.904	24872.41
623.099	24677.85
623.294	24530.4
623.488	24262.12
623.683	24325.6
623.878	24010.21
624.072	23985.64
624.267	24155.62
624.462	23846.38
624.656	23834.09
624.851	23481.84
625.046	23408.11
625.24	23215.6
625.435	23117.3
625.629	23182.84
625.824	23057.91
626.018	23121.4
626.213	22291.97
626.407	22904.31
626.602	22216.19
626.796	22470.14
626.991	22410.75
627.185	22126.08
627.38	22009.35
627.574	21968.39
627.768	21782.02
627.963	21659.15
628.157	21753.35
628.352	21554.7
628.546	21333.52
628.74	21618.19
628.935	21173.78
629.129	20964.89
629.323	20848.15
629.517	20960.79
629.712	20860.44
629.906	20866.58
630.1	20229.66
630.294	20770.33
630.489	20502.04
630.683	20649.5
630.877	19787.3
631.071	20162.08
631.265	20211.23
631.459	19680.81
631.653	19871.27
631.848	19502.64
632.042	19338.8
632.236	19592.75
632.43	19557.93
632.624	19324.46
632.818	19150.39
633.012	18921.01
633.206	18974.26
633.4	19066.42
633.594	18558.52
633.788	18855.48
633.982	18593.34
634.176	18574.91
634.369	18024
634.563	18497.08
634.757	18210.37
634.951	18329.15
635.145	18083.39
635.339	18181.7
635.533	17950.28
635.726	17970.76
635.92	17696.33
636.114	17768.01
636.308	17618.5
636.501	17624.65
636.695	17573.45
636.889	17342.03
637.083	16911.96
637.276	17137.23
637.47	17061.46
637.664	17092.18
637.857	16784.98
638.051	17032.79
638.244	16643.67
638.438	16612.95
638.632	16387.68
638.825	16088.67
639.019	16225.89
639.212	16485.98
639.406	16045.66
639.599	16121.44
639.793	16070.24
639.986	15787.62
640.18	15855.2
640.373	15787.62
640.567	15593.06
640.76	15513.19
640.954	15300.2
641.147	15365.74
641.34	15201.9
641.534	15152.75
641.727	15158.89
641.92	14997.1
642.114	14878.32
642.307	14595.7
642.5	14831.22
642.694	14718.58
642.887	14663.29
643.08	14667.38
643.273	14395
643.467	14405.24
643.66	14257.79
643.853	14141.05
644.046	14132.86
644.239	14110.33
644.432	14020.22
644.626	13930.11
644.819	13665.92
645.012	13614.73
645.205	13747.84
645.398	13645.45
645.591	13541
645.784	13473.42
645.977	13334.15
646.17	13297.29
646.363	13182.6
646.556	13194.89
646.749	13117.07
646.942	13299.34
647.135	12854.93
647.328	13280.91
647.521	12643.99
647.714	12752.53
647.907	12863.12
648.099	12650.13
648.292	12859.03
648.485	12566.17
648.678	12443.29
648.871	12519.06
649.064	12324.51
649.256	12689.04
649.449	12400.28
649.642	12134.04
649.835	12013.21
650.027	11990.69
650.22	11939.49
650.413	12007.07
650.605	12095.13
650.798	11851.42
650.991	11775.65
651.183	11681.44
651.376	11497.13
651.568	11607.72
651.761	11499.17
651.954	11443.88
652.146	11296.42
652.339	11261.61
652.531	11198.12
652.724	11208.36
652.916	11034.28
653.109	10966.7
653.301	11183.79
653.494	11054.76
653.686	10581.68
653.879	11065
654.071	10743.47
654.263	10639.03
654.456	10862.26
654.648	10657.46
654.84	10579.64
655.033	10399.41
655.225	10280.63
655.417	10374.84
655.61	10294.97
655.802	10307.26
655.994	10358.46
656.186	10340.02
656.379	10053.31
656.571	10145.47
656.763	10192.57
656.955	9901.76
657.148	10100.41
657.34	9856.7
657.532	9758.4
657.724	9627.33
657.916	9907.9
658.108	9785.02
658.3	9670.34
658.492	9430.73
658.684	9426.63
658.876	9455.3
659.068	9273.03
659.26	9574.08
659.452	9316.04
659.644	9148.11
659.836	9092.81
660.028	9273.03
660.22	8980.17
660.412	8963.79
660.604	8924.88
660.796	9023.18
660.988	8931.02
661.18	8793.81
661.372	8971.98
661.563	8806.09
661.755	8672.98
661.947	8851.15
662.139	8615.63
662.331	8689.36
662.522	8591.06
662.714	8806.09
662.906	8449.75
663.097	8488.66
663.289	8447.7
663.481	8521.43
663.673	8476.37
663.864	8341.21
664.056	8382.17
664.247	8212.18
664.439	7954.14
664.631	8046.3
664.822	7954.14
665.014	8103.64
665.205	8115.93
665.397	7986.91
665.588	7939.8
665.78	7907.04
665.971	8036.06
666.163	7943.9
666.354	7778.01
666.546	7849.69
666.737	7560.93
666.929	7657.18
667.12	7689.95
667.311	7513.83
667.503	7601.89
667.694	7468.77
667.885	7395.04
668.077	7550.69
668.268	7331.56
668.459	7395.04
668.651	7399.14
668.842	7526.11
669.033	7386.85
669.224	7278.31
669.416	7202.54
669.607	7304.93
669.798	7345.89
669.989	7292.65
670.18	7163.62
670.371	7020.27
670.563	6942.44
670.754	7096.04
670.945	6864.62
671.136	6870.76
671.327	6874.86
671.518	6739.69
671.709	6799.09
671.9	6860.52
672.091	6786.8
672.282	6733.55
672.473	6663.92
672.664	6870.76
672.855	6700.78
673.046	6659.82
673.237	6622.96
673.428	6663.92
673.619	6573.81
673.809	6495.99
674	6356.72
674.191	6579.95
674.382	6498.03
674.573	6491.89
674.764	6305.53
674.954	6493.94
675.145	6369.01
675.336	6055.67
675.527	6356.72
675.717	6188.79
675.908	6051.58
676.099	6145.78
676.289	6229.75
676.48	6225.65
676.671	6119.16
676.861	6248.18
677.052	6051.58
677.243	6020.86
677.433	5957.37
677.624	6135.54
677.814	6018.81
678.005	5947.13
678.195	5934.84
678.386	5832.44
678.576	5832.44
678.767	5842.68
678.957	5883.64
679.148	5900.03
679.338	5893.88
679.529	5871.36
679.719	5545.73
679.909	5920.51
680.1	5691.13
680.29	5818.11
680.481	5738.24
680.671	5607.17
680.861	5768.96
681.052	5750.53
681.242	5754.62
681.432	5605.12
681.622	5566.21
681.813	5615.36
682.003	5666.56
682.193	5566.21
682.383	5619.46
682.573	5529.34
682.764	5637.89
682.954	5744.38
683.144	5498.63
683.334	5521.15
683.524	5488.39
683.714	5603.07
683.904	5302.02
684.094	5521.15
684.284	5459.71
684.474	5545.73
684.664	5428.99
684.854	5379.84
685.044	5285.64
685.234	5392.13
685.424	5486.34
685.614	5345.03
685.804	5308.16
685.994	5281.54
686.184	5234.44
686.374	5236.49
686.564	5123.85
686.753	5293.83
686.943	5166.85
687.133	5101.32
687.323	5201.67
687.513	5181.19
687.702	5078.79
687.892	4970.25
688.082	5101.32
688.272	5158.66
688.461	5076.74
688.651	5048.07
688.841	4960.01
689.03	5105.42
689.22	4962.06
689.41	5031.69
689.599	4921.1
689.789	4919.05
689.979	4863.76
690.168	5009.16
690.358	4779.79
690.547	4689.68
690.737	4699.92
690.926	4732.69
691.116	4783.88
691.305	4804.36
691.495	4663.05
691.684	4671.25
691.874	4574.99
692.063	4773.64
692.252	4863.76
692.442	4601.62
692.631	4548.37
692.82	4654.86
693.01	4595.47
693.199	4574.99
693.388	4505.36
693.578	4579.09
693.767	4538.13
693.956	4394.77
694.146	4486.93
694.335	4572.94
694.524	4359.95
694.713	4654.86
694.902	4368.15
695.092	4300.56
695.281	4462.35
695.47	4384.53
695.659	4417.3
695.848	4345.62
696.037	4357.91
696.226	4480.78
696.415	4249.36
696.604	4482.83
696.793	4321.04
696.982	4298.52
697.171	4437.78
697.36	4448.02
697.549	4425.49
697.738	4257.56
697.927	4357.91
698.116	4337.43
698.305	4312.85
698.494	4366.1
698.683	4337.43
698.872	4290.32
699.061	4224.79
699.25	4337.43
699.438	4337.43
699.627	4286.23
699.816	4249.36
700.005	4202.26
700.193	4114.2
700.382	4302.61
700.571	4314.9
700.76	4306.71
700.948	4237.08
701.137	4183.83
701.326	4230.93
701.514	4151.06
701.703	4196.12
701.892	4063
702.08	4232.98
702.269	4243.22
702.457	4155.16
702.646	4169.49
702.834	4015.9
703.023	4132.63
703.212	4011.8
703.4	4206.36
703.589	4204.31
703.777	4189.97
703.965	4017.94
704.154	4208.41
704.342	3958.55
704.531	4091.67
704.719	3966.74
704.907	4050.71
705.096	4009.75
705.284	3960.6
705.472	4042.52
705.661	3931.93
705.849	4163.35
706.037	3983.13
706.226	3997.46
706.414	3952.41
706.602	4130.58
706.79	3913.5
706.979	4019.99
707.167	4079.38
707.355	3958.55
707.543	4095.77
707.731	4001.56
707.919	3911.45
708.107	3868.44
708.296	3915.55
708.484	3841.82
708.672	3880.73
708.86	3845.91
709.048	3798.81
709.236	3886.87
709.424	4007.7
709.612	4001.56
709.8	3870.49
709.988	3815.2
710.176	3835.67
710.364	3825.43
710.551	3966.74
710.739	3847.96
710.927	3952.41
711.115	3862.3
711.303	3802.91
711.491	3839.77
711.679	3817.24
711.866	3774.24
712.054	3852.06
712.242	3702.56
712.43	3886.87
712.617	3753.76
712.805	3637.02
712.993	3659.55
713.181	3694.36
713.368	3649.31
713.556	3831.58
713.744	3626.78
713.931	3790.62
714.119	3716.89
714.306	3610.4
714.494	3688.22
714.682	3596.06
714.869	3589.92
715.057	3663.65
715.244	3653.41
715.432	3667.74
715.619	3462.94
715.807	3626.78
715.994	3643.17
716.182	3536.67
716.369	3489.57
716.556	3622.69
716.744	3639.07
716.931	3561.25
717.119	3571.49
717.306	3546.91
717.493	3544.86
717.681	3503.9
717.868	3553.06
718.055	3622.69
718.242	3565.34
718.43	3587.87
718.617	3569.44
718.804	3626.78
718.991	3505.95
719.179	3503.9
719.366	3563.29
719.553	3542.82
719.74	3399.46
719.927	3577.63
720.114	3475.23
720.301	3569.44
720.488	3532.58
720.676	3426.08
720.863	3391.27
721.05	3483.42
721.237	3456.8
721.424	3528.48
721.611	3471.14
721.798	3448.61
721.985	3368.74
722.172	3376.93
722.358	3395.36
722.545	3348.26
722.732	3450.66
722.919	3479.33
723.106	3319.59
723.293	3393.31
723.48	3286.82
723.667	3450.66
723.853	3311.39
724.04	3503.9
724.227	3344.16
724.414	3270.44
724.6	3303.2
724.787	3270.44
724.974	3378.98
725.161	3485.47
725.347	3243.81
725.534	3280.68
725.72	3258.15
725.907	3370.79
726.094	3270.44
726.28	3258.15
726.467	3342.11
726.653	3249.96
726.84	3340.07
727.027	3245.86
727.213	3172.13
727.4	3209
727.586	3096.36
727.773	3213.09
727.959	3151.65
728.145	3221.28
728.332	3200.8
728.518	3303.2
728.705	3198.76
728.891	3204.9
729.077	3104.55
729.264	3200.8
729.45	3188.52
729.636	3217.19
729.823	3233.57
730.009	3284.77
730.195	3194.66
730.382	3290.92
730.568	3086.12
730.754	3114.79
730.94	3237.67
731.126	3063.59
731.313	3194.66
731.499	3063.59
731.685	3102.5
731.871	3116.84
732.057	3131.17
732.243	3159.85
732.429	3090.21
732.615	3022.63
732.801	3143.46
732.987	3004.2
733.173	3010.34
733.359	3137.32
733.545	3053.35
733.731	2912.04
733.917	3094.31
734.103	3057.45
734.289	3030.82
734.475	3036.97
734.661	3092.26
734.847	2979.62
735.033	3010.34
735.219	3127.08
735.404	2981.67
735.59	2856.75
735.776	2914.09
735.962	3028.78
736.148	3036.97
736.333	2959.14
736.519	2940.71
736.705	2893.61
736.89	2895.66
737.076	2971.43
737.262	2899.75
737.447	2946.86
737.633	2975.53
737.819	2909.99
738.004	2985.77
738.19	2772.78
738.375	2993.96
738.561	2830.12
738.747	2920.23
738.932	2955.05
739.118	2905.9
739.303	2836.27
739.489	2854.7
739.674	2883.37
739.859	2750.25
740.045	2799.4
740.23	2842.41
740.416	2799.4
740.601	2844.46
740.786	2821.93
740.972	2805.55
741.157	2715.44
741.342	2682.67
741.528	2885.42
741.713	2656.04
741.898	2819.88
742.084	2701.1
742.269	2713.39
742.454	2774.83
742.639	2627.37
742.824	2547.5
743.01	2639.66
743.195	2658.09
743.38	2668.33
743.565	2617.13
743.75	2615.09
743.935	2471.73
744.12	2701.1
744.305	2629.42
744.49	2555.69
744.675	2604.85
744.86	2524.97
745.045	2561.84
745.23	2500.4
745.415	2619.18
745.6	2561.84
745.785	2473.78
745.97	2461.49
746.155	2391.86
746.34	2367.28
746.525	2336.56
746.71	2443.06
746.895	2371.38
747.079	2379.57
747.264	2383.66
747.449	2367.28
747.634	2303.79
747.819	2283.31
748.003	2369.33
748.188	2277.17
748.373	2287.41
748.557	2195.25
748.742	2223.92
748.927	2203.44
749.111	2234.16
749.296	2232.12
749.481	2273.07
749.665	2228.02
749.85	2105.14
750.034	2199.35
750.219	2051.89
750.404	2060.09
750.588	2111.29
750.773	1961.78
750.957	2133.81
751.141	2174.77
751.326	2074.42
751.51	2031.41
751.695	2053.94
751.879	1988.41
752.064	1906.49
752.248	1969.98
752.432	1974.07
752.617	2031.41
752.801	1832.76
752.985	2029.37
753.17	1865.53
753.354	1951.54
753.538	1910.58
753.722	1929.02
753.907	1935.16
754.091	1832.76
754.275	1877.82
754.459	1824.57
754.643	1822.52
754.828	1836.86
755.012	1869.62
755.196	1777.47
755.38	1783.61
755.564	1787.71
755.748	1777.47
755.932	1748.79
756.116	1738.55
756.3	1793.85
756.484	1713.98
756.668	1595.2
756.852	1634.11
757.036	1568.57
757.22	1619.77
757.404	1660.73
757.588	1591.1
757.772	1482.56
757.956	1625.92
758.14	1673.02
758.323	1589.05
758.507	1642.3
758.691	1627.96
758.875	1584.96
759.059	1464.13
759.242	1488.7
759.426	1572.67
759.61	1570.62
759.794	1470.27
759.977	1480.51
760.161	1584.96
760.345	1466.17
760.528	1496.89
760.712	1564.48
760.895	1451.84
761.079	1464.13
761.263	1417.02
761.446	1451.84
761.63	1386.3
761.813	1396.54
761.997	1392.45
762.18	1345.34
762.364	1443.65
762.547	1355.58
762.731	1398.59
762.914	1417.02
763.098	1462.08
763.281	1404.74
763.464	1376.06
763.648	1345.34
763.831	1363.78
764.015	1359.68
764.198	1417.02
764.381	1269.57
764.564	1435.46
764.748	1292.1
764.931	1357.63
765.114	1300.29
765.297	1328.96
765.481	1279.81
765.664	1224.51
765.847	1312.58
766.03	1331.01
766.213	1156.93
766.397	1269.57
766.58	1263.43
766.763	1304.39
766.946	1214.27
767.129	1218.37
767.312	1181.51
767.495	1288
767.678	1177.41
767.861	1175.36
768.044	1253.19
768.227	1226.56
768.41	1300.29
768.593	1318.72
768.776	1244.99
768.959	1126.21
769.142	1208.13
769.324	1304.39
769.507	1273.67
769.69	1111.88
769.873	1150.79
770.056	1101.64
770.239	1177.41
770.421	1070.92
770.604	1267.52
770.787	1040.2
770.97	1095.49
771.152	1130.31
771.335	1222.47
771.518	1029.96
771.7	1118.02
771.883	1120.07
772.066	1140.55
772.248	1054.53
772.431	1113.92
772.613	1156.93
772.796	1058.63
772.978	1087.3
773.161	1072.96
773.343	1050.44
773.526	1052.49
773.708	999.24
773.891	950.09
774.073	962.37
774.256	1036.1
774.438	1099.59
774.621	984.9
774.803	993.09
774.985	896.84
775.168	984.9
775.35	1023.81
775.532	960.33
775.715	989
775.897	980.81
776.079	917.32
776.261	915.27
776.444	966.47
776.626	882.5
776.808	921.42
776.99	792.39
777.173	900.94
777.355	929.61
777.537	900.94
777.719	923.46
777.901	923.46
778.083	898.89
778.265	829.26
778.447	876.36
778.629	757.58
778.811	776.01
778.993	812.87
779.175	800.59
779.357	806.73
779.539	812.87
779.721	872.26
779.903	800.59
780.085	800.59
780.267	739.15
780.449	849.74
780.631	849.74
780.812	761.67
780.994	741.19
781.176	812.87
781.358	788.3
781.54	716.62
781.721	788.3
781.903	665.42
782.085	761.67
782.267	700.23
782.448	679.75
782.63	739.15
782.812	780.11
782.993	698.19
783.175	644.94
783.357	610.12
783.538	692.04
783.72	603.98
783.901	614.22
784.083	667.47
784.264	653.13
784.446	642.89
784.627	638.8
784.809	698.19
784.99	618.32
785.172	589.64
785.353	663.37
785.535	630.6
785.716	569.16
785.897	571.21
786.079	669.52
786.26	616.27
786.441	610.12
786.623	622.41
786.804	583.5
786.985	448.33
787.167	522.06
787.348	634.7
787.529	479.05
787.71	610.12
787.891	655.18
788.073	597.84
788.254	538.45
788.435	591.69
788.616	595.79
788.797	530.25
788.978	517.97
789.159	554.83
789.34	585.55
789.522	577.36
789.703	497.49
789.884	511.82
790.065	526.16
790.246	538.45
790.427	477.01
790.607	524.11
790.788	491.34
790.969	362.32
791.15	450.38
791.331	470.86
791.512	470.86
791.693	526.16
791.874	440.14
792.054	466.77
792.235	483.15
792.416	425.81
792.597	464.72
792.778	515.92
792.958	466.77
793.139	419.66
793.32	427.85
793.5	405.33
793.681	431.95
793.862	483.15
794.042	401.23
794.223	438.09
794.404	354.13
794.584	380.75
794.765	407.38
794.945	339.79
795.126	401.23
795.306	477.01
795.487	438.09
795.667	333.65
795.848	378.7
796.028	350.03
796.209	423.76
796.389	352.08
796.57	366.42
796.75	395.09
796.93	358.22
797.111	393.04
797.291	360.27
797.471	446.29
797.652	423.76
797.832	300.88
798.012	329.55
798.192	409.42
798.373	288.59
798.553	419.66
798.733	376.66
798.913	313.17
799.093	302.93
799.274	378.7
799.454	343.89
799.634	343.89
799.814	333.65
799.994	358.22
800.174	450.38
800.354	333.65
800.534	356.18
800.714	329.55
800.894	304.98
801.074	337.74
801.254	372.56
801.434	393.04
801.614	417.61
801.794	307.02
801.974	692.04
802.154	270.16
802.334	331.6
802.514	311.12
802.693	266.07
802.873	237.39
803.053	307.02
803.233	272.21
803.413	323.41
803.592	300.88
803.772	296.78
803.952	347.98
804.131	337.74
804.311	292.69
804.491	294.74
804.67	231.25
804.85	321.36
805.03	302.93
805.209	397.14
805.389	309.07
805.568	278.35
805.748	214.87
805.928	247.63
806.107	286.54
806.287	255.83
806.466	157.52
806.646	241.49
806.825	288.59
807.004	304.98
807.184	313.17
807.363	264.02
807.543	249.68
807.722	196.43
807.901	251.73
808.081	259.92
808.26	206.67
808.439	300.88
808.619	296.78
808.798	290.64
808.977	223.06
809.156	257.87
809.336	286.54
809.515	257.87
809.694	216.91
809.873	241.49
810.052	331.6
810.231	239.44
810.411	276.31
810.59	278.35
810.769	247.63
810.948	255.83
811.127	132.95
811.306	214.87
811.485	190.29
811.664	261.97
811.843	272.21
812.022	247.63
812.201	235.35
812.38	221.01
812.559	225.11
812.737	229.2
812.916	167.76
813.095	171.86
813.274	270.16
813.453	163.67
813.632	175.95
813.811	227.15
813.989	153.43
814.168	216.91
814.347	227.15
814.526	249.68
814.704	178
814.883	202.58
815.062	194.39
815.24	208.72
815.419	206.67
815.598	173.91
815.776	102.23
815.955	188.24
816.133	247.63
816.312	186.19
816.49	175.95
816.669	214.87
816.847	145.24
817.026	206.67
817.204	223.06
817.383	143.19
817.561	212.82
817.74	249.68
817.918	190.29
818.097	202.58
818.275	120.66
818.453	171.86
818.632	157.52
818.81	249.68
818.988	237.39
819.167	194.39
819.345	186.19
819.523	296.78
819.701	165.71
819.879	171.86
820.058	194.39
820.236	112.47
820.414	132.95
820.592	202.58
820.77	210.77
820.948	132.95
821.127	249.68
821.305	116.56
821.483	157.52
821.661	202.58
821.839	159.57
822.017	163.67
822.195	186.19
822.373	171.86
822.551	137.04
822.729	94.04
822.907	106.32
823.085	114.52
823.262	155.47
823.44	79.7
823.618	155.47
823.796	206.67
823.974	114.52
824.152	137.04
824.329	182.1
824.507	100.18
824.685	75.6
824.863	122.71
825.04	182.1
825.218	143.19
825.396	106.32
825.574	108.37
825.751	137.04
825.929	186.19
826.107	112.47
826.284	196.43
826.462	182.1
826.639	169.81
826.817	91.99
826.994	128.85
827.172	135
827.349	155.47
827.527	114.52
827.704	100.18
827.882	206.67
828.059	126.8
828.237	116.56
828.414	104.28
828.591	55.12
828.769	116.56
828.946	182.1
829.124	139.09
829.301	85.84
829.478	100.18
829.655	165.71
829.833	161.62
830.01	96.08
830.187	139.09
830.364	173.91
830.542	173.91
830.719	135
830.896	141.14
831.073	227.15
831.25	114.52
831.427	137.04
831.604	151.38
831.782	110.42
831.959	128.85
832.136	104.28
832.313	100.18
832.49	139.09
832.667	137.04
832.844	124.76
833.021	104.28
833.198	89.94
833.374	104.28
833.551	100.18
833.728	122.71
833.905	132.95
834.082	71.51
834.259	137.04
834.436	77.65
834.612	87.89
834.789	75.6
834.966	91.99
835.143	96.08
835.319	69.46
835.496	89.94
835.673	75.6
835.85	118.61
836.026	104.28
836.203	151.38
836.38	122.71
836.556	44.88
836.733	120.66
836.909	102.23
837.086	53.08
837.262	57.17
837.439	114.52
837.616	112.47
837.792	63.32
837.968	71.51
838.145	65.36
838.321	85.84
838.498	65.36
838.674	108.37
838.851	24.4
839.027	112.47
839.203	89.94
839.38	114.52
839.556	100.18
839.732	71.51
839.909	20.31
840.085	143.19
840.261	124.76
840.437	67.41
840.614	5.97
840.79	141.14
840.966	61.27
841.142	73.56
841.318	51.03
841.494	51.03
841.671	79.7
841.847	57.17
842.023	51.03
842.199	157.52
842.375	8.02
842.551	87.89
842.727	104.28
842.903	122.71
843.079	-30.89
843.255	110.42
843.431	20.31
843.607	65.36
843.783	89.94
843.959	100.18
844.134	79.7
844.31	145.24
844.486	79.7
844.662	126.8
844.838	73.56
845.013	141.14
845.189	141.14
845.365	53.08
845.541	100.18
845.716	116.56
845.892	63.32
846.068	112.47
846.244	53.08
846.419	87.89
846.595	32.6
846.77	137.04
846.946	63.32
847.122	83.8
847.297	34.64
847.473	112.47
847.648	28.5
847.824	75.6
847.999	67.41
848.175	102.23
848.35	14.17
848.526	32.6
848.701	55.12
848.876	94.04
849.052	65.36
849.227	75.6
849.403	55.12
849.578	77.65
849.753	38.74
849.929	59.22
850.104	73.56
850.279	12.12
850.454	18.26
850.63	104.28
850.805	51.03
850.98	89.94
851.155	36.69
851.33	91.99
851.505	67.41
851.681	71.51
851.856	32.6
852.031	126.8
852.206	114.52
852.381	59.22
852.556	24.4
852.731	48.98
852.906	108.37
853.081	83.8
853.256	98.13
853.431	5.97
853.606	34.64
853.781	51.03
853.956	38.74
854.131	5.97
854.305	24.4
854.48	46.93
854.655	16.21
854.83	71.51
855.005	79.7
855.18	46.93
855.354	16.21
855.529	-6.31
855.704	-12.46
855.879	18.26
856.053	38.74
856.228	85.84
856.403	-2.22
856.577	67.41
856.752	-12.46
856.926	16.21
857.101	124.76
857.276	-47.27
857.45	16.21
857.625	12.12
857.799	61.27
857.974	67.41
858.148	51.03
858.323	67.41
858.497	-24.75
858.672	24.4
858.846	-6.31
859.02	44.88
859.195	5.97
859.369	26.45
859.543	-30.89
859.718	44.88
859.892	85.84
860.066	96.08
860.241	-32.94
860.415	79.7
860.589	30.55
860.763	14.17
860.938	96.08
861.112	61.27
861.286	120.66
861.46	71.51
861.634	1.88
861.808	30.55
861.982	55.12
862.157	-45.23
862.331	38.74
862.505	55.12
862.679	-2.22
862.853	46.93
863.027	34.64
863.201	59.22
863.375	48.98
863.549	42.84
863.722	59.22
863.896	55.12
864.07	22.36
864.244	51.03
864.418	98.13
864.592	63.32
864.766	18.26
864.939	34.64
865.113	20.31
865.287	94.04
865.461	30.55
865.634	-12.46
865.808	57.17
865.982	22.36
866.156	26.45
866.329	53.08
866.503	63.32
866.676	61.27
866.85	151.38
867.024	75.6
867.197	36.69
867.371	85.84
867.544	59.22
867.718	57.17
867.891	38.74
868.065	14.17
868.238	14.17
868.412	38.74
868.585	12.12
868.759	81.75
868.932	34.64
869.105	42.84
869.279	36.69
869.452	57.17
869.625	20.31
869.799	-4.27
869.972	40.79
870.145	51.03
870.319	36.69
870.492	3.93
870.665	24.4
870.838	-14.51
871.011	-2.22
871.185	3.93
871.358	-39.08
871.531	55.12
871.704	-43.18
871.877	57.17
872.05	16.21
872.223	-18.6
872.396	-16.55
872.569	83.8
872.742	42.84
872.915	67.41
873.088	57.17
873.261	24.4
873.434	16.21
873.607	38.74
873.78	65.36
873.953	59.22
874.126	-28.84
874.299	91.99
874.471	85.84
874.644	85.84
874.817	85.84
874.99	63.32
875.163	18.26
875.335	32.6
875.508	61.27
875.681	-0.17
875.853	32.6
876.026	22.36
876.199	20.31
876.371	71.51
876.544	-34.99
876.717	3.93
876.889	30.55
877.062	-26.79
877.234	36.69
877.407	-6.31
877.579	28.5
877.752	16.21
877.924	102.23
878.097	-22.7
878.269	-8.36
878.442	5.97
878.614	8.02
878.786	14.17
878.959	-10.41
879.131	-16.55
879.303	-6.31
879.476	-6.31
879.648	96.08
879.82	-6.31
879.993	67.41
880.165	22.36
880.337	18.26
880.509	61.27
880.681	22.36
880.854	114.52
881.026	-4.27
881.198	-2.22
881.37	-16.55
881.542	83.8
881.714	-26.79
881.886	-0.17
882.058	-59.56
882.23	38.74
882.402	20.31
882.574	44.88
882.746	40.79
882.918	98.13
883.09	48.98
883.262	-30.89
883.434	-26.79
883.606	36.69
883.778	18.26
883.95	-6.31
884.122	77.65
884.293	32.6
884.465	36.69
884.637	1.88
884.809	42.84
884.98	32.6
885.152	46.93
885.324	48.98
885.496	26.45
885.667	46.93
885.839	-14.51
886.011	42.84
886.182	40.79
886.354	5.97
886.525	44.88
886.697	10.07
886.869	30.55
887.04	59.22
887.212	73.56
887.383	10.07
887.555	14.17
887.726	-26.79
887.897	46.93
888.069	-20.65
888.24	59.22
888.412	28.5
888.583	26.45
888.754	102.23
888.926	1.88
889.097	-18.6
889.268	-30.89
889.44	22.36
889.611	30.55
889.782	116.56
889.953	-61.61
890.125	85.84
890.296	42.84
890.467	16.21
890.638	53.08
890.809	8.02
890.98	-37.03
891.151	10.07
891.323	132.95
891.494	28.5
891.665	-8.36
891.836	22.36
892.007	10.07
892.178	42.84
892.349	-4.27
892.52	44.88
892.691	63.32
892.862	18.26
893.032	30.55
893.203	24.4
893.374	65.36
893.545	10.07
893.716	77.65
893.887	5.97
894.057	-22.7
894.228	-12.46
894.399	12.12
894.57	104.28
894.74	18.26
894.911	75.6
895.082	-61.61
895.253	1.88
895.423	71.51
895.594	-0.17
895.764	48.98
895.935	36.69
896.106	8.02
896.276	-10.41
896.447	91.99
896.617	-47.27
896.788	34.64
896.958	18.26
897.129	46.93
897.299	3.93
897.47	94.04
897.64	-2.22
897.81	85.84
897.981	24.4
898.151	42.84
898.322	24.4
898.492	-12.46
898.662	55.12
898.832	44.88
899.003	34.64
899.173	75.6
899.343	24.4
899.513	-47.27
