Data from USB4F104151__73__11-06-19-304.txt Node

Date: Wed Mar 12 11:06:19 EDT 2025
User: louis
Spectrometer: USB4F10415
Trigger mode: 4
Integration Time (sec): 2.000000E-2
Scans to average: 1
Electric dark correction enabled: true
Nonlinearity correction enabled: false
Boxcar width: 0
XAxis mode: Wavelengths
Number of Pixels in Spectrum: 3648
>>>>>Begin Spectral Data<<<<<
178.204	-71.85
178.424	-71.85
178.644	-71.85
178.864	-96.43
179.084	-84.14
179.304	-32.94
179.524	16.21
179.744	-12.46
179.964	10.07
180.184	-45.23
180.404	28.5
180.624	44.88
180.844	24.4
181.064	16.21
181.283	3.93
181.503	-49.32
181.723	-4.27
181.943	-24.75
182.163	108.37
182.383	14.17
182.602	34.64
182.822	28.5
183.042	16.21
183.262	3.93
183.482	44.88
183.701	57.17
183.921	18.26
184.141	20.31
184.361	104.28
184.58	44.88
184.8	16.21
185.02	-12.46
185.239	28.5
185.459	12.12
185.679	69.46
185.898	-8.36
186.118	22.36
186.338	14.17
186.557	26.45
186.777	44.88
186.997	-24.75
187.216	46.93
187.436	94.04
187.655	63.32
187.875	61.27
188.095	42.84
188.314	75.6
188.534	22.36
188.753	-26.79
188.973	20.31
189.192	71.51
189.412	32.6
189.631	12.12
189.851	16.21
190.07	63.32
190.29	18.26
190.509	5.97
190.729	14.17
190.948	5.97
191.168	106.32
191.387	16.21
191.607	-12.46
191.826	14.17
192.045	20.31
192.265	63.32
192.484	87.89
192.704	14.17
192.923	51.03
193.142	112.47
193.362	-14.51
193.581	36.69
193.8	67.41
194.02	53.08
194.239	22.36
194.458	77.65
194.678	-8.36
194.897	32.6
195.116	3.93
195.335	-6.31
195.555	5.97
195.774	-2.22
195.993	89.94
196.212	28.5
196.432	36.69
196.651	-24.75
196.87	30.55
197.089	63.32
197.308	46.93
197.528	69.46
197.747	26.45
197.966	83.8
198.185	63.32
198.404	3.93
198.623	44.88
198.842	67.41
199.062	75.6
199.281	36.69
199.5	-22.7
199.719	106.32
199.938	112.47
200.157	94.04
200.376	79.7
200.595	46.93
200.814	63.32
201.033	-86.19
201.252	51.03
201.471	1.88
201.69	36.69
201.909	22.36
202.128	36.69
202.347	12.12
202.566	89.94
202.785	30.55
203.004	24.4
203.223	34.64
203.442	69.46
203.661	14.17
203.879	28.5
204.098	65.36
204.317	-10.41
204.536	89.94
204.755	1.88
204.974	63.32
205.193	44.88
205.411	87.89
205.63	57.17
205.849	14.17
206.068	67.41
206.287	28.5
206.505	32.6
206.724	40.79
206.943	-18.6
207.162	-43.18
207.381	26.45
207.599	18.26
207.818	108.37
208.037	98.13
208.255	26.45
208.474	34.64
208.693	44.88
208.911	34.64
209.13	-12.46
209.349	91.99
209.567	83.8
209.786	44.88
210.005	63.32
210.223	30.55
210.442	-39.08
210.661	91.99
210.879	53.08
211.098	28.5
211.316	1.88
211.535	16.21
211.753	46.93
211.972	14.17
212.191	67.41
212.409	14.17
212.628	18.26
212.846	24.4
213.065	79.7
213.283	28.5
213.502	14.17
213.72	53.08
213.938	87.89
214.157	59.22
214.375	-16.55
214.594	104.28
214.812	73.56
215.031	55.12
215.249	22.36
215.467	20.31
215.686	3.93
215.904	-2.22
216.122	36.69
216.341	83.8
216.559	57.17
216.778	22.36
216.996	69.46
217.214	48.98
217.432	71.51
217.651	1.88
217.869	42.84
218.087	-12.46
218.306	77.65
218.524	30.55
218.742	-10.41
218.96	8.02
219.179	55.12
219.397	10.07
219.615	106.32
219.833	122.71
220.051	24.4
220.27	114.52
220.488	-10.41
220.706	5.97
220.924	48.98
221.142	71.51
221.36	71.51
221.578	63.32
221.796	-0.17
222.015	22.36
222.233	65.36
222.451	12.12
222.669	44.88
222.887	12.12
223.105	-20.65
223.323	3.93
223.541	20.31
223.759	71.51
223.977	-37.03
224.195	32.6
224.413	79.7
224.631	51.03
224.849	-49.32
225.067	89.94
225.285	-22.7
225.503	130.9
225.721	38.74
225.939	108.37
226.157	26.45
226.375	57.17
226.592	16.21
226.81	20.31
227.028	-4.27
227.246	46.93
227.464	8.02
227.682	1.88
227.9	79.7
228.117	22.36
228.335	40.79
228.553	36.69
228.771	36.69
228.989	73.56
229.206	55.12
229.424	128.85
229.642	18.26
229.86	53.08
230.077	16.21
230.295	-39.08
230.513	128.85
230.731	-22.7
230.948	59.22
231.166	51.03
231.384	22.36
231.601	26.45
231.819	36.69
232.037	8.02
232.254	53.08
232.472	-32.94
232.689	16.21
232.907	91.99
233.125	34.64
233.342	30.55
233.56	96.08
233.777	46.93
233.995	98.13
234.213	28.5
234.43	79.7
234.648	102.23
234.865	-28.84
235.083	-6.31
235.3	44.88
235.518	32.6
235.735	-34.99
235.953	65.36
236.17	51.03
236.388	100.18
236.605	-16.55
236.822	28.5
237.04	34.64
237.257	20.31
237.475	32.6
237.692	61.27
237.909	36.69
238.127	36.69
238.344	36.69
238.562	46.93
238.779	32.6
238.996	63.32
239.214	48.98
239.431	79.7
239.648	32.6
239.865	126.8
240.083	32.6
240.3	-43.18
240.517	36.69
240.735	-28.84
240.952	26.45
241.169	28.5
241.386	-26.79
241.603	18.26
241.821	1.88
242.038	51.03
242.255	5.97
242.472	85.84
242.689	46.93
242.907	42.84
243.124	69.46
243.341	1.88
243.558	36.69
243.775	53.08
243.992	-14.51
244.209	34.64
244.426	61.27
244.643	32.6
244.86	57.17
245.078	81.75
245.295	40.79
245.512	38.74
245.729	46.93
245.946	85.84
246.163	87.89
246.38	30.55
246.597	12.12
246.814	36.69
247.031	48.98
247.248	-2.22
247.464	83.8
247.681	38.74
247.898	71.51
248.115	30.55
248.332	36.69
248.549	38.74
248.766	46.93
248.983	40.79
249.2	69.46
249.417	8.02
249.633	63.32
249.85	102.23
250.067	83.8
250.284	38.74
250.501	14.17
250.717	-0.17
250.934	3.93
251.151	-37.03
251.368	46.93
251.585	96.08
251.801	110.42
252.018	-14.51
252.235	67.41
252.451	-12.46
252.668	30.55
252.885	-2.22
253.102	53.08
253.318	-4.27
253.535	63.32
253.752	63.32
253.968	-2.22
254.185	-10.41
254.401	34.64
254.618	-6.31
254.835	46.93
255.051	12.12
255.268	69.46
255.484	132.95
255.701	18.26
255.917	57.17
256.134	59.22
256.351	100.18
256.567	-45.23
256.784	-47.27
257	-6.31
257.217	100.18
257.433	3.93
257.65	79.7
257.866	87.89
258.082	79.7
258.299	46.93
258.515	1.88
258.732	38.74
258.948	59.22
259.165	61.27
259.381	57.17
259.597	96.08
259.814	38.74
260.03	57.17
260.246	69.46
260.463	24.4
260.679	110.42
260.895	14.17
261.112	18.26
261.328	42.84
261.544	18.26
261.761	36.69
261.977	12.12
262.193	40.79
262.409	51.03
262.626	28.5
262.842	98.13
263.058	-28.84
263.274	59.22
263.49	-10.41
263.707	1.88
263.923	48.98
264.139	1.88
264.355	32.6
264.571	59.22
264.787	28.5
265.004	104.28
265.22	-45.23
265.436	44.88
265.652	100.18
265.868	94.04
266.084	44.88
266.3	85.84
266.516	46.93
266.732	75.6
266.948	20.31
267.164	3.93
267.38	51.03
267.596	61.27
267.812	110.42
268.028	71.51
268.244	-10.41
268.46	73.56
268.676	53.08
268.892	18.26
269.108	46.93
269.324	112.47
269.54	-12.46
269.756	18.26
269.972	69.46
270.188	-39.08
270.403	48.98
270.619	71.51
270.835	-32.94
271.051	65.36
271.267	44.88
271.483	28.5
271.698	91.99
271.914	71.51
272.13	104.28
272.346	102.23
272.562	10.07
272.777	1.88
272.993	-26.79
273.209	-57.51
273.425	98.13
273.64	5.97
273.856	110.42
274.072	69.46
274.287	-4.27
274.503	51.03
274.719	22.36
274.934	51.03
275.15	36.69
275.366	8.02
275.581	46.93
275.797	73.56
276.012	1.88
276.228	75.6
276.444	63.32
276.659	61.27
276.875	12.12
277.09	-61.61
277.306	-32.94
277.521	28.5
277.737	8.02
277.952	46.93
278.168	38.74
278.383	57.17
278.599	57.17
278.814	18.26
279.03	30.55
279.245	22.36
279.461	-2.22
279.676	83.8
279.892	20.31
280.107	75.6
280.322	-18.6
280.538	24.4
280.753	87.89
280.969	-16.55
281.184	44.88
281.399	32.6
281.615	61.27
281.83	61.27
282.045	122.71
282.26	26.45
282.476	48.98
282.691	51.03
282.906	89.94
283.122	44.88
283.337	61.27
283.552	77.65
283.767	-20.65
283.983	28.5
284.198	94.04
284.413	5.97
284.628	1.88
284.843	42.84
285.058	44.88
285.274	69.46
285.489	46.93
285.704	-26.79
285.919	40.79
286.134	-51.37
286.349	40.79
286.564	96.08
286.779	-24.75
286.995	28.5
287.21	79.7
287.425	18.26
287.64	63.32
287.855	14.17
288.07	120.66
288.285	59.22
288.5	59.22
288.715	75.6
288.93	53.08
289.145	71.51
289.36	114.52
289.575	1.88
289.79	85.84
290.004	55.12
290.219	-0.17
290.434	91.99
290.649	79.7
290.864	102.23
291.079	8.02
291.294	-0.17
291.509	61.27
291.724	71.51
291.938	32.6
292.153	-8.36
292.368	18.26
292.583	89.94
292.798	63.32
293.012	34.64
293.227	79.7
293.442	73.56
293.657	91.99
293.871	38.74
294.086	32.6
294.301	65.36
294.516	51.03
294.73	96.08
294.945	71.51
295.16	112.47
295.374	36.69
295.589	104.28
295.804	137.04
296.018	61.27
296.233	73.56
296.447	51.03
296.662	26.45
296.877	106.32
297.091	89.94
297.306	110.42
297.52	-8.36
297.735	30.55
297.949	55.12
298.164	24.4
298.378	32.6
298.593	16.21
298.807	-22.7
299.022	122.71
299.236	16.21
299.451	-2.22
299.665	24.4
299.88	73.56
300.094	57.17
300.309	20.31
300.523	28.5
300.737	104.28
300.952	89.94
301.166	69.46
301.381	-22.7
301.595	94.04
301.809	26.45
302.024	5.97
302.238	69.46
302.452	161.62
302.667	51.03
302.881	108.37
303.095	75.6
303.309	98.13
303.524	36.69
303.738	132.95
303.952	79.7
304.166	55.12
304.381	-6.31
304.595	85.84
304.809	30.55
305.023	100.18
305.237	104.28
305.452	65.36
305.666	53.08
305.88	22.36
306.094	96.08
306.308	20.31
306.522	48.98
306.736	48.98
306.95	20.31
307.164	32.6
307.379	16.21
307.593	16.21
307.807	81.75
308.021	100.18
308.235	42.84
308.449	12.12
308.663	145.24
308.877	40.79
309.091	34.64
309.305	34.64
309.519	38.74
309.733	32.6
309.947	-16.55
310.161	139.09
310.374	110.42
310.588	30.55
310.802	104.28
311.016	85.84
311.23	3.93
311.444	38.74
311.658	83.8
311.872	48.98
312.085	44.88
312.299	89.94
312.513	38.74
312.727	75.6
312.941	32.6
313.154	42.84
313.368	55.12
313.582	63.32
313.796	34.64
314.009	53.08
314.223	85.84
314.437	48.98
314.651	26.45
314.864	20.31
315.078	100.18
315.292	-2.22
315.505	8.02
315.719	55.12
315.933	28.5
316.146	85.84
316.36	42.84
316.573	46.93
316.787	67.41
317.001	10.07
317.214	24.4
317.428	100.18
317.641	77.65
317.855	59.22
318.068	77.65
318.282	59.22
318.495	120.66
318.709	34.64
318.922	36.69
319.136	126.8
319.349	16.21
319.563	75.6
319.776	34.64
319.99	53.08
320.203	16.21
320.417	12.12
320.63	63.32
320.843	55.12
321.057	122.71
321.27	-4.27
321.483	24.4
321.697	42.84
321.91	65.36
322.124	55.12
322.337	30.55
322.55	44.88
322.763	51.03
322.977	98.13
323.19	28.5
323.403	24.4
323.617	3.93
323.83	51.03
324.043	46.93
324.256	89.94
324.469	12.12
324.683	-4.27
324.896	46.93
325.109	79.7
325.322	28.5
325.535	51.03
325.748	40.79
325.962	34.64
326.175	65.36
326.388	46.93
326.601	118.61
326.814	69.46
327.027	46.93
327.24	55.12
327.453	67.41
327.666	61.27
327.879	112.47
328.092	46.93
328.305	65.36
328.518	26.45
328.731	104.28
328.944	91.99
329.157	79.7
329.37	20.31
329.583	67.41
329.796	126.8
330.009	53.08
330.222	83.8
330.435	100.18
330.648	63.32
330.861	-30.89
331.073	106.32
331.286	67.41
331.499	71.51
331.712	81.75
331.925	79.7
332.138	5.97
332.35	192.34
332.563	-14.51
332.776	38.74
332.989	87.89
333.202	42.84
333.414	28.5
333.627	-28.84
333.84	3.93
334.053	22.36
334.265	85.84
334.478	26.45
334.691	28.5
334.903	34.64
335.116	57.17
335.329	48.98
335.541	89.94
335.754	73.56
335.966	61.27
336.179	48.98
336.392	22.36
336.604	14.17
336.817	110.42
337.029	65.36
337.242	65.36
337.454	44.88
337.667	8.02
337.88	65.36
338.092	130.9
338.305	122.71
338.517	79.7
338.729	145.24
338.942	51.03
339.154	104.28
339.367	65.36
339.579	36.69
339.792	36.69
340.004	38.74
340.217	75.6
340.429	20.31
340.641	36.69
340.854	61.27
341.066	16.21
341.278	44.88
341.491	59.22
341.703	110.42
341.915	51.03
342.128	-4.27
342.34	94.04
342.552	67.41
342.764	116.56
342.977	102.23
343.189	26.45
343.401	-4.27
343.613	61.27
343.826	53.08
344.038	8.02
344.25	59.22
344.462	40.79
344.674	16.21
344.886	65.36
345.099	32.6
345.311	91.99
345.523	69.46
345.735	65.36
345.947	139.09
346.159	100.18
346.371	104.28
346.583	36.69
346.795	65.36
347.007	20.31
347.219	44.88
347.431	71.51
347.643	155.47
347.855	91.99
348.067	32.6
348.279	106.32
348.491	14.17
348.703	71.51
348.915	48.98
349.127	-0.17
349.339	73.56
349.551	46.93
349.763	110.42
349.975	77.65
350.187	149.33
350.399	137.04
350.61	59.22
350.822	42.84
351.034	71.51
351.246	61.27
351.458	61.27
351.669	67.41
351.881	89.94
352.093	42.84
352.305	63.32
352.517	163.67
352.728	51.03
352.94	12.12
353.152	46.93
353.363	-8.36
353.575	5.97
353.787	40.79
353.999	32.6
354.21	98.13
354.422	26.45
354.633	40.79
354.845	10.07
355.057	65.36
355.268	44.88
355.48	30.55
355.692	108.37
355.903	10.07
356.115	100.18
356.326	77.65
356.538	116.56
356.749	77.65
356.961	85.84
357.172	71.51
357.384	120.66
357.595	28.5
357.807	44.88
358.018	85.84
358.23	24.4
358.441	108.37
358.653	79.7
358.864	96.08
359.075	57.17
359.287	73.56
359.498	143.19
359.709	32.6
359.921	67.41
360.132	28.5
360.344	141.14
360.555	51.03
360.766	96.08
360.977	65.36
361.189	102.23
361.4	104.28
361.611	48.98
361.823	36.69
362.034	59.22
362.245	-4.27
362.456	32.6
362.667	102.23
362.879	75.6
363.09	96.08
363.301	69.46
363.512	40.79
363.723	69.46
363.935	87.89
364.146	48.98
364.357	-4.27
364.568	89.94
364.779	-37.03
364.99	77.65
365.201	69.46
365.412	85.84
365.623	53.08
365.834	65.36
366.045	12.12
366.256	102.23
366.467	67.41
366.678	57.17
366.889	77.65
367.1	5.97
367.311	89.94
367.522	87.89
367.733	94.04
367.944	42.84
368.155	69.46
368.366	81.75
368.577	53.08
368.788	73.56
368.999	59.22
369.209	57.17
369.42	102.23
369.631	114.52
369.842	153.43
370.053	67.41
370.264	63.32
370.474	53.08
370.685	104.28
370.896	10.07
371.107	61.27
371.317	77.65
371.528	124.76
371.739	124.76
371.95	79.7
372.16	59.22
372.371	83.8
372.582	118.61
372.792	48.98
373.003	91.99
373.214	79.7
373.424	116.56
373.635	36.69
373.846	46.93
374.056	87.89
374.267	55.12
374.477	122.71
374.688	73.56
374.898	67.41
375.109	85.84
375.319	87.89
375.53	48.98
375.74	36.69
375.951	98.13
376.161	79.7
376.372	73.56
376.582	48.98
376.793	26.45
377.003	48.98
377.214	85.84
377.424	16.21
377.635	94.04
377.845	26.45
378.055	89.94
378.266	87.89
378.476	65.36
378.686	46.93
378.897	153.43
379.107	71.51
379.317	44.88
379.528	36.69
379.738	71.51
379.948	-8.36
380.158	44.88
380.369	124.76
380.579	89.94
380.789	40.79
380.999	34.64
381.21	130.9
381.42	102.23
381.63	65.36
381.84	137.04
382.05	24.4
382.261	85.84
382.471	102.23
382.681	48.98
382.891	114.52
383.101	94.04
383.311	34.64
383.521	143.19
383.731	120.66
383.941	108.37
384.151	81.75
384.361	126.8
384.571	81.75
384.781	30.55
384.991	106.32
385.201	126.8
385.411	120.66
385.621	96.08
385.831	65.36
386.041	77.65
386.251	126.8
386.461	69.46
386.671	57.17
386.881	122.71
387.091	40.79
387.301	161.62
387.511	38.74
387.72	143.19
387.93	102.23
388.14	40.79
388.35	100.18
388.56	102.23
388.769	130.9
388.979	87.89
389.189	120.66
389.399	96.08
389.609	96.08
389.818	98.13
390.028	132.95
390.238	67.41
390.447	73.56
390.657	122.71
390.867	8.02
391.076	38.74
391.286	83.8
391.496	81.75
391.705	75.6
391.915	81.75
392.125	87.89
392.334	153.43
392.544	126.8
392.753	81.75
392.963	73.56
393.172	81.75
393.382	85.84
393.591	91.99
393.801	38.74
394.01	87.89
394.22	57.17
394.429	112.47
394.639	161.62
394.848	153.43
395.058	151.38
395.267	157.52
395.477	114.52
395.686	214.87
395.895	153.43
396.105	155.47
396.314	100.18
396.524	239.44
396.733	73.56
396.942	83.8
397.152	161.62
397.361	116.56
397.57	116.56
397.78	122.71
397.989	122.71
398.198	141.14
398.407	114.52
398.617	77.65
398.826	118.61
399.035	167.76
399.244	110.42
399.453	155.47
399.663	81.75
399.872	169.81
400.081	159.57
400.29	163.67
400.499	155.47
400.708	124.76
400.917	128.85
401.127	108.37
401.336	118.61
401.545	218.96
401.754	161.62
401.963	182.1
402.172	130.9
402.381	198.48
402.59	139.09
402.799	214.87
403.008	147.28
403.217	241.49
403.426	102.23
403.635	153.43
403.844	116.56
404.053	198.48
404.262	190.29
404.471	257.87
404.68	221.01
404.888	155.47
405.097	137.04
405.306	188.24
405.515	243.54
405.724	210.77
405.933	214.87
406.142	196.43
406.35	272.21
406.559	274.26
406.768	286.54
406.977	200.53
407.185	253.78
407.394	255.83
407.603	264.02
407.812	272.21
408.02	292.69
408.229	270.16
408.438	282.45
408.646	323.41
408.855	337.74
409.064	382.8
409.272	364.37
409.481	411.47
409.69	354.13
409.898	397.14
410.107	319.31
410.315	423.76
410.524	440.14
410.733	483.15
410.941	481.1
411.15	472.91
411.358	491.34
411.567	589.64
411.775	520.01
411.984	517.97
412.192	583.5
412.401	585.55
412.609	538.45
412.818	661.32
413.026	773.96
413.234	759.63
413.443	720.71
413.651	665.42
413.86	776.01
414.068	812.87
414.276	839.5
414.485	845.64
414.693	857.93
414.901	909.13
415.11	995.14
415.318	927.56
415.526	1040.2
415.734	1050.44
415.943	999.24
416.151	1099.59
416.359	1204.03
416.567	1132.36
416.776	1228.61
416.984	1267.52
417.192	1345.34
417.4	1224.51
417.608	1285.95
417.817	1441.6
418.025	1367.87
418.233	1593.15
418.441	1523.52
418.649	1560.38
418.857	1679.16
419.065	1857.34
419.273	1734.46
419.481	1847.1
419.689	1929.02
419.897	2062.13
420.105	2029.37
420.313	2088.76
420.521	2146.1
420.729	2268.98
420.937	2246.45
421.145	2354.99
421.353	2428.72
421.561	2608.94
421.769	2623.28
421.977	2715.44
422.185	2737.96
422.393	2801.45
422.601	2959.14
422.809	3110.69
423.017	3125.03
423.224	3241.76
423.432	3421.99
423.64	3329.83
423.848	3784.48
424.056	3508
424.263	3903.26
424.471	3862.3
424.679	3940.12
424.887	4106.01
425.094	4194.07
425.302	4275.99
425.51	4493.07
425.718	4525.84
425.925	4636.43
426.133	4849.42
426.341	5000.97
426.548	5203.72
426.756	5256.97
426.964	5342.98
427.171	5830.4
427.379	5781.25
427.586	5934.84
427.794	6074.1
428.001	6635.25
428.209	6592.24
428.417	6557.43
428.624	7196.39
428.832	7313.13
429.039	7077.61
429.247	6985.45
429.454	7798.49
429.662	8285.91
429.869	7771.87
430.076	8392.41
430.284	7978.72
430.491	8171.22
430.699	8847.05
430.906	8734.42
431.114	8933.07
431.321	9187.02
431.528	9545.41
431.736	9993.92
431.943	10671.79
432.15	10231.48
432.358	10436.28
432.565	11052.72
432.772	10829.49
432.979	11364.01
433.187	11650.72
433.394	11515.56
433.601	12289.69
433.808	12666.52
434.016	12355.22
434.223	13119.12
434.43	13856.39
434.637	13330.06
434.844	14331.51
435.052	14644.85
435.259	14429.82
435.466	14798.45
435.673	14521.98
435.88	15492.71
436.087	16467.55
436.294	16272.99
436.501	15990.37
436.708	16328.28
436.915	16809.56
437.122	17350.22
437.329	17200.72
437.537	17827.4
437.743	18544.19
437.95	18179.65
438.157	19131.95
438.364	19689
438.571	19488.3
438.778	19699.24
438.985	21814.79
439.192	20987.41
439.399	21745.16
439.606	20985.37
439.813	22353.41
440.02	23641.58
440.227	23229.94
440.433	22869.5
440.64	23836.14
440.847	23461.36
441.054	24366.56
441.261	26043.85
441.467	25279.96
441.674	25994.7
441.881	26899.9
442.088	26549.7
442.294	26533.31
442.501	27411.89
442.708	27817.39
442.914	28849.57
443.121	30029.2
443.328	29230.49
443.534	31538.55
443.741	30475.65
443.948	30016.91
444.154	32699.75
444.361	32228.71
444.568	32503.14
444.774	32564.58
444.981	32906.59
445.187	33631.57
445.394	35122.49
445.6	34649.41
445.807	37874.96
446.013	36293.93
446.22	36930.85
446.426	38339.85
446.633	38618.38
446.839	39953.65
447.046	38499.59
447.252	40652.01
447.459	40629.48
447.665	40330.48
447.871	42018
448.078	43515.07
448.284	41682.14
448.491	43064.52
448.697	44283.06
448.903	44874.92
449.11	45182.12
449.316	44311.73
449.522	44926.12
449.728	46216.34
449.935	46673.04
450.141	46736.52
450.347	47420.55
450.553	45608.09
450.76	46392.47
450.966	48219.25
451.172	47453.31
451.378	48553.07
451.584	47475.84
451.791	48952.43
451.997	48616.56
452.203	49259.62
452.409	49118.31
452.615	49316.96
452.821	47053.96
453.027	46679.18
453.233	49292.39
453.44	46636.17
453.646	47658.11
453.852	47393.92
454.058	48757.87
454.264	46965.9
454.47	47756.41
454.676	46779.53
454.882	48546.93
455.088	44463.28
455.294	44833.96
455.5	45171.88
455.705	45974.68
455.911	43816.12
456.117	43156.67
456.323	42411.21
456.529	40213.74
456.735	41790.68
456.941	40756.46
457.147	40103.15
457.352	38927.62
457.558	38440.2
457.764	38401.29
457.97	37618.97
458.176	37176.61
458.381	37023.01
458.587	35198.27
458.793	35085.63
458.999	33289.56
459.204	35745.08
459.41	34719.04
459.616	32609.64
459.821	32185.71
460.027	32142.7
460.233	31620.47
460.438	30033.29
460.644	30352.77
460.85	29216.15
461.055	28718.5
461.261	28667.3
461.466	26641.85
461.672	25890.25
461.878	27518.39
462.083	25712.08
462.289	25298.39
462.494	24946.14
462.7	24081.89
462.905	23365.1
463.111	24249.83
463.316	24114.66
463.522	23817.71
463.727	23981.54
463.932	23694.83
464.138	23467.5
464.343	23567.85
464.549	22760.95
464.754	23668.2
464.959	23461.36
465.165	23621.1
465.37	22521.34
465.575	21718.54
465.781	22758.91
465.986	23154.16
466.191	22029.83
466.397	21919.24
466.602	20659.74
466.807	21378.58
467.012	21532.17
467.218	21349.9
467.423	20899.35
467.628	21116.44
467.833	22099.46
468.038	20979.22
468.244	20737.56
468.449	21429.77
468.654	20758.04
468.859	20534.81
469.064	20268.58
469.269	19910.18
469.474	20082.21
469.679	20137.51
469.885	19680.81
470.09	20178.47
470.295	19781.16
470.5	19390
470.705	19639.85
470.91	19160.62
471.115	18757.18
471.32	19217.97
471.525	19064.37
471.73	18624.06
471.935	18535.99
472.139	17980.99
472.344	17937.99
472.549	17817.16
472.754	17628.74
472.959	17503.82
473.164	16756.31
473.369	16610.9
473.574	17208.91
473.778	17335.88
473.983	17061.46
474.188	16793.17
474.393	16090.72
474.598	16115.3
474.802	15908.45
475.007	16060
475.212	15865.44
475.417	15486.57
475.621	15457.9
475.826	15464.04
476.031	15289.96
476.235	14806.64
476.44	14964.34
476.645	14958.19
476.849	14790.26
477.054	14728.82
477.259	14298.75
477.463	14421.63
477.668	13858.43
477.872	14438.01
478.077	14003.84
478.282	13819.52
478.486	13719.17
478.691	13528.71
478.895	13584.01
479.1	13399.69
479.304	13237.9
479.509	13186.7
479.713	13399.69
479.918	13227.66
480.122	12908.18
480.326	13072.01
480.531	13153.93
480.735	12664.47
480.94	12940.94
481.144	13182.6
481.348	12525.21
481.553	12793.49
481.757	12494.49
481.961	12664.47
482.166	12697.24
482.37	12926.61
482.574	12502.68
482.778	12566.17
482.983	12807.83
483.187	12592.79
483.391	12646.04
483.595	12576.41
483.8	12398.23
484.004	12578.45
484.208	12678.8
484.412	12543.64
484.616	12674.71
484.821	12529.3
485.025	12383.9
485.229	12512.92
485.433	12484.25
485.637	12555.93
485.841	12422.81
486.045	12316.31
486.249	12517.01
486.453	12457.62
486.657	12547.73
486.861	12641.94
487.065	12211.87
487.269	12398.23
487.473	12560.02
487.677	12404.38
487.881	12377.75
488.085	12471.96
488.289	12576.41
488.493	12449.43
488.697	12334.75
488.901	12701.33
489.105	12584.6
489.309	12627.6
489.512	12689.04
489.716	12637.84
489.92	12693.14
490.124	12611.22
490.328	12838.55
490.531	12818.07
490.735	12844.69
490.939	13006.48
491.143	12938.9
491.346	13086.35
491.55	13264.52
491.754	12865.17
491.958	13155.98
492.161	13194.89
492.365	13207.18
492.569	13262.47
492.772	13227.66
492.976	13504.14
493.18	13391.5
493.383	13682.31
493.587	13629.06
493.79	13780.61
493.994	13581.96
494.197	14059.13
494.401	14036.61
494.605	14130.81
494.808	14526.07
495.012	14341.75
495.215	14501.5
495.419	14706.29
495.622	14380.67
495.825	14642.81
496.029	14423.67
496.232	14526.07
496.436	14888.56
496.639	15300.2
496.843	15224.43
497.046	15548.01
497.249	15486.57
497.453	15693.41
497.656	15781.48
497.859	16088.67
498.063	15992.42
498.266	16533.08
498.469	16379.48
498.673	16660.06
498.876	17137.23
499.079	16838.23
499.282	17098.32
499.485	17673.8
499.689	17550.92
499.892	17956.42
500.095	17729.09
500.298	18366.01
500.501	18026.05
500.705	18673.21
500.908	18615.87
501.111	18957.88
501.314	19209.78
501.517	19269.17
501.72	19672.62
501.923	19543.6
502.126	20094.5
502.329	20237.86
502.532	20303.39
502.735	20669.98
502.938	20700.7
503.141	20868.63
503.344	21184.02
503.547	21493.26
503.75	21861.9
503.953	22031.88
504.156	21943.81
504.359	22349.31
504.562	22384.13
504.765	23281.14
504.968	23037.43
505.17	23457.26
505.373	23248.37
505.576	23987.69
505.779	23985.64
505.982	24473.06
506.185	24507.87
506.387	25073.11
506.59	25214.42
506.793	25593.29
506.996	25378.26
507.198	25976.26
507.401	25955.79
507.604	26285.51
507.807	26887.61
508.009	26936.76
508.212	27159.99
508.415	27549.1
508.617	27555.25
508.82	27823.53
509.022	27741.61
509.225	28419.49
509.428	28657.06
509.63	29492.63
509.833	28980.64
510.035	29896.08
510.238	29674.9
510.44	29973.9
510.643	30664.07
510.845	30868.86
511.048	30801.28
511.25	31466.87
511.453	31280.5
511.655	32171.37
511.858	31929.71
512.06	32501.09
512.262	32935.26
512.465	32882.02
512.667	33457.49
512.87	33686.87
513.072	33733.97
513.274	34446.66
513.477	34643.27
513.679	34583.88
513.881	35188.03
514.084	35806.51
514.286	35712.31
514.488	36054.32
514.69	37057.82
514.893	36756.77
515.095	36906.27
515.297	37539.1
515.499	37883.16
515.701	38003.99
515.904	38440.2
516.106	38520.07
516.308	39036.16
516.51	39449.85
516.712	39187.71
516.914	40170.74
517.116	40627.43
517.318	40776.94
517.52	41112.8
517.722	41231.58
517.925	41612.51
518.127	42185.94
518.329	42581.2
518.531	42276.05
518.733	43130.05
518.935	43187.39
519.136	43254.98
519.338	44227.76
519.54	44371.12
519.742	44811.43
519.944	44629.16
520.146	45587.61
520.348	45386.91
520.55	45812.89
520.752	46064.79
520.954	46965.9
521.155	46689.42
521.357	47281.28
521.559	47639.68
521.761	48395.38
521.963	48030.84
522.164	48059.51
522.366	48546.93
522.568	49185.89
522.77	49284.2
522.971	49886.3
523.173	49267.81
523.375	49914.97
523.576	50115.67
523.778	50297.94
523.98	50938.96
524.181	51205.19
524.383	50967.63
524.584	51721.28
524.786	51328.07
524.988	51778.62
525.189	52311.1
525.391	52589.62
525.592	53177.39
525.794	52634.67
525.995	52548.66
526.197	52937.77
526.398	52958.25
526.6	53732.39
526.801	53773.34
527.003	54348.82
527.204	54096.92
527.406	54445.08
527.607	54258.71
527.808	54615.06
528.01	53998.62
528.211	54696.98
528.412	55788.55
528.614	55096.33
528.815	54973.45
529.016	55876.61
529.218	54946.83
529.419	55907.33
529.62	55854.08
529.822	55378.95
530.023	55905.28
530.224	55776.26
530.425	55933.95
530.626	55520.26
530.828	55669.76
531.029	56503.29
531.23	55780.35
531.431	56153.08
531.632	56775.67
531.833	56603.64
532.035	56228.86
532.236	56638.45
532.437	56484.86
532.638	56517.62
532.839	56804.34
533.04	57355.24
533.241	56189.95
533.442	57205.74
533.643	56714.23
533.844	57007.09
534.045	57369.58
534.246	56411.13
534.447	57326.57
534.648	56816.63
534.849	57107.44
535.05	56740.85
535.251	57271.28
535.451	57129.97
535.652	57349.1
535.853	57164.78
536.054	56972.27
536.255	57406.44
536.456	56900.59
536.657	57867.23
536.857	56927.22
537.058	57009.14
537.259	57230.32
537.46	57052.14
537.66	57340.91
537.861	57287.66
538.062	57197.55
538.263	57142.25
538.463	56888.31
538.664	56888.31
538.865	57433.06
539.065	57531.37
539.266	56800.24
539.466	57674.73
539.667	56847.35
539.868	57689.06
540.068	57254.89
540.269	56812.53
540.469	57639.91
540.67	57336.81
540.87	57109.49
541.071	57000.94
541.271	57336.81
541.472	57023.47
541.672	56863.73
541.873	56894.45
542.073	56116.22
542.274	57191.4
542.474	57152.49
542.675	56550.39
542.875	57424.87
543.075	57107.44
543.276	56577.01
543.476	57523.18
543.676	56935.41
543.877	56914.93
544.077	56673.27
544.277	56822.77
544.478	56714.23
544.678	57316.33
544.878	56865.78
545.078	56820.72
545.279	56607.73
545.479	56181.76
545.679	57291.76
545.879	57076.72
546.079	56574.97
546.28	56390.65
546.48	56124.41
546.68	57093.1
546.88	56744.95
547.08	57121.77
547.28	56486.9
547.48	56376.31
547.68	56773.62
547.88	56558.58
548.081	56990.7
548.281	56247.29
548.481	56226.81
548.681	56677.36
548.881	57048.05
549.081	56695.8
549.28	56017.92
549.48	56941.55
549.68	56273.91
549.88	57058.29
550.08	56296.44
550.28	56652.79
550.48	56310.78
550.68	56607.73
550.88	56079.36
551.08	56222.72
551.279	56423.42
551.479	55880.7
551.679	56957.94
551.879	56331.26
552.079	56869.87
552.278	56034.3
552.478	56380.41
552.678	56267.77
552.878	56517.62
553.077	56421.37
553.277	55747.59
553.477	56636.41
553.676	55716.87
553.876	55550.98
554.076	55925.76
554.275	55882.75
554.475	55383.05
554.674	56024.06
554.874	56185.85
555.074	56060.93
555.273	55878.66
555.473	56253.43
555.672	55350.28
555.872	55675.91
556.071	55940.1
556.271	56011.77
556.47	55880.7
556.67	55219.21
556.869	55544.84
557.068	55233.55
557.268	55112.72
557.467	55364.62
557.667	55497.73
557.866	55798.79
558.065	55110.67
558.265	54862.86
558.464	54533.14
558.663	55450.63
558.863	54608.92
559.062	55657.48
559.261	54371.35
559.461	55294.99
559.66	54262.81
559.859	54539.29
560.058	54457.37
560.258	54563.86
560.457	54191.13
560.656	54561.81
560.855	54383.64
561.054	54465.56
561.253	54184.99
561.453	54039.58
561.652	54535.19
561.851	54604.82
562.05	54520.85
562.249	53740.58
562.448	54440.98
562.647	54164.51
562.846	53953.57
563.045	54123.55
563.244	53632.03
563.443	54096.92
563.642	52802.61
563.841	53367.85
564.04	53181.48
564.239	54084.64
564.438	53226.54
564.637	53302.31
564.836	53234.73
565.035	52528.18
565.234	52890.67
565.432	52485.17
565.631	52689.97
565.83	52710.45
566.029	52448.31
566.228	52470.84
566.427	51901.5
566.625	52298.81
566.824	51305.54
567.023	52311.1
567.222	51551.3
567.42	52159.55
567.619	51979.32
567.818	51801.15
568.016	51375.17
568.215	51954.75
568.414	51319.88
568.612	51891.26
568.811	51496
569.01	51696.7
569.208	50721.87
569.407	51663.94
569.605	50560.08
569.804	50992.2
570.002	50682.96
570.201	50852.94
570.4	50478.16
570.598	50054.23
570.797	50193.5
570.995	50449.49
571.193	49767.52
571.392	50422.87
571.59	49949.79
571.789	49751.13
571.987	49699.93
572.186	49701.98
572.384	49443.94
572.582	49583.2
572.781	49843.29
572.979	48915.56
573.177	49341.54
573.376	49562.72
573.574	48858.22
573.772	49400.93
573.971	48436.34
574.169	48477.3
574.367	48495.73
574.565	48845.93
574.763	48325.75
574.962	48041.08
575.16	47553.66
575.358	48479.35
575.556	47559.81
575.754	48352.37
575.952	47748.22
576.151	48151.67
576.349	47262.85
576.547	47154.31
576.745	47600.77
576.943	47920.25
577.141	47418.5
577.339	47471.74
577.537	46802.06
577.735	47154.31
577.933	46294.16
578.131	46763.15
578.329	46730.38
578.527	46400.66
578.725	46568.59
578.923	46625.93
579.121	46021.78
579.319	46025.88
579.516	46486.67
579.714	45986.97
579.912	45880.47
580.11	45724.83
580.308	45710.49
580.506	45542.56
580.704	45272.23
580.901	45180.07
581.099	45786.27
581.297	44954.79
581.495	44995.75
581.692	45573.28
581.89	44793
582.088	45190.31
582.285	44311.73
582.483	45071.53
582.681	44901.54
582.878	44504.24
583.076	43908.28
583.274	44473.52
583.471	44264.63
583.669	44088.5
583.866	43660.48
584.064	44096.69
584.262	43465.92
584.459	43988.15
584.657	43392.19
584.854	43832.5
585.052	42923.21
585.249	43642.04
585.447	43214.02
585.644	42415.31
585.841	43103.43
586.039	43273.41
586.236	42638.54
586.434	42405.07
586.631	42466.51
586.828	42573
587.026	42319.06
587.223	42702.03
587.42	42286.29
587.618	41987.28
587.815	42022.1
588.012	41872.6
588.21	41432.29
588.407	42013.91
588.604	41727.19
588.801	41315.55
588.999	41164
589.196	41254.11
589.393	40930.53
589.59	41147.62
589.787	40803.56
589.984	40871.14
590.182	40457.45
590.379	40639.72
590.576	40385.77
590.773	40506.6
590.97	40142.06
591.167	40432.88
591.364	39517.43
591.561	40424.68
591.758	39724.28
591.955	39945.46
592.152	39929.08
592.349	39724.28
592.546	39451.9
592.743	39838.97
592.94	38892.8
593.137	39417.08
593.334	39410.94
593.531	38767.88
593.727	39034.11
593.924	38786.31
594.121	38927.62
594.318	39202.05
594.515	38475.02
594.712	38739.21
594.908	38026.51
595.105	38448.39
595.302	38044.94
595.499	38065.42
595.696	37879.06
595.892	37356.83
596.089	37680.41
596.286	38061.33
596.482	37702.93
596.679	37817.62
596.876	37389.59
597.072	37078.3
597.269	37410.07
597.466	37174.56
597.662	37131.55
597.859	37344.54
598.055	37313.82
598.252	36570.41
598.448	36576.55
598.645	36670.76
598.841	36179.25
599.038	36316.46
599.234	36463.91
599.431	35976.5
599.627	35900.72
599.824	36160.81
600.02	35718.45
600.217	35996.98
600.413	35269.95
600.609	35835.19
600.806	35388.73
601.002	36097.33
601.198	35040.57
601.395	35425.59
601.591	34921.79
601.787	35097.92
601.984	34671.94
602.18	35358.01
602.376	34790.72
602.572	34694.47
602.769	34325.83
602.965	34313.55
603.161	34307.4
603.357	34110.8
603.553	33862.99
603.75	34190.67
603.946	33783.12
604.142	33776.98
604.338	33490.26
604.534	33959.25
604.73	33420.63
604.926	33647.96
605.122	33490.26
605.318	33117.53
605.514	32980.32
605.71	33162.59
605.906	33054.04
606.102	33181.02
606.298	32615.78
606.494	32978.27
606.69	33105.24
606.886	33088.86
607.082	32142.7
607.278	32548.2
607.474	31931.76
607.67	32402.79
607.866	31831.41
608.062	32587.11
608.257	31978.86
608.453	32406.89
608.649	32257.39
608.845	31909.23
609.041	31999.34
609.236	32077.16
609.432	32286.06
609.628	32202.09
609.824	31870.32
610.019	31788.4
610.215	31765.87
610.411	31765.87
610.606	31276.41
610.802	31536.5
610.998	31286.65
611.193	31636.85
611.389	31348.09
611.584	31503.73
611.78	31174.01
611.976	31112.57
612.171	31081.85
612.367	31159.67
612.562	30887.29
612.758	30608.77
612.953	30639.49
613.149	31229.3
613.344	30612.87
613.539	31118.71
613.735	30788.99
613.93	30578.05
614.126	30492.04
614.321	30541.19
614.517	30428.55
614.712	30424.45
614.907	30285.19
615.103	30645.63
615.298	30111.11
615.493	30428.55
615.688	30025.1
615.884	30496.13
616.079	29803.92
616.274	30602.63
616.47	30141.83
616.665	29812.11
616.86	29910.41
617.055	30008.72
617.25	29562.26
617.445	30195.08
617.641	29578.64
617.836	30037.39
618.031	29486.48
618.226	29703.57
618.421	29238.68
618.616	29629.84
618.811	29230.49
619.006	29447.57
619.201	28728.73
619.396	29179.29
619.591	28583.33
619.786	28837.28
619.981	28505.51
620.176	28429.73
620.371	28126.63
620.566	28313
620.761	27903.4
620.956	28267.94
621.151	27698.61
621.346	28255.65
621.541	27332.02
621.735	27856.3
621.93	27215.29
622.125	27471.28
622.32	27018.68
622.515	27301.3
622.709	27151.8
622.904	27035.06
623.099	26748.35
623.294	27049.4
623.488	26447.3
623.683	26416.58
623.878	26316.23
624.072	26342.85
624.267	26037.7
624.462	26107.33
624.656	25365.97
624.851	25429.46
625.046	25507.28
625.24	25232.85
625.435	25163.22
625.629	25230.8
625.824	24767.96
626.018	24659.42
626.213	24045.03
626.407	24479.2
626.602	24278.5
626.796	24303.07
626.991	24436.19
627.185	24210.92
627.38	24079.85
627.574	23807.47
627.768	23715.31
627.963	23737.84
628.157	23352.82
628.352	23395.82
628.546	23064.05
628.74	23361.01
628.935	22935.03
629.129	22781.43
629.323	22748.67
629.517	22529.53
629.712	22451.71
629.906	22529.53
630.1	22052.36
630.294	22216.19
630.489	21964.29
630.683	22183.43
630.877	21767.69
631.071	21624.33
631.265	21571.08
631.459	21607.95
631.653	21507.6
631.848	21208.59
632.042	21194.26
632.236	21024.28
632.43	20989.46
632.624	21061.14
632.818	20700.7
633.012	20706.84
633.206	20420.13
633.4	20729.37
633.594	20205.09
633.788	20280.86
633.982	20260.38
634.176	20262.43
634.369	19836.45
634.563	20141.6
634.757	19848.74
634.951	19668.52
635.145	19787.3
635.339	19750.44
635.533	19220.02
635.726	19500.59
635.92	19279.41
636.114	19119.67
636.308	18904.63
636.501	18845.24
636.695	18775.61
636.889	18951.73
637.083	18785.85
637.276	18409.02
637.47	18562.62
637.664	18116.16
637.857	18167.36
638.051	18103.87
638.244	18140.74
638.438	18073.15
638.632	17706.57
638.825	17604.17
639.019	17473.1
639.212	17837.64
639.406	17395.28
639.599	17518.15
639.793	17358.41
639.986	17008.21
640.18	17063.5
640.373	17102.42
640.567	16873.04
640.76	16942.67
640.954	16725.59
641.147	16512.6
641.34	16666.2
641.534	16641.62
641.727	16748.12
641.92	16567.9
642.114	16137.82
642.307	16246.37
642.5	16021.09
642.694	15875.68
642.887	15961.7
643.08	15982.18
643.273	15832.68
643.467	15756.9
643.66	15728.23
643.853	15578.73
644.046	15351.4
644.239	15429.23
644.432	15246.96
644.626	15183.47
644.819	15046.26
645.012	15326.83
645.205	15027.82
645.398	15070.83
645.591	14825.08
645.784	14726.77
645.977	14706.29
646.17	14632.57
646.363	14661.24
646.556	14446.2
646.749	14235.26
646.942	14397.05
647.135	14216.83
647.328	14304.89
647.521	14120.57
647.714	14194.3
647.907	14110.33
648.099	13835.91
648.292	13909.63
648.485	13907.59
648.678	13633.16
648.871	13831.81
649.064	13366.92
649.256	13641.35
649.449	13571.72
649.642	13522.57
649.835	13432.46
650.027	13182.6
650.22	13158.03
650.413	12930.7
650.605	13033.1
650.798	13014.67
650.991	12789.39
651.183	12889.74
651.376	12805.78
651.568	12869.26
651.761	12455.58
651.954	12400.28
652.146	12461.72
652.339	12512.92
652.531	12457.62
652.724	12420.76
652.916	12041.89
653.109	12271.26
653.301	12050.08
653.494	12172.96
653.686	11925.15
653.879	11873.95
654.071	11650.72
654.263	11718.31
654.456	11898.53
654.648	11857.57
654.84	11609.76
655.033	11542.18
655.225	11382.44
655.417	11421.35
655.61	11536.04
655.802	11290.28
655.994	11296.42
656.186	11251.37
656.379	11136.68
656.571	11230.89
656.763	10843.82
656.955	10946.22
657.148	10897.07
657.34	10911.41
657.532	10630.84
657.724	10845.87
657.916	10671.79
658.108	10790.58
658.3	10557.11
658.492	10501.81
658.684	10331.83
658.876	10428.09
659.068	10297.02
659.26	10243.77
659.452	10288.82
659.644	10225.34
659.836	10063.55
660.028	10374.84
660.22	10084.03
660.412	10043.07
660.604	9928.38
660.796	9815.74
660.988	9858.75
661.18	9836.22
661.372	9744.06
661.563	9694.91
661.755	9641.67
661.947	9561.8
662.139	9496.26
662.331	9512.64
662.522	9559.75
662.714	9238.22
662.906	9350.85
663.097	9234.12
663.289	9295.56
663.481	9195.21
663.673	9146.06
663.864	8912.59
664.056	9109.19
664.247	9236.17
664.439	8849.1
664.631	8847.05
664.822	8799.95
665.014	8826.57
665.205	8687.31
665.397	8758.99
665.588	8810.19
665.78	8582.87
665.971	8740.56
666.163	8750.8
666.354	8380.12
666.546	8578.77
666.737	8408.79
666.929	8388.31
667.12	8541.91
667.311	8296.15
667.503	8132.31
667.694	8343.25
667.885	8222.42
668.077	7950.04
668.268	8099.55
668.459	8117.98
668.651	8099.55
668.842	8046.3
669.033	7972.57
669.224	7663.33
669.416	7911.13
669.607	7968.48
669.798	7751.39
669.989	7743.2
670.18	7581.41
670.371	7669.47
670.563	7679.71
670.754	7601.89
670.945	7599.84
671.136	7692
671.327	7556.83
671.518	7524.07
671.709	7376.61
671.9	7534.31
672.091	7409.38
672.282	7552.74
672.473	7423.72
672.664	7421.67
672.855	7220.97
673.046	7268.07
673.237	7384.8
673.428	7208.68
673.619	6987.5
673.809	7159.53
674	7020.27
674.191	7055.08
674.382	6901.48
674.573	7057.13
674.764	6876.91
674.954	6741.74
675.145	6719.21
675.336	6895.34
675.527	6807.28
675.717	6854.38
675.908	6684.4
676.099	6805.23
676.289	6876.91
676.48	6651.63
676.671	6751.98
676.861	6805.23
677.052	6686.45
677.243	6491.89
677.433	6518.51
677.624	6692.59
677.814	6493.94
678.005	6549.23
678.195	6377.2
678.386	6485.75
678.576	6448.88
678.767	6334.2
678.957	6336.24
679.148	6369.01
679.338	6291.19
679.529	6342.39
679.719	6125.3
679.909	6131.45
680.1	6231.8
680.29	6196.98
680.481	6276.85
680.671	6321.91
680.861	6110.97
681.052	6237.94
681.242	6110.97
681.432	6045.43
681.622	5998.33
681.813	6065.91
682.003	5969.66
682.193	5945.08
682.383	5930.75
682.573	6033.15
682.764	5947.13
682.954	5949.18
683.144	5793.53
683.334	5889.79
683.524	5754.62
683.714	6057.72
683.904	5791.48
684.094	5893.88
684.284	5789.44
684.474	5983.99
684.664	5789.44
684.854	5889.79
685.044	5459.71
685.234	5547.78
685.424	5517.06
685.614	5435.14
685.804	5623.55
685.994	5547.78
686.184	5586.69
686.374	5478.15
686.564	5541.63
686.753	5433.09
686.943	5508.87
687.133	5502.72
687.323	5428.99
687.513	5373.7
687.702	5254.92
687.892	5390.08
688.082	5383.94
688.272	5248.77
688.461	5275.4
688.651	5416.71
688.841	5238.53
689.03	5211.91
689.22	5181.19
689.41	5140.23
689.599	4929.29
689.789	5093.13
689.979	5066.5
690.168	5265.16
690.358	5181.19
690.547	5011.21
690.737	5029.64
690.926	4892.43
691.116	4902.67
691.305	5029.64
691.495	4812.56
691.684	4884.23
691.874	4878.09
692.063	4953.87
692.252	4724.49
692.442	4978.44
692.631	4800.27
692.82	4763.4
693.01	4722.45
693.199	4796.17
693.388	4738.83
693.578	4714.25
693.767	4622.09
693.956	4636.43
694.146	4706.06
694.335	4724.49
694.524	4640.53
694.713	4640.53
694.902	4525.84
695.092	4661.01
695.281	4462.35
695.47	4615.95
695.659	4585.23
695.848	4398.87
696.037	4519.7
696.226	4419.35
696.415	4454.16
696.604	4476.69
696.793	4499.22
696.982	4620.05
697.171	4511.5
697.36	4390.67
697.549	4310.8
697.738	4439.83
697.927	4364.05
698.116	4470.55
698.305	4419.35
698.494	4368.15
698.683	4384.53
698.872	4306.71
699.061	4382.48
699.25	4431.63
699.438	4138.77
699.627	4386.58
699.816	4390.67
700.005	4103.96
700.193	4402.96
700.382	4185.88
700.571	4189.97
700.76	4323.09
700.948	4222.74
701.137	4110.1
701.326	4263.7
701.514	4286.23
701.703	4146.97
701.892	4175.64
702.08	4200.21
702.269	4337.43
702.457	4112.15
702.646	4144.92
702.834	4124.44
703.023	4091.67
703.212	4126.49
703.4	4024.09
703.589	4042.52
703.777	4022.04
703.965	4024.09
704.154	4058.9
704.342	3997.46
704.531	4181.78
704.719	3989.27
704.907	4144.92
705.096	4153.11
705.284	3997.46
705.472	4042.52
705.661	4110.1
705.849	4015.9
706.037	4099.86
706.226	3993.37
706.414	3999.51
706.602	3936.03
706.79	4017.94
706.979	3886.87
707.167	4063
707.355	3915.55
707.543	3878.68
707.731	3950.36
707.919	3866.39
708.107	3958.55
708.296	3880.73
708.484	3893.02
708.672	3948.31
708.86	3948.31
709.048	3809.05
709.236	3888.92
709.424	3712.8
709.612	3835.67
709.8	3807
709.988	3807
710.176	3725.08
710.364	3837.72
710.551	3850.01
710.739	3737.37
710.927	3817.24
711.115	3960.6
711.303	3766.04
711.491	3753.76
711.679	3743.52
711.866	3655.45
712.054	3743.52
712.242	3587.87
712.43	3819.29
712.617	3626.78
712.805	3815.2
712.993	3663.65
713.181	3739.42
713.368	3575.58
713.556	3696.41
713.744	3608.35
713.931	3620.64
714.119	3694.36
714.306	3657.5
714.494	3557.15
714.682	3532.58
714.869	3538.72
715.057	3481.38
715.244	3551.01
715.432	3698.46
715.619	3503.9
715.807	3667.74
715.994	3620.64
716.182	3632.93
716.369	3571.49
716.556	3520.29
716.744	3577.63
716.931	3747.61
717.119	3536.67
717.306	3579.68
717.493	3464.99
717.681	3454.75
717.868	3520.29
718.055	3536.67
718.242	3528.48
718.43	3485.47
718.617	3571.49
718.804	3520.29
718.991	3571.49
719.179	3505.95
719.366	3522.34
719.553	3458.85
719.74	3555.1
719.927	3548.96
720.114	3458.85
720.301	3436.32
720.488	3303.2
720.676	3460.9
720.863	3342.11
721.05	3276.58
721.237	3481.38
721.424	3444.51
721.611	3342.11
721.798	3364.64
721.985	3456.8
722.172	3325.73
722.358	3295.01
722.545	3378.98
722.732	3327.78
722.919	3231.52
723.106	3295.01
723.293	3364.64
723.48	3335.97
723.667	3221.28
723.853	3151.65
724.04	3229.48
724.227	3403.55
724.414	3307.3
724.6	3350.31
724.787	3137.32
724.974	3262.24
725.161	3270.44
725.347	3237.67
725.534	3243.81
725.72	3280.68
725.907	3313.44
726.094	3227.43
726.28	3235.62
726.467	3223.33
726.653	3262.24
726.84	3202.85
727.027	3321.63
727.213	2989.86
727.4	3213.09
727.586	3133.22
727.773	3249.96
727.959	3297.06
728.145	3299.11
728.332	3133.22
728.518	3147.56
728.705	3149.61
728.891	3069.73
729.077	3155.75
729.264	3133.22
729.45	3084.07
729.636	3108.65
729.823	3090.21
730.009	3030.82
730.195	3008.3
730.382	2981.67
730.568	3125.03
730.754	3192.61
730.94	3045.16
731.126	3071.78
731.313	3114.79
731.499	3159.85
731.685	3088.17
731.871	3028.78
732.057	2926.38
732.243	3122.98
732.429	3071.78
732.615	3000.1
732.801	2993.96
732.987	3002.15
733.173	3039.01
733.359	3088.17
733.545	3043.11
733.731	3004.2
733.917	2942.76
734.103	2985.77
734.289	2996.01
734.475	2955.05
734.661	3077.93
734.847	2885.42
735.033	2871.08
735.219	3051.3
735.404	2871.08
735.59	2963.24
735.776	2854.7
735.962	2977.58
736.148	2987.82
736.333	2987.82
736.519	2979.62
736.705	3014.44
736.89	2938.66
737.076	2946.86
737.262	2807.59
737.447	2893.61
737.633	2883.37
737.819	2893.61
738.004	2809.64
738.19	2850.6
738.375	2699.05
738.561	2842.41
738.747	2803.5
738.932	2711.34
739.118	2869.03
739.303	2744.11
739.489	2797.35
739.674	2776.87
739.859	2805.55
740.045	2746.16
740.23	2737.96
740.416	2758.44
740.601	2785.07
740.786	2711.34
740.972	2815.79
741.157	2719.53
741.342	2785.07
741.528	2709.29
741.713	2750.25
741.898	2676.52
742.084	2582.32
742.269	2613.04
742.454	2625.33
742.639	2658.09
742.824	2588.46
743.01	2547.5
743.195	2623.28
743.38	2613.04
743.565	2578.22
743.75	2676.52
743.935	2529.07
744.12	2559.79
744.305	2572.08
744.49	2590.51
744.675	2418.48
744.86	2516.78
745.045	2477.87
745.23	2477.87
745.415	2449.2
745.6	2596.65
745.785	2434.86
745.97	2559.79
746.155	2350.9
746.34	2547.5
746.525	2303.79
746.71	2514.73
746.895	2410.29
747.079	2314.03
747.264	2365.23
747.449	2406.19
747.634	2258.74
747.819	2318.13
748.003	2299.7
748.188	2334.51
748.373	2264.88
748.557	2209.59
748.742	2336.56
748.927	2324.27
749.111	2197.3
749.296	2185.01
749.481	2137.91
749.665	2127.67
749.85	2215.73
750.034	2148.15
750.219	2154.29
750.404	2150.2
750.588	2137.91
750.773	1972.02
750.957	2060.09
751.141	2023.22
751.326	2006.84
751.51	2006.84
751.695	2023.22
751.879	2055.99
752.064	2066.23
752.248	2023.22
752.432	1931.06
752.617	1900.34
752.801	1890.1
752.985	1847.1
753.17	1920.82
753.354	1779.51
753.538	1802.04
753.722	1843
753.907	1898.3
754.091	1750.84
754.275	1853.24
754.459	1750.84
754.643	1740.6
754.828	1912.63
755.012	1814.33
755.196	1673.02
755.38	1783.61
755.564	1756.99
755.748	1785.66
755.932	1693.5
756.116	1722.17
756.3	1634.11
756.484	1742.65
756.668	1720.12
756.852	1634.11
757.036	1673.02
757.22	1677.12
757.404	1646.4
757.588	1625.92
757.772	1630.01
757.956	1621.82
758.14	1527.61
758.323	1630.01
758.507	1607.48
758.691	1617.72
758.875	1550.14
759.059	1601.34
759.242	1533.76
759.426	1494.85
759.61	1496.89
759.794	1480.51
759.977	1449.79
760.161	1531.71
760.345	1468.22
760.528	1412.93
760.712	1453.89
760.895	1505.09
761.079	1478.46
761.263	1363.78
761.446	1412.93
761.63	1421.12
761.813	1482.56
761.997	1335.1
762.18	1328.96
762.364	1400.64
762.547	1417.02
762.731	1331.01
762.914	1449.79
763.098	1367.87
763.281	1349.44
763.464	1324.87
763.648	1335.1
763.831	1382.21
764.015	1353.54
764.198	1267.52
764.381	1386.3
764.564	1285.95
764.748	1324.87
764.931	1398.59
765.114	1374.02
765.297	1310.53
765.481	1218.37
765.664	1306.43
765.847	1208.13
766.03	1308.48
766.213	1326.91
766.397	1310.53
766.58	1175.36
766.763	1294.15
766.946	1310.53
767.129	1263.43
767.312	1218.37
767.495	1247.04
767.678	1169.22
767.861	1257.28
768.044	1259.33
768.227	1216.32
768.41	1285.95
768.593	1144.64
768.776	1122.12
768.959	1132.36
769.142	1138.5
769.324	1222.47
769.507	1253.19
769.69	1208.13
769.873	1226.56
770.056	1111.88
770.239	1173.32
770.421	1109.83
770.604	1113.92
770.787	1113.92
770.97	1140.55
771.152	1068.87
771.335	1126.21
771.518	1142.6
771.7	1105.73
771.883	1169.22
772.066	1034.05
772.248	1189.7
772.431	1130.31
772.613	1212.23
772.796	1089.35
772.978	1142.6
773.161	1103.68
773.343	1034.05
773.526	1021.77
773.708	902.98
773.891	1009.48
774.073	1093.44
774.256	1046.34
774.438	1036.1
774.621	1032.01
774.803	989
774.985	1007.43
775.168	980.81
775.35	931.66
775.532	974.66
775.715	982.85
775.897	1005.38
776.079	876.36
776.261	960.33
776.444	1021.77
776.626	851.78
776.808	892.74
776.99	962.37
777.173	956.23
777.355	950.09
777.537	907.08
777.719	855.88
777.901	978.76
778.083	884.55
778.265	853.83
778.447	868.17
778.629	825.16
778.811	843.59
778.993	806.73
779.175	843.59
779.357	870.22
779.539	898.89
779.721	839.5
779.903	757.58
780.085	878.41
780.267	726.86
780.449	753.48
780.631	753.48
780.812	728.91
780.994	737.1
781.176	710.47
781.358	765.77
781.54	743.24
781.721	806.73
781.903	743.24
782.085	669.52
782.267	710.47
782.448	679.75
782.63	696.14
782.812	730.95
782.993	694.09
783.175	689.99
783.357	710.47
783.538	694.09
783.72	718.67
783.901	581.45
784.083	698.19
784.264	708.43
784.446	636.75
784.627	601.93
784.809	583.5
784.99	583.5
785.172	552.78
785.353	646.99
785.535	546.64
785.716	661.32
785.897	579.4
786.079	556.88
786.26	651.08
786.441	593.74
786.623	505.68
786.804	563.02
786.985	585.55
787.167	577.36
787.348	591.69
787.529	554.83
787.71	507.73
787.891	618.32
788.073	610.12
788.254	526.16
788.435	507.73
788.616	593.74
788.797	454.48
788.978	567.12
789.159	520.01
789.34	501.58
789.522	589.64
789.703	495.44
789.884	528.21
790.065	481.1
790.246	495.44
790.427	526.16
790.607	491.34
790.788	544.59
790.969	425.81
791.15	419.66
791.331	505.68
791.512	491.34
791.693	462.67
791.874	466.77
792.054	450.38
792.235	452.43
792.416	556.88
792.597	487.25
792.778	493.39
792.958	460.62
793.139	427.85
793.32	319.31
793.5	452.43
793.681	429.9
793.862	370.51
794.042	405.33
794.223	409.42
794.404	417.61
794.584	388.94
794.765	431.95
794.945	450.38
795.126	401.23
795.306	425.81
795.487	470.86
795.667	401.23
795.848	372.56
796.028	417.61
796.209	382.8
796.389	507.73
796.57	356.18
796.75	458.57
796.93	417.61
797.111	393.04
797.291	368.46
797.471	368.46
797.652	382.8
797.832	378.7
798.012	423.76
798.192	366.42
798.373	323.41
798.553	399.18
798.733	331.6
798.913	356.18
799.093	364.37
799.274	341.84
799.454	333.65
799.634	327.5
799.814	370.51
799.994	384.85
800.174	325.46
800.354	268.11
800.534	360.27
800.714	368.46
800.894	307.02
801.074	210.77
801.254	358.22
801.434	386.9
801.614	321.36
801.794	302.93
801.974	761.67
802.154	405.33
802.334	425.81
802.514	245.59
802.693	249.68
802.873	296.78
803.053	347.98
803.233	368.46
803.413	270.16
803.592	261.97
803.772	337.74
803.952	350.03
804.131	360.27
804.311	300.88
804.491	341.84
804.67	266.07
804.85	292.69
805.03	261.97
805.209	311.12
805.389	304.98
805.568	325.46
805.748	270.16
805.928	382.8
806.107	237.39
806.287	268.11
806.466	237.39
806.646	327.5
806.825	245.59
807.004	266.07
807.184	261.97
807.363	278.35
807.543	218.96
807.722	315.22
807.901	274.26
808.081	241.49
808.26	204.63
808.439	237.39
808.619	245.59
808.798	241.49
808.977	225.11
809.156	253.78
809.336	307.02
809.515	233.3
809.694	245.59
809.873	221.01
810.052	233.3
810.231	298.83
810.411	311.12
810.59	257.87
810.769	313.17
810.948	225.11
811.127	188.24
811.306	225.11
811.485	270.16
811.664	286.54
811.843	204.63
812.022	268.11
812.201	274.26
812.38	194.39
812.559	257.87
812.737	272.21
812.916	122.71
813.095	159.57
813.274	276.31
813.453	210.77
813.632	218.96
813.811	247.63
813.989	149.33
814.168	268.11
814.347	167.76
814.526	266.07
814.704	239.44
814.883	206.67
815.062	270.16
815.24	216.91
815.419	212.82
815.598	229.2
815.776	206.67
815.955	235.35
816.133	210.77
816.312	307.02
816.49	235.35
816.669	223.06
816.847	210.77
817.026	218.96
817.204	237.39
817.383	198.48
817.561	155.47
817.74	204.63
817.918	302.93
818.097	171.86
818.275	153.43
818.453	198.48
818.632	227.15
818.81	159.57
818.988	214.87
819.167	139.09
819.345	210.77
819.523	180.05
819.701	184.15
819.879	175.95
820.058	184.15
820.236	264.02
820.414	139.09
820.592	212.82
820.77	200.53
820.948	218.96
821.127	145.24
821.305	171.86
821.483	120.66
821.661	178
821.839	143.19
822.017	190.29
822.195	196.43
822.373	196.43
822.551	184.15
822.729	175.95
822.907	145.24
823.085	241.49
823.262	143.19
823.44	147.28
823.618	151.38
823.796	196.43
823.974	161.62
824.152	122.71
824.329	104.28
824.507	171.86
824.685	167.76
824.863	102.23
825.04	178
825.218	196.43
825.396	218.96
825.574	206.67
825.751	120.66
825.929	194.39
826.107	130.9
826.284	141.14
826.462	108.37
826.639	102.23
826.817	108.37
826.994	106.32
827.172	135
827.349	190.29
827.527	126.8
827.704	163.67
827.882	145.24
828.059	157.52
828.237	98.13
828.414	147.28
828.591	55.12
828.769	175.95
828.946	145.24
829.124	153.43
829.301	155.47
829.478	180.05
829.655	126.8
829.833	104.28
830.01	85.84
830.187	200.53
830.364	102.23
830.542	96.08
830.719	206.67
830.896	87.89
831.073	141.14
831.25	132.95
831.427	118.61
831.604	118.61
831.782	98.13
831.959	130.9
832.136	159.57
832.313	55.12
832.49	141.14
832.667	167.76
832.844	104.28
833.021	128.85
833.198	165.71
833.374	139.09
833.551	194.39
833.728	120.66
833.905	89.94
834.082	153.43
834.259	102.23
834.436	208.72
834.612	110.42
834.789	-18.6
834.966	48.98
835.143	130.9
835.319	96.08
835.496	139.09
835.673	126.8
835.85	118.61
836.026	36.69
836.203	65.36
836.38	94.04
836.556	141.14
836.733	71.51
836.909	149.33
837.086	124.76
837.262	91.99
837.439	71.51
837.616	67.41
837.792	48.98
837.968	106.32
838.145	87.89
838.321	79.7
838.498	94.04
838.674	18.26
838.851	128.85
839.027	69.46
839.203	81.75
839.38	46.93
839.556	110.42
839.732	65.36
839.909	57.17
840.085	130.9
840.261	46.93
840.437	44.88
840.614	67.41
840.79	122.71
840.966	100.18
841.142	-4.27
841.318	73.56
841.494	36.69
841.671	69.46
841.847	38.74
842.023	40.79
842.199	132.95
842.375	63.32
842.551	110.42
842.727	-8.36
842.903	147.28
843.079	40.79
843.255	75.6
843.431	67.41
843.607	100.18
843.783	83.8
843.959	96.08
844.134	48.98
844.31	83.8
844.486	57.17
844.662	102.23
844.838	57.17
845.013	112.47
845.189	65.36
845.365	118.61
845.541	59.22
845.716	85.84
845.892	98.13
846.068	67.41
846.244	71.51
846.419	122.71
846.595	94.04
846.77	114.52
846.946	30.55
847.122	67.41
847.297	40.79
847.473	194.39
847.648	55.12
847.824	-4.27
847.999	96.08
848.175	63.32
848.35	57.17
848.526	145.24
848.701	91.99
848.876	85.84
849.052	75.6
849.227	-24.75
849.403	-8.36
849.578	104.28
849.753	63.32
849.929	20.31
850.104	91.99
850.279	128.85
850.454	36.69
850.63	14.17
850.805	104.28
850.98	108.37
851.155	77.65
851.33	3.93
851.505	28.5
851.681	87.89
851.856	28.5
852.031	48.98
852.206	5.97
852.381	-6.31
852.556	5.97
852.731	73.56
852.906	81.75
853.081	151.38
853.256	128.85
853.431	48.98
853.606	40.79
853.781	5.97
853.956	51.03
854.131	32.6
854.305	48.98
854.48	16.21
854.655	32.6
854.83	48.98
855.005	40.79
855.18	44.88
855.354	-8.36
855.529	51.03
855.704	69.46
855.879	40.79
856.053	14.17
856.228	-8.36
856.403	10.07
856.577	51.03
856.752	112.47
856.926	-8.36
857.101	85.84
857.276	3.93
857.45	-39.08
857.625	81.75
857.799	30.55
857.974	91.99
858.148	24.4
858.323	8.02
858.497	32.6
858.672	12.12
858.846	28.5
859.02	81.75
859.195	61.27
859.369	124.76
859.543	5.97
859.718	87.89
859.892	20.31
860.066	77.65
860.241	59.22
860.415	40.79
860.589	38.74
860.763	59.22
860.938	42.84
861.112	42.84
861.286	-41.13
861.46	40.79
861.634	71.51
861.808	20.31
861.982	61.27
862.157	-28.84
862.331	51.03
862.505	-0.17
862.679	-10.41
862.853	106.32
863.027	-32.94
863.201	61.27
863.375	73.56
863.549	63.32
863.722	18.26
863.896	57.17
864.07	51.03
864.244	30.55
864.418	46.93
864.592	63.32
864.766	53.08
864.939	20.31
865.113	57.17
865.287	110.42
865.461	51.03
865.634	24.4
865.808	53.08
865.982	28.5
866.156	26.45
866.329	8.02
866.503	48.98
866.676	46.93
866.85	-18.6
867.024	-43.18
867.197	65.36
867.371	-2.22
867.544	94.04
867.718	28.5
867.891	59.22
868.065	75.6
868.238	-32.94
868.412	38.74
868.585	48.98
868.759	-47.27
868.932	77.65
869.105	8.02
869.279	-0.17
869.452	79.7
869.625	53.08
869.799	30.55
869.972	-53.42
870.145	8.02
870.319	16.21
870.492	-8.36
870.665	-22.7
870.838	24.4
871.011	42.84
871.185	-2.22
871.358	46.93
871.531	3.93
871.704	1.88
871.877	53.08
872.05	-32.94
872.223	14.17
872.396	20.31
872.569	42.84
872.742	-8.36
872.915	28.5
873.088	61.27
873.261	-20.65
873.434	40.79
873.607	10.07
873.78	14.17
873.953	-20.65
874.126	-12.46
874.299	14.17
874.471	-18.6
874.644	73.56
874.817	24.4
874.99	75.6
875.163	12.12
875.335	44.88
875.508	16.21
875.681	44.88
875.853	26.45
876.026	51.03
876.199	8.02
876.371	48.98
876.544	55.12
876.717	69.46
876.889	-8.36
877.062	67.41
877.234	-32.94
877.407	-73.9
877.579	36.69
877.752	8.02
877.924	3.93
878.097	65.36
878.269	10.07
878.442	73.56
878.614	28.5
878.786	34.64
878.959	-22.7
879.131	12.12
879.303	3.93
879.476	-43.18
879.648	18.26
879.82	137.04
879.993	-18.6
880.165	-4.27
880.337	16.21
880.509	65.36
880.681	32.6
880.854	-49.32
881.026	36.69
881.198	51.03
881.37	106.32
881.542	1.88
881.714	89.94
881.886	32.6
882.058	30.55
882.23	40.79
882.402	10.07
882.574	77.65
882.746	85.84
882.918	69.46
883.09	28.5
883.262	8.02
883.434	-41.13
883.606	-6.31
883.778	12.12
883.95	89.94
884.122	10.07
884.293	75.6
884.465	36.69
884.637	73.56
884.809	-26.79
884.98	57.17
885.152	22.36
885.324	3.93
885.496	1.88
885.667	16.21
885.839	44.88
886.011	26.45
886.182	3.93
886.354	5.97
886.525	-12.46
886.697	32.6
886.869	-10.41
887.04	-18.6
887.212	-8.36
887.383	-4.27
887.555	102.23
887.726	36.69
887.897	26.45
888.069	36.69
888.24	-32.94
888.412	26.45
888.583	34.64
888.754	8.02
888.926	30.55
889.097	18.26
889.268	-37.03
889.44	20.31
889.611	5.97
889.782	46.93
889.953	-2.22
890.125	46.93
890.296	12.12
890.467	34.64
890.638	10.07
890.809	26.45
890.98	36.69
891.151	-26.79
891.323	57.17
891.494	57.17
891.665	12.12
891.836	3.93
892.007	55.12
892.178	-14.51
892.349	73.56
892.52	28.5
892.691	69.46
892.862	44.88
893.032	8.02
893.203	-30.89
893.374	30.55
893.545	12.12
893.716	69.46
893.887	104.28
894.057	-16.55
894.228	75.6
894.399	30.55
894.57	-0.17
894.74	-41.13
894.911	42.84
895.082	-32.94
895.253	34.64
895.423	85.84
895.594	32.6
895.764	61.27
895.935	-6.31
896.106	-12.46
896.276	-22.7
896.447	18.26
896.617	26.45
896.788	-12.46
896.958	87.89
897.129	-43.18
897.299	-41.13
897.47	16.21
897.64	46.93
897.81	40.79
897.981	-24.75
898.151	-12.46
898.322	40.79
898.492	-20.65
898.662	-41.13
898.832	59.22
899.003	12.12
899.173	-18.6
899.343	-24.75
899.513	8.02
