Data from USB4F104151__107__11-07-13-398.txt Node

Date: Wed Mar 12 11:07:13 EDT 2025
User: louis
Spectrometer: USB4F10415
Trigger mode: 4
Integration Time (sec): 2.000000E-2
Scans to average: 1
Electric dark correction enabled: true
Nonlinearity correction enabled: false
Boxcar width: 0
XAxis mode: Wavelengths
Number of Pixels in Spectrum: 3648
>>>>>Begin Spectral Data<<<<<
178.204	-77.65
178.424	-77.65
178.644	-77.65
178.864	-87.89
179.084	-116.56
179.304	-32.6
179.524	28.84
179.744	-22.36
179.964	2.22
180.184	49.32
180.404	22.7
180.624	-1.88
180.844	-67.41
181.064	41.13
181.283	63.66
181.503	-30.55
181.723	-53.08
181.943	-42.84
182.163	-22.36
182.383	6.31
182.602	-22.36
182.822	61.61
183.042	18.6
183.262	41.13
183.482	53.42
183.701	-16.21
183.921	43.18
184.141	47.27
184.361	71.85
184.58	73.9
184.8	37.03
185.02	16.55
185.239	43.18
185.459	-5.97
185.679	8.36
185.898	57.51
186.118	47.27
186.338	34.99
186.557	-100.18
186.777	18.6
186.997	37.03
187.216	65.71
187.436	96.43
187.655	59.56
187.875	-42.84
188.095	71.85
188.314	90.28
188.534	2.22
188.753	37.03
188.973	16.55
189.192	104.62
189.412	75.95
189.631	80.04
189.851	53.42
190.07	53.42
190.29	41.13
190.509	47.27
190.729	73.9
190.948	63.66
191.168	112.81
191.387	57.51
191.607	32.94
191.826	59.56
192.045	-75.6
192.265	-10.07
192.484	45.23
192.704	65.71
192.923	32.94
193.142	22.7
193.362	34.99
193.581	80.04
193.8	67.75
194.02	-40.79
194.239	8.36
194.458	26.79
194.678	75.95
194.897	-28.5
195.116	57.51
195.335	-18.26
195.555	59.56
195.774	-48.98
195.993	-3.93
196.212	10.41
196.432	12.46
196.651	-14.17
196.87	0.17
197.089	39.08
197.308	0.17
197.528	30.89
197.747	41.13
197.966	47.27
198.185	57.51
198.404	0.17
198.623	77.99
198.842	-1.88
199.062	43.18
199.281	6.31
199.5	71.85
199.719	45.23
199.938	59.56
200.157	110.76
200.376	22.7
200.595	71.85
200.814	-57.17
201.033	59.56
201.252	-40.79
201.471	45.23
201.69	37.03
201.909	32.94
202.128	49.32
202.347	-22.36
202.566	-10.07
202.785	-28.5
203.004	-10.07
203.223	104.62
203.442	-5.97
203.661	63.66
203.879	-38.74
204.098	82.09
204.317	71.85
204.536	75.95
204.755	16.55
204.974	-28.5
205.193	-53.08
205.411	69.8
205.63	14.51
205.849	30.89
206.068	-83.8
206.287	16.55
206.505	-8.02
206.724	75.95
206.943	55.47
207.162	2.22
207.381	65.71
207.599	20.65
207.818	4.27
208.037	24.75
208.255	-18.26
208.474	14.51
208.693	75.95
208.911	65.71
209.13	30.89
209.349	-3.93
209.567	-3.93
209.786	121
210.005	55.47
210.223	30.89
210.442	104.62
210.661	28.84
210.879	59.56
211.098	-1.88
211.316	12.46
211.535	63.66
211.753	0.17
211.972	16.55
212.191	-14.17
212.409	10.41
212.628	-8.02
212.846	80.04
213.065	43.18
213.283	32.94
213.502	-34.64
213.72	61.61
213.938	-5.97
214.157	75.95
214.375	43.18
214.594	49.32
214.812	24.75
215.031	32.94
215.249	63.66
215.467	16.55
215.686	67.75
215.904	8.36
216.122	-28.5
216.341	65.71
216.559	53.42
216.778	47.27
216.996	80.04
217.214	-5.97
217.432	10.41
217.651	59.56
217.869	41.13
218.087	6.31
218.306	-14.17
218.524	-16.21
218.742	28.84
218.96	30.89
219.179	-12.12
219.397	-20.31
219.615	51.37
219.833	114.86
220.051	34.99
220.27	96.43
220.488	75.95
220.706	63.66
220.924	-38.74
221.142	24.75
221.36	-32.6
221.578	2.22
221.796	34.99
222.015	41.13
222.233	-3.93
222.451	22.7
222.669	14.51
222.887	88.23
223.105	2.22
223.323	84.14
223.541	-1.88
223.759	0.17
223.977	-10.07
224.195	47.27
224.413	14.51
224.631	45.23
224.849	18.6
225.067	123.05
225.285	0.17
225.503	-18.26
225.721	45.23
225.939	32.94
226.157	37.03
226.375	55.47
226.592	4.27
226.81	-24.4
227.028	116.9
227.246	-5.97
227.464	61.61
227.682	26.79
227.9	51.37
228.117	30.89
228.335	30.89
228.553	63.66
228.771	-12.12
228.989	121
229.206	24.75
229.424	-8.02
229.642	4.27
229.86	-10.07
230.077	71.85
230.295	2.22
230.513	98.47
230.731	80.04
230.948	30.89
231.166	80.04
231.384	-36.69
231.601	86.19
231.819	37.03
232.037	-22.36
232.254	-48.98
232.472	-5.97
232.689	10.41
232.907	14.51
233.125	12.46
233.342	73.9
233.56	14.51
233.777	-26.45
233.995	16.55
234.213	86.19
234.43	-14.17
234.648	41.13
234.865	-10.07
235.083	16.55
235.3	-32.6
235.518	6.31
235.735	75.95
235.953	92.33
236.17	4.27
236.388	18.6
236.605	65.71
236.822	26.79
237.04	26.79
237.257	39.08
237.475	16.55
237.692	47.27
237.909	-20.31
238.127	75.95
238.344	37.03
238.562	39.08
238.779	-30.55
238.996	67.75
239.214	86.19
239.431	49.32
239.648	57.51
239.865	0.17
240.083	67.75
240.3	2.22
240.517	-5.97
240.735	61.61
240.952	73.9
241.169	6.31
241.386	53.42
241.603	16.55
241.821	8.36
242.038	127.14
242.255	69.8
242.472	59.56
242.689	37.03
242.907	55.47
243.124	80.04
243.341	45.23
243.558	71.85
243.775	123.05
243.992	37.03
244.209	125.1
244.426	59.56
244.643	34.99
244.86	37.03
245.078	-32.6
245.295	16.55
245.512	16.55
245.729	16.55
245.946	65.71
246.163	-38.74
246.38	37.03
246.597	53.42
246.814	39.08
247.031	26.79
247.248	67.75
247.464	106.67
247.681	41.13
247.898	20.65
248.115	39.08
248.332	0.17
248.549	0.17
248.766	61.61
248.983	98.47
249.2	14.51
249.417	32.94
249.633	55.47
249.85	18.6
250.067	90.28
250.284	30.89
250.501	61.61
250.717	0.17
250.934	-77.65
251.151	-1.88
251.368	8.36
251.585	41.13
251.801	18.6
252.018	45.23
252.235	-5.97
252.451	39.08
252.668	51.37
252.885	18.6
253.102	47.27
253.318	26.79
253.535	28.84
253.752	100.52
253.968	14.51
254.185	18.6
254.401	24.75
254.618	43.18
254.835	20.65
255.051	-1.88
255.268	26.79
255.484	20.65
255.701	-8.02
255.917	69.8
256.134	86.19
256.351	6.31
256.567	28.84
256.784	2.22
257	8.36
257.217	20.65
257.433	98.47
257.65	73.9
257.866	-18.26
258.082	20.65
258.299	-14.17
258.515	39.08
258.732	65.71
258.948	98.47
259.165	65.71
259.381	51.37
259.597	34.99
259.814	98.47
260.03	32.94
260.246	41.13
260.463	47.27
260.679	-18.26
260.895	69.8
261.112	41.13
261.328	63.66
261.544	100.52
261.761	82.09
261.977	65.71
262.193	-20.31
262.409	86.19
262.626	39.08
262.842	-5.97
263.058	45.23
263.274	53.42
263.49	37.03
263.707	88.23
263.923	43.18
264.139	100.52
264.355	2.22
264.571	88.23
264.787	26.79
265.004	121
265.22	8.36
265.436	57.51
265.652	39.08
265.868	59.56
266.084	49.32
266.3	-1.88
266.516	14.51
266.732	43.18
266.948	22.7
267.164	22.7
267.38	-67.41
267.596	26.79
267.812	41.13
268.028	92.33
268.244	-1.88
268.46	47.27
268.676	67.75
268.892	-77.65
269.108	51.37
269.324	28.84
269.54	24.75
269.756	12.46
269.972	98.47
270.188	82.09
270.403	47.27
270.619	12.46
270.835	53.42
271.051	24.75
271.267	110.76
271.483	37.03
271.698	63.66
271.914	106.67
272.13	125.1
272.346	24.75
272.562	20.65
272.777	26.79
272.993	37.03
273.209	-10.07
273.425	-24.4
273.64	-18.26
273.856	73.9
274.072	73.9
274.287	102.57
274.503	98.47
274.719	16.55
274.934	8.36
275.15	10.41
275.366	-3.93
275.581	41.13
275.797	51.37
276.012	84.14
276.228	45.23
276.444	30.89
276.659	108.71
276.875	-40.79
277.09	-36.69
277.306	123.05
277.521	80.04
277.737	0.17
277.952	77.99
278.168	20.65
278.383	32.94
278.599	118.95
278.814	24.75
279.03	6.31
279.245	26.79
279.461	43.18
279.676	24.75
279.892	55.47
280.107	30.89
280.322	10.41
280.538	14.51
280.753	51.37
280.969	28.84
281.184	18.6
281.399	59.56
281.615	82.09
281.83	67.75
282.045	86.19
282.26	53.42
282.476	-24.4
282.691	100.52
282.906	43.18
283.122	49.32
283.337	63.66
283.552	14.51
283.767	77.99
283.983	86.19
284.198	26.79
284.413	39.08
284.628	-30.55
284.843	6.31
285.058	73.9
285.274	63.66
285.489	-28.5
285.704	96.43
285.919	20.65
286.134	-12.12
286.349	84.14
286.564	49.32
286.779	96.43
286.995	-8.02
287.21	-40.79
287.425	-10.07
287.64	45.23
287.855	151.72
288.07	8.36
288.285	-3.93
288.5	80.04
288.715	-14.17
288.93	-40.79
289.145	24.75
289.36	30.89
289.575	6.31
289.79	-24.4
290.004	24.75
290.219	-38.74
290.434	20.65
290.649	-55.12
290.864	94.38
291.079	32.94
291.294	43.18
291.509	55.47
291.724	71.85
291.938	30.89
292.153	94.38
292.368	63.66
292.583	94.38
292.798	10.41
293.012	43.18
293.227	-1.88
293.442	20.65
293.657	77.99
293.871	92.33
294.086	104.62
294.301	45.23
294.516	43.18
294.73	51.37
294.945	43.18
295.16	18.6
295.374	57.51
295.589	59.56
295.804	18.6
296.018	32.94
296.233	63.66
296.447	6.31
296.662	-26.45
296.877	51.37
297.091	14.51
297.306	55.47
297.52	22.7
297.735	57.51
297.949	14.51
298.164	-16.21
298.378	61.61
298.593	39.08
298.807	47.27
299.022	34.99
299.236	57.51
299.451	16.55
299.665	-5.97
299.88	65.71
300.094	49.32
300.309	22.7
300.523	26.79
300.737	37.03
300.952	110.76
301.166	108.71
301.381	43.18
301.595	96.43
301.809	59.56
302.024	22.7
302.238	-5.97
302.452	80.04
302.667	-34.64
302.881	84.14
303.095	43.18
303.309	104.62
303.524	22.7
303.738	30.89
303.952	30.89
304.166	112.81
304.381	-1.88
304.595	84.14
304.809	43.18
305.023	67.75
305.237	18.6
305.452	14.51
305.666	12.46
305.88	49.32
306.094	55.47
306.308	157.86
306.522	84.14
306.736	90.28
306.95	82.09
307.164	67.75
307.379	41.13
307.593	116.9
307.807	49.32
308.021	127.14
308.235	104.62
308.449	22.7
308.663	49.32
308.877	131.24
309.091	20.65
309.305	59.56
309.519	16.55
309.733	118.95
309.947	-12.12
310.161	110.76
310.374	34.99
310.588	43.18
310.802	26.79
311.016	24.75
311.23	26.79
311.444	32.94
311.658	-3.93
311.872	75.95
312.085	47.27
312.299	34.99
312.513	-12.12
312.727	14.51
312.941	-28.5
313.154	77.99
313.368	51.37
313.582	82.09
313.796	69.8
314.009	22.7
314.223	57.51
314.437	61.61
314.651	26.79
314.864	57.51
315.078	-48.98
315.292	-8.02
315.505	6.31
315.719	61.61
315.933	86.19
316.146	10.41
316.36	75.95
316.573	69.8
316.787	71.85
317.001	12.46
317.214	116.9
317.428	-42.84
317.641	2.22
317.855	59.56
318.068	63.66
318.282	86.19
318.495	116.9
318.709	90.28
318.922	59.56
319.136	43.18
319.349	53.42
319.563	-22.36
319.776	57.51
319.99	-20.31
320.203	41.13
320.417	73.9
320.63	51.37
320.843	24.75
321.057	73.9
321.27	92.33
321.483	63.66
321.697	112.81
321.91	14.51
322.124	-18.26
322.337	96.43
322.55	37.03
322.763	116.9
322.977	63.66
323.19	41.13
323.403	67.75
323.617	112.81
323.83	12.46
324.043	41.13
324.256	90.28
324.469	22.7
324.683	53.42
324.896	45.23
325.109	92.33
325.322	-8.02
325.535	57.51
325.748	73.9
325.962	45.23
326.175	37.03
326.388	14.51
326.601	61.61
326.814	41.13
327.027	-14.17
327.24	55.47
327.453	55.47
327.666	96.43
327.879	24.75
328.092	49.32
328.305	151.72
328.518	0.17
328.731	84.14
328.944	-10.07
329.157	26.79
329.37	45.23
329.583	65.71
329.796	51.37
330.009	77.99
330.222	153.77
330.435	16.55
330.648	-14.17
330.861	80.04
331.073	129.19
331.286	69.8
331.499	18.6
331.712	-14.17
331.925	67.75
332.138	65.71
332.35	34.99
332.563	45.23
332.776	20.65
332.989	-3.93
333.202	41.13
333.414	18.6
333.627	84.14
333.84	57.51
334.053	49.32
334.265	34.99
334.478	28.84
334.691	86.19
334.903	77.99
335.116	20.65
335.329	37.03
335.541	77.99
335.754	14.51
335.966	8.36
336.179	26.79
336.392	-5.97
336.604	67.75
336.817	-8.02
337.029	102.57
337.242	41.13
337.454	45.23
337.667	43.18
337.88	104.62
338.092	-3.93
338.305	84.14
338.517	16.55
338.729	106.67
338.942	73.9
339.154	77.99
339.367	51.37
339.579	14.51
339.792	53.42
340.004	174.25
340.217	26.79
340.429	71.85
340.641	55.47
340.854	69.8
341.066	28.84
341.278	51.37
341.491	100.52
341.703	73.9
341.915	30.89
342.128	57.51
342.34	-42.84
342.552	32.94
342.764	116.9
342.977	30.89
343.189	133.29
343.401	92.33
343.613	30.89
343.826	41.13
344.038	92.33
344.25	8.36
344.462	53.42
344.674	57.51
344.886	18.6
345.099	12.46
345.311	57.51
345.523	32.94
345.735	8.36
345.947	106.67
346.159	69.8
346.371	34.99
346.583	-16.21
346.795	73.9
347.007	65.71
347.219	75.95
347.431	65.71
347.643	96.43
347.855	63.66
348.067	69.8
348.279	-16.21
348.491	18.6
348.703	67.75
348.915	43.18
349.127	69.8
349.339	18.6
349.551	80.04
349.763	96.43
349.975	26.79
350.187	137.38
350.399	82.09
350.61	112.81
350.822	41.13
351.034	30.89
351.246	77.99
351.458	-26.45
351.669	82.09
351.881	77.99
352.093	-5.97
352.305	57.51
352.517	69.8
352.728	131.24
352.94	45.23
353.152	98.47
353.363	86.19
353.575	102.57
353.787	28.84
353.999	94.38
354.21	39.08
354.422	30.89
354.633	51.37
354.845	63.66
355.057	0.17
355.268	121
355.48	51.37
355.692	61.61
355.903	80.04
356.115	47.27
356.326	53.42
356.538	63.66
356.749	121
356.961	75.95
357.172	112.81
357.384	28.84
357.595	90.28
357.807	100.52
358.018	18.6
358.23	30.89
358.441	65.71
358.653	41.13
358.864	39.08
359.075	63.66
359.287	16.55
359.498	67.75
359.709	100.52
359.921	43.18
360.132	47.27
360.344	32.94
360.555	80.04
360.766	108.71
360.977	22.7
361.189	100.52
361.4	43.18
361.611	57.51
361.823	51.37
362.034	80.04
362.245	28.84
362.456	94.38
362.667	121
362.879	75.95
363.09	18.6
363.301	94.38
363.512	125.1
363.723	108.71
363.935	26.79
364.146	18.6
364.357	104.62
364.568	59.56
364.779	22.7
364.99	110.76
365.201	121
365.412	41.13
365.623	116.9
365.834	8.36
366.045	47.27
366.256	67.75
366.467	112.81
366.678	137.38
366.889	67.75
367.1	57.51
367.311	49.32
367.522	34.99
367.733	108.71
367.944	65.71
368.155	43.18
368.366	2.22
368.577	16.55
368.788	55.47
368.999	57.51
369.209	88.23
369.42	123.05
369.631	100.52
369.842	16.55
370.053	30.89
370.264	166.06
370.474	104.62
370.685	-71.51
370.896	129.19
371.107	51.37
371.317	75.95
371.528	18.6
371.739	53.42
371.95	96.43
372.16	125.1
372.371	8.36
372.582	-14.17
372.792	116.9
373.003	88.23
373.214	41.13
373.424	90.28
373.635	63.66
373.846	123.05
374.056	32.94
374.267	-20.31
374.477	98.47
374.688	12.46
374.898	67.75
375.109	90.28
375.319	116.9
375.53	69.8
375.74	22.7
375.951	43.18
376.161	121
376.372	96.43
376.582	32.94
376.793	57.51
377.003	30.89
377.214	4.27
377.424	67.75
377.635	51.37
377.845	39.08
378.055	55.47
378.266	16.55
378.476	80.04
378.686	75.95
378.897	43.18
379.107	71.85
379.317	96.43
379.528	26.79
379.738	67.75
379.948	82.09
380.158	32.94
380.369	137.38
380.579	59.56
380.789	137.38
380.999	67.75
381.21	14.51
381.42	127.14
381.63	61.61
381.84	71.85
382.05	92.33
382.261	116.9
382.471	34.99
382.681	30.89
382.891	71.85
383.101	96.43
383.311	41.13
383.521	26.79
383.731	67.75
383.941	114.86
384.151	24.75
384.361	92.33
384.571	86.19
384.781	34.99
384.991	88.23
385.201	137.38
385.411	127.14
385.621	98.47
385.831	49.32
386.041	20.65
386.251	51.37
386.461	176.3
386.671	20.65
386.881	145.58
387.091	51.37
387.301	108.71
387.511	20.65
387.72	39.08
387.93	57.51
388.14	18.6
388.35	98.47
388.56	98.47
388.769	125.1
388.979	-1.88
389.189	41.13
389.399	92.33
389.609	86.19
389.818	118.95
390.028	75.95
390.238	108.71
390.447	75.95
390.657	77.99
390.867	26.79
391.076	71.85
391.286	2.22
391.496	102.57
391.705	34.99
391.915	71.85
392.125	80.04
392.334	80.04
392.544	106.67
392.753	106.67
392.963	55.47
393.172	145.58
393.382	75.95
393.591	176.3
393.801	53.42
394.01	69.8
394.22	147.62
394.429	69.8
394.639	116.9
394.848	102.57
395.058	61.61
395.267	84.14
395.477	108.71
395.686	94.38
395.895	121
396.105	61.61
396.314	65.71
396.524	41.13
396.733	110.76
396.942	127.14
397.152	172.2
397.361	172.2
397.57	164.01
397.78	102.57
397.989	131.24
398.198	133.29
398.407	82.09
398.617	118.95
398.826	131.24
399.035	59.56
399.244	147.62
399.453	145.58
399.663	106.67
399.872	121
400.081	135.34
400.29	127.14
400.499	129.19
400.708	110.76
400.917	112.81
401.127	114.86
401.336	88.23
401.545	135.34
401.754	127.14
401.963	172.2
402.172	166.06
402.381	98.47
402.59	182.44
402.799	94.38
403.008	186.54
403.217	108.71
403.426	252.07
403.635	221.35
403.844	172.2
404.053	221.35
404.262	170.15
404.471	207.02
404.68	209.06
404.888	118.95
405.097	157.86
405.306	288.93
405.515	108.71
405.724	227.5
405.933	225.45
406.142	215.21
406.35	141.48
406.559	243.88
406.768	213.16
406.977	227.5
407.185	231.59
407.394	336.04
407.603	211.11
407.812	262.31
408.02	325.8
408.229	247.97
408.438	299.17
408.646	303.27
408.855	352.42
409.064	358.57
409.272	323.75
409.481	432.29
409.69	446.63
409.898	383.14
410.107	389.28
410.315	333.99
410.524	452.77
410.733	432.29
410.941	442.53
411.15	585.89
411.358	393.38
411.567	510.11
411.775	501.92
411.984	475.3
412.192	551.07
412.401	579.75
412.609	606.37
412.818	643.23
413.026	647.33
413.234	659.62
413.443	676
413.651	698.53
413.86	684.19
414.068	759.97
414.276	845.98
414.485	823.45
414.693	813.21
414.901	891.04
415.11	813.21
415.318	938.14
415.526	952.48
415.734	1061.02
415.943	1032.35
416.151	1126.55
416.359	1050.78
416.567	1101.98
416.776	1171.61
416.984	1192.09
417.192	1407.13
417.4	1347.73
417.608	1378.45
417.817	1405.08
418.025	1513.62
418.233	1587.35
418.441	1523.86
418.649	1630.35
418.857	1691.79
419.065	1716.37
419.273	1673.36
419.481	1851.53
419.689	1925.26
419.897	1927.31
420.105	1988.75
420.313	2013.32
420.521	2160.78
420.729	2050.19
420.937	2171.02
421.145	2365.57
421.353	2427.01
421.561	2570.37
421.769	2615.43
421.977	2726.02
422.185	2736.26
422.393	2863.23
422.601	2992.25
422.809	2973.82
423.017	3047.55
423.224	3154.04
423.432	3371.13
423.64	3358.84
423.848	3612.79
424.056	3426.42
424.263	3698.8
424.471	3778.67
424.679	3821.68
424.887	4030.57
425.094	4180.07
425.302	4200.55
425.51	4302.95
425.718	4382.82
425.925	4610.15
426.133	4735.07
426.341	4962.4
426.548	5212.25
426.756	5363.8
426.964	5105.76
427.171	5634.13
427.379	5554.26
427.586	5734.48
427.794	5961.81
428.001	6256.72
428.209	6506.57
428.417	6494.28
428.624	6803.52
428.832	6953.02
429.039	6778.95
429.247	6891.59
429.454	7538.74
429.662	7927.86
429.869	7491.64
430.076	7970.87
430.284	7868.47
430.491	8130.61
430.699	8462.38
430.906	8609.83
431.114	8775.72
431.321	8960.03
431.528	9207.84
431.736	9852.95
431.943	10061.84
432.15	9828.37
432.358	10096.66
432.565	10655.75
432.772	10614.79
432.979	11012.1
433.187	11024.39
433.394	11372.54
433.601	12142.58
433.808	12152.82
434.016	11954.16
434.223	12507.12
434.43	13316.06
434.637	13115.36
434.844	14002.13
435.052	14155.73
435.259	14079.96
435.466	14346.19
435.673	13955.03
435.88	15261.63
436.087	15790.01
436.294	15855.54
436.501	15345.6
436.708	15755.19
436.915	16441.26
437.122	16887.72
437.329	17158.05
437.537	17418.14
437.743	17876.89
437.95	17624.99
438.157	18540.43
438.364	19025.8
438.571	19197.83
438.778	19251.08
438.985	21163.88
439.192	20252.53
439.399	20957.03
439.606	20666.22
439.813	21634.91
440.02	22771.54
440.227	22656.85
440.433	22548.31
440.64	23183.18
440.847	22984.52
441.054	23217.99
441.261	25171.75
441.467	24354.62
441.674	25036.59
441.881	26289.95
442.088	25976.61
442.294	25788.19
442.501	26421.02
442.708	27059.98
442.914	28098.3
443.121	29077.23
443.328	28325.63
443.534	30449.37
443.741	29288.17
443.948	29136.62
444.154	31698.63
444.361	31172.3
444.568	31549.13
444.774	31520.46
444.981	31792.84
445.187	32984.76
445.394	34139.81
445.6	33521.32
445.807	37017.21
446.013	35108.5
446.22	35491.47
446.426	37367.41
446.633	37684.84
446.839	38598.24
447.046	37088.88
447.252	39339.6
447.459	39208.53
447.665	38481.5
447.871	40820.28
448.078	42425.89
448.284	40087.11
448.491	41672.24
448.697	43161.11
448.903	43666.96
449.11	43570.71
449.316	42976.79
449.522	43636.24
449.728	45030.91
449.935	45274.62
450.141	45045.24
450.347	46271.98
450.553	44764.67
450.76	45381.11
450.966	46656.99
451.172	45856.24
451.378	46976.48
451.584	46505.45
451.791	47275.48
451.997	46882.27
452.203	48127.44
452.409	47889.87
452.615	47527.38
452.821	46298.6
453.027	45886.96
453.233	47805.91
453.44	45682.16
453.646	46446.05
453.852	46540.26
454.058	47193.56
454.264	45573.62
454.47	46444.01
454.676	45401.59
454.882	46460.39
455.088	43073.05
455.294	43554.32
455.5	44506.63
455.705	44545.54
455.911	42978.84
456.117	42219.05
456.323	41565.74
456.529	39288.4
456.735	41018.94
456.941	39611.98
457.147	39366.23
457.352	37975.66
457.558	37621.36
457.764	37750.38
457.97	36677.24
458.176	36155.01
458.381	36515.45
458.587	34616.99
458.793	34471.58
458.999	32534.2
459.204	35192.47
459.41	34309.79
459.616	31784.65
459.821	32100.03
460.027	31614.66
460.233	31094.48
460.438	29429.48
460.644	29777.64
460.85	28819.19
461.055	28311.29
461.261	27776.77
461.466	25798.43
461.672	25151.27
461.878	27078.41
462.083	25165.61
462.289	25077.55
462.494	24561.46
462.7	23469.89
462.905	22859.6
463.111	23957.31
463.316	23869.25
463.522	23347.01
463.727	23435.08
463.932	23191.37
464.138	23068.49
464.343	23267.14
464.549	22396.76
464.754	22968.14
464.959	22859.6
465.165	22892.37
465.37	21989.21
465.575	21249.89
465.781	22271.83
465.986	22493.01
466.191	21565.28
466.397	21084.01
466.602	20105.08
466.807	20911.98
467.012	20952.94
467.218	20785.01
467.423	20703.09
467.628	20621.17
467.833	21790.56
468.038	20739.95
468.244	20352.88
468.449	20911.98
468.654	20285.3
468.859	19965.82
469.064	19885.95
469.269	19187.59
469.474	19294.08
469.679	19629.95
469.885	18855.82
470.09	19494.79
470.295	19324.8
470.5	18472.85
470.705	18812.81
470.91	18560.91
471.115	18110.36
471.32	18622.35
471.525	18366.35
471.73	18028.44
471.935	17930.14
472.139	17586.08
472.344	17647.52
472.549	17444.77
472.754	17188.77
472.959	17026.98
473.164	16633.77
473.369	16203.7
473.574	16637.87
473.778	16631.72
473.983	16258.99
474.188	16617.39
474.393	15759.29
474.598	15886.26
474.802	15941.56
475.007	15560.64
475.212	15542.21
475.417	15032.26
475.621	15071.17
475.826	15032.26
476.031	14788.55
476.235	14630.86
476.44	14536.65
476.645	14299.09
476.849	14446.54
477.054	14522.32
477.259	14161.87
477.463	14082
477.668	13776.86
477.872	14022.61
478.077	13590.49
478.282	13563.87
478.486	13277.15
478.691	13318.11
478.895	13191.14
479.1	13092.83
479.304	13150.18
479.509	12648.43
479.713	12777.45
479.918	12826.6
480.122	12513.26
480.326	12550.12
480.531	12836.84
480.735	12615.66
480.94	12380.14
481.144	12597.23
481.348	12169.2
481.553	12423.15
481.757	11732.98
481.961	12474.35
482.166	12584.94
482.37	12337.13
482.574	11986.93
482.778	12171.25
482.983	12599.27
483.187	12208.11
483.391	12333.04
483.595	12167.15
483.8	12054.51
484.004	12363.76
484.208	12191.73
484.412	11913.2
484.616	12238.83
484.821	12177.39
485.025	12068.85
485.229	12388.33
485.433	12097.52
485.637	12257.26
485.841	12072.95
486.045	12163.06
486.249	11999.22
486.453	12093.43
486.657	12244.98
486.861	12099.57
487.065	11802.61
487.269	11999.22
487.473	12007.41
487.677	12347.37
487.881	12142.58
488.085	12177.39
488.289	12097.52
488.493	12197.87
488.697	12292.08
488.901	12347.37
489.105	12126.19
489.309	11970.55
489.512	12267.5
489.716	12292.08
489.92	12351.47
490.124	12201.97
490.328	12392.43
490.531	12384.24
490.735	12443.63
490.939	12597.23
491.143	12294.13
491.346	12322.8
491.55	12632.04
491.754	12703.72
491.958	12709.86
492.161	12716.01
492.365	12769.26
492.569	12769.26
492.772	12769.26
492.976	12832.74
493.18	12826.6
493.383	13408.22
493.587	13158.37
493.79	13326.3
493.994	13162.47
494.197	13363.17
494.401	13516.76
494.605	13527
494.808	13834.2
495.012	13801.43
495.215	13711.32
495.419	13961.17
495.622	13879.25
495.825	14151.63
496.029	14092.24
496.232	14335.95
496.436	14460.88
496.639	14874.57
496.843	14622.67
497.046	14829.51
497.249	15124.42
497.453	15251.39
497.656	15548.35
497.859	15189.95
498.063	15198.15
498.266	15859.64
498.469	15636.41
498.673	16015.29
498.876	16248.75
499.079	16291.76
499.282	16101.3
499.485	16811.95
499.689	16947.11
499.892	17158.05
500.095	16975.78
500.298	17536.93
500.501	17303.46
500.705	17946.52
500.908	18208.66
501.111	18167.7
501.314	18691.98
501.517	18423.7
501.72	18802.57
501.923	18970.51
502.126	19156.87
502.329	19353.48
502.532	19521.41
502.735	19578.75
502.938	20125.56
503.141	20201.33
503.344	20469.62
503.547	20553.59
503.75	20789.1
503.953	21210.98
504.156	21346.15
504.359	21534.56
504.562	21577.57
504.765	22175.58
504.968	22366.04
505.17	22628.18
505.373	22359.89
505.576	22906.7
505.779	23091.02
505.982	23226.18
506.185	23744.32
506.387	23643.97
506.59	23973.69
506.793	24356.66
506.996	24440.63
507.198	25163.56
507.401	24782.64
507.604	25491.24
507.807	25863.97
508.009	26076.96
508.212	25956.13
508.415	26509.08
508.617	26795.79
508.82	26648.34
509.022	26836.75
509.225	27803.39
509.428	27559.69
509.63	28069.63
509.833	28051.2
510.035	28509.94
510.238	28612.34
510.44	28958.45
510.643	29302.51
510.845	29767.4
511.048	29359.85
511.25	30232.29
511.453	30299.87
511.655	31037.14
511.858	30846.68
512.06	31215.31
512.262	31833.8
512.465	31499.98
512.667	32073.41
512.87	32081.6
513.072	32677.56
513.274	32913.08
513.477	33375.92
513.679	33859.24
513.881	33826.47
514.084	34410.14
514.286	34240.16
514.488	34657.95
514.69	35423.89
514.893	35575.44
515.095	35516.04
515.297	36202.11
515.499	35954.31
515.701	36931.19
515.904	37412.46
516.106	37256.82
516.308	37666.41
516.51	37869.16
516.712	37975.66
516.914	38540.89
517.116	39186
517.318	38825.56
517.52	39401.04
517.722	39788.11
517.925	39857.74
518.127	40791.61
518.329	40519.23
518.531	40898.11
518.733	41569.84
518.935	42094.12
519.136	41510.45
519.338	42298.92
519.54	42645.02
519.742	43169.3
519.944	43480.6
520.146	43626
520.348	43939.34
520.55	44275.21
520.752	43947.53
520.954	45460.98
521.155	45043.2
521.357	45731.31
521.559	45823.47
521.761	46509.54
521.963	46142.95
522.164	46874.08
522.366	46923.23
522.568	47465.94
522.77	47478.23
522.971	48227.79
523.173	47742.42
523.375	48096.72
523.576	48520.65
523.778	48651.72
523.98	49208.76
524.181	49266.11
524.383	49388.99
524.584	50283.95
524.786	50320.81
524.988	49993.14
525.189	50711.97
525.391	50535.85
525.592	51023.26
525.794	51479.96
525.995	51293.6
526.197	51168.67
526.398	51371.42
526.6	52055.44
526.801	51981.71
527.003	52039.06
527.204	52450.7
527.406	52882.82
527.607	52512.14
527.808	53206.4
528.01	52288.91
528.211	53239.17
528.412	53747.06
528.614	53892.47
528.815	53792.12
529.016	53835.13
529.218	53550.46
529.419	53636.47
529.62	54275.44
529.822	53972.34
530.023	54132.08
530.224	54676.84
530.425	54054.26
530.626	54289.77
530.828	53800.31
531.029	54959.46
531.23	54740.33
531.431	54410.6
531.632	54740.33
531.833	54955.36
532.035	54558.06
532.236	54787.43
532.437	55356.77
532.638	54701.42
532.839	55127.39
533.04	55782.74
533.241	54994.28
533.442	55756.12
533.643	55430.49
533.844	55446.88
534.045	55618.91
534.246	55250.27
534.447	55932.25
534.648	55162.21
534.849	55405.92
535.05	55213.41
535.251	55588.19
535.451	55330.14
535.652	55520.6
535.853	55315.81
536.054	55770.46
536.255	55782.74
536.456	55504.22
536.657	55856.47
536.857	55027.04
537.058	55131.49
537.259	55872.85
537.46	55498.08
537.66	55133.54
537.861	55453.02
538.062	55266.66
538.263	55799.13
538.463	55203.17
538.664	55516.51
538.865	55166.3
539.065	55860.57
539.266	55530.84
539.466	56053.08
539.667	54728.04
539.868	55643.48
540.068	55553.37
540.269	55106.91
540.469	55682.39
540.67	55278.94
540.87	55373.15
541.071	54953.32
541.271	55369.05
541.472	55446.88
541.672	55053.67
541.873	54959.46
542.073	54660.46
542.274	55856.47
542.474	54959.46
542.675	55231.84
542.875	55504.22
543.075	55332.19
543.276	54414.7
543.476	55582.04
543.676	55061.86
543.877	55577.95
544.077	54889.83
544.277	55041.38
544.478	55418.21
544.678	55147.87
544.878	55264.61
545.078	55229.79
545.279	54875.49
545.479	55262.56
545.679	55471.45
545.879	54611.31
546.079	54955.36
546.28	54863.21
546.48	54764.9
546.68	55016.8
546.88	55194.98
547.08	54850.92
547.28	54351.21
547.48	54553.96
547.68	55209.31
547.88	54666.6
548.081	55305.57
548.281	54738.28
548.481	54582.63
548.681	55190.88
548.881	54676.84
549.081	54881.64
549.28	54662.5
549.48	54988.13
549.68	54205.81
549.88	55500.12
550.08	54631.79
550.28	54725.99
550.48	54508.91
550.68	55102.82
550.88	54482.28
551.08	54410.6
551.279	54494.57
551.479	53925.24
551.679	54891.88
551.879	54340.97
552.079	54914.4
552.278	54656.36
552.478	54605.16
552.678	54306.16
552.878	54422.89
553.077	54254.96
553.277	54115.7
553.477	54916.45
553.676	54175.09
553.876	54029.68
554.076	53853.56
554.275	54345.07
554.475	53923.19
554.674	54238.58
554.874	54158.7
555.074	53609.85
555.273	54406.51
555.473	54416.75
555.672	53775.73
555.872	53949.81
556.071	53876.08
556.271	54170.99
556.47	53423.48
556.67	53695.86
556.869	53745.01
557.068	53931.38
557.268	53519.74
557.467	53689.72
557.667	53153.15
557.866	53673.34
558.065	53435.77
558.265	53032.32
558.464	53132.67
558.663	53542.27
558.863	52432.27
559.062	53835.13
559.261	52424.07
559.461	53683.58
559.66	52436.36
559.859	52823.43
560.058	52575.62
560.258	52661.64
560.457	52272.53
560.656	52325.77
560.855	52104.59
561.054	52768.13
561.253	51813.78
561.453	52309.39
561.652	52100.5
561.851	52217.23
562.05	52024.72
562.249	51742.1
562.448	51983.76
562.647	52217.23
562.846	51864.98
563.045	51875.22
563.244	51459.48
563.443	52055.44
563.642	51252.64
563.841	51426.71
564.04	51039.65
564.239	51357.08
564.438	50673.06
564.637	51287.45
564.836	51271.07
565.035	50228.65
565.234	50949.54
565.432	50632.1
565.631	50746.79
565.83	50822.56
566.029	50224.56
566.228	50240.94
566.427	50408.87
566.625	49778.1
566.824	49364.41
567.023	49993.14
567.222	49454.52
567.42	50232.75
567.619	49839.54
567.818	49624.5
568.016	49343.93
568.215	49511.86
568.414	49655.22
568.612	49896.88
568.811	49208.76
569.01	49556.92
569.208	48379.34
569.407	48952.77
569.605	48471.5
569.804	49208.76
570.002	48356.81
570.201	48557.51
570.4	48567.75
570.598	48147.92
570.797	48143.82
570.995	48119.24
571.193	47287.77
571.392	48266.7
571.59	47197.66
571.789	47715.79
571.987	47568.34
572.186	47576.53
572.384	47138.27
572.582	47226.33
572.781	47480.28
572.979	46693.86
573.177	46677.47
573.376	47164.89
573.574	46616.04
573.772	46611.94
573.971	46126.57
574.169	46124.52
574.367	46157.29
574.565	46583.27
574.763	46155.24
574.962	46065.13
575.16	45350.39
575.358	45790.7
575.556	44973.56
575.754	45409.78
575.952	44785.15
576.151	45534.71
576.349	45133.31
576.547	44967.42
576.745	45137.4
576.943	44809.73
577.141	44412.42
577.339	44658.18
577.537	44379.65
577.735	44488.2
577.933	44269.06
578.131	44328.45
578.329	44287.49
578.527	43777.55
578.725	43804.17
578.923	44316.17
579.121	43546.13
579.319	43705.87
579.516	43882
579.714	43496.98
579.912	43171.35
580.11	43146.78
580.308	43429.4
580.506	43351.57
580.704	42481.19
580.901	42823.2
581.099	43165.21
581.297	42618.4
581.495	42405.41
581.692	42819.1
581.89	42393.12
582.088	42561.06
582.285	42139.18
582.483	42006.06
582.681	42118.7
582.878	41989.67
583.076	41401.91
583.274	41817.64
583.471	41260.6
583.669	41369.14
583.866	40947.26
584.064	41303.6
584.262	40828.48
584.459	41203.25
584.657	40922.68
584.854	41326.13
585.052	40173.13
585.249	40726.08
585.447	40840.76
585.644	40320.58
585.841	40365.63
586.039	40832.57
586.236	39673.42
586.434	39968.33
586.631	39800.4
586.828	39794.25
587.026	39915.08
587.223	39554.64
587.42	39442
587.618	39607.89
587.815	38837.85
588.012	39310.93
588.21	39075.41
588.407	39054.93
588.604	39296.6
588.801	38938.2
588.999	39040.6
589.196	38571.61
589.393	38405.73
589.59	38309.47
589.787	38178.4
589.984	37987.94
590.182	37625.45
590.379	38360.67
590.576	38010.47
590.773	37817.96
590.97	37453.42
591.167	37828.2
591.364	37469.81
591.561	37508.72
591.758	37291.63
591.955	37275.25
592.152	37457.52
592.349	36685.43
592.546	36439.68
592.743	36777.59
592.94	36212.35
593.137	36707.96
593.334	36527.74
593.531	36302.46
593.727	36462.21
593.924	36101.76
594.121	35571.34
594.318	36204.16
594.515	35608.2
594.712	35982.98
594.908	35794.57
595.105	35948.17
595.302	35382.93
595.499	35606.16
595.696	34815.64
595.892	34686.62
596.089	35743.37
596.286	35106.45
596.482	34909.85
596.679	34858.65
596.876	35171.99
597.072	34655.9
597.269	34363.04
597.466	34481.82
597.662	34150.05
597.859	34154.15
598.055	34127.52
598.252	34145.95
598.448	33734.31
598.645	33861.29
598.841	33605.29
599.038	33523.37
599.234	33599.15
599.431	33095.35
599.627	33294
599.824	33337.01
600.02	32927.41
600.217	32980.66
600.413	33128.11
600.609	32718.52
600.806	32509.63
601.002	32687.8
601.198	32710.33
601.395	32292.54
601.591	32392.89
601.787	32243.39
601.984	32059.07
602.18	32607.93
602.376	31645.38
602.572	31983.3
602.769	31821.51
602.965	31516.36
603.161	31653.58
603.357	31424.2
603.553	31542.99
603.75	31278.8
603.946	31573.7
604.142	31399.63
604.338	30756.57
604.534	31110.86
604.73	30963.41
604.926	30682.84
605.122	30897.88
605.318	30594.78
605.514	30766.81
605.71	30615.26
605.906	30576.34
606.102	30699.22
606.298	29994.72
606.494	30039.78
606.69	30148.32
606.886	30172.89
607.082	29667.05
607.278	29998.82
607.474	29603.56
607.67	29986.53
607.866	29488.87
608.062	29853.41
608.257	29533.93
608.453	29605.61
608.649	29734.63
608.845	29144.81
609.041	29697.77
609.236	29681.38
609.432	29230.83
609.628	29101.81
609.824	29159.15
610.019	28874.48
610.215	28868.34
610.411	28980.98
610.606	28589.81
610.802	28901.11
610.998	28815.09
611.193	28946.16
611.389	28595.96
611.584	28700.4
611.78	28528.38
611.976	28442.36
612.171	28649.21
612.367	28387.07
612.562	28221.18
612.758	27985.66
612.953	27897.6
613.149	28442.36
613.344	28083.97
613.539	28309.24
613.735	28055.29
613.93	28174.08
614.126	27916.03
614.321	28114.69
614.517	27868.93
614.712	27993.86
614.907	27768.58
615.103	27686.66
615.298	27791.11
615.493	27813.63
615.688	27383.56
615.884	27942.66
616.079	27037.45
616.274	27657.99
616.47	27424.52
616.665	27457.29
616.86	27115.28
617.055	27016.97
617.25	26939.15
617.445	27645.7
617.641	26670.87
617.836	26980.11
618.031	26617.62
618.226	26953.49
618.421	26410.78
618.616	26644.24
618.811	26289.95
619.006	26799.89
619.201	26412.82
619.396	26722.07
619.591	25870.11
619.786	26588.95
619.981	25753.38
620.176	26339.1
620.371	25796.39
620.566	25659.17
620.761	25648.93
620.956	25906.98
621.151	24917.81
621.346	25472.81
621.541	25118.51
621.735	25302.82
621.93	24764.21
622.125	24809.26
622.32	24520.5
622.515	24749.87
622.709	24317.75
622.904	24219.45
623.099	24465.21
623.294	24424.25
623.488	24076.09
623.683	24272.7
623.878	23453.51
624.072	23727.94
624.267	23557.96
624.462	23598.91
624.656	23265.1
624.851	23633.73
625.046	23074.63
625.24	23041.87
625.435	22597.46
625.629	22867.79
625.824	22429.52
626.018	22773.58
626.213	22044.51
626.407	22396.76
626.602	21794.65
626.796	22110.04
626.991	22001.5
627.185	21819.23
627.38	21743.45
627.574	21552.99
627.768	21354.34
627.963	21346.15
628.157	21061.48
628.352	21245.8
628.546	21118.82
628.74	21170.02
628.935	20793.2
629.129	20997.99
629.323	20512.63
629.517	20766.57
629.712	20512.63
629.906	20420.47
630.1	19861.37
630.294	20105.08
630.489	19900.28
630.683	19974.01
630.877	19902.33
631.071	19773.31
631.265	19711.87
631.459	19494.79
631.653	19388.29
631.848	19085.19
632.042	18761.61
632.236	19193.73
632.43	18896.78
632.624	19109.77
632.818	18782.09
633.012	18749.32
633.206	18790.28
633.4	18927.5
633.594	18466.7
633.788	18192.28
633.982	18071.45
634.176	18163.61
634.369	18304.92
634.563	18075.54
634.757	17782.68
634.951	17934.23
635.145	17997.72
635.339	17708.96
635.533	17674.14
635.726	17665.95
635.92	17571.74
636.114	17373.09
636.308	17223.59
636.501	17242.02
636.695	16848.81
636.889	17035.17
637.083	16967.59
637.276	16687.02
637.47	16748.46
637.664	16478.13
637.857	16596.91
638.051	16469.94
638.244	16304.05
638.438	16388.02
638.632	15955.9
638.825	16076.73
639.019	16254.9
639.212	15806.39
639.406	15951.8
639.599	15931.32
639.793	15663.04
639.986	15343.55
640.18	15413.18
640.373	15470.53
640.567	15308.74
640.76	15149
640.954	15187.91
641.147	15157.19
641.34	15120.32
641.534	15142.85
641.727	14974.92
641.92	14772.17
642.114	14749.64
642.307	14612.43
642.5	14499.79
642.694	14608.33
642.887	14297.04
643.08	14559.18
643.273	14376.91
643.467	14260.18
643.66	14034.9
643.853	14145.49
644.046	13926.36
644.239	13557.72
644.432	13844.44
644.626	13858.78
644.819	13699.03
645.012	13600.73
645.205	13742.04
645.398	13467.61
645.591	13467.61
645.784	13533.15
645.977	13266.91
646.17	13162.47
646.363	13363.17
646.556	13115.36
646.749	13088.74
646.942	13096.93
647.135	12781.54
647.328	12869.61
647.521	12814.31
647.714	12744.68
647.907	12453.87
648.099	12439.53
648.292	12732.39
648.485	12509.16
648.678	12351.47
648.871	12228.59
649.064	12181.49
649.256	12347.37
649.449	12187.63
649.642	11937.78
649.835	11982.84
650.027	11917.3
650.22	11882.49
650.413	11802.61
650.605	11610.11
650.798	11790.33
650.991	11403.26
651.183	11393.02
651.376	11249.66
651.568	11540.47
651.761	11329.53
651.954	11454.46
652.146	11343.87
652.339	11339.77
652.531	11198.46
652.724	11044.87
652.916	10917.89
653.109	10932.23
653.301	10987.52
653.494	10977.28
653.686	10684.42
653.879	10893.32
654.071	10762.25
654.263	10711.05
654.456	10668.04
654.648	10553.35
654.84	10403.85
655.033	10620.94
655.225	10616.84
655.417	10274.83
655.61	10330.13
655.802	10178.58
655.994	10125.33
656.186	10217.49
656.379	10033.17
656.571	9865.24
656.763	9865.24
656.955	9943.06
657.148	9816.08
657.34	9914.39
657.532	9650.2
657.724	9572.38
657.916	9863.19
658.108	9658.39
658.3	9533.47
658.492	9957.39
658.684	9682.97
658.876	9508.89
659.068	9527.32
659.26	9365.53
659.452	9285.66
659.644	9373.72
659.836	9101.34
660.028	9183.26
660.22	9015.33
660.412	9130.02
660.604	8935.46
660.796	9076.77
660.988	8925.22
661.18	8929.31
661.372	8775.72
661.563	8962.08
661.755	8843.3
661.947	8607.78
662.139	8740.9
662.331	8665.13
662.522	8618.02
662.714	8599.59
662.906	8628.26
663.097	8491.05
663.289	8527.91
663.481	8427.56
663.673	8333.36
663.864	8183.85
664.056	8192.05
664.247	8312.88
664.439	7931.95
664.631	8314.92
664.822	7987.25
665.014	8085.55
665.205	7886.9
665.397	8106.03
665.588	7968.82
665.78	7882.8
665.971	7966.77
666.163	7858.23
666.354	7725.11
666.546	7727.16
666.737	7708.73
666.929	7694.39
667.12	7567.42
667.311	7426.11
667.503	7553.08
667.694	7467.06
667.885	7352.38
668.077	7374.91
668.268	7479.35
668.459	7350.33
668.651	7276.6
668.842	7288.89
669.033	7153.73
669.224	7288.89
669.416	6930.5
669.607	7118.91
669.798	7047.23
669.989	7215.16
670.18	7026.75
670.371	6793.28
670.563	6852.67
670.754	7061.57
670.945	7010.37
671.136	6930.5
671.327	6893.63
671.518	6977.6
671.709	6965.31
671.9	6926.4
672.091	6551.62
672.282	6658.12
672.473	6572.1
672.664	6606.92
672.855	6625.35
673.046	6709.32
673.237	6688.84
673.428	6633.54
673.619	6518.86
673.809	6596.68
674	6449.22
674.191	6414.41
674.382	6473.8
674.573	6350.92
674.764	6336.59
674.954	6525
675.145	6295.63
675.336	6264.91
675.527	6199.37
675.717	6287.43
675.908	6137.93
676.099	6232.14
676.289	6172.75
676.48	6121.55
676.671	6168.65
676.861	6154.32
677.052	5998.67
677.243	6135.89
677.433	6039.63
677.624	6033.49
677.814	5972.05
678.005	6150.22
678.195	6006.86
678.386	5914.7
678.576	5931.09
678.767	5781.59
678.957	5914.7
679.148	5957.71
679.338	5951.57
679.529	5509.21
679.719	5787.73
679.909	5937.23
680.1	5699.67
680.29	5566.55
680.481	5728.34
680.671	5671
680.861	5701.72
681.052	5691.48
681.242	5521.49
681.432	5654.61
681.622	5482.58
681.813	5607.51
682.003	5570.65
682.193	5527.64
682.383	5480.54
682.573	5490.77
682.764	5501.01
682.954	5642.32
683.144	5435.48
683.334	5511.25
683.524	5331.03
683.714	5433.43
683.904	5331.03
684.094	5562.45
684.284	5365.85
684.474	5341.27
684.664	5101.66
684.854	5476.44
685.044	5324.89
685.234	5150.81
685.424	5032.03
685.614	5066.85
685.804	5183.58
685.994	5208.16
686.184	5173.34
686.374	5111.9
686.564	5021.79
686.753	5199.96
686.943	4982.88
687.133	5068.89
687.323	4929.63
687.513	4978.78
687.702	4857.95
687.892	4972.64
688.082	4966.49
688.272	4972.64
688.461	4864.1
688.651	4929.63
688.841	4886.62
689.03	4651.11
689.22	4798.56
689.41	4804.71
689.599	4759.65
689.789	4966.49
689.979	4790.37
690.168	4831.33
690.358	4640.87
690.547	4630.63
690.737	4726.88
690.926	4632.68
691.116	4630.63
691.305	4591.72
691.495	4479.08
691.684	4599.91
691.874	4651.11
692.063	4675.68
692.252	4526.18
692.442	4487.27
692.631	4425.83
692.82	4468.84
693.01	4399.21
693.199	4321.38
693.388	4368.49
693.578	4417.64
693.767	4313.19
693.956	4305
694.146	4280.43
694.335	4268.14
694.524	4214.89
694.713	4261.99
694.902	4331.62
695.092	4218.99
695.281	4110.44
695.47	4208.75
695.659	4073.58
695.848	4255.85
696.037	4171.88
696.226	4145.26
696.415	4118.64
696.604	4302.95
696.793	3973.23
696.982	4104.3
697.171	4143.21
697.36	4163.69
697.549	4055.15
697.738	3991.66
697.927	3930.22
698.116	4130.92
698.305	4001.9
698.494	4079.72
698.683	4110.44
698.872	4106.35
699.061	3954.8
699.25	3876.98
699.438	3866.74
699.627	4014.19
699.816	3977.33
700.005	3997.81
700.193	3930.22
700.382	3960.94
700.571	4040.81
700.76	3913.84
700.948	4036.72
701.137	4014.19
701.326	3866.74
701.514	3926.13
701.703	3911.79
701.892	3821.68
702.08	3895.41
702.269	3774.58
702.457	3905.65
702.646	3876.98
702.834	3969.13
703.023	3838.06
703.212	3856.5
703.4	3815.54
703.589	3889.26
703.777	3739.76
703.965	3827.82
704.154	3754.1
704.342	3815.54
704.531	3854.45
704.719	3754.1
704.907	3844.21
705.096	3786.86
705.284	3793.01
705.472	3836.02
705.661	3678.32
705.849	3844.21
706.037	3649.65
706.226	3684.47
706.414	3641.46
706.602	3700.85
706.79	3737.71
706.979	3704.95
707.167	3723.38
707.355	3776.63
707.543	3623.03
707.731	3623.03
707.919	3692.66
708.107	3580.02
708.296	3666.03
708.484	3647.6
708.672	3733.62
708.86	3780.72
709.048	3629.17
709.236	3680.37
709.424	3563.64
709.612	3612.79
709.8	3563.64
709.988	3709.04
710.176	3678.32
710.364	3600.5
710.551	3520.63
710.739	3590.26
710.927	3608.69
711.115	3586.16
711.303	3580.02
711.491	3508.34
711.679	3706.99
711.866	3608.69
712.054	3537.01
712.242	3487.86
712.43	3498.1
712.617	3530.87
712.805	3532.92
712.993	3438.71
713.181	3399.8
713.368	3508.34
713.556	3502.2
713.744	3475.57
713.931	3555.44
714.119	3401.85
714.306	3469.43
714.494	3483.77
714.682	3367.03
714.869	3360.89
715.057	3446.9
715.244	3448.95
715.432	3473.53
715.619	3389.56
715.807	3410.04
715.994	3352.7
716.182	3299.45
716.369	3426.42
716.556	3401.85
716.744	3268.73
716.931	3274.87
717.119	3393.65
717.306	3276.92
717.493	3278.97
717.681	3383.42
717.868	3414.13
718.055	3407.99
718.242	3326.07
718.43	3297.4
718.617	3373.18
718.804	3436.66
718.991	3412.09
719.179	3414.13
719.366	3291.26
719.553	3319.93
719.74	3299.45
719.927	3301.5
720.114	3281.02
720.301	3248.25
720.488	3305.59
720.676	3342.46
720.863	3352.7
721.05	3340.41
721.237	3387.51
721.424	3289.21
721.611	3319.93
721.798	3244.15
721.985	3244.15
722.172	3176.57
722.358	3283.06
722.545	3346.55
722.732	3297.4
722.919	3311.74
723.106	3209.34
723.293	3125.37
723.48	3197.05
723.667	3162.23
723.853	3137.66
724.04	3211.39
724.227	3147.9
724.414	3086.46
724.6	3127.42
724.787	3143.8
724.974	3166.33
725.161	3092.6
725.347	3018.88
725.534	3115.13
725.72	3174.52
725.907	3100.8
726.094	3082.36
726.28	3184.76
726.467	3205.24
726.653	3078.27
726.84	3059.84
727.027	3186.81
727.213	2990.21
727.4	3168.38
727.586	3119.23
727.773	2973.82
727.959	3033.21
728.145	3213.43
728.332	3180.67
728.518	3078.27
728.705	3190.91
728.891	3156.09
729.077	3192.95
729.264	3139.71
729.45	3041.4
729.636	3086.46
729.823	3045.5
730.009	3061.88
730.195	2930.81
730.382	3127.42
730.568	2982.01
730.754	3123.32
730.94	2986.11
731.126	3049.6
731.313	2971.77
731.499	3004.54
731.685	2945.15
731.871	3033.21
732.057	3088.51
732.243	2992.25
732.429	3074.17
732.615	3098.75
732.801	2941.05
732.987	2887.81
733.173	3006.59
733.359	3027.07
733.545	2975.87
733.731	2943.1
733.917	2939.01
734.103	3020.92
734.289	3117.18
734.475	2988.16
734.661	3035.26
734.847	2990.21
735.033	2941.05
735.219	2889.85
735.404	2896
735.59	3002.49
735.776	2867.33
735.962	2906.24
736.148	2928.77
736.333	2883.71
736.519	2840.7
736.705	2850.94
736.89	3059.84
737.076	2900.09
737.262	2769.02
737.447	2861.18
737.633	2842.75
737.819	2824.32
738.004	2758.78
738.19	2732.16
738.375	2793.6
738.561	2865.28
738.747	2783.36
738.932	2848.9
739.118	2850.94
739.303	2891.9
739.489	2766.98
739.674	2750.59
739.859	2848.9
740.045	2824.32
740.23	2683.01
740.416	2748.54
740.601	2693.25
740.786	2738.3
740.972	2746.5
741.157	2699.39
741.342	2568.32
741.528	2668.67
741.713	2664.58
741.898	2754.69
742.084	2742.4
742.269	2680.96
742.454	2613.38
742.639	2662.53
742.824	2474.12
743.01	2687.11
743.195	2678.91
743.38	2637.95
743.565	2455.69
743.75	2689.15
743.935	2377.86
744.12	2617.47
744.305	2500.74
744.49	2447.49
744.675	2508.93
744.86	2476.16
745.045	2537.6
745.23	2416.77
745.415	2412.68
745.6	2447.49
745.785	2373.77
745.97	2472.07
746.155	2422.92
746.34	2365.57
746.525	2226.31
746.71	2408.58
746.895	2238.6
747.079	2306.18
747.264	2343.05
747.449	2310.28
747.634	2209.93
747.819	2328.71
748.003	2201.74
748.188	2314.38
748.373	2320.52
748.557	2291.85
748.742	2185.35
748.927	2230.41
749.111	2189.45
749.296	2179.21
749.481	2193.55
749.665	2144.39
749.85	2207.88
750.034	2099.34
750.219	2201.74
750.404	2238.6
750.588	2109.58
750.773	2021.52
750.957	2046.09
751.141	1984.65
751.326	1988.75
751.51	1982.6
751.695	1951.88
751.879	2013.32
752.064	2003.08
752.248	2013.32
752.432	2001.04
752.617	1976.46
752.801	1947.79
752.985	1910.93
753.17	1996.94
753.354	1929.36
753.538	1820.81
753.722	1878.16
753.907	1826.96
754.091	1732.75
754.275	1826.96
754.459	1863.82
754.643	1771.66
754.828	1839.25
755.012	1728.66
755.196	1685.65
755.38	1763.47
755.564	1781.9
755.748	1669.27
755.932	1646.74
756.116	1605.78
756.3	1706.13
756.484	1654.93
756.668	1663.12
756.852	1689.74
757.036	1648.79
757.22	1601.68
757.404	1650.83
757.588	1542.29
757.772	1693.84
757.956	1523.86
758.14	1525.91
758.323	1573.01
758.507	1654.93
758.691	1480.85
758.875	1484.95
759.059	1581.2
759.242	1487
759.426	1489.04
759.61	1583.25
759.794	1501.33
759.977	1517.72
760.161	1427.6
760.345	1441.94
760.528	1470.61
760.712	1419.41
760.895	1509.52
761.079	1390.74
761.263	1384.6
761.446	1472.66
761.63	1405.08
761.813	1360.02
761.997	1409.17
762.18	1419.41
762.364	1357.97
762.547	1349.78
762.731	1321.11
762.914	1388.69
763.098	1327.25
763.281	1308.82
763.464	1403.03
763.648	1347.73
763.831	1304.73
764.015	1341.59
764.198	1226.9
764.381	1360.02
764.564	1306.77
764.748	1304.73
764.931	1276.06
765.114	1446.04
765.297	1265.82
765.481	1206.42
765.664	1233.05
765.847	1263.77
766.03	1376.41
766.213	1245.34
766.397	1286.3
766.58	1243.29
766.763	1241.24
766.946	1245.34
767.129	1296.53
767.312	1276.06
767.495	1142.94
767.678	1255.58
767.861	1153.18
768.044	1167.51
768.227	1198.23
768.41	1206.42
768.593	1124.51
768.776	1132.7
768.959	1280.15
769.142	1278.1
769.324	1118.36
769.507	1128.6
769.69	1187.99
769.873	1147.03
770.056	1187.99
770.239	1163.42
770.421	1181.85
770.604	1251.48
770.787	1097.88
770.97	1239.19
771.152	1007.77
771.335	1151.13
771.518	1056.92
771.7	1124.51
771.883	1112.22
772.066	1106.07
772.248	1175.7
772.431	968.86
772.613	1042.59
772.796	1130.65
772.978	1026.2
773.161	1052.83
773.343	1018.01
773.526	1026.2
773.708	1007.77
773.891	1108.12
774.073	929.95
774.256	987.29
774.438	1013.92
774.621	1007.77
774.803	1058.97
774.985	989.34
775.168	1013.92
775.35	1009.82
775.532	1040.54
775.715	956.57
775.897	1038.49
776.079	899.23
776.261	991.39
776.444	987.29
776.626	882.85
776.808	897.18
776.99	866.46
777.173	825.5
777.355	888.99
777.537	874.65
777.719	819.36
777.901	845.98
778.083	800.93
778.265	839.84
778.447	888.99
778.629	739.49
778.811	811.17
778.993	796.83
779.175	790.69
779.357	854.17
779.539	784.54
779.721	731.3
779.903	815.26
780.085	764.06
780.267	741.54
780.449	753.82
780.631	665.76
780.812	731.3
780.994	706.72
781.176	780.45
781.358	827.55
781.54	690.34
781.721	770.21
781.903	731.3
782.085	721.06
782.267	721.06
782.448	747.68
782.63	645.28
782.812	735.39
782.993	712.86
783.175	712.86
783.357	710.82
783.538	755.87
783.72	653.47
783.901	618.66
784.083	698.53
784.264	604.32
784.446	657.57
784.627	645.28
784.809	653.47
784.99	614.56
785.172	645.28
785.353	694.43
785.535	690.34
785.716	579.75
785.897	563.36
786.079	585.89
786.26	567.46
786.441	594.08
786.623	520.35
786.804	536.74
786.985	538.79
787.167	524.45
787.348	563.36
787.529	503.97
787.71	555.17
787.891	512.16
788.073	583.84
788.254	475.3
788.435	581.79
788.616	534.69
788.797	524.45
788.978	512.16
789.159	532.64
789.34	534.69
789.522	473.25
789.703	442.53
789.884	522.4
790.065	460.96
790.246	573.6
790.427	479.4
790.607	516.26
790.788	493.73
790.969	508.07
791.15	446.63
791.331	411.81
791.512	499.88
791.693	483.49
791.874	546.98
792.054	450.72
792.235	471.2
792.416	438.44
792.597	381.09
792.778	422.05
792.958	364.71
793.139	313.51
793.32	405.67
793.5	493.73
793.681	452.77
793.862	501.92
794.042	428.2
794.223	440.48
794.404	442.53
794.584	346.28
794.765	358.57
794.945	411.81
795.126	364.71
795.306	475.3
795.487	344.23
795.667	411.81
795.848	442.53
796.028	393.38
796.209	377
796.389	336.04
796.57	399.52
796.75	313.51
796.93	383.14
797.111	313.51
797.291	415.91
797.471	338.09
797.652	325.8
797.832	338.09
798.012	356.52
798.192	338.09
798.373	413.86
798.553	393.38
798.733	391.33
798.913	315.56
799.093	370.85
799.274	336.04
799.454	235.69
799.634	245.93
799.814	340.13
799.994	383.14
800.174	354.47
800.354	368.81
800.534	258.21
800.714	411.81
800.894	374.95
801.074	327.85
801.254	276.65
801.434	354.47
801.614	295.08
801.794	207.02
801.974	641.18
802.154	297.13
802.334	276.65
802.514	280.74
802.693	274.6
802.873	311.46
803.053	288.93
803.233	331.94
803.413	260.26
803.592	360.61
803.772	315.56
803.952	266.41
804.131	297.13
804.311	276.65
804.491	315.56
804.67	280.74
804.85	233.64
805.03	346.28
805.209	278.69
805.389	329.89
805.568	313.51
805.748	290.98
805.928	252.07
806.107	270.5
806.287	329.89
806.466	297.13
806.646	247.97
806.825	278.69
807.004	295.08
807.184	239.78
807.363	243.88
807.543	229.54
807.722	239.78
807.901	264.36
808.081	266.41
808.26	182.44
808.439	211.11
808.619	229.54
808.798	192.68
808.977	198.82
809.156	211.11
809.336	309.41
809.515	282.79
809.694	172.2
809.873	342.18
810.052	260.26
810.231	280.74
810.411	247.97
810.59	235.69
810.769	194.73
810.948	223.4
811.127	227.5
811.306	286.89
811.485	266.41
811.664	204.97
811.843	311.46
812.022	192.68
812.201	129.19
812.38	231.59
812.559	207.02
812.737	219.3
812.916	276.65
813.095	268.45
813.274	284.84
813.453	190.63
813.632	221.35
813.811	161.96
813.989	178.34
814.168	229.54
814.347	235.69
814.526	196.78
814.704	268.45
814.883	202.92
815.062	245.93
815.24	198.82
815.419	186.54
815.598	121
815.776	157.86
815.955	176.3
816.133	168.1
816.312	145.58
816.49	188.58
816.669	172.2
816.847	202.92
817.026	178.34
817.204	219.3
817.383	268.45
817.561	207.02
817.74	196.78
817.918	159.91
818.097	219.3
818.275	172.2
818.453	186.54
818.632	131.24
818.81	186.54
818.988	127.14
819.167	198.82
819.345	166.06
819.523	239.78
819.701	92.33
819.879	116.9
820.058	184.49
820.236	188.58
820.414	127.14
820.592	125.1
820.77	204.97
820.948	116.9
821.127	100.52
821.305	245.93
821.483	157.86
821.661	170.15
821.839	141.48
822.017	141.48
822.195	168.1
822.373	200.87
822.551	231.59
822.729	192.68
822.907	196.78
823.085	125.1
823.262	170.15
823.44	67.75
823.618	116.9
823.796	90.28
823.974	137.38
824.152	118.95
824.329	104.62
824.507	188.58
824.685	118.95
824.863	125.1
825.04	139.43
825.218	172.2
825.396	94.38
825.574	77.99
825.751	137.38
825.929	213.16
826.107	75.95
826.284	102.57
826.462	161.96
826.639	159.91
826.817	137.38
826.994	141.48
827.172	125.1
827.349	106.67
827.527	123.05
827.704	139.43
827.882	149.67
828.059	135.34
828.237	106.67
828.414	194.73
828.591	71.85
828.769	182.44
828.946	18.6
829.124	157.86
829.301	110.76
829.478	137.38
829.655	141.48
829.833	145.58
830.01	45.23
830.187	96.43
830.364	108.71
830.542	151.72
830.719	141.48
830.896	194.73
831.073	37.03
831.25	92.33
831.427	61.61
831.604	114.86
831.782	151.72
831.959	22.7
832.136	112.81
832.313	143.53
832.49	118.95
832.667	110.76
832.844	8.36
833.021	151.72
833.198	121
833.374	96.43
833.551	155.82
833.728	118.95
833.905	164.01
834.082	51.37
834.259	41.13
834.436	100.52
834.612	153.77
834.789	131.24
834.966	139.43
835.143	51.37
835.319	45.23
835.496	114.86
835.673	71.85
835.85	98.47
836.026	39.08
836.203	2.22
836.38	57.51
836.556	43.18
836.733	121
836.909	61.61
837.086	127.14
837.262	69.8
837.439	96.43
837.616	73.9
837.792	34.99
837.968	108.71
838.145	53.42
838.321	108.71
838.498	84.14
838.674	155.82
838.851	53.42
839.027	41.13
839.203	73.9
839.38	67.75
839.556	143.53
839.732	73.9
839.909	-14.17
840.085	67.75
840.261	69.8
840.437	94.38
840.614	65.71
840.79	77.99
840.966	75.95
841.142	106.67
841.318	-8.02
841.494	77.99
841.671	57.51
841.847	71.85
842.023	-22.36
842.199	32.94
842.375	110.76
842.551	45.23
842.727	18.6
842.903	127.14
843.079	108.71
843.255	145.58
843.431	67.75
843.607	63.66
843.783	57.51
843.959	75.95
844.134	32.94
844.31	59.56
844.486	77.99
844.662	86.19
844.838	-16.21
845.013	98.47
845.189	141.48
845.365	67.75
845.541	92.33
845.716	71.85
845.892	82.09
846.068	77.99
846.244	94.38
846.419	100.52
846.595	92.33
846.77	30.89
846.946	65.71
847.122	59.56
847.297	112.81
847.473	118.95
847.648	10.41
847.824	8.36
847.999	51.37
848.175	51.37
848.35	53.42
848.526	39.08
848.701	41.13
848.876	63.66
849.052	100.52
849.227	55.47
849.403	-5.97
849.578	96.43
849.753	55.47
849.929	-12.12
850.104	22.7
850.279	43.18
850.454	100.52
850.63	92.33
850.805	14.51
850.98	88.23
851.155	24.75
851.33	-30.55
851.505	28.84
851.681	20.65
851.856	20.65
852.031	26.79
852.206	69.8
852.381	77.99
852.556	37.03
852.731	30.89
852.906	106.67
853.081	20.65
853.256	43.18
853.431	102.57
853.606	106.67
853.781	0.17
853.956	71.85
854.131	96.43
854.305	106.67
854.48	-8.02
854.655	49.32
854.83	41.13
855.005	55.47
855.18	12.46
855.354	84.14
855.529	88.23
855.704	90.28
855.879	51.37
856.053	63.66
856.228	47.27
856.403	37.03
856.577	12.46
856.752	8.36
856.926	-32.6
857.101	137.38
857.276	43.18
857.45	39.08
857.625	75.95
857.799	16.55
857.974	67.75
858.148	141.48
858.323	69.8
858.497	-14.17
858.672	-26.45
858.846	-14.17
859.02	63.66
859.195	39.08
859.369	26.79
859.543	57.51
859.718	28.84
859.892	53.42
860.066	90.28
860.241	69.8
860.415	104.62
860.589	8.36
860.763	-10.07
860.938	63.66
861.112	100.52
861.286	41.13
861.46	30.89
861.634	100.52
861.808	34.99
861.982	-26.45
862.157	67.75
862.331	43.18
862.505	12.46
862.679	47.27
862.853	28.84
863.027	51.37
863.201	108.71
863.375	71.85
863.549	69.8
863.722	57.51
863.896	55.47
864.07	47.27
864.244	67.75
864.418	41.13
864.592	86.19
864.766	49.32
864.939	10.41
865.113	22.7
865.287	80.04
865.461	14.51
865.634	14.51
865.808	69.8
865.982	57.51
866.156	8.36
866.329	2.22
866.503	10.41
866.676	37.03
866.85	45.23
867.024	8.36
867.197	-36.69
867.371	53.42
867.544	0.17
867.718	2.22
867.891	90.28
868.065	24.75
868.238	-18.26
868.412	26.79
868.585	37.03
868.759	41.13
868.932	10.41
869.105	116.9
869.279	57.51
869.452	-16.21
869.625	-28.5
869.799	45.23
869.972	14.51
870.145	-16.21
870.319	22.7
870.492	26.79
870.665	-83.8
870.838	-5.97
871.011	37.03
871.185	51.37
871.358	2.22
871.531	-46.93
871.704	73.9
871.877	39.08
872.05	-16.21
872.223	-24.4
872.396	55.47
872.569	14.51
872.742	24.75
872.915	82.09
873.088	73.9
873.261	59.56
873.434	49.32
873.607	63.66
873.78	22.7
873.953	24.75
874.126	10.41
874.299	49.32
874.471	34.99
874.644	0.17
874.817	69.8
874.99	96.43
875.163	41.13
875.335	104.62
875.508	16.55
875.681	53.42
875.853	-12.12
876.026	28.84
876.199	41.13
876.371	-10.07
876.544	22.7
876.717	88.23
876.889	-22.36
877.062	8.36
877.234	51.37
877.407	-3.93
877.579	51.37
877.752	-42.84
877.924	-26.45
878.097	14.51
878.269	-32.6
878.442	51.37
878.614	-61.27
878.786	8.36
878.959	22.7
879.131	-42.84
879.303	28.84
879.476	20.65
879.648	32.94
879.82	-14.17
879.993	26.79
880.165	0.17
880.337	37.03
880.509	67.75
880.681	-40.79
880.854	-1.88
881.026	16.55
881.198	2.22
881.37	-40.79
881.542	41.13
881.714	-1.88
881.886	12.46
882.058	32.94
882.23	92.33
882.402	8.36
882.574	8.36
882.746	-69.46
882.918	63.66
883.09	47.27
883.262	-12.12
883.434	-48.98
883.606	-10.07
883.778	-14.17
883.95	51.37
884.122	-14.17
884.293	0.17
884.465	-28.5
884.637	26.79
884.809	-14.17
884.98	18.6
885.152	37.03
885.324	30.89
885.496	51.37
885.667	10.41
885.839	-38.74
886.011	34.99
886.182	2.22
886.354	-14.17
886.525	55.47
886.697	51.37
886.869	75.95
887.04	4.27
887.212	84.14
887.383	4.27
887.555	-22.36
887.726	22.7
887.897	2.22
888.069	-34.64
888.24	-30.55
888.412	-18.26
888.583	-38.74
888.754	-8.02
888.926	18.6
889.097	-30.55
889.268	26.79
889.44	43.18
889.611	-55.12
889.782	75.95
889.953	-46.93
890.125	0.17
890.296	14.51
890.467	51.37
890.638	34.99
890.809	0.17
890.98	-5.97
891.151	-38.74
891.323	63.66
891.494	90.28
891.665	-26.45
891.836	88.23
892.007	-3.93
892.178	34.99
892.349	-34.64
892.52	16.55
892.691	-14.17
892.862	43.18
893.032	41.13
893.203	-44.88
893.374	32.94
893.545	57.51
893.716	-67.41
893.887	41.13
894.057	-5.97
894.228	26.79
894.399	0.17
894.57	30.89
894.74	4.27
894.911	57.51
895.082	53.42
895.253	53.42
895.423	53.42
895.594	39.08
895.764	-22.36
895.935	-34.64
896.106	-3.93
896.276	-32.6
896.447	6.31
896.617	10.41
896.788	84.14
896.958	14.51
897.129	34.99
897.299	-40.79
897.47	4.27
897.64	88.23
897.81	-20.31
897.981	-24.4
898.151	-18.26
898.322	37.03
898.492	2.22
898.662	18.6
898.832	10.41
899.003	67.75
899.173	65.71
899.343	22.7
899.513	-83.8
