Data from USB4F104151__266__11-12-04-186.txt Node

Date: Wed Mar 12 11:12:04 EDT 2025
User: louis
Spectrometer: USB4F10415
Trigger mode: 4
Integration Time (sec): 2.000000E-2
Scans to average: 1
Electric dark correction enabled: true
Nonlinearity correction enabled: false
Boxcar width: 0
XAxis mode: Wavelengths
Number of Pixels in Spectrum: 3648
>>>>>Begin Spectral Data<<<<<
178.204	-177.66
178.424	-177.66
178.644	-177.66
178.864	-60.93
179.084	-87.55
179.304	6.66
179.524	-5.63
179.744	37.38
179.964	86.53
180.184	-13.82
180.404	16.9
180.624	-1.54
180.844	-1.54
181.064	-128.51
181.283	47.62
181.503	4.61
181.723	-48.64
181.943	-22.02
182.163	57.86
182.383	33.28
182.602	-1.54
182.822	49.66
183.042	23.04
183.262	45.57
183.482	59.9
183.701	-24.06
183.921	80.38
184.141	-17.92
184.361	27.14
184.58	14.85
184.8	-13.82
185.02	10.75
185.239	96.77
185.459	25.09
185.679	4.61
185.898	-17.92
186.118	102.91
186.338	29.18
186.557	51.71
186.777	8.7
186.997	117.25
187.216	43.52
187.436	-1.54
187.655	29.18
187.875	8.7
188.095	12.8
188.314	-28.16
188.534	33.28
188.753	55.81
188.973	2.56
189.192	41.47
189.412	-40.45
189.631	-15.87
189.851	98.81
190.07	31.23
190.29	35.33
190.509	61.95
190.729	-13.82
190.948	18.94
191.168	82.43
191.387	27.14
191.607	88.57
191.826	74.24
192.045	27.14
192.265	-1.54
192.484	74.24
192.704	-38.4
192.923	47.62
193.142	49.66
193.362	68.09
193.581	0.51
193.8	23.04
194.02	6.66
194.239	-60.93
194.458	27.14
194.678	-5.63
194.897	-19.97
195.116	-54.78
195.335	45.57
195.555	-24.06
195.774	-85.5
195.993	16.9
196.212	57.86
196.432	-1.54
196.651	27.14
196.87	-48.64
197.089	57.86
197.308	86.53
197.528	35.33
197.747	100.86
197.966	100.86
198.185	80.38
198.404	-7.68
198.623	0.51
198.842	90.62
199.062	51.71
199.281	31.23
199.5	66.05
199.719	12.8
199.938	10.75
200.157	39.42
200.376	37.38
200.595	53.76
200.814	41.47
201.033	4.61
201.252	4.61
201.471	-7.68
201.69	-30.21
201.909	10.75
202.128	-54.78
202.347	-50.69
202.566	-24.06
202.785	-26.11
203.004	45.57
203.223	68.09
203.442	-69.12
203.661	47.62
203.879	-24.06
204.098	12.8
204.317	23.04
204.536	-83.45
204.755	18.94
204.974	10.75
205.193	55.81
205.411	82.43
205.63	-73.21
205.849	-48.64
206.068	-26.11
206.287	-30.21
206.505	84.48
206.724	-7.68
206.943	0.51
207.162	0.51
207.381	-44.54
207.599	74.24
207.818	-13.82
208.037	-67.07
208.255	-54.78
208.474	4.61
208.693	-9.73
208.911	84.48
209.13	27.14
209.349	86.53
209.567	-44.54
209.786	35.33
210.005	55.81
210.223	-30.21
210.442	14.85
210.661	-19.97
210.879	33.28
211.098	-17.92
211.316	-28.16
211.535	43.52
211.753	45.57
211.972	-36.35
212.191	10.75
212.409	37.38
212.628	-40.45
212.846	-17.92
213.065	51.71
213.283	-5.63
213.502	23.04
213.72	-28.16
213.938	57.86
214.157	-17.92
214.375	-22.02
214.594	29.18
214.812	33.28
215.031	0.51
215.249	-26.11
215.467	-28.16
215.686	35.33
215.904	-3.58
216.122	29.18
216.341	80.38
216.559	39.42
216.778	41.47
216.996	37.38
217.214	-44.54
217.432	-22.02
217.651	2.56
217.869	8.7
218.087	72.19
218.306	84.48
218.524	-3.58
218.742	-15.87
218.96	-46.59
219.179	61.95
219.397	-7.68
219.615	45.57
219.833	0.51
220.051	0.51
220.27	23.04
220.488	94.72
220.706	82.43
220.924	-7.68
221.142	-9.73
221.36	-38.4
221.578	49.66
221.796	-5.63
222.015	-34.3
222.233	70.14
222.451	-3.58
222.669	66.05
222.887	47.62
223.105	-34.3
223.323	-34.3
223.541	16.9
223.759	94.72
223.977	84.48
224.195	45.57
224.413	-5.63
224.631	-1.54
224.849	-13.82
225.067	-7.68
225.285	-7.68
225.503	8.7
225.721	2.56
225.939	23.04
226.157	35.33
226.375	51.71
226.592	23.04
226.81	-19.97
227.028	43.52
227.246	-7.68
227.464	-44.54
227.682	12.8
227.9	-30.21
228.117	27.14
228.335	66.05
228.553	43.52
228.771	59.9
228.989	88.57
229.206	2.56
229.424	-19.97
229.642	-26.11
229.86	14.85
230.077	35.33
230.295	49.66
230.513	-11.78
230.731	41.47
230.948	-9.73
231.166	29.18
231.384	8.7
231.601	-11.78
231.819	57.86
232.037	72.19
232.254	-26.11
232.472	47.62
232.689	-26.11
232.907	29.18
233.125	29.18
233.342	2.56
233.56	80.38
233.777	18.94
233.995	20.99
234.213	55.81
234.43	25.09
234.648	27.14
234.865	20.99
235.083	20.99
235.3	96.77
235.518	25.09
235.735	14.85
235.953	35.33
236.17	78.33
236.388	12.8
236.605	84.48
236.822	-7.68
237.04	2.56
237.257	37.38
237.475	72.19
237.692	29.18
237.909	-71.17
238.127	35.33
238.344	27.14
238.562	-36.35
238.779	-30.21
238.996	4.61
239.214	-50.69
239.431	16.9
239.648	-38.4
239.865	4.61
240.083	-1.54
240.3	-7.68
240.517	43.52
240.735	23.04
240.952	68.09
241.169	-1.54
241.386	88.57
241.603	74.24
241.821	51.71
242.038	94.72
242.255	10.75
242.472	-9.73
242.689	-60.93
242.907	57.86
243.124	-99.84
243.341	45.57
243.558	8.7
243.775	76.29
243.992	-30.21
244.209	25.09
244.426	68.09
244.643	47.62
244.86	-24.06
245.078	-17.92
245.295	43.52
245.512	16.9
245.729	4.61
245.946	-7.68
246.163	72.19
246.38	76.29
246.597	25.09
246.814	39.42
247.031	37.38
247.248	-32.26
247.464	51.71
247.681	-1.54
247.898	51.71
248.115	51.71
248.332	-3.58
248.549	29.18
248.766	61.95
248.983	2.56
249.2	35.33
249.417	10.75
249.633	18.94
249.85	35.33
250.067	31.23
250.284	20.99
250.501	29.18
250.717	57.86
250.934	-46.59
251.151	-34.3
251.368	29.18
251.585	29.18
251.801	-5.63
252.018	104.96
252.235	39.42
252.451	-24.06
252.668	-11.78
252.885	35.33
253.102	51.71
253.318	-3.58
253.535	33.28
253.752	-36.35
253.968	-26.11
254.185	-3.58
254.401	43.52
254.618	8.7
254.835	68.09
255.051	-11.78
255.268	35.33
255.484	39.42
255.701	-9.73
255.917	76.29
256.134	43.52
256.351	61.95
256.567	-9.73
256.784	-44.54
257	16.9
257.217	43.52
257.433	-9.73
257.65	6.66
257.866	23.04
258.082	-7.68
258.299	-13.82
258.515	-7.68
258.732	49.66
258.948	-30.21
259.165	20.99
259.381	27.14
259.597	18.94
259.814	31.23
260.03	49.66
260.246	6.66
260.463	51.71
260.679	72.19
260.895	-22.02
261.112	10.75
261.328	-13.82
261.544	4.61
261.761	37.38
261.977	18.94
262.193	16.9
262.409	57.86
262.626	16.9
262.842	0.51
263.058	20.99
263.274	-22.02
263.49	-9.73
263.707	82.43
263.923	2.56
264.139	23.04
264.355	25.09
264.571	70.14
264.787	8.7
265.004	20.99
265.22	-42.5
265.436	-5.63
265.652	6.66
265.868	18.94
266.084	-24.06
266.3	18.94
266.516	0.51
266.732	20.99
266.948	-1.54
267.164	49.66
267.38	0.51
267.596	-3.58
267.812	6.66
268.028	98.81
268.244	68.09
268.46	-11.78
268.676	107.01
268.892	-24.06
269.108	74.24
269.324	-5.63
269.54	25.09
269.756	29.18
269.972	0.51
270.188	33.28
270.403	-15.87
270.619	31.23
270.835	-24.06
271.051	45.57
271.267	23.04
271.483	31.23
271.698	8.7
271.914	61.95
272.13	10.75
272.346	18.94
272.562	-13.82
272.777	18.94
272.993	78.33
273.209	88.57
273.425	-67.07
273.64	49.66
273.856	6.66
274.072	64
274.287	-9.73
274.503	35.33
274.719	64
274.934	-3.58
275.15	33.28
275.366	-46.59
275.581	61.95
275.797	33.28
276.012	20.99
276.228	-5.63
276.444	23.04
276.659	70.14
276.875	76.29
277.09	-34.3
277.306	25.09
277.521	66.05
277.737	35.33
277.952	115.2
278.168	27.14
278.383	10.75
278.599	55.81
278.814	29.18
279.03	31.23
279.245	20.99
279.461	4.61
279.676	29.18
279.892	-13.82
280.107	53.76
280.322	-15.87
280.538	-40.45
280.753	53.76
280.969	-22.02
281.184	31.23
281.399	-26.11
281.615	66.05
281.83	-44.54
282.045	14.85
282.26	51.71
282.476	12.8
282.691	86.53
282.906	49.66
283.122	47.62
283.337	35.33
283.552	10.75
283.767	-71.17
283.983	72.19
284.198	-17.92
284.413	6.66
284.628	39.42
284.843	68.09
285.058	-7.68
285.274	-1.54
285.489	-32.26
285.704	-34.3
285.919	-17.92
286.134	57.86
286.349	57.86
286.564	29.18
286.779	25.09
286.995	29.18
287.21	39.42
287.425	-1.54
287.64	12.8
287.855	86.53
288.07	45.57
288.285	35.33
288.5	18.94
288.715	12.8
288.93	23.04
289.145	2.56
289.36	41.47
289.575	27.14
289.79	94.72
290.004	4.61
290.219	55.81
290.434	35.33
290.649	104.96
290.864	-9.73
291.079	20.99
291.294	31.23
291.509	49.66
291.724	98.81
291.938	98.81
292.153	27.14
292.368	35.33
292.583	-24.06
292.798	8.7
293.012	16.9
293.227	82.43
293.442	39.42
293.657	23.04
293.871	39.42
294.086	98.81
294.301	-26.11
294.516	68.09
294.73	-17.92
294.945	-36.35
295.16	-13.82
295.374	8.7
295.589	43.52
295.804	6.66
296.018	64
296.233	115.2
296.447	23.04
296.662	51.71
296.877	-13.82
297.091	-24.06
297.306	-28.16
297.52	2.56
297.735	47.62
297.949	23.04
298.164	53.76
298.378	6.66
298.593	-38.4
298.807	-28.16
299.022	-13.82
299.236	-11.78
299.451	8.7
299.665	51.71
299.88	18.94
300.094	29.18
300.309	-5.63
300.523	2.56
300.737	-19.97
300.952	53.76
301.166	-26.11
301.381	-30.21
301.595	98.81
301.809	10.75
302.024	51.71
302.238	-105.98
302.452	-15.87
302.667	70.14
302.881	-48.64
303.095	6.66
303.309	76.29
303.524	51.71
303.738	-7.68
303.952	2.56
304.166	-1.54
304.381	-30.21
304.595	39.42
304.809	55.81
305.023	2.56
305.237	0.51
305.452	51.71
305.666	6.66
305.88	37.38
306.094	-15.87
306.308	49.66
306.522	45.57
306.736	14.85
306.95	51.71
307.164	29.18
307.379	-42.5
307.593	29.18
307.807	64
308.021	-15.87
308.235	23.04
308.449	-60.93
308.663	-5.63
308.877	43.52
309.091	66.05
309.305	66.05
309.519	-19.97
309.733	27.14
309.947	0.51
310.161	76.29
310.374	-32.26
310.588	64
310.802	-22.02
311.016	90.62
311.23	23.04
311.444	64
311.658	129.53
311.872	43.52
312.085	76.29
312.299	-24.06
312.513	27.14
312.727	14.85
312.941	-42.5
313.154	2.56
313.368	-24.06
313.582	104.96
313.796	41.47
314.009	61.95
314.223	35.33
314.437	47.62
314.651	41.47
314.864	-9.73
315.078	-24.06
315.292	-15.87
315.505	33.28
315.719	49.66
315.933	-7.68
316.146	59.9
316.36	-42.5
316.573	12.8
316.787	29.18
317.001	51.71
317.214	29.18
317.428	45.57
317.641	-42.5
317.855	68.09
318.068	20.99
318.282	55.81
318.495	29.18
318.709	23.04
318.922	0.51
319.136	59.9
319.349	39.42
319.563	-5.63
319.776	-58.88
319.99	10.75
320.203	-38.4
320.417	31.23
320.63	18.94
320.843	111.1
321.057	43.52
321.27	-36.35
321.483	31.23
321.697	78.33
321.91	88.57
322.124	61.95
322.337	-19.97
322.55	-44.54
322.763	-11.78
322.977	49.66
323.19	-36.35
323.403	4.61
323.617	8.7
323.83	57.86
324.043	-19.97
324.256	23.04
324.469	23.04
324.683	-7.68
324.896	2.56
325.109	4.61
325.322	-34.3
325.535	-30.21
325.748	-28.16
325.962	23.04
326.175	-3.58
326.388	88.57
326.601	61.95
326.814	33.28
327.027	18.94
327.24	51.71
327.453	-5.63
327.666	31.23
327.879	57.86
328.092	70.14
328.305	57.86
328.518	-15.87
328.731	29.18
328.944	-9.73
329.157	31.23
329.37	-13.82
329.583	125.44
329.796	31.23
330.009	72.19
330.222	16.9
330.435	68.09
330.648	45.57
330.861	25.09
331.073	18.94
331.286	88.57
331.499	53.76
331.712	-36.35
331.925	66.05
332.138	-1.54
332.35	51.71
332.563	-13.82
332.776	117.25
332.989	-50.69
333.202	72.19
333.414	-38.4
333.627	47.62
333.84	33.28
334.053	10.75
334.265	29.18
334.478	84.48
334.691	41.47
334.903	84.48
335.116	-13.82
335.329	90.62
335.541	10.75
335.754	82.43
335.966	96.77
336.179	-34.3
336.392	39.42
336.604	12.8
336.817	-1.54
337.029	45.57
337.242	2.56
337.454	2.56
337.667	-52.74
337.88	23.04
338.092	47.62
338.305	35.33
338.517	0.51
338.729	59.9
338.942	-5.63
339.154	8.7
339.367	2.56
339.579	27.14
339.792	-50.69
340.004	47.62
340.217	-34.3
340.429	6.66
340.641	90.62
340.854	6.66
341.066	-5.63
341.278	72.19
341.491	111.1
341.703	33.28
341.915	12.8
342.128	47.62
342.34	35.33
342.552	29.18
342.764	-26.11
342.977	25.09
343.189	2.56
343.401	31.23
343.613	-60.93
343.826	-13.82
344.038	-22.02
344.25	-1.54
344.462	-7.68
344.674	27.14
344.886	-1.54
345.099	72.19
345.311	18.94
345.523	-26.11
345.735	-48.64
345.947	12.8
346.159	23.04
346.371	-48.64
346.583	-46.59
346.795	16.9
347.007	-7.68
347.219	12.8
347.431	-13.82
347.643	47.62
347.855	6.66
348.067	66.05
348.279	57.86
348.491	18.94
348.703	0.51
348.915	-26.11
349.127	-7.68
349.339	92.67
349.551	-7.68
349.763	37.38
349.975	33.28
350.187	45.57
350.399	-44.54
350.61	74.24
350.822	18.94
351.034	31.23
351.246	10.75
351.458	94.72
351.669	6.66
351.881	41.47
352.093	33.28
352.305	84.48
352.517	64
352.728	55.81
352.94	-34.3
353.152	66.05
353.363	86.53
353.575	51.71
353.787	80.38
353.999	78.33
354.21	123.39
354.422	68.09
354.633	51.71
354.845	8.7
355.057	-17.92
355.268	115.2
355.48	35.33
355.692	53.76
355.903	92.67
356.115	72.19
356.326	-3.58
356.538	92.67
356.749	59.9
356.961	53.76
357.172	100.86
357.384	96.77
357.595	84.48
357.807	14.85
358.018	55.81
358.23	0.51
358.441	-7.68
358.653	57.86
358.864	55.81
359.075	31.23
359.287	57.86
359.498	29.18
359.709	82.43
359.921	-7.68
360.132	51.71
360.344	18.94
360.555	88.57
360.766	66.05
360.977	70.14
361.189	39.42
361.4	51.71
361.611	129.53
361.823	55.81
362.034	-11.78
362.245	-15.87
362.456	78.33
362.667	51.71
362.879	-1.54
363.09	90.62
363.301	72.19
363.512	100.86
363.723	-30.21
363.935	0.51
364.146	76.29
364.357	33.28
364.568	35.33
364.779	-136.7
364.99	117.25
365.201	-13.82
365.412	64
365.623	35.33
365.834	4.61
366.045	37.38
366.256	23.04
366.467	66.05
366.678	-13.82
366.889	20.99
367.1	76.29
367.311	57.86
367.522	74.24
367.733	49.66
367.944	10.75
368.155	-36.35
368.366	90.62
368.577	100.86
368.788	39.42
368.999	8.7
369.209	-17.92
369.42	35.33
369.631	6.66
369.842	51.71
370.053	18.94
370.264	14.85
370.474	10.75
370.685	84.48
370.896	4.61
371.107	90.62
371.317	59.9
371.528	20.99
371.739	49.66
371.95	37.38
372.16	25.09
372.371	25.09
372.582	8.7
372.792	49.66
373.003	25.09
373.214	84.48
373.424	10.75
373.635	16.9
373.846	86.53
374.056	10.75
374.267	0.51
374.477	14.85
374.688	80.38
374.898	66.05
375.109	-19.97
375.319	23.04
375.53	55.81
375.74	45.57
375.951	47.62
376.161	14.85
376.372	12.8
376.582	25.09
376.793	49.66
377.003	0.51
377.214	35.33
377.424	23.04
377.635	41.47
377.845	43.52
378.055	39.42
378.266	27.14
378.476	-5.63
378.686	23.04
378.897	33.28
379.107	70.14
379.317	37.38
379.528	37.38
379.738	129.53
379.948	-93.69
380.158	162.3
380.369	4.61
380.579	66.05
380.789	35.33
380.999	-3.58
381.21	53.76
381.42	172.54
381.63	23.04
381.84	135.68
382.05	-17.92
382.261	59.9
382.471	66.05
382.681	-5.63
382.891	-1.54
383.101	55.81
383.311	111.1
383.521	49.66
383.731	29.18
383.941	-7.68
384.151	29.18
384.361	-1.54
384.571	0.51
384.781	-22.02
384.991	100.86
385.201	102.91
385.411	51.71
385.621	94.72
385.831	20.99
386.041	51.71
386.251	8.7
386.461	90.62
386.671	-58.88
386.881	41.47
387.091	-3.58
387.301	64
387.511	35.33
387.72	129.53
387.93	16.9
388.14	14.85
388.35	18.94
388.56	10.75
388.769	104.96
388.979	47.62
389.189	25.09
389.399	88.57
389.609	123.39
389.818	94.72
390.028	92.67
390.238	64
390.447	-26.11
390.657	59.9
390.867	35.33
391.076	25.09
391.286	76.29
391.496	64
391.705	82.43
391.915	66.05
392.125	84.48
392.334	6.66
392.544	98.81
392.753	4.61
392.963	68.09
393.172	12.8
393.382	51.71
393.591	10.75
393.801	92.67
394.01	64
394.22	100.86
394.429	37.38
394.639	43.52
394.848	2.56
395.058	41.47
395.267	37.38
395.477	31.23
395.686	64
395.895	111.1
396.105	45.57
396.314	70.14
396.524	27.14
396.733	33.28
396.942	98.81
397.152	37.38
397.361	121.34
397.57	82.43
397.78	96.77
397.989	98.81
398.198	129.53
398.407	82.43
398.617	53.76
398.826	72.19
399.035	23.04
399.244	55.81
399.453	88.57
399.663	166.4
399.872	82.43
400.081	82.43
400.29	115.2
400.499	68.09
400.708	133.63
400.917	55.81
401.127	94.72
401.336	70.14
401.545	164.35
401.754	119.29
401.963	72.19
402.172	64
402.381	123.39
402.59	109.05
402.799	111.1
403.008	92.67
403.217	49.66
403.426	88.57
403.635	39.42
403.844	53.76
404.053	119.29
404.262	76.29
404.471	143.87
404.68	156.16
404.888	133.63
405.097	150.01
405.306	156.16
405.515	197.12
405.724	88.57
405.933	190.97
406.142	219.64
406.35	164.35
406.559	215.55
406.768	145.92
406.977	213.5
407.185	168.45
407.394	162.3
407.603	131.58
407.812	123.39
408.02	213.5
408.229	203.26
408.438	176.64
408.646	184.83
408.855	270.84
409.064	188.93
409.272	240.12
409.481	236.03
409.69	227.84
409.898	262.65
410.107	264.7
410.315	242.17
410.524	258.56
410.733	313.85
410.941	311.8
411.15	281.08
411.358	317.95
411.567	358.91
411.775	320
411.984	360.95
412.192	393.72
412.401	356.86
412.609	369.15
412.818	453.11
413.026	428.54
413.234	453.11
413.443	397.82
413.651	465.4
413.86	506.36
414.068	530.94
414.276	524.79
414.485	498.17
414.693	645.62
414.901	565.75
415.11	645.62
415.318	532.98
415.526	592.37
415.734	696.82
415.943	653.81
416.151	676.34
416.359	625.14
416.567	756.21
416.776	823.8
416.984	760.31
417.192	874.99
417.4	891.38
417.608	932.34
417.817	915.95
418.025	913.91
418.233	1018.35
418.441	944.63
418.649	950.77
418.857	1116.65
419.065	1114.61
419.273	1042.93
419.481	1098.22
419.689	1251.82
419.897	1307.12
420.105	1421.8
420.313	1415.66
420.521	1411.56
420.729	1491.43
420.937	1401.32
421.145	1413.61
421.353	1632.74
421.561	1653.22
421.769	1632.74
421.977	1753.57
422.185	1772
422.393	1812.96
422.601	2075.1
422.809	1980.9
423.017	1870.31
423.224	2089.44
423.432	2154.98
423.64	2036.19
423.848	2296.28
424.056	2359.77
424.263	2451.93
424.471	2537.95
424.679	2480.6
424.887	2650.58
425.094	2628.06
425.302	2910.68
425.51	2863.57
425.718	2953.68
425.925	2963.92
426.133	3082.7
426.341	3244.49
426.548	3334.61
426.756	3344.84
426.964	3447.24
427.171	3676.62
427.379	3779.01
427.586	3697.1
427.794	3852.74
428.001	3975.62
428.209	4094.4
428.417	4135.36
428.624	4477.37
428.832	4475.32
429.039	4526.52
429.247	4540.86
429.454	4925.88
429.662	5251.5
429.869	4858.29
430.076	5183.92
430.284	5022.13
430.491	5239.22
430.699	5460.4
430.906	5548.46
431.114	5634.47
431.321	5751.21
431.528	5923.24
431.736	6435.23
431.943	6590.88
432.15	6465.95
432.358	6545.82
432.565	7014.8
432.772	6992.28
432.979	7178.64
433.187	7424.4
433.394	7424.4
433.601	7936.39
433.808	7756.17
434.016	7975.3
434.223	8198.53
434.43	8591.74
434.637	8571.26
434.844	8939.9
435.052	9136.5
435.259	9066.87
435.466	9253.23
435.673	9226.61
435.88	9967.98
436.087	10314.08
436.294	10125.67
436.501	9896.3
436.708	10297.7
436.915	10570.08
437.122	11075.93
437.329	10793.31
437.537	11383.12
437.743	11694.41
437.95	11387.22
438.157	12034.38
438.364	12503.36
438.571	12495.17
438.778	12671.29
438.985	13547.83
439.192	12988.73
439.399	13556.02
439.606	13443.38
439.813	13990.19
440.02	14932.25
440.227	14598.43
440.433	14446.88
440.64	14967.07
440.847	14838.05
441.054	15173.91
441.261	16263.43
441.467	15913.23
441.674	16318.73
441.881	17035.52
442.088	16840.96
442.294	16572.68
442.501	17219.83
442.708	17377.53
442.914	18243.82
443.121	18688.23
443.328	18301.16
443.534	19531.99
443.741	19013.85
443.948	18628.84
444.154	20146.38
444.361	19921.1
444.568	20230.35
444.774	20240.59
444.981	20502.73
445.187	21192.89
445.394	22075.57
445.6	21549.24
445.807	23812.24
446.013	22898.85
446.22	23101.6
446.426	23978.13
446.633	24088.72
446.839	24881.28
447.046	24205.45
447.252	25192.58
447.459	25188.48
447.665	25229.44
447.871	26214.51
448.078	27265.12
448.284	26124.4
448.491	26755.18
448.697	27856.98
448.903	28483.66
449.11	28397.65
449.316	27674.71
449.522	28397.65
449.728	29349.95
449.935	29528.13
450.141	29364.29
450.347	29995.06
450.553	28889.16
450.76	29433.92
450.966	30171.19
451.172	30212.15
451.378	30615.6
451.584	30302.26
451.791	30806.06
451.997	30677.04
452.203	31391.78
452.409	31109.16
452.615	31266.85
452.821	29929.53
453.027	29411.39
453.233	31047.72
453.44	29782.07
453.646	29851.7
453.852	30423.09
454.058	30965.8
454.264	29792.31
454.47	30453.81
454.676	29612.09
454.882	30779.43
455.088	28160.08
455.294	28368.98
455.5	28866.63
455.705	29222.98
455.911	28151.89
456.117	27289.7
456.323	26759.27
456.529	25520.25
456.735	26628.2
456.941	26099.83
457.147	25927.8
457.352	25032.83
457.558	24606.86
457.764	24785.03
457.97	24336.52
458.176	23462.04
458.381	23703.7
458.587	22499.5
458.793	22462.63
458.999	21176.51
459.204	22491.3
459.41	22335.66
459.616	20613.32
459.821	20787.39
460.027	20463.82
460.233	20295.88
460.438	19468.5
460.644	19607.76
460.85	18483.43
461.055	18184.43
461.261	18352.36
461.466	16922.88
461.672	16582.91
461.878	17746.16
462.083	16605.44
462.289	16201.99
462.494	15810.83
462.7	15165.72
462.905	14881.05
463.111	15323.41
463.316	15556.88
463.522	15089.95
463.727	15233.3
463.932	15225.11
464.138	14883.1
464.343	14999.84
464.549	14457.12
464.754	15135
464.959	14805.28
465.165	14569.76
465.37	14375.2
465.575	13846.83
465.781	14346.53
465.986	14348.58
466.191	14104.87
466.397	13707.57
466.602	12992.83
466.807	13551.92
467.012	13465.91
467.218	13343.03
467.423	13277.49
467.628	13447.47
467.833	13924.65
468.038	13340.98
468.244	12861.76
468.449	13689.14
468.654	12912.95
468.859	12886.33
469.064	12783.93
469.269	12656.96
469.474	12433.73
469.679	12896.57
469.885	12331.33
470.09	12536.13
470.295	12351.81
470.5	12052.81
470.705	12093.77
470.91	11903.31
471.115	11794.76
471.32	12095.82
471.525	11796.81
471.73	11692.37
471.935	11589.97
472.139	11348.31
472.344	11368.79
472.549	11372.88
472.754	11215.19
472.959	10864.99
473.164	10709.34
473.369	10443.1
473.574	10797.4
473.778	10666.33
473.983	10688.86
474.188	10629.47
474.393	10144.1
474.598	10365.28
474.802	10066.28
475.007	10066.28
475.212	10035.56
475.417	9611.63
475.621	9693.55
475.826	9871.72
476.031	9568.62
476.235	9580.91
476.44	9544.05
476.645	9339.25
476.849	9343.35
477.054	9220.47
477.259	9070.97
477.463	9130.36
477.668	8880.5
477.872	8962.42
478.077	8923.51
478.282	8460.67
478.486	8640.89
478.691	8487.29
478.895	8513.92
479.1	8587.64
479.304	8352.13
479.509	8190.34
479.713	8595.84
479.918	8268.16
480.122	8196.48
480.326	8034.69
480.531	8280.45
480.735	7950.73
480.94	8003.97
481.144	8368.51
481.348	7891.34
481.553	8104.32
481.757	7766.41
481.961	7860.62
482.166	7960.97
482.37	7985.54
482.574	7688.59
482.778	8014.21
482.983	8012.17
483.187	7887.24
483.391	7967.11
483.595	7754.12
483.8	7801.22
484.004	7756.17
484.208	7981.45
484.412	7924.1
484.616	7631.24
484.821	7860.62
485.025	7743.88
485.229	7911.82
485.433	7809.42
485.637	7760.27
485.841	7641.48
486.045	7784.84
486.249	7973.25
486.453	7776.65
486.657	7864.71
486.861	7934.34
487.065	7721.35
487.269	7696.78
487.473	7641.48
487.677	7940.49
487.881	7944.58
488.085	7676.3
488.289	7887.24
488.493	7852.42
488.697	7913.86
488.901	7801.22
489.105	7829.9
489.309	8069.51
489.512	7885.19
489.716	7960.97
489.92	7965.06
490.124	8112.52
490.328	8071.56
490.531	7901.58
490.735	8089.99
490.939	8098.18
491.143	8034.69
491.346	8126.85
491.55	8100.23
491.754	8036.74
491.958	8192.39
492.161	8139.14
492.365	8266.11
492.569	8026.5
492.772	8118.66
492.976	8270.21
493.18	8223.11
493.383	8384.9
493.587	8593.79
493.79	8536.45
493.994	8399.23
494.197	8565.12
494.401	8673.66
494.605	8655.23
494.808	8800.63
495.012	8923.51
495.215	8804.73
495.419	8876.41
495.622	9081.21
495.825	8976.76
496.029	9308.53
496.232	9251.19
496.436	9242.99
496.639	9531.76
496.843	9380.21
497.046	9447.79
497.249	9582.96
497.453	9570.67
497.656	9806.19
497.859	9642.35
498.063	9959.78
498.266	10195.3
498.469	10086.76
498.673	9984.36
498.876	10344.8
499.079	10312.03
499.282	10488.16
499.485	10692.96
499.689	10582.37
499.892	10740.06
500.095	10967.38
500.298	11237.72
500.501	11016.54
500.705	11475.28
500.908	11620.69
501.111	11508.05
501.314	11698.51
501.517	11913.55
501.72	12003.66
501.923	11868.49
502.126	12398.91
502.329	12552.51
502.532	12396.87
502.735	12462.4
502.938	12755.26
503.141	12857.66
503.344	12929.34
503.547	13013.31
503.75	13214.01
503.953	13500.72
504.156	13736.24
504.359	13560.11
504.562	13682.99
504.765	14055.72
504.968	14276.9
505.17	14254.37
505.373	14289.19
505.576	14551.33
505.779	14780.7
505.982	14919.96
506.185	15143.19
506.387	15010.07
506.59	15352.09
506.793	15477.01
506.996	15630.61
507.198	16015.63
507.401	15960.33
507.604	15958.28
507.807	16544
508.009	16443.65
508.212	16738.56
508.415	17133.82
508.617	16855.29
508.82	17058.04
509.022	17037.56
509.225	17467.64
509.428	17322.23
509.63	17637.62
509.833	17713.39
510.035	18231.53
510.238	18114.8
510.44	18471.14
510.643	18749.67
510.845	18569.44
511.048	18645.22
511.25	18958.56
511.453	18813.15
511.655	19652.82
511.858	19583.19
512.06	19566.81
512.262	20015.31
512.465	19744.98
512.667	20130
512.87	20506.82
513.072	20607.17
513.274	20740.29
513.477	21047.49
513.679	21182.65
513.881	21440.7
514.084	21680.31
514.286	21532.86
514.488	21819.57
514.69	22534.31
514.893	22331.56
515.095	22642.85
515.297	22933.67
515.499	22900.9
515.701	23038.11
515.904	23351.45
516.106	23556.25
516.308	23660.69
516.51	24023.19
516.712	23984.27
516.914	24195.21
517.116	24924.29
517.318	24662.15
517.52	25192.58
517.722	25079.94
517.925	25632.89
518.127	25344.13
518.329	25761.91
518.531	25686.14
518.733	26196.08
518.935	26722.41
519.136	26204.27
519.338	27140.19
519.54	26581.1
519.742	27299.94
519.944	27541.6
520.146	27625.56
520.348	28168.27
520.55	28225.62
520.752	28047.44
520.954	28672.07
521.155	28534.86
521.357	28885.06
521.559	29626.43
521.761	29454.4
521.963	29618.24
522.164	29653.05
522.366	29734.97
522.568	30029.88
522.77	30369.84
522.971	30558.25
523.173	30449.71
523.375	30756.91
523.576	30599.21
523.778	30507.05
523.98	31184.93
524.181	31563.81
524.383	31627.29
524.584	31930.39
524.786	31588.38
524.988	31879.19
525.189	32018.46
525.391	32208.92
525.592	32774.16
525.794	32512.02
525.995	32579.6
526.197	32587.79
526.398	32690.19
526.6	32866.31
526.801	33107.97
527.003	33449.99
527.204	33306.63
527.406	33628.16
527.607	33427.46
527.808	34009.08
528.01	33466.37
528.211	33990.65
528.412	34613.23
528.614	34379.76
528.815	34289.65
529.016	34822.12
529.218	34127.86
529.419	34369.52
529.62	34609.14
529.822	34799.6
530.023	34725.87
530.224	34807.79
530.425	34525.17
530.626	34480.11
530.828	34877.42
531.029	35565.54
531.23	34797.55
531.431	34840.56
531.632	34959.34
531.833	35184.62
532.035	35203.05
532.236	35239.91
532.437	35506.15
532.638	34711.53
532.839	35362.79
533.04	35790.81
533.241	35291.11
533.442	35889.12
533.643	35438.56
533.844	35282.92
534.045	35262.44
534.246	35082.22
534.447	35287.01
534.648	35545.06
534.849	35389.41
535.05	35260.39
535.251	35635.17
535.451	35594.21
535.652	35708.9
535.853	35549.15
536.054	35995.61
536.255	35850.2
536.456	35381.22
536.657	35923.93
536.857	35164.14
537.058	35188.71
537.259	35682.27
537.46	35561.44
537.66	35475.43
537.861	35635.17
538.062	35282.92
538.263	35604.45
538.463	35698.66
538.664	36085.72
538.865	35555.3
539.065	35614.69
539.266	35385.32
539.466	36061.15
539.667	35174.38
539.868	35647.46
540.068	35516.39
540.269	35508.19
540.469	35700.7
540.67	35321.83
540.87	35594.21
541.071	35708.9
541.271	35500
541.472	35504.1
541.672	35559.39
541.873	35586.02
542.073	35076.07
542.274	35407.84
542.474	35518.43
542.675	35131.37
542.875	35420.13
543.075	35196.9
543.276	35041.26
543.476	35702.75
543.676	35350.5
543.877	35475.43
544.077	35407.84
544.277	35270.63
544.478	35135.46
544.678	35201
544.878	35182.57
545.078	35475.43
545.279	35057.64
545.479	35004.39
545.679	35145.7
545.879	35399.65
546.079	35567.59
546.28	35184.62
546.48	35280.87
546.68	35346.4
546.88	35207.14
547.08	35334.12
547.28	35008.49
547.48	34861.04
547.68	35375.08
547.88	35209.19
548.081	35309.54
548.281	35229.67
548.481	35274.73
548.681	35565.54
548.881	35039.21
549.081	35168.23
549.28	35004.39
549.48	35301.35
549.68	34832.36
549.88	35299.3
550.08	34838.51
550.28	35225.57
550.48	35045.35
550.68	35293.16
550.88	35090.41
551.08	34893.8
551.279	35174.38
551.479	34686.96
551.679	35076.07
551.879	34977.77
552.079	35043.31
552.278	34985.96
552.478	35149.8
552.678	34865.13
552.878	35000.3
553.077	34799.6
553.277	34412.53
553.477	35377.12
553.676	34252.79
553.876	34705.39
554.076	34668.53
554.275	34572.27
554.475	34572.27
554.674	34629.62
554.874	34664.43
555.074	34547.7
555.273	34621.42
555.473	34646
555.672	34318.32
555.872	34584.56
556.071	34277.36
556.271	34711.53
556.47	33851.39
556.67	34062.33
556.869	33978.36
557.068	34287.6
557.268	33863.68
557.467	33943.55
557.667	33925.11
557.866	34101.24
558.065	33824.76
558.265	33841.15
558.464	33964.03
558.663	34025.46
558.863	33693.69
559.062	34134.01
559.261	33206.28
559.461	33988.6
559.66	33255.43
559.859	33896.44
560.058	33337.35
560.258	33456.13
560.457	32819.21
560.656	33556.48
560.855	33136.65
561.054	33413.12
561.253	32909.32
561.453	33380.35
561.652	32985.1
561.851	33396.74
562.05	32839.69
562.249	33128.45
562.448	32800.78
562.647	32894.99
562.846	32884.75
563.045	32704.52
563.244	32559.12
563.443	33021.96
563.642	32337.94
563.841	32395.28
564.04	32493.58
564.239	32479.25
564.438	32290.84
564.637	32346.13
564.836	32481.3
565.035	31997.98
565.234	32102.42
565.432	31772.7
565.631	31907.87
565.83	32018.46
566.029	31674.4
566.228	31707.16
566.427	31668.25
566.625	31770.65
566.824	31148.07
567.023	31821.85
567.222	31240.23
567.42	31608.86
567.619	31139.88
567.818	31139.88
568.016	31008.81
568.215	31434.78
568.414	30957.61
568.612	31471.65
568.811	30902.31
569.01	31111.21
569.208	30498.86
569.407	30971.94
569.605	30351.41
569.804	30801.96
570.002	30552.11
570.201	30507.05
570.4	30351.41
570.598	29870.14
570.797	29753.4
570.995	29974.58
571.193	29896.76
571.392	30119.99
571.59	29433.92
571.789	29708.35
571.987	29896.76
572.186	29614.14
572.384	29282.37
572.582	29677.63
572.781	29538.37
572.979	29620.28
573.177	29341.76
573.376	29388.86
573.574	29259.84
573.772	29501.5
573.971	29081.67
574.169	28545.1
574.367	28805.19
574.565	28606.54
574.763	28655.69
574.962	28762.19
575.16	28000.34
575.358	28702.79
575.556	28403.79
575.754	28762.19
575.952	28235.86
576.151	28299.34
576.349	27951.19
576.547	28411.98
576.745	27916.37
576.943	28307.54
577.141	27781.21
577.339	27723.86
577.537	27803.74
577.735	27805.78
577.933	27613.27
578.131	27342.94
578.329	27291.74
578.527	27625.56
578.725	27314.27
578.923	27265.12
579.121	26994.79
579.319	27156.58
579.516	26925.16
579.714	27031.65
579.912	26974.31
580.11	26689.64
580.308	27033.7
580.506	26722.41
580.704	26470.51
580.901	26411.12
581.099	26572.91
581.297	26271.86
581.495	26400.88
581.692	26216.56
581.89	26556.52
582.088	26316.91
582.285	26112.11
582.483	25878.65
582.681	26130.55
582.878	25952.37
583.076	25682.04
583.274	26232.94
583.471	25327.74
583.669	25671.8
583.866	25380.99
584.064	25862.26
584.262	25206.91
584.459	25614.46
584.657	25143.42
584.854	25565.31
585.052	25147.52
585.249	25231.49
585.447	25262.21
585.644	25120.9
585.841	24797.32
586.039	25184.38
586.236	24619.14
586.434	24789.13
586.631	24395.92
586.828	24719.49
587.026	24813.7
587.223	24342.67
587.42	24295.57
587.618	24682.63
587.815	23945.36
588.012	24352.91
588.21	23916.69
588.407	24076.43
588.604	23928.98
588.801	23840.92
588.999	23836.82
589.196	24023.19
589.393	23982.23
589.59	23793.81
589.787	23650.46
589.984	23464.09
590.182	23208.09
590.379	23546.01
590.576	23402.65
590.773	23324.83
590.97	23224.48
591.167	23204
591.364	23050.4
591.561	22902.95
591.758	22851.75
591.955	22859.94
592.152	23062.69
592.349	22485.16
592.546	22665.38
592.743	22687.91
592.94	22497.45
593.137	22329.52
593.334	22483.11
593.531	22210.73
593.727	22212.78
593.924	22241.45
594.121	21901.49
594.318	22167.73
594.515	21481.66
594.712	22032.56
594.908	21944.5
595.105	22018.22
595.302	21772.47
595.499	21708.98
595.696	21514.42
595.892	21622.97
596.089	21473.46
596.286	21403.83
596.482	21686.45
596.679	21483.7
596.876	21418.17
597.072	21297.34
597.269	21248.19
597.466	21125.31
597.662	20795.59
597.859	20840.64
598.055	20984
598.252	20984
598.448	20701.38
598.645	21127.36
598.841	20465.86
599.038	20601.03
599.234	20746.44
599.431	20433.1
599.627	20207.82
599.824	20560.07
600.02	20254.92
600.217	20261.07
600.413	19892.43
600.609	19917.01
600.806	20140.24
601.002	20089.04
601.198	19769.55
601.395	19816.66
601.591	19835.09
601.787	19706.07
601.984	19546.33
602.18	19869.9
602.376	19787.99
602.572	19359.96
602.769	19521.75
602.965	19273.95
603.161	19345.62
603.357	19278.04
603.553	19321.05
603.75	19531.99
603.946	19069.15
604.142	19077.34
604.338	18981.09
604.534	19042.53
604.73	18655.46
604.926	18624.74
605.122	18690.27
605.318	18686.18
605.514	18634.98
605.71	18276.59
605.906	18561.25
606.102	18710.75
606.298	18338.02
606.494	18667.75
606.69	18223.34
606.886	18278.63
607.082	18528.49
607.278	18366.7
607.474	17873.14
607.67	18143.47
607.866	17969.39
608.062	18307.3
608.257	17969.39
608.453	18075.88
608.649	17991.92
608.845	17692.91
609.041	17928.43
609.236	17852.66
609.432	17752.31
609.628	17584.37
609.824	17412.34
610.019	17633.52
610.215	17549.56
610.411	17787.12
610.606	17375.48
610.802	17703.15
610.998	17625.33
611.193	17565.94
611.389	17191.16
611.584	17307.9
611.78	17123.58
611.976	17225.98
612.171	17101.05
612.367	17162.49
612.562	17213.69
612.758	17031.42
612.953	16937.21
613.149	17213.69
613.344	16644.35
613.539	16935.17
613.735	16793.86
613.93	16984.32
614.126	16797.95
614.321	17174.78
614.517	16912.64
614.712	16834.82
614.907	16541.96
615.103	16836.86
615.298	16787.71
615.493	16638.21
615.688	16642.31
615.884	16949.5
616.079	16570.63
616.274	16632.07
616.47	16642.31
616.665	16580.87
616.86	16316.68
617.055	16173.32
617.25	16191.75
617.445	16380.17
617.641	16081.16
617.836	16394.5
618.031	16247.05
618.226	15864.08
618.421	15882.51
618.616	16333.06
618.811	15857.93
619.006	16292.1
619.201	15575.31
619.396	16001.29
619.591	15534.35
619.786	15911.18
619.981	15667.47
620.176	15646.99
620.371	15280.41
620.566	15378.71
620.761	15720.72
620.956	15663.38
621.151	15311.13
621.346	15132.95
621.541	15085.85
621.735	15268.12
621.93	14903.58
622.125	14866.72
622.32	14616.86
622.515	14956.83
622.709	14836
622.904	14539.04
623.099	14489.89
623.294	14776.61
623.488	14186.79
623.683	14491.94
623.878	14385.44
624.072	14344.49
624.267	14219.56
624.462	14192.94
624.656	13869.36
624.851	13873.45
625.046	13904.17
625.24	13650.22
625.435	13535.54
625.629	13662.51
625.824	13611.31
626.018	13541.68
626.213	13363.51
626.407	13277.49
626.602	13125.94
626.796	13422.9
626.991	13171
627.185	13132.09
627.38	12958.01
627.574	12927.29
627.768	12691.77
627.963	12915
628.157	12618.05
628.352	12675.39
628.546	12450.11
628.74	12659.01
628.935	12341.57
629.129	12534.08
629.323	12314.95
629.517	12314.95
629.712	12194.12
629.906	12175.69
630.1	12038.47
630.294	12147.01
630.489	11880.78
630.683	12003.66
630.877	11694.41
631.071	11723.09
631.265	11878.73
631.459	11569.49
631.653	11426.13
631.848	11446.61
632.042	11608.4
632.236	11495.76
632.43	11282.77
632.624	11376.98
632.818	11190.61
633.012	10830.17
633.206	11088.21
633.4	10934.62
633.594	10828.12
633.788	11037.02
633.982	10946.9
634.176	10772.83
634.369	10692.96
634.563	10828.12
634.757	10465.63
634.951	10830.17
635.145	10529.12
635.339	10692.96
635.533	10488.16
635.726	10391.91
635.92	10205.54
636.114	10412.39
636.308	10021.22
636.501	10185.06
636.695	10189.16
636.889	10013.03
637.083	10072.42
637.276	9953.64
637.47	9951.59
637.664	9947.5
637.857	9728.36
638.051	9845.1
638.244	9761.13
638.438	9740.65
638.632	9797.99
638.825	9658.73
639.019	9660.78
639.212	9468.27
639.406	9431.41
639.599	9484.66
639.793	9302.39
639.986	9335.15
640.18	9306.48
640.373	9019.77
640.567	9173.36
640.76	8948.09
640.954	9126.26
641.147	8821.11
641.34	8800.63
641.534	9038.2
641.727	8825.21
641.92	8810.87
642.114	8843.64
642.307	8710.52
642.5	8618.36
642.694	8438.14
642.887	8636.8
643.08	8620.41
643.273	8368.51
643.467	8485.25
643.66	8391.04
643.853	8409.47
644.046	8161.67
644.239	8286.59
644.432	8302.98
644.626	8276.35
644.819	8229.25
645.012	8055.17
645.205	7911.82
645.398	8008.07
645.591	8077.7
645.784	7805.32
645.977	7881.1
646.17	7932.29
646.363	7756.17
646.556	7752.07
646.749	7602.57
646.942	7809.42
647.135	7403.92
647.328	7602.57
647.521	7633.29
647.714	7471.5
647.907	7537.04
648.099	7537.04
648.292	7377.3
648.485	7399.82
648.678	7205.27
648.871	7317.9
649.064	7281.04
649.256	7233.94
649.449	7235.99
649.642	7172.5
649.835	7082.39
650.027	6850.97
650.22	6963.61
650.413	7029.14
650.605	7004.57
650.798	6805.91
650.991	6820.25
651.183	6642.07
651.376	6879.64
651.568	6791.58
651.761	6914.45
651.954	6650.27
652.146	6762.9
652.339	6543.77
652.531	6564.25
652.724	6416.8
652.916	6400.41
653.109	6400.41
653.301	6418.85
653.494	6468
653.686	6330.78
653.879	6349.22
654.071	6148.51
654.263	6273.44
654.456	6177.19
654.648	6341.02
654.84	6242.72
655.033	6295.97
655.225	6144.42
655.417	6093.22
655.61	6146.47
655.802	5945.77
655.994	5988.77
656.186	6019.49
656.379	5865.89
656.571	5968.29
656.763	5904.81
656.955	5814.7
657.148	5906.85
657.34	5906.85
657.532	5575.08
657.724	5753.26
657.916	5800.36
658.108	5687.72
658.3	5734.82
658.492	5597.61
658.684	5583.27
658.876	5669.29
659.068	5659.05
659.26	5454.25
659.452	5466.54
659.644	5355.95
659.836	5470.64
660.028	5298.61
660.22	5321.13
660.412	5276.08
660.604	5271.98
660.796	5319.09
660.988	5200.3
661.18	5001.65
661.372	5310.89
661.563	5085.62
661.755	5001.65
661.947	5104.05
662.139	5110.19
662.331	4991.41
662.522	5038.52
662.714	5003.7
662.906	5013.94
663.097	5034.42
663.289	4960.69
663.481	4854.2
663.673	4821.43
663.864	4671.93
664.056	4764.09
664.247	4874.68
664.439	4876.73
664.631	4837.81
664.822	4561.34
665.014	4841.91
665.205	4700.6
665.397	4729.27
665.588	4594.11
665.78	4612.54
665.971	4749.75
666.163	4651.45
666.354	4673.98
666.546	4534.71
666.737	4551.1
666.929	4567.48
667.12	4389.31
667.311	4563.39
667.503	4450.75
667.694	4450.75
667.885	4413.88
668.077	4374.97
668.268	4383.17
668.459	4374.97
668.651	4067.78
668.842	4321.73
669.033	4291.01
669.224	4188.61
669.416	4237.76
669.607	4207.04
669.798	4278.72
669.989	4129.22
670.18	4180.42
670.371	4065.73
670.563	4147.65
670.754	4166.08
670.945	4102.59
671.136	3983.81
671.327	3996.1
671.518	4051.39
671.709	4078.02
671.9	4129.22
672.091	4020.67
672.282	4118.98
672.473	3996.1
672.664	3885.51
672.855	3930.56
673.046	3811.78
673.237	3881.41
673.428	3854.79
673.619	3858.89
673.809	3774.92
674	3860.93
674.191	3918.28
674.382	3869.12
674.573	3750.34
674.764	3746.25
674.954	3807.69
675.145	3727.82
675.336	3809.73
675.527	3703.24
675.717	3893.7
675.908	3668.42
676.099	3789.25
676.289	3709.38
676.48	3654.09
676.671	3549.64
676.861	3576.27
677.052	3678.66
677.243	3504.59
677.433	3635.66
677.624	3625.42
677.814	3580.36
678.005	3596.75
678.195	3555.79
678.386	3570.12
678.576	3463.63
678.767	3473.87
678.957	3428.81
679.148	3578.31
679.338	3529.16
679.529	3531.21
679.719	3586.51
679.909	3559.88
680.1	3422.67
680.29	3457.48
680.481	3439.05
680.671	3455.44
680.861	3486.15
681.052	3500.49
681.242	3367.37
681.432	3320.27
681.622	3381.71
681.813	3181.01
682.003	3396.04
682.193	3334.61
682.383	3379.66
682.573	3416.52
682.764	3383.76
682.954	3201.49
683.144	3332.56
683.334	3310.03
683.524	3246.54
683.714	3359.18
683.904	3197.39
684.094	3221.97
684.284	3221.97
684.474	3267.02
684.664	3221.97
684.854	3219.92
685.044	3076.56
685.234	3258.83
685.424	3301.84
685.614	3299.79
685.804	3279.31
685.994	3160.53
686.184	3213.77
686.374	3189.2
686.564	3051.99
686.753	3215.82
686.943	3119.57
687.133	3092.94
687.323	3099.09
687.513	3054.03
687.702	2963.92
687.892	3070.42
688.082	2988.5
688.272	3054.03
688.461	3068.37
688.651	3041.75
688.841	2972.11
689.03	3058.13
689.22	2953.68
689.41	2978.26
689.599	2933.2
689.789	2888.15
689.979	2867.67
690.168	2886.1
690.358	2869.72
690.547	2814.42
690.737	2906.58
690.926	2820.56
691.116	2712.02
691.305	2896.34
691.495	2730.45
691.684	2820.56
691.874	2871.76
692.063	2761.17
692.252	2845.14
692.442	2681.3
692.631	2765.27
692.82	2718.17
693.01	2683.35
693.199	2607.58
693.388	2619.86
693.578	2673.11
693.767	2595.29
693.956	2529.75
694.146	2570.71
694.335	2556.38
694.524	2566.62
694.713	2621.91
694.902	2585.05
695.092	2603.48
695.281	2486.75
695.47	2517.47
695.659	2494.94
695.848	2603.48
696.037	2529.75
696.226	2517.47
696.415	2447.83
696.604	2458.07
696.793	2519.51
696.982	2550.23
697.171	2478.55
697.36	2410.97
697.549	2466.27
697.738	2464.22
697.927	2327
698.116	2404.83
698.305	2449.88
698.494	2576.86
698.683	2429.4
698.872	2451.93
699.061	2435.55
699.25	2460.12
699.438	2427.35
699.627	2548.19
699.816	2394.59
700.005	2345.44
700.193	2451.93
700.382	2343.39
700.571	2453.98
700.76	2372.06
700.948	2533.85
701.137	2304.48
701.326	2343.39
701.514	2390.49
701.703	2378.2
701.892	2249.18
702.08	2453.98
702.269	2339.29
702.457	2316.76
702.646	2451.93
702.834	2406.88
703.023	2361.82
703.212	2519.51
703.4	2361.82
703.589	2329.05
703.777	2372.06
703.965	2327
704.154	2394.59
704.342	2396.64
704.531	2304.48
704.719	2324.96
704.907	2380.25
705.096	2339.29
705.284	2456.03
705.472	2423.26
705.661	2376.16
705.849	2351.58
706.037	2347.48
706.226	2279.9
706.414	2236.89
706.602	2302.43
706.79	2367.96
706.979	2365.92
707.167	2372.06
707.355	2284
707.543	2255.33
707.731	2298.33
707.919	2271.71
708.107	2279.9
708.296	2351.58
708.484	2218.46
708.672	2271.71
708.86	2284
709.048	2294.24
709.236	2363.87
709.424	2355.68
709.612	2380.25
709.8	2288.09
709.988	2396.64
710.176	2228.7
710.364	2357.72
710.551	2191.84
710.739	2269.66
710.927	2324.96
711.115	2294.24
711.303	2277.85
711.491	2361.82
711.679	2165.21
711.866	2296.28
712.054	2320.86
712.242	2189.79
712.43	2208.22
712.617	2183.65
712.805	2273.76
712.993	2286.05
713.181	2298.33
713.368	2218.46
713.556	2329.05
713.744	2300.38
713.931	2228.7
714.119	2333.15
714.306	2318.81
714.494	2351.58
714.682	2359.77
714.869	2189.79
715.057	2339.29
715.244	2128.35
715.432	2341.34
715.619	2345.44
715.807	2154.98
715.994	2238.94
716.182	2238.94
716.369	2333.15
716.556	2212.32
716.744	2173.41
716.931	2224.61
717.119	2179.55
717.306	2240.99
717.493	2152.93
717.681	2263.52
717.868	2204.13
718.055	2300.38
718.242	2204.13
718.43	2210.27
718.617	2175.45
718.804	2214.37
718.991	2152.93
719.179	2179.55
719.366	2284
719.553	2228.7
719.74	2302.43
719.927	2189.79
720.114	2222.56
720.301	2124.26
720.488	2316.76
720.676	2095.58
720.863	2341.34
721.05	2191.84
721.237	2271.71
721.424	2230.75
721.611	2306.52
721.798	2200.03
721.985	2234.85
722.172	2142.69
722.358	2224.61
722.545	2247.13
722.732	2132.45
722.919	2218.46
723.106	2157.02
723.293	2318.81
723.48	2181.6
723.667	2146.78
723.853	2208.22
724.04	2202.08
724.227	2189.79
724.414	2185.69
724.6	2271.71
724.787	2177.5
724.974	2193.89
725.161	2200.03
725.347	2191.84
725.534	2189.79
725.72	2300.38
725.907	2077.15
726.094	2148.83
726.28	2193.89
726.467	2226.65
726.653	2032.1
726.84	2290.14
727.027	2316.76
727.213	2144.74
727.4	2189.79
727.586	2099.68
727.773	2103.78
727.959	2210.27
728.145	2159.07
728.332	2251.23
728.518	2236.89
728.705	2183.65
728.891	2128.35
729.077	2126.3
729.264	2116.06
729.45	2134.5
729.636	2232.8
729.823	2200.03
730.009	2255.33
730.195	2167.26
730.382	2279.9
730.568	2212.32
730.754	2185.69
730.94	2146.78
731.126	2171.36
731.313	2173.41
731.499	2159.07
731.685	2236.89
731.871	2130.4
732.057	2259.42
732.243	2142.69
732.429	2234.85
732.615	2195.93
732.801	2193.89
732.987	2048.48
733.173	2161.12
733.359	2179.55
733.545	2114.02
733.731	2232.8
733.917	2204.13
734.103	2206.17
734.289	2179.55
734.475	2068.96
734.661	2163.17
734.847	2152.93
735.033	2173.41
735.219	2122.21
735.404	2238.94
735.59	2136.54
735.776	2109.92
735.962	2202.08
736.148	2212.32
736.333	2136.54
736.519	2146.78
736.705	2103.78
736.89	2101.73
737.076	2210.27
737.262	2238.94
737.447	2169.31
737.633	2154.98
737.819	2116.06
738.004	2140.64
738.19	2124.26
738.375	1995.23
738.561	2214.37
738.747	2017.76
738.932	2083.3
739.118	2134.5
739.303	2259.42
739.489	2107.87
739.674	2210.27
739.859	2050.53
740.045	2163.17
740.23	2058.72
740.416	2091.49
740.601	2050.53
740.786	1960.42
740.972	1968.61
741.157	1976.8
741.342	2054.62
741.528	2040.29
741.713	2066.91
741.898	2038.24
742.084	2023.91
742.269	1974.75
742.454	1987.04
742.639	2001.38
742.824	1997.28
743.01	2009.57
743.195	1903.07
743.38	1919.46
743.565	1941.99
743.75	2132.45
743.935	1821.16
744.12	2038.24
744.305	1921.51
744.49	1898.98
744.675	1921.51
744.86	1927.65
745.045	1905.12
745.23	1939.94
745.415	1950.18
745.6	1935.84
745.785	1847.78
745.97	1866.21
746.155	1833.44
746.34	1800.68
746.525	1761.77
746.71	1790.44
746.895	1710.57
747.079	1739.24
747.264	1683.94
747.449	1815.01
747.634	1772
747.819	1827.3
748.003	1749.48
748.188	1718.76
748.373	1710.57
748.557	1745.38
748.742	1716.71
748.927	1747.43
749.111	1606.12
749.296	1704.42
749.481	1694.18
749.665	1636.84
749.85	1753.57
750.034	1685.99
750.219	1464.81
750.404	1702.37
750.588	1653.22
750.773	1501.67
750.957	1659.37
751.141	1630.7
751.326	1591.78
751.51	1542.63
751.695	1503.72
751.879	1618.41
752.064	1608.17
752.248	1489.39
752.432	1499.63
752.617	1458.67
752.801	1436.14
752.985	1442.28
753.17	1403.37
753.354	1485.29
753.538	1497.58
753.722	1462.76
753.907	1464.81
754.091	1434.09
754.275	1386.99
754.459	1364.46
754.643	1419.75
754.828	1374.7
755.012	1358.32
755.196	1292.78
755.38	1376.75
755.564	1358.32
755.748	1327.6
755.932	1309.16
756.116	1364.46
756.3	1262.06
756.484	1245.68
756.668	1292.78
756.852	1331.69
757.036	1262.06
757.22	1147.37
757.404	1182.19
757.588	1184.24
757.772	1214.96
757.956	1227.25
758.14	1270.25
758.323	1130.99
758.507	1245.68
758.691	1178.09
758.875	1237.49
759.059	1161.71
759.242	1194.48
759.426	1245.68
759.61	1130.99
759.794	1102.32
759.977	1233.39
760.161	1153.52
760.345	1190.38
760.528	1159.66
760.712	1133.04
760.895	1139.18
761.079	1133.04
761.263	1030.64
761.446	1075.7
761.63	1100.27
761.813	1079.79
761.997	1161.71
762.18	1087.98
762.364	1139.18
762.547	1112.56
762.731	1067.5
762.914	1055.22
763.098	1071.6
763.281	1036.78
763.464	1028.59
763.648	993.78
763.831	1014.26
764.015	918
764.198	946.67
764.381	1126.89
764.564	987.63
764.748	944.63
764.931	1012.21
765.114	889.33
765.297	987.63
765.481	891.38
765.664	991.73
765.847	926.19
766.03	901.62
766.213	942.58
766.397	944.63
766.58	965.11
766.763	897.52
766.946	1049.07
767.129	915.95
767.312	909.81
767.495	961.01
767.678	965.11
767.861	946.67
768.044	887.28
768.227	862.71
768.41	827.89
768.593	909.81
768.776	909.81
768.959	903.67
769.142	838.13
769.324	838.13
769.507	907.76
769.69	883.19
769.873	741.88
770.056	844.28
770.239	842.23
770.421	975.35
770.604	829.94
770.787	827.89
770.97	944.63
771.152	784.88
771.335	791.03
771.518	799.22
771.7	985.58
771.883	903.67
772.066	770.55
772.248	844.28
772.431	764.4
772.613	850.42
772.796	805.36
772.978	809.46
773.161	850.42
773.343	723.44
773.526	795.12
773.708	784.88
773.891	745.97
774.073	733.68
774.256	778.74
774.438	801.27
774.621	729.59
774.803	741.88
774.985	735.73
775.168	680.44
775.35	719.35
775.532	713.21
775.715	715.25
775.897	653.81
776.079	608.76
776.261	655.86
776.444	684.53
776.626	692.73
776.808	641.53
776.99	653.81
777.173	688.63
777.355	725.49
777.537	666.1
777.719	725.49
777.901	690.68
778.083	666.1
778.265	645.62
778.447	594.42
778.629	594.42
778.811	627.19
778.993	684.53
779.175	594.42
779.357	584.18
779.539	549.37
779.721	596.47
779.903	631.29
780.085	575.99
780.267	598.52
780.449	563.7
780.631	580.09
780.812	629.24
780.994	575.99
781.176	557.56
781.358	557.56
781.54	551.42
781.721	508.41
781.903	545.27
782.085	557.56
782.267	608.76
782.448	449.02
782.63	530.94
782.812	547.32
782.993	532.98
783.175	545.27
783.357	522.74
783.538	537.08
783.72	524.79
783.901	444.92
784.083	500.22
784.264	459.26
784.446	541.18
784.627	465.4
784.809	559.61
784.99	516.6
785.172	561.66
785.353	520.7
785.535	449.02
785.716	477.69
785.897	444.92
786.079	498.17
786.26	440.83
786.441	385.53
786.623	334.33
786.804	401.91
786.985	438.78
787.167	473.59
787.348	393.72
787.529	444.92
787.71	408.06
787.891	473.59
788.073	389.63
788.254	367.1
788.435	422.39
788.616	403.96
788.797	385.53
788.978	377.34
789.159	444.92
789.34	395.77
789.522	358.91
789.703	344.57
789.884	385.53
790.065	350.71
790.246	344.57
790.427	375.29
790.607	444.92
790.788	383.48
790.969	297.47
791.15	426.49
791.331	350.71
791.512	328.19
791.693	281.08
791.874	299.52
792.054	401.91
792.235	328.19
792.416	291.32
792.597	371.19
792.778	336.38
792.958	328.19
793.139	363
793.32	360.95
793.5	274.94
793.681	256.51
793.862	276.99
794.042	299.52
794.223	266.75
794.404	270.84
794.584	326.14
794.765	309.76
794.945	260.6
795.126	383.48
795.306	373.24
795.487	260.6
795.667	274.94
795.848	299.52
796.028	289.28
796.209	326.14
796.389	305.66
796.57	236.03
796.75	299.52
796.93	215.55
797.111	320
797.291	303.61
797.471	242.17
797.652	256.51
797.832	309.76
798.012	246.27
798.192	274.94
798.373	178.69
798.553	303.61
798.733	289.28
798.913	268.8
799.093	207.36
799.274	322.04
799.454	274.94
799.634	229.88
799.814	274.94
799.994	281.08
800.174	236.03
800.354	268.8
800.534	270.84
800.714	303.61
800.894	297.47
801.074	303.61
801.254	213.5
801.434	293.37
801.614	227.84
801.794	270.84
801.974	616.95
802.154	219.64
802.334	248.32
802.514	238.08
802.693	137.73
802.873	197.12
803.053	256.51
803.233	193.02
803.413	203.26
803.592	223.74
803.772	164.35
803.952	135.68
804.131	238.08
804.311	233.98
804.491	293.37
804.67	160.25
804.85	182.78
805.03	190.97
805.209	207.36
805.389	180.73
805.568	244.22
805.748	240.12
805.928	178.69
806.107	188.93
806.287	205.31
806.466	152.06
806.646	244.22
806.825	188.93
807.004	133.63
807.184	186.88
807.363	174.59
807.543	166.4
807.722	229.88
807.901	276.99
808.081	113.15
808.26	115.2
808.439	160.25
808.619	156.16
808.798	154.11
808.977	123.39
809.156	209.4
809.336	197.12
809.515	225.79
809.694	176.64
809.873	219.64
810.052	217.6
810.231	141.82
810.411	96.77
810.59	158.21
810.769	215.55
810.948	172.54
811.127	150.01
811.306	145.92
811.485	156.16
811.664	156.16
811.843	174.59
812.022	160.25
812.201	158.21
812.38	188.93
812.559	109.05
812.737	143.87
812.916	84.48
813.095	160.25
813.274	168.45
813.453	180.73
813.632	162.3
813.811	147.97
813.989	225.79
814.168	131.58
814.347	141.82
814.526	102.91
814.704	100.86
814.883	190.97
815.062	131.58
815.24	170.49
815.419	96.77
815.598	117.25
815.776	107.01
815.955	80.38
816.133	115.2
816.312	137.73
816.49	150.01
816.669	158.21
816.847	94.72
817.026	129.53
817.204	125.44
817.383	117.25
817.561	66.05
817.74	203.26
817.918	115.2
818.097	76.29
818.275	141.82
818.453	100.86
818.632	41.47
818.81	143.87
818.988	72.19
819.167	162.3
819.345	147.97
819.523	170.49
819.701	72.19
819.879	113.15
820.058	72.19
820.236	152.06
820.414	129.53
820.592	137.73
820.77	90.62
820.948	59.9
821.127	121.34
821.305	111.1
821.483	113.15
821.661	139.77
821.839	158.21
822.017	119.29
822.195	78.33
822.373	92.67
822.551	133.63
822.729	231.93
822.907	49.66
823.085	141.82
823.262	53.76
823.44	53.76
823.618	96.77
823.796	102.91
823.974	88.57
824.152	20.99
824.329	66.05
824.507	170.49
824.685	61.95
824.863	127.49
825.04	86.53
825.218	104.96
825.396	70.14
825.574	113.15
825.751	51.71
825.929	70.14
826.107	70.14
826.284	59.9
826.462	104.96
826.639	125.44
826.817	92.67
826.994	68.09
827.172	68.09
827.349	82.43
827.527	66.05
827.704	68.09
827.882	43.52
828.059	137.73
828.237	43.52
828.414	12.8
828.591	43.52
828.769	84.48
828.946	55.81
829.124	37.38
829.301	68.09
829.478	29.18
829.655	117.25
829.833	74.24
830.01	74.24
830.187	102.91
830.364	98.81
830.542	68.09
830.719	55.81
830.896	51.71
831.073	66.05
831.25	90.62
831.427	90.62
831.604	2.56
831.782	107.01
831.959	92.67
832.136	72.19
832.313	158.21
832.49	51.71
832.667	127.49
832.844	113.15
833.021	104.96
833.198	23.04
833.374	96.77
833.551	20.99
833.728	61.95
833.905	20.99
834.082	119.29
834.259	119.29
834.436	94.72
834.612	113.15
834.789	111.1
834.966	45.57
835.143	43.52
835.319	51.71
835.496	66.05
835.673	98.81
835.85	154.11
836.026	70.14
836.203	10.75
836.38	107.01
836.556	113.15
836.733	59.9
836.909	64
837.086	150.01
837.262	53.76
837.439	88.57
837.616	64
837.792	70.14
837.968	51.71
838.145	-1.54
838.321	-7.68
838.498	141.82
838.674	49.66
838.851	82.43
839.027	94.72
839.203	41.47
839.38	104.96
839.556	49.66
839.732	94.72
839.909	23.04
840.085	39.42
840.261	61.95
840.437	84.48
840.614	0.51
840.79	88.57
840.966	39.42
841.142	45.57
841.318	127.49
841.494	84.48
841.671	53.76
841.847	2.56
842.023	35.33
842.199	31.23
842.375	35.33
842.551	12.8
842.727	41.47
842.903	96.77
843.079	45.57
843.255	119.29
843.431	43.52
843.607	70.14
843.783	49.66
843.959	133.63
844.134	-17.92
844.31	43.52
844.486	41.47
844.662	20.99
844.838	33.28
845.013	94.72
845.189	100.86
845.365	80.38
845.541	-46.59
845.716	68.09
845.892	31.23
846.068	61.95
846.244	-26.11
846.419	88.57
846.595	23.04
846.77	6.66
846.946	-22.02
847.122	139.77
847.297	-13.82
847.473	64
847.648	107.01
847.824	25.09
847.999	10.75
848.175	51.71
848.35	84.48
848.526	57.86
848.701	57.86
848.876	23.04
849.052	20.99
849.227	47.62
849.403	8.7
849.578	14.85
849.753	74.24
849.929	8.7
850.104	29.18
850.279	53.76
850.454	-32.26
850.63	82.43
850.805	2.56
850.98	33.28
851.155	-1.54
851.33	45.57
851.505	45.57
851.681	90.62
851.856	4.61
852.031	-5.63
852.206	43.52
852.381	-9.73
852.556	39.42
852.731	20.99
852.906	-32.26
853.081	39.42
853.256	27.14
853.431	92.67
853.606	-9.73
853.781	82.43
853.956	14.85
854.131	45.57
854.305	43.52
854.48	74.24
854.655	39.42
854.83	47.62
855.005	59.9
855.18	59.9
855.354	-7.68
855.529	57.86
855.704	-38.4
855.879	53.76
856.053	31.23
856.228	74.24
856.403	-3.58
856.577	47.62
856.752	-13.82
856.926	6.66
857.101	43.52
857.276	39.42
857.45	23.04
857.625	94.72
857.799	-60.93
857.974	57.86
858.148	8.7
858.323	18.94
858.497	27.14
858.672	51.71
858.846	-38.4
859.02	47.62
859.195	29.18
859.369	4.61
859.543	-3.58
859.718	33.28
859.892	20.99
860.066	64
860.241	14.85
860.415	78.33
860.589	35.33
860.763	14.85
860.938	4.61
861.112	78.33
861.286	-42.5
861.46	-1.54
861.634	18.94
861.808	-5.63
861.982	-60.93
862.157	4.61
862.331	-13.82
862.505	2.56
862.679	45.57
862.853	4.61
863.027	78.33
863.201	98.81
863.375	14.85
863.549	-13.82
863.722	35.33
863.896	78.33
864.07	2.56
864.244	18.94
864.418	-15.87
864.592	23.04
864.766	8.7
864.939	27.14
865.113	66.05
865.287	29.18
865.461	14.85
865.634	31.23
865.808	51.71
865.982	-46.59
866.156	33.28
866.329	-28.16
866.503	27.14
866.676	37.38
866.85	39.42
867.024	45.57
867.197	45.57
867.371	6.66
867.544	27.14
867.718	27.14
867.891	59.9
868.065	-26.11
868.238	29.18
868.412	33.28
868.585	104.96
868.759	2.56
868.932	-34.3
869.105	-44.54
869.279	-62.98
869.452	57.86
869.625	66.05
869.799	23.04
869.972	10.75
870.145	-34.3
870.319	102.91
870.492	2.56
870.665	-48.64
870.838	78.33
871.011	-30.21
871.185	49.66
871.358	-65.02
871.531	4.61
871.704	25.09
871.877	31.23
872.05	55.81
872.223	66.05
872.396	2.56
872.569	47.62
872.742	23.04
872.915	0.51
873.088	0.51
873.261	-9.73
873.434	109.05
873.607	43.52
873.78	20.99
873.953	-40.45
874.126	64
874.299	2.56
874.471	25.09
874.644	-60.93
874.817	-7.68
874.99	61.95
875.163	-24.06
875.335	33.28
875.508	27.14
875.681	57.86
875.853	8.7
876.026	-40.45
876.199	37.38
876.371	-5.63
876.544	-11.78
876.717	31.23
876.889	-36.35
877.062	43.52
877.234	6.66
877.407	-11.78
877.579	23.04
877.752	-15.87
877.924	35.33
878.097	37.38
878.269	33.28
878.442	-28.16
878.614	-17.92
878.786	23.04
878.959	-13.82
879.131	115.2
879.303	-26.11
879.476	35.33
879.648	-3.58
879.82	16.9
879.993	-5.63
880.165	70.14
880.337	-42.5
880.509	8.7
880.681	-30.21
880.854	72.19
881.026	-17.92
881.198	53.76
881.37	-22.02
881.542	25.09
881.714	37.38
881.886	-50.69
882.058	84.48
882.23	41.47
882.402	-71.17
882.574	-1.54
882.746	-26.11
882.918	31.23
883.09	20.99
883.262	6.66
883.434	33.28
883.606	2.56
883.778	-26.11
883.95	80.38
884.122	-46.59
884.293	-9.73
884.465	-19.97
884.637	8.7
884.809	-36.35
884.98	-5.63
885.152	18.94
885.324	31.23
885.496	-48.64
885.667	0.51
885.839	-7.68
886.011	16.9
886.182	-65.02
886.354	59.9
886.525	31.23
886.697	-11.78
886.869	-99.84
887.04	59.9
887.212	18.94
887.383	20.99
887.555	47.62
887.726	18.94
887.897	-15.87
888.069	-73.21
888.24	57.86
888.412	51.71
888.583	-54.78
888.754	-13.82
888.926	-65.02
889.097	-9.73
889.268	-5.63
889.44	29.18
889.611	66.05
889.782	-5.63
889.953	-36.35
890.125	68.09
890.296	-48.64
890.467	25.09
890.638	4.61
890.809	29.18
890.98	6.66
891.151	10.75
891.323	16.9
891.494	12.8
891.665	-32.26
891.836	-15.87
892.007	2.56
892.178	25.09
892.349	-28.16
892.52	-24.06
892.691	43.52
892.862	43.52
893.032	12.8
893.203	33.28
893.374	-42.5
893.545	14.85
893.716	61.95
893.887	29.18
894.057	0.51
894.228	8.7
894.399	66.05
894.57	-7.68
894.74	-105.98
894.911	68.09
895.082	-97.79
895.253	-5.63
895.423	55.81
895.594	53.76
895.764	-62.98
895.935	29.18
896.106	-13.82
896.276	47.62
896.447	14.85
896.617	-48.64
896.788	-3.58
896.958	-42.5
897.129	-13.82
897.299	10.75
897.47	-5.63
897.64	8.7
897.81	-9.73
897.981	45.57
898.151	-62.98
898.322	-62.98
898.492	25.09
898.662	-15.87
898.832	-40.45
899.003	-28.16
899.173	18.94
899.343	-22.02
899.513	-28.16
