Data from USB4F104151__168__11-08-55-847.txt Node

Date: Wed Mar 12 11:08:55 EDT 2025
User: louis
Spectrometer: USB4F10415
Trigger mode: 4
Integration Time (sec): 2.000000E-2
Scans to average: 1
Electric dark correction enabled: true
Nonlinearity correction enabled: false
Boxcar width: 0
XAxis mode: Wavelengths
Number of Pixels in Spectrum: 3648
>>>>>Begin Spectral Data<<<<<
178.204	-24.92
178.424	-24.92
178.644	-24.92
178.864	-90.45
179.084	-49.49
179.304	36.52
179.524	7.85
179.744	-86.36
179.964	24.23
180.184	-14.68
180.404	7.85
180.624	13.99
180.844	73.39
181.064	-117.08
181.283	3.75
181.503	9.9
181.723	40.62
181.943	28.33
182.163	100.01
182.383	-29.01
182.602	28.33
182.822	-20.82
183.042	16.04
183.262	-47.44
183.482	42.67
183.701	-55.64
183.921	-18.77
184.141	18.09
184.361	73.39
184.58	-8.53
184.8	1.71
185.02	11.95
185.239	36.52
185.459	16.04
185.679	-35.16
185.898	3.75
186.118	34.47
186.338	48.81
186.557	77.48
186.777	34.47
186.997	-22.87
187.216	-14.68
187.436	7.85
187.655	13.99
187.875	-10.58
188.095	13.99
188.314	52.91
188.534	-41.3
188.753	22.19
188.973	7.85
189.192	28.33
189.412	32.43
189.631	9.9
189.851	-49.49
190.07	-26.96
190.29	-33.11
190.509	91.82
190.729	18.09
190.948	11.95
191.168	77.48
191.387	-10.58
191.607	-10.58
191.826	42.67
192.045	42.67
192.265	-37.2
192.484	9.9
192.704	20.14
192.923	-0.34
193.142	-20.82
193.362	3.75
193.581	16.04
193.8	95.91
194.02	5.8
194.239	52.91
194.458	34.47
194.678	32.43
194.897	77.48
195.116	16.04
195.335	-8.53
195.555	38.57
195.774	61.1
195.993	59.05
196.212	73.39
196.432	54.95
196.651	-12.63
196.87	16.04
197.089	118.44
197.308	67.24
197.528	-33.11
197.747	-6.49
197.966	-49.49
198.185	77.48
198.404	30.38
198.623	13.99
198.842	40.62
199.062	34.47
199.281	93.87
199.5	-16.73
199.719	46.76
199.938	126.63
200.157	-2.39
200.376	44.71
200.595	85.67
200.814	36.52
201.033	-10.58
201.252	95.91
201.471	-29.01
201.69	100.01
201.909	-0.34
202.128	3.75
202.347	-10.58
202.566	3.75
202.785	61.1
203.004	-20.82
203.223	71.34
203.442	-4.44
203.661	-37.2
203.879	32.43
204.098	-39.25
204.317	40.62
204.536	59.05
204.755	65.19
204.974	-0.34
205.193	85.67
205.411	18.09
205.63	5.8
205.849	-8.53
206.068	32.43
206.287	52.91
206.505	36.52
206.724	81.58
206.943	42.67
207.162	81.58
207.381	26.28
207.599	-18.77
207.818	-53.59
208.037	-51.54
208.255	3.75
208.474	24.23
208.693	11.95
208.911	38.57
209.13	75.43
209.349	28.33
209.567	36.52
209.786	48.81
210.005	38.57
210.223	-61.78
210.442	48.81
210.661	-18.77
210.879	36.52
211.098	5.8
211.316	1.71
211.535	34.47
211.753	40.62
211.972	61.1
212.191	40.62
212.409	24.23
212.628	59.05
212.846	50.86
213.065	28.33
213.283	32.43
213.502	-45.4
213.72	-33.11
213.938	108.2
214.157	-18.77
214.375	44.71
214.594	-55.64
214.812	24.23
215.031	-10.58
215.249	18.09
215.467	63.15
215.686	13.99
215.904	46.76
216.122	46.76
216.341	77.48
216.559	83.63
216.778	24.23
216.996	32.43
217.214	11.95
217.432	38.57
217.651	-37.2
217.869	44.71
218.087	-0.34
218.306	24.23
218.524	36.52
218.742	40.62
218.96	11.95
219.179	67.24
219.397	26.28
219.615	36.52
219.833	-43.35
220.051	20.14
220.27	-6.49
220.488	54.95
220.706	11.95
220.924	22.19
221.142	3.75
221.36	26.28
221.578	34.47
221.796	87.72
222.015	52.91
222.233	52.91
222.451	24.23
222.669	-33.11
222.887	24.23
223.105	3.75
223.323	26.28
223.541	22.19
223.759	52.91
223.977	-22.87
224.195	38.57
224.413	42.67
224.631	1.71
224.849	42.67
225.067	38.57
225.285	38.57
225.503	26.28
225.721	-2.39
225.939	42.67
226.157	-14.68
226.375	71.34
226.592	40.62
226.81	30.38
227.028	75.43
227.246	3.75
227.464	20.14
227.682	40.62
227.9	65.19
228.117	59.05
228.335	11.95
228.553	5.8
228.771	-37.2
228.989	-18.77
229.206	42.67
229.424	-12.63
229.642	38.57
229.86	3.75
230.077	11.95
230.295	63.15
230.513	20.14
230.731	44.71
230.948	85.67
231.166	32.43
231.384	50.86
231.601	9.9
231.819	20.14
232.037	48.81
232.254	48.81
232.472	18.09
232.689	93.87
232.907	1.71
233.125	11.95
233.342	89.77
233.56	-10.58
233.777	28.33
233.995	-16.73
234.213	36.52
234.43	48.81
234.648	-2.39
234.865	24.23
235.083	-4.44
235.3	30.38
235.518	32.43
235.735	40.62
235.953	73.39
236.17	38.57
236.388	-31.06
236.605	61.1
236.822	-33.11
237.04	97.96
237.257	22.19
237.475	52.91
237.692	61.1
237.909	36.52
238.127	-6.49
238.344	63.15
238.562	48.81
238.779	-33.11
238.996	-22.87
239.214	32.43
239.431	71.34
239.648	22.19
239.865	48.81
240.083	28.33
240.3	-16.73
240.517	24.23
240.735	-6.49
240.952	36.52
241.169	9.9
241.386	48.81
241.603	16.04
241.821	36.52
242.038	54.95
242.255	18.09
242.472	-18.77
242.689	71.34
242.907	54.95
243.124	40.62
243.341	124.58
243.558	38.57
243.775	48.81
243.992	-18.77
244.209	50.86
244.426	28.33
244.643	16.04
244.86	42.67
245.078	18.09
245.295	-26.96
245.512	1.71
245.729	54.95
245.946	22.19
246.163	52.91
246.38	-59.73
246.597	3.75
246.814	-16.73
247.031	73.39
247.248	16.04
247.464	38.57
247.681	20.14
247.898	24.23
248.115	-4.44
248.332	-53.59
248.549	69.29
248.766	65.19
248.983	59.05
249.2	77.48
249.417	20.14
249.633	61.1
249.85	18.09
250.067	24.23
250.284	20.14
250.501	11.95
250.717	24.23
250.934	13.99
251.151	20.14
251.368	-33.11
251.585	20.14
251.801	20.14
252.018	-4.44
252.235	71.34
252.451	-51.54
252.668	69.29
252.885	-0.34
253.102	44.71
253.318	32.43
253.535	44.71
253.752	73.39
253.968	11.95
254.185	44.71
254.401	40.62
254.618	73.39
254.835	-4.44
255.051	9.9
255.268	54.95
255.484	38.57
255.701	28.33
255.917	16.04
256.134	16.04
256.351	11.95
256.567	48.81
256.784	30.38
257	-115.03
257.217	81.58
257.433	7.85
257.65	28.33
257.866	89.77
258.082	28.33
258.299	9.9
258.515	3.75
258.732	61.1
258.948	32.43
259.165	40.62
259.381	30.38
259.597	36.52
259.814	42.67
260.03	-0.34
260.246	-35.16
260.463	34.47
260.679	73.39
260.895	120.49
261.112	63.15
261.328	24.23
261.544	22.19
261.761	89.77
261.977	65.19
262.193	-10.58
262.409	3.75
262.626	36.52
262.842	46.76
263.058	20.14
263.274	40.62
263.49	-33.11
263.707	11.95
263.923	48.81
264.139	50.86
264.355	11.95
264.571	30.38
264.787	18.09
265.004	75.43
265.22	-39.25
265.436	44.71
265.652	28.33
265.868	110.25
266.084	-16.73
266.3	16.04
266.516	-2.39
266.732	38.57
266.948	28.33
267.164	42.67
267.38	-16.73
267.596	52.91
267.812	-31.06
268.028	-12.63
268.244	28.33
268.46	30.38
268.676	28.33
268.892	59.05
269.108	-4.44
269.324	-10.58
269.54	-49.49
269.756	67.24
269.972	-18.77
270.188	18.09
270.403	9.9
270.619	75.43
270.835	26.28
271.051	9.9
271.267	67.24
271.483	59.05
271.698	100.01
271.914	52.91
272.13	-26.96
272.346	-10.58
272.562	38.57
272.777	114.34
272.993	108.2
273.209	-39.25
273.425	36.52
273.64	34.47
273.856	44.71
274.072	63.15
274.287	-35.16
274.503	38.57
274.719	-20.82
274.934	7.85
275.15	24.23
275.366	5.8
275.581	-33.11
275.797	54.95
276.012	-8.53
276.228	-10.58
276.444	-14.68
276.659	130.73
276.875	-24.92
277.09	-4.44
277.306	-10.58
277.521	-2.39
277.737	16.04
277.952	-0.34
278.168	9.9
278.383	40.62
278.599	-14.68
278.814	69.29
279.03	-8.53
279.245	22.19
279.461	-2.39
279.676	-6.49
279.892	11.95
280.107	28.33
280.322	1.71
280.538	73.39
280.753	36.52
280.969	54.95
281.184	9.9
281.399	100.01
281.615	-2.39
281.83	-4.44
282.045	26.28
282.26	11.95
282.476	26.28
282.691	81.58
282.906	-24.92
283.122	-16.73
283.337	42.67
283.552	24.23
283.767	-16.73
283.983	-10.58
284.198	50.86
284.413	13.99
284.628	-57.68
284.843	7.85
285.058	26.28
285.274	83.63
285.489	-57.68
285.704	61.1
285.919	-53.59
286.134	24.23
286.349	-35.16
286.564	11.95
286.779	28.33
286.995	-31.06
287.21	52.91
287.425	-33.11
287.64	-12.63
287.855	-4.44
288.07	24.23
288.285	71.34
288.5	-20.82
288.715	126.63
288.93	-22.87
289.145	-67.92
289.36	79.53
289.575	1.71
289.79	16.04
290.004	7.85
290.219	52.91
290.434	20.14
290.649	-8.53
290.864	73.39
291.079	77.48
291.294	48.81
291.509	26.28
291.724	38.57
291.938	28.33
292.153	22.19
292.368	-22.87
292.583	-0.34
292.798	40.62
293.012	63.15
293.227	120.49
293.442	-41.3
293.657	1.71
293.871	7.85
294.086	48.81
294.301	71.34
294.516	-35.16
294.73	28.33
294.945	61.1
295.16	79.53
295.374	48.81
295.589	38.57
295.804	24.23
296.018	16.04
296.233	7.85
296.447	67.24
296.662	-12.63
296.877	20.14
297.091	-14.68
297.306	122.54
297.52	-12.63
297.735	42.67
297.949	9.9
298.164	42.67
298.378	63.15
298.593	-0.34
298.807	-4.44
299.022	40.62
299.236	30.38
299.451	7.85
299.665	3.75
299.88	-12.63
300.094	28.33
300.309	85.67
300.523	50.86
300.737	46.76
300.952	-12.63
301.166	13.99
301.381	-35.16
301.595	75.43
301.809	52.91
302.024	-16.73
302.238	44.71
302.452	-0.34
302.667	9.9
302.881	52.91
303.095	93.87
303.309	38.57
303.524	11.95
303.738	81.58
303.952	-35.16
304.166	22.19
304.381	-16.73
304.595	50.86
304.809	20.14
305.023	7.85
305.237	7.85
305.452	52.91
305.666	1.71
305.88	97.96
306.094	89.77
306.308	54.95
306.522	42.67
306.736	-35.16
306.95	65.19
307.164	54.95
307.379	26.28
307.593	118.44
307.807	75.43
308.021	65.19
308.235	20.14
308.449	59.05
308.663	65.19
308.877	38.57
309.091	5.8
309.305	26.28
309.519	-59.73
309.733	38.57
309.947	-0.34
310.161	30.38
310.374	132.78
310.588	3.75
310.802	65.19
311.016	-18.77
311.23	52.91
311.444	-12.63
311.658	26.28
311.872	16.04
312.085	-55.64
312.299	57
312.513	-33.11
312.727	18.09
312.941	11.95
313.154	69.29
313.368	-22.87
313.582	22.19
313.796	59.05
314.009	50.86
314.223	30.38
314.437	32.43
314.651	48.81
314.864	7.85
315.078	3.75
315.292	-65.88
315.505	63.15
315.719	69.29
315.933	16.04
316.146	-20.82
316.36	9.9
316.573	16.04
316.787	-39.25
317.001	46.76
317.214	-43.35
317.428	48.81
317.641	-26.96
317.855	-18.77
318.068	77.48
318.282	67.24
318.495	81.58
318.709	26.28
318.922	79.53
319.136	11.95
319.349	20.14
319.563	3.75
319.776	71.34
319.99	75.43
320.203	114.34
320.417	63.15
320.63	26.28
320.843	32.43
321.057	46.76
321.27	-10.58
321.483	89.77
321.697	143.02
321.91	59.05
322.124	61.1
322.337	1.71
322.55	77.48
322.763	32.43
322.977	24.23
323.19	77.48
323.403	87.72
323.617	-49.49
323.83	69.29
324.043	20.14
324.256	9.9
324.469	18.09
324.683	-0.34
324.896	-12.63
325.109	-41.3
325.322	61.1
325.535	24.23
325.748	46.76
325.962	20.14
326.175	48.81
326.388	81.58
326.601	81.58
326.814	22.19
327.027	42.67
327.24	28.33
327.453	-57.68
327.666	75.43
327.879	52.91
328.092	24.23
328.305	48.81
328.518	75.43
328.731	-26.96
328.944	67.24
329.157	-16.73
329.37	38.57
329.583	61.1
329.796	46.76
330.009	-14.68
330.222	28.33
330.435	73.39
330.648	59.05
330.861	34.47
331.073	104.11
331.286	102.06
331.499	54.95
331.712	7.85
331.925	16.04
332.138	-8.53
332.35	-6.49
332.563	50.86
332.776	79.53
332.989	52.91
333.202	69.29
333.414	57
333.627	-6.49
333.84	79.53
334.053	5.8
334.265	97.96
334.478	48.81
334.691	-35.16
334.903	79.53
335.116	18.09
335.329	32.43
335.541	20.14
335.754	7.85
335.966	40.62
336.179	100.01
336.392	40.62
336.604	57
336.817	87.72
337.029	69.29
337.242	30.38
337.454	-22.87
337.667	32.43
337.88	112.3
338.092	-20.82
338.305	34.47
338.517	-8.53
338.729	-8.53
338.942	42.67
339.154	-4.44
339.367	-33.11
339.579	52.91
339.792	-37.2
340.004	48.81
340.217	91.82
340.429	-0.34
340.641	16.04
340.854	-0.34
341.066	87.72
341.278	93.87
341.491	73.39
341.703	85.67
341.915	-51.54
342.128	52.91
342.34	40.62
342.552	57
342.764	63.15
342.977	40.62
343.189	11.95
343.401	28.33
343.613	11.95
343.826	16.04
344.038	24.23
344.25	5.8
344.462	108.2
344.674	38.57
344.886	28.33
345.099	59.05
345.311	24.23
345.523	44.71
345.735	18.09
345.947	75.43
346.159	36.52
346.371	-33.11
346.583	18.09
346.795	83.63
347.007	20.14
347.219	26.28
347.431	44.71
347.643	32.43
347.855	-8.53
348.067	73.39
348.279	9.9
348.491	26.28
348.703	116.39
348.915	5.8
349.127	-26.96
349.339	-59.73
349.551	36.52
349.763	54.95
349.975	34.47
350.187	28.33
350.399	91.82
350.61	50.86
350.822	11.95
351.034	71.34
351.246	46.76
351.458	20.14
351.669	77.48
351.881	87.72
352.093	69.29
352.305	-12.63
352.517	77.48
352.728	77.48
352.94	52.91
353.152	28.33
353.363	-16.73
353.575	26.28
353.787	69.29
353.999	-2.39
354.21	69.29
354.422	32.43
354.633	-33.11
354.845	24.23
355.057	-39.25
355.268	42.67
355.48	13.99
355.692	52.91
355.903	114.34
356.115	38.57
356.326	30.38
356.538	38.57
356.749	48.81
356.961	77.48
357.172	65.19
357.384	18.09
357.595	52.91
357.807	67.24
358.018	32.43
358.23	89.77
358.441	52.91
358.653	22.19
358.864	30.38
359.075	50.86
359.287	75.43
359.498	52.91
359.709	38.57
359.921	44.71
360.132	-33.11
360.344	134.82
360.555	38.57
360.766	5.8
360.977	3.75
361.189	32.43
361.4	-37.2
361.611	38.57
361.823	3.75
362.034	34.47
362.245	-10.58
362.456	24.23
362.667	77.48
362.879	-2.39
363.09	48.81
363.301	54.95
363.512	3.75
363.723	9.9
363.935	40.62
364.146	46.76
364.357	63.15
364.568	24.23
364.779	-26.96
364.99	67.24
365.201	93.87
365.412	102.06
365.623	42.67
365.834	-12.63
366.045	32.43
366.256	42.67
366.467	20.14
366.678	32.43
366.889	9.9
367.1	81.58
367.311	34.47
367.522	38.57
367.733	36.52
367.944	110.25
368.155	-4.44
368.366	7.85
368.577	36.52
368.788	-16.73
368.999	34.47
369.209	75.43
369.42	71.34
369.631	44.71
369.842	46.76
370.053	-26.96
370.264	110.25
370.474	48.81
370.685	11.95
370.896	-4.44
371.107	24.23
371.317	50.86
371.528	89.77
371.739	85.67
371.95	13.99
372.16	36.52
372.371	-6.49
372.582	20.14
372.792	46.76
373.003	22.19
373.214	75.43
373.424	16.04
373.635	-6.49
373.846	32.43
374.056	40.62
374.267	38.57
374.477	11.95
374.688	50.86
374.898	77.48
375.109	-12.63
375.319	83.63
375.53	13.99
375.74	71.34
375.951	52.91
376.161	-12.63
376.372	36.52
376.582	63.15
376.793	1.71
377.003	26.28
377.214	-6.49
377.424	18.09
377.635	42.67
377.845	-4.44
378.055	79.53
378.266	110.25
378.476	73.39
378.686	38.57
378.897	83.63
379.107	38.57
379.317	89.77
379.528	-12.63
379.738	77.48
379.948	57
380.158	95.91
380.369	-14.68
380.579	36.52
380.789	22.19
380.999	44.71
381.21	61.1
381.42	9.9
381.63	24.23
381.84	63.15
382.05	40.62
382.261	46.76
382.471	46.76
382.681	28.33
382.891	34.47
383.101	69.29
383.311	26.28
383.521	87.72
383.731	30.38
383.941	28.33
384.151	59.05
384.361	-12.63
384.571	57
384.781	110.25
384.991	91.82
385.201	110.25
385.411	28.33
385.621	108.2
385.831	91.82
386.041	87.72
386.251	-41.3
386.461	83.63
386.671	50.86
386.881	30.38
387.091	18.09
387.301	69.29
387.511	87.72
387.72	122.54
387.93	104.11
388.14	87.72
388.35	5.8
388.56	77.48
388.769	69.29
388.979	32.43
389.189	-4.44
389.399	100.01
389.609	114.34
389.818	77.48
390.028	59.05
390.238	36.52
390.447	38.57
390.657	38.57
390.867	42.67
391.076	59.05
391.286	100.01
391.496	32.43
391.705	75.43
391.915	104.11
392.125	28.33
392.334	61.1
392.544	95.91
392.753	28.33
392.963	36.52
393.172	65.19
393.382	57
393.591	73.39
393.801	5.8
394.01	69.29
394.22	69.29
394.429	52.91
394.639	-0.34
394.848	130.73
395.058	81.58
395.267	28.33
395.477	52.91
395.686	91.82
395.895	136.87
396.105	100.01
396.314	11.95
396.524	124.58
396.733	77.48
396.942	108.2
397.152	52.91
397.361	124.58
397.57	50.86
397.78	95.91
397.989	153.26
398.198	63.15
398.407	69.29
398.617	22.19
398.826	95.91
399.035	32.43
399.244	50.86
399.453	93.87
399.663	81.58
399.872	28.33
400.081	65.19
400.29	83.63
400.499	24.23
400.708	93.87
400.917	50.86
401.127	130.73
401.336	75.43
401.545	136.87
401.754	77.48
401.963	81.58
402.172	36.52
402.381	44.71
402.59	71.34
402.799	83.63
403.008	136.87
403.217	93.87
403.426	93.87
403.635	65.19
403.844	61.1
404.053	40.62
404.262	73.39
404.471	155.3
404.68	145.06
404.888	71.34
405.097	61.1
405.306	132.78
405.515	75.43
405.724	112.3
405.933	173.74
406.142	89.77
406.35	167.59
406.559	151.21
406.768	159.4
406.977	255.65
407.185	192.17
407.394	149.16
407.603	138.92
407.812	224.94
408.02	257.7
408.229	210.6
408.438	192.17
408.646	224.94
408.855	200.36
409.064	214.7
409.272	151.21
409.481	272.04
409.69	212.65
409.898	288.42
410.107	202.41
410.315	294.57
410.524	130.73
410.733	304.81
410.941	257.7
411.15	337.57
411.358	253.61
411.567	356.01
411.775	253.61
411.984	327.33
412.192	274.09
412.401	347.81
412.609	425.64
412.818	335.53
413.026	366.25
413.234	452.26
413.443	421.54
413.651	399.01
413.86	403.11
414.068	503.46
414.276	431.78
414.485	501.41
414.693	493.22
414.901	558.75
415.11	499.36
415.318	560.8
415.526	628.39
415.734	634.53
415.943	652.96
416.151	624.29
416.359	677.54
416.567	624.29
416.776	700.06
416.984	736.93
417.192	814.75
417.4	741.02
417.608	849.57
417.817	863.9
418.025	865.95
418.233	941.72
418.441	851.61
418.649	876.19
418.857	906.91
419.065	1040.03
419.273	1085.08
419.481	1162.9
419.689	1072.79
419.897	1169.05
420.105	1212.06
420.313	1236.63
420.521	1265.3
420.729	1339.03
420.937	1355.41
421.145	1326.74
421.353	1484.44
421.561	1431.19
421.769	1554.07
421.977	1683.09
422.185	1531.54
422.393	1662.61
422.601	1783.44
422.809	1863.31
423.017	1898.13
423.224	1836.69
423.432	1986.19
423.64	2045.58
423.848	2141.83
424.056	2154.12
424.263	2180.75
424.471	2227.85
424.679	2365.06
424.887	2526.85
425.094	2483.84
425.302	2461.32
425.51	2680.45
425.718	2657.92
425.925	2752.13
426.133	2748.03
426.341	2987.65
426.548	3006.08
426.756	3227.26
426.964	3092.09
427.171	3192.44
427.379	3387
427.586	3458.68
427.794	3532.4
428.001	3671.67
428.209	3849.84
428.417	3739.25
428.624	4064.88
428.832	3995.25
429.039	4034.16
429.247	4083.31
429.454	4527.72
429.662	4701.79
429.869	4417.13
430.076	4904.54
430.284	4707.94
430.491	4902.5
430.699	5013.09
430.906	5086.81
431.114	5125.72
431.321	5256.79
431.528	5461.59
431.736	5654.1
431.943	6002.26
432.15	5957.2
432.358	5942.86
432.565	6219.34
432.772	6286.92
432.979	6592.07
433.187	6700.61
433.394	6899.27
433.601	6991.42
433.808	7177.79
434.016	7175.74
434.223	7519.8
434.43	7857.71
434.637	7626.29
434.844	8099.38
435.052	8465.96
435.259	8312.36
435.466	8504.87
435.673	8248.88
435.88	8754.73
436.087	9195.04
436.294	9256.48
436.501	9219.61
436.708	9096.74
436.915	9510.43
437.122	9993.75
437.329	9840.15
437.537	10157.58
437.743	10575.37
437.95	10444.3
438.157	11005.44
438.364	11298.3
438.571	11146.75
438.778	11372.03
438.985	12629.48
439.192	11867.64
439.399	12178.93
439.606	11935.22
439.813	12582.38
440.02	13276.64
440.227	13338.08
440.433	13123.04
440.64	13655.51
440.847	13651.42
441.054	13751.77
441.261	14652.88
441.467	14630.35
441.674	14955.97
441.881	15427.01
442.088	15082.95
442.294	15189.44
442.501	15562.17
442.708	15621.56
442.914	16453.04
443.121	16969.13
443.328	16467.38
443.534	17892.76
443.741	17245.6
443.948	16981.42
444.154	18521.49
444.361	18054.55
444.568	18263.44
444.774	18275.73
444.981	18369.94
445.187	19027.34
445.394	19858.81
445.6	19522.94
445.807	21783.9
446.013	20768.11
446.22	21075.31
446.426	21695.84
446.633	21781.85
446.839	22717.78
447.046	21517.67
447.252	22666.58
447.459	23086.41
447.665	22900.05
447.871	23432.52
448.078	24603.96
448.284	23485.76
448.491	24288.57
448.697	25238.83
448.903	25605.41
449.11	25978.14
449.316	24976.69
449.522	25705.76
449.728	26547.48
449.935	26889.49
450.141	26572.05
450.347	26883.34
450.553	26418.46
450.76	26555.67
450.966	27358.47
451.172	27077.9
451.378	27473.16
451.584	26936.59
451.791	27608.33
451.997	27522.31
452.203	28069.12
452.409	28298.49
452.615	28585.21
452.821	26776.85
453.027	26674.45
453.233	28120.32
453.44	26879.25
453.646	27331.85
453.852	27370.76
454.058	27825.41
454.264	26404.12
454.47	27262.22
454.676	26664.21
454.882	27501.83
455.088	25077.04
455.294	25564.45
455.5	25716
455.705	26178.84
455.911	25310.5
456.117	24282.42
456.323	24200.51
456.529	22721.87
456.735	23973.18
456.941	23223.62
457.147	22959.44
457.352	22173.02
457.558	21742.94
457.764	22089.05
457.97	21509.47
458.176	20886.89
458.381	20870.51
458.587	20010.36
458.793	19873.15
458.999	18916.75
459.204	20243.83
459.41	19850.62
459.616	18376.08
459.821	18251.16
460.027	18120.09
460.233	17868.19
460.438	16971.18
460.644	17143.21
460.85	16465.33
461.055	15957.43
461.261	16248.24
461.466	14939.59
461.672	14503.37
461.878	15437.25
462.083	14888.39
462.289	14253.52
462.494	13897.17
462.7	13520.35
462.905	13051.36
463.111	13471.2
463.316	13786.58
463.522	13401.57
463.727	13477.34
463.932	13198.82
464.138	13348.32
464.343	13086.18
464.549	12985.83
464.754	13313.5
464.959	13227.49
465.165	13143.52
465.37	12565.99
465.575	12189.17
465.781	12846.57
465.986	12932.58
466.191	12385.77
466.397	12070.39
466.602	11347.45
466.807	11955.7
467.012	11769.34
467.218	11787.77
467.423	11574.78
467.628	11812.34
467.833	12207.6
468.038	11881.97
468.244	11681.27
468.449	12072.43
468.654	11476.48
468.859	11628.03
469.064	11396.6
469.269	11036.16
469.474	10976.77
469.679	11202.05
469.885	11003.39
470.09	11093.51
470.295	10884.61
470.5	10849.8
470.705	10688.01
470.91	10475.02
471.115	10384.91
471.32	10483.21
471.525	10509.83
471.73	10204.69
471.935	10219.02
472.139	9692.69
472.344	10018.32
472.549	10077.71
472.754	9647.64
472.959	9592.34
473.164	9463.32
473.369	9375.26
473.574	9600.54
473.778	9491.99
473.983	9408.03
474.188	9336.35
474.393	9008.67
474.598	9244.19
474.802	8795.68
475.007	8871.46
475.212	9035.3
475.417	8640.04
475.621	8631.85
475.826	8490.54
476.031	8420.91
476.235	8357.42
476.44	8369.71
476.645	8248.88
476.849	8308.27
477.054	8117.81
477.259	8015.41
477.463	7962.16
477.668	7704.12
477.872	7984.69
478.077	7716.4
478.282	7577.14
478.486	7636.53
478.691	7495.22
478.895	7382.59
479.1	7480.89
479.304	7478.84
479.509	7218.75
479.713	7288.38
479.918	7421.5
480.122	7061.05
480.326	7226.94
480.531	7040.58
480.735	7052.86
480.94	7067.2
481.144	7190.08
481.348	7099.97
481.553	6972.99
481.757	6815.3
481.961	7020.1
482.166	6942.27
482.37	7142.97
482.574	6723.14
482.778	6760
482.983	7042.62
483.187	6913.6
483.391	7089.73
483.595	6983.23
483.8	6739.52
484.004	6755.91
484.208	6999.62
484.412	6938.18
484.616	6929.98
484.821	6815.3
485.025	6776.39
485.229	6805.06
485.433	6688.32
485.637	6907.46
485.841	6696.52
486.045	6772.29
486.249	6717
486.453	6798.91
486.657	6938.18
486.861	6989.38
487.065	6821.44
487.269	6741.57
487.473	6835.78
487.677	6858.31
487.881	6942.27
488.085	6827.59
488.289	6862.4
488.493	6731.33
488.697	6788.68
488.901	7024.19
489.105	6909.51
489.309	6893.12
489.512	6907.46
489.716	7112.25
489.92	6934.08
490.124	6979.14
490.328	6850.11
490.531	6866.5
490.735	6917.7
490.939	7087.68
491.143	6929.98
491.346	7007.81
491.55	6919.75
491.754	7038.53
491.958	7183.93
492.161	7097.92
492.365	7226.94
492.569	7335.48
492.772	7085.63
492.976	7398.97
493.18	7290.43
493.383	7308.86
493.587	7269.95
493.79	7564.86
493.994	7503.42
494.197	7663.16
494.401	7423.55
494.605	7753.27
494.808	7763.51
495.012	7790.13
495.215	7726.64
495.419	7822.9
495.622	7947.83
495.825	7972.4
496.029	8050.22
496.232	7974.45
496.436	8072.75
496.639	8177.2
496.843	8265.26
497.046	8465.96
497.249	8402.47
497.453	8576.55
497.656	8625.7
497.859	8627.75
498.063	8558.12
498.266	8900.13
498.469	8783.4
498.673	9020.96
498.876	9104.93
499.079	9293.34
499.282	9176.61
499.485	9356.83
499.689	9526.81
499.892	9508.38
500.095	9606.68
500.298	9774.61
500.501	9870.87
500.705	9991.7
500.908	10145.3
501.111	10212.88
501.314	10452.49
501.517	10421.77
501.72	10655.24
501.923	10536.46
502.126	10741.25
502.329	10796.55
502.532	10921.48
502.735	11087.36
502.938	11345.41
503.141	11304.45
503.344	11537.91
503.547	11537.91
503.75	11810.29
503.953	11773.43
504.156	11779.57
504.359	11992.56
504.562	12000.76
504.765	12563.95
504.968	12418.54
505.17	12676.59
505.373	12625.39
505.576	12865
505.779	13071.84
505.982	13100.51
506.185	13299.17
506.387	13376.99
506.59	13450.72
506.793	13897.17
506.996	13725.15
507.198	14097.88
507.401	14028.24
507.604	14314.96
507.807	14351.82
508.009	14605.77
508.212	14464.46
508.415	14794.18
508.617	14945.73
508.82	15304.13
509.022	14888.39
509.225	15834.55
509.428	15527.36
509.63	15824.31
509.833	15736.25
510.035	15969.72
510.238	15953.34
510.44	16168.37
510.643	16690.6
510.845	16584.11
511.048	16311.73
511.25	16809.39
511.453	17141.16
511.655	17401.25
511.858	17208.74
512.06	17419.68
512.262	17704.35
512.465	17620.38
512.667	18050.46
512.87	18185.62
513.072	18402.71
513.274	18576.78
513.477	18576.78
513.679	18701.71
513.881	18984.33
514.084	19025.29
514.286	19484.03
514.488	19377.54
514.69	20217.21
514.893	20143.48
515.095	20231.54
515.297	20335.99
515.499	20436.34
515.701	20538.74
515.904	21048.68
516.106	21302.63
516.308	21433.7
516.51	21556.58
516.712	21486.95
516.914	21914.97
517.116	21781.85
517.318	22486.36
517.52	22254.94
517.722	22664.53
517.925	22932.81
518.127	23002.44
518.329	23235.91
518.531	23049.55
518.733	23743.81
518.935	23768.38
519.136	23510.34
519.338	24360.25
519.54	24128.83
519.742	24563
519.944	24638.77
520.146	24982.83
520.348	25365.8
520.55	25322.79
520.752	25304.36
520.954	25869.6
521.155	25617.7
521.357	25849.12
521.559	25961.76
521.761	26512.66
521.963	26602.77
522.164	26877.2
522.366	26983.69
522.568	26952.98
522.77	27428.1
522.971	27745.54
523.173	27405.58
523.375	27675.91
523.576	27827.46
523.778	28204.28
523.98	28495.1
524.181	28308.73
524.383	28624.12
524.584	28839.15
524.786	28919.03
524.988	28722.42
525.189	28982.51
525.391	29121.77
525.592	29625.57
525.794	29787.36
525.995	29613.29
526.197	30102.75
526.398	30008.54
526.6	30354.65
526.801	30508.25
527.003	30459.1
527.204	30356.7
527.406	30762.2
527.607	30588.12
527.808	30643.42
528.01	30391.51
528.211	30620.89
528.412	31366.35
528.614	31378.64
528.815	31323.34
529.016	31354.06
529.218	31313.1
529.419	31288.53
529.62	31761.61
529.822	31438.03
530.023	31659.21
530.224	31395.02
530.425	31628.49
530.626	31425.74
530.828	31524.04
531.029	32103.62
531.23	31952.07
531.431	32005.31
531.632	32271.55
531.833	31990.98
532.035	32158.91
532.236	32214.21
532.437	32238.78
532.638	31986.88
532.839	32238.78
533.04	32214.21
533.241	31823.05
533.442	32457.92
533.643	32433.34
533.844	32281.79
534.045	32302.27
534.246	32253.12
534.447	32539.83
534.648	32482.49
534.849	32466.11
535.05	32314.56
535.251	32609.47
535.451	32457.92
535.652	32984.24
535.853	32851.13
536.054	32576.7
536.255	32812.21
536.456	32206.02
536.657	32820.41
536.857	32525.5
537.058	32349.37
537.259	33006.77
537.46	32683.19
537.66	32605.37
537.861	32826.55
538.062	32300.22
538.263	32855.22
538.463	32404.67
538.664	32816.31
538.865	32488.63
539.065	32978.1
539.266	32509.11
539.466	33035.44
539.667	32322.75
539.868	32707.77
540.068	32675
540.269	32654.52
540.469	32996.53
540.67	32644.28
540.87	32142.53
541.071	32384.19
541.271	32996.53
541.472	32818.36
541.672	32486.59
541.873	32662.71
542.073	32328.89
542.274	32773.3
542.474	32552.12
542.675	32087.23
542.875	32689.34
543.075	32195.78
543.276	32099.52
543.476	32814.26
543.676	32226.49
543.877	32556.22
544.077	32083.14
544.277	32453.82
544.478	32486.59
544.678	32341.18
544.878	32523.45
545.078	32597.18
545.279	32117.95
545.479	32363.71
545.679	32603.32
545.879	32310.46
546.079	32173.25
546.28	32187.58
546.48	32191.68
546.68	32537.79
546.88	32443.58
547.08	32715.96
547.28	32242.88
547.48	32036.03
547.68	32867.51
547.88	31884.48
548.081	32492.73
548.281	32240.83
548.481	32160.96
548.681	32455.87
548.881	32163.01
549.081	32109.76
549.28	32249.02
549.48	32369.85
549.68	31902.92
549.88	32799.93
550.08	32019.65
550.28	32548.03
550.48	31921.35
550.68	31933.64
550.88	31888.58
551.08	32138.43
551.279	32038.08
551.479	31765.7
551.679	31831.24
551.879	31655.11
552.079	32556.22
552.278	31913.16
552.478	32173.25
552.678	32044.23
552.878	32011.46
553.077	31857.86
553.277	31669.45
553.477	32236.73
553.676	32003.27
553.876	32079.04
554.076	31429.84
554.275	31554.76
554.475	31401.16
554.674	31677.64
554.874	31653.06
555.074	31691.98
555.273	31700.17
555.473	31452.36
555.672	31405.26
555.872	31364.3
556.071	31296.72
556.271	31788.23
556.47	31528.14
556.67	31253.71
556.869	31433.93
557.068	31202.51
557.268	31171.79
557.467	31296.72
557.667	31073.49
557.866	31208.65
558.065	30657.75
558.265	30821.59
558.464	30870.74
558.663	31290.57
558.863	30395.61
559.062	31169.74
559.261	30868.69
559.461	31347.92
559.66	30504.15
559.859	30799.06
560.058	30624.98
560.258	30663.89
560.457	30362.84
560.656	30604.5
560.855	30282.97
561.054	30352.6
561.253	30127.33
561.453	30373.08
561.652	30411.99
561.851	30545.11
562.05	29932.77
562.249	29748.45
562.448	30065.89
562.647	30067.94
562.846	30205.15
563.045	29785.32
563.244	29459.69
563.443	29750.5
563.642	29476.07
563.841	29510.89
564.04	29277.42
564.239	29637.86
564.438	29486.31
564.637	29578.47
564.836	29328.62
565.035	29375.72
565.234	28992.75
565.432	29033.71
565.631	28972.27
565.83	29089.01
566.029	29105.39
566.228	28972.27
566.427	28603.64
566.625	28816.63
566.824	28386.55
567.023	28843.25
567.222	28161.28
567.42	28675.32
567.619	28380.41
567.818	28357.88
568.016	28124.41
568.215	28294.39
568.414	28022.02
568.612	28226.81
568.811	27813.12
569.01	28001.54
569.208	27749.64
569.407	27974.91
569.605	27378.95
569.804	28073.21
570.002	27505.93
570.201	27657.48
570.4	27327.75
570.598	27182.35
570.797	27030.8
570.995	27254.03
571.193	26799.38
571.392	27319.56
571.59	26836.24
571.789	27147.53
571.987	26744.08
572.186	26739.99
572.384	26674.45
572.582	26733.84
572.781	26688.79
572.979	26316.06
573.177	26838.29
573.376	26694.93
573.574	26211.61
573.772	26273.05
573.971	26121.5
574.169	25859.36
574.367	25791.78
574.565	26236.19
574.763	25599.27
574.962	25681.19
575.16	25586.98
575.358	25347.37
575.556	25312.55
575.754	26029.34
575.952	25115.95
576.151	25191.72
576.349	25122.09
576.547	24962.35
576.745	25273.64
576.943	25394.47
577.141	24706.35
577.339	25066.8
577.537	24862
577.735	24790.32
577.933	24628.53
578.131	24765.74
578.329	24534.32
578.527	24360.25
578.725	24446.26
578.923	24479.03
579.121	24505.65
579.319	24407.35
579.516	24159.55
579.714	24601.91
579.912	24288.57
580.11	24182.07
580.308	23985.47
580.506	23983.42
580.704	23649.6
580.901	23852.35
581.099	23676.23
581.297	23868.73
581.495	23346.5
581.692	23936.32
581.89	23375.17
582.088	23586.11
582.285	23395.65
582.483	23430.47
582.681	23383.37
582.878	23174.47
583.076	22938.96
583.274	23211.34
583.471	22766.93
583.669	23035.21
583.866	22650.19
584.064	23143.75
584.262	22291.8
584.459	22738.26
584.657	22717.78
584.854	22871.37
585.052	22107.48
585.249	22402.39
585.447	22410.58
585.644	22136.15
585.841	22142.3
586.039	22218.07
586.236	21960.03
586.434	21865.82
586.631	21884.25
586.828	21820.77
587.026	22136.15
587.223	21615.97
587.42	21894.49
587.618	21734.75
587.815	21597.54
588.012	21298.53
588.21	21386.6
588.407	21837.15
588.604	21120.36
588.801	21214.57
588.999	21345.64
589.196	21233
589.393	21071.21
589.59	20858.22
589.787	20991.34
589.984	20804.97
590.182	20888.94
590.379	20950.38
590.576	20573.55
590.773	20514.16
590.97	20436.34
591.167	20598.13
591.364	20372.85
591.561	20587.89
591.758	20024.7
591.955	20182.39
592.152	20389.24
592.349	20010.36
592.546	20006.27
592.743	19932.54
592.94	19793.28
593.137	19875.2
593.334	19991.93
593.531	19805.56
593.727	19801.47
593.924	19770.75
594.121	19484.03
594.318	19559.81
594.515	19348.87
594.712	19584.38
594.908	19619.2
595.105	19172.74
595.302	19170.69
595.499	19236.23
595.696	19457.41
595.892	18929.03
596.089	19008.9
596.286	19013
596.482	19031.43
596.679	19088.78
596.876	19006.86
597.072	18871.69
597.269	18902.41
597.466	18576.78
597.662	18441.62
597.859	18605.45
598.055	18544.02
598.252	18394.51
598.448	18316.69
598.645	18318.74
598.841	18044.31
599.038	18318.74
599.234	18204.05
599.431	18257.3
599.627	17937.82
599.824	17933.72
600.02	17892.76
600.217	17784.22
600.413	17853.85
600.609	17839.51
600.806	17552.8
601.002	17933.72
601.198	17558.94
601.395	17612.19
601.591	17540.51
601.787	17831.32
601.984	17450.4
602.18	17735.07
602.376	17118.63
602.572	17341.86
602.769	17239.46
602.965	16950.7
603.161	17188.26
603.357	17026.47
603.553	16991.66
603.75	16833.96
603.946	16739.76
604.142	16852.39
604.338	16387.5
604.534	16752.04
604.73	16811.43
604.926	16498.09
605.122	16676.27
605.318	16586.16
605.514	16426.42
605.71	16457.14
605.906	16268.72
606.102	16328.11
606.298	16321.97
606.494	16203.19
606.69	16385.46
606.886	16475.57
607.082	15992.25
607.278	16238
607.474	15852.98
607.67	16119.22
607.866	15898.04
608.062	16199.09
608.257	15979.96
608.453	15990.2
608.649	15939
608.845	15756.73
609.041	15797.69
609.236	15947.19
609.432	15420.86
609.628	15785.4
609.824	15605.18
610.019	15680.96
610.215	15410.62
610.411	15578.56
610.606	15470.01
610.802	15343.04
610.998	15326.66
611.193	15504.83
611.389	15347.14
611.584	15338.94
611.78	15275.46
611.976	15328.7
612.171	15330.75
612.367	15044.04
612.562	15211.97
612.758	14816.71
612.953	14908.87
613.149	14986.69
613.344	14863.82
613.539	15130.05
613.735	14964.17
613.93	15177.16
614.126	14745.03
614.321	15035.85
614.517	14779.85
614.712	14667.21
614.907	14695.88
615.103	14878.15
615.298	14839.24
615.493	14917.06
615.688	14536.14
615.884	15017.41
616.079	14370.26
616.274	14478.8
616.47	14636.49
616.665	14378.45
616.86	14276.05
617.055	14310.86
617.25	14542.28
617.445	14413.26
617.641	14142.93
617.836	14384.59
618.031	14110.16
618.226	14087.64
618.421	14187.99
618.616	14308.82
618.811	13868.5
619.006	14253.52
619.201	13917.65
619.396	14167.51
619.591	13757.91
619.786	13690.33
619.981	13688.28
620.176	13948.37
620.371	13632.99
620.566	13575.64
620.761	13587.93
620.956	13645.27
621.151	13446.62
621.346	13524.44
621.541	12957.16
621.735	13389.28
621.93	13182.43
622.125	13147.62
622.32	12848.61
622.515	13004.26
622.709	12875.24
622.904	12760.55
623.099	12828.13
623.294	12836.33
623.488	12852.71
623.683	12502.51
623.878	12512.75
624.072	12635.63
624.267	12486.12
624.462	12256.75
624.656	12183.02
624.851	12221.94
625.046	12107.25
625.24	12060.15
625.435	12150.26
625.629	12078.58
625.824	11894.26
626.018	11783.67
626.213	11449.85
626.407	11488.76
626.602	11607.55
626.796	11552.25
626.991	11556.35
627.185	11501.05
627.38	11300.35
627.574	11388.41
627.768	11187.71
627.963	10886.66
628.157	11032.07
628.352	11089.41
628.546	10960.39
628.74	11103.75
628.935	10989.06
629.129	10788.36
629.323	10712.58
629.517	10661.38
629.712	10690.06
629.906	10819.08
630.1	10554.89
630.294	10554.89
630.489	10604.04
630.683	10311.18
630.877	10307.09
631.071	10204.69
631.265	10444.3
631.459	10165.78
631.653	10087.95
631.848	10352.14
632.042	9969.17
632.236	10077.71
632.43	9920.02
632.624	9975.31
632.818	9827.86
633.012	9874.96
633.206	9655.83
633.4	9635.35
633.594	9389.6
633.788	9557.53
633.982	9508.38
634.176	9416.22
634.369	9178.65
634.563	9287.2
634.757	9330.2
634.951	9360.92
635.145	9268.77
635.339	9219.61
635.533	8961.57
635.726	9043.49
635.92	8998.43
636.114	8861.22
636.308	8885.8
636.501	8908.32
636.695	8885.8
636.889	8683.05
637.083	8611.37
637.276	8769.06
637.47	8713.77
637.664	8650.28
637.857	8715.81
638.051	8726.05
638.244	8195.63
638.438	8590.89
638.632	8216.11
638.825	8455.72
639.019	8252.97
639.212	8416.81
639.406	8431.15
639.599	8113.71
639.793	8334.89
639.986	8025.65
640.18	8060.46
640.373	8156.72
640.567	7673.4
640.76	8037.94
640.954	7790.13
641.147	7657.01
641.34	7771.7
641.534	7898.67
641.727	7812.66
641.92	7657.01
642.114	7626.29
642.307	7753.27
642.5	7728.69
642.694	7329.34
642.887	7347.77
643.08	7403.07
643.273	7235.13
643.467	7388.73
643.66	7333.43
643.853	7302.72
644.046	7161.41
644.239	7163.45
644.432	7079.49
644.626	7251.52
644.819	6831.68
645.012	7204.41
645.205	7016
645.398	6938.18
645.591	6819.39
645.784	6868.55
645.977	6835.78
646.17	6800.96
646.363	6708.8
646.556	6602.31
646.749	6602.31
646.942	6614.6
647.135	6563.4
647.328	6614.6
647.521	6567.49
647.714	6473.29
647.907	6475.34
648.099	6368.84
648.292	6438.47
648.485	6438.47
648.678	6266.44
648.871	6362.7
649.064	6401.61
649.256	6266.44
649.449	6260.3
649.642	6176.33
649.835	6039.12
650.027	5985.87
650.22	6180.43
650.413	6057.55
650.605	5936.72
650.798	5987.92
650.991	5815.89
651.183	6053.45
651.376	5961.3
651.568	6006.35
651.761	5830.23
651.954	5807.7
652.146	5762.64
652.339	5867.09
652.531	5787.22
652.724	5652.05
652.916	5553.75
653.109	5723.73
653.301	5627.48
653.494	5729.88
653.686	5328.47
653.879	5498.45
654.071	5443.16
654.263	5529.17
654.456	5547.61
654.648	5480.02
654.84	5367.38
655.033	5369.43
655.225	5465.69
655.417	5455.45
655.61	5271.13
655.802	5221.98
655.994	5191.26
656.186	5189.21
656.379	5129.82
656.571	5262.94
656.763	5107.29
656.955	5191.26
657.148	5172.83
657.34	5078.62
657.532	4918.88
657.724	5029.47
657.916	5006.94
658.108	4890.21
658.3	4896.35
658.492	5025.37
658.684	4802.15
658.876	4896.35
659.068	4890.21
659.26	4701.79
659.452	4796
659.644	4752.99
659.836	4666.98
660.028	4681.32
660.22	4601.44
660.412	4691.56
660.604	4644.45
660.796	4628.07
660.988	4628.07
661.18	4685.41
661.372	4550.25
661.563	4427.37
661.755	4441.7
661.947	4470.37
662.139	4308.58
662.331	4492.9
662.522	4365.93
662.714	4337.26
662.906	4392.55
663.097	4462.18
663.289	4290.15
663.481	4310.63
663.673	4271.72
663.864	4406.89
664.056	4136.56
664.247	4202.09
664.439	4204.14
664.631	4126.32
664.822	4103.79
665.014	4167.28
665.205	4103.79
665.397	4060.78
665.588	4130.41
665.78	4046.44
665.971	3985.01
666.163	4044.4
666.354	3997.29
666.546	3929.71
666.737	4034.16
666.929	3964.53
667.12	3767.92
667.311	3784.3
667.503	3759.73
667.694	3956.33
667.885	3894.9
668.077	3825.26
668.268	3853.94
668.459	3757.68
668.651	3722.87
668.842	3767.92
669.033	3702.39
669.224	3790.45
669.416	3669.62
669.607	3761.78
669.798	3696.24
669.989	3683.95
670.18	3569.27
670.371	3587.7
670.563	3638.9
670.754	3581.56
670.945	3655.28
671.136	3526.26
671.327	3573.36
671.518	3585.65
671.709	3659.38
671.9	3528.31
672.091	3534.45
672.282	3294.84
672.473	3403.38
672.664	3499.64
672.855	3554.93
673.046	3501.69
673.237	3450.49
673.428	3548.79
673.619	3415.67
673.809	3401.33
674	3356.28
674.191	3423.86
674.382	3423.86
674.573	3509.88
674.764	3233.4
674.954	3427.96
675.145	3489.4
675.336	3217.02
675.527	3450.49
675.717	3370.62
675.908	3206.78
676.099	3165.82
676.289	3217.02
676.48	3221.11
676.671	3178.11
676.861	3260.02
677.052	3135.1
677.243	3223.16
677.433	3208.83
677.624	3190.39
677.814	3239.55
678.005	3122.81
678.195	3104.38
678.386	3198.59
678.576	3065.47
678.767	3153.53
678.957	3006.08
679.148	3149.43
679.338	3034.75
679.529	3075.71
679.719	3149.43
679.909	3239.55
680.1	3028.6
680.29	3061.37
680.481	3137.15
680.671	3012.22
680.861	3106.43
681.052	3202.68
681.242	3061.37
681.432	3157.63
681.622	2991.74
681.813	3083.9
682.003	3051.13
682.193	3094.14
682.383	3104.38
682.573	2991.74
682.764	3083.9
682.954	2973.31
683.144	3030.65
683.334	2981.5
683.524	2967.17
683.714	2889.34
683.904	2924.16
684.094	3038.84
684.284	2967.17
684.474	3001.98
684.664	3051.13
684.854	2975.36
685.044	2956.93
685.234	2889.34
685.424	2952.83
685.614	2850.43
685.804	2907.77
685.994	2928.25
686.184	2926.21
686.374	2901.63
686.564	2776.7
686.753	2883.2
686.943	2832
687.133	2838.14
687.323	2705.03
687.513	2821.76
687.702	2928.25
687.892	2868.86
688.082	2815.62
688.272	2723.46
688.461	2782.85
688.651	2791.04
688.841	2682.5
689.03	2715.27
689.22	2786.94
689.41	2768.51
689.599	2748.03
689.789	2637.44
689.979	2498.18
690.168	2668.16
690.358	2662.02
690.547	2647.68
690.737	2715.27
690.926	2674.31
691.116	2545.28
691.305	2670.21
691.495	2522.76
691.684	2494.08
691.874	2582.15
692.063	2561.67
692.252	2492.04
692.442	2350.73
692.631	2373.25
692.82	2502.28
693.01	2502.28
693.199	2481.8
693.388	2459.27
693.578	2463.37
693.767	2584.2
693.956	2465.41
694.146	2403.97
694.335	2526.85
694.524	2463.37
694.713	2436.74
694.902	2322.06
695.092	2469.51
695.281	2434.69
695.47	2449.03
695.659	2322.06
695.848	2487.94
696.037	2301.58
696.226	2293.38
696.415	2344.58
696.604	2410.12
696.793	2254.47
696.982	2299.53
697.171	2395.78
697.36	2442.89
697.549	2348.68
697.738	2291.34
697.927	2272.9
698.116	2315.91
698.305	2297.48
698.494	2262.66
698.683	2322.06
698.872	2328.2
699.061	2236.04
699.25	2340.49
699.438	2285.19
699.627	2311.82
699.816	2360.97
700.005	2283.14
700.193	2320.01
700.382	2311.82
700.571	2268.81
700.76	2272.9
700.948	2254.47
701.137	2295.43
701.326	2301.58
701.514	2203.27
701.703	2342.53
701.892	2260.62
702.08	2240.14
702.269	2254.47
702.457	2266.76
702.646	2336.39
702.834	2260.62
703.023	2256.52
703.212	2252.42
703.4	2150.03
703.589	2258.57
703.777	2174.6
703.965	2229.9
704.154	2211.46
704.342	2256.52
704.531	2207.37
704.719	2250.38
704.907	2324.1
705.096	2279.05
705.284	2264.71
705.472	2303.62
705.661	2281.1
705.849	2272.9
706.037	2180.75
706.226	2332.3
706.414	2301.58
706.602	2233.99
706.79	2295.43
706.979	2270.86
707.167	2274.95
707.355	2172.55
707.543	2260.62
707.731	2297.48
707.919	2352.77
708.107	2231.94
708.296	2268.81
708.484	2242.18
708.672	2190.99
708.86	2320.01
709.048	2283.14
709.236	2301.58
709.424	2281.1
709.612	2111.11
709.8	2119.31
709.988	2274.95
710.176	2309.77
710.364	2313.86
710.551	2182.79
710.739	2213.51
710.927	2188.94
711.115	2240.14
711.303	2274.95
711.491	2233.99
711.679	2117.26
711.866	2272.9
712.054	2272.9
712.242	2315.91
712.43	2248.33
712.617	2295.43
712.805	2297.48
712.993	2231.94
713.181	2238.09
713.368	2184.84
713.556	2332.3
713.744	2162.31
713.931	2299.53
714.119	2186.89
714.306	2258.57
714.494	2203.27
714.682	2117.26
714.869	2274.95
715.057	2166.41
715.244	2317.96
715.432	2309.77
715.619	2242.18
715.807	2242.18
715.994	2268.81
716.182	2248.33
716.369	2326.15
716.556	2238.09
716.744	2231.94
716.931	2289.29
717.119	2248.33
717.306	2295.43
717.493	2266.76
717.681	2186.89
717.868	2100.87
718.055	2277
718.242	2309.77
718.43	2313.86
718.617	2246.28
718.804	2295.43
718.991	2199.18
719.179	2248.33
719.366	2295.43
719.553	2268.81
719.74	2297.48
719.927	2252.42
720.114	2317.96
720.301	2315.91
720.488	2215.56
720.676	2240.14
720.863	2260.62
721.05	2334.34
721.237	2174.6
721.424	2283.14
721.611	2291.34
721.798	2305.67
721.985	2254.47
722.172	2188.94
722.358	2246.28
722.545	2242.18
722.732	2238.09
722.919	2270.86
723.106	2272.9
723.293	2238.09
723.48	2178.7
723.667	2240.14
723.853	2250.38
724.04	2311.82
724.227	2305.67
724.414	2213.51
724.6	2186.89
724.787	2315.91
724.974	2303.62
725.161	2295.43
725.347	2217.61
725.534	2424.45
725.72	2160.27
725.907	2115.21
726.094	2360.97
726.28	2152.07
726.467	2270.86
726.653	2258.57
726.84	2270.86
727.027	2406.02
727.213	2186.89
727.4	2190.99
727.586	2211.46
727.773	2309.77
727.959	2231.94
728.145	2195.08
728.332	2258.57
728.518	2023.05
728.705	2180.75
728.891	2344.58
729.077	2354.82
729.264	2254.47
729.45	2350.73
729.636	2406.02
729.823	2248.33
730.009	2303.62
730.195	2264.71
730.382	2334.34
730.568	2227.85
730.754	2299.53
730.94	2274.95
731.126	2287.24
731.313	2221.7
731.499	2354.82
731.685	2301.58
731.871	2346.63
732.057	2266.76
732.243	2262.66
732.429	2203.27
732.615	2197.13
732.801	2303.62
732.987	2158.22
733.173	2164.36
733.359	2233.99
733.545	2223.75
733.731	2301.58
733.917	2334.34
734.103	2350.73
734.289	2332.3
734.475	2250.38
734.661	2233.99
734.847	2223.75
735.033	2240.14
735.219	2229.9
735.404	2287.24
735.59	2182.79
735.776	2221.7
735.962	2250.38
736.148	2412.17
736.333	2225.8
736.519	2256.52
736.705	2250.38
736.89	2309.77
737.076	2131.59
737.262	2307.72
737.447	2305.67
737.633	2264.71
737.819	2193.03
738.004	2285.19
738.19	2166.41
738.375	2225.8
738.561	2244.23
738.747	2197.13
738.932	2264.71
739.118	2203.27
739.303	2205.32
739.489	2281.1
739.674	2229.9
739.859	2164.36
740.045	2227.85
740.23	2150.03
740.416	2084.49
740.601	2174.6
740.786	2182.79
740.972	2164.36
741.157	2078.35
741.342	2045.58
741.528	2236.04
741.713	2158.22
741.898	2119.31
742.084	2145.93
742.269	2244.23
742.454	2172.55
742.639	2127.5
742.824	2107.02
743.01	2102.92
743.195	2162.31
743.38	2092.68
743.565	1963.66
743.75	2188.94
743.935	1947.28
744.12	2002.57
744.305	2096.78
744.49	2008.72
744.675	2084.49
744.86	1916.56
745.045	2049.68
745.23	2068.11
745.415	2047.63
745.6	1951.37
745.785	1896.08
745.97	1988.24
746.155	1965.71
746.34	1865.36
746.525	1996.43
746.71	1908.37
746.895	1953.42
747.079	1896.08
747.264	1832.59
747.449	1883.79
747.634	1857.17
747.819	1793.68
748.003	1822.35
748.188	1871.5
748.373	1777.3
748.557	1775.25
748.742	1863.31
748.927	1787.54
749.111	1754.77
749.296	1783.44
749.481	1842.83
749.665	1750.67
749.85	1681.04
750.034	1713.81
750.219	1730.19
750.404	1799.82
750.588	1681.04
750.773	1652.37
750.957	1631.89
751.141	1697.42
751.326	1699.47
751.51	1627.79
751.695	1603.22
751.879	1597.07
752.064	1572.5
752.248	1603.22
752.432	1599.12
752.617	1523.35
752.801	1595.03
752.985	1566.35
753.17	1533.59
753.354	1494.68
753.538	1556.11
753.722	1562.26
753.907	1509.01
754.091	1531.54
754.275	1511.06
754.459	1494.68
754.643	1423
754.828	1476.24
755.012	1406.61
755.196	1429.14
755.38	1330.84
755.564	1408.66
755.748	1392.28
755.932	1533.59
756.116	1406.61
756.3	1236.63
756.484	1377.94
756.668	1361.56
756.852	1363.61
757.036	1363.61
757.22	1351.32
757.404	1322.65
757.588	1310.36
757.772	1373.85
757.956	1306.26
758.14	1224.34
758.323	1265.3
758.507	1269.4
758.691	1410.71
758.875	1308.31
759.059	1281.69
759.242	1238.68
759.426	1146.52
759.61	1304.21
759.794	1130.14
759.977	1197.72
760.161	1355.41
760.345	1195.67
760.528	1152.67
760.712	1177.24
760.895	1148.57
761.079	1058.46
761.263	1136.28
761.446	1183.38
761.63	1222.3
761.813	1228.44
761.997	1142.43
762.18	1173.14
762.364	1085.08
762.547	1156.76
762.731	1095.32
762.914	1130.14
763.098	1144.47
763.281	1074.84
763.464	1142.43
763.648	1080.99
763.831	1062.55
764.015	1072.79
764.198	1060.51
764.381	1113.75
764.564	1025.69
764.748	1158.81
764.931	1072.79
765.114	982.68
765.297	941.72
765.481	1015.45
765.664	1060.51
765.847	970.4
766.03	1019.55
766.213	1037.98
766.397	1011.36
766.58	954.01
766.763	1011.36
766.946	951.96
767.129	962.2
767.312	986.78
767.495	1113.75
767.678	992.92
767.861	937.63
768.044	986.78
768.227	906.91
768.41	913.05
768.593	956.06
768.776	1029.79
768.959	994.97
769.142	925.34
769.324	978.59
769.507	978.59
769.69	1027.74
769.873	872.09
770.056	1001.12
770.239	935.58
770.421	976.54
770.604	906.91
770.787	833.18
770.97	943.77
771.152	896.67
771.335	894.62
771.518	804.51
771.7	923.29
771.883	863.9
772.066	824.99
772.248	874.14
772.431	919.2
772.613	886.43
772.796	765.6
772.978	816.8
773.161	837.28
773.343	911
773.526	839.33
773.708	810.65
773.891	831.13
774.073	769.69
774.256	810.65
774.438	818.85
774.621	769.69
774.803	769.69
774.985	814.75
775.168	759.46
775.35	775.84
775.532	753.31
775.715	767.65
775.897	730.78
776.079	691.87
776.261	800.41
776.444	749.22
776.626	767.65
776.808	718.5
776.99	681.63
777.173	732.83
777.355	769.69
777.537	720.54
777.719	714.4
777.901	706.21
778.083	710.3
778.265	683.68
778.447	650.91
778.629	612
778.811	605.86
778.993	601.76
779.175	618.15
779.357	673.44
779.539	620.19
779.721	675.49
779.903	683.68
780.085	679.58
780.267	544.42
780.449	579.23
780.631	564.9
780.812	618.15
780.994	646.82
781.176	566.95
781.358	607.91
781.54	601.76
781.721	532.13
781.903	579.23
782.085	585.38
782.267	519.84
782.448	534.18
782.63	495.27
782.812	605.86
782.993	538.27
783.175	523.94
783.357	564.9
783.538	571.04
783.72	568.99
783.901	511.65
784.083	577.19
784.264	519.84
784.446	485.03
784.627	439.97
784.809	548.51
784.99	536.23
785.172	552.61
785.353	511.65
785.535	499.36
785.716	450.21
785.897	528.03
786.079	454.31
786.26	446.12
786.441	511.65
786.623	433.83
786.804	399.01
786.985	442.02
787.167	429.73
787.348	394.92
787.529	421.54
787.71	568.99
787.891	444.07
788.073	384.68
788.254	415.4
788.435	431.78
788.616	470.69
788.797	368.29
788.978	433.83
789.159	370.34
789.34	372.39
789.522	450.21
789.703	429.73
789.884	380.58
790.065	388.77
790.246	317.09
790.427	456.36
790.607	366.25
790.788	482.98
790.969	419.49
791.15	380.58
791.331	356.01
791.512	349.86
791.693	349.86
791.874	345.77
792.054	442.02
792.235	396.96
792.416	349.86
792.597	308.9
792.778	282.28
792.958	433.83
793.139	356.01
793.32	349.86
793.5	214.7
793.681	339.62
793.862	315.05
794.042	331.43
794.223	278.18
794.404	302.76
794.584	286.37
794.765	269.99
794.945	310.95
795.126	276.13
795.306	351.91
795.487	368.29
795.667	321.19
795.848	335.53
796.028	378.53
796.209	356.01
796.389	396.96
796.57	296.61
796.75	267.94
796.93	306.85
797.111	329.38
797.291	274.09
797.471	356.01
797.652	317.09
797.832	235.18
798.012	321.19
798.192	220.84
798.373	278.18
798.553	186.02
798.733	339.62
798.913	313
799.093	358.05
799.274	214.7
799.454	220.84
799.634	237.22
799.814	247.46
799.994	229.03
800.174	317.09
800.354	229.03
800.534	237.22
800.714	237.22
800.894	286.37
801.074	202.41
801.254	333.48
801.434	233.13
801.614	226.98
801.794	237.22
801.974	521.89
802.154	315.05
802.334	204.46
802.514	237.22
802.693	310.95
802.873	272.04
803.053	276.13
803.233	222.89
803.413	181.93
803.592	181.93
803.772	210.6
803.952	206.5
804.131	269.99
804.311	243.37
804.491	214.7
804.67	183.98
804.85	229.03
805.03	167.59
805.209	220.84
805.389	243.37
805.568	194.22
805.748	212.65
805.928	161.45
806.107	159.4
806.287	122.54
806.466	226.98
806.646	190.12
806.825	251.56
807.004	155.3
807.184	204.46
807.363	276.13
807.543	265.89
807.722	323.24
807.901	204.46
808.081	204.46
808.26	169.64
808.439	192.17
808.619	239.27
808.798	116.39
808.977	261.8
809.156	175.78
809.336	208.55
809.515	173.74
809.694	159.4
809.873	157.35
810.052	265.89
810.231	226.98
810.411	181.93
810.59	257.7
810.769	165.54
810.948	241.32
811.127	124.58
811.306	106.15
811.485	208.55
811.664	183.98
811.843	134.82
812.022	198.31
812.201	143.02
812.38	132.78
812.559	206.5
812.737	212.65
812.916	120.49
813.095	194.22
813.274	161.45
813.453	153.26
813.632	151.21
813.811	108.2
813.989	75.43
814.168	206.5
814.347	153.26
814.526	108.2
814.704	173.74
814.883	226.98
815.062	151.21
815.24	79.53
815.419	91.82
815.598	97.96
815.776	130.73
815.955	106.15
816.133	159.4
816.312	200.36
816.49	65.19
816.669	249.51
816.847	206.5
817.026	194.22
817.204	157.35
817.383	122.54
817.561	75.43
817.74	91.82
817.918	212.65
818.097	163.5
818.275	122.54
818.453	120.49
818.632	114.34
818.81	97.96
818.988	100.01
819.167	169.64
819.345	165.54
819.523	118.44
819.701	151.21
819.879	136.87
820.058	179.88
820.236	134.82
820.414	173.74
820.592	161.45
820.77	120.49
820.948	97.96
821.127	91.82
821.305	145.06
821.483	102.06
821.661	124.58
821.839	143.02
822.017	73.39
822.195	153.26
822.373	157.35
822.551	120.49
822.729	81.58
822.907	159.4
823.085	194.22
823.262	116.39
823.44	181.93
823.618	89.77
823.796	143.02
823.974	177.83
824.152	106.15
824.329	126.63
824.507	81.58
824.685	153.26
824.863	171.69
825.04	136.87
825.218	159.4
825.396	83.63
825.574	157.35
825.751	132.78
825.929	112.3
826.107	220.84
826.284	143.02
826.462	73.39
826.639	114.34
826.817	28.33
826.994	85.67
827.172	102.06
827.349	112.3
827.527	126.63
827.704	69.29
827.882	52.91
828.059	165.54
828.237	106.15
828.414	145.06
828.591	18.09
828.769	206.5
828.946	83.63
829.124	106.15
829.301	153.26
829.478	157.35
829.655	108.2
829.833	136.87
830.01	73.39
830.187	124.58
830.364	20.14
830.542	46.76
830.719	67.24
830.896	153.26
831.073	20.14
831.25	77.48
831.427	77.48
831.604	155.3
831.782	59.05
831.959	104.11
832.136	89.77
832.313	114.34
832.49	81.58
832.667	79.53
832.844	112.3
833.021	40.62
833.198	128.68
833.374	118.44
833.551	34.47
833.728	143.02
833.905	104.11
834.082	85.67
834.259	24.23
834.436	149.16
834.612	85.67
834.789	102.06
834.966	102.06
835.143	93.87
835.319	38.57
835.496	122.54
835.673	11.95
835.85	116.39
836.026	34.47
836.203	106.15
836.38	93.87
836.556	57
836.733	65.19
836.909	138.92
837.086	61.1
837.262	3.75
837.439	42.67
837.616	30.38
837.792	-2.39
837.968	20.14
838.145	18.09
838.321	183.98
838.498	85.67
838.674	87.72
838.851	32.43
839.027	73.39
839.203	52.91
839.38	110.25
839.556	67.24
839.732	100.01
839.909	153.26
840.085	81.58
840.261	36.52
840.437	69.29
840.614	28.33
840.79	120.49
840.966	63.15
841.142	95.91
841.318	77.48
841.494	91.82
841.671	18.09
841.847	-4.44
842.023	20.14
842.199	77.48
842.375	81.58
842.551	3.75
842.727	-16.73
842.903	54.95
843.079	-6.49
843.255	48.81
843.431	42.67
843.607	93.87
843.783	40.62
843.959	24.23
844.134	63.15
844.31	63.15
844.486	28.33
844.662	89.77
844.838	20.14
845.013	30.38
845.189	65.19
845.365	42.67
845.541	65.19
845.716	81.58
845.892	83.63
846.068	102.06
846.244	-33.11
846.419	28.33
846.595	34.47
846.77	59.05
846.946	52.91
847.122	-4.44
847.297	59.05
847.473	63.15
847.648	20.14
847.824	85.67
847.999	3.75
848.175	1.71
848.35	22.19
848.526	79.53
848.701	36.52
848.876	48.81
849.052	44.71
849.227	106.15
849.403	24.23
849.578	46.76
849.753	-20.82
849.929	26.28
850.104	-24.92
850.279	13.99
850.454	-12.63
850.63	44.71
850.805	-0.34
850.98	52.91
851.155	-12.63
851.33	69.29
851.505	-29.01
851.681	85.67
851.856	73.39
852.031	61.1
852.206	89.77
852.381	110.25
852.556	16.04
852.731	44.71
852.906	69.29
853.081	114.34
853.256	54.95
853.431	38.57
853.606	-41.3
853.781	-16.73
853.956	-10.58
854.131	73.39
854.305	28.33
854.48	28.33
854.655	67.24
854.83	67.24
855.005	26.28
855.18	-16.73
855.354	38.57
855.529	22.19
855.704	-8.53
855.879	36.52
856.053	-51.54
856.228	-10.58
856.403	-12.63
856.577	48.81
856.752	18.09
856.926	7.85
857.101	44.71
857.276	34.47
857.45	-0.34
857.625	89.77
857.799	5.8
857.974	-6.49
858.148	9.9
858.323	61.1
858.497	28.33
858.672	36.52
858.846	26.28
859.02	95.91
859.195	7.85
859.369	-22.87
859.543	-14.68
859.718	38.57
859.892	61.1
860.066	73.39
860.241	67.24
860.415	-49.49
860.589	-45.4
860.763	-43.35
860.938	46.76
861.112	61.1
861.286	-24.92
861.46	32.43
861.634	16.04
861.808	106.15
861.982	28.33
862.157	32.43
862.331	40.62
862.505	5.8
862.679	-59.73
862.853	40.62
863.027	34.47
863.201	120.49
863.375	16.04
863.549	81.58
863.722	26.28
863.896	77.48
864.07	130.73
864.244	30.38
864.418	22.19
864.592	73.39
864.766	-6.49
864.939	-0.34
865.113	36.52
865.287	32.43
865.461	1.71
865.634	1.71
865.808	7.85
865.982	79.53
866.156	18.09
866.329	28.33
866.503	81.58
866.676	-26.96
866.85	-43.35
867.024	59.05
867.197	26.28
867.371	16.04
867.544	-82.26
867.718	-0.34
867.891	7.85
868.065	30.38
868.238	3.75
868.412	-39.25
868.585	22.19
868.759	-69.97
868.932	-31.06
869.105	-35.16
869.279	89.77
869.452	75.43
869.625	32.43
869.799	85.67
869.972	-2.39
870.145	18.09
870.319	-33.11
870.492	36.52
870.665	7.85
870.838	-22.87
871.011	26.28
871.185	38.57
871.358	-16.73
871.531	63.15
871.704	-47.44
871.877	-16.73
872.05	24.23
872.223	-20.82
872.396	20.14
872.569	-10.58
872.742	5.8
872.915	87.72
873.088	-47.44
873.261	-72.02
873.434	28.33
873.607	77.48
873.78	32.43
873.953	28.33
874.126	73.39
874.299	3.75
874.471	48.81
874.644	65.19
874.817	-4.44
874.99	54.95
875.163	22.19
875.335	-26.96
875.508	95.91
875.681	-24.92
875.853	-6.49
876.026	59.05
876.199	-4.44
876.371	1.71
876.544	89.77
876.717	16.04
876.889	46.76
877.062	26.28
877.234	-53.59
877.407	30.38
877.579	87.72
877.752	100.01
877.924	46.76
878.097	11.95
878.269	48.81
878.442	7.85
878.614	-47.44
878.786	-55.64
878.959	38.57
879.131	9.9
879.303	34.47
879.476	28.33
879.648	110.25
879.82	9.9
879.993	30.38
880.165	34.47
880.337	-20.82
880.509	30.38
880.681	-49.49
880.854	-12.63
881.026	69.29
881.198	48.81
881.37	24.23
881.542	44.71
881.714	-33.11
881.886	44.71
882.058	7.85
882.23	3.75
882.402	38.57
882.574	44.71
882.746	100.01
882.918	-29.01
883.09	28.33
883.262	48.81
883.434	-39.25
883.606	-29.01
883.778	3.75
883.95	65.19
884.122	73.39
884.293	59.05
884.465	-39.25
884.637	3.75
884.809	-26.96
884.98	-31.06
885.152	26.28
885.324	42.67
885.496	5.8
885.667	-41.3
885.839	-20.82
886.011	16.04
886.182	-29.01
886.354	40.62
886.525	16.04
886.697	-10.58
886.869	-49.49
887.04	7.85
887.212	26.28
887.383	52.91
887.555	-12.63
887.726	36.52
887.897	24.23
888.069	-8.53
888.24	16.04
888.412	28.33
888.583	3.75
888.754	5.8
888.926	-33.11
889.097	30.38
889.268	28.33
889.44	5.8
889.611	-26.96
889.782	91.82
889.953	-0.34
890.125	20.14
890.296	40.62
890.467	-8.53
890.638	13.99
890.809	-63.83
890.98	-47.44
891.151	44.71
891.323	13.99
891.494	-2.39
891.665	-20.82
891.836	-16.73
892.007	-41.3
892.178	18.09
892.349	59.05
892.52	-33.11
892.691	38.57
892.862	16.04
893.032	26.28
893.203	44.71
893.374	-41.3
893.545	69.29
893.716	-53.59
893.887	22.19
894.057	20.14
894.228	77.48
894.399	28.33
894.57	40.62
894.74	11.95
894.911	18.09
895.082	16.04
895.253	-31.06
895.423	-18.77
895.594	13.99
895.764	18.09
895.935	16.04
896.106	-43.35
896.276	-10.58
896.447	-20.82
896.617	-29.01
896.788	-4.44
896.958	-49.49
897.129	-10.58
897.299	89.77
897.47	91.82
897.64	44.71
897.81	18.09
897.981	69.29
898.151	-2.39
898.322	11.95
898.492	-2.39
898.662	-29.01
898.832	28.33
899.003	-26.96
899.173	-18.77
899.343	-6.49
899.513	-2.39
