Data from USB4F104151__198__11-10-06-779.txt Node

Date: Wed Mar 12 11:10:06 EDT 2025
User: louis
Spectrometer: USB4F10415
Trigger mode: 4
Integration Time (sec): 2.000000E-2
Scans to average: 1
Electric dark correction enabled: true
Nonlinearity correction enabled: false
Boxcar width: 0
XAxis mode: Wavelengths
Number of Pixels in Spectrum: 3648
>>>>>Begin Spectral Data<<<<<
178.204	-49.66
178.424	-49.66
178.644	-49.66
178.864	-64
179.084	-86.53
179.304	22.02
179.524	5.63
179.744	-20.99
179.964	91.65
180.184	-47.62
180.404	-33.28
180.624	28.16
180.844	-12.8
181.064	-23.04
181.283	-14.85
181.503	-2.56
181.723	7.68
181.943	5.63
182.163	75.26
182.383	-12.8
182.602	87.55
182.822	15.87
183.042	65.02
183.262	124.41
183.482	7.68
183.701	5.63
183.921	42.5
184.141	97.79
184.361	30.21
184.58	34.3
184.8	5.63
185.02	-10.75
185.239	44.54
185.459	67.07
185.679	65.02
185.898	26.11
186.118	34.3
186.338	7.68
186.557	81.41
186.777	-51.71
186.997	48.64
187.216	-18.94
187.436	44.54
187.655	65.02
187.875	34.3
188.095	15.87
188.314	17.92
188.534	19.97
188.753	91.65
188.973	-51.71
189.192	99.84
189.412	15.87
189.631	34.3
189.851	58.88
190.07	48.64
190.29	5.63
190.509	32.26
190.729	118.27
190.948	62.98
191.168	83.45
191.387	38.4
191.607	-2.56
191.826	36.35
192.045	-49.66
192.265	17.92
192.484	-29.18
192.704	81.41
192.923	-49.66
193.142	-0.51
193.362	-23.04
193.581	67.07
193.8	97.79
194.02	34.3
194.239	50.69
194.458	75.26
194.678	-29.18
194.897	7.68
195.116	75.26
195.335	-31.23
195.555	38.4
195.774	81.41
195.993	5.63
196.212	56.83
196.432	38.4
196.651	75.26
196.87	26.11
197.089	46.59
197.308	30.21
197.528	28.16
197.747	5.63
197.966	56.83
198.185	62.98
198.404	9.73
198.623	-2.56
198.842	36.35
199.062	1.54
199.281	103.93
199.5	-10.75
199.719	69.12
199.938	32.26
200.157	-2.56
200.376	44.54
200.595	87.55
200.814	7.68
201.033	46.59
201.252	-6.66
201.471	-6.66
201.69	-18.94
201.909	60.93
202.128	67.07
202.347	44.54
202.566	-84.48
202.785	9.73
203.004	26.11
203.223	52.74
203.442	87.55
203.661	36.35
203.879	69.12
204.098	73.21
204.317	1.54
204.536	46.59
204.755	65.02
204.974	30.21
205.193	48.64
205.411	67.07
205.63	56.83
205.849	28.16
206.068	-43.52
206.287	-25.09
206.505	77.31
206.724	28.16
206.943	-64
207.162	15.87
207.381	5.63
207.599	42.5
207.818	3.58
208.037	34.3
208.255	34.3
208.474	42.5
208.693	28.16
208.911	36.35
209.13	32.26
209.349	79.36
209.567	-47.62
209.786	87.55
210.005	56.83
210.223	44.54
210.442	28.16
210.661	9.73
210.879	-27.14
211.098	-25.09
211.316	58.88
211.535	56.83
211.753	83.45
211.972	99.84
212.191	-14.85
212.409	46.59
212.628	138.75
212.846	77.31
213.065	28.16
213.283	83.45
213.502	22.02
213.72	99.84
213.938	101.89
214.157	42.5
214.375	22.02
214.594	-4.61
214.812	24.06
215.031	26.11
215.249	-25.09
215.467	32.26
215.686	30.21
215.904	-16.9
216.122	22.02
216.341	30.21
216.559	50.69
216.778	32.26
216.996	81.41
217.214	71.17
217.432	-6.66
217.651	13.82
217.869	56.83
218.087	9.73
218.306	73.21
218.524	17.92
218.742	1.54
218.96	42.5
219.179	65.02
219.397	50.69
219.615	9.73
219.833	5.63
220.051	69.12
220.27	67.07
220.488	24.06
220.706	-0.51
220.924	32.26
221.142	5.63
221.36	50.69
221.578	83.45
221.796	3.58
222.015	36.35
222.233	26.11
222.451	30.21
222.669	1.54
222.887	73.21
223.105	-31.23
223.323	-0.51
223.541	24.06
223.759	73.21
223.977	1.54
224.195	89.6
224.413	-2.56
224.631	40.45
224.849	95.74
225.067	24.06
225.285	-2.56
225.503	93.69
225.721	-6.66
225.939	54.78
226.157	52.74
226.375	13.82
226.592	-43.52
226.81	44.54
227.028	13.82
227.246	15.87
227.464	-70.14
227.682	24.06
227.9	79.36
228.117	114.17
228.335	-12.8
228.553	-14.85
228.771	3.58
228.989	34.3
229.206	44.54
229.424	79.36
229.642	5.63
229.86	42.5
230.077	30.21
230.295	11.78
230.513	42.5
230.731	26.11
230.948	44.54
231.166	56.83
231.384	-18.94
231.601	38.4
231.819	65.02
232.037	-25.09
232.254	148.99
232.472	52.74
232.689	42.5
232.907	15.87
233.125	-4.61
233.342	24.06
233.56	24.06
233.777	32.26
233.995	42.5
234.213	58.88
234.43	42.5
234.648	95.74
234.865	5.63
235.083	42.5
235.3	36.35
235.518	-80.38
235.735	75.26
235.953	89.6
236.17	-72.19
236.388	26.11
236.605	28.16
236.822	73.21
237.04	36.35
237.257	-4.61
237.475	-25.09
237.692	-4.61
237.909	-27.14
238.127	15.87
238.344	13.82
238.562	50.69
238.779	44.54
238.996	30.21
239.214	-14.85
239.431	46.59
239.648	-0.51
239.865	50.69
240.083	79.36
240.3	-14.85
240.517	83.45
240.735	103.93
240.952	30.21
241.169	103.93
241.386	13.82
241.603	26.11
241.821	-53.76
242.038	42.5
242.255	50.69
242.472	-57.86
242.689	65.02
242.907	69.12
243.124	38.4
243.341	17.92
243.558	95.74
243.775	44.54
243.992	-16.9
244.209	44.54
244.426	75.26
244.643	48.64
244.86	28.16
245.078	91.65
245.295	-2.56
245.512	22.02
245.729	-10.75
245.946	-2.56
246.163	32.26
246.38	54.78
246.597	28.16
246.814	5.63
247.031	17.92
247.248	110.08
247.464	75.26
247.681	9.73
247.898	58.88
248.115	75.26
248.332	-18.94
248.549	93.69
248.766	105.98
248.983	50.69
249.2	-14.85
249.417	58.88
249.633	-4.61
249.85	56.83
250.067	19.97
250.284	79.36
250.501	44.54
250.717	52.74
250.934	-12.8
251.151	48.64
251.368	46.59
251.585	112.13
251.801	79.36
252.018	17.92
252.235	108.03
252.451	-2.56
252.668	54.78
252.885	19.97
253.102	24.06
253.318	42.5
253.535	-2.56
253.752	-6.66
253.968	46.59
254.185	34.3
254.401	42.5
254.618	71.17
254.835	-8.7
255.051	32.26
255.268	28.16
255.484	85.5
255.701	24.06
255.917	120.32
256.134	24.06
256.351	30.21
256.567	91.65
256.784	28.16
257	26.11
257.217	15.87
257.433	67.07
257.65	46.59
257.866	36.35
258.082	-20.99
258.299	26.11
258.515	67.07
258.732	-6.66
258.948	65.02
259.165	50.69
259.381	83.45
259.597	38.4
259.814	118.27
260.03	-47.62
260.246	50.69
260.463	32.26
260.679	28.16
260.895	44.54
261.112	5.63
261.328	-2.56
261.544	52.74
261.761	46.59
261.977	11.78
262.193	17.92
262.409	1.54
262.626	40.45
262.842	-8.7
263.058	34.3
263.274	-39.42
263.49	-31.23
263.707	19.97
263.923	103.93
264.139	-8.7
264.355	67.07
264.571	36.35
264.787	65.02
265.004	87.55
265.22	99.84
265.436	134.65
265.652	44.54
265.868	71.17
266.084	-6.66
266.3	50.69
266.516	-33.28
266.732	126.46
266.948	77.31
267.164	-29.18
267.38	1.54
267.596	46.59
267.812	67.07
268.028	-12.8
268.244	22.02
268.46	-8.7
268.676	120.32
268.892	32.26
269.108	-10.75
269.324	71.17
269.54	28.16
269.756	62.98
269.972	-39.42
270.188	58.88
270.403	32.26
270.619	-2.56
270.835	5.63
271.051	13.82
271.267	83.45
271.483	99.84
271.698	17.92
271.914	52.74
272.13	-2.56
272.346	11.78
272.562	32.26
272.777	99.84
272.993	-20.99
273.209	65.02
273.425	15.87
273.64	81.41
273.856	42.5
274.072	46.59
274.287	67.07
274.503	19.97
274.719	99.84
274.934	9.73
275.15	22.02
275.366	58.88
275.581	-49.66
275.797	50.69
276.012	-64
276.228	17.92
276.444	9.73
276.659	24.06
276.875	67.07
277.09	19.97
277.306	-2.56
277.521	60.93
277.737	71.17
277.952	22.02
278.168	-12.8
278.383	34.3
278.599	-18.94
278.814	-14.85
279.03	46.59
279.245	134.65
279.461	50.69
279.676	54.78
279.892	-72.19
280.107	50.69
280.322	32.26
280.538	28.16
280.753	17.92
280.969	30.21
281.184	17.92
281.399	17.92
281.615	34.3
281.83	65.02
282.045	44.54
282.26	95.74
282.476	24.06
282.691	38.4
282.906	52.74
283.122	69.12
283.337	62.98
283.552	24.06
283.767	3.58
283.983	56.83
284.198	71.17
284.413	73.21
284.628	-29.18
284.843	28.16
285.058	-4.61
285.274	97.79
285.489	11.78
285.704	34.3
285.919	-27.14
286.134	-23.04
286.349	9.73
286.564	60.93
286.779	54.78
286.995	22.02
287.21	60.93
287.425	9.73
287.64	34.3
287.855	50.69
288.07	75.26
288.285	-6.66
288.5	32.26
288.715	62.98
288.93	48.64
289.145	26.11
289.36	5.63
289.575	54.78
289.79	65.02
290.004	-0.51
290.219	26.11
290.434	11.78
290.649	38.4
290.864	-16.9
291.079	48.64
291.294	-8.7
291.509	3.58
291.724	34.3
291.938	7.68
292.153	-4.61
292.368	65.02
292.583	50.69
292.798	46.59
293.012	9.73
293.227	17.92
293.442	54.78
293.657	89.6
293.871	32.26
294.086	15.87
294.301	7.68
294.516	5.63
294.73	-12.8
294.945	-6.66
295.16	48.64
295.374	44.54
295.589	110.08
295.804	7.68
296.018	54.78
296.233	54.78
296.447	5.63
296.662	36.35
296.877	75.26
297.091	58.88
297.306	58.88
297.52	30.21
297.735	36.35
297.949	60.93
298.164	5.63
298.378	83.45
298.593	1.54
298.807	28.16
299.022	-31.23
299.236	56.83
299.451	36.35
299.665	42.5
299.88	62.98
300.094	30.21
300.309	28.16
300.523	54.78
300.737	52.74
300.952	22.02
301.166	44.54
301.381	-0.51
301.595	32.26
301.809	15.87
302.024	22.02
302.238	50.69
302.452	73.21
302.667	13.82
302.881	103.93
303.095	46.59
303.309	83.45
303.524	65.02
303.738	9.73
303.952	30.21
304.166	58.88
304.381	-10.75
304.595	50.69
304.809	48.64
305.023	108.03
305.237	54.78
305.452	58.88
305.666	40.45
305.88	38.4
306.094	40.45
306.308	42.5
306.522	-29.18
306.736	46.59
306.95	1.54
307.164	17.92
307.379	40.45
307.593	155.13
307.807	-6.66
308.021	-8.7
308.235	60.93
308.449	-6.66
308.663	99.84
308.877	30.21
309.091	9.73
309.305	34.3
309.519	3.58
309.733	42.5
309.947	13.82
310.161	13.82
310.374	58.88
310.588	9.73
310.802	-4.61
311.016	103.93
311.23	26.11
311.444	95.74
311.658	24.06
311.872	38.4
312.085	17.92
312.299	13.82
312.513	58.88
312.727	69.12
312.941	54.78
313.154	52.74
313.368	5.63
313.582	13.82
313.796	13.82
314.009	65.02
314.223	87.55
314.437	85.5
314.651	75.26
314.864	50.69
315.078	30.21
315.292	-4.61
315.505	42.5
315.719	-10.75
315.933	30.21
316.146	24.06
316.36	5.63
316.573	85.5
316.787	93.69
317.001	42.5
317.214	-45.57
317.428	60.93
317.641	-4.61
317.855	22.02
318.068	-2.56
318.282	87.55
318.495	5.63
318.709	24.06
318.922	52.74
319.136	9.73
319.349	65.02
319.563	103.93
319.776	-14.85
319.99	13.82
320.203	58.88
320.417	60.93
320.63	-27.14
320.843	85.5
321.057	75.26
321.27	110.08
321.483	17.92
321.697	116.22
321.91	67.07
322.124	75.26
322.337	22.02
322.55	-39.42
322.763	60.93
322.977	24.06
323.19	-49.66
323.403	56.83
323.617	5.63
323.83	91.65
324.043	69.12
324.256	69.12
324.469	-41.47
324.683	114.17
324.896	-2.56
325.109	60.93
325.322	48.64
325.535	132.61
325.748	173.57
325.962	52.74
326.175	42.5
326.388	1.54
326.601	-0.51
326.814	75.26
327.027	34.3
327.24	114.17
327.453	-14.85
327.666	40.45
327.879	44.54
328.092	58.88
328.305	5.63
328.518	79.36
328.731	-16.9
328.944	83.45
329.157	28.16
329.37	62.98
329.583	38.4
329.796	126.46
330.009	15.87
330.222	-59.9
330.435	26.11
330.648	5.63
330.861	42.5
331.073	91.65
331.286	40.45
331.499	11.78
331.712	26.11
331.925	46.59
332.138	69.12
332.35	-70.14
332.563	1.54
332.776	19.97
332.989	13.82
333.202	-2.56
333.414	75.26
333.627	75.26
333.84	3.58
334.053	71.17
334.265	13.82
334.478	58.88
334.691	36.35
334.903	36.35
335.116	36.35
335.329	-0.51
335.541	30.21
335.754	26.11
335.966	-16.9
336.179	83.45
336.392	30.21
336.604	-45.57
336.817	112.13
337.029	77.31
337.242	32.26
337.454	-18.94
337.667	36.35
337.88	26.11
338.092	52.74
338.305	65.02
338.517	30.21
338.729	140.8
338.942	65.02
339.154	24.06
339.367	-4.61
339.579	28.16
339.792	60.93
340.004	-14.85
340.217	38.4
340.429	38.4
340.641	105.98
340.854	26.11
341.066	-10.75
341.278	99.84
341.491	24.06
341.703	122.37
341.915	-10.75
342.128	85.5
342.34	95.74
342.552	-0.51
342.764	38.4
342.977	56.83
343.189	-57.86
343.401	105.98
343.613	-8.7
343.826	19.97
344.038	97.79
344.25	81.41
344.462	58.88
344.674	69.12
344.886	-12.8
345.099	110.08
345.311	1.54
345.523	67.07
345.735	-10.75
345.947	71.17
346.159	40.45
346.371	46.59
346.583	-31.23
346.795	69.12
347.007	65.02
347.219	30.21
347.431	-0.51
347.643	132.61
347.855	15.87
348.067	89.6
348.279	34.3
348.491	105.98
348.703	17.92
348.915	-43.52
349.127	30.21
349.339	9.73
349.551	42.5
349.763	101.89
349.975	48.64
350.187	120.32
350.399	81.41
350.61	103.93
350.822	-10.75
351.034	24.06
351.246	108.03
351.458	42.5
351.669	17.92
351.881	40.45
352.093	65.02
352.305	165.37
352.517	108.03
352.728	105.98
352.94	32.26
353.152	42.5
353.363	34.3
353.575	28.16
353.787	101.89
353.999	46.59
354.21	46.59
354.422	3.58
354.633	42.5
354.845	9.73
355.057	81.41
355.268	22.02
355.48	3.58
355.692	42.5
355.903	38.4
356.115	5.63
356.326	-23.04
356.538	73.21
356.749	65.02
356.961	3.58
357.172	26.11
357.384	-49.66
357.595	167.42
357.807	13.82
358.018	46.59
358.23	44.54
358.441	85.5
358.653	108.03
358.864	91.65
359.075	52.74
359.287	52.74
359.498	83.45
359.709	99.84
359.921	81.41
360.132	67.07
360.344	101.89
360.555	7.68
360.766	32.26
360.977	79.36
361.189	99.84
361.4	108.03
361.611	46.59
361.823	11.78
362.034	110.08
362.245	24.06
362.456	13.82
362.667	-4.61
362.879	9.73
363.09	93.69
363.301	34.3
363.512	50.69
363.723	83.45
363.935	15.87
364.146	71.17
364.357	48.64
364.568	65.02
364.779	11.78
364.99	30.21
365.201	-0.51
365.412	89.6
365.623	26.11
365.834	108.03
366.045	-8.7
366.256	103.93
366.467	54.78
366.678	54.78
366.889	67.07
367.1	50.69
367.311	67.07
367.522	81.41
367.733	48.64
367.944	1.54
368.155	85.5
368.366	65.02
368.577	36.35
368.788	65.02
368.999	-20.99
369.209	44.54
369.42	40.45
369.631	157.18
369.842	36.35
370.053	42.5
370.264	124.41
370.474	-16.9
370.685	28.16
370.896	108.03
371.107	30.21
371.317	40.45
371.528	89.6
371.739	112.13
371.95	69.12
372.16	85.5
372.371	44.54
372.582	11.78
372.792	-8.7
373.003	83.45
373.214	52.74
373.424	42.5
373.635	62.98
373.846	54.78
374.056	30.21
374.267	15.87
374.477	73.21
374.688	75.26
374.898	-18.94
375.109	108.03
375.319	42.5
375.53	44.54
375.74	65.02
375.951	1.54
376.161	30.21
376.372	58.88
376.582	40.45
376.793	67.07
377.003	42.5
377.214	71.17
377.424	62.98
377.635	-43.52
377.845	28.16
378.055	126.46
378.266	50.69
378.476	60.93
378.686	15.87
378.897	22.02
379.107	97.79
379.317	153.09
379.528	65.02
379.738	52.74
379.948	50.69
380.158	116.22
380.369	38.4
380.579	116.22
380.789	36.35
380.999	42.5
381.21	30.21
381.42	91.65
381.63	19.97
381.84	44.54
382.05	103.93
382.261	79.36
382.471	62.98
382.681	79.36
382.891	65.02
383.101	38.4
383.311	40.45
383.521	24.06
383.731	52.74
383.941	91.65
384.151	22.02
384.361	75.26
384.571	50.69
384.781	89.6
384.991	52.74
385.201	97.79
385.411	-8.7
385.621	36.35
385.831	71.17
386.041	71.17
386.251	54.78
386.461	99.84
386.671	11.78
386.881	89.6
387.091	-6.66
387.301	85.5
387.511	-2.56
387.72	85.5
387.93	112.13
388.14	30.21
388.35	-2.56
388.56	32.26
388.769	79.36
388.979	140.8
389.189	38.4
389.399	85.5
389.609	95.74
389.818	75.26
390.028	85.5
390.238	50.69
390.447	24.06
390.657	83.45
390.867	48.64
391.076	36.35
391.286	73.21
391.496	67.07
391.705	103.93
391.915	46.59
392.125	65.02
392.334	62.98
392.544	91.65
392.753	118.27
392.963	11.78
393.172	75.26
393.382	38.4
393.591	60.93
393.801	75.26
394.01	91.65
394.22	-29.18
394.429	48.64
394.639	87.55
394.848	34.3
395.058	56.83
395.267	30.21
395.477	79.36
395.686	81.41
395.895	9.73
396.105	144.89
396.314	122.37
396.524	138.75
396.733	-57.86
396.942	128.51
397.152	83.45
397.361	50.69
397.57	38.4
397.78	11.78
397.989	69.12
398.198	114.17
398.407	128.51
398.617	79.36
398.826	134.65
399.035	103.93
399.244	54.78
399.453	79.36
399.663	171.52
399.872	142.85
400.081	95.74
400.29	116.22
400.499	69.12
400.708	112.13
400.917	60.93
401.127	124.41
401.336	120.32
401.545	134.65
401.754	62.98
401.963	136.7
402.172	108.03
402.381	132.61
402.59	110.08
402.799	42.5
403.008	148.99
403.217	85.5
403.426	67.07
403.635	128.51
403.844	69.12
404.053	75.26
404.262	81.41
404.471	148.99
404.68	165.37
404.888	42.5
405.097	73.21
405.306	38.4
405.515	112.13
405.724	122.37
405.933	54.78
406.142	163.33
406.35	132.61
406.559	202.24
406.768	124.41
406.977	196.09
407.185	142.85
407.394	153.09
407.603	130.56
407.812	165.37
408.02	235
408.229	138.75
408.438	206.33
408.646	165.37
408.855	189.95
409.064	138.75
409.272	159.23
409.481	173.57
409.69	249.34
409.898	230.91
410.107	235
410.315	267.77
410.524	261.63
410.733	239.1
410.941	235
411.15	321.02
411.358	243.2
411.567	327.16
411.775	245.24
411.984	339.45
412.192	355.83
412.401	294.4
412.609	439.8
412.818	417.27
413.026	349.69
413.234	370.17
413.443	464.38
413.651	427.51
413.86	423.42
414.068	386.55
414.276	511.48
414.485	501.24
414.693	540.15
414.901	493.05
415.11	534.01
415.318	503.29
415.526	564.73
415.734	529.91
415.943	603.64
416.151	589.3
416.359	660.98
416.567	605.69
416.776	648.69
416.984	761.33
417.192	761.33
417.4	773.62
417.608	769.52
417.817	798.2
418.025	890.35
418.233	904.69
418.441	894.45
418.649	951.79
418.857	974.32
419.065	1025.52
419.273	996.85
419.481	1095.15
419.689	1113.58
419.897	1101.3
420.105	1129.97
420.313	1117.68
420.521	1287.66
420.729	1148.4
420.937	1308.14
421.145	1363.44
421.353	1371.63
421.561	1510.89
421.769	1535.46
421.977	1584.62
422.185	1580.52
422.393	1689.06
422.601	1644.01
422.809	1750.5
423.017	1768.93
423.224	1795.56
423.432	1969.63
423.64	1857
423.848	2098.66
424.056	2129.38
424.263	2168.29
424.471	2145.76
424.679	2250.21
424.887	2336.22
425.094	2528.73
425.302	2465.24
425.51	2541.02
425.718	2682.33
425.925	2608.6
426.133	2749.91
426.341	2745.81
426.548	2911.7
426.756	2977.23
426.964	3122.64
427.171	3278.29
427.379	3292.62
427.586	3417.55
427.794	3435.98
428.001	3550.67
428.209	3696.07
428.417	3685.83
428.624	3866.05
428.832	4052.42
429.039	3911.11
429.247	3925.44
429.454	4404.67
429.662	4808.12
429.869	4234.69
430.076	4697.53
430.284	4582.84
430.491	4652.47
430.699	4939.19
430.906	4750.78
431.114	4906.42
431.321	5178.8
431.528	5238.19
431.736	5692.84
431.943	5963.17
432.15	5719.46
432.358	5799.34
432.565	6100.39
432.772	6104.48
432.979	6456.73
433.187	6614.43
433.394	6671.77
433.601	6981.01
433.808	6870.42
434.016	6727.07
434.223	7210.39
434.43	7720.33
434.637	7447.95
434.844	7918.98
435.052	8123.78
435.259	8101.25
435.466	8054.15
435.673	7984.52
435.88	8564.09
436.087	9119.09
436.294	9090.42
436.501	8793.47
436.708	9004.41
436.915	9164.15
437.122	9807.21
437.329	9608.56
437.537	10001.77
437.743	10089.83
437.95	10095.97
438.157	10638.69
438.364	10900.83
438.571	10898.78
438.778	10855.77
438.985	11906.38
439.192	11451.73
439.399	11806.03
439.606	11550.03
439.813	11973.96
440.02	13204.79
440.227	12909.88
440.433	12686.65
440.64	13112.63
440.847	12858.68
441.054	13333.81
441.261	14282.02
441.467	14239.01
441.674	14351.65
441.881	14929.18
442.088	14624.03
442.294	14460.2
442.501	15076.63
442.708	15285.53
442.914	15883.53
443.121	16434.44
443.328	16157.96
443.534	17253.62
443.741	16643.33
443.948	16614.66
444.154	17743.09
444.361	17661.17
444.568	17732.85
444.774	17626.36
444.981	17712.37
445.187	18384.1
445.394	19451.1
445.6	18984.16
445.807	20925.63
446.013	19965.14
446.22	20286.67
446.426	20980.93
446.633	21243.07
446.839	22119.6
447.046	20802.75
447.252	22305.96
447.459	22103.21
447.665	22271.15
447.871	23082.14
448.078	23940.24
448.284	22803.62
448.491	23493.79
448.697	24444.04
448.903	24745.09
449.11	25103.49
449.316	24425.61
449.522	24884.36
449.728	25638.01
449.935	25642.1
450.141	25574.52
450.347	26172.53
450.553	25242.75
450.76	25515.13
450.966	26076.27
451.172	26449
451.378	26946.66
451.584	26123.38
451.791	26965.09
451.997	26729.58
452.203	27182.18
452.409	27055.2
452.615	27255.9
452.821	26047.6
453.027	25431.16
453.233	26932.33
453.44	25945.2
453.646	26141.81
453.852	26575.98
454.058	26604.65
454.264	25644.15
454.47	26342.51
454.676	25615.48
454.882	26532.97
455.088	24120.46
455.294	24691.85
455.5	24683.66
455.705	24788.1
455.911	24165.52
456.117	23436.44
456.323	23319.71
456.529	22150.32
456.735	22815.91
456.941	22414.51
457.147	21689.53
457.352	21429.43
457.558	21075.13
457.764	20524.23
457.97	20640.97
458.176	20245.71
458.381	20004.05
458.587	19307.74
458.793	19096.8
458.999	18038
459.204	19369.18
459.41	18969.82
459.616	17579.25
459.821	17861.87
460.027	17425.65
460.233	17110.27
460.438	16411.91
460.644	16698.63
460.85	15707.41
461.055	15539.47
461.261	15529.24
461.466	14322.98
461.672	13966.63
461.878	15101.21
462.083	13753.65
462.289	13831.47
462.494	13616.43
462.7	13081.91
462.905	12737.85
463.111	13247.8
463.316	13110.58
463.522	12748.09
463.727	13129.02
463.932	12655.93
464.138	12700.99
464.343	12662.08
464.549	12381.51
464.754	12756.29
464.959	12838.2
465.165	12528.96
465.37	12047.69
465.575	11758.92
465.781	12373.32
465.986	12295.49
466.191	11976.01
466.397	11648.33
466.602	11158.87
466.807	11560.27
467.012	11519.31
467.218	11605.33
467.423	11248.98
467.628	11543.89
467.833	11930.95
468.038	11433.3
468.244	11179.35
468.449	11748.68
468.654	11091.29
468.859	10909.02
469.064	11083.09
469.269	10612.06
469.474	10800.48
469.679	11040.09
469.885	10575.2
470.09	10739.04
470.295	10560.86
470.5	10392.93
470.705	10483.04
470.91	10087.78
471.115	9854.31
471.32	10552.67
471.525	10179.94
471.73	9915.75
471.935	9813.35
472.139	9475.44
472.344	9567.6
472.549	9680.24
472.754	9514.35
472.959	9301.36
473.164	9213.3
473.369	8799.61
473.574	9416.05
473.778	9237.88
473.983	9299.31
474.188	9033.08
474.393	9022.84
474.598	8549.76
474.802	8746.36
475.007	8609.15
475.212	8752.51
475.417	8234.37
475.621	8287.62
475.826	8353.15
476.031	8213.89
476.235	7990.66
476.44	8099.2
476.645	8011.14
476.849	7998.85
477.054	8068.48
477.259	7751.05
477.463	7630.22
477.668	7757.19
477.872	7734.67
478.077	7320.98
478.282	7382.42
478.486	7353.74
478.691	7138.71
478.895	7325.07
479.1	7243.15
479.304	7202.19
479.509	6829.46
479.713	7304.59
479.918	6985.11
480.122	6999.45
480.326	6981.01
480.531	7114.13
480.735	6962.58
480.94	6880.66
481.144	7067.03
481.348	6759.83
481.553	6761.88
481.757	6739.35
481.961	6694.3
482.166	6641.05
482.37	6639
482.574	6682.01
482.778	6610.33
482.983	6880.66
483.187	6829.46
483.391	6524.32
483.595	6706.59
483.8	6655.39
484.004	6714.78
484.208	6839.7
484.412	6665.63
484.616	6671.77
484.821	6735.26
485.025	6383.01
485.229	6659.48
485.433	6630.81
485.637	6737.31
485.841	6503.84
486.045	6673.82
486.249	6665.63
486.453	6538.65
486.657	6624.67
486.861	6714.78
487.065	6516.12
487.269	6655.39
487.473	6546.84
487.677	6673.82
487.881	6739.35
488.085	6753.69
488.289	6628.76
488.493	6651.29
488.697	6716.83
488.901	6706.59
489.105	6641.05
489.309	6606.24
489.512	6712.73
489.716	6800.79
489.92	6665.63
490.124	6765.98
490.328	6854.04
490.531	6833.56
490.735	6733.21
490.939	6802.84
491.143	6817.18
491.346	6542.75
491.55	7013.78
491.754	7032.21
491.958	7075.22
492.161	7054.74
492.365	6940.05
492.569	6935.96
492.772	7077.27
492.976	7003.54
493.18	7050.64
493.383	7341.46
493.587	7234.96
493.79	7378.32
493.994	7249.3
494.197	7241.11
494.401	7394.7
494.605	7566.73
494.808	7409.04
495.012	7495.05
495.215	7458.19
495.419	7574.92
495.622	7550.35
495.825	7646.6
496.029	7771.53
496.232	8082.82
496.436	7726.47
496.639	8000.9
496.843	7976.33
497.046	8017.29
497.249	8230.27
497.453	8164.74
497.656	8492.41
497.859	8527.23
498.063	8467.84
498.266	8672.64
498.469	8820.09
498.673	8631.68
498.876	9057.65
499.079	8922.49
499.282	8912.25
499.485	9321.84
499.689	9311.6
499.892	9487.73
500.095	9508.21
500.298	9536.88
500.501	9569.65
500.705	9866.6
500.908	9915.75
501.111	10063.21
501.314	10063.21
501.517	10046.82
501.72	10263.91
501.923	10499.42
502.126	10464.61
502.329	10499.42
502.532	10683.74
502.735	10833.24
502.938	11091.29
503.141	11091.29
503.344	11171.16
503.547	11064.66
503.75	11220.31
503.953	11656.53
504.156	11736.4
504.359	11922.76
504.562	11840.84
504.765	12270.92
504.968	12221.77
505.17	12524.86
505.373	12541.25
505.576	12690.75
505.779	12666.17
505.982	12750.14
506.185	13245.75
506.387	12981.56
506.59	13264.18
506.793	13524.27
506.996	13554.99
507.198	13905.2
507.401	13655.34
507.604	13999.4
507.807	14411.04
508.009	14398.76
508.212	14595.36
508.415	14601.51
508.617	15185.18
508.82	14658.85
509.022	14718.24
509.225	15463.7
509.428	15408.4
509.63	15463.7
509.833	15389.97
510.035	16041.23
510.238	15707.41
510.44	16055.56
510.643	16434.44
510.845	16467.2
511.048	16282.89
511.25	16829.7
511.453	16645.38
511.655	17216.76
511.858	16960.77
512.06	17214.71
512.262	17513.72
512.465	17483
512.667	17837.3
512.87	18052.33
513.072	18146.54
513.274	18414.82
513.477	18758.88
513.679	18799.84
513.881	18947.29
514.084	19016.93
514.286	19201.24
514.488	19457.24
514.69	20024.53
514.893	20020.43
515.095	19885.26
515.297	20229.32
515.499	20550.85
515.701	20587.72
515.904	20698.31
516.106	21112
516.308	21367.99
516.51	21515.45
516.712	21427.39
516.914	21660.85
517.116	22115.5
517.318	22224.04
517.52	22557.86
517.722	22779.04
517.925	22693.03
518.127	23145.63
518.329	22893.73
518.531	23309.47
518.733	23512.22
518.935	23917.72
519.136	24026.26
519.338	24386.7
519.54	24179.86
519.742	24284.3
519.944	24732.81
520.146	25052.29
520.348	25400.44
520.55	25433.21
520.752	25545.85
520.954	26193.01
521.155	25771.13
521.357	26311.79
521.559	26547.31
521.761	27018.34
521.963	26983.52
522.164	26899.56
522.366	27135.07
522.568	27442.27
522.77	27427.93
522.971	28306.51
523.173	28064.85
523.375	28202.07
523.576	28234.83
523.778	28433.49
523.98	28574.8
524.181	28949.57
524.383	29031.49
524.584	29383.74
524.786	29234.24
524.988	29285.44
525.189	30114.87
525.391	29819.96
525.592	30037.05
525.794	30139.44
525.995	30258.23
526.197	30200.88
526.398	30231.6
526.6	30796.84
526.801	30725.16
527.003	31192.1
527.204	30669.87
527.406	31265.83
527.607	31284.26
527.808	31452.19
528.01	30940.2
528.211	31454.24
528.412	32105.49
528.614	31656.99
528.815	31616.03
529.016	32343.06
529.218	32074.77
529.419	31779.87
529.62	32406.55
529.822	32265.24
530.023	32263.19
530.224	32484.37
530.425	32252.95
530.626	32480.27
530.828	32181.27
531.029	33129.48
531.23	32549.9
531.431	32685.07
531.632	32984.07
531.833	33010.7
532.035	32785.42
532.236	32943.11
532.437	33373.19
532.638	33025.03
532.839	33373.19
533.04	33639.42
533.241	33070.09
533.442	33735.68
533.643	33371.14
533.844	33160.2
534.045	33504.26
534.246	33125.38
534.447	33893.37
534.648	33354.76
534.849	33856.51
535.05	33410.05
535.251	33530.88
535.451	33666.05
535.652	33934.33
535.853	33674.24
536.054	33612.8
536.255	33463.3
536.456	33528.83
536.657	34229.24
536.857	33672.19
537.058	33688.57
537.259	33750.01
537.46	33872.89
537.66	33917.95
537.861	33768.44
538.062	33545.22
538.263	33682.43
538.463	33471.49
538.664	33752.06
538.865	33969.15
539.065	34171.89
539.266	33801.21
539.466	34016.25
539.667	33473.54
539.868	33987.58
540.068	33410.05
540.269	33598.46
540.469	34194.42
540.67	33324.04
540.87	33623.04
541.071	33737.73
541.271	33876.99
541.472	33868.8
541.672	33627.13
541.873	33555.46
542.073	33397.76
542.274	34157.56
542.474	34151.41
542.675	33475.59
542.875	34028.54
543.075	33778.68
543.276	33278.98
543.476	33907.71
543.676	33575.94
543.877	33981.43
544.077	33776.64
544.277	33401.86
544.478	33483.78
544.678	33743.87
544.878	33715.2
545.078	33864.7
545.279	33682.43
545.479	33416.19
545.679	33760.25
545.879	33811.45
546.079	33317.89
546.28	33756.16
546.48	33111.05
546.68	33768.44
546.88	33780.73
547.08	33983.48
547.28	33702.91
547.48	33346.56
547.68	33440.77
547.88	33401.86
548.081	33766.4
548.281	33870.84
548.481	33610.75
548.681	33776.64
548.881	33336.32
549.081	33678.33
549.28	33514.5
549.48	33741.82
549.68	33018.89
549.88	34159.61
550.08	32832.52
550.28	33725.44
550.48	33252.36
550.68	33752.06
550.88	33231.88
551.08	33319.94
551.279	33590.27
551.479	33438.72
551.679	33588.22
551.879	33471.49
552.079	33606.66
552.278	33170.44
552.478	33156.1
552.678	33522.69
552.878	33416.19
553.077	33438.72
553.277	33078.28
553.477	33672.19
553.676	33004.55
553.876	33172.49
554.076	33258.5
554.275	33549.31
554.475	32791.56
554.674	33133.57
554.874	33172.49
555.074	32662.54
555.273	33147.91
555.473	32994.31
555.672	32930.83
555.872	33051.66
556.071	33022.98
556.271	33252.36
556.47	32951.31
556.67	32746.51
556.869	32787.47
557.068	32928.78
557.268	32642.06
557.467	32707.6
557.667	32594.96
557.866	32601.1
558.065	32347.15
558.265	32341.01
558.464	31917.08
558.663	32465.94
558.863	31939.61
559.062	32443.41
559.261	32011.29
559.461	32472.08
559.66	32087.06
559.859	31955.99
560.058	31886.36
560.258	32080.92
560.457	31468.58
560.656	31898.65
560.855	31669.28
561.054	31585.31
561.253	31468.58
561.453	31499.3
561.652	31468.58
561.851	31427.62
562.05	31403.04
562.249	31091.75
562.448	31740.96
562.647	31083.56
562.846	31159.33
563.045	31261.73
563.244	30686.25
563.443	31169.57
563.642	30657.58
563.841	31081.51
564.04	30555.18
564.239	30800.94
564.438	30506.03
564.637	30774.31
564.836	30417.97
565.035	30387.25
565.234	30272.56
565.432	29959.22
565.631	29918.26
565.83	30223.41
566.029	29875.26
566.228	29885.5
566.427	29989.94
566.625	29721.66
566.824	29318.21
567.023	29639.74
567.222	29328.45
567.42	29881.4
567.619	29627.45
567.818	29224
568.016	29215.81
568.215	29469.76
568.414	29350.98
568.612	29289.54
568.811	28857.42
569.01	29316.16
569.208	28486.73
569.407	29099.08
569.605	28224.59
569.804	28773.45
570.002	28017.75
570.201	28654.67
570.4	28150.87
570.598	28175.44
570.797	27874.39
570.995	28114
571.193	28021.84
571.392	28159.06
571.59	27559
571.789	27860.05
571.987	27229.28
572.186	27657.31
572.384	27104.35
572.582	27495.52
572.781	27436.13
572.979	27266.14
573.177	27237.47
573.376	27475.04
573.574	26815.59
573.772	27262.05
573.971	27063.4
574.169	26856.55
574.367	26449
574.565	26868.84
574.763	26242.16
574.962	26510.44
575.16	26082.42
575.358	26092.66
575.556	26074.23
575.754	26365.04
575.952	26307.69
576.151	26115.19
576.349	25824.37
576.547	25744.5
576.745	25980.02
576.943	25883.77
577.141	25607.29
577.339	25455.74
577.537	25197.7
577.735	25496.7
577.933	25287.81
578.131	25138.3
578.329	25300.09
578.527	24824.97
578.725	24947.84
578.923	25068.67
579.121	24992.9
579.319	24779.91
579.516	24542.35
579.714	24796.29
579.912	24802.44
580.11	24511.63
580.308	24491.15
580.506	24300.69
580.704	24075.41
580.901	24413.32
581.099	24525.96
581.297	24208.53
581.495	23760.02
581.692	23882.9
581.89	23962.77
582.088	23766.17
582.285	23614.62
582.483	23782.55
582.681	23723.16
582.878	23667.86
583.076	23231.65
583.274	23641.24
583.471	23321.76
583.669	23325.85
583.866	23250.08
584.064	23149.73
584.262	22840.48
584.459	23121.06
584.657	23116.96
584.854	23360.67
585.052	22682.79
585.249	23014.56
585.447	22584.49
585.644	22394.03
585.841	22578.34
586.039	22729.89
586.236	22447.27
586.434	22508.71
586.631	22391.98
586.828	22170.8
587.026	22312.11
587.223	22240.43
587.42	21974.19
587.618	22299.82
587.815	21736.63
588.012	21902.51
588.21	21767.35
588.407	22400.17
588.604	21591.22
588.801	21488.82
588.999	21503.16
589.196	21492.92
589.393	21445.82
589.59	21060.8
589.787	21261.5
589.984	21126.33
590.182	20896.96
590.379	21191.87
590.576	20802.75
590.773	20856
590.97	20681.92
591.167	20831.43
591.364	20536.52
591.561	20849.86
591.758	20434.12
591.955	20399.3
592.152	20544.71
592.349	20595.91
592.546	20509.9
592.743	20315.34
592.94	20128.97
593.137	20315.34
593.334	20249.8
593.531	19928.27
593.727	19774.67
593.924	19629.27
594.121	19864.78
594.318	19838.16
594.515	19539.16
594.712	20286.67
594.908	19653.84
595.105	19604.69
595.302	19342.55
595.499	19395.8
595.696	19291.35
595.892	19242.2
596.089	19336.41
596.286	19346.65
596.482	19043.55
596.679	19047.65
596.876	19021.02
597.072	19053.79
597.269	19037.41
597.466	18883.81
597.662	18928.86
597.859	18593
598.055	18779.36
598.252	18601.19
598.448	18539.75
598.645	18232.55
598.841	18287.85
599.038	18242.79
599.234	18189.55
599.431	18179.31
599.627	17966.32
599.824	18158.83
600.02	18099.44
600.217	18279.66
600.413	17984.75
600.609	18015.47
600.806	17616.12
601.002	17923.31
601.198	17878.26
601.395	17612.02
601.591	17493.24
601.787	17368.31
601.984	17464.57
602.18	17693.94
602.376	17413.37
602.572	17476.85
602.769	17278.2
602.965	17138.94
603.161	17241.34
603.357	17114.36
603.553	16966.91
603.75	16706.82
603.946	16780.54
604.142	16981.24
604.338	16794.88
604.534	16690.43
604.73	16393.48
604.926	16491.78
605.122	16698.63
605.318	16551.17
605.514	16553.22
605.71	16434.44
605.906	16098.57
606.102	16516.36
606.298	16520.45
606.494	16514.31
606.69	16362.76
606.886	16362.76
607.082	16063.75
607.278	16172.3
607.474	15940.88
607.67	16155.91
607.866	15740.18
608.062	16164.11
608.257	15674.64
608.453	15861.01
608.649	15551.76
608.845	15744.27
609.041	15615.25
609.236	15547.67
609.432	15553.81
609.628	15576.34
609.824	15490.32
610.019	15439.12
610.215	15582.48
610.411	15443.22
610.606	15496.47
610.802	15078.68
610.998	15324.44
611.193	15412.5
611.389	14904.6
611.584	15443.22
611.78	15062.3
611.976	15142.17
612.171	15207.7
612.367	15072.54
612.562	14769.44
612.758	15019.29
612.953	14857.5
613.149	15099.16
613.344	14994.72
613.539	15312.15
613.735	14816.54
613.93	14851.36
614.126	14904.6
614.321	14818.59
614.517	14656.8
614.712	14730.53
614.907	14538.02
615.103	14697.76
615.298	14507.3
615.493	14619.94
615.688	14478.63
615.884	14931.23
616.079	14497.06
616.274	14611.75
616.47	14390.56
616.665	14241.06
616.86	14271.78
617.055	14443.81
617.25	14187.82
617.445	14546.21
617.641	14134.57
617.836	14085.42
618.031	13968.68
618.226	14109.99
618.421	14011.69
618.616	13976.87
618.811	13647.15
619.006	13909.29
619.201	13661.49
619.396	13720.88
619.591	13632.82
619.786	13827.37
619.981	13329.72
620.176	13847.85
620.371	13432.12
620.566	13360.44
620.761	13548.85
620.956	13450.55
621.151	13104.44
621.346	13206.84
621.541	12979.51
621.735	13126.97
621.93	12754.24
622.125	12868.92
622.32	12543.3
622.515	12909.88
622.709	12844.35
622.904	12653.89
623.099	12389.7
623.294	12926.27
623.488	12248.39
623.683	12565.82
623.878	12277.06
624.072	12268.87
624.267	12225.86
624.462	12160.33
624.656	12098.89
624.851	12154.18
625.046	11705.68
625.24	11752.78
625.435	11693.39
625.629	11959.63
625.824	11621.71
626.018	11826.51
626.213	11357.52
626.407	11689.29
626.602	11496.78
626.796	11433.3
626.991	11421.01
627.185	11271.51
627.38	11099.48
627.574	11107.67
627.768	10835.29
627.963	11013.46
628.157	11046.23
628.352	10921.31
628.546	10601.82
628.74	10708.32
628.935	10634.59
629.129	10671.45
629.323	10478.94
629.517	10524
629.712	10417.51
629.906	10368.35
630.1	10243.43
630.294	10405.22
630.489	10229.09
630.683	10319.2
630.877	10091.88
631.071	9923.94
631.265	10050.92
631.459	9958.76
631.653	9880.94
631.848	9852.27
632.042	9796.97
632.236	9788.78
632.43	9680.24
632.624	9817.45
632.818	9600.37
633.012	9555.31
633.206	9510.25
633.4	9438.58
633.594	9461.1
633.788	9524.59
633.982	9506.16
634.176	9407.86
634.369	9235.83
634.563	9387.38
634.757	9057.65
634.951	9311.6
635.145	8889.72
635.339	9065.85
635.533	8826.23
635.726	8875.38
635.92	8715.64
636.114	8836.47
636.308	8906.1
636.501	8895.86
636.695	8766.84
636.889	8621.44
637.083	8572.29
637.276	8496.51
637.47	8437.12
637.664	8381.82
637.857	8469.89
638.051	8392.06
638.244	8304
638.438	8373.63
638.632	8240.51
638.825	8033.67
639.019	8158.6
639.212	8045.96
639.406	8021.38
639.599	7896.46
639.793	8013.19
639.986	7947.65
640.18	7896.46
640.373	7613.84
640.567	7744.91
640.76	7691.66
640.954	7656.84
641.147	7699.85
641.34	7538.06
641.534	7570.83
641.727	7509.39
641.92	7523.73
642.114	7558.54
642.307	7439.76
642.5	7339.41
642.694	7251.35
642.887	7150.99
643.08	7290.26
643.273	7058.84
643.467	7136.66
643.66	7083.41
643.853	7187.86
644.046	6903.19
644.239	6956.44
644.432	6956.44
644.626	7046.55
644.819	6890.9
645.012	6817.18
645.205	6892.95
645.398	6845.85
645.591	6485.41
645.784	6665.63
645.977	6774.17
646.17	6456.73
646.363	6682.01
646.556	6452.64
646.749	6405.53
646.942	6538.65
647.135	6442.4
647.328	6591.9
647.521	6387.1
647.714	6360.48
647.907	6303.14
648.099	6190.5
648.292	6135.2
648.485	6118.82
648.678	6206.88
648.871	6020.52
649.064	6018.47
649.256	6167.97
649.449	6053.28
649.642	5907.88
649.835	5959.08
650.027	5846.44
650.22	5793.19
650.413	5838.25
650.605	5930.41
650.798	5752.23
650.991	5766.57
651.183	5801.38
651.376	5688.75
651.568	5600.68
651.761	5647.79
651.954	5508.52
652.146	5467.56
652.339	5619.11
652.531	5498.28
652.724	5547.44
652.916	5322.16
653.109	5414.32
653.301	5440.94
653.494	5387.69
653.686	5150.13
653.879	5356.97
654.071	5146.03
654.263	5119.41
654.456	5273.01
654.648	5260.72
654.84	5082.55
655.033	5164.47
655.225	5070.26
655.417	5041.59
655.61	5084.59
655.802	4982.2
655.994	4986.29
656.186	5088.69
656.379	4945.33
656.571	4863.41
656.763	4767.16
656.955	4711.86
657.148	5010.87
657.34	4836.79
657.532	4775.35
657.724	4818.36
657.916	4703.67
658.108	4715.96
658.3	4666.81
658.492	4738.49
658.684	4642.23
658.876	4627.9
659.068	4634.04
659.26	4480.44
659.452	4619.71
659.644	4455.87
659.836	4521.4
660.028	4523.45
660.22	4484.54
660.412	4347.33
660.604	4480.44
660.796	4351.42
660.988	4318.65
661.18	4367.81
661.372	4300.22
661.563	4183.49
661.755	4193.73
661.947	4244.93
662.139	4103.62
662.331	4179.39
662.522	4070.85
662.714	4095.43
662.906	4167.1
663.097	4148.67
663.289	3966.4
663.481	4054.47
663.673	4052.42
663.864	4013.51
664.056	3921.35
664.247	3939.78
664.439	3917.25
664.631	4013.51
664.822	3718.6
665.014	4007.36
665.205	3945.92
665.397	3917.25
665.588	3833.29
665.78	3823.05
665.971	3718.6
666.163	3673.54
666.354	3739.08
666.546	3769.8
666.737	3812.81
666.929	3777.99
667.12	3655.11
667.311	3757.51
667.503	3669.45
667.694	3505.61
667.885	3565
668.077	3626.44
668.268	3538.38
668.459	3556.81
668.651	3409.36
668.842	3577.29
669.033	3452.36
669.224	3511.75
669.416	3438.03
669.607	3517.9
669.798	3415.5
669.989	3409.36
670.18	3493.32
670.371	3304.91
670.563	3360.2
670.754	3493.32
670.945	3292.62
671.136	3392.97
671.327	3282.38
671.518	3231.18
671.709	3177.94
671.9	3319.25
672.091	3395.02
672.282	3171.79
672.473	3245.52
672.664	3194.32
672.855	3106.26
673.046	3155.41
673.237	3038.67
673.428	3128.78
673.619	3110.35
673.809	3147.22
674	3114.45
674.191	3216.85
674.382	3167.7
674.573	2973.14
674.764	3130.83
674.954	3124.69
675.145	3050.96
675.336	3048.91
675.527	3055.06
675.717	2975.19
675.908	2917.84
676.099	3012.05
676.289	2801.11
676.48	2930.13
676.671	2991.57
676.861	2862.55
677.052	2897.36
677.243	2899.41
677.433	2768.34
677.624	2921.94
677.814	2754.01
678.005	2858.45
678.195	2923.99
678.386	2784.73
678.576	2797.01
678.767	2782.68
678.957	2756.05
679.148	2821.59
679.338	2815.45
679.529	2907.6
679.719	2747.86
679.909	2754.01
680.1	2860.5
680.29	2700.76
680.481	2760.15
680.671	2794.97
680.861	2624.98
681.052	2696.66
681.242	2579.93
681.432	2741.72
681.622	2690.52
681.813	2708.95
682.003	2618.84
682.193	2608.6
682.383	2616.79
682.573	2688.47
682.764	2614.74
682.954	2676.18
683.144	2596.31
683.334	2725.33
683.524	2575.83
683.714	2606.55
683.904	2610.65
684.094	2614.74
684.284	2706.9
684.474	2516.44
684.664	2680.28
684.854	2399.71
685.044	2489.82
685.234	2455
685.424	2444.76
685.614	2409.95
685.804	2596.31
685.994	2463.19
686.184	2487.77
686.374	2565.59
686.564	2594.26
686.753	2387.42
686.943	2360.8
687.133	2440.67
687.323	2463.19
687.513	2508.25
687.702	2508.25
687.892	2360.8
688.082	2368.99
688.272	2483.67
688.461	2471.39
688.651	2450.91
688.841	2328.03
689.03	2258.4
689.22	2340.32
689.41	2299.36
689.599	2254.3
689.789	2377.18
689.979	2315.74
690.168	2332.12
690.358	2205.15
690.547	2350.56
690.737	2231.77
690.926	2254.3
691.116	2156
691.305	2219.49
691.495	2350.56
691.684	2119.14
691.874	2168.29
692.063	2311.64
692.252	2211.29
692.442	2250.21
692.631	2203.1
692.82	2174.43
693.01	2108.9
693.199	2188.77
693.388	2174.43
693.578	2211.29
693.767	2145.76
693.956	2125.28
694.146	2129.38
694.335	2158.05
694.524	2143.71
694.713	2084.32
694.902	2131.42
695.092	2119.14
695.281	2127.33
695.47	2080.22
695.659	2084.32
695.848	2026.98
696.037	2156
696.226	2184.67
696.415	2190.81
696.604	2217.44
696.793	2043.36
696.982	2110.94
697.171	2178.53
697.36	2135.52
697.549	2129.38
697.738	2043.36
697.927	2053.6
698.116	2143.71
698.305	2106.85
698.494	1998.31
698.683	2057.7
698.872	2127.33
699.061	2082.27
699.25	2082.27
699.438	2072.03
699.627	2033.12
699.816	2086.37
700.005	2129.38
700.193	2106.85
700.382	2164.19
700.571	2180.57
700.76	2086.37
700.948	2102.75
701.137	2119.14
701.326	2196.96
701.514	2108.9
701.703	2158.05
701.892	2090.46
702.08	2133.47
702.269	2160.1
702.457	2104.8
702.646	2170.33
702.834	2098.66
703.023	2082.27
703.212	2078.18
703.4	2096.61
703.589	2098.66
703.777	2078.18
703.965	2047.46
704.154	2135.52
704.342	2199.01
704.531	2088.42
704.719	2055.65
704.907	2024.93
705.096	2076.13
705.284	2069.98
705.472	2102.75
705.661	2037.22
705.849	2252.25
706.037	2018.79
706.226	2137.57
706.414	2129.38
706.602	2014.69
706.79	2098.66
706.979	2069.98
707.167	2020.83
707.355	2098.66
707.543	2112.99
707.731	2076.13
707.919	2072.03
708.107	2108.9
708.296	2139.62
708.484	2088.42
708.672	2147.81
708.86	2004.45
709.048	2221.53
709.236	2094.56
709.424	2026.98
709.612	2020.83
709.8	2086.37
709.988	2127.33
710.176	2139.62
710.364	2094.56
710.551	2049.5
710.739	2100.7
710.927	2121.18
711.115	2133.47
711.303	2092.51
711.491	1981.92
711.679	2031.07
711.866	2061.79
712.054	2067.94
712.242	2063.84
712.43	2153.95
712.617	2016.74
712.805	2141.66
712.993	2100.7
713.181	1971.68
713.368	2080.22
713.556	2215.39
713.744	1904.1
713.931	1990.11
714.119	2035.17
714.306	2127.33
714.494	2035.17
714.682	2084.32
714.869	2053.6
715.057	2067.94
715.244	1969.63
715.432	2037.22
715.619	2100.7
715.807	2069.98
715.994	2047.46
716.182	2096.61
716.369	2153.95
716.556	2106.85
716.744	2096.61
716.931	2074.08
717.119	2053.6
717.306	2010.59
717.493	2104.8
717.681	2051.55
717.868	1971.68
718.055	2043.36
718.242	2098.66
718.43	1981.92
718.617	2160.1
718.804	2131.42
718.991	2043.36
719.179	2061.79
719.366	2037.22
719.553	2008.55
719.74	2080.22
719.927	2012.64
720.114	2096.61
720.301	2094.56
720.488	1996.26
720.676	1897.96
720.863	1988.07
721.05	2004.45
721.237	1983.97
721.424	2033.12
721.611	1981.92
721.798	1959.39
721.985	2063.84
722.172	2108.9
722.358	1981.92
722.545	1975.78
722.732	2031.07
722.919	1994.21
723.106	1947.11
723.293	2043.36
723.48	2176.48
723.667	1951.2
723.853	1969.63
724.04	1967.59
724.227	2020.83
724.414	2043.36
724.6	2002.4
724.787	2053.6
724.974	1981.92
725.161	2035.17
725.347	1957.35
725.534	1926.63
725.72	1916.39
725.907	1959.39
726.094	2004.45
726.28	1902.05
726.467	1979.87
726.653	1973.73
726.84	1973.73
727.027	2006.5
727.213	1828.32
727.4	1998.31
727.586	2037.22
727.773	2016.74
727.959	1949.15
728.145	1897.96
728.332	2059.74
728.518	1990.11
728.705	1979.87
728.891	1990.11
729.077	1932.77
729.264	1902.05
729.45	1947.11
729.636	1953.25
729.823	1971.68
730.009	1983.97
730.195	1940.96
730.382	1887.72
730.568	1967.59
730.754	1916.39
730.94	1857
731.126	1996.26
731.313	1924.58
731.499	1895.91
731.685	1889.76
731.871	1764.84
732.057	1943.01
732.243	2010.59
732.429	1832.42
732.615	1971.68
732.801	1854.95
732.987	1887.72
733.173	1854.95
733.359	1816.04
733.545	1830.37
733.731	1766.89
733.917	1889.76
734.103	1904.1
734.289	1799.65
734.475	1861.09
734.661	1793.51
734.847	1988.07
735.033	1848.8
735.219	1895.91
735.404	1916.39
735.59	1869.28
735.776	1807.84
735.962	1908.19
736.148	1816.04
736.333	1873.38
736.519	1750.5
736.705	1922.53
736.89	1809.89
737.076	1900
737.262	1871.33
737.447	1775.08
737.633	1732.07
737.819	1730.02
738.004	1791.46
738.19	1816.04
738.375	1764.84
738.561	1863.14
738.747	1803.75
738.932	1811.94
739.118	1797.6
739.303	1813.99
739.489	1768.93
739.674	1668.58
739.859	1746.41
740.045	1844.71
740.23	1684.97
740.416	1738.21
740.601	1813.99
740.786	1670.63
740.972	1621.48
741.157	1746.41
741.342	1660.39
741.528	1689.06
741.713	1713.64
741.898	1664.49
742.084	1654.25
742.269	1734.12
742.454	1738.21
742.639	1590.76
742.824	1566.18
743.01	1662.44
743.195	1662.44
743.38	1613.29
743.565	1670.63
743.75	1656.29
743.935	1635.82
744.12	1635.82
744.305	1623.53
744.49	1668.58
744.675	1557.99
744.86	1560.04
745.045	1598.95
745.23	1535.46
745.415	1531.37
745.6	1535.46
745.785	1539.56
745.97	1588.71
746.155	1451.5
746.34	1584.62
746.525	1527.27
746.71	1533.42
746.895	1525.22
747.079	1373.68
747.264	1422.83
747.449	1445.35
747.634	1400.3
747.819	1496.55
748.003	1426.92
748.188	1443.31
748.373	1510.89
748.557	1435.11
748.742	1398.25
748.927	1385.96
749.111	1379.82
749.296	1367.53
749.481	1316.33
749.665	1365.48
749.85	1310.19
750.034	1340.91
750.219	1332.72
750.404	1385.96
750.588	1279.47
750.773	1326.57
750.957	1299.95
751.141	1381.87
751.326	1357.29
751.51	1314.28
751.695	1273.32
751.879	1263.08
752.064	1218.03
752.248	1215.98
752.432	1218.03
752.617	1211.89
752.801	1263.08
752.985	1324.52
753.17	1234.41
753.354	1238.51
753.538	1269.23
753.722	1154.54
753.907	1289.71
754.091	1164.78
754.275	1154.54
754.459	1222.13
754.643	1177.07
754.828	1125.87
755.012	1134.06
755.196	1076.72
755.38	1136.11
755.564	1058.29
755.748	986.61
755.932	1054.19
756.116	1123.82
756.3	1162.73
756.484	1050.1
756.668	1103.34
756.852	1048.05
757.036	1070.58
757.22	988.66
757.404	1037.81
757.588	1021.42
757.772	992.75
757.956	1002.99
758.14	1041.9
758.323	996.85
758.507	1056.24
758.691	953.84
758.875	955.89
759.059	1035.76
759.242	992.75
759.426	919.03
759.61	898.55
759.794	890.35
759.977	980.47
760.161	933.36
760.345	947.7
760.528	992.75
760.712	978.42
760.895	931.31
761.079	927.22
761.263	933.36
761.446	841.2
761.63	916.98
761.813	935.41
761.997	980.47
762.18	900.59
762.364	847.35
762.547	894.45
762.731	884.21
762.914	767.48
763.098	820.72
763.281	830.96
763.464	906.74
763.648	873.97
763.831	833.01
764.015	851.44
764.198	841.2
764.381	749.04
764.564	824.82
764.748	830.96
764.931	779.76
765.114	851.44
765.297	783.86
765.481	853.49
765.664	886.26
765.847	902.64
766.03	873.97
766.213	781.81
766.397	867.83
766.58	712.18
766.763	847.35
766.946	777.72
767.129	794.1
767.312	773.62
767.495	841.2
767.678	712.18
767.861	779.76
768.044	740.85
768.227	796.15
768.41	757.24
768.593	775.67
768.776	787.96
768.959	865.78
769.142	736.76
769.324	785.91
769.507	839.16
769.69	728.56
769.873	769.52
770.056	726.52
770.239	769.52
770.421	775.67
770.604	747
770.787	781.81
770.97	802.29
771.152	742.9
771.335	697.85
771.518	710.13
771.7	779.76
771.883	767.48
772.066	695.8
772.248	738.8
772.431	658.93
772.613	706.04
772.796	654.84
772.978	730.61
773.161	706.04
773.343	640.5
773.526	718.33
773.708	599.54
773.891	636.41
774.073	679.41
774.256	693.75
774.438	656.89
774.621	601.59
774.803	677.37
774.985	652.79
775.168	605.69
775.35	710.13
775.532	650.74
775.715	665.08
775.897	650.74
776.079	636.41
776.261	636.41
776.444	499.19
776.626	611.83
776.808	538.1
776.99	712.18
777.173	656.89
777.355	579.06
777.537	665.08
777.719	648.69
777.901	599.54
778.083	536.06
778.265	519.67
778.447	601.59
778.629	546.3
778.811	579.06
778.993	603.64
779.175	523.77
779.357	579.06
779.539	435.71
779.721	564.73
779.903	505.34
780.085	599.54
780.267	538.1
780.449	472.57
780.631	566.78
780.812	550.39
780.994	480.76
781.176	583.16
781.358	566.78
781.54	513.53
781.721	515.58
781.903	531.96
782.085	458.23
782.267	538.1
782.448	534.01
782.63	476.66
782.812	513.53
782.993	491
783.175	517.62
783.357	417.27
783.538	445.95
783.72	450.04
783.901	462.33
784.083	507.38
784.264	548.34
784.446	458.23
784.627	343.55
784.809	482.81
784.99	462.33
785.172	407.03
785.353	374.27
785.535	484.86
785.716	439.8
785.897	411.13
786.079	364.03
786.26	443.9
786.441	464.38
786.623	421.37
786.804	415.23
786.985	384.51
787.167	374.27
787.348	355.83
787.529	394.75
787.71	456.19
787.891	351.74
788.073	366.07
788.254	333.31
788.435	425.47
788.616	378.36
788.797	335.35
788.978	325.12
789.159	310.78
789.34	347.64
789.522	394.75
789.703	306.68
789.884	321.02
790.065	335.35
790.246	355.83
790.427	294.4
790.607	382.46
790.788	341.5
790.969	304.64
791.15	316.92
791.331	321.02
791.512	314.88
791.693	308.73
791.874	280.06
792.054	337.4
792.235	347.64
792.416	228.86
792.597	310.78
792.778	292.35
792.958	300.54
793.139	273.92
793.32	349.69
793.5	323.07
793.681	290.3
793.862	257.53
794.042	310.78
794.223	271.87
794.404	345.59
794.584	257.53
794.765	144.89
794.945	249.34
795.126	275.96
795.306	267.77
795.487	247.29
795.667	282.11
795.848	257.53
796.028	302.59
796.209	298.49
796.389	259.58
796.57	226.81
796.75	302.59
796.93	243.2
797.111	224.76
797.291	265.72
797.471	271.87
797.652	208.38
797.832	353.79
798.012	321.02
798.192	218.62
798.373	179.71
798.553	255.48
798.733	282.11
798.913	140.8
799.093	269.82
799.274	263.68
799.454	239.1
799.634	296.44
799.814	275.96
799.994	247.29
800.174	253.44
800.354	189.95
800.534	181.76
800.714	204.28
800.894	216.57
801.074	177.66
801.254	183.81
801.434	294.4
801.614	226.81
801.794	159.23
801.974	617.97
802.154	235
802.334	243.2
802.514	155.13
802.693	241.15
802.873	206.33
803.053	192
803.233	292.35
803.413	210.43
803.592	208.38
803.772	136.7
803.952	185.85
804.131	120.32
804.311	177.66
804.491	218.62
804.67	138.75
804.85	222.72
805.03	169.47
805.209	189.95
805.389	200.19
805.568	230.91
805.748	179.71
805.928	214.52
806.107	103.93
806.287	112.13
806.466	183.81
806.646	163.33
806.825	181.76
807.004	169.47
807.184	173.57
807.363	128.51
807.543	198.14
807.722	163.33
807.901	218.62
808.081	212.48
808.26	194.05
808.439	259.58
808.619	204.28
808.798	105.98
808.977	192
809.156	175.61
809.336	173.57
809.515	257.53
809.694	122.37
809.873	144.89
810.052	165.37
810.231	241.15
810.411	134.65
810.59	132.61
810.769	128.51
810.948	206.33
811.127	105.98
811.306	173.57
811.485	157.18
811.664	198.14
811.843	110.08
812.022	148.99
812.201	157.18
812.38	241.15
812.559	110.08
812.737	222.72
812.916	89.6
813.095	214.52
813.274	167.42
813.453	192
813.632	183.81
813.811	167.42
813.989	142.85
814.168	122.37
814.347	185.85
814.526	97.79
814.704	81.41
814.883	173.57
815.062	151.04
815.24	114.17
815.419	130.56
815.598	230.91
815.776	126.46
815.955	118.27
816.133	62.98
816.312	93.69
816.49	91.65
816.669	128.51
816.847	93.69
817.026	181.76
817.204	112.13
817.383	144.89
817.561	87.55
817.74	153.09
817.918	173.57
818.097	138.75
818.275	87.55
818.453	179.71
818.632	183.81
818.81	128.51
818.988	95.74
819.167	108.03
819.345	140.8
819.523	110.08
819.701	169.47
819.879	114.17
820.058	81.41
820.236	128.51
820.414	155.13
820.592	116.22
820.77	99.84
820.948	114.17
821.127	128.51
821.305	110.08
821.483	136.7
821.661	128.51
821.839	220.67
822.017	167.42
822.195	65.02
822.373	155.13
822.551	81.41
822.729	83.45
822.907	130.56
823.085	62.98
823.262	67.07
823.44	71.17
823.618	54.78
823.796	97.79
823.974	138.75
824.152	73.21
824.329	40.45
824.507	126.46
824.685	112.13
824.863	163.33
825.04	22.02
825.218	65.02
825.396	50.69
825.574	112.13
825.751	54.78
825.929	116.22
826.107	50.69
826.284	65.02
826.462	99.84
826.639	89.6
826.817	146.94
826.994	19.97
827.172	65.02
827.349	73.21
827.527	26.11
827.704	67.07
827.882	140.8
828.059	60.93
828.237	93.69
828.414	101.89
828.591	142.85
828.769	165.37
828.946	24.06
829.124	103.93
829.301	140.8
829.478	122.37
829.655	52.74
829.833	110.08
830.01	44.54
830.187	136.7
830.364	85.5
830.542	146.94
830.719	108.03
830.896	81.41
831.073	81.41
831.25	99.84
831.427	58.88
831.604	85.5
831.782	42.5
831.959	108.03
832.136	73.21
832.313	34.3
832.49	75.26
832.667	19.97
832.844	87.55
833.021	81.41
833.198	52.74
833.374	103.93
833.551	97.79
833.728	71.17
833.905	134.65
834.082	-2.56
834.259	87.55
834.436	140.8
834.612	13.82
834.789	89.6
834.966	144.89
835.143	89.6
835.319	-14.85
835.496	36.35
835.673	118.27
835.85	114.17
836.026	62.98
836.203	114.17
836.38	108.03
836.556	95.74
836.733	77.31
836.909	142.85
837.086	85.5
837.262	58.88
837.439	46.59
837.616	22.02
837.792	95.74
837.968	159.23
838.145	-55.81
838.321	112.13
838.498	134.65
838.674	44.54
838.851	58.88
839.027	44.54
839.203	17.92
839.38	108.03
839.556	19.97
839.732	30.21
839.909	52.74
840.085	83.45
840.261	54.78
840.437	83.45
840.614	50.69
840.79	114.17
840.966	40.45
841.142	95.74
841.318	42.5
841.494	99.84
841.671	67.07
841.847	36.35
842.023	30.21
842.199	120.32
842.375	50.69
842.551	24.06
842.727	44.54
842.903	130.56
843.079	44.54
843.255	71.17
843.431	11.78
843.607	44.54
843.783	87.55
843.959	38.4
844.134	19.97
844.31	99.84
844.486	58.88
844.662	22.02
844.838	50.69
845.013	56.83
845.189	110.08
845.365	17.92
845.541	38.4
845.716	36.35
845.892	99.84
846.068	-18.94
846.244	85.5
846.419	9.73
846.595	67.07
846.77	48.64
846.946	-14.85
847.122	11.78
847.297	19.97
847.473	81.41
847.648	40.45
847.824	60.93
847.999	58.88
848.175	101.89
848.35	73.21
848.526	85.5
848.701	62.98
848.876	50.69
849.052	93.69
849.227	69.12
849.403	22.02
849.578	91.65
849.753	7.68
849.929	110.08
850.104	-43.52
850.279	5.63
850.454	26.11
850.63	46.59
850.805	103.93
850.98	9.73
851.155	28.16
851.33	103.93
851.505	38.4
851.681	62.98
851.856	-14.85
852.031	89.6
852.206	-61.95
852.381	85.5
852.556	5.63
852.731	95.74
852.906	46.59
853.081	-2.56
853.256	32.26
853.431	28.16
853.606	24.06
853.781	28.16
853.956	-53.76
854.131	42.5
854.305	-6.66
854.48	-53.76
854.655	-88.57
854.83	36.35
855.005	7.68
855.18	48.64
855.354	42.5
855.529	-6.66
855.704	17.92
855.879	24.06
856.053	-49.66
856.228	5.63
856.403	22.02
856.577	7.68
856.752	116.22
856.926	28.16
857.101	-55.81
857.276	91.65
857.45	44.54
857.625	40.45
857.799	-31.23
857.974	73.21
858.148	-27.14
858.323	132.61
858.497	60.93
858.672	-6.66
858.846	-66.05
859.02	44.54
859.195	73.21
859.369	-14.85
859.543	30.21
859.718	105.98
859.892	-72.19
860.066	42.5
860.241	105.98
860.415	9.73
860.589	36.35
860.763	50.69
860.938	-8.7
861.112	95.74
861.286	-2.56
861.46	46.59
861.634	38.4
861.808	34.3
861.982	-51.71
862.157	30.21
862.331	22.02
862.505	-12.8
862.679	-10.75
862.853	79.36
863.027	54.78
863.201	42.5
863.375	24.06
863.549	-4.61
863.722	71.17
863.896	138.75
864.07	15.87
864.244	19.97
864.418	-16.9
864.592	-33.28
864.766	-31.23
864.939	30.21
865.113	56.83
865.287	38.4
865.461	17.92
865.634	19.97
865.808	15.87
865.982	19.97
866.156	7.68
866.329	-12.8
866.503	38.4
866.676	54.78
866.85	38.4
867.024	128.51
867.197	30.21
867.371	15.87
867.544	9.73
867.718	52.74
867.891	28.16
868.065	26.11
868.238	15.87
868.412	26.11
868.585	99.84
868.759	44.54
868.932	56.83
869.105	24.06
869.279	-31.23
869.452	-6.66
869.625	34.3
869.799	28.16
869.972	-45.57
870.145	38.4
870.319	5.63
870.492	58.88
870.665	24.06
870.838	-18.94
871.011	-4.61
871.185	24.06
871.358	24.06
871.531	38.4
871.704	-20.99
871.877	50.69
872.05	58.88
872.223	-10.75
872.396	-4.61
872.569	-14.85
872.742	19.97
872.915	75.26
873.088	-8.7
873.261	93.69
873.434	40.45
873.607	-0.51
873.78	1.54
873.953	112.13
874.126	22.02
874.299	-16.9
874.471	-14.85
874.644	38.4
874.817	11.78
874.99	15.87
875.163	56.83
875.335	34.3
875.508	67.07
875.681	24.06
875.853	-20.99
876.026	-6.66
876.199	79.36
876.371	40.45
876.544	17.92
876.717	-0.51
876.889	3.58
877.062	99.84
877.234	-16.9
877.407	-18.94
877.579	69.12
877.752	42.5
877.924	60.93
878.097	58.88
878.269	-31.23
878.442	85.5
878.614	60.93
878.786	32.26
878.959	26.11
879.131	58.88
879.303	26.11
879.476	5.63
879.648	-55.81
879.82	44.54
879.993	50.69
880.165	9.73
880.337	17.92
880.509	46.59
880.681	9.73
880.854	58.88
881.026	19.97
881.198	85.5
881.37	54.78
881.542	-27.14
881.714	56.83
881.886	56.83
882.058	5.63
882.23	13.82
882.402	58.88
882.574	17.92
882.746	42.5
882.918	-10.75
883.09	7.68
883.262	50.69
883.434	-92.67
883.606	93.69
883.778	17.92
883.95	30.21
884.122	54.78
884.293	32.26
884.465	19.97
884.637	42.5
884.809	-4.61
884.98	15.87
885.152	-84.48
885.324	56.83
885.496	-31.23
885.667	5.63
885.839	5.63
886.011	99.84
886.182	17.92
886.354	26.11
886.525	1.54
886.697	58.88
886.869	34.3
887.04	-16.9
887.212	73.21
887.383	17.92
887.555	73.21
887.726	9.73
887.897	-14.85
888.069	-45.57
888.24	65.02
888.412	19.97
888.583	17.92
888.754	19.97
888.926	-35.33
889.097	-0.51
889.268	3.58
889.44	-39.42
889.611	71.17
889.782	-20.99
889.953	-27.14
890.125	28.16
890.296	28.16
890.467	19.97
890.638	34.3
890.809	-10.75
890.98	5.63
891.151	-16.9
891.323	17.92
891.494	-49.66
891.665	-74.24
891.836	19.97
892.007	-16.9
892.178	-70.14
892.349	5.63
892.52	13.82
892.691	-4.61
892.862	73.21
893.032	-8.7
893.203	44.54
893.374	22.02
893.545	17.92
893.716	9.73
893.887	-8.7
894.057	11.78
894.228	-0.51
894.399	-16.9
894.57	17.92
894.74	-49.66
894.911	17.92
895.082	-31.23
895.253	-12.8
895.423	17.92
895.594	-0.51
895.764	30.21
895.935	-0.51
896.106	-45.57
896.276	-35.33
896.447	50.69
896.617	13.82
896.788	-2.56
896.958	-27.14
897.129	-31.23
897.299	9.73
897.47	26.11
897.64	-41.47
897.81	9.73
897.981	89.6
898.151	3.58
898.322	79.36
898.492	28.16
898.662	42.5
898.832	-8.7
899.003	-14.85
899.173	13.82
899.343	-16.9
899.513	13.82
