Data from USB4F104151__2__11-04-29-737.txt Node

Date: Wed Mar 12 11:04:29 EDT 2025
User: louis
Spectrometer: USB4F10415
Trigger mode: 4
Integration Time (sec): 2.000000E-2
Scans to average: 1
Electric dark correction enabled: true
Nonlinearity correction enabled: false
Boxcar width: 0
XAxis mode: Wavelengths
Number of Pixels in Spectrum: 3648
>>>>>Begin Spectral Data<<<<<
178.204	-69.8
178.424	-69.8
178.644	-69.8
178.864	-90.28
179.084	-94.38
179.304	-63.66
179.524	44.88
179.744	22.36
179.964	-34.99
180.184	1.88
180.404	-0.17
180.624	40.79
180.844	30.55
181.064	-30.89
181.283	-20.65
181.503	24.4
181.723	-14.51
181.943	-63.66
182.163	48.98
182.383	20.31
182.602	-30.89
182.822	59.22
183.042	-28.84
183.262	-39.08
183.482	-49.32
183.701	8.02
183.921	24.4
184.141	14.17
184.361	40.79
184.58	-41.13
184.8	-51.37
185.02	-24.75
185.239	-12.46
185.459	-0.17
185.679	42.84
185.898	-32.94
186.118	-12.46
186.338	61.27
186.557	-6.31
186.777	20.31
186.997	63.32
187.216	16.21
187.436	14.17
187.655	36.69
187.875	10.07
188.095	20.31
188.314	18.26
188.534	100.18
188.753	57.17
188.973	20.31
189.192	46.93
189.412	-53.42
189.631	16.21
189.851	-26.79
190.07	48.98
190.29	42.84
190.509	53.08
190.729	-61.61
190.948	20.31
191.168	44.88
191.387	34.64
191.607	10.07
191.826	79.7
192.045	-6.31
192.265	-55.47
192.484	8.02
192.704	-10.41
192.923	55.12
193.142	44.88
193.362	26.45
193.581	65.36
193.8	-4.27
194.02	-18.6
194.239	14.17
194.458	-12.46
194.678	55.12
194.897	28.5
195.116	67.41
195.335	-20.65
195.555	73.56
195.774	36.69
195.993	26.45
196.212	-30.89
196.432	-20.65
196.651	16.21
196.87	18.26
197.089	-10.41
197.308	34.64
197.528	46.93
197.747	-63.66
197.966	18.26
198.185	1.88
198.404	-28.84
198.623	40.79
198.842	65.36
199.062	126.8
199.281	130.9
199.5	-30.89
199.719	16.21
199.938	73.56
200.157	79.7
200.376	36.69
200.595	73.56
200.814	22.36
201.033	40.79
201.252	53.08
201.471	-0.17
201.69	-8.36
201.909	44.88
202.128	51.03
202.347	73.56
202.566	5.97
202.785	-4.27
203.004	-41.13
203.223	24.4
203.442	-2.22
203.661	44.88
203.879	-49.32
204.098	67.41
204.317	-8.36
204.536	-0.17
204.755	81.75
204.974	46.93
205.193	106.32
205.411	46.93
205.63	24.4
205.849	14.17
206.068	46.93
206.287	-14.51
206.505	73.56
206.724	26.45
206.943	46.93
207.162	16.21
207.381	1.88
207.599	-49.32
207.818	26.45
208.037	59.22
208.255	24.4
208.474	20.31
208.693	20.31
208.911	-12.46
209.13	38.74
209.349	12.12
209.567	36.69
209.786	63.32
210.005	-8.36
210.223	-0.17
210.442	-77.99
210.661	-4.27
210.879	5.97
211.098	67.41
211.316	-34.99
211.535	61.27
211.753	-26.79
211.972	28.5
212.191	44.88
212.409	22.36
212.628	46.93
212.846	-4.27
213.065	36.69
213.283	65.36
213.502	-2.22
213.72	53.08
213.938	-16.55
214.157	32.6
214.375	61.27
214.594	1.88
214.812	53.08
215.031	12.12
215.249	10.07
215.467	38.74
215.686	83.8
215.904	73.56
216.122	-12.46
216.341	16.21
216.559	32.6
216.778	46.93
216.996	-22.7
217.214	32.6
217.432	-34.99
217.651	-41.13
217.869	28.5
218.087	75.6
218.306	91.99
218.524	-20.65
218.742	-73.9
218.96	3.93
219.179	67.41
219.397	-4.27
219.615	22.36
219.833	5.97
220.051	48.98
220.27	65.36
220.488	61.27
220.706	3.93
220.924	-45.23
221.142	-24.75
221.36	22.36
221.578	-32.94
221.796	-18.6
222.015	-10.41
222.233	-45.23
222.451	40.79
222.669	1.88
222.887	-20.65
223.105	-12.46
223.323	-18.6
223.541	32.6
223.759	48.98
223.977	22.36
224.195	81.75
224.413	-14.51
224.631	40.79
224.849	14.17
225.067	18.26
225.285	-14.51
225.503	30.55
225.721	-67.75
225.939	-37.03
226.157	38.74
226.375	71.51
226.592	-0.17
226.81	3.93
227.028	34.64
227.246	8.02
227.464	14.17
227.682	32.6
227.9	24.4
228.117	22.36
228.335	-32.94
228.553	71.51
228.771	89.94
228.989	8.02
229.206	-8.36
229.424	-2.22
229.642	3.93
229.86	-12.46
230.077	36.69
230.295	42.84
230.513	59.22
230.731	-10.41
230.948	12.12
231.166	46.93
231.384	67.41
231.601	-34.99
231.819	22.36
232.037	10.07
232.254	53.08
232.472	-4.27
232.689	-34.99
232.907	32.6
233.125	14.17
233.342	36.69
233.56	-12.46
233.777	3.93
233.995	3.93
234.213	18.26
234.43	8.02
234.648	16.21
234.865	85.84
235.083	114.52
235.3	57.17
235.518	1.88
235.735	40.79
235.953	73.56
236.17	65.36
236.388	30.55
236.605	-0.17
236.822	118.61
237.04	75.6
237.257	59.22
237.475	65.36
237.692	10.07
237.909	34.64
238.127	36.69
238.344	20.31
238.562	16.21
238.779	-16.55
238.996	5.97
239.214	32.6
239.431	100.18
239.648	-6.31
239.865	-10.41
240.083	10.07
240.3	-8.36
240.517	34.64
240.735	12.12
240.952	55.12
241.169	28.5
241.386	-0.17
241.603	20.31
241.821	-20.65
242.038	20.31
242.255	59.22
242.472	48.98
242.689	5.97
242.907	3.93
243.124	28.5
243.341	46.93
243.558	53.08
243.775	3.93
243.992	-18.6
244.209	24.4
244.426	63.32
244.643	10.07
244.86	30.55
245.078	-4.27
245.295	-24.75
245.512	28.5
245.729	-55.47
245.946	89.94
246.163	42.84
246.38	8.02
246.597	-22.7
246.814	34.64
247.031	-20.65
247.248	94.04
247.464	-43.18
247.681	65.36
247.898	57.17
248.115	8.02
248.332	22.36
248.549	-28.84
248.766	48.98
248.983	16.21
249.2	1.88
249.417	24.4
249.633	10.07
249.85	36.69
250.067	22.36
250.284	-86.19
250.501	65.36
250.717	42.84
250.934	-39.08
251.151	32.6
251.368	26.45
251.585	55.12
251.801	10.07
252.018	38.74
252.235	53.08
252.451	83.8
252.668	65.36
252.885	40.79
253.102	-71.85
253.318	3.93
253.535	8.02
253.752	1.88
253.968	30.55
254.185	-22.7
254.401	67.41
254.618	-12.46
254.835	-32.94
255.051	38.74
255.268	12.12
255.484	14.17
255.701	-18.6
255.917	12.12
256.134	57.17
256.351	63.32
256.567	42.84
256.784	5.97
257	-12.46
257.217	63.32
257.433	16.21
257.65	67.41
257.866	-4.27
258.082	22.36
258.299	24.4
258.515	1.88
258.732	-47.27
258.948	-2.22
259.165	-37.03
259.381	32.6
259.597	18.26
259.814	106.32
260.03	22.36
260.246	-12.46
260.463	-51.37
260.679	81.75
260.895	22.36
261.112	12.12
261.328	-8.36
261.544	85.84
261.761	65.36
261.977	100.18
262.193	10.07
262.409	85.84
262.626	-8.36
262.842	32.6
263.058	24.4
263.274	14.17
263.49	46.93
263.707	36.69
263.923	10.07
264.139	-47.27
264.355	-43.18
264.571	36.69
264.787	20.31
265.004	34.64
265.22	32.6
265.436	34.64
265.652	12.12
265.868	59.22
266.084	69.46
266.3	12.12
266.516	-32.94
266.732	-0.17
266.948	-10.41
267.164	53.08
267.38	65.36
267.596	14.17
267.812	24.4
268.028	1.88
268.244	36.69
268.46	34.64
268.676	10.07
268.892	30.55
269.108	48.98
269.324	-26.79
269.54	12.12
269.756	-45.23
269.972	-0.17
270.188	57.17
270.403	1.88
270.619	-2.22
270.835	-12.46
271.051	-32.94
271.267	-6.31
271.483	44.88
271.698	38.74
271.914	36.69
272.13	79.7
272.346	65.36
272.562	-22.7
272.777	67.41
272.993	1.88
273.209	5.97
273.425	69.46
273.64	-28.84
273.856	-6.31
274.072	-20.65
274.287	1.88
274.503	87.89
274.719	5.97
274.934	57.17
275.15	38.74
275.366	32.6
275.581	61.27
275.797	94.04
276.012	-65.71
276.228	-41.13
276.444	53.08
276.659	44.88
276.875	59.22
277.09	40.79
277.306	5.97
277.521	28.5
277.737	16.21
277.952	91.99
278.168	106.32
278.383	-14.51
278.599	-8.36
278.814	51.03
279.03	8.02
279.245	-32.94
279.461	40.79
279.676	94.04
279.892	-65.71
280.107	1.88
280.322	-0.17
280.538	10.07
280.753	-22.7
280.969	8.02
281.184	8.02
281.399	34.64
281.615	48.98
281.83	61.27
282.045	40.79
282.26	26.45
282.476	5.97
282.691	32.6
282.906	89.94
283.122	46.93
283.337	3.93
283.552	-45.23
283.767	24.4
283.983	59.22
284.198	-57.51
284.413	85.84
284.628	-2.22
284.843	-10.41
285.058	22.36
285.274	51.03
285.489	-43.18
285.704	73.56
285.919	12.12
286.134	53.08
286.349	16.21
286.564	61.27
286.779	28.5
286.995	34.64
287.21	-16.55
287.425	10.07
287.64	-45.23
287.855	40.79
288.07	-22.7
288.285	71.51
288.5	28.5
288.715	14.17
288.93	-30.89
289.145	3.93
289.36	-47.27
289.575	-41.13
289.79	63.32
290.004	61.27
290.219	38.74
290.434	30.55
290.649	12.12
290.864	-53.42
291.079	40.79
291.294	87.89
291.509	-8.36
291.724	-6.31
291.938	8.02
292.153	1.88
292.368	-41.13
292.583	-16.55
292.798	34.64
293.012	22.36
293.227	-12.46
293.442	141.14
293.657	98.13
293.871	-0.17
294.086	65.36
294.301	71.51
294.516	51.03
294.73	77.65
294.945	12.12
295.16	-47.27
295.374	-53.42
295.589	16.21
295.804	20.31
296.018	65.36
296.233	-24.75
296.447	36.69
296.662	24.4
296.877	71.51
297.091	61.27
297.306	28.5
297.52	-20.65
297.735	12.12
297.949	38.74
298.164	36.69
298.378	-8.36
298.593	46.93
298.807	-55.47
299.022	10.07
299.236	-12.46
299.451	-6.31
299.665	8.02
299.88	44.88
300.094	-4.27
300.309	8.02
300.523	53.08
300.737	91.99
300.952	46.93
301.166	65.36
301.381	65.36
301.595	1.88
301.809	-0.17
302.024	8.02
302.238	73.56
302.452	36.69
302.667	-12.46
302.881	-0.17
303.095	53.08
303.309	36.69
303.524	-20.65
303.738	-28.84
303.952	55.12
304.166	-2.22
304.381	-10.41
304.595	28.5
304.809	51.03
305.023	73.56
305.237	3.93
305.452	5.97
305.666	-41.13
305.88	69.46
306.094	73.56
306.308	42.84
306.522	-18.6
306.736	38.74
306.95	-6.31
307.164	44.88
307.379	22.36
307.593	30.55
307.807	69.46
308.021	102.23
308.235	-8.36
308.449	-10.41
308.663	59.22
308.877	110.42
309.091	53.08
309.305	3.93
309.519	36.69
309.733	44.88
309.947	-127.14
310.161	-45.23
310.374	-71.85
310.588	55.12
310.802	3.93
311.016	104.28
311.23	-4.27
311.444	14.17
311.658	69.46
311.872	12.12
312.085	46.93
312.299	44.88
312.513	8.02
312.727	44.88
312.941	28.5
313.154	12.12
313.368	57.17
313.582	46.93
313.796	59.22
314.009	-34.99
314.223	59.22
314.437	59.22
314.651	30.55
314.864	5.97
315.078	44.88
315.292	32.6
315.505	91.99
315.719	75.6
315.933	-45.23
316.146	-32.94
316.36	34.64
316.573	65.36
316.787	10.07
317.001	57.17
317.214	-0.17
317.428	96.08
317.641	-4.27
317.855	63.32
318.068	-30.89
318.282	8.02
318.495	94.04
318.709	81.75
318.922	-4.27
319.136	32.6
319.349	63.32
319.563	55.12
319.776	44.88
319.99	-8.36
320.203	28.5
320.417	83.8
320.63	12.12
320.843	59.22
321.057	8.02
321.27	48.98
321.483	53.08
321.697	71.51
321.91	61.27
322.124	98.13
322.337	16.21
322.55	32.6
322.763	18.26
322.977	-57.51
323.19	24.4
323.403	-69.8
323.617	48.98
323.83	94.04
324.043	34.64
324.256	3.93
324.469	-12.46
324.683	36.69
324.896	55.12
325.109	71.51
325.322	16.21
325.535	71.51
325.748	-61.61
325.962	48.98
326.175	1.88
326.388	-6.31
326.601	65.36
326.814	67.41
327.027	51.03
327.24	77.65
327.453	-0.17
327.666	20.31
327.879	30.55
328.092	83.8
328.305	55.12
328.518	-37.03
328.731	10.07
328.944	63.32
329.157	73.56
329.37	61.27
329.583	77.65
329.796	126.8
330.009	30.55
330.222	36.69
330.435	3.93
330.648	53.08
330.861	1.88
331.073	30.55
331.286	130.9
331.499	20.31
331.712	12.12
331.925	100.18
332.138	-18.6
332.35	71.51
332.563	135
332.776	57.17
332.989	3.93
333.202	16.21
333.414	-4.27
333.627	42.84
333.84	102.23
334.053	71.51
334.265	26.45
334.478	57.17
334.691	-32.94
334.903	-2.22
335.116	-6.31
335.329	-18.6
335.541	67.41
335.754	28.5
335.966	-12.46
336.179	-0.17
336.392	40.79
336.604	61.27
336.817	10.07
337.029	28.5
337.242	81.75
337.454	30.55
337.667	20.31
337.88	75.6
338.092	-0.17
338.305	-4.27
338.517	26.45
338.729	91.99
338.942	57.17
339.154	-12.46
339.367	-39.08
339.579	81.75
339.792	53.08
340.004	75.6
340.217	87.89
340.429	-6.31
340.641	24.4
340.854	67.41
341.066	-30.89
341.278	34.64
341.491	57.17
341.703	63.32
341.915	34.64
342.128	-12.46
342.34	-16.55
342.552	63.32
342.764	83.8
342.977	20.31
343.189	12.12
343.401	98.13
343.613	-26.79
343.826	38.74
344.038	38.74
344.25	1.88
344.462	26.45
344.674	8.02
344.886	-8.36
345.099	44.88
345.311	124.76
345.523	-8.36
345.735	44.88
345.947	65.36
346.159	-8.36
346.371	3.93
346.583	32.6
346.795	30.55
347.007	12.12
347.219	-10.41
347.431	48.98
347.643	28.5
347.855	1.88
348.067	42.84
348.279	28.5
348.491	79.7
348.703	-41.13
348.915	61.27
349.127	-67.75
349.339	-0.17
349.551	85.84
349.763	55.12
349.975	-0.17
350.187	10.07
350.399	77.65
350.61	40.79
350.822	36.69
351.034	116.56
351.246	67.41
351.458	-6.31
351.669	108.37
351.881	67.41
352.093	24.4
352.305	10.07
352.517	-12.46
352.728	44.88
352.94	63.32
353.152	135
353.363	36.69
353.575	38.74
353.787	81.75
353.999	-16.55
354.21	91.99
354.422	18.26
354.633	48.98
354.845	32.6
355.057	51.03
355.268	-10.41
355.48	59.22
355.692	-20.65
355.903	12.12
356.115	57.17
356.326	53.08
356.538	46.93
356.749	48.98
356.961	79.7
357.172	73.56
357.384	89.94
357.595	85.84
357.807	-47.27
358.018	-57.51
358.23	16.21
358.441	55.12
358.653	38.74
358.864	36.69
359.075	32.6
359.287	63.32
359.498	96.08
359.709	32.6
359.921	24.4
360.132	3.93
360.344	71.51
360.555	10.07
360.766	18.26
360.977	-16.55
361.189	-18.6
361.4	57.17
361.611	10.07
361.823	73.56
362.034	8.02
362.245	53.08
362.456	73.56
362.667	77.65
362.879	16.21
363.09	100.18
363.301	32.6
363.512	51.03
363.723	32.6
363.935	3.93
364.146	46.93
364.357	94.04
364.568	69.46
364.779	-47.27
364.99	65.36
365.201	24.4
365.412	98.13
365.623	3.93
365.834	53.08
366.045	94.04
366.256	87.89
366.467	34.64
366.678	69.46
366.889	32.6
367.1	28.5
367.311	20.31
367.522	16.21
367.733	10.07
367.944	40.79
368.155	3.93
368.366	53.08
368.577	87.89
368.788	46.93
368.999	69.46
369.209	-12.46
369.42	98.13
369.631	77.65
369.842	63.32
370.053	89.94
370.264	8.02
370.474	24.4
370.685	-59.56
370.896	34.64
371.107	5.97
371.317	59.22
371.528	5.97
371.739	46.93
371.95	42.84
372.16	32.6
372.371	-14.51
372.582	3.93
372.792	-0.17
373.003	55.12
373.214	12.12
373.424	51.03
373.635	32.6
373.846	53.08
374.056	32.6
374.267	38.74
374.477	81.75
374.688	36.69
374.898	108.37
375.109	34.64
375.319	26.45
375.53	75.6
375.74	108.37
375.951	48.98
376.161	22.36
376.372	122.71
376.582	-4.27
376.793	96.08
377.003	55.12
377.214	-12.46
377.424	79.7
377.635	116.56
377.845	71.51
378.055	81.75
378.266	81.75
378.476	44.88
378.686	42.84
378.897	57.17
379.107	22.36
379.317	89.94
379.528	63.32
379.738	24.4
379.948	-0.17
380.158	-18.6
380.369	75.6
380.579	48.98
380.789	38.74
380.999	126.8
381.21	118.61
381.42	53.08
381.63	12.12
381.84	69.46
382.05	81.75
382.261	75.6
382.471	69.46
382.681	36.69
382.891	44.88
383.101	30.55
383.311	24.4
383.521	69.46
383.731	112.47
383.941	38.74
384.151	-24.75
384.361	71.51
384.571	18.26
384.781	-12.46
384.991	163.67
385.201	46.93
385.411	110.42
385.621	5.97
385.831	87.89
386.041	-8.36
386.251	24.4
386.461	10.07
386.671	8.02
386.881	157.52
387.091	53.08
387.301	75.6
387.511	61.27
387.72	75.6
387.93	79.7
388.14	73.56
388.35	59.22
388.56	30.55
388.769	44.88
388.979	-2.22
389.189	-18.6
389.399	12.12
389.609	40.79
389.818	102.23
390.028	5.97
390.238	94.04
390.447	-10.41
390.657	10.07
390.867	69.46
391.076	-30.89
391.286	16.21
391.496	94.04
391.705	53.08
391.915	75.6
392.125	59.22
392.334	63.32
392.544	34.64
392.753	28.5
392.963	44.88
393.172	-12.46
393.382	77.65
393.591	94.04
393.801	53.08
394.01	165.71
394.22	55.12
394.429	122.71
394.639	79.7
394.848	104.28
395.058	96.08
395.267	89.94
395.477	53.08
395.686	85.84
395.895	94.04
396.105	175.95
396.314	122.71
396.524	73.56
396.733	85.84
396.942	130.9
397.152	57.17
397.361	-4.27
397.57	73.56
397.78	108.37
397.989	94.04
398.198	173.91
398.407	67.41
398.617	-8.36
398.826	85.84
399.035	40.79
399.244	130.9
399.453	143.19
399.663	116.56
399.872	65.36
400.081	36.69
400.29	96.08
400.499	137.04
400.708	124.76
400.917	98.13
401.127	24.4
401.336	143.19
401.545	149.33
401.754	102.23
401.963	149.33
402.172	139.09
402.381	57.17
402.59	77.65
402.799	98.13
403.008	143.19
403.217	122.71
403.426	118.61
403.635	98.13
403.844	169.81
404.053	98.13
404.262	89.94
404.471	223.06
404.68	128.85
404.888	163.67
405.097	116.56
405.306	137.04
405.515	85.84
405.724	155.47
405.933	114.52
406.142	71.51
406.35	192.34
406.559	192.34
406.768	157.52
406.977	182.1
407.185	188.24
407.394	208.72
407.603	167.76
407.812	216.91
408.02	264.02
408.229	276.31
408.438	257.87
408.646	221.01
408.855	302.93
409.064	268.11
409.272	286.54
409.481	304.98
409.69	245.59
409.898	282.45
410.107	255.83
410.315	290.64
410.524	337.74
410.733	321.36
410.941	333.65
411.15	360.27
411.358	423.76
411.567	386.9
411.775	442.19
411.984	438.09
412.192	409.42
412.401	409.42
412.609	515.92
412.818	493.39
413.026	606.03
413.234	573.26
413.443	505.68
413.651	534.35
413.86	560.97
414.068	626.51
414.276	603.98
414.485	675.66
414.693	651.08
414.901	751.43
415.11	769.87
415.318	716.62
415.526	753.48
415.734	876.36
415.943	825.16
416.151	737.1
416.359	855.88
416.567	855.88
416.776	882.5
416.984	1021.77
417.192	1050.44
417.4	1040.2
417.608	1058.63
417.817	1113.92
418.025	1220.42
418.233	1259.33
418.441	1281.86
418.649	1232.71
418.857	1417.02
419.065	1328.96
419.273	1394.5
419.481	1414.98
419.689	1511.23
419.897	1584.96
420.105	1576.77
420.313	1603.39
420.521	1677.12
420.729	1660.73
420.937	1763.13
421.145	1806.14
421.353	1986.36
421.561	2027.32
421.769	2172.72
421.977	2189.11
422.185	2131.76
422.393	2314.03
422.601	2395.95
422.809	2426.67
423.017	2492.21
423.224	2637.61
423.432	2682.67
423.64	2680.62
423.848	2918.18
424.056	2920.23
424.263	3100.45
424.471	3084.07
424.679	3178.28
424.887	3252
425.094	3381.03
425.302	3413.79
425.51	3524.38
425.718	3594.01
425.925	3647.26
426.133	3858.2
426.341	4159.25
426.548	4159.25
426.756	4198.17
426.964	4200.21
427.171	4574.99
427.379	4591.38
427.586	4679.44
427.794	4833.04
428.001	5123.85
428.209	5357.32
428.417	5138.18
428.624	5818.11
428.832	5531.39
429.039	5582.59
429.247	5472
429.454	6153.98
429.662	6508.27
429.869	6104.82
430.076	6532.85
430.284	6465.27
430.491	6778.61
430.699	7022.31
430.906	6903.53
431.114	7087.85
431.321	7462.63
431.528	7556.83
431.736	8117.98
431.943	8390.36
432.15	8214.23
432.358	8232.66
432.565	8816.33
432.772	8629.97
432.979	8939.21
433.187	9299.66
433.394	9336.52
433.601	10081.98
433.808	9907.9
434.016	9858.75
434.223	10225.34
434.43	11083.44
434.637	10677.94
434.844	11341.48
435.052	11734.69
435.259	11660.96
435.466	11634.34
435.673	11687.59
435.88	12320.41
436.087	13180.56
436.294	12945.04
436.501	12613.27
436.708	12707.48
436.915	13115.02
437.122	14059.13
437.329	14020.22
437.537	14409.34
437.743	14558.84
437.95	14622.33
438.157	15455.85
438.364	15838.82
438.571	15847.01
438.778	15918.69
438.985	17485.39
439.192	16821.84
439.399	17485.39
439.606	16807.51
439.813	17788.49
440.02	18892.34
440.227	18746.94
440.433	18253.37
440.64	19269.17
440.847	18779.7
441.054	19572.27
441.261	20735.51
441.467	20520.48
441.674	20944.41
441.881	21483.02
442.088	21628.43
442.294	21405.2
442.501	22095.36
442.708	22361.6
442.914	23254.51
443.121	24372.71
443.328	23496.17
443.534	25583.05
443.741	24669.66
443.948	24298.98
444.154	26158.53
444.361	26095.05
444.568	26250.69
444.774	26297.8
444.981	26402.24
445.187	27508.15
445.394	28210.6
445.6	28067.24
445.807	30807.42
446.013	29517.2
446.22	29883.79
446.426	31237.5
446.633	31079.8
446.839	31950.19
447.046	30635.39
447.252	32888.16
447.459	32761.19
447.665	32603.49
447.871	34059.6
448.078	35196.22
448.284	33799.51
448.491	34684.23
448.697	36345.13
448.903	36885.79
449.11	36545.83
449.316	36222.25
449.522	36478.25
449.728	37401.88
449.935	37569.82
450.141	37504.28
450.347	39073.03
450.553	37459.23
450.76	37428.51
450.966	38585.61
451.172	38483.21
451.378	39243.01
451.584	38696.2
451.791	39535.87
451.997	38892.8
452.203	39892.21
452.409	39951.6
452.615	39574.78
452.821	38255.89
453.027	37557.53
453.233	39668.98
453.44	37735.7
453.646	38610.18
453.852	38339.85
454.058	39021.83
454.264	37717.27
454.47	38929.67
454.676	37649.69
454.882	38540.55
455.088	35288.38
455.294	35761.46
455.5	36164.91
455.705	36494.63
455.911	35190.08
456.117	34256.2
456.323	33836.37
456.529	32077.16
456.735	33475.93
456.941	32718.18
457.147	31823.22
457.352	30983.55
457.558	30672.26
457.764	30539.14
457.97	29945.23
458.176	29349.27
458.381	29117.85
458.587	27690.41
458.793	27637.17
458.999	26252.74
459.204	28112.3
459.41	27461.04
459.616	25632.21
459.821	25624.01
460.027	25437.65
460.233	24753.63
460.438	23555.57
460.644	23973.35
460.85	22867.45
461.055	22791.67
461.261	22275.59
461.466	20979.22
461.672	20008.48
461.878	21771.79
462.083	20168.23
462.289	19717.67
462.494	19535.4
462.7	19060.27
462.905	18316.86
463.111	18996.79
463.316	18990.64
463.522	18693.69
463.727	18349.63
463.932	18439.74
464.138	18284.09
464.343	18550.33
464.549	17944.13
464.754	18400.83
464.959	18585.15
465.165	18425.4
465.37	17548.87
465.575	17172.05
465.781	17974.85
465.986	17970.76
466.191	17196.62
466.397	16819.8
466.602	16098.91
466.807	16715.35
467.012	16741.97
467.218	16651.86
467.423	16744.02
467.628	16528.99
467.833	17167.95
468.038	16645.72
468.244	15863.4
468.449	16914
468.654	16066.14
468.859	16113.25
469.064	16109.15
469.269	15576.68
469.474	15474.28
469.679	15691.37
469.885	15306.35
470.09	15527.53
470.295	15441.51
470.5	15023.73
470.705	14990.96
470.91	14575.22
471.115	14706.29
471.32	14773.88
471.525	14634.61
471.73	14423.67
471.935	14151.29
472.139	13801.09
472.344	13854.34
472.549	13827.71
472.754	13713.03
472.959	13586.05
473.164	12934.8
473.369	12998.29
473.574	13364.87
473.778	13444.74
473.983	13356.68
474.188	12902.03
474.393	12441.24
474.598	12523.16
474.802	12318.36
475.007	12621.46
475.212	12299.93
475.417	11984.54
475.621	11570.85
475.826	11900.58
476.031	11550.37
476.235	11335.34
476.44	11450.02
476.645	11521.7
476.849	11247.27
477.054	11206.31
477.259	11083.44
477.463	11308.71
477.668	10852.02
477.872	11060.91
478.077	10831.54
478.282	10440.37
478.486	10493.62
478.691	10407.61
478.895	10514.1
479.1	10395.32
479.304	10409.65
479.509	9973.44
479.713	10268.34
479.918	9838.27
480.122	9735.87
480.326	10135.23
480.531	9856.7
480.735	9899.71
480.94	9772.74
481.144	10010.3
481.348	9635.52
481.553	9750.21
481.757	9621.19
481.961	9645.76
482.166	9991.87
482.37	9787.07
482.574	9531.08
482.778	9692.87
482.983	9797.31
483.187	9625.28
483.391	9856.7
483.595	9588.42
483.8	9436.87
484.004	9678.53
484.208	9893.57
484.412	9670.34
484.616	9789.12
484.821	9834.18
485.025	9496.26
485.229	9819.84
485.433	9440.97
485.637	9653.95
485.841	9465.54
486.045	9565.89
486.249	9764.54
486.453	9625.28
486.657	9557.7
486.861	9696.96
487.065	9389.77
487.269	9610.95
487.473	9313.99
487.677	9754.3
487.881	9760.45
488.085	9666.24
488.289	9748.16
488.493	9559.75
488.697	9678.53
488.901	9512.64
489.105	9678.53
489.309	9559.75
489.512	9823.94
489.716	9795.26
489.92	9643.71
490.124	9727.68
490.328	9817.79
490.531	9883.33
490.735	9957.05
490.939	9977.53
491.143	9692.87
491.346	9973.44
491.55	10098.36
491.754	9918.14
491.958	9875.13
492.161	9957.05
492.365	10290.87
492.569	9995.96
492.772	10092.22
492.976	10258.1
493.18	10395.32
493.383	10589.88
493.587	10593.97
493.79	10784.43
493.994	10536.63
494.197	10544.82
494.401	10669.75
494.605	10743.47
494.808	10845.87
495.012	11019.95
495.215	10970.8
495.419	11136.68
495.622	10985.13
495.825	11323.05
496.029	11329.19
496.232	11568.8
496.436	11454.12
496.639	11972.25
496.843	11624.1
497.046	12031.65
497.249	12050.08
497.453	12097.18
497.656	12301.98
497.859	12218.01
498.063	12437.14
498.266	12547.73
498.469	12783.25
498.673	12533.4
498.876	13031.05
499.079	12875.41
499.282	13045.39
499.485	13502.09
499.689	13436.55
499.892	13483.66
500.095	13698.69
500.298	14014.08
500.501	13930.11
500.705	14163.58
500.908	14366.33
501.111	14575.22
501.314	14730.87
501.517	14857.84
501.72	15191.66
501.923	14900.85
502.126	15349.36
502.329	15509.1
502.532	15533.67
502.735	15730.28
502.938	16047.71
503.141	15969.89
503.344	16402.01
503.547	16197.21
503.75	16789.08
503.953	17036.88
504.156	17016.4
504.359	17137.23
504.562	17337.93
504.765	17458.76
504.968	17851.97
505.17	17952.32
505.373	18042.43
505.576	18300.48
505.779	18601.53
505.982	18994.74
506.185	18945.59
506.387	19154.48
506.59	19181.1
506.793	19744.3
506.996	19768.87
507.198	20366.88
507.401	20039.2
507.604	20633.11
507.807	20637.21
508.009	20868.63
508.212	20919.83
508.415	21247.51
508.617	21456.4
508.82	21841.42
509.022	21476.88
509.225	22291.97
509.428	22468.09
509.63	22552.06
509.833	22719.99
510.035	23248.37
510.238	23084.53
510.44	23160.31
510.643	23504.37
510.845	23778.79
511.048	23868.91
511.25	24509.92
511.453	24423.9
511.655	25507.28
511.858	24698.33
512.06	25267.67
512.262	25404.88
512.465	25294.29
512.667	25880.01
512.87	26252.74
513.072	26258.88
513.274	27082.17
513.477	27182.52
513.679	26951.1
513.881	27424.18
514.084	27473.33
514.286	27579.82
514.488	28143.02
514.69	28786.08
514.893	28824.99
515.095	28841.37
515.297	29234.58
515.499	29425.04
515.701	29838.73
515.904	29834.64
516.106	30223.75
516.308	30555.52
516.51	31104.38
516.712	31030.65
516.914	31233.4
517.116	31542.64
517.318	31720.82
517.52	32273.77
517.722	32392.55
517.925	32769.38
518.127	33133.92
518.329	33203.55
518.531	32963.93
518.733	33897.81
518.935	34088.27
519.136	33856.85
519.338	34639.17
519.54	35102.01
519.742	34999.62
519.944	35364.15
520.146	35906.87
520.348	36250.92
520.55	36248.88
520.752	36345.13
520.954	36887.84
521.155	36541.74
521.357	37803.28
521.559	37401.88
521.761	38143.25
521.963	38063.38
522.164	38278.41
522.366	39060.74
522.568	39081.22
522.77	38972.67
522.971	39847.16
523.173	39404.8
523.375	40170.74
523.576	39939.32
523.778	40068.34
523.98	40295.66
524.181	40656.1
524.383	40998.12
524.584	41258.21
524.786	41366.75
524.988	40996.07
525.189	41690.33
525.391	41925.85
525.592	42493.13
525.794	42634.44
525.995	42337.49
526.197	42960.07
526.398	42530
526.6	42769.61
526.801	43435.2
527.003	43537.6
527.204	43447.49
527.406	44213.43
527.607	43660.48
527.808	44258.48
528.01	43232.45
528.211	44184.76
528.412	44881.06
528.614	45175.97
528.815	44967.08
529.016	45190.31
529.218	44692.65
529.419	45208.74
529.62	45038.76
529.822	44852.39
530.023	45167.78
530.224	45391.01
530.425	45261.99
530.626	45282.47
530.828	45032.61
531.029	46064.79
531.23	45853.85
531.431	45397.15
531.632	45882.52
531.833	45823.13
532.035	45806.75
532.236	45900.95
532.437	46664.85
532.638	46175.38
532.839	46632.08
533.04	46075.03
533.241	45608.09
533.442	46832.78
533.643	46238.87
533.844	46156.95
534.045	46339.22
534.246	46306.45
534.447	46871.69
534.648	46238.87
534.849	46666.89
535.05	46259.35
535.251	46328.98
535.451	46611.6
535.652	46445.71
535.853	46423.18
536.054	46488.72
536.255	47064.2
536.456	46283.92
536.657	47473.79
536.857	46711.95
537.058	46302.35
537.259	46412.95
537.46	46298.26
537.66	46767.24
537.861	46818.44
538.062	46730.38
538.263	46773.39
538.463	46677.13
538.664	46449.81
538.865	46724.24
539.065	46873.74
539.266	46222.48
539.466	46761.1
539.667	46118.04
539.868	46929.03
540.068	46552.21
540.269	46560.4
540.469	46492.82
540.67	46367.89
540.87	46670.99
541.071	46335.12
541.271	46437.52
541.472	46363.79
541.672	46599.31
541.873	46412.95
542.073	45540.51
542.274	46208.15
542.474	46199.96
542.675	46193.81
542.875	46892.17
543.075	46195.86
543.276	45937.82
543.476	47154.31
543.676	45956.25
543.877	46650.51
544.077	46421.14
544.277	46064.79
544.478	46333.07
544.678	46707.85
544.878	45839.51
545.078	46068.89
545.279	45954.2
545.479	46040.21
545.679	46324.88
545.879	46406.8
546.079	46392.47
546.28	46236.82
546.48	45841.56
546.68	46011.54
546.88	46236.82
547.08	46195.86
547.28	46183.57
547.48	45804.7
547.68	46144.66
547.88	45974.68
548.081	46478.48
548.281	46034.07
548.481	45620.38
548.681	46173.33
548.881	46007.45
549.081	45900.95
549.28	45587.61
549.48	45866.14
549.68	45786.27
549.88	46249.11
550.08	45759.64
550.28	46118.04
550.48	46011.54
550.68	45925.53
550.88	45606.05
551.08	45726.88
551.279	46324.88
551.479	45683.87
551.679	46179.48
551.879	45673.63
552.079	46216.34
552.278	45802.65
552.478	45708.44
552.678	45986.97
552.878	45825.18
553.077	45679.77
553.277	45053.09
553.477	46050.45
553.676	45382.82
553.876	45122.72
554.076	45579.42
554.275	45077.67
554.475	45214.88
554.674	45587.61
554.874	45413.54
555.074	45112.48
555.273	45304.99
555.473	45548.7
555.672	45182.12
555.872	45317.28
556.071	45350.05
556.271	45397.15
556.47	45108.39
556.67	44303.54
556.869	44831.91
557.068	44807.34
557.268	44520.62
557.467	44743.85
557.667	44518.57
557.866	44506.29
558.065	44326.06
558.265	44555.44
558.464	44328.11
558.663	44450.99
558.863	43914.42
559.062	44584.11
559.261	44004.53
559.461	44367.02
559.66	44100.79
559.859	43830.46
560.058	44274.87
560.258	44004.53
560.457	43435.2
560.656	44213.43
560.855	43957.43
561.054	43685.05
561.253	42998.98
561.453	43377.86
561.652	43586.75
561.851	44065.97
562.05	43271.36
562.249	43031.75
562.448	43484.35
562.647	43168.96
562.846	43087.04
563.045	43318.46
563.244	42497.23
563.443	43269.31
563.642	42392.78
563.841	42560.72
564.04	42345.68
564.239	43252.93
564.438	42400.97
564.637	42718.41
564.836	42284.24
565.035	42020.05
565.234	42067.16
565.432	41909.46
565.631	42097.87
565.83	42171.6
566.029	41909.46
566.228	41383.13
566.427	41518.3
566.625	41311.45
566.824	40865
567.023	41301.22
567.222	40717.54
567.42	41194.72
567.619	41041.12
567.818	40717.54
568.016	40496.36
568.215	41102.56
568.414	40750.31
568.612	41141.47
568.811	40367.34
569.01	40703.21
569.208	39812.34
569.407	40426.73
569.605	39847.16
569.804	40328.43
570.002	39953.65
570.201	39884.02
570.4	39466.24
570.598	39480.57
570.797	39382.27
570.995	39126.27
571.193	38913.28
571.392	39539.96
571.59	39070.98
571.789	39154.94
571.987	38808.84
572.186	38839.56
572.384	38515.98
572.582	38941.96
572.781	38911.24
572.979	37969.17
573.177	38227.21
573.376	38102.29
573.574	37977.36
573.772	38378.76
573.971	37592.34
574.169	37747.99
574.367	37496.09
574.565	38081.81
574.763	37285.15
574.962	37571.86
575.16	36681
575.358	37500.19
575.556	36949.28
575.754	37274.91
575.952	36666.66
576.151	37408.03
576.349	36529.45
576.547	36758.82
576.745	36756.77
576.943	36525.35
577.141	36189.49
577.339	36445.48
577.537	36017.46
577.735	36117.81
577.933	35880.24
578.131	36044.08
578.329	35953.97
578.527	35706.16
578.725	35568.95
578.923	35599.67
579.121	35280.19
579.319	35421.5
579.516	35532.09
579.714	35122.49
579.912	35210.56
580.11	34766.15
580.308	35462.46
580.506	34557.25
580.704	34479.43
580.901	34776.39
581.099	34884.93
581.297	34383.18
581.495	34350.41
581.692	34417.99
581.89	33873.23
582.088	34448.71
582.285	33858.9
582.483	34323.79
582.681	33832.27
582.878	34123.08
583.076	33451.35
583.274	33944.91
583.471	33381.72
583.669	33107.29
583.866	33115.48
584.064	33334.62
584.262	33191.26
584.459	33353.05
584.657	33086.81
584.854	33052
585.052	32535.91
585.249	32896.35
585.447	32685.41
585.644	32474.47
585.841	32410.98
586.039	32687.46
586.236	31944.05
586.434	32501.09
586.631	31692.15
586.828	31821.17
587.026	31960.43
587.223	31878.51
587.42	31776.11
587.618	31612.27
587.815	31208.83
588.012	31491.44
588.21	31118.71
588.407	31565.17
588.604	31219.06
588.801	30758.27
588.999	31102.33
589.196	31225.21
589.393	31096.19
589.59	30651.78
589.787	30772.61
589.984	30399.88
590.182	30428.55
590.379	30811.52
590.576	29871.5
590.773	30399.88
590.97	29697.42
591.167	30162.31
591.364	30051.72
591.561	29906.32
591.758	29707.66
591.955	29842.83
592.152	29758.86
592.349	29486.48
592.546	29945.23
592.743	29590.93
592.94	29183.38
593.137	29382.04
593.334	29529.49
593.531	28997.02
593.727	29113.75
593.924	28886.43
594.121	28394.92
594.318	28964.25
594.515	28489.12
594.712	28822.94
594.908	28347.81
595.105	28775.84
595.302	28317.09
595.499	28276.13
595.696	28077.48
595.892	28147.11
596.089	28147.11
596.286	28173.74
596.482	27882.92
596.679	27858.35
596.876	27927.98
597.072	27530.67
597.269	27309.49
597.466	27340.21
597.662	27182.52
597.859	27387.32
598.055	27311.54
598.252	26820.03
598.448	27043.26
598.645	26799.55
598.841	26543.55
599.038	26727.87
599.234	27043.26
599.431	26490.31
599.627	26430.91
599.824	26688.96
600.02	26297.8
600.217	26392
600.413	26369.47
600.609	26140.1
600.806	25914.83
601.002	26013.13
601.198	26064.33
601.395	26000.84
601.591	25849.29
601.787	25687.5
601.984	25423.31
602.18	25716.17
602.376	25542.1
602.572	25476.56
602.769	25478.61
602.965	24919.51
603.161	25107.93
603.357	24888.79
603.553	25294.29
603.75	24968.66
603.946	24909.27
604.142	24868.31
604.338	24608.22
604.534	24661.47
604.73	24247.78
604.926	24608.22
605.122	24360.42
605.318	24077.8
605.514	24053.22
605.71	23897.58
605.906	24176.1
606.102	24243.68
606.298	24051.17
606.494	23856.62
606.69	24172
606.886	23662.06
607.082	23487.98
607.278	23924.2
607.474	23264.75
607.67	23660.01
607.866	23229.94
608.062	23524.85
608.257	23354.86
608.453	23451.12
608.649	23457.26
608.845	22998.52
609.041	23152.12
609.236	23344.63
609.432	22820.35
609.628	23266.8
609.824	22863.35
610.019	22910.46
610.215	22707.71
610.411	22672.89
610.606	22801.91
610.802	22656.51
610.998	22500.86
611.193	22588.92
611.389	22523.39
611.584	22730.23
611.78	22359.55
611.976	22543.87
612.171	22408.7
612.367	22492.67
612.562	22040.07
612.758	22101.51
612.953	22216.19
613.149	22185.47
613.344	21923.33
613.539	22394.37
613.735	21808.65
613.93	22140.42
614.126	21870.09
614.321	21915.14
614.517	21753.35
614.712	21792.26
614.907	21573.13
615.103	21954.05
615.298	21519.88
615.493	21999.11
615.688	21390.86
615.884	21937.67
616.079	21360.14
616.274	21640.72
616.47	21153.3
616.665	21519.88
616.86	21206.55
617.055	21339.66
617.25	21057.04
617.445	21399.05
617.641	20964.89
617.836	21184.02
618.031	20944.41
618.226	20866.58
618.421	20858.39
618.616	21210.64
618.811	20629.02
619.006	21122.58
619.201	20332.06
619.396	20547.1
619.591	20252.19
619.786	20411.93
619.981	19893.8
620.176	20256.29
620.371	20059.68
620.566	20012.58
620.761	20112.93
620.956	19985.96
621.151	19588.65
621.346	19969.57
621.541	19562.03
621.735	19490.35
621.93	19269.17
622.125	19557.93
622.32	19009.08
622.515	19015.22
622.709	18949.68
622.904	19066.42
623.099	18746.94
623.294	18818.61
623.488	18503.23
623.683	18568.76
623.878	18126.4
624.072	18368.06
624.267	18359.87
624.462	18122.3
624.656	18021.95
624.851	18239.04
625.046	18052.67
625.24	18019.91
625.435	17622.6
625.629	17559.11
625.824	17454.67
626.018	17731.14
626.213	17161.81
626.407	17624.65
626.602	17239.63
626.796	17264.21
626.991	17210.96
627.185	17012.31
627.38	16612.95
627.574	16567.9
627.768	16655.96
627.963	16592.47
628.157	16602.71
628.352	16596.57
628.546	16414.3
628.74	16571.99
628.935	16221.79
629.129	16225.89
629.323	15928.93
629.517	15877.73
629.712	15756.9
629.906	15855.2
630.1	15464.04
630.294	15656.55
630.489	15492.71
630.683	15418.99
630.877	15222.38
631.071	15095.41
631.265	15154.8
631.459	15109.74
631.653	14837.36
631.848	14947.95
632.042	14622.33
632.236	14884.47
632.43	14622.33
632.624	14831.22
632.818	14507.64
633.012	14390.91
633.206	14231.16
633.4	14345.85
633.594	14179.96
633.788	14028.42
633.982	14163.58
634.176	13975.17
634.369	13835.91
634.563	14104.19
634.757	13948.54
634.951	14009.98
635.145	13780.61
635.339	13813.38
635.533	13598.34
635.726	13536.9
635.92	13405.83
636.114	13479.56
636.308	13528.71
636.501	13358.73
636.695	12975.76
636.889	12990.1
637.083	12875.41
637.276	12940.94
637.47	12740.24
637.664	12848.79
637.857	12869.26
638.051	12859.03
638.244	12625.56
638.438	12607.12
638.632	12369.56
638.825	12371.61
639.019	12404.38
639.212	12193.44
639.406	12244.63
639.599	12011.17
639.793	12324.51
639.986	11722.4
640.18	11912.86
640.373	11906.72
640.567	11533.99
640.76	11757.22
640.954	11548.33
641.147	11519.65
641.34	11357.86
641.534	11601.57
641.727	11505.32
641.92	11493.03
642.114	11196.07
642.307	11198.12
642.5	11181.74
642.694	11054.76
642.887	10995.37
643.08	10995.37
643.273	10915.5
643.467	10913.45
643.66	10819.25
643.853	10856.11
644.046	10841.78
644.239	10845.87
644.432	10682.03
644.626	10479.29
644.819	10544.82
645.012	10354.36
645.205	10294.97
645.398	10211
645.591	10102.46
645.784	10313.4
645.977	10067.64
646.17	10202.81
646.363	10012.35
646.556	9879.23
646.749	10022.59
646.942	10139.32
647.135	9731.78
647.328	9832.13
647.521	9766.59
647.714	9649.86
647.907	9535.17
648.099	9494.21
648.292	9674.43
648.485	9524.93
648.678	9379.53
648.871	9227.98
649.064	9234.12
649.256	9262.79
649.449	9176.78
649.642	9187.02
649.835	9148.11
650.027	9111.24
650.22	8996.56
650.413	9006.8
650.605	8918.73
650.798	8834.77
650.991	8640.21
651.183	8660.69
651.376	8607.44
651.568	8765.14
651.761	8627.92
651.954	8814.29
652.146	8525.52
652.339	8400.6
652.531	8593.11
652.724	8396.5
652.916	8183.51
653.109	8535.76
653.301	8320.73
653.494	8361.69
653.686	8132.31
653.879	8316.63
654.071	8179.42
654.263	8060.63
654.456	8103.64
654.648	7962.33
654.84	8089.31
655.033	8097.5
655.225	7923.42
655.417	7870.17
655.61	7780.06
655.802	7814.88
655.994	7786.21
656.186	7753.44
656.379	7732.96
656.571	7692
656.763	7540.45
656.955	7560.93
657.148	7440.1
657.34	7538.4
657.532	7370.47
657.724	7313.13
657.916	7423.72
658.108	7161.58
658.3	7315.17
658.492	7325.41
658.684	7231.21
658.876	7169.77
659.068	7053.03
659.26	7003.88
659.452	6950.64
659.644	7108.33
659.836	6850.28
660.028	7102.18
660.22	6893.29
660.412	6790.89
660.604	6733.55
660.796	6659.82
660.988	6844.14
661.18	6711.02
661.372	6676.21
661.563	6567.67
661.755	6426.36
661.947	6721.26
662.139	6510.32
662.331	6407.92
662.522	6364.92
662.714	6291.19
662.906	6528.75
663.097	6416.12
663.289	6348.53
663.481	6358.77
663.673	6387.44
663.864	6213.37
664.056	6305.53
664.247	6270.71
664.439	6121.21
664.631	6153.98
664.822	6137.59
665.014	6045.43
665.205	6067.96
665.397	5867.26
665.588	5906.17
665.78	5940.99
665.971	5967.61
666.163	5838.59
666.354	5852.92
666.546	5766.91
666.737	5736.19
666.929	5728
667.12	5850.88
667.311	5609.22
667.503	5791.48
667.694	5674.75
667.885	5633.79
668.077	5539.58
668.268	5408.51
668.459	5418.75
668.651	5674.75
668.842	5695.23
669.033	5414.66
669.224	5463.81
669.416	5541.63
669.607	5422.85
669.798	5441.28
669.989	5465.86
670.18	5394.18
670.371	5381.89
670.563	5461.76
670.754	5406.47
670.945	5431.04
671.136	5129.99
671.327	5271.3
671.518	5175.05
671.709	5361.41
671.9	5209.86
672.091	5197.57
672.282	5125.9
672.473	5113.61
672.664	5129.99
672.855	5160.71
673.046	5054.22
673.237	5082.89
673.428	4982.54
673.619	4968.2
673.809	4919.05
674	4996.87
674.191	5041.93
674.382	4839.18
674.573	4929.29
674.764	4939.53
674.954	4919.05
675.145	4871.95
675.336	4824.84
675.527	4861.71
675.717	4845.32
675.908	4669.2
676.099	4740.88
676.289	4679.44
676.48	4865.8
676.671	4671.25
676.861	4695.82
677.052	4642.57
677.243	4658.96
677.433	4820.75
677.624	4583.18
677.814	4634.38
678.005	4636.43
678.195	4701.97
678.386	4560.66
678.576	4536.08
678.767	4628.24
678.957	4542.22
679.148	4476.69
679.338	4517.65
679.529	4421.39
679.719	4405.01
679.909	4456.21
680.1	4534.03
680.29	4509.46
680.481	4390.67
680.671	4458.26
680.861	4568.85
681.052	4259.6
681.242	4392.72
681.432	4388.63
681.622	4486.93
681.813	4433.68
682.003	4359.95
682.193	4275.99
682.383	4339.48
682.573	4316.95
682.764	4378.39
682.954	4359.95
683.144	4337.43
683.334	4402.96
683.524	4245.27
683.714	4405.01
683.904	4235.03
684.094	4095.77
684.284	4245.27
684.474	4280.08
684.664	4159.25
684.854	4167.45
685.044	4263.7
685.234	4095.77
685.424	4138.77
685.614	4165.4
685.804	4048.66
685.994	4210.45
686.184	4212.5
686.374	4079.38
686.564	4058.9
686.753	4054.81
686.943	4085.53
687.133	3981.08
687.323	4073.24
687.513	4142.87
687.702	3995.42
687.892	4034.33
688.082	3899.16
688.272	3845.91
688.461	4044.57
688.651	3968.79
688.841	3815.2
689.03	3739.42
689.22	3880.73
689.41	3798.81
689.599	3798.81
689.789	3815.2
689.979	3708.7
690.168	3798.81
690.358	3684.13
690.547	3759.9
690.737	3780.38
690.926	3641.12
691.116	3680.03
691.305	3684.13
691.495	3700.51
691.684	3624.73
691.874	3614.49
692.063	3573.53
692.252	3555.1
692.442	3473.18
692.631	3649.31
692.82	3585.82
693.01	3491.62
693.199	3563.29
693.388	3487.52
693.578	3573.53
693.767	3546.91
693.956	3399.46
694.146	3440.42
694.335	3436.32
694.524	3342.11
694.713	3428.13
694.902	3467.04
695.092	3497.76
695.281	3493.66
695.47	3444.51
695.659	3415.84
695.848	3428.13
696.037	3409.7
696.226	3448.61
696.415	3407.65
696.604	3358.5
696.793	3397.41
696.982	3301.15
697.171	3317.54
697.36	3393.31
697.549	3395.36
697.738	3254.05
697.927	3266.34
698.116	3366.69
698.305	3211.04
698.494	3243.81
698.683	3243.81
698.872	3249.96
699.061	3262.24
699.25	3149.61
699.438	3313.44
699.627	3333.92
699.816	3282.72
700.005	3272.48
700.193	3364.64
700.382	3262.24
700.571	3254.05
700.76	3252
700.948	3342.11
701.137	3338.02
701.326	3194.66
701.514	3256.1
701.703	3225.38
701.892	3278.63
702.08	3227.43
702.269	3247.91
702.457	3186.47
702.646	3188.52
702.834	3196.71
703.023	3233.57
703.212	3102.5
703.4	3180.32
703.589	3135.27
703.777	3317.54
703.965	3174.18
704.154	3315.49
704.342	3178.28
704.531	3168.04
704.719	3194.66
704.907	3227.43
705.096	3092.26
705.284	3141.41
705.472	3071.78
705.661	3086.12
705.849	3235.62
706.037	3272.48
706.226	3071.78
706.414	3120.93
706.602	3178.28
706.79	3147.56
706.979	3125.03
707.167	3120.93
707.355	3010.34
707.543	3071.78
707.731	3206.95
707.919	3139.37
708.107	3094.31
708.296	3082.02
708.484	3084.07
708.672	3049.25
708.86	3030.82
709.048	3229.48
709.236	3172.13
709.424	3239.72
709.612	3196.71
709.8	2979.62
709.988	2981.67
710.176	3082.02
710.364	3176.23
710.551	3145.51
710.739	3102.5
710.927	3168.04
711.115	3120.93
711.303	3071.78
711.491	3065.64
711.679	3043.11
711.866	3163.94
712.054	3051.3
712.242	3084.07
712.43	3016.49
712.617	3077.93
712.805	3104.55
712.993	3010.34
713.181	2991.91
713.368	3065.64
713.556	2946.86
713.744	2961.19
713.931	3229.48
714.119	2893.61
714.306	2991.91
714.494	3026.73
714.682	3002.15
714.869	3141.41
715.057	2950.95
715.244	2983.72
715.432	3002.15
715.619	2996.01
715.807	3022.63
715.994	2969.38
716.182	3051.3
716.369	3153.7
716.556	3036.97
716.744	2948.9
716.931	2967.34
717.119	3010.34
717.306	3041.06
717.493	3049.25
717.681	2959.14
717.868	2961.19
718.055	2922.28
718.242	3112.74
718.43	3010.34
718.617	3020.58
718.804	2959.14
718.991	2912.04
719.179	3069.73
719.366	2871.08
719.553	2852.65
719.74	3018.54
719.927	3028.78
720.114	2942.76
720.301	2998.06
720.488	2934.57
720.676	2801.45
720.863	2975.53
721.05	2963.24
721.237	2983.72
721.424	2926.38
721.611	2879.27
721.798	2850.6
721.985	3084.07
722.172	2889.51
722.358	2928.42
722.545	2797.35
722.732	2891.56
722.919	2875.18
723.106	2991.91
723.293	2928.42
723.48	2821.93
723.667	2891.56
723.853	2912.04
724.04	2789.16
724.227	2869.03
724.414	2948.9
724.6	2881.32
724.787	2922.28
724.974	2699.05
725.161	2928.42
725.347	2858.79
725.534	2893.61
725.72	2846.51
725.907	2918.18
726.094	2905.9
726.28	2860.84
726.467	2764.59
726.653	2815.79
726.84	2897.71
727.027	2907.94
727.213	2866.99
727.4	2754.35
727.586	2803.5
727.773	2821.93
727.959	2883.37
728.145	2967.34
728.332	2891.56
728.518	2762.54
728.705	2803.5
728.891	2846.51
729.077	2840.36
729.264	2862.89
729.45	2844.46
729.636	2813.74
729.823	2791.21
730.009	2780.97
730.195	2869.03
730.382	2799.4
730.568	2789.16
730.754	2678.57
730.94	2803.5
731.126	2780.97
731.313	2830.12
731.499	2740.01
731.685	2875.18
731.871	2778.92
732.057	2889.51
732.243	2840.36
732.429	2848.55
732.615	2783.02
732.801	2697
732.987	2744.11
733.173	2697
733.359	2754.35
733.545	2858.79
733.731	2760.49
733.917	2852.65
734.103	2746.16
734.289	2703.15
734.475	2750.25
734.661	2752.3
734.847	2752.3
735.033	2713.39
735.219	2703.15
735.404	2762.54
735.59	2723.63
735.776	2672.43
735.962	2674.48
736.148	2875.18
736.333	2547.5
736.519	2656.04
736.705	2625.33
736.89	2649.9
737.076	2651.95
737.262	2660.14
737.447	2803.5
737.633	2643.76
737.819	2586.41
738.004	2656.04
738.19	2623.28
738.375	2623.28
738.561	2672.43
738.747	2570.03
738.932	2553.65
739.118	2703.15
739.303	2608.94
739.489	2633.52
739.674	2508.59
739.859	2666.28
740.045	2631.47
740.23	2600.75
740.416	2471.73
740.601	2619.18
740.786	2672.43
740.972	2682.67
741.157	2584.37
741.342	2449.2
741.528	2471.73
741.713	2600.75
741.898	2555.69
742.084	2549.55
742.269	2537.26
742.454	2453.3
742.639	2500.4
742.824	2453.3
743.01	2465.58
743.195	2504.5
743.38	2385.71
743.565	2424.62
743.75	2404.14
743.935	2408.24
744.12	2359.09
744.305	2352.95
744.49	2422.58
744.675	2373.43
744.86	2361.14
745.045	2301.75
745.23	2359.09
745.415	2340.66
745.6	2383.66
745.785	2225.97
745.97	2285.36
746.155	2324.27
746.34	2187.06
746.525	2240.31
746.71	2275.12
746.895	2166.58
747.079	2264.88
747.264	2191.16
747.449	2199.35
747.634	2084.66
747.819	2273.07
748.003	2238.26
748.188	2111.29
748.373	2148.15
748.557	2096.95
748.742	2101.05
748.927	1998.65
749.111	1998.65
749.296	2045.75
749.481	2043.7
749.665	2156.34
749.85	2051.89
750.034	1963.83
750.219	1951.54
750.404	2068.28
750.588	2086.71
750.773	2027.32
750.957	1939.26
751.141	1941.3
751.326	1910.58
751.51	2060.09
751.695	1836.86
751.879	1935.16
752.064	1929.02
752.248	1912.63
752.432	1838.91
752.617	1886.01
752.801	1777.47
752.985	1802.04
753.17	1742.65
753.354	1752.89
753.538	1793.85
753.722	1746.75
753.907	1759.03
754.091	1820.47
754.275	1720.12
754.459	1761.08
754.643	1732.41
754.828	1679.16
755.012	1773.37
755.196	1613.63
755.38	1705.79
755.564	1677.12
755.748	1646.4
755.932	1597.24
756.116	1599.29
756.3	1689.4
756.484	1650.49
756.668	1587.01
756.852	1597.24
757.036	1558.33
757.22	1535.81
757.404	1601.34
757.588	1525.57
757.772	1503.04
757.956	1533.76
758.14	1582.91
758.323	1419.07
758.507	1488.7
758.691	1423.17
758.875	1453.89
759.059	1480.51
759.242	1511.23
759.426	1447.74
759.61	1447.74
759.794	1378.11
759.977	1388.35
760.161	1363.78
760.345	1447.74
760.528	1410.88
760.712	1421.12
760.895	1410.88
761.079	1412.93
761.263	1439.55
761.446	1240.9
761.63	1333.06
761.813	1271.62
761.997	1257.28
762.18	1212.23
762.364	1277.76
762.547	1294.15
762.731	1314.63
762.914	1263.43
763.098	1257.28
763.281	1249.09
763.464	1212.23
763.648	1314.63
763.831	1214.27
764.015	1158.98
764.198	1285.95
764.381	1199.94
764.564	1271.62
764.748	1210.18
764.931	1199.94
765.114	1234.75
765.297	1222.47
765.481	1177.41
765.664	1169.22
765.847	1158.98
766.03	1294.15
766.213	1195.84
766.397	1146.69
766.58	1181.51
766.763	1171.27
766.946	1064.77
767.129	1142.6
767.312	1158.98
767.495	1081.16
767.678	1085.25
767.861	1191.75
768.044	1111.88
768.227	1064.77
768.41	1054.53
768.593	1105.73
768.776	1152.84
768.959	1056.58
769.142	1244.99
769.324	1077.06
769.507	1097.54
769.69	1077.06
769.873	1130.31
770.056	1060.68
770.239	995.14
770.421	1085.25
770.604	1083.2
770.787	1068.87
770.97	1089.35
771.152	956.23
771.335	1021.77
771.518	1025.86
771.7	1068.87
771.883	1048.39
772.066	1040.2
772.248	960.33
772.431	986.95
772.613	989
772.796	1011.53
772.978	1003.33
773.161	962.37
773.343	991.05
773.526	945.99
773.708	1027.91
773.891	857.93
774.073	902.98
774.256	792.39
774.438	972.61
774.621	872.26
774.803	931.66
774.985	835.4
775.168	866.12
775.35	864.07
775.532	857.93
775.715	876.36
775.897	870.22
776.079	798.54
776.261	859.98
776.444	847.69
776.626	855.88
776.808	829.26
776.99	782.15
777.173	788.3
777.355	825.16
777.537	763.72
777.719	800.59
777.901	773.96
778.083	763.72
778.265	808.78
778.447	776.01
778.629	837.45
778.811	778.06
778.993	751.43
779.175	743.24
779.357	642.89
779.539	749.39
779.721	626.51
779.903	694.09
780.085	747.34
780.267	773.96
780.449	657.23
780.631	696.14
780.812	692.04
780.994	710.47
781.176	720.71
781.358	651.08
781.54	698.19
781.721	601.93
781.903	767.82
782.085	597.84
782.267	632.65
782.448	634.7
782.63	657.23
782.812	569.16
782.993	657.23
783.175	587.6
783.357	632.65
783.538	626.51
783.72	560.97
783.901	587.6
784.083	622.41
784.264	585.55
784.446	581.45
784.627	583.5
784.809	593.74
784.99	550.73
785.172	540.49
785.353	501.58
785.535	655.18
785.716	601.93
785.897	468.81
786.079	573.26
786.26	495.44
786.441	489.29
786.623	503.63
786.804	526.16
786.985	489.29
787.167	528.21
787.348	472.91
787.529	483.15
787.71	493.39
787.891	495.44
788.073	493.39
788.254	464.72
788.435	479.05
788.616	499.53
788.797	438.09
788.978	395.09
789.159	415.57
789.34	431.95
789.522	489.29
789.703	499.53
789.884	397.14
790.065	444.24
790.246	384.85
790.427	444.24
790.607	505.68
790.788	378.7
790.969	399.18
791.15	395.09
791.331	442.19
791.512	384.85
791.693	450.38
791.874	413.52
792.054	411.47
792.235	390.99
792.416	358.22
792.597	368.46
792.778	388.94
792.958	382.8
793.139	343.89
793.32	360.27
793.5	444.24
793.681	360.27
793.862	290.64
794.042	409.42
794.223	409.42
794.404	354.13
794.584	337.74
794.765	397.14
794.945	362.32
795.126	390.99
795.306	323.41
795.487	325.46
795.667	339.79
795.848	343.89
796.028	307.02
796.209	251.73
796.389	304.98
796.57	364.37
796.75	317.26
796.93	278.35
797.111	411.47
797.291	309.07
797.471	319.31
797.652	288.59
797.832	264.02
798.012	329.55
798.192	298.83
798.373	290.64
798.553	274.26
798.733	313.17
798.913	257.87
799.093	259.92
799.274	329.55
799.454	327.5
799.634	300.88
799.814	327.5
799.994	302.93
800.174	296.78
800.354	231.25
800.534	298.83
800.714	298.83
800.894	272.21
801.074	204.63
801.254	268.11
801.434	331.6
801.614	307.02
801.794	290.64
801.974	606.03
802.154	231.25
802.334	278.35
802.514	255.83
802.693	347.98
802.873	243.54
803.053	282.45
803.233	239.44
803.413	309.07
803.592	270.16
803.772	214.87
803.952	198.48
804.131	307.02
804.311	253.78
804.491	290.64
804.67	221.01
804.85	216.91
805.03	231.25
805.209	266.07
805.389	118.61
805.568	241.49
805.748	245.59
805.928	298.83
806.107	212.82
806.287	368.46
806.466	212.82
806.646	257.87
806.825	249.68
807.004	270.16
807.184	247.63
807.363	233.3
807.543	194.39
807.722	210.77
807.901	145.24
808.081	192.34
808.26	192.34
808.439	214.87
808.619	192.34
808.798	221.01
808.977	184.15
809.156	307.02
809.336	200.53
809.515	229.2
809.694	218.96
809.873	231.25
810.052	180.05
810.231	188.24
810.411	190.29
810.59	227.15
810.769	255.83
810.948	188.24
811.127	186.19
811.306	188.24
811.485	184.15
811.664	218.96
811.843	188.24
812.022	231.25
812.201	143.19
812.38	194.39
812.559	106.32
812.737	278.35
812.916	165.71
813.095	149.33
813.274	223.06
813.453	126.8
813.632	180.05
813.811	163.67
813.989	171.86
814.168	223.06
814.347	214.87
814.526	198.48
814.704	155.47
814.883	200.53
815.062	71.51
815.24	192.34
815.419	216.91
815.598	171.86
815.776	116.56
815.955	180.05
816.133	128.85
816.312	231.25
816.49	171.86
816.669	184.15
816.847	182.1
817.026	147.28
817.204	161.62
817.383	251.73
817.561	67.41
817.74	169.81
817.918	155.47
818.097	173.91
818.275	200.53
818.453	163.67
818.632	245.59
818.81	190.29
818.988	120.66
819.167	71.51
819.345	178
819.523	128.85
819.701	116.56
819.879	171.86
820.058	206.67
820.236	196.43
820.414	69.46
820.592	171.86
820.77	149.33
820.948	120.66
821.127	102.23
821.305	89.94
821.483	122.71
821.661	208.72
821.839	147.28
822.017	188.24
822.195	122.71
822.373	235.35
822.551	67.41
822.729	159.57
822.907	188.24
823.085	102.23
823.262	163.67
823.44	114.52
823.618	118.61
823.796	81.75
823.974	102.23
824.152	57.17
824.329	135
824.507	132.95
824.685	122.71
824.863	110.42
825.04	83.8
825.218	65.36
825.396	159.57
825.574	157.52
825.751	118.61
825.929	87.89
826.107	83.8
826.284	38.74
826.462	165.71
826.639	77.65
826.817	16.21
826.994	5.97
827.172	40.79
827.349	161.62
827.527	81.75
827.704	139.09
827.882	141.14
828.059	135
828.237	40.79
828.414	132.95
828.591	61.27
828.769	141.14
828.946	104.28
829.124	128.85
829.301	143.19
829.478	149.33
829.655	114.52
829.833	116.56
830.01	73.56
830.187	87.89
830.364	100.18
830.542	116.56
830.719	135
830.896	83.8
831.073	48.98
831.25	85.84
831.427	122.71
831.604	98.13
831.782	94.04
831.959	85.84
832.136	-26.79
832.313	141.14
832.49	104.28
832.667	10.07
832.844	128.85
833.021	75.6
833.198	102.23
833.374	85.84
833.551	14.17
833.728	-2.22
833.905	16.21
834.082	61.27
834.259	28.5
834.436	143.19
834.612	-10.41
834.789	118.61
834.966	165.71
835.143	106.32
835.319	85.84
835.496	132.95
835.673	40.79
835.85	137.04
836.026	114.52
836.203	118.61
836.38	81.75
836.556	44.88
836.733	-18.6
836.909	114.52
837.086	20.31
837.262	-4.27
837.439	79.7
837.616	63.32
837.792	85.84
837.968	14.17
838.145	51.03
838.321	59.22
838.498	53.08
838.674	44.88
838.851	126.8
839.027	28.5
839.203	108.37
839.38	100.18
839.556	-32.94
839.732	122.71
839.909	85.84
840.085	102.23
840.261	44.88
840.437	32.6
840.614	44.88
840.79	114.52
840.966	63.32
841.142	46.93
841.318	8.02
841.494	108.37
841.671	36.69
841.847	71.51
842.023	61.27
842.199	36.69
842.375	118.61
842.551	22.36
842.727	24.4
842.903	126.8
843.079	24.4
843.255	98.13
843.431	112.47
843.607	77.65
843.783	59.22
843.959	135
844.134	55.12
844.31	94.04
844.486	8.02
844.662	34.64
844.838	26.45
845.013	63.32
845.189	44.88
845.365	120.66
845.541	57.17
845.716	77.65
845.892	5.97
846.068	8.02
846.244	34.64
846.419	28.5
846.595	94.04
846.77	59.22
846.946	28.5
847.122	18.26
847.297	12.12
847.473	34.64
847.648	-4.27
847.824	87.89
847.999	61.27
848.175	40.79
848.35	-0.17
848.526	87.89
848.701	44.88
848.876	18.26
849.052	16.21
849.227	48.98
849.403	57.17
849.578	44.88
849.753	42.84
849.929	112.47
850.104	55.12
850.279	42.84
850.454	79.7
850.63	137.04
850.805	-37.03
850.98	55.12
851.155	24.4
851.33	-0.17
851.505	42.84
851.681	14.17
851.856	34.64
852.031	81.75
852.206	-24.75
852.381	-43.18
852.556	-26.79
852.731	38.74
852.906	-32.94
853.081	53.08
853.256	30.55
853.431	36.69
853.606	5.97
853.781	42.84
853.956	36.69
854.131	65.36
854.305	55.12
854.48	83.8
854.655	36.69
854.83	18.26
855.005	98.13
855.18	44.88
855.354	83.8
855.529	83.8
855.704	71.51
855.879	65.36
856.053	91.99
856.228	65.36
856.403	34.64
856.577	18.26
856.752	79.7
856.926	36.69
857.101	67.41
857.276	36.69
857.45	55.12
857.625	18.26
857.799	79.7
857.974	61.27
858.148	-59.56
858.323	16.21
858.497	30.55
858.672	-2.22
858.846	22.36
859.02	59.22
859.195	12.12
859.369	48.98
859.543	-39.08
859.718	8.02
859.892	8.02
860.066	10.07
860.241	12.12
860.415	-80.04
860.589	40.79
860.763	26.45
860.938	28.5
861.112	91.99
861.286	61.27
861.46	16.21
861.634	30.55
861.808	63.32
861.982	-82.09
862.157	40.79
862.331	30.55
862.505	-2.22
862.679	3.93
862.853	34.64
863.027	-4.27
863.201	89.94
863.375	-16.55
863.549	51.03
863.722	42.84
863.896	51.03
864.07	14.17
864.244	85.84
864.418	59.22
864.592	34.64
864.766	30.55
864.939	40.79
865.113	8.02
865.287	24.4
865.461	-14.51
865.634	16.21
865.808	26.45
865.982	-8.36
866.156	18.26
866.329	-28.84
866.503	-14.51
866.676	-4.27
866.85	-24.75
867.024	-2.22
867.197	28.5
867.371	26.45
867.544	32.6
867.718	18.26
867.891	98.13
868.065	-24.75
868.238	55.12
868.412	71.51
868.585	12.12
868.759	-77.99
868.932	-18.6
869.105	-2.22
869.279	32.6
869.452	36.69
869.625	-12.46
869.799	8.02
869.972	59.22
870.145	-61.61
870.319	18.26
870.492	-4.27
870.665	46.93
870.838	-37.03
871.011	8.02
871.185	16.21
871.358	-8.36
871.531	34.64
871.704	10.07
871.877	30.55
872.05	-24.75
872.223	20.31
872.396	-20.65
872.569	22.36
872.742	24.4
872.915	-10.41
873.088	46.93
873.261	61.27
873.434	44.88
873.607	20.31
873.78	81.75
873.953	-10.41
874.126	-14.51
874.299	-0.17
874.471	67.41
874.644	-34.99
874.817	8.02
874.99	28.5
875.163	-20.65
875.335	18.26
875.508	-94.38
875.681	-37.03
875.853	22.36
876.026	-6.31
876.199	-16.55
876.371	-8.36
876.544	-65.71
876.717	44.88
876.889	12.12
877.062	55.12
877.234	-57.51
877.407	10.07
877.579	28.5
877.752	10.07
877.924	44.88
878.097	-37.03
878.269	20.31
878.442	-8.36
878.614	-43.18
878.786	32.6
878.959	-10.41
879.131	5.97
879.303	-12.46
879.476	-41.13
879.648	65.36
879.82	34.64
879.993	89.94
880.165	-22.7
880.337	-22.7
880.509	20.31
880.681	20.31
880.854	5.97
881.026	42.84
881.198	28.5
881.37	1.88
881.542	51.03
881.714	26.45
881.886	38.74
882.058	14.17
882.23	26.45
882.402	20.31
882.574	3.93
882.746	12.12
882.918	61.27
883.09	18.26
883.262	-12.46
883.434	-8.36
883.606	3.93
883.778	63.32
883.95	77.65
884.122	10.07
884.293	71.51
884.465	57.17
884.637	63.32
884.809	10.07
884.98	-18.6
885.152	-30.89
885.324	3.93
885.496	46.93
885.667	-57.51
885.839	-34.99
886.011	132.95
886.182	28.5
886.354	-8.36
886.525	10.07
886.697	51.03
886.869	-16.55
887.04	-65.71
887.212	-37.03
887.383	81.75
887.555	44.88
887.726	-69.8
887.897	20.31
888.069	32.6
888.24	59.22
888.412	3.93
888.583	73.56
888.754	10.07
888.926	-51.37
889.097	-8.36
889.268	-18.6
889.44	55.12
889.611	20.31
889.782	51.03
889.953	18.26
890.125	16.21
890.296	-14.51
890.467	42.84
890.638	-0.17
890.809	-14.51
890.98	-16.55
891.151	48.98
891.323	-18.6
891.494	36.69
891.665	-45.23
891.836	-61.61
892.007	3.93
892.178	28.5
892.349	-80.04
892.52	-24.75
892.691	-34.99
892.862	-4.27
893.032	12.12
893.203	120.66
893.374	-18.6
893.545	3.93
893.716	-4.27
893.887	22.36
894.057	-14.51
894.228	12.12
894.399	3.93
894.57	46.93
894.74	16.21
894.911	-37.03
895.082	26.45
895.253	-51.37
895.423	-14.51
895.594	57.17
895.764	-28.84
895.935	32.6
896.106	20.31
896.276	-8.36
896.447	-26.79
896.617	40.79
896.788	-28.84
896.958	-8.36
897.129	-53.42
897.299	28.5
897.47	-10.41
897.64	-49.32
897.81	-24.75
897.981	38.74
898.151	55.12
898.322	3.93
898.492	-43.18
898.662	-12.46
898.832	-2.22
899.003	-47.27
899.173	10.07
899.343	5.97
899.513	55.12
