Data from USB4F104151__208__11-10-22-077.txt Node

Date: Wed Mar 12 11:10:22 EDT 2025
User: louis
Spectrometer: USB4F10415
Trigger mode: 4
Integration Time (sec): 2.000000E-2
Scans to average: 1
Electric dark correction enabled: true
Nonlinearity correction enabled: false
Boxcar width: 0
XAxis mode: Wavelengths
Number of Pixels in Spectrum: 3648
>>>>>Begin Spectral Data<<<<<
178.204	-102.57
178.424	-102.57
178.644	-102.57
178.864	-123.05
179.084	-84.14
179.304	-28.84
179.524	-10.41
179.744	-69.8
179.964	57.17
180.184	40.79
180.404	-14.51
180.624	63.32
180.844	10.07
181.064	-80.04
181.283	-26.79
181.503	14.17
181.723	44.88
181.943	-43.18
182.163	18.26
182.383	-102.57
182.602	36.69
182.822	81.75
183.042	-86.19
183.262	53.08
183.482	-0.17
183.701	-57.51
183.921	-32.94
184.141	-39.08
184.361	30.55
184.58	-28.84
184.8	20.31
185.02	-51.37
185.239	-43.18
185.459	-10.41
185.679	1.88
185.898	-32.94
186.118	-22.7
186.338	12.12
186.557	-30.89
186.777	-4.27
186.997	18.26
187.216	-0.17
187.436	38.74
187.655	30.55
187.875	98.13
188.095	32.6
188.314	63.32
188.534	-47.27
188.753	20.31
188.973	89.94
189.192	42.84
189.412	-0.17
189.631	63.32
189.851	-12.46
190.07	16.21
190.29	-20.65
190.509	-67.75
190.729	8.02
190.948	1.88
191.168	151.38
191.387	18.26
191.607	-20.65
191.826	-43.18
192.045	-16.55
192.265	20.31
192.484	-41.13
192.704	36.69
192.923	10.07
193.142	48.98
193.362	8.02
193.581	-2.22
193.8	-43.18
194.02	26.45
194.239	-26.79
194.458	20.31
194.678	-39.08
194.897	5.97
195.116	38.74
195.335	5.97
195.555	-32.94
195.774	-24.75
195.993	18.26
196.212	-26.79
196.432	-32.94
196.651	-65.71
196.87	-57.51
197.089	36.69
197.308	32.6
197.528	81.75
197.747	-16.55
197.966	12.12
198.185	59.22
198.404	8.02
198.623	12.12
198.842	18.26
199.062	-0.17
199.281	10.07
199.5	12.12
199.719	46.93
199.938	-4.27
200.157	-20.65
200.376	-10.41
200.595	-16.55
200.814	1.88
201.033	-16.55
201.252	-4.27
201.471	44.88
201.69	-34.99
201.909	36.69
202.128	-0.17
202.347	-32.94
202.566	-63.66
202.785	8.02
203.004	-18.6
203.223	28.5
203.442	38.74
203.661	-61.61
203.879	-22.7
204.098	61.27
204.317	8.02
204.536	-14.51
204.755	-73.9
204.974	51.03
205.193	22.36
205.411	40.79
205.63	-67.75
205.849	-8.36
206.068	12.12
206.287	42.84
206.505	28.5
206.724	12.12
206.943	-59.56
207.162	69.46
207.381	3.93
207.599	-8.36
207.818	89.94
208.037	18.26
208.255	20.31
208.474	48.98
208.693	-43.18
208.911	5.97
209.13	53.08
209.349	-16.55
209.567	51.03
209.786	18.26
210.005	-18.6
210.223	-24.75
210.442	57.17
210.661	-12.46
210.879	48.98
211.098	53.08
211.316	-51.37
211.535	65.36
211.753	57.17
211.972	3.93
212.191	-49.32
212.409	1.88
212.628	-2.22
212.846	-10.41
213.065	14.17
213.283	28.5
213.502	36.69
213.72	-65.71
213.938	16.21
214.157	42.84
214.375	61.27
214.594	-6.31
214.812	44.88
215.031	-6.31
215.249	1.88
215.467	48.98
215.686	14.17
215.904	16.21
216.122	36.69
216.341	16.21
216.559	8.02
216.778	-2.22
216.996	-20.65
217.214	30.55
217.432	53.08
217.651	106.32
217.869	-16.55
218.087	-20.65
218.306	48.98
218.524	-43.18
218.742	-77.99
218.96	40.79
219.179	46.93
219.397	22.36
219.615	48.98
219.833	3.93
220.051	8.02
220.27	-2.22
220.488	-41.13
220.706	18.26
220.924	48.98
221.142	24.4
221.36	-2.22
221.578	38.74
221.796	5.97
222.015	5.97
222.233	-6.31
222.451	96.08
222.669	-84.14
222.887	71.51
223.105	-2.22
223.323	10.07
223.541	59.22
223.759	24.4
223.977	-0.17
224.195	16.21
224.413	102.23
224.631	-86.19
224.849	71.51
225.067	16.21
225.285	-80.04
225.503	30.55
225.721	-16.55
225.939	-16.55
226.157	3.93
226.375	44.88
226.592	-0.17
226.81	-2.22
227.028	28.5
227.246	87.89
227.464	12.12
227.682	83.8
227.9	77.65
228.117	-2.22
228.335	-10.41
228.553	14.17
228.771	63.32
228.989	55.12
229.206	83.8
229.424	5.97
229.642	-14.51
229.86	-73.9
230.077	77.65
230.295	28.5
230.513	-39.08
230.731	22.36
230.948	104.28
231.166	16.21
231.384	-43.18
231.601	22.36
231.819	-6.31
232.037	-59.56
232.254	30.55
232.472	-8.36
232.689	36.69
232.907	14.17
233.125	38.74
233.342	-16.55
233.56	-37.03
233.777	22.36
233.995	-22.7
234.213	61.27
234.43	51.03
234.648	-14.51
234.865	20.31
235.083	18.26
235.3	12.12
235.518	42.84
235.735	46.93
235.953	-28.84
236.17	1.88
236.388	42.84
236.605	8.02
236.822	46.93
237.04	-18.6
237.257	24.4
237.475	-82.09
237.692	32.6
237.909	28.5
238.127	1.88
238.344	-14.51
238.562	-4.27
238.779	-37.03
238.996	-30.89
239.214	-55.47
239.431	38.74
239.648	-2.22
239.865	-26.79
240.083	48.98
240.3	-14.51
240.517	-59.56
240.735	-8.36
240.952	69.46
241.169	28.5
241.386	-4.27
241.603	-10.41
241.821	32.6
242.038	69.46
242.255	3.93
242.472	1.88
242.689	28.5
242.907	24.4
243.124	5.97
243.341	-26.79
243.558	34.64
243.775	-84.14
243.992	-61.61
244.209	5.97
244.426	87.89
244.643	28.5
244.86	-57.51
245.078	-4.27
245.295	12.12
245.512	-20.65
245.729	-0.17
245.946	-6.31
246.163	32.6
246.38	51.03
246.597	-12.46
246.814	59.22
247.031	-34.99
247.248	14.17
247.464	61.27
247.681	51.03
247.898	-10.41
248.115	116.56
248.332	-20.65
248.549	-10.41
248.766	-14.51
248.983	-2.22
249.2	-14.51
249.417	65.36
249.633	1.88
249.85	20.31
250.067	-6.31
250.284	-20.65
250.501	18.26
250.717	75.6
250.934	-41.13
251.151	38.74
251.368	12.12
251.585	-28.84
251.801	81.75
252.018	40.79
252.235	-55.47
252.451	55.12
252.668	1.88
252.885	51.03
253.102	22.36
253.318	3.93
253.535	46.93
253.752	-45.23
253.968	40.79
254.185	-30.89
254.401	18.26
254.618	-30.89
254.835	-86.19
255.051	12.12
255.268	32.6
255.484	-14.51
255.701	89.94
255.917	83.8
256.134	-14.51
256.351	18.26
256.567	-2.22
256.784	28.5
257	-8.36
257.217	20.31
257.433	-49.32
257.65	12.12
257.866	63.32
258.082	48.98
258.299	-6.31
258.515	18.26
258.732	36.69
258.948	16.21
259.165	-26.79
259.381	55.12
259.597	-51.37
259.814	-6.31
260.03	-18.6
260.246	110.42
260.463	-8.36
260.679	1.88
260.895	-0.17
261.112	26.45
261.328	-28.84
261.544	38.74
261.761	44.88
261.977	8.02
262.193	-45.23
262.409	59.22
262.626	12.12
262.842	18.26
263.058	-0.17
263.274	-2.22
263.49	46.93
263.707	12.12
263.923	10.07
264.139	10.07
264.355	36.69
264.571	53.08
264.787	98.13
265.004	20.31
265.22	16.21
265.436	12.12
265.652	-12.46
265.868	-6.31
266.084	61.27
266.3	-43.18
266.516	-49.32
266.732	42.84
266.948	44.88
267.164	32.6
267.38	20.31
267.596	57.17
267.812	108.37
268.028	-10.41
268.244	-41.13
268.46	-12.46
268.676	22.36
268.892	12.12
269.108	-32.94
269.324	75.6
269.54	5.97
269.756	1.88
269.972	-37.03
270.188	8.02
270.403	40.79
270.619	-14.51
270.835	96.08
271.051	20.31
271.267	10.07
271.483	48.98
271.698	42.84
271.914	59.22
272.13	-0.17
272.346	10.07
272.562	55.12
272.777	-24.75
272.993	57.17
273.209	18.26
273.425	42.84
273.64	-37.03
273.856	20.31
274.072	75.6
274.287	3.93
274.503	118.61
274.719	1.88
274.934	55.12
275.15	-22.7
275.366	59.22
275.581	-34.99
275.797	38.74
276.012	-0.17
276.228	-51.37
276.444	5.97
276.659	8.02
276.875	-14.51
277.09	12.12
277.306	-37.03
277.521	36.69
277.737	24.4
277.952	-90.28
278.168	59.22
278.383	-6.31
278.599	59.22
278.814	34.64
279.03	-49.32
279.245	42.84
279.461	5.97
279.676	-10.41
279.892	-20.65
280.107	81.75
280.322	-10.41
280.538	32.6
280.753	22.36
280.969	24.4
281.184	20.31
281.399	81.75
281.615	-43.18
281.83	1.88
282.045	-14.51
282.26	40.79
282.476	8.02
282.691	-0.17
282.906	-8.36
283.122	-34.99
283.337	-12.46
283.552	34.64
283.767	18.26
283.983	-14.51
284.198	22.36
284.413	5.97
284.628	-49.32
284.843	-2.22
285.058	-34.99
285.274	-16.55
285.489	-18.6
285.704	-12.46
285.919	48.98
286.134	59.22
286.349	-32.94
286.564	-43.18
286.779	83.8
286.995	18.26
287.21	-20.65
287.425	32.6
287.64	67.41
287.855	-51.37
288.07	-75.95
288.285	-18.6
288.5	69.46
288.715	38.74
288.93	-20.65
289.145	63.32
289.36	28.5
289.575	16.21
289.79	28.5
290.004	32.6
290.219	51.03
290.434	94.04
290.649	5.97
290.864	-2.22
291.079	51.03
291.294	1.88
291.509	32.6
291.724	12.12
291.938	-73.9
292.153	96.08
292.368	85.84
292.583	36.69
292.798	42.84
293.012	22.36
293.227	77.65
293.442	-20.65
293.657	-14.51
293.871	-73.9
294.086	69.46
294.301	81.75
294.516	-8.36
294.73	-49.32
294.945	1.88
295.16	81.75
295.374	1.88
295.589	38.74
295.804	-4.27
296.018	46.93
296.233	18.26
296.447	36.69
296.662	-0.17
296.877	55.12
297.091	1.88
297.306	-14.51
297.52	-61.61
297.735	67.41
297.949	38.74
298.164	51.03
298.378	-22.7
298.593	36.69
298.807	32.6
299.022	-4.27
299.236	3.93
299.451	1.88
299.665	12.12
299.88	-20.65
300.094	46.93
300.309	36.69
300.523	100.18
300.737	46.93
300.952	-53.42
301.166	30.55
301.381	-16.55
301.595	-73.9
301.809	24.4
302.024	-12.46
302.238	-84.14
302.452	28.5
302.667	98.13
302.881	36.69
303.095	22.36
303.309	42.84
303.524	106.32
303.738	16.21
303.952	40.79
304.166	32.6
304.381	-6.31
304.595	26.45
304.809	61.27
305.023	-26.79
305.237	81.75
305.452	-12.46
305.666	63.32
305.88	71.51
306.094	44.88
306.308	-39.08
306.522	-26.79
306.736	-20.65
306.95	16.21
307.164	-24.75
307.379	87.89
307.593	40.79
307.807	8.02
308.021	28.5
308.235	38.74
308.449	-73.9
308.663	-8.36
308.877	-10.41
309.091	-10.41
309.305	10.07
309.519	-10.41
309.733	-26.79
309.947	-14.51
310.161	8.02
310.374	-0.17
310.588	3.93
310.802	40.79
311.016	57.17
311.23	1.88
311.444	73.56
311.658	-77.99
311.872	12.12
312.085	106.32
312.299	3.93
312.513	14.17
312.727	46.93
312.941	-82.09
313.154	48.98
313.368	-34.99
313.582	-16.55
313.796	10.07
314.009	-24.75
314.223	-32.94
314.437	46.93
314.651	8.02
314.864	24.4
315.078	44.88
315.292	-6.31
315.505	-2.22
315.719	-16.55
315.933	-47.27
316.146	12.12
316.36	24.4
316.573	38.74
316.787	71.51
317.001	53.08
317.214	-43.18
317.428	42.84
317.641	-22.7
317.855	8.02
318.068	14.17
318.282	1.88
318.495	96.08
318.709	38.74
318.922	-37.03
319.136	61.27
319.349	81.75
319.563	-37.03
319.776	3.93
319.99	61.27
320.203	32.6
320.417	3.93
320.63	26.45
320.843	28.5
321.057	-2.22
321.27	48.98
321.483	-14.51
321.697	51.03
321.91	22.36
322.124	10.07
322.337	57.17
322.55	46.93
322.763	8.02
322.977	-2.22
323.19	-24.75
323.403	-51.37
323.617	-24.75
323.83	94.04
324.043	-8.36
324.256	8.02
324.469	48.98
324.683	-37.03
324.896	-34.99
325.109	30.55
325.322	-43.18
325.535	81.75
325.748	46.93
325.962	34.64
326.175	87.89
326.388	16.21
326.601	116.56
326.814	-18.6
327.027	-8.36
327.24	38.74
327.453	-0.17
327.666	22.36
327.879	30.55
328.092	-12.46
328.305	-8.36
328.518	40.79
328.731	36.69
328.944	-55.47
329.157	44.88
329.37	42.84
329.583	104.28
329.796	73.56
330.009	28.5
330.222	69.46
330.435	-37.03
330.648	63.32
330.861	22.36
331.073	73.56
331.286	22.36
331.499	3.93
331.712	-49.32
331.925	55.12
332.138	53.08
332.35	1.88
332.563	-24.75
332.776	85.84
332.989	-16.55
333.202	36.69
333.414	8.02
333.627	53.08
333.84	-39.08
334.053	79.7
334.265	30.55
334.478	18.26
334.691	24.4
334.903	-0.17
335.116	-18.6
335.329	18.26
335.541	65.36
335.754	98.13
335.966	-8.36
336.179	32.6
336.392	-0.17
336.604	40.79
336.817	36.69
337.029	10.07
337.242	-0.17
337.454	48.98
337.667	-0.17
337.88	102.23
338.092	40.79
338.305	-18.6
338.517	-8.36
338.729	10.07
338.942	24.4
339.154	24.4
339.367	38.74
339.579	44.88
339.792	28.5
340.004	24.4
340.217	-24.75
340.429	-18.6
340.641	48.98
340.854	40.79
341.066	-24.75
341.278	28.5
341.491	42.84
341.703	126.8
341.915	69.46
342.128	30.55
342.34	34.64
342.552	-16.55
342.764	42.84
342.977	-39.08
343.189	40.79
343.401	34.64
343.613	-2.22
343.826	34.64
344.038	61.27
344.25	14.17
344.462	-34.99
344.674	102.23
344.886	-51.37
345.099	81.75
345.311	24.4
345.523	5.97
345.735	18.26
345.947	116.56
346.159	24.4
346.371	1.88
346.583	-49.32
346.795	55.12
347.007	18.26
347.219	28.5
347.431	5.97
347.643	-67.75
347.855	-22.7
348.067	26.45
348.279	-10.41
348.491	10.07
348.703	10.07
348.915	-10.41
349.127	-16.55
349.339	-8.36
349.551	40.79
349.763	69.46
349.975	22.36
350.187	30.55
350.399	77.65
350.61	38.74
350.822	61.27
351.034	12.12
351.246	38.74
351.458	53.08
351.669	14.17
351.881	69.46
352.093	8.02
352.305	28.5
352.517	5.97
352.728	55.12
352.94	69.46
353.152	51.03
353.363	-55.47
353.575	77.65
353.787	44.88
353.999	32.6
354.21	14.17
354.422	71.51
354.633	-39.08
354.845	-10.41
355.057	55.12
355.268	61.27
355.48	53.08
355.692	40.79
355.903	-0.17
356.115	96.08
356.326	61.27
356.538	-2.22
356.749	-20.65
356.961	5.97
357.172	-30.89
357.384	55.12
357.595	120.66
357.807	-22.7
358.018	-0.17
358.23	61.27
358.441	83.8
358.653	51.03
358.864	-4.27
359.075	42.84
359.287	57.17
359.498	71.51
359.709	16.21
359.921	-28.84
360.132	18.26
360.344	85.84
360.555	53.08
360.766	-4.27
360.977	34.64
361.189	10.07
361.4	8.02
361.611	18.26
361.823	89.94
362.034	3.93
362.245	32.6
362.456	20.31
362.667	-37.03
362.879	-12.46
363.09	44.88
363.301	40.79
363.512	10.07
363.723	10.07
363.935	-80.04
364.146	53.08
364.357	48.98
364.568	12.12
364.779	36.69
364.99	-0.17
365.201	-8.36
365.412	77.65
365.623	61.27
365.834	81.75
366.045	42.84
366.256	110.42
366.467	59.22
366.678	81.75
366.889	36.69
367.1	69.46
367.311	55.12
367.522	100.18
367.733	10.07
367.944	1.88
368.155	-2.22
368.366	77.65
368.577	53.08
368.788	38.74
368.999	46.93
369.209	40.79
369.42	59.22
369.631	85.84
369.842	55.12
370.053	28.5
370.264	14.17
370.474	24.4
370.685	55.12
370.896	42.84
371.107	28.5
371.317	-2.22
371.528	46.93
371.739	120.66
371.95	46.93
372.16	65.36
372.371	32.6
372.582	-59.56
372.792	26.45
373.003	57.17
373.214	51.03
373.424	20.31
373.635	28.5
373.846	8.02
374.056	-86.19
374.267	51.03
374.477	83.8
374.688	-14.51
374.898	-30.89
375.109	100.18
375.319	40.79
375.53	30.55
375.74	28.5
375.951	14.17
376.161	42.84
376.372	55.12
376.582	-18.6
376.793	81.75
377.003	-39.08
377.214	32.6
377.424	120.66
377.635	-51.37
377.845	75.6
378.055	18.26
378.266	8.02
378.476	65.36
378.686	83.8
378.897	-14.51
379.107	14.17
379.317	34.64
379.528	12.12
379.738	40.79
379.948	3.93
380.158	48.98
380.369	30.55
380.579	38.74
380.789	36.69
380.999	112.47
381.21	-43.18
381.42	94.04
381.63	81.75
381.84	28.5
382.05	40.79
382.261	5.97
382.471	10.07
382.681	36.69
382.891	106.32
383.101	-32.94
383.311	40.79
383.521	-26.79
383.731	42.84
383.941	71.51
384.151	34.64
384.361	34.64
384.571	71.51
384.781	24.4
384.991	81.75
385.201	94.04
385.411	10.07
385.621	110.42
385.831	38.74
386.041	75.6
386.251	91.99
386.461	48.98
386.671	8.02
386.881	40.79
387.091	-22.7
387.301	61.27
387.511	42.84
387.72	-43.18
387.93	67.41
388.14	94.04
388.35	30.55
388.56	-41.13
388.769	42.84
388.979	46.93
389.189	24.4
389.399	28.5
389.609	12.12
389.818	75.6
390.028	81.75
390.238	59.22
390.447	36.69
390.657	61.27
390.867	87.89
391.076	71.51
391.286	73.56
391.496	57.17
391.705	81.75
391.915	102.23
392.125	71.51
392.334	8.02
392.544	71.51
392.753	110.42
392.963	-8.36
393.172	16.21
393.382	5.97
393.591	106.32
393.801	12.12
394.01	102.23
394.22	63.32
394.429	73.56
394.639	44.88
394.848	20.31
395.058	48.98
395.267	110.42
395.477	89.94
395.686	44.88
395.895	94.04
396.105	96.08
396.314	112.47
396.524	-20.65
396.733	12.12
396.942	114.52
397.152	73.56
397.361	118.61
397.57	65.36
397.78	44.88
397.989	130.9
398.198	130.9
398.407	38.74
398.617	110.42
398.826	122.71
399.035	83.8
399.244	108.37
399.453	118.61
399.663	128.85
399.872	139.09
400.081	57.17
400.29	110.42
400.499	40.79
400.708	108.37
400.917	96.08
401.127	139.09
401.336	71.51
401.545	149.33
401.754	83.8
401.963	89.94
402.172	81.75
402.381	128.85
402.59	79.7
402.799	89.94
403.008	89.94
403.217	104.28
403.426	122.71
403.635	114.52
403.844	69.46
404.053	85.84
404.262	122.71
404.471	171.86
404.68	139.09
404.888	118.61
405.097	114.52
405.306	85.84
405.515	59.22
405.724	135
405.933	175.95
406.142	130.9
406.35	141.14
406.559	96.08
406.768	175.95
406.977	237.39
407.185	190.29
407.394	200.53
407.603	175.95
407.812	194.39
408.02	186.19
408.229	210.77
408.438	206.67
408.646	282.45
408.855	155.47
409.064	190.29
409.272	143.19
409.481	257.87
409.69	264.02
409.898	253.78
410.107	268.11
410.315	327.5
410.524	249.68
410.733	343.89
410.941	300.88
411.15	282.45
411.358	366.42
411.567	343.89
411.775	390.99
411.984	395.09
412.192	350.03
412.401	436.05
412.609	456.53
412.818	546.64
413.026	434
413.234	450.38
413.443	532.3
413.651	440.14
413.86	579.4
414.068	587.6
414.276	612.17
414.485	511.82
414.693	657.23
414.901	675.66
415.11	618.32
415.318	698.19
415.526	665.42
415.734	749.39
415.943	841.54
416.151	900.94
416.359	792.39
416.567	792.39
416.776	794.44
416.984	1064.77
417.192	978.76
417.4	948.04
417.608	941.89
417.817	989
418.025	1109.83
418.233	1152.84
418.441	1044.29
418.649	1128.26
418.857	1236.8
419.065	1197.89
419.273	1308.48
419.481	1369.92
419.689	1308.48
419.897	1468.22
420.105	1427.26
420.313	1445.7
420.521	1529.66
420.729	1562.43
420.937	1603.39
421.145	1652.54
421.353	1742.65
421.561	1802.04
421.769	1853.24
421.977	2045.75
422.185	1978.17
422.393	2135.86
422.601	2137.91
422.809	2215.73
423.017	2238.26
423.224	2201.4
423.432	2381.62
423.64	2395.95
423.848	2709.29
424.056	2565.93
424.263	2793.26
424.471	2735.92
424.679	2731.82
424.887	2977.58
425.094	3086.12
425.302	3084.07
425.51	3082.02
425.718	3223.33
425.925	3317.54
426.133	3372.83
426.341	3538.72
426.548	3745.56
426.756	3684.13
426.964	3850.01
427.171	4034.33
427.379	4112.15
427.586	4149.01
427.794	4359.95
428.001	4521.74
428.209	4888.33
428.417	4669.2
428.624	4914.95
428.832	5031.69
429.039	5021.45
429.247	4974.35
429.454	5437.19
429.662	5730.05
429.869	5469.95
430.076	5746.43
430.284	5658.37
430.491	5934.84
430.699	6385.4
430.906	6213.37
431.114	6276.85
431.321	6637.3
431.528	6625.01
431.736	7120.62
431.943	7540.45
432.15	7104.23
432.358	7352.04
432.565	7859.93
432.772	7771.87
432.979	7894.75
433.187	8261.34
433.394	8230.62
433.601	8697.55
433.808	8906.45
434.016	8802
434.223	9238.22
434.43	9739.97
434.637	9526.98
434.844	10157.75
435.052	10237.63
435.259	10206.91
435.466	10413.75
435.673	10235.58
435.88	10874.54
436.087	11409.06
436.294	11466.41
436.501	11402.92
436.708	11366.06
436.915	11890.34
437.122	12308.12
437.329	12398.23
437.537	12594.84
437.743	12979.86
437.95	12777.11
438.157	13153.93
438.364	13880.96
438.571	13880.96
438.778	14026.37
438.985	15359.59
439.192	14632.57
439.399	15308.4
439.606	14919.28
439.813	15634.02
440.02	16637.53
440.227	16238.17
440.433	15976.03
440.64	16625.24
440.847	16598.62
441.054	17262.16
441.261	17925.7
441.467	17712.71
441.674	18218.56
441.881	18826.81
442.088	18832.95
442.294	18521.66
442.501	18957.88
442.708	19439.15
442.914	20514.33
443.121	21331.47
443.328	20692.51
443.534	21982.73
443.741	21655.05
443.948	20975.13
444.154	22742.52
444.361	22570.49
444.568	22873.59
444.774	22849.02
444.981	22971.89
445.187	23662.06
445.394	24724.96
445.6	24237.54
445.807	26836.41
446.013	25445.84
446.22	25902.54
446.426	26875.32
446.633	27334.07
446.839	28173.74
447.046	27225.53
447.252	28843.42
447.459	28384.68
447.665	28343.72
447.871	29525.39
448.078	30516.61
448.284	29068.7
448.491	29910.41
448.697	31190.39
448.903	31905.13
449.11	32337.26
449.316	31442.29
449.522	31966.57
449.728	32777.57
449.935	33109.34
450.141	33029.47
450.347	33359.19
450.553	32869.73
450.76	33162.59
450.966	34241.87
451.172	33676.63
451.378	34354.51
451.584	33813.84
451.791	34878.79
451.997	34483.53
452.203	34813.25
452.409	35155.26
452.615	34891.07
452.821	33465.69
453.027	33459.54
453.233	34989.38
453.44	33510.74
453.646	34196.81
453.852	33860.94
454.058	34760
454.264	33553.75
454.47	34461
454.676	33363.29
454.882	34520.39
455.088	31305.08
455.294	31980.91
455.5	32497
455.705	32644.45
455.911	31313.27
456.117	30981.5
456.323	30152.07
456.529	28730.78
456.735	30107.02
456.941	29369.75
457.147	29085.08
457.352	27760.05
457.558	27719.09
457.764	27465.14
457.97	27190.71
458.176	26332.61
458.381	26500.54
458.587	24839.64
458.793	25210.32
458.999	23901.67
459.204	25445.84
459.41	24849.88
459.616	23285.23
459.821	23283.19
460.027	23242.23
460.233	22386.18
460.438	21534.22
460.644	22144.52
460.85	20622.87
461.055	20710.94
461.261	20502.04
461.466	19381.81
461.672	18523.71
461.878	19600.94
462.083	18433.6
462.289	17919.56
462.494	18058.82
462.7	17034.83
462.905	16586.33
463.111	17231.44
463.316	17450.57
463.522	16723.54
463.727	16997.97
463.932	17081.94
464.138	16610.9
464.343	16883.28
464.549	16246.37
464.754	16975.44
464.959	16789.08
465.165	16404.06
465.37	15881.83
465.575	15453.8
465.781	16191.07
465.986	16148.06
466.191	15574.63
466.397	15138.41
466.602	14442.1
466.807	15103.6
467.012	14995.06
467.218	15050.35
467.423	14847.6
467.628	15093.36
467.833	15466.09
468.038	15265.39
468.244	14444.15
468.449	15119.98
468.654	14571.13
468.859	14468.73
469.064	14509.69
469.269	14028.42
469.474	14214.78
469.679	14282.36
469.885	13880.96
470.09	13954.69
470.295	14083.71
470.5	13450.89
470.705	13739.65
470.91	13178.51
471.115	13325.96
471.32	13452.94
471.525	13356.68
471.73	13082.25
471.935	12971.66
472.139	12435.1
472.344	12740.24
472.549	12635.8
472.754	12377.75
472.959	12304.03
473.164	11962.01
473.369	11910.82
473.574	12293.79
473.778	12164.76
473.983	11865.76
474.188	11916.96
474.393	11314.86
474.598	11370.15
474.802	11241.13
475.007	11271.85
475.212	11261.61
475.417	10911.41
475.621	10989.23
475.826	10819.25
476.031	10571.44
476.235	10264.25
476.44	10757.81
476.645	10477.24
476.849	10610.36
477.054	10268.34
477.259	10051.26
477.463	10202.81
477.668	9899.71
477.872	10157.75
478.077	9848.51
478.282	9633.47
478.486	9686.72
478.691	9526.98
478.895	9477.83
479.1	9715.39
479.304	9295.56
479.509	9123.53
479.713	9432.77
479.918	9217.74
480.122	8918.73
480.326	9096.91
480.531	9193.16
480.735	9010.89
480.94	9178.83
481.144	9029.32
481.348	8857.29
481.553	9031.37
481.757	8640.21
481.961	8806.09
482.166	9115.34
482.37	8955.6
482.574	8742.61
482.778	8576.72
482.983	8847.05
483.187	8828.62
483.391	8781.52
483.595	8754.9
483.8	8709.84
484.004	8668.88
484.208	8832.72
484.412	8777.42
484.616	8912.59
484.821	8732.37
485.025	8658.64
485.229	8752.85
485.433	8662.74
485.637	9031.37
485.841	8568.53
486.045	8732.37
486.249	8777.42
486.453	8507.09
486.657	8765.14
486.861	8670.93
487.065	8523.48
487.269	8730.32
487.473	8586.96
487.677	8740.56
487.881	8763.09
488.085	8832.72
488.289	8863.44
488.493	8771.28
488.697	8722.13
488.901	8767.18
489.105	8652.5
489.309	8775.38
489.512	8763.09
489.716	8799.95
489.92	8799.95
490.124	8761.04
490.328	9101
490.531	8926.93
490.735	8990.41
490.939	8996.56
491.143	9172.68
491.346	8855.25
491.55	9182.92
491.754	9000.65
491.958	9123.53
492.161	9066.19
492.365	9322.18
492.569	9180.87
492.772	9252.55
492.976	9283.27
493.18	9301.7
493.383	9457.35
493.587	9555.65
493.79	9367.24
493.994	9402.05
494.197	9633.47
494.401	9696.96
494.605	9750.21
494.808	10159.8
495.012	9942.72
495.215	9852.61
495.419	9830.08
495.622	9871.04
495.825	10086.08
496.029	10307.26
496.232	10346.17
496.436	10438.33
496.639	10585.78
496.843	10608.31
497.046	10796.72
497.249	10800.82
497.453	10903.21
497.656	10948.27
497.859	11095.72
498.063	11052.72
498.266	11253.42
498.469	11341.48
498.673	11478.69
498.876	11501.22
499.079	11869.86
499.282	11638.44
499.485	12142.24
499.689	12007.07
499.892	12433.05
500.095	12301.98
500.298	12705.43
500.501	12387.99
500.705	12955.28
500.908	13004.43
501.111	13278.86
501.314	13115.02
501.517	13215.37
501.72	13713.03
501.923	13465.22
502.126	13878.91
502.329	14259.84
502.532	14079.61
502.735	14239.36
502.938	14460.54
503.141	14386.81
503.344	14624.37
503.547	14691.96
503.75	15115.89
503.953	15134.32
504.156	15545.96
504.359	15378.03
504.562	15746.66
504.765	15812.2
504.968	15945.31
505.17	16322.14
505.373	16166.49
505.576	16797.27
505.779	16813.65
505.982	16946.77
506.185	17487.43
506.387	17417.8
506.59	17432.14
506.793	17733.19
506.996	17878.6
507.198	18220.61
507.401	17948.23
507.604	18576.95
507.807	18941.49
508.009	18550.33
508.212	18736.7
508.415	19203.63
508.617	19390
508.82	19449.39
509.022	19404.33
509.225	19928.61
509.428	20014.63
509.63	20459.04
509.833	20485.66
510.035	20997.65
510.238	20891.16
510.44	21040.66
510.643	21425.68
510.845	21685.77
511.048	21636.62
511.25	22050.31
511.453	21992.97
511.655	23008.76
511.858	22476.29
512.06	22785.53
512.262	23148.02
512.465	23000.57
512.667	23338.48
512.87	23922.15
513.072	23789.03
513.274	24278.5
513.477	24622.56
513.679	24536.54
513.881	24862.17
514.084	24874.46
514.286	25150.93
514.488	25210.32
514.69	25888.2
514.893	26062.28
515.095	26176.97
515.297	26617.28
515.499	26693.05
515.701	27078.07
515.904	27542.96
516.106	27612.59
516.308	27571.63
516.51	28255.65
516.712	28427.68
516.914	28749.21
517.116	28530.08
517.318	28917.15
517.52	29142.42
517.722	29199.77
517.925	29615.51
518.127	30205.32
518.329	30295.43
518.531	29916.56
518.733	30958.97
518.935	31020.41
519.136	31288.7
519.338	31630.71
519.54	31935.85
519.742	32220.52
519.944	31917.42
520.146	32939.36
520.348	32597.35
520.55	32908.64
520.752	33078.62
520.954	33924.43
521.155	33449.3
521.357	34426.18
521.559	34657.6
521.761	34813.25
521.963	34958.66
522.164	35038.53
522.366	35169.6
522.568	35765.56
522.77	35996.98
522.971	36355.37
523.173	36152.62
523.375	36441.39
523.576	36541.74
523.778	36855.07
523.98	37037.34
524.181	37285.15
524.383	37539.1
524.584	37907.73
524.786	38079.76
524.988	38026.51
525.189	38499.59
525.391	38798.6
525.592	38788.36
525.794	38898.95
525.995	38487.31
526.197	38921.48
526.398	39380.22
526.6	39822.58
526.801	40015.09
527.003	40250.61
527.204	39961.84
527.406	40506.6
527.607	40211.7
527.808	40793.32
528.01	40119.54
528.211	40842.47
528.412	41250.02
528.614	41125.09
528.815	41055.46
529.016	41688.28
529.218	41215.2
529.419	41395.42
529.62	41848.02
529.822	41716.95
530.023	41757.91
530.224	41686.23
530.425	41551.07
530.626	42198.23
530.828	41661.66
531.029	42663.11
531.23	41835.73
531.431	42044.63
531.632	42261.71
531.833	42403.02
532.035	42435.79
532.236	42542.28
532.437	42646.73
532.638	42353.87
532.839	42826.95
533.04	42888.39
533.241	42601.68
533.442	43693.24
533.643	43066.56
533.844	42855.62
534.045	43052.23
534.246	42724.55
534.447	43293.89
534.648	42912.97
534.849	43392.19
535.05	42831.05
535.251	43193.54
535.451	42988.74
535.652	43144.39
535.853	43209.92
536.054	43175.11
536.255	43549.88
536.456	42806.47
536.657	43797.69
536.857	43091.14
537.058	43011.27
537.259	43369.66
537.46	43814.07
537.66	43484.35
537.861	43238.59
538.062	43609.28
538.263	43197.63
538.463	43277.5
538.664	43234.5
538.865	43447.49
539.065	43912.38
539.266	43142.34
539.466	43969.72
539.667	42845.38
539.868	44004.53
540.068	43480.25
540.269	43424.96
540.469	43916.47
540.67	43140.29
540.87	43400.38
541.071	43728.06
541.271	43504.83
541.472	43572.41
541.672	43101.38
541.873	42976.45
542.073	42699.98
542.274	43738.3
542.474	43195.59
542.675	43220.16
542.875	43814.07
543.075	43082.95
543.276	43041.99
543.476	43732.15
543.676	43054.28
543.877	43785.4
544.077	43338.94
544.277	43130.05
544.478	43095.24
544.678	43508.93
544.878	43248.83
545.078	43220.16
545.279	42925.25
545.479	42771.66
545.679	43412.67
545.879	43283.65
546.079	43029.7
546.28	43121.86
546.48	42714.31
546.68	43347.14
546.88	43238.59
547.08	43265.22
547.28	43304.13
547.48	42929.35
547.68	43279.55
547.88	42763.46
548.081	43285.7
548.281	42712.27
548.481	42976.45
548.681	43365.57
548.881	43029.7
549.081	43312.32
549.28	42751.18
549.48	43244.74
549.68	43087.04
549.88	43666.62
550.08	42702.03
550.28	43252.93
550.48	43119.81
550.68	43117.76
550.88	42898.63
551.08	43195.59
551.279	43041.99
551.479	42771.66
551.679	42886.34
551.879	43146.43
552.079	43234.5
552.278	42878.15
552.478	42947.78
552.678	42214.61
552.878	42755.27
553.077	42931.4
553.277	42544.33
553.477	42779.85
553.676	42493.13
553.876	42708.17
554.076	42550.48
554.275	42806.47
554.475	41747.67
554.674	42452.17
554.874	42343.63
555.074	42370.25
555.273	42634.44
555.473	42734.79
555.672	42091.73
555.872	42339.54
556.071	42304.72
556.271	42517.71
556.47	42050.77
556.67	41719
556.869	41616.6
557.068	41778.39
557.268	41800.92
557.467	41954.52
557.667	42253.52
557.866	41604.31
558.065	41813.21
558.265	41665.75
558.464	41364.7
558.663	41512.16
558.863	41024.74
559.062	42018
559.261	41094.37
559.461	41835.73
559.66	40826.09
559.859	40795.37
560.058	40826.09
560.258	40936.68
560.457	40953.06
560.656	40785.13
560.855	40578.28
561.054	41045.22
561.253	40682.73
561.453	40535.27
561.652	40766.7
561.851	40865
562.05	40336.62
562.249	40791.27
562.448	40695.02
562.647	40537.32
562.846	40013.04
563.045	40092.91
563.244	39617.78
563.443	40266.99
563.642	39400.7
563.841	39937.27
564.04	39140.61
564.239	40424.68
564.438	39456
564.637	39404.8
564.836	39433.47
565.035	39402.75
565.234	39314.69
565.432	39310.59
565.631	38792.45
565.83	39347.45
566.029	38636.81
566.228	38747.4
566.427	38874.37
566.625	38479.11
566.824	38382.86
567.023	38982.91
567.222	38044.94
567.42	38575.37
567.619	38149.39
567.818	38216.97
568.016	38190.35
568.215	38077.71
568.414	37586.2
568.612	38030.61
568.811	37803.28
569.01	37883.16
569.208	37209.37
569.407	37664.02
569.605	37248.28
569.804	37569.82
570.002	36705.57
570.201	37279
570.4	36767.01
570.598	36717.86
570.797	36611.37
570.995	36394.28
571.193	36293.93
571.392	37170.46
571.59	36193.58
571.789	36119.85
571.987	35949.87
572.186	36060.46
572.384	35958.06
572.582	36207.92
572.781	36109.61
572.979	35581.24
573.177	35876.15
573.376	35777.84
573.574	35145.02
573.772	35622.2
573.971	34925.89
574.169	34868.55
574.367	35042.62
574.565	34989.38
574.763	34956.61
574.962	34622.79
575.16	34604.36
575.358	34678.08
575.556	34180.43
575.754	34743.62
575.952	34008.4
576.151	34342.22
576.349	33979.73
576.547	33770.83
576.745	33979.73
576.943	33412.44
577.141	33871.18
577.339	33668.44
577.537	33434.97
577.735	33418.58
577.933	33060.19
578.131	33232.22
578.329	33385.82
578.527	32912.74
578.725	32900.45
578.923	33025.37
579.121	32580.96
579.319	32478.57
579.516	32660.83
579.714	32431.46
579.912	32619.88
580.11	32265.58
580.308	32378.22
580.506	32359.78
580.704	31888.75
580.901	31999.34
581.099	32214.38
581.297	31815.02
581.495	31729.01
581.692	31567.22
581.89	31446.39
582.088	31712.63
582.285	31190.39
582.483	31737.2
582.681	31417.72
582.878	30977.4
583.076	30829.95
583.274	31212.92
583.471	30367.11
583.669	30977.4
583.866	30553.48
584.064	31161.72
584.262	30559.62
584.459	30580.1
584.657	29959.56
584.854	30655.87
585.052	30057.87
585.249	30500.23
585.447	30012.81
585.644	29791.63
585.841	30141.83
586.039	30240.14
586.236	29453.72
586.434	29423
586.631	29502.87
586.828	29746.58
587.026	29732.24
587.223	29525.39
587.42	29177.24
587.618	29416.85
587.815	29031.83
588.012	29060.51
588.21	28712.35
588.407	28927.39
588.604	28458.4
588.801	28476.83
588.999	28161.45
589.196	28734.88
589.393	28452.26
589.59	28317.09
589.787	28048.81
589.984	27831.72
590.182	28179.88
590.379	27915.69
590.576	27641.26
590.773	27786.67
590.97	27403.7
591.167	27385.27
591.364	27522.48
591.561	27512.24
591.758	27274.68
591.955	27467.19
592.152	27282.87
592.349	27231.67
592.546	27243.96
592.743	27049.4
592.94	26531.26
593.137	26969.53
593.334	26901.95
593.531	26598.85
593.727	26815.93
593.924	26678.72
594.121	26320.32
594.318	26240.45
594.515	26154.44
594.712	26920.38
594.908	26142.15
595.105	26297.8
595.302	26093
595.499	25830.86
595.696	25988.55
595.892	25652.69
596.089	25748.94
596.286	25671.12
596.482	25378.26
596.679	25298.39
596.876	25499.09
597.072	25492.94
597.269	25376.21
597.466	25169.37
597.662	24929.75
597.859	25023.96
598.055	25365.97
598.252	24511.97
598.448	24804.83
598.645	24462.82
598.841	24735.2
599.038	24630.75
599.234	24817.11
599.431	24575.45
599.627	24014.31
599.824	24434.14
600.02	24137.19
600.217	23887.34
600.413	23707.12
600.609	23938.54
600.806	23600.62
601.002	24018.41
601.198	23715.31
601.395	23619.05
601.591	23700.97
601.787	24028.65
601.984	23633.39
602.18	23401.97
602.376	23559.66
602.572	23412.21
602.769	23150.07
602.965	23182.84
603.161	23174.64
603.357	22842.87
603.553	22871.54
603.75	22861.3
603.946	22777.34
604.142	22683.13
604.338	22552.06
604.534	22455.81
604.73	22703.61
604.926	22525.44
605.122	22375.94
605.318	22332.93
605.514	22177.28
605.71	22076.93
605.906	22023.69
606.102	22007.3
606.298	21874.18
606.494	21812.74
606.69	21726.73
606.886	21980.68
607.082	21425.68
607.278	21894.66
607.474	21315.09
607.67	21687.82
607.866	21188.11
608.062	21646.86
608.257	21259.79
608.453	21503.5
608.649	21562.89
608.845	21376.53
609.041	20913.69
609.236	21132.82
609.432	21145.11
609.628	21124.63
609.824	21075.48
610.019	20905.49
610.215	20944.41
610.411	20987.41
610.606	20676.12
610.802	20766.23
610.998	20485.66
611.193	20989.46
611.389	20751.9
611.584	20626.97
611.78	20444.7
611.976	20370.97
612.171	20620.83
612.367	20166.18
612.562	20055.59
612.758	20143.65
612.953	20084.26
613.149	20377.12
613.344	20031.01
613.539	20217.38
613.735	19686.95
613.93	19850.79
614.126	19617.32
614.321	20213.28
614.517	19789.35
614.712	19875.37
614.907	19967.52
615.103	19756.58
615.298	19842.6
615.493	19992.1
615.688	19564.07
615.884	19574.31
616.079	19416.62
616.274	19906.09
616.47	19318.32
616.665	19459.63
616.86	19260.98
617.055	19441.2
617.25	19373.61
617.445	19291.69
617.641	18918.96
617.836	19211.82
618.031	18935.35
618.226	19209.78
618.421	18935.35
618.616	18900.53
618.811	18415.16
619.006	18771.51
619.201	18232.9
619.396	18861.62
619.591	18097.73
619.786	18478.65
619.981	18189.89
620.176	18488.89
620.371	18079.3
620.566	18423.36
620.761	18009.67
620.956	18202.18
621.151	18155.07
621.346	17780.29
621.541	17761.86
621.735	17778.25
621.93	17337.93
622.125	17559.11
622.32	17178.19
622.515	17411.66
622.709	17364.56
622.904	17192.53
623.099	16852.56
623.294	17010.26
623.488	16852.56
623.683	16844.37
623.878	16582.23
624.072	16889.43
624.267	16602.71
624.462	16590.42
624.656	16477.79
624.851	16309.85
625.046	16283.23
625.24	16154.21
625.435	16051.81
625.629	16113.25
625.824	16080.48
626.018	16027.23
626.213	15480.43
626.407	15566.44
626.602	15558.25
626.796	15429.23
626.991	15554.15
627.185	15480.43
627.38	14986.86
627.574	15251.05
627.768	15117.93
627.963	14943.86
628.157	14868.08
628.352	14919.28
628.546	14495.35
628.74	14759.54
628.935	14495.35
629.129	14415.48
629.323	14235.26
629.517	14259.84
629.712	14251.64
629.906	14276.22
630.1	14214.78
630.294	13870.72
630.489	13866.63
630.683	13944.45
630.877	13682.31
631.071	13719.17
631.265	13745.8
631.459	13811.33
631.653	13450.89
631.848	13383.31
632.042	13436.55
632.236	13385.35
632.43	13379.21
632.624	13215.37
632.818	13323.91
633.012	13037.2
633.206	13082.25
633.4	12990.1
633.594	12842.64
633.788	12717.72
633.982	12871.31
634.176	12699.28
634.369	12736.15
634.563	12459.67
634.757	12494.49
634.951	12295.83
635.145	12461.72
635.339	12582.55
635.533	12119.71
635.726	12330.65
635.92	12007.07
636.114	12025.5
636.308	11980.45
636.501	11957.92
636.695	11867.81
636.889	11519.65
637.083	11660.96
637.276	11452.07
637.47	11454.12
637.664	11521.7
637.857	11572.9
638.051	11726.5
638.244	11323.05
638.438	11374.25
638.632	11318.95
638.825	11194.03
639.019	11265.71
639.212	11155.12
639.406	10860.21
639.599	11105.96
639.793	10970.8
639.986	10661.55
640.18	10753.71
640.373	10456.76
640.567	10520.24
640.76	10598.07
640.954	10374.84
641.147	10458.81
641.34	10352.31
641.534	10276.54
641.727	10143.42
641.92	10254.01
642.114	10032.83
642.307	10098.36
642.5	9805.5
642.694	9752.26
642.887	10000.06
643.08	9830.08
643.273	9744.06
643.467	9719.49
643.66	9725.63
643.853	9572.04
644.046	9529.03
644.239	9537.22
644.432	9283.27
644.626	9387.72
644.819	9273.03
645.012	9279.18
645.205	9178.83
645.398	9455.3
645.591	9285.32
645.784	9096.91
645.977	9125.58
646.17	9041.61
646.363	8701.65
646.556	8857.29
646.749	8769.23
646.942	9023.18
647.135	8883.92
647.328	8824.53
647.521	8629.97
647.714	8593.11
647.907	8591.06
648.099	8539.86
648.292	8523.48
648.485	8535.76
648.678	8306.39
648.871	8359.64
649.064	8232.66
649.256	8355.54
649.449	8324.82
649.642	8208.09
649.835	8054.49
650.027	8156.89
650.22	7986.91
650.413	7941.85
650.605	7937.76
650.798	7829.21
650.991	7833.31
651.183	7888.6
651.376	7806.69
651.568	7634.66
651.761	7560.93
651.954	7573.22
652.146	7599.84
652.339	7536.35
652.531	7554.79
652.724	7343.85
652.916	7290.6
653.109	7421.67
653.301	7358.18
653.494	7456.48
653.686	7345.89
653.879	7526.11
654.071	7233.25
654.263	7247.59
654.456	7155.43
654.648	7116.52
654.84	7282.41
655.033	7257.83
655.225	6903.53
655.417	6885.1
655.61	6977.26
655.802	6985.45
655.994	6911.72
656.186	6899.44
656.379	6688.5
656.571	6858.48
656.763	6641.39
656.955	6706.93
657.148	6754.03
657.34	6686.45
657.532	6651.63
657.724	6477.55
657.916	6452.98
658.108	6514.42
658.3	6442.74
658.492	6584.05
658.684	6303.48
658.876	6326
659.068	6547.19
659.26	6274.81
659.452	6141.69
659.644	6223.61
659.836	6270.71
660.028	6285.05
660.22	6135.54
660.412	5988.09
660.604	6125.3
660.796	5971.71
660.988	6115.06
661.18	5934.84
661.372	5771.01
661.563	5934.84
661.755	5971.71
661.947	5691.13
662.139	5828.35
662.331	5738.24
662.522	5773.05
662.714	5756.67
662.906	5721.85
663.097	5650.18
663.289	5504.77
663.481	5699.33
663.673	5560.06
663.864	5545.73
664.056	5521.15
664.247	5441.28
664.439	5332.74
664.631	5412.61
664.822	5234.44
665.014	5463.81
665.205	5297.92
665.397	5328.64
665.588	5232.39
665.78	5259.01
665.971	5263.11
666.163	5218.05
666.354	5101.32
666.546	5109.51
666.737	5150.47
666.929	5015.3
667.12	5066.5
667.311	5082.89
667.503	4988.68
667.694	4964.11
667.885	4939.53
668.077	4951.82
668.268	4912.91
668.459	4988.68
668.651	4908.81
668.842	4904.71
669.033	4873.99
669.224	4849.42
669.416	4755.21
669.607	4769.55
669.798	4777.74
669.989	4794.12
670.18	4839.18
670.371	4638.48
670.563	4718.35
670.754	4560.66
670.945	4652.81
671.136	4564.75
671.327	4787.98
671.518	4566.8
671.709	4529.94
671.9	4552.46
672.091	4501.26
672.282	4634.38
672.473	4587.28
672.664	4458.26
672.855	4493.07
673.046	4456.21
673.237	4439.83
673.428	4431.63
673.619	4525.84
673.809	4253.46
674	4366.1
674.191	4267.8
674.382	4327.19
674.573	4241.17
674.764	4230.93
674.954	4134.68
675.145	4232.98
675.336	4181.78
675.527	4122.39
675.717	4200.21
675.908	4128.53
676.099	4124.44
676.289	4077.34
676.48	4017.94
676.671	4079.38
676.861	4167.45
677.052	4108.05
677.243	3897.11
677.433	3794.72
677.624	4073.24
677.814	3997.46
678.005	4030.23
678.195	3903.26
678.386	3981.08
678.576	3878.68
678.767	3876.63
678.957	4015.9
679.148	3950.36
679.338	3890.97
679.529	3888.92
679.719	3915.55
679.909	3968.79
680.1	3864.35
680.29	3843.87
680.481	3907.35
680.671	3847.96
680.861	3692.32
681.052	3852.06
681.242	3753.76
681.432	3895.07
681.622	3712.8
681.813	3823.39
682.003	3794.72
682.193	3833.63
682.383	3764
682.573	3759.9
682.764	3782.43
682.954	3700.51
683.144	3700.51
683.334	3639.07
683.524	3665.69
683.714	3700.51
683.904	3618.59
684.094	3735.32
684.284	3526.43
684.474	3759.9
684.664	3698.46
684.854	3688.22
685.044	3677.98
685.234	3538.72
685.424	3616.54
685.614	3368.74
685.804	3495.71
685.994	3575.58
686.184	3557.15
686.374	3491.62
686.564	3454.75
686.753	3528.48
686.943	3413.79
687.133	3434.27
687.323	3362.59
687.513	3630.88
687.702	3405.6
687.892	3538.72
688.082	3485.47
688.272	3467.04
688.461	3321.63
688.651	3448.61
688.841	3331.87
689.03	3331.87
689.22	3317.54
689.41	3344.16
689.599	3233.57
689.789	3313.44
689.979	3264.29
690.168	3231.52
690.358	3178.28
690.547	3196.71
690.737	3233.57
690.926	3258.15
691.116	3141.41
691.305	3176.23
691.495	3122.98
691.684	3188.52
691.874	3120.93
692.063	3165.99
692.252	3065.64
692.442	3190.56
692.631	3065.64
692.82	3122.98
693.01	2965.29
693.199	3139.37
693.388	2965.29
693.578	3055.4
693.767	3032.87
693.956	3028.78
694.146	3045.16
694.335	3073.83
694.524	3112.74
694.713	3192.61
694.902	3006.25
695.092	3051.3
695.281	2875.18
695.47	2965.29
695.659	2953
695.848	2930.47
696.037	2883.37
696.226	2821.93
696.415	2940.71
696.604	2907.94
696.793	2998.06
696.982	2942.76
697.171	2916.14
697.36	2989.86
697.549	2801.45
697.738	2901.8
697.927	2879.27
698.116	2920.23
698.305	2754.35
698.494	2873.13
698.683	2940.71
698.872	2916.14
699.061	2895.66
699.25	2748.2
699.438	2991.91
699.627	3032.87
699.816	2891.56
700.005	2813.74
700.193	2959.14
700.382	2801.45
700.571	3055.4
700.76	2905.9
700.948	2905.9
701.137	2893.61
701.326	2760.49
701.514	2823.98
701.703	2955.05
701.892	2823.98
702.08	2981.67
702.269	2785.07
702.457	2772.78
702.646	2809.64
702.834	2750.25
703.023	2764.59
703.212	2897.71
703.4	2809.64
703.589	2881.32
703.777	2940.71
703.965	2905.9
704.154	2942.76
704.342	2905.9
704.531	2844.46
704.719	2715.44
704.907	2834.22
705.096	2791.21
705.284	2713.39
705.472	2854.7
705.661	2991.91
705.849	2899.75
706.037	2875.18
706.226	2783.02
706.414	2957.1
706.602	2711.34
706.79	2830.12
706.979	2772.78
707.167	2780.97
707.355	2768.68
707.543	2674.48
707.731	2760.49
707.919	2711.34
708.107	2756.4
708.296	2690.86
708.484	2807.59
708.672	2748.2
708.86	2879.27
709.048	2760.49
709.236	2838.31
709.424	2676.52
709.612	2770.73
709.8	2668.33
709.988	2879.27
710.176	2768.68
710.364	2864.94
710.551	2770.73
710.739	2842.41
710.927	2758.44
711.115	2803.5
711.303	2711.34
711.491	2703.15
711.679	2707.24
711.866	2772.78
712.054	2707.24
712.242	2692.91
712.43	2647.85
712.617	2778.92
712.805	2674.48
712.993	2725.68
713.181	2674.48
713.368	2750.25
713.556	2883.37
713.744	2627.37
713.931	2719.53
714.119	2690.86
714.306	2740.01
714.494	2662.19
714.682	2637.61
714.869	2785.07
715.057	2727.72
715.244	2703.15
715.432	2748.2
715.619	2559.79
715.807	2651.95
715.994	2678.57
716.182	2619.18
716.369	2637.61
716.556	2729.77
716.744	2656.04
716.931	2598.7
717.119	2676.52
717.306	2676.52
717.493	2529.07
717.681	2672.43
717.868	2639.66
718.055	2772.78
718.242	2578.22
718.43	2654
718.617	2662.19
718.804	2617.13
718.991	2598.7
719.179	2662.19
719.366	2678.57
719.553	2610.99
719.74	2543.41
719.927	2678.57
720.114	2561.84
720.301	2529.07
720.488	2692.91
720.676	2510.64
720.863	2703.15
721.05	2596.65
721.237	2604.85
721.424	2557.74
721.611	2531.12
721.798	2615.09
721.985	2533.17
722.172	2504.5
722.358	2606.89
722.545	2461.49
722.732	2629.42
722.919	2555.69
723.106	2559.79
723.293	2574.13
723.48	2459.44
723.667	2518.83
723.853	2500.4
724.04	2531.12
724.227	2547.5
724.414	2522.93
724.6	2561.84
724.787	2500.4
724.974	2561.84
725.161	2508.59
725.347	2514.73
725.534	2545.45
725.72	2465.58
725.907	2488.11
726.094	2561.84
726.28	2385.71
726.467	2557.74
726.653	2502.45
726.84	2479.92
727.027	2610.99
727.213	2438.96
727.4	2539.31
727.586	2565.93
727.773	2492.21
727.959	2430.77
728.145	2383.66
728.332	2420.53
728.518	2412.34
728.705	2418.48
728.891	2522.93
729.077	2545.45
729.264	2502.45
729.45	2455.34
729.636	2600.75
729.823	2553.65
730.009	2461.49
730.195	2441.01
730.382	2520.88
730.568	2410.29
730.754	2492.21
730.94	2461.49
731.126	2547.5
731.313	2305.84
731.499	2420.53
731.685	2535.21
731.871	2375.47
732.057	2502.45
732.243	2479.92
732.429	2404.14
732.615	2488.11
732.801	2373.43
732.987	2408.24
733.173	2445.1
733.359	2432.82
733.545	2293.55
733.731	2395.95
733.917	2369.33
734.103	2512.69
734.289	2318.13
734.475	2373.43
734.661	2418.48
734.847	2461.49
735.033	2393.9
735.219	2354.99
735.404	2428.72
735.59	2346.8
735.776	2383.66
735.962	2395.95
736.148	2502.45
736.333	2357.04
736.519	2285.36
736.705	2522.93
736.89	2297.65
737.076	2365.23
737.262	2230.07
737.447	2293.55
737.633	2256.69
737.819	2365.23
738.004	2273.07
738.19	2246.45
738.375	2336.56
738.561	2334.51
738.747	2178.87
738.932	2262.83
739.118	2309.94
739.303	2307.89
739.489	2344.75
739.674	2277.17
739.859	2168.63
740.045	2322.23
740.23	2258.74
740.416	2277.17
740.601	2240.31
740.786	2185.01
740.972	2164.53
741.157	2199.35
741.342	2150.2
741.528	2168.63
741.713	2285.36
741.898	2070.33
742.084	2053.94
742.269	2189.11
742.454	2203.44
742.639	2178.87
742.824	2094.9
743.01	2088.76
743.195	2090.81
743.38	2125.62
743.565	2062.13
743.75	2045.75
743.935	2096.95
744.12	1996.6
744.305	2051.89
744.49	2021.17
744.675	2041.65
744.86	2015.03
745.045	1967.93
745.23	1980.22
745.415	2021.17
745.6	1888.06
745.785	2006.84
745.97	2015.03
746.155	1955.64
746.34	1900.34
746.525	1951.54
746.71	1986.36
746.895	1789.75
747.079	1840.95
747.264	1951.54
747.449	1802.04
747.634	1799.99
747.819	2027.32
748.003	1779.51
748.188	1668.92
748.373	1855.29
748.557	1867.58
748.742	1742.65
748.927	1877.82
749.111	1791.8
749.296	1834.81
749.481	1845.05
749.665	1822.52
749.85	1691.45
750.034	1779.51
750.219	1734.46
750.404	1683.26
750.588	1716.03
750.773	1679.16
750.957	1630.01
751.141	1750.84
751.326	1599.29
751.51	1646.4
751.695	1597.24
751.879	1617.72
752.064	1611.58
752.248	1570.62
752.432	1556.29
752.617	1632.06
752.801	1605.44
752.985	1593.15
753.17	1554.24
753.354	1556.29
753.538	1541.95
753.722	1564.48
753.907	1535.81
754.091	1511.23
754.275	1398.59
754.459	1429.31
754.643	1546.05
754.828	1460.03
755.012	1451.84
755.196	1427.26
755.38	1427.26
755.564	1349.44
755.748	1431.36
755.932	1406.78
756.116	1361.73
756.3	1283.91
756.484	1367.87
756.668	1328.96
756.852	1339.2
757.036	1310.53
757.22	1320.77
757.404	1302.34
757.588	1259.33
757.772	1367.87
757.956	1298.24
758.14	1279.81
758.323	1142.6
758.507	1197.89
758.691	1263.43
758.875	1214.27
759.059	1228.61
759.242	1167.17
759.426	1288
759.61	1253.19
759.794	1210.18
759.977	1165.12
760.161	1271.62
760.345	1191.75
760.528	1288
760.712	1068.87
760.895	1158.98
761.079	1230.66
761.263	1161.03
761.446	1220.42
761.63	1081.16
761.813	1187.65
761.997	1120.07
762.18	1062.73
762.364	1181.51
762.547	1128.26
762.731	1091.4
762.914	1191.75
763.098	1103.68
763.281	1142.6
763.464	1107.78
763.648	1054.53
763.831	1091.4
764.015	1077.06
764.198	1058.63
764.381	1017.67
764.564	1005.38
764.748	1081.16
764.931	1056.58
765.114	986.95
765.297	1083.2
765.481	978.76
765.664	1079.11
765.847	980.81
766.03	1023.81
766.213	1046.34
766.397	958.28
766.58	997.19
766.763	976.71
766.946	980.81
767.129	937.8
767.312	941.89
767.495	1034.05
767.678	909.13
767.861	989
768.044	989
768.227	956.23
768.41	948.04
768.593	1036.1
768.776	1021.77
768.959	974.66
769.142	909.13
769.324	962.37
769.507	896.84
769.69	890.7
769.873	943.94
770.056	972.61
770.239	882.5
770.421	982.85
770.604	849.74
770.787	902.98
770.97	857.93
771.152	831.3
771.335	829.26
771.518	868.17
771.7	915.27
771.883	855.88
772.066	888.65
772.248	886.6
772.431	806.73
772.613	905.03
772.796	927.56
772.978	804.68
773.161	853.83
773.343	767.82
773.526	821.06
773.708	864.07
773.891	759.63
774.073	859.98
774.256	851.78
774.438	923.46
774.621	841.54
774.803	845.64
774.985	812.87
775.168	733
775.35	798.54
775.532	749.39
775.715	741.19
775.897	837.45
776.079	749.39
776.261	843.59
776.444	800.59
776.626	843.59
776.808	761.67
776.99	749.39
777.173	700.23
777.355	728.91
777.537	765.77
777.719	665.42
777.901	755.53
778.083	589.64
778.265	671.56
778.447	685.9
778.629	687.95
778.811	620.36
778.993	700.23
779.175	712.52
779.357	733
779.539	620.36
779.721	687.95
779.903	632.65
780.085	573.26
780.267	597.84
780.449	669.52
780.631	679.75
780.812	575.31
780.994	606.03
781.176	554.83
781.358	595.79
781.54	583.5
781.721	603.98
781.903	608.08
782.085	608.08
782.267	569.16
782.448	603.98
782.63	565.07
782.812	606.03
782.993	528.21
783.175	565.07
783.357	589.64
783.538	530.25
783.72	608.08
783.901	515.92
784.083	532.3
784.264	479.05
784.446	526.16
784.627	503.63
784.809	503.63
784.99	491.34
785.172	524.11
785.353	434
785.535	470.86
785.716	442.19
785.897	507.73
786.079	454.48
786.26	481.1
786.441	497.49
786.623	425.81
786.804	487.25
786.985	511.82
787.167	446.29
787.348	446.29
787.529	429.9
787.71	366.42
787.891	413.52
788.073	407.38
788.254	491.34
788.435	390.99
788.616	427.85
788.797	313.17
788.978	380.75
789.159	464.72
789.34	409.42
789.522	352.08
789.703	368.46
789.884	372.56
790.065	323.41
790.246	331.6
790.427	393.04
790.607	415.57
790.788	384.85
790.969	407.38
791.15	347.98
791.331	446.29
791.512	403.28
791.693	333.65
791.874	315.22
792.054	376.66
792.235	380.75
792.416	356.18
792.597	405.33
792.778	339.79
792.958	313.17
793.139	374.61
793.32	343.89
793.5	347.98
793.681	390.99
793.862	231.25
794.042	331.6
794.223	251.73
794.404	339.79
794.584	304.98
794.765	345.94
794.945	335.7
795.126	284.5
795.306	280.4
795.487	255.83
795.667	327.5
795.848	356.18
796.028	296.78
796.209	337.74
796.389	360.27
796.57	270.16
796.75	311.12
796.93	251.73
797.111	237.39
797.291	261.97
797.471	319.31
797.652	276.31
797.832	288.59
798.012	382.8
798.192	206.67
798.373	198.48
798.553	180.05
798.733	221.01
798.913	229.2
799.093	223.06
799.274	223.06
799.454	229.2
799.634	298.83
799.814	264.02
799.994	282.45
800.174	317.26
800.354	200.53
800.534	210.77
800.714	274.26
800.894	223.06
801.074	196.43
801.254	200.53
801.434	261.97
801.614	290.64
801.794	235.35
801.974	528.21
802.154	214.87
802.334	270.16
802.514	241.49
802.693	167.76
802.873	257.87
803.053	261.97
803.233	225.11
803.413	175.95
803.592	212.82
803.772	216.91
803.952	231.25
804.131	253.78
804.311	290.64
804.491	227.15
804.67	233.3
804.85	198.48
805.03	210.77
805.209	243.54
805.389	214.87
805.568	235.35
805.748	145.24
805.928	190.29
806.107	190.29
806.287	202.58
806.466	210.77
806.646	206.67
806.825	208.72
807.004	216.91
807.184	227.15
807.363	259.92
807.543	206.67
807.722	227.15
807.901	173.91
808.081	231.25
808.26	132.95
808.439	210.77
808.619	214.87
808.798	173.91
808.977	223.06
809.156	212.82
809.336	204.63
809.515	180.05
809.694	196.43
809.873	175.95
810.052	237.39
810.231	202.58
810.411	210.77
810.59	163.67
810.769	210.77
810.948	194.39
811.127	171.86
811.306	188.24
811.485	145.24
811.664	167.76
811.843	204.63
812.022	137.04
812.201	161.62
812.38	130.9
812.559	124.76
812.737	178
812.916	147.28
813.095	106.32
813.274	163.67
813.453	149.33
813.632	89.94
813.811	184.15
813.989	81.75
814.168	194.39
814.347	75.6
814.526	94.04
814.704	112.47
814.883	159.57
815.062	108.37
815.24	118.61
815.419	48.98
815.598	163.67
815.776	137.04
815.955	118.61
816.133	61.27
816.312	112.47
816.49	169.81
816.669	210.77
816.847	106.32
817.026	173.91
817.204	149.33
817.383	73.56
817.561	114.52
817.74	151.38
817.918	163.67
818.097	139.09
818.275	79.7
818.453	132.95
818.632	128.85
818.81	143.19
818.988	155.47
819.167	128.85
819.345	57.17
819.523	124.76
819.701	98.13
819.879	161.62
820.058	171.86
820.236	153.43
820.414	198.48
820.592	108.37
820.77	91.99
820.948	108.37
821.127	108.37
821.305	91.99
821.483	83.8
821.661	94.04
821.839	118.61
822.017	75.6
822.195	81.75
822.373	112.47
822.551	89.94
822.729	40.79
822.907	83.8
823.085	104.28
823.262	149.33
823.44	100.18
823.618	139.09
823.796	102.23
823.974	139.09
824.152	81.75
824.329	128.85
824.507	145.24
824.685	122.71
824.863	159.57
825.04	120.66
825.218	61.27
825.396	106.32
825.574	32.6
825.751	98.13
825.929	153.43
826.107	151.38
826.284	87.89
826.462	55.12
826.639	20.31
826.817	122.71
826.994	87.89
827.172	44.88
827.349	114.52
827.527	63.32
827.704	157.52
827.882	106.32
828.059	-24.75
828.237	44.88
828.414	26.45
828.591	46.93
828.769	124.76
828.946	42.84
829.124	124.76
829.301	55.12
829.478	118.61
829.655	87.89
829.833	81.75
830.01	3.93
830.187	145.24
830.364	20.31
830.542	53.08
830.719	73.56
830.896	143.19
831.073	71.51
831.25	44.88
831.427	63.32
831.604	87.89
831.782	91.99
831.959	18.26
832.136	40.79
832.313	59.22
832.49	102.23
832.667	53.08
832.844	-10.41
833.021	12.12
833.198	114.52
833.374	69.46
833.551	87.89
833.728	34.64
833.905	16.21
834.082	67.41
834.259	108.37
834.436	85.84
834.612	-55.47
834.789	77.65
834.966	96.08
835.143	36.69
835.319	94.04
835.496	114.52
835.673	108.37
835.85	61.27
836.026	100.18
836.203	44.88
836.38	8.02
836.556	81.75
836.733	61.27
836.909	120.66
837.086	83.8
837.262	81.75
837.439	-24.75
837.616	38.74
837.792	-26.79
837.968	57.17
838.145	59.22
838.321	24.4
838.498	59.22
838.674	57.17
838.851	65.36
839.027	85.84
839.203	75.6
839.38	26.45
839.556	102.23
839.732	61.27
839.909	108.37
840.085	122.71
840.261	26.45
840.437	8.02
840.614	40.79
840.79	112.47
840.966	34.64
841.142	36.69
841.318	75.6
841.494	32.6
841.671	38.74
841.847	36.69
842.023	67.41
842.199	51.03
842.375	89.94
842.551	-4.27
842.727	34.64
842.903	104.28
843.079	100.18
843.255	91.99
843.431	32.6
843.607	73.56
843.783	53.08
843.959	40.79
844.134	85.84
844.31	75.6
844.486	1.88
844.662	91.99
844.838	10.07
845.013	18.26
845.189	69.46
845.365	69.46
845.541	22.36
845.716	79.7
845.892	94.04
846.068	22.36
846.244	12.12
846.419	67.41
846.595	34.64
846.77	42.84
846.946	8.02
847.122	55.12
847.297	32.6
847.473	44.88
847.648	30.55
847.824	91.99
847.999	3.93
848.175	-22.7
848.35	16.21
848.526	40.79
848.701	69.46
848.876	5.97
849.052	1.88
849.227	116.56
849.403	53.08
849.578	57.17
849.753	-6.31
849.929	24.4
850.104	34.64
850.279	16.21
850.454	36.69
850.63	34.64
850.805	12.12
850.98	-20.65
851.155	69.46
851.33	30.55
851.505	14.17
851.681	22.36
851.856	26.45
852.031	44.88
852.206	106.32
852.381	108.37
852.556	20.31
852.731	38.74
852.906	-8.36
853.081	36.69
853.256	32.6
853.431	34.64
853.606	24.4
853.781	1.88
853.956	-65.71
854.131	73.56
854.305	-6.31
854.48	10.07
854.655	-61.61
854.83	26.45
855.005	32.6
855.18	48.98
855.354	18.26
855.529	63.32
855.704	24.4
855.879	34.64
856.053	-37.03
856.228	44.88
856.403	16.21
856.577	48.98
856.752	-20.65
856.926	28.5
857.101	51.03
857.276	-34.99
857.45	75.6
857.625	46.93
857.799	-18.6
857.974	26.45
858.148	-18.6
858.323	22.36
858.497	-41.13
858.672	-49.32
858.846	-37.03
859.02	46.93
859.195	-32.94
859.369	73.56
859.543	40.79
859.718	85.84
859.892	3.93
860.066	36.69
860.241	8.02
860.415	-2.22
860.589	-28.84
860.763	20.31
860.938	-0.17
861.112	-45.23
861.286	20.31
861.46	3.93
861.634	3.93
861.808	42.84
861.982	-20.65
862.157	18.26
862.331	-20.65
862.505	53.08
862.679	-26.79
862.853	-77.99
863.027	12.12
863.201	24.4
863.375	3.93
863.549	40.79
863.722	-14.51
863.896	30.55
864.07	36.69
864.244	59.22
864.418	20.31
864.592	-22.7
864.766	26.45
864.939	1.88
865.113	-18.6
865.287	53.08
865.461	-20.65
865.634	-53.42
865.808	22.36
865.982	20.31
866.156	-112.81
866.329	30.55
866.503	8.02
866.676	57.17
866.85	-24.75
867.024	-37.03
867.197	98.13
867.371	1.88
867.544	-8.36
867.718	-6.31
867.891	-4.27
868.065	-18.6
868.238	5.97
868.412	5.97
868.585	-47.27
868.759	-49.32
868.932	-57.51
869.105	-12.46
869.279	-12.46
869.452	10.07
869.625	-14.51
869.799	-75.95
869.972	-26.79
870.145	5.97
870.319	-53.42
870.492	81.75
870.665	-16.55
870.838	-16.55
871.011	-6.31
871.185	18.26
871.358	26.45
871.531	38.74
871.704	32.6
871.877	57.17
872.05	-2.22
872.223	-34.99
872.396	-47.27
872.569	40.79
872.742	-16.55
872.915	18.26
873.088	-49.32
873.261	-0.17
873.434	18.26
873.607	8.02
873.78	40.79
873.953	1.88
874.126	16.21
874.299	-49.32
874.471	-8.36
874.644	12.12
874.817	-34.99
874.99	48.98
875.163	-63.66
875.335	-16.55
875.508	12.12
875.681	12.12
875.853	-75.95
876.026	-16.55
876.199	48.98
876.371	-43.18
876.544	-39.08
876.717	-12.46
876.889	-8.36
877.062	-30.89
877.234	-73.9
877.407	-18.6
877.579	-28.84
877.752	79.7
877.924	55.12
878.097	-24.75
878.269	1.88
878.442	-8.36
878.614	71.51
878.786	-98.47
878.959	-32.94
879.131	46.93
879.303	-22.7
879.476	-43.18
879.648	46.93
879.82	16.21
879.993	-34.99
880.165	20.31
880.337	57.17
880.509	89.94
880.681	-49.32
880.854	-4.27
881.026	-28.84
881.198	-16.55
881.37	-37.03
881.542	36.69
881.714	-80.04
881.886	20.31
882.058	18.26
882.23	34.64
882.402	8.02
882.574	57.17
882.746	-43.18
882.918	-10.41
883.09	-2.22
883.262	18.26
883.434	-6.31
883.606	-8.36
883.778	-10.41
883.95	14.17
884.122	8.02
884.293	-34.99
884.465	-37.03
884.637	3.93
884.809	16.21
884.98	34.64
885.152	42.84
885.324	67.41
885.496	-16.55
885.667	26.45
885.839	-4.27
886.011	1.88
886.182	-16.55
886.354	-14.51
886.525	-30.89
886.697	-0.17
886.869	-55.47
887.04	20.31
887.212	-82.09
887.383	26.45
887.555	-57.51
887.726	5.97
887.897	-59.56
888.069	42.84
888.24	57.17
888.412	79.7
888.583	10.07
888.754	65.36
888.926	-32.94
889.097	8.02
889.268	-41.13
889.44	69.46
889.611	-24.75
889.782	-4.27
889.953	-39.08
890.125	106.32
890.296	-57.51
890.467	8.02
890.638	24.4
890.809	57.17
890.98	-6.31
891.151	-2.22
891.323	53.08
891.494	-4.27
891.665	-114.86
891.836	38.74
892.007	-6.31
892.178	-10.41
892.349	24.4
892.52	-45.23
892.691	-39.08
892.862	-51.37
893.032	-24.75
893.203	-59.56
893.374	-94.38
893.545	-32.94
893.716	20.31
893.887	-96.43
894.057	-45.23
894.228	-6.31
894.399	-49.32
894.57	-55.47
894.74	67.41
894.911	-14.51
895.082	-37.03
895.253	-100.52
895.423	14.17
895.594	18.26
895.764	32.6
895.935	3.93
896.106	34.64
896.276	-65.71
896.447	-37.03
896.617	-26.79
896.788	3.93
896.958	20.31
897.129	16.21
897.299	-37.03
897.47	5.97
897.64	24.4
897.81	-69.8
897.981	5.97
898.151	-71.85
898.322	-71.85
898.492	57.17
898.662	1.88
898.832	-57.51
899.003	18.26
899.173	-8.36
899.343	14.17
899.513	12.12
