Data from USB4F104151__165__11-08-48-568.txt Node

Date: Wed Mar 12 11:08:48 EDT 2025
User: louis
Spectrometer: USB4F10415
Trigger mode: 4
Integration Time (sec): 2.000000E-2
Scans to average: 1
Electric dark correction enabled: true
Nonlinearity correction enabled: false
Boxcar width: 0
XAxis mode: Wavelengths
Number of Pixels in Spectrum: 3648
>>>>>Begin Spectral Data<<<<<
178.204	-31.91
178.424	-31.91
178.644	-31.91
178.864	-122.02
179.084	-38.06
179.304	84.82
179.524	35.67
179.744	4.95
179.964	-36.01
180.184	9.05
180.404	-44.2
180.624	11.09
180.844	-31.91
181.064	-15.53
181.283	9.05
181.503	-19.63
181.723	-7.34
181.943	-13.48
182.163	-19.63
182.383	-7.34
182.602	60.24
182.822	41.81
183.042	21.33
183.262	-54.44
183.482	-19.63
183.701	-9.39
183.921	13.14
184.141	-74.92
184.361	-19.63
184.58	4.95
184.8	90.96
185.02	-5.29
185.239	45.91
185.459	41.81
185.679	31.57
185.898	27.48
186.118	7
186.338	95.06
186.557	31.57
186.777	4.95
186.997	-52.39
187.216	41.81
187.436	56.15
187.655	45.91
187.875	0.85
188.095	17.24
188.314	47.96
188.534	-25.77
188.753	41.81
188.973	-52.39
189.192	-50.35
189.412	7
189.631	9.05
189.851	23.38
190.07	70.48
190.29	-48.3
190.509	-13.48
190.729	-27.82
190.948	-68.78
191.168	41.81
191.387	52.05
191.607	-38.06
191.826	17.24
192.045	-44.2
192.265	33.62
192.484	25.43
192.704	11.09
192.923	-97.45
193.142	43.86
193.362	13.14
193.581	64.34
193.8	45.91
194.02	-15.53
194.239	21.33
194.458	13.14
194.678	-15.53
194.897	23.38
195.116	-33.96
195.335	21.33
195.555	37.72
195.774	62.29
195.993	45.91
196.212	29.52
196.432	15.19
196.651	-50.35
196.87	-7.34
197.089	47.96
197.308	0.85
197.528	25.43
197.747	-31.91
197.966	-46.25
198.185	43.86
198.404	-15.53
198.623	0.85
198.842	-89.26
199.062	52.05
199.281	47.96
199.5	56.15
199.719	47.96
199.938	58.2
200.157	-1.19
200.376	31.57
200.595	47.96
200.814	25.43
201.033	-3.24
201.252	-46.25
201.471	39.76
201.69	-38.06
201.909	29.52
202.128	-23.72
202.347	45.91
202.566	-52.39
202.785	-15.53
203.004	-27.82
203.223	21.33
203.442	-5.29
203.661	-3.24
203.879	23.38
204.098	4.95
204.317	-48.3
204.536	17.24
204.755	-38.06
204.974	47.96
205.193	43.86
205.411	-15.53
205.63	-27.82
205.849	41.81
206.068	-19.63
206.287	37.72
206.505	31.57
206.724	7
206.943	-25.77
207.162	-21.67
207.381	82.77
207.599	58.2
207.818	41.81
208.037	0.85
208.255	-29.87
208.474	11.09
208.693	37.72
208.911	-31.91
209.13	84.82
209.349	-33.96
209.567	25.43
209.786	68.44
210.005	64.34
210.223	35.67
210.442	-7.34
210.661	33.62
210.879	-25.77
211.098	-38.06
211.316	25.43
211.535	101.2
211.753	-5.29
211.972	17.24
212.191	-1.19
212.409	31.57
212.628	0.85
212.846	33.62
213.065	-21.67
213.283	33.62
213.502	-23.72
213.72	2.9
213.938	31.57
214.157	37.72
214.375	35.67
214.594	19.29
214.812	160.59
215.031	7
215.249	41.81
215.467	43.86
215.686	11.09
215.904	64.34
216.122	31.57
216.341	103.25
216.559	17.24
216.778	60.24
216.996	19.29
217.214	-11.43
217.432	29.52
217.651	11.09
217.869	7
218.087	-11.43
218.306	-44.2
218.524	56.15
218.742	27.48
218.96	19.29
219.179	19.29
219.397	45.91
219.615	45.91
219.833	103.25
220.051	80.72
220.27	99.16
220.488	-54.44
220.706	-15.53
220.924	-9.39
221.142	0.85
221.36	4.95
221.578	68.44
221.796	35.67
222.015	29.52
222.233	25.43
222.451	45.91
222.669	-3.24
222.887	7
223.105	72.53
223.323	52.05
223.541	17.24
223.759	84.82
223.977	9.05
224.195	82.77
224.413	29.52
224.631	-15.53
224.849	21.33
225.067	29.52
225.285	-68.78
225.503	31.57
225.721	64.34
225.939	-27.82
226.157	25.43
226.375	13.14
226.592	9.05
226.81	56.15
227.028	33.62
227.246	7
227.464	-36.01
227.682	50
227.9	29.52
228.117	-31.91
228.335	-9.39
228.553	-70.83
228.771	-3.24
228.989	60.24
229.206	4.95
229.424	-23.72
229.642	27.48
229.86	52.05
230.077	2.9
230.295	-44.2
230.513	23.38
230.731	52.05
230.948	43.86
231.166	13.14
231.384	-5.29
231.601	-44.2
231.819	17.24
232.037	19.29
232.254	29.52
232.472	15.19
232.689	37.72
232.907	-29.87
233.125	13.14
233.342	11.09
233.56	0.85
233.777	0.85
233.995	35.67
234.213	31.57
234.43	62.29
234.648	31.57
234.865	35.67
235.083	29.52
235.3	13.14
235.518	15.19
235.735	13.14
235.953	58.2
236.17	54.1
236.388	15.19
236.605	-5.29
236.822	13.14
237.04	-31.91
237.257	82.77
237.475	-31.91
237.692	37.72
237.909	9.05
238.127	0.85
238.344	-3.24
238.562	13.14
238.779	-27.82
238.996	11.09
239.214	-19.63
239.431	-9.39
239.648	45.91
239.865	76.63
240.083	41.81
240.3	-27.82
240.517	-79.02
240.735	-33.96
240.952	43.86
241.169	15.19
241.386	27.48
241.603	-11.43
241.821	-38.06
242.038	21.33
242.255	45.91
242.472	-33.96
242.689	54.1
242.907	-11.43
243.124	58.2
243.341	47.96
243.558	-7.34
243.775	-7.34
243.992	15.19
244.209	-25.77
244.426	78.68
244.643	74.58
244.86	47.96
245.078	43.86
245.295	39.76
245.512	31.57
245.729	19.29
245.946	-21.67
246.163	-19.63
246.38	-1.19
246.597	-3.24
246.814	50
247.031	33.62
247.248	82.77
247.464	-15.53
247.681	11.09
247.898	35.67
248.115	29.52
248.332	21.33
248.549	-5.29
248.766	84.82
248.983	25.43
249.2	50
249.417	54.1
249.633	29.52
249.85	52.05
250.067	52.05
250.284	13.14
250.501	64.34
250.717	-7.34
250.934	-11.43
251.151	15.19
251.368	-11.43
251.585	21.33
251.801	37.72
252.018	19.29
252.235	0.85
252.451	41.81
252.668	50
252.885	66.39
253.102	7
253.318	93.01
253.535	127.83
253.752	-3.24
253.968	-5.29
254.185	-42.15
254.401	23.38
254.618	50
254.835	-54.44
255.051	86.87
255.268	-25.77
255.484	-7.34
255.701	23.38
255.917	-13.48
256.134	21.33
256.351	47.96
256.567	-15.53
256.784	86.87
257	-9.39
257.217	-7.34
257.433	-31.91
257.65	13.14
257.866	-21.67
258.082	-9.39
258.299	35.67
258.515	29.52
258.732	25.43
258.948	7
259.165	43.86
259.381	-11.43
259.597	-48.3
259.814	-44.2
260.03	29.52
260.246	66.39
260.463	-29.87
260.679	103.25
260.895	54.1
261.112	78.68
261.328	68.44
261.544	39.76
261.761	50
261.977	80.72
262.193	-5.29
262.409	2.9
262.626	-42.15
262.842	35.67
263.058	-1.19
263.274	4.95
263.49	11.09
263.707	21.33
263.923	29.52
264.139	2.9
264.355	-1.19
264.571	-15.53
264.787	37.72
265.004	-7.34
265.22	7
265.436	-52.39
265.652	29.52
265.868	7
266.084	66.39
266.3	-17.58
266.516	-19.63
266.732	99.16
266.948	2.9
267.164	29.52
267.38	31.57
267.596	56.15
267.812	11.09
268.028	7
268.244	25.43
268.46	41.81
268.676	13.14
268.892	27.48
269.108	-15.53
269.324	15.19
269.54	-70.83
269.756	2.9
269.972	21.33
270.188	21.33
270.403	181.07
270.619	23.38
270.835	2.9
271.051	-23.72
271.267	-48.3
271.483	-7.34
271.698	27.48
271.914	56.15
272.13	27.48
272.346	19.29
272.562	74.58
272.777	0.85
272.993	-76.97
273.209	39.76
273.425	-7.34
273.64	-81.07
273.856	2.9
274.072	43.86
274.287	54.1
274.503	7
274.719	66.39
274.934	45.91
275.15	25.43
275.366	25.43
275.581	-33.96
275.797	62.29
276.012	37.72
276.228	66.39
276.444	15.19
276.659	23.38
276.875	9.05
277.09	9.05
277.306	-3.24
277.521	70.48
277.737	41.81
277.952	13.14
278.168	86.87
278.383	0.85
278.599	9.05
278.814	7
279.03	-1.19
279.245	4.95
279.461	-1.19
279.676	4.95
279.892	35.67
280.107	-29.87
280.322	52.05
280.538	-5.29
280.753	-29.87
280.969	29.52
281.184	31.57
281.399	27.48
281.615	35.67
281.83	11.09
282.045	-40.11
282.26	-11.43
282.476	41.81
282.691	-54.44
282.906	-42.15
283.122	47.96
283.337	-25.77
283.552	13.14
283.767	29.52
283.983	115.54
284.198	62.29
284.413	-33.96
284.628	-27.82
284.843	4.95
285.058	70.48
285.274	-11.43
285.489	-50.35
285.704	78.68
285.919	-40.11
286.134	15.19
286.349	-21.67
286.564	50
286.779	62.29
286.995	21.33
287.21	35.67
287.425	54.1
287.64	-3.24
287.855	9.05
288.07	-3.24
288.285	37.72
288.5	9.05
288.715	25.43
288.93	15.19
289.145	86.87
289.36	2.9
289.575	-1.19
289.79	21.33
290.004	11.09
290.219	-27.82
290.434	19.29
290.649	41.81
290.864	-3.24
291.079	-79.02
291.294	31.57
291.509	58.2
291.724	52.05
291.938	45.91
292.153	39.76
292.368	68.44
292.583	47.96
292.798	23.38
293.012	78.68
293.227	-9.39
293.442	19.29
293.657	52.05
293.871	0.85
294.086	9.05
294.301	78.68
294.516	37.72
294.73	41.81
294.945	4.95
295.16	45.91
295.374	72.53
295.589	62.29
295.804	-33.96
296.018	39.76
296.233	58.2
296.447	52.05
296.662	-40.11
296.877	66.39
297.091	-27.82
297.306	0.85
297.52	29.52
297.735	27.48
297.949	-25.77
298.164	74.58
298.378	35.67
298.593	-23.72
298.807	-5.29
299.022	-29.87
299.236	-60.59
299.451	19.29
299.665	-27.82
299.88	-7.34
300.094	-36.01
300.309	43.86
300.523	-44.2
300.737	-31.91
300.952	-17.58
301.166	33.62
301.381	2.9
301.595	11.09
301.809	41.81
302.024	33.62
302.238	0.85
302.452	60.24
302.667	33.62
302.881	93.01
303.095	17.24
303.309	-25.77
303.524	15.19
303.738	4.95
303.952	-76.97
304.166	-7.34
304.381	9.05
304.595	58.2
304.809	52.05
305.023	11.09
305.237	9.05
305.452	31.57
305.666	23.38
305.88	84.82
306.094	35.67
306.308	52.05
306.522	101.2
306.736	21.33
306.95	-5.29
307.164	76.63
307.379	70.48
307.593	7
307.807	66.39
308.021	60.24
308.235	39.76
308.449	41.81
308.663	11.09
308.877	19.29
309.091	60.24
309.305	52.05
309.519	50
309.733	109.4
309.947	-95.4
310.161	45.91
310.374	56.15
310.588	111.44
310.802	31.57
311.016	2.9
311.23	-17.58
311.444	-27.82
311.658	15.19
311.872	21.33
312.085	2.9
312.299	101.2
312.513	-36.01
312.727	37.72
312.941	-23.72
313.154	7
313.368	2.9
313.582	29.52
313.796	41.81
314.009	47.96
314.223	64.34
314.437	23.38
314.651	56.15
314.864	62.29
315.078	19.29
315.292	52.05
315.505	52.05
315.719	0.85
315.933	29.52
316.146	17.24
316.36	4.95
316.573	43.86
316.787	-52.39
317.001	90.96
317.214	90.96
317.428	103.25
317.641	11.09
317.855	-1.19
318.068	-72.87
318.282	-15.53
318.495	-36.01
318.709	-48.3
318.922	21.33
319.136	45.91
319.349	23.38
319.563	111.44
319.776	-13.48
319.99	64.34
320.203	68.44
320.417	-5.29
320.63	54.1
320.843	43.86
321.057	45.91
321.27	33.62
321.483	19.29
321.697	21.33
321.91	-9.39
322.124	-17.58
322.337	31.57
322.55	70.48
322.763	4.95
322.977	-23.72
323.19	-44.2
323.403	23.38
323.617	13.14
323.83	33.62
324.043	76.63
324.256	-70.83
324.469	54.1
324.683	31.57
324.896	47.96
325.109	19.29
325.322	21.33
325.535	39.76
325.748	41.81
325.962	35.67
326.175	47.96
326.388	31.57
326.601	45.91
326.814	0.85
327.027	15.19
327.24	11.09
327.453	13.14
327.666	56.15
327.879	4.95
328.092	-1.19
328.305	-9.39
328.518	13.14
328.731	-36.01
328.944	43.86
329.157	-11.43
329.37	23.38
329.583	52.05
329.796	-38.06
330.009	-36.01
330.222	47.96
330.435	70.48
330.648	13.14
330.861	-17.58
331.073	115.54
331.286	80.72
331.499	54.1
331.712	7
331.925	-38.06
332.138	-15.53
332.35	107.35
332.563	-3.24
332.776	95.06
332.989	17.24
333.202	7
333.414	9.05
333.627	17.24
333.84	82.77
334.053	39.76
334.265	35.67
334.478	17.24
334.691	7
334.903	-23.72
335.116	-23.72
335.329	9.05
335.541	41.81
335.754	74.58
335.966	47.96
336.179	-31.91
336.392	-3.24
336.604	19.29
336.817	29.52
337.029	90.96
337.242	62.29
337.454	-21.67
337.667	4.95
337.88	52.05
338.092	127.83
338.305	29.52
338.517	4.95
338.729	15.19
338.942	-27.82
339.154	45.91
339.367	41.81
339.579	-7.34
339.792	-17.58
340.004	13.14
340.217	4.95
340.429	9.05
340.641	-3.24
340.854	27.48
341.066	11.09
341.278	41.81
341.491	115.54
341.703	37.72
341.915	29.52
342.128	-3.24
342.34	9.05
342.552	-7.34
342.764	70.48
342.977	64.34
343.189	45.91
343.401	66.39
343.613	-15.53
343.826	29.52
344.038	52.05
344.25	62.29
344.462	-23.72
344.674	7
344.886	2.9
345.099	23.38
345.311	19.29
345.523	23.38
345.735	-36.01
345.947	54.1
346.159	33.62
346.371	27.48
346.583	35.67
346.795	-33.96
347.007	-27.82
347.219	101.2
347.431	21.33
347.643	68.44
347.855	15.19
348.067	19.29
348.279	-23.72
348.491	2.9
348.703	23.38
348.915	-3.24
349.127	-7.34
349.339	4.95
349.551	13.14
349.763	56.15
349.975	15.19
350.187	45.91
350.399	17.24
350.61	99.16
350.822	62.29
351.034	4.95
351.246	-23.72
351.458	54.1
351.669	76.63
351.881	62.29
352.093	-7.34
352.305	-31.91
352.517	58.2
352.728	13.14
352.94	50
353.152	50
353.363	-9.39
353.575	23.38
353.787	15.19
353.999	0.85
354.21	86.87
354.422	37.72
354.633	74.58
354.845	68.44
355.057	52.05
355.268	43.86
355.48	37.72
355.692	52.05
355.903	-23.72
356.115	82.77
356.326	23.38
356.538	37.72
356.749	70.48
356.961	60.24
357.172	25.43
357.384	66.39
357.595	74.58
357.807	45.91
358.018	-15.53
358.23	43.86
358.441	31.57
358.653	68.44
358.864	-29.87
359.075	95.06
359.287	-1.19
359.498	-31.91
359.709	43.86
359.921	-13.48
360.132	43.86
360.344	33.62
360.555	2.9
360.766	88.92
360.977	4.95
361.189	-56.49
361.4	37.72
361.611	62.29
361.823	47.96
362.034	41.81
362.245	-29.87
362.456	37.72
362.667	109.4
362.879	56.15
363.09	64.34
363.301	80.72
363.512	33.62
363.723	54.1
363.935	43.86
364.146	72.53
364.357	29.52
364.568	39.76
364.779	56.15
364.99	21.33
365.201	2.9
365.412	-1.19
365.623	76.63
365.834	70.48
366.045	-76.97
366.256	76.63
366.467	66.39
366.678	31.57
366.889	37.72
367.1	76.63
367.311	21.33
367.522	43.86
367.733	68.44
367.944	25.43
368.155	21.33
368.366	45.91
368.577	78.68
368.788	86.87
368.999	54.1
369.209	-7.34
369.42	-25.77
369.631	47.96
369.842	9.05
370.053	74.58
370.264	129.88
370.474	15.19
370.685	19.29
370.896	-27.82
371.107	-15.53
371.317	58.2
371.528	11.09
371.739	27.48
371.95	41.81
372.16	7
372.371	54.1
372.582	35.67
372.792	109.4
373.003	0.85
373.214	-25.77
373.424	31.57
373.635	-36.01
373.846	78.68
374.056	0.85
374.267	9.05
374.477	35.67
374.688	-13.48
374.898	35.67
375.109	17.24
375.319	74.58
375.53	39.76
375.74	-3.24
375.951	-9.39
376.161	4.95
376.372	103.25
376.582	-46.25
376.793	80.72
377.003	2.9
377.214	13.14
377.424	76.63
377.635	56.15
377.845	72.53
378.055	31.57
378.266	-25.77
378.476	11.09
378.686	27.48
378.897	52.05
379.107	72.53
379.317	19.29
379.528	19.29
379.738	76.63
379.948	9.05
380.158	47.96
380.369	-5.29
380.579	41.81
380.789	64.34
380.999	37.72
381.21	47.96
381.42	95.06
381.63	17.24
381.84	144.21
382.05	-17.58
382.261	41.81
382.471	62.29
382.681	4.95
382.891	66.39
383.101	58.2
383.311	58.2
383.521	93.01
383.731	-29.87
383.941	62.29
384.151	-7.34
384.361	50
384.571	72.53
384.781	21.33
384.991	13.14
385.201	29.52
385.411	78.68
385.621	9.05
385.831	47.96
386.041	58.2
386.251	-5.29
386.461	95.06
386.671	31.57
386.881	50
387.091	21.33
387.301	58.2
387.511	68.44
387.72	13.14
387.93	60.24
388.14	86.87
388.35	37.72
388.56	54.1
388.769	60.24
388.979	68.44
389.189	4.95
389.399	62.29
389.609	37.72
389.818	62.29
390.028	43.86
390.238	23.38
390.447	21.33
390.657	-62.63
390.867	21.33
391.076	84.82
391.286	115.54
391.496	62.29
391.705	70.48
391.915	29.52
392.125	66.39
392.334	-1.19
392.544	82.77
392.753	52.05
392.963	43.86
393.172	64.34
393.382	111.44
393.591	68.44
393.801	50
394.01	107.35
394.22	78.68
394.429	-38.06
394.639	23.38
394.848	9.05
395.058	74.58
395.267	136.02
395.477	84.82
395.686	78.68
395.895	31.57
396.105	101.2
396.314	-7.34
396.524	58.2
396.733	97.11
396.942	144.21
397.152	52.05
397.361	88.92
397.57	-33.96
397.78	115.54
397.989	127.83
398.198	78.68
398.407	31.57
398.617	50
398.826	-5.29
399.035	41.81
399.244	13.14
399.453	35.67
399.663	78.68
399.872	84.82
400.081	88.92
400.29	97.11
400.499	133.97
400.708	176.98
400.917	123.73
401.127	70.48
401.336	31.57
401.545	78.68
401.754	43.86
401.963	88.92
402.172	103.25
402.381	125.78
402.59	115.54
402.799	101.2
403.008	56.15
403.217	72.53
403.426	119.64
403.635	66.39
403.844	74.58
404.053	86.87
404.262	78.68
404.471	119.64
404.68	103.25
404.888	150.36
405.097	148.31
405.306	101.2
405.515	140.12
405.724	217.94
405.933	189.27
406.142	123.73
406.35	156.5
406.559	181.07
406.768	152.4
406.977	215.89
407.185	66.39
407.394	222.03
407.603	90.96
407.812	156.5
408.02	197.46
408.229	203.6
408.438	183.12
408.646	234.32
408.855	142.16
409.064	193.36
409.272	207.7
409.481	238.42
409.69	176.98
409.898	267.09
410.107	291.66
410.315	260.95
410.524	187.22
410.733	267.09
410.941	213.84
411.15	297.81
411.358	340.82
411.567	351.06
411.775	312.14
411.984	365.39
412.192	367.44
412.401	363.34
412.609	342.86
412.818	365.39
413.026	373.58
413.234	377.68
413.443	412.5
413.651	367.44
413.86	396.11
414.068	533.33
414.276	482.13
414.485	486.22
414.693	596.81
414.901	615.24
415.11	541.52
415.318	566.09
415.526	578.38
415.734	656.2
415.943	711.5
416.151	652.11
416.359	701.26
416.567	752.46
416.776	770.89
416.984	852.81
417.192	699.21
417.4	740.17
417.608	774.99
417.817	764.75
418.025	916.3
418.233	893.77
418.441	938.82
418.649	983.88
418.857	942.92
419.065	996.17
419.273	942.92
419.481	1065.8
419.689	1123.14
419.897	1196.87
420.105	1205.06
420.313	1397.57
420.521	1190.72
420.729	1305.41
420.937	1344.32
421.145	1440.58
421.353	1575.74
421.561	1528.64
421.769	1434.43
421.977	1657.66
422.185	1633.08
422.393	1749.82
422.601	1737.53
422.809	1805.11
423.017	1921.85
423.224	1821.5
423.432	2097.97
423.64	1956.66
423.848	2163.51
424.056	2018.1
424.263	2239.28
424.471	2161.46
424.679	2196.28
424.887	2460.46
425.094	2478.9
425.302	2429.74
425.51	2550.57
425.718	2646.83
425.925	2695.98
426.133	2847.53
426.341	2927.4
426.548	3144.49
426.756	3113.77
426.964	3033.9
427.171	3347.23
427.379	3371.81
427.586	3447.58
427.794	3650.33
428.001	3654.43
428.209	3885.85
428.417	3801.88
428.624	3963.67
428.832	4070.17
429.039	4107.03
429.247	4154.13
429.454	4533.01
429.662	4752.14
429.869	4487.95
430.076	4700.94
430.284	4590.35
430.491	4868.88
430.699	5114.63
430.906	5090.06
431.114	5214.98
431.321	5276.42
431.528	5335.81
431.736	5688.06
431.943	6140.66
432.15	5935.87
432.358	6179.58
432.565	6390.52
432.772	6308.6
432.979	6443.76
433.187	6865.64
433.394	6826.73
433.601	7135.98
433.808	7238.37
434.016	7215.85
434.223	7410.4
434.43	7930.59
434.637	7912.16
434.844	8137.43
435.052	8487.64
435.259	8143.58
435.466	8377.05
435.673	8196.82
435.88	8927.95
436.087	9478.85
436.294	9306.82
436.501	8921.81
436.708	9351.88
436.915	9802.43
437.122	10148.54
437.329	9960.13
437.537	10164.92
437.743	10416.82
437.95	10443.45
438.157	11027.12
438.364	11340.46
438.571	11272.87
438.778	11315.88
438.985	12587.67
439.192	12096.16
439.399	12130.97
439.606	11903.65
439.813	12634.77
440.02	13402.76
440.227	13222.54
440.433	13220.49
440.64	13273.74
440.847	13406.86
441.054	13912.71
441.261	14668.41
441.467	14746.23
441.674	14811.76
441.881	15432.3
442.088	15301.23
442.294	15106.67
442.501	15589.99
442.708	15979.11
442.914	16560.73
443.121	17148.5
443.328	16814.68
443.534	17988.16
443.741	17427.02
443.948	17240.65
444.154	18262.59
444.361	18203.2
444.568	18455.1
444.774	18680.38
444.981	18539.07
445.187	19098.16
445.394	20054.56
445.6	19886.63
445.807	21651.98
446.013	20863.51
446.22	21193.23
446.426	21920.26
446.633	21924.36
446.839	22766.07
447.046	21789.19
447.252	23085.56
447.459	23011.83
447.665	23177.72
447.871	23634.41
448.078	24900.06
448.284	23777.77
448.491	24525.28
448.697	25579.98
448.903	25887.18
449.11	25823.69
449.316	25311.7
449.522	25887.18
449.728	26390.98
449.935	26593.73
450.141	26247.62
450.347	27351.48
450.553	26692.03
450.76	26763.71
450.966	27308.47
451.172	27197.88
451.378	27888.04
451.584	26927.55
451.791	27918.76
451.997	27736.49
452.203	28338.6
452.409	28389.8
452.615	28064.17
452.821	27152.82
453.027	27048.38
453.233	28498.34
453.44	26806.72
453.646	27255.22
453.852	27441.59
454.058	27767.21
454.264	26513.86
454.47	27888.04
454.676	26730.94
454.882	28137.9
455.088	25346.51
455.294	25729.48
455.5	25954.76
455.705	26284.48
455.911	25045.46
456.117	24711.64
456.323	24201.7
456.529	23030.26
456.735	24021.48
456.941	23173.62
457.147	23159.28
457.352	22366.72
457.558	22108.68
457.764	22184.45
457.97	21731.85
458.176	21393.93
458.381	21049.88
458.587	20099.62
458.793	19952.16
458.999	18954.8
459.204	20591.13
459.41	19905.06
459.616	18801.21
459.821	18612.79
460.027	18512.44
460.233	18047.55
460.438	17154.64
460.644	17853
460.85	16421.47
461.055	16380.51
461.261	16493.15
461.466	15174.25
461.672	14551.67
461.878	15647.33
462.083	14817.91
462.289	14494.33
462.494	14254.72
462.7	13759.11
462.905	13433.48
463.111	13601.41
463.316	13849.22
463.522	13486.73
463.727	13666.95
463.932	13423.24
464.138	13394.57
464.343	13271.69
464.549	12892.82
464.754	13427.34
464.959	13570.69
465.165	13267.59
465.37	12696.21
465.575	12317.34
465.781	12929.68
465.986	13144.72
466.191	12571.29
466.397	12241.56
466.602	11651.75
466.807	12352.15
467.012	11973.28
467.218	12038.81
467.423	11932.32
467.628	12133.02
467.833	12489.37
468.038	12130.97
468.244	11809.44
468.449	12319.39
468.654	11659.94
468.859	11563.68
469.064	11711.14
469.269	11287.21
469.474	11076.27
469.679	11483.81
469.885	11215.53
470.09	11236.01
470.295	11113.13
470.5	10977.97
470.705	10937.01
470.91	10842.8
471.115	10773.17
471.32	10846.9
471.525	10699.44
471.73	10439.35
471.935	10455.73
472.139	10093.24
472.344	10101.44
472.549	10158.78
472.754	10144.44
472.959	9833.15
473.164	9566.92
473.369	9716.42
473.574	9872.06
473.778	9685.7
473.983	9591.49
474.188	9433.8
474.393	9099.98
474.598	9229
474.802	9188.04
475.007	8995.53
475.212	9079.5
475.417	8680.14
475.621	8778.45
475.826	8831.69
476.031	8721.1
476.235	8458.96
476.44	8590.03
476.645	8379.09
476.849	8479.44
477.054	8229.59
477.259	8319.7
477.463	8366.81
477.668	7805.66
477.872	8147.67
478.077	7776.99
478.282	7680.74
478.486	7762.65
478.691	7791.33
478.895	7477.99
479.1	7598.82
479.304	7564
479.509	7342.82
479.713	7545.57
479.918	7348.97
480.122	7240.42
480.326	7394.02
480.531	7361.25
480.735	7357.16
480.94	7060.2
481.144	7512.8
481.348	6994.67
481.553	7144.17
481.757	6910.7
481.961	7254.76
482.166	7252.71
482.37	7178.98
482.574	6816.49
482.778	7056.11
482.983	7080.68
483.187	6974.19
483.391	7135.98
483.595	7021.29
483.8	6966
484.004	7144.17
484.208	7049.96
484.412	7156.46
484.616	7062.25
484.821	6972.14
485.025	6869.74
485.229	7006.95
485.433	7070.44
485.637	6927.08
485.841	7045.87
486.045	6884.08
486.249	7168.74
486.453	7103.21
486.657	7019.24
486.861	7052.01
487.065	7011.05
487.269	6906.6
487.473	6941.42
487.677	6996.71
487.881	7213.8
488.085	6927.08
488.289	7101.16
488.493	6974.19
488.697	7123.69
488.901	7080.68
489.105	7025.39
489.309	7318.25
489.512	7013.1
489.716	7090.92
489.92	7103.21
490.124	7068.39
490.328	7326.44
490.531	7148.26
490.735	7295.72
490.939	7168.74
491.143	7156.46
491.346	7144.17
491.55	7140.07
491.754	7344.87
491.958	7226.09
492.161	7353.06
492.365	7402.21
492.569	7336.68
492.772	7340.77
492.976	7545.57
493.18	7596.77
493.383	7582.43
493.587	7647.97
493.79	7733.98
493.994	7688.93
494.197	7656.16
494.401	7770.85
494.605	7758.56
494.808	7912.16
495.012	7865.05
495.215	7873.25
495.419	7965.4
495.622	7926.49
495.825	8211.16
496.029	8184.54
496.232	8342.23
496.436	8002.27
496.639	8655.57
496.843	8362.71
497.046	8571.6
497.249	8774.35
497.453	8725.2
497.656	8825.55
497.859	8960.72
498.063	8782.54
498.266	9265.86
498.469	9138.89
498.673	9349.83
498.876	9192.14
499.079	9450.18
499.282	9417.41
499.485	9689.79
499.689	9706.18
499.892	9861.82
500.095	9941.69
500.298	10150.59
500.501	9910.97
500.705	10154.68
500.908	10250.94
501.111	10441.4
501.314	10527.41
501.517	10652.34
501.72	10869.42
501.923	10754.74
502.126	11059.88
502.329	11152.04
502.532	11279.02
502.735	11213.48
502.938	11487.91
503.141	11768.48
503.344	11768.48
503.547	11768.48
503.75	11917.98
503.953	12171.93
504.156	12085.92
504.359	12333.72
504.562	12384.92
504.765	12690.07
504.968	12780.18
505.17	13036.17
505.373	13032.08
505.576	13361.8
505.779	13376.14
505.982	13529.73
506.185	13650.57
506.387	13695.62
506.59	14045.82
506.793	13951.62
506.996	14090.88
507.198	14420.6
507.401	14375.55
507.604	14580.34
507.807	14643.83
508.009	14879.35
508.212	15075.95
508.415	15102.57
508.617	15389.29
508.82	15243.88
509.022	15325.8
509.225	15725.16
509.428	16065.12
509.63	16192.09
509.833	15786.6
510.035	16476.76
510.238	16423.51
510.44	16536.15
510.643	16878.16
510.845	17060.43
511.048	16599.64
511.25	17181.26
511.453	17095.25
511.655	18006.59
511.858	17676.87
512.06	17742.41
512.262	17893.96
512.465	18190.91
512.667	18448.96
512.87	18534.97
513.072	18604.6
513.274	18641.46
513.477	18854.45
513.679	19188.27
513.881	19448.36
514.084	19737.13
514.286	19415.6
514.488	19659.31
514.69	20441.63
514.893	20306.46
515.095	20007.46
515.297	20400.67
515.499	20888.09
515.701	21125.65
515.904	21033.49
516.106	21346.83
516.308	21441.04
516.51	21762.57
516.712	21408.27
516.914	21815.82
517.116	22424.06
517.318	22338.05
517.52	22772.22
517.722	22843.9
517.925	23081.46
518.127	23267.83
518.329	23392.75
518.531	23544.3
518.733	23767.53
518.935	23929.32
519.136	23910.89
519.338	24093.16
519.54	24584.67
519.742	24646.11
519.944	24611.29
520.146	25194.96
520.348	25289.17
520.55	25598.41
520.752	25154.01
520.954	25772.49
521.155	25524.69
521.357	26104.26
521.559	26536.38
521.761	26859.96
521.963	26573.25
522.164	26835.39
522.366	26833.34
522.568	27138.49
522.77	27122.1
522.971	27492.79
523.173	27550.13
523.375	27861.42
523.576	27580.85
523.778	27761.07
523.98	28109.22
524.181	28103.08
524.383	28361.12
524.584	28696.99
524.786	28527.01
524.988	28506.53
525.189	28963.23
525.391	29507.99
525.592	29481.36
525.794	29329.81
525.995	29442.45
526.197	29227.42
526.398	29708.69
526.6	29944.2
526.801	29591.95
527.003	29890.96
527.204	30388.61
527.406	30376.33
527.607	30366.09
527.808	30579.07
528.01	29989.26
528.211	30437.76
528.412	31089.02
528.614	31097.21
528.815	30630.27
529.016	31177.08
529.218	30652.8
529.419	31285.62
529.62	31326.58
529.822	30859.65
530.023	31287.67
530.224	31256.95
530.425	31152.51
530.626	31021.44
530.828	31211.9
531.029	31977.84
531.23	31312.25
531.431	31652.21
531.632	31703.41
531.833	31566.2
532.035	31598.96
532.236	31873.39
532.437	32088.43
532.638	31527.28
532.839	31738.23
533.04	31863.15
533.241	31097.21
533.442	31938.93
533.643	31914.35
533.844	32037.23
534.045	31717.75
534.246	32137.58
534.447	32137.58
534.648	31873.39
534.849	32133.48
535.05	32090.48
535.251	32143.72
535.451	31756.66
535.652	32391.53
535.853	31672.69
536.054	31924.59
536.255	32180.59
536.456	31994.22
536.657	32350.57
536.857	32194.92
537.058	31998.32
537.259	31717.75
537.46	32006.51
537.66	31897.97
537.861	32348.52
538.062	31881.58
538.263	32194.92
538.463	31936.88
538.664	32008.56
538.865	32196.97
539.065	32242.03
539.266	31533.43
539.466	32643.43
539.667	31555.96
539.868	32182.63
540.068	31914.35
540.269	31793.52
540.469	32196.97
540.67	31807.86
540.87	31959.41
541.071	31392.12
541.271	32022.89
541.472	31832.43
541.672	32026.99
541.873	31592.82
542.073	31302.01
542.274	32268.65
542.474	31568.24
542.675	31881.58
542.875	31945.07
543.075	31865.2
543.276	31312.25
543.476	31994.22
543.676	31803.76
543.877	31857.01
544.077	31515
544.277	31754.61
544.478	31754.61
544.678	31764.85
544.878	31656.31
545.078	31637.87
545.279	31625.59
545.479	31439.22
545.679	31834.48
545.879	31943.02
546.079	31551.86
546.28	31537.52
546.48	31461.75
546.68	31680.88
546.88	31488.37
547.08	31703.41
547.28	31635.83
547.48	31619.44
547.68	31457.65
547.88	31476.09
548.081	31768.94
548.281	31328.63
548.481	31383.93
548.681	31807.86
548.881	31388.02
549.081	31332.73
549.28	31259
549.48	31644.02
549.68	31062.4
549.88	31635.83
550.08	31250.81
550.28	31455.61
550.48	31271.29
550.68	31945.07
550.88	31199.61
551.08	31089.02
551.279	31215.99
551.479	31103.35
551.679	31197.56
551.879	30929.28
552.079	31123.83
552.278	31263.1
552.478	31250.81
552.678	31310.2
552.878	31295.86
553.077	31127.93
553.277	30673.28
553.477	31617.39
553.676	31234.42
553.876	31318.39
554.076	31050.11
554.275	31123.83
554.475	30775.68
554.674	31058.3
554.874	30992.76
555.074	31148.41
555.273	31187.32
555.473	31324.54
555.672	30941.57
555.872	30730.62
556.071	31123.83
556.271	30775.68
556.47	30855.55
556.67	30509.44
556.869	30511.49
557.068	30740.86
557.268	30120.33
557.467	30484.87
557.667	30599.55
557.866	30749.06
558.065	30669.19
558.265	30300.55
558.464	30177.67
558.663	30615.94
558.863	30241.16
559.062	30658.95
559.261	29964.68
559.461	30480.77
559.66	29768.08
559.859	30126.47
560.058	29905.29
560.258	30114.19
560.457	29755.79
560.656	30476.68
560.855	30093.71
561.054	29929.87
561.253	29649.3
561.453	29823.37
561.652	29770.13
561.851	30149
562.05	29673.87
562.249	29233.56
562.448	29647.25
562.647	29641.11
562.846	29442.45
563.045	29313.43
563.244	28967.32
563.443	29430.16
563.642	29159.83
563.841	29757.84
564.04	28969.37
564.239	29282.71
564.438	29030.81
564.637	29090.2
564.836	28602.78
565.035	28803.49
565.234	28692.9
565.432	28733.85
565.631	28780.96
565.83	28860.83
566.029	28619.17
566.228	28647.84
566.427	28375.46
566.625	28541.35
566.824	28168.62
567.023	28260.77
567.222	28015.02
567.42	28334.5
567.619	28101.03
567.818	28033.45
568.016	27781.55
568.215	28164.52
568.414	27814.32
568.612	28176.81
568.811	27804.08
569.01	28070.31
569.208	27367.86
569.407	27773.36
569.605	27255.22
569.804	27574.7
570.002	27472.31
570.201	27695.53
570.4	27199.93
570.598	27482.55
570.797	26735.04
570.995	27574.7
571.193	26917.31
571.392	27367.86
571.59	26917.31
571.789	26866.11
571.987	26657.21
572.186	26747.33
572.384	26704.32
572.582	26714.56
572.781	26642.88
572.979	26155.46
573.177	26362.31
573.376	26464.71
573.574	26341.83
573.772	26249.67
573.971	26132.93
574.169	25967.05
574.367	25848.27
574.565	26210.76
574.763	25725.39
574.962	25768.4
575.16	25551.31
575.358	25694.67
575.556	25070.04
575.754	25760.2
575.952	25303.51
576.151	25823.69
576.349	25340.37
576.547	25334.23
576.745	25487.82
576.943	25248.21
577.141	24783.32
577.339	25405.91
577.537	25063.89
577.735	25266.64
577.933	24601.05
578.131	25094.61
578.329	24658.4
578.527	24697.31
578.725	24981.98
578.923	24687.07
579.121	24515.04
579.319	24535.52
579.516	24459.74
579.714	24269.28
579.912	24437.22
580.11	24138.21
580.308	24357.35
580.506	23996.9
580.704	23990.76
580.901	23927.27
581.099	24351.2
581.297	23755.24
581.495	23491.05
581.692	23896.55
581.89	23646.7
582.088	23740.91
582.285	23448.05
582.483	23775.72
582.681	23511.53
582.878	23523.82
583.076	23142.9
583.274	23286.26
583.471	23142.9
583.669	23087.61
583.866	23009.78
584.064	23220.72
584.262	22745.59
584.459	23054.84
584.657	22630.91
584.854	23128.56
585.052	22532.61
585.249	22804.99
585.447	22626.81
585.644	22368.77
585.841	22446.59
586.039	22618.62
586.236	22161.92
586.434	22481.41
586.631	22086.15
586.828	22319.62
587.026	22434.3
587.223	22155.78
587.42	22030.85
587.618	22073.86
587.815	21873.16
588.012	21842.44
588.21	21830.15
588.407	21830.15
588.604	21742.09
588.801	21404.17
588.999	21535.24
589.196	21426.7
589.393	21486.09
589.59	21406.22
589.787	21215.76
589.984	21223.95
590.182	20980.25
590.379	21348.88
590.576	20869.65
590.773	21066.26
590.97	21074.45
591.167	20666.91
591.364	20816.41
591.561	20867.61
591.758	20650.52
591.955	20951.57
592.152	20765.21
592.349	20677.15
592.546	20464.16
592.743	20441.63
592.94	20091.43
593.137	20275.74
593.334	20431.39
593.531	20113.95
593.727	20462.11
593.924	20056.61
594.121	19943.97
594.318	20023.84
594.515	19878.44
594.712	20013.6
594.908	19796.52
595.105	19817
595.302	19608.11
595.499	19667.5
595.696	19511.85
595.892	19483.18
596.089	19681.83
596.286	19591.72
596.482	19405.36
596.679	19323.44
596.876	19241.52
597.072	19266.1
597.269	19128.88
597.466	18979.38
597.662	18793.01
597.859	18938.42
598.055	19124.79
598.252	18827.83
598.448	18842.17
598.645	18440.76
598.841	18547.26
599.038	18776.63
599.234	18649.66
599.431	18397.76
599.627	18428.48
599.824	18516.54
600.02	18254.4
600.217	18424.38
600.413	18104.9
600.609	18180.67
600.806	18133.57
601.002	18145.86
601.198	18162.24
601.395	17805.89
601.591	17797.7
601.787	17754.69
601.984	17816.13
602.18	17695.3
602.376	17560.14
602.572	17795.65
602.769	17869.38
602.965	17330.76
603.161	17568.33
603.357	17560.14
603.553	17263.18
603.75	17510.99
603.946	17185.36
604.142	17234.51
604.338	17037.91
604.534	17285.71
604.73	17189.46
604.926	17236.56
605.122	17058.39
605.318	16886.36
605.514	17052.24
605.71	16970.32
605.906	16855.64
606.102	16831.06
606.298	16728.66
606.494	16718.42
606.69	16542.3
606.886	16552.54
607.082	16554.58
607.278	16661.08
607.474	16443.99
607.67	16341.6
607.866	16091.74
608.062	16691.8
608.257	16325.21
608.453	16185.95
608.649	16108.13
608.845	16128.61
609.041	16400.99
609.236	16263.77
609.432	15938.15
609.628	15964.77
609.824	16011.87
610.019	15774.31
610.215	15997.54
610.411	15876.71
610.606	16067.17
610.802	15841.89
610.998	15856.23
611.193	15907.43
611.389	15657.57
611.584	15538.79
611.78	15592.04
611.976	15757.92
612.171	15716.97
612.367	15475.31
612.562	15563.37
612.758	15518.31
612.953	15407.72
613.149	15399.53
613.344	15374.95
613.539	15633
613.735	15387.24
613.93	15489.64
614.126	15344.24
614.321	15258.22
614.517	15268.46
614.712	15411.82
614.907	15217.26
615.103	15272.56
615.298	15166.06
615.493	15438.44
615.688	14910.07
615.884	15385.19
616.079	14797.43
616.274	14852.72
616.47	15086.19
616.665	15028.85
616.86	14908.02
617.055	14627.45
617.25	14545.53
617.445	14738.04
617.641	14502.52
617.836	14701.17
618.031	14527.1
618.226	14711.41
618.421	14668.41
618.616	14764.66
618.811	14445.18
619.006	14455.42
619.201	14297.72
619.396	14518.9
619.591	14133.89
619.786	14205.56
619.981	14039.68
620.176	14320.25
620.371	13972.1
620.566	14092.93
620.761	14064.25
620.956	14035.58
621.151	13576.84
621.346	13916.8
621.541	13619.85
621.735	13763.2
621.93	13554.31
622.125	13587.08
622.32	13447.82
622.515	13580.93
622.709	13218.44
622.904	13392.52
623.099	13066.89
623.294	13111.95
623.488	12896.91
623.683	13089.42
623.878	12698.26
624.072	12853.91
624.267	12728.98
624.462	12800.66
624.656	12751.51
624.851	12452.5
625.046	12630.68
625.24	12690.07
625.435	12229.27
625.629	12384.92
625.824	12442.26
626.018	12219.03
626.213	11801.25
626.407	12237.47
626.602	11827.87
626.796	11807.39
626.991	11854.5
627.185	11883.17
627.38	11698.85
627.574	11909.79
627.768	11700.9
627.963	11580.07
628.157	11262.63
628.352	11405.99
628.546	11342.5
628.74	11438.76
628.935	11168.43
629.129	11365.03
629.323	11100.84
629.517	11170.47
629.712	11152.04
629.906	10908.33
630.1	10924.72
630.294	10900.14
630.489	10777.26
630.683	10781.36
630.877	10519.22
631.071	10601.14
631.265	10603.19
631.459	10535.6
631.653	10558.13
631.848	10384.05
632.042	10283.7
632.236	10339
632.43	10240.7
632.624	10295.99
632.818	10044.09
633.012	9953.98
633.206	10080.96
633.4	10037.95
633.594	9786.05
633.788	9812.67
633.982	9777.86
634.176	9906.88
634.369	9755.33
634.563	9657.03
634.757	9902.78
634.951	9910.97
635.145	9589.44
635.339	9706.18
635.533	9448.13
635.726	9392.84
635.92	9272.01
636.114	9257.67
636.308	9218.76
636.501	9179.85
636.695	9210.57
636.889	9042.64
637.083	9138.89
637.276	8897.23
637.47	9044.68
637.664	8970.96
637.857	8872.65
638.051	8852.17
638.244	8641.23
638.438	8737.49
638.632	8600.27
638.825	8727.25
639.019	8633.04
639.212	8573.65
639.406	8495.83
639.599	8452.82
639.793	8497.88
639.986	8461.01
640.18	8495.83
640.373	8274.65
640.567	8188.63
640.76	8418
640.954	8164.06
641.147	8090.33
641.34	7946.97
641.534	8080.09
641.727	8053.47
641.92	8067.8
642.114	7916.25
642.307	7817.95
642.5	7826.14
642.694	7639.78
642.887	7772.89
643.08	7895.77
643.273	7705.31
643.467	7678.69
643.66	7555.81
643.853	7551.71
644.046	7375.59
644.239	7543.52
644.432	7475.94
644.626	7338.73
644.819	7213.8
645.012	7312.1
645.205	7305.96
645.398	7299.81
645.591	7109.35
645.784	7211.75
645.977	7082.73
646.17	7056.11
646.363	7164.65
646.556	6904.56
646.749	6959.85
646.942	6914.8
647.135	6869.74
647.328	6787.82
647.521	6759.15
647.714	6722.29
647.907	6601.46
648.099	6587.12
648.292	6785.77
648.485	6566.64
648.678	6658.8
648.871	6587.12
649.064	6437.62
649.256	6505.2
649.449	6480.63
649.642	6388.47
649.835	6408.95
650.027	6497.01
650.22	6144.76
650.413	6439.67
650.605	6302.45
650.798	6179.58
650.991	6081.27
651.183	6163.19
651.376	6011.64
651.568	6087.42
651.761	6099.7
651.954	6075.13
652.146	6007.55
652.339	5901.05
652.531	6048.51
652.724	5757.69
652.916	5845.76
653.109	5935.87
653.301	5792.51
653.494	5704.45
653.686	5714.69
653.879	5995.26
654.071	5661.44
654.263	5649.15
654.456	5726.97
654.648	5706.49
654.84	5507.84
655.033	5622.53
655.225	5518.08
655.417	5421.83
655.61	5524.23
655.802	5497.6
655.994	5387.01
656.186	5466.88
656.379	5339.91
656.571	5503.75
656.763	5282.56
656.955	5303.04
657.148	5151.49
657.34	5260.04
657.532	5194.5
657.724	5192.45
657.916	5200.65
658.108	5163.78
658.3	5223.17
658.492	5071.62
658.684	4885.26
658.876	4967.18
659.068	4872.97
659.26	4868.88
659.452	4940.55
659.644	4985.61
659.836	4915.98
660.028	4858.64
660.22	4780.81
660.412	4852.49
660.604	4766.48
660.796	4752.14
660.988	4692.75
661.18	4670.22
661.372	4631.31
661.563	4700.94
661.755	4487.95
661.947	4571.92
662.139	4705.04
662.331	4502.29
662.522	4492.05
662.714	4414.23
662.906	4492.05
663.097	4481.81
663.289	4440.85
663.481	4455.19
663.673	4348.69
663.864	4504.34
664.056	4416.27
664.247	4268.82
664.439	4143.89
664.631	4119.32
664.822	4283.16
665.014	4211.48
665.205	4242.2
665.397	4096.79
665.588	4236.05
665.78	4059.93
665.971	4109.08
666.163	4162.33
666.354	4029.21
666.546	4004.63
666.737	4049.69
666.929	4045.59
667.12	4023.06
667.311	4018.97
667.503	3863.32
667.694	3994.39
667.885	3846.94
668.077	3910.43
668.268	3889.95
668.459	3920.67
668.651	3848.99
668.842	3791.64
669.033	3699.48
669.224	3822.36
669.416	3734.3
669.607	3775.26
669.798	3750.68
669.989	3869.47
670.18	3719.96
670.371	3615.52
670.563	3574.56
670.754	3605.28
670.945	3748.64
671.136	3494.69
671.327	3627.81
671.518	3558.18
671.709	3535.65
671.9	3470.11
672.091	3535.65
672.282	3531.55
672.473	3490.59
672.664	3525.41
672.855	3496.74
673.046	3429.15
673.237	3533.6
673.428	3314.47
673.619	3484.45
673.809	3304.23
674	3468.06
674.191	3343.14
674.382	3435.3
674.573	3373.86
674.764	3332.9
674.954	3423.01
675.145	3408.67
675.336	3306.27
675.527	3261.22
675.717	3300.13
675.908	3218.21
676.099	3259.17
676.289	3257.12
676.48	3248.93
676.671	3181.35
676.861	3056.42
677.052	3195.68
677.243	3076.9
677.433	3099.43
677.624	3248.93
677.814	3220.26
678.005	3035.94
678.195	3177.25
678.386	3046.18
678.576	3040.04
678.767	3074.85
678.957	3154.73
679.148	3070.76
679.338	3185.44
679.529	3035.94
679.719	3044.13
679.909	2966.31
680.1	2960.17
680.29	2970.41
680.481	2980.65
680.671	3054.37
680.861	3007.27
681.052	2945.83
681.242	2892.59
681.432	3027.75
681.622	2958.12
681.813	2808.62
682.003	2892.59
682.193	2835.24
682.383	2839.34
682.573	2837.29
682.764	2825
682.954	2929.45
683.144	2890.54
683.334	2919.21
683.524	2808.62
683.714	2853.67
683.904	2855.72
684.094	2843.43
684.284	2800.43
684.474	2884.39
684.664	2847.53
684.854	2892.59
685.044	2659.12
685.234	2683.69
685.424	2677.55
685.614	2720.56
685.804	2706.22
685.994	2794.28
686.184	2771.76
686.374	2831.15
686.564	2564.91
686.753	2706.22
686.943	2650.92
687.133	2667.31
687.323	2571.05
687.513	2554.67
687.702	2519.85
687.892	2628.4
688.082	2630.45
688.272	2624.3
688.461	2532.14
688.651	2636.59
688.841	2650.92
689.03	2536.24
689.22	2595.63
689.41	2638.64
689.599	2603.82
689.789	2489.14
689.979	2630.45
690.168	2556.72
690.358	2476.85
690.547	2439.98
690.737	2513.71
690.926	2403.12
691.116	2425.65
691.305	2538.29
691.495	2319.15
691.684	2345.78
691.874	2386.74
692.063	2388.78
692.252	2425.65
692.442	2396.98
692.631	2407.22
692.82	2331.44
693.01	2306.87
693.199	2308.91
693.388	2296.63
693.578	2335.54
693.767	2253.62
693.956	2304.82
694.146	2339.63
694.335	2249.52
694.524	2177.84
694.713	2286.39
694.902	2239.28
695.092	2251.57
695.281	2253.62
695.47	2288.43
695.659	2280.24
695.848	2151.22
696.037	2046.77
696.226	2200.37
696.415	2167.6
696.604	2134.84
696.793	2081.59
696.982	2134.84
697.171	2179.89
697.36	2114.36
697.549	2181.94
697.738	2065.21
697.927	2028.34
698.116	2192.18
698.305	2093.88
698.494	2061.11
698.683	2050.87
698.872	2147.12
699.061	2050.87
699.25	2077.49
699.438	2091.83
699.627	2003.77
699.816	2124.6
700.005	2136.88
700.193	2085.69
700.382	2116.41
700.571	1979.19
700.76	2091.83
700.948	2071.35
701.137	2095.93
701.326	2075.45
701.514	2034.49
701.703	2159.41
701.892	1983.29
702.08	2073.4
702.269	2122.55
702.457	2032.44
702.646	2120.5
702.834	1981.24
703.023	1962.81
703.212	1934.14
703.4	2083.64
703.589	2011.96
703.777	2005.81
703.965	1950.52
704.154	1925.94
704.342	2007.86
704.531	1989.43
704.719	1934.14
704.907	1940.28
705.096	2018.1
705.284	1940.28
705.472	1938.23
705.661	2007.86
705.849	2095.93
706.037	1876.79
706.226	2028.34
706.414	1993.53
706.602	2046.77
706.79	1975.1
706.979	1960.76
707.167	1946.42
707.355	1899.32
707.543	1899.32
707.731	1987.38
707.919	1884.98
708.107	1887.03
708.296	1942.33
708.484	1893.18
708.672	1995.57
708.86	1940.28
709.048	1854.27
709.236	1911.61
709.424	1979.19
709.612	2018.1
709.8	1913.66
709.988	1835.83
710.176	1831.74
710.364	1985.34
710.551	2011.96
710.739	1962.81
710.927	1913.66
711.115	1905.46
711.303	1899.32
711.491	1913.66
711.679	1833.79
711.866	2065.21
712.054	1870.65
712.242	1915.7
712.43	1925.94
712.617	1905.46
712.805	1866.55
712.993	1919.8
713.181	1825.59
713.368	1884.98
713.556	1831.74
713.744	1841.98
713.931	1887.03
714.119	1889.08
714.306	1942.33
714.494	2009.91
714.682	1876.79
714.869	1860.41
715.057	1868.6
715.244	1848.12
715.432	1856.31
715.619	1815.35
715.807	1862.46
715.994	1897.27
716.182	1864.5
716.369	1856.31
716.556	1921.85
716.744	2005.81
716.931	1907.51
717.119	1987.38
717.306	1915.7
717.493	1831.74
717.681	1823.55
717.868	1868.6
718.055	1823.55
718.242	1833.79
718.43	1950.52
718.617	1825.59
718.804	1837.88
718.991	1794.87
719.179	1862.46
719.366	1893.18
719.553	1823.55
719.74	1858.36
719.927	1811.26
720.114	1844.03
720.301	1833.79
720.488	1688.38
720.676	1827.64
720.863	1889.08
721.05	1798.97
721.237	1889.08
721.424	1719.1
721.611	1895.22
721.798	1788.73
721.985	1827.64
722.172	1794.87
722.358	1762.11
722.545	1823.55
722.732	1835.83
722.919	1905.46
723.106	1786.68
723.293	1731.39
723.48	1887.03
723.667	1778.49
723.853	1741.63
724.04	1768.25
724.227	1819.45
724.414	1839.93
724.6	1786.68
724.787	1901.37
724.974	1846.07
725.161	1780.54
725.347	1790.78
725.534	1768.25
725.72	1917.75
725.907	1884.98
726.094	1860.41
726.28	1778.49
726.467	1749.82
726.653	1790.78
726.84	1889.08
727.027	1919.8
727.213	1729.34
727.4	1856.31
727.586	1792.83
727.773	1844.03
727.959	1731.39
728.145	1848.12
728.332	1821.5
728.518	1717.05
728.705	1749.82
728.891	1813.31
729.077	1772.35
729.264	1823.55
729.45	1749.82
729.636	1846.07
729.823	1745.72
730.009	1792.83
730.195	1766.2
730.382	1706.81
730.568	1833.79
730.754	1753.91
730.94	1782.59
731.126	1829.69
731.313	1833.79
731.499	1878.84
731.685	1760.06
731.871	1801.02
732.057	1821.5
732.243	1706.81
732.429	1764.15
732.615	1868.6
732.801	1753.91
732.987	1725.24
733.173	1669.95
733.359	1749.82
733.545	1788.73
733.731	1747.77
733.917	1655.61
734.103	1708.86
734.289	1719.1
734.475	1694.52
734.661	1686.33
734.847	1723.2
735.033	1719.1
735.219	1760.06
735.404	1692.48
735.59	1672
735.776	1618.75
735.962	1792.83
736.148	1672
736.333	1758.01
736.519	1698.62
736.705	1674.04
736.89	1727.29
737.076	1762.11
737.262	1680.19
737.447	1739.58
737.633	1618.75
737.819	1739.58
738.004	1665.85
738.19	1669.95
738.375	1788.73
738.561	1651.52
738.747	1618.75
738.932	1657.66
739.118	1735.48
739.303	1696.57
739.489	1676.09
739.674	1530.69
739.859	1606.46
740.045	1655.61
740.23	1712.96
740.416	1624.89
740.601	1731.39
740.786	1626.94
740.972	1626.94
741.157	1510.21
741.342	1569.6
741.528	1651.52
741.713	1555.26
741.898	1723.2
742.084	1669.95
742.269	1618.75
742.454	1659.71
742.639	1545.02
742.824	1530.69
743.01	1526.59
743.195	1489.73
743.38	1555.26
743.565	1626.94
743.75	1545.02
743.935	1469.25
744.12	1573.69
744.305	1497.92
744.49	1446.72
744.675	1510.21
744.86	1479.49
745.045	1465.15
745.23	1483.58
745.415	1473.34
745.6	1538.88
745.785	1407.81
745.97	1504.06
746.155	1411.9
746.34	1506.11
746.525	1360.7
746.71	1514.3
746.895	1444.67
747.079	1487.68
747.264	1407.81
747.449	1405.76
747.634	1452.86
747.819	1446.72
748.003	1434.43
748.188	1424.19
748.373	1409.86
748.557	1217.35
748.742	1340.22
748.927	1422.14
749.111	1377.09
749.296	1313.6
749.481	1385.28
749.665	1366.85
749.85	1332.03
750.034	1368.9
750.219	1221.44
750.404	1223.49
750.588	1278.79
750.773	1250.11
750.957	1278.79
751.141	1225.54
751.326	1248.07
751.51	1207.11
751.695	1129.28
751.879	1188.68
752.064	1256.26
752.248	1192.77
752.432	1164.1
752.617	1188.68
752.801	1209.15
752.985	1143.62
753.17	1139.52
753.354	1147.72
753.538	1196.87
753.722	1094.47
753.907	1117
754.091	1051.46
754.275	1139.52
754.459	1086.28
754.643	1086.28
754.828	1100.61
755.012	1110.85
755.196	1082.18
755.38	1121.09
755.564	1035.08
755.748	1139.52
755.932	1090.37
756.116	1106.76
756.3	1043.27
756.484	1110.85
756.668	1059.65
756.852	959.3
757.036	1014.6
757.22	990.02
757.404	1026.89
757.588	1004.36
757.772	975.69
757.956	942.92
758.14	949.06
758.323	977.73
758.507	1002.31
758.691	996.17
758.875	918.34
759.059	987.97
759.242	910.15
759.426	1010.5
759.61	867.14
759.794	811.85
759.977	893.77
760.161	938.82
760.345	889.67
760.528	924.49
760.712	910.15
760.895	844.62
761.079	963.4
761.263	877.38
761.446	791.37
761.63	797.51
761.813	873.29
761.997	881.48
762.18	844.62
762.364	774.99
762.547	748.36
762.731	904.01
762.914	889.67
763.098	717.64
763.281	824.14
763.464	813.9
763.648	779.08
763.831	758.6
764.015	758.6
764.198	861
764.381	805.71
764.564	817.99
764.748	768.84
764.931	811.85
765.114	772.94
765.297	863.05
765.481	844.62
765.664	791.37
765.847	746.31
766.03	760.65
766.213	822.09
766.397	709.45
766.58	799.56
766.763	770.89
766.946	748.36
767.129	797.51
767.312	648.01
767.495	746.31
767.678	680.78
767.861	678.73
768.044	713.55
768.227	731.98
768.41	750.41
768.593	637.77
768.776	731.98
768.959	633.68
769.142	738.12
769.324	693.07
769.507	768.84
769.69	768.84
769.873	760.65
770.056	738.12
770.239	721.74
770.421	658.25
770.604	691.02
770.787	762.7
770.97	613.2
771.152	645.96
771.335	672.59
771.518	715.59
771.7	664.4
771.883	664.4
772.066	613.2
772.248	684.87
772.431	678.73
772.613	654.16
772.796	707.4
772.978	639.82
773.161	615.24
773.343	682.83
773.526	652.11
773.708	602.96
773.891	609.1
774.073	607.05
774.256	594.76
774.438	668.49
774.621	672.59
774.803	617.29
774.985	559.95
775.168	580.43
775.35	568.14
775.532	602.96
775.715	586.57
775.897	564.04
776.079	578.38
776.261	482.13
776.444	484.17
776.626	600.91
776.808	527.18
776.99	527.18
777.173	664.4
777.355	541.52
777.537	480.08
777.719	596.81
777.901	488.27
778.083	486.22
778.265	475.98
778.447	533.33
778.629	478.03
778.811	488.27
778.993	475.98
779.175	465.74
779.357	506.7
779.539	463.69
779.721	451.41
779.903	443.21
780.085	518.99
780.267	484.17
780.449	437.07
780.631	451.41
780.812	498.51
780.994	426.83
781.176	424.78
781.358	447.31
781.54	414.54
781.721	420.69
781.903	471.89
782.085	435.02
782.267	414.54
782.448	371.54
782.63	357.2
782.812	424.78
782.993	453.45
783.175	398.16
783.357	316.24
783.538	449.36
783.72	410.45
783.901	385.87
784.083	400.21
784.264	396.11
784.446	373.58
784.627	377.68
784.809	351.06
784.99	394.06
785.172	396.11
785.353	344.91
785.535	406.35
785.716	381.78
785.897	357.2
786.079	418.64
786.26	369.49
786.441	432.97
786.623	336.72
786.804	346.96
786.985	342.86
787.167	299.86
787.348	324.43
787.529	346.96
787.71	369.49
787.891	346.96
788.073	363.34
788.254	359.25
788.435	312.14
788.616	351.06
788.797	344.91
788.978	353.1
789.159	351.06
789.34	330.58
789.522	349.01
789.703	312.14
789.884	316.24
790.065	273.23
790.246	295.76
790.427	303.95
790.607	336.72
790.788	271.19
790.969	273.23
791.15	318.29
791.331	265.04
791.512	260.95
791.693	260.95
791.874	365.39
792.054	324.43
792.235	326.48
792.416	226.13
792.597	275.28
792.778	295.76
792.958	287.57
793.139	275.28
793.32	176.98
793.5	226.13
793.681	254.8
793.862	277.33
794.042	283.47
794.223	232.27
794.404	283.47
794.584	269.14
794.765	224.08
794.945	228.18
795.126	308.05
795.306	160.59
795.487	312.14
795.667	240.47
795.848	234.32
796.028	219.99
796.209	228.18
796.389	230.23
796.57	267.09
796.75	207.7
796.93	240.47
797.111	219.99
797.291	226.13
797.471	224.08
797.652	148.31
797.832	232.27
798.012	271.19
798.192	310.1
798.373	174.93
798.553	176.98
798.733	236.37
798.913	226.13
799.093	234.32
799.274	199.51
799.454	219.99
799.634	252.75
799.814	244.56
799.994	209.75
800.174	242.51
800.354	185.17
800.534	185.17
800.714	242.51
800.894	129.88
801.074	224.08
801.254	191.31
801.434	219.99
801.614	226.13
801.794	254.8
801.974	527.18
802.154	166.74
802.334	166.74
802.514	172.88
802.693	146.26
802.873	119.64
803.053	164.69
803.233	144.21
803.413	154.45
803.592	260.95
803.772	168.79
803.952	205.65
804.131	131.92
804.311	201.55
804.491	176.98
804.67	168.79
804.85	103.25
805.03	176.98
805.209	158.55
805.389	170.83
805.568	168.79
805.748	185.17
805.928	152.4
806.107	222.03
806.287	101.2
806.466	150.36
806.646	176.98
806.825	144.21
807.004	179.03
807.184	181.07
807.363	191.31
807.543	181.07
807.722	129.88
807.901	148.31
808.081	148.31
808.26	131.92
808.439	93.01
808.619	125.78
808.798	133.97
808.977	146.26
809.156	115.54
809.336	131.92
809.515	150.36
809.694	97.11
809.873	105.3
810.052	174.93
810.231	144.21
810.411	150.36
810.59	127.83
810.769	168.79
810.948	154.45
811.127	133.97
811.306	142.16
811.485	62.29
811.664	179.03
811.843	58.2
812.022	144.21
812.201	158.55
812.38	95.06
812.559	78.68
812.737	66.39
812.916	127.83
813.095	107.35
813.274	88.92
813.453	27.48
813.632	90.96
813.811	152.4
813.989	80.72
814.168	109.4
814.347	88.92
814.526	127.83
814.704	146.26
814.883	78.68
815.062	99.16
815.24	111.44
815.419	29.52
815.598	142.16
815.776	103.25
815.955	144.21
816.133	82.77
816.312	113.49
816.49	166.74
816.669	68.44
816.847	138.07
817.026	138.07
817.204	109.4
817.383	123.73
817.561	119.64
817.74	52.05
817.918	41.81
818.097	109.4
818.275	144.21
818.453	99.16
818.632	95.06
818.81	86.87
818.988	105.3
819.167	199.51
819.345	133.97
819.523	35.67
819.701	103.25
819.879	150.36
820.058	47.96
820.236	117.59
820.414	52.05
820.592	115.54
820.77	103.25
820.948	82.77
821.127	54.1
821.305	56.15
821.483	80.72
821.661	117.59
821.839	76.63
822.017	107.35
822.195	60.24
822.373	62.29
822.551	45.91
822.729	131.92
822.907	90.96
823.085	70.48
823.262	80.72
823.44	144.21
823.618	86.87
823.796	50
823.974	45.91
824.152	58.2
824.329	35.67
824.507	136.02
824.685	80.72
824.863	95.06
825.04	93.01
825.218	99.16
825.396	45.91
825.574	82.77
825.751	66.39
825.929	43.86
826.107	43.86
826.284	101.2
826.462	156.5
826.639	60.24
826.817	52.05
826.994	56.15
827.172	58.2
827.349	101.2
827.527	21.33
827.704	13.14
827.882	76.63
828.059	-1.19
828.237	35.67
828.414	80.72
828.591	33.62
828.769	52.05
828.946	45.91
829.124	140.12
829.301	117.59
829.478	103.25
829.655	131.92
829.833	58.2
830.01	19.29
830.187	82.77
830.364	47.96
830.542	172.88
830.719	39.76
830.896	50
831.073	21.33
831.25	62.29
831.427	66.39
831.604	54.1
831.782	41.81
831.959	88.92
832.136	95.06
832.313	35.67
832.49	64.34
832.667	109.4
832.844	11.09
833.021	33.62
833.198	58.2
833.374	88.92
833.551	47.96
833.728	33.62
833.905	107.35
834.082	15.19
834.259	66.39
834.436	82.77
834.612	105.3
834.789	78.68
834.966	86.87
835.143	45.91
835.319	2.9
835.496	4.95
835.673	99.16
835.85	156.5
836.026	119.64
836.203	70.48
836.38	70.48
836.556	45.91
836.733	7
836.909	68.44
837.086	68.44
837.262	27.48
837.439	9.05
837.616	15.19
837.792	80.72
837.968	11.09
838.145	80.72
838.321	11.09
838.498	41.81
838.674	74.58
838.851	17.24
839.027	72.53
839.203	80.72
839.38	117.59
839.556	2.9
839.732	52.05
839.909	60.24
840.085	52.05
840.261	68.44
840.437	-11.43
840.614	-3.24
840.79	101.2
840.966	25.43
841.142	45.91
841.318	64.34
841.494	90.96
841.671	33.62
841.847	2.9
842.023	80.72
842.199	58.2
842.375	15.19
842.551	-1.19
842.727	45.91
842.903	43.86
843.079	138.07
843.255	76.63
843.431	15.19
843.607	64.34
843.783	15.19
843.959	43.86
844.134	58.2
844.31	142.16
844.486	11.09
844.662	9.05
844.838	43.86
845.013	27.48
845.189	-15.53
845.365	-15.53
845.541	78.68
845.716	58.2
845.892	140.12
846.068	41.81
846.244	25.43
846.419	78.68
846.595	62.29
846.77	60.24
846.946	78.68
847.122	97.11
847.297	11.09
847.473	125.78
847.648	-46.25
847.824	27.48
847.999	2.9
848.175	17.24
848.35	47.96
848.526	90.96
848.701	19.29
848.876	62.29
849.052	43.86
849.227	117.59
849.403	-7.34
849.578	64.34
849.753	76.63
849.929	25.43
850.104	52.05
850.279	56.15
850.454	29.52
850.63	9.05
850.805	9.05
850.98	-13.48
851.155	0.85
851.33	13.14
851.505	19.29
851.681	66.39
851.856	-36.01
852.031	13.14
852.206	43.86
852.381	95.06
852.556	25.43
852.731	72.53
852.906	-25.77
853.081	84.82
853.256	84.82
853.431	15.19
853.606	-9.39
853.781	68.44
853.956	33.62
854.131	33.62
854.305	4.95
854.48	27.48
854.655	2.9
854.83	64.34
855.005	-9.39
855.18	19.29
855.354	-11.43
855.529	80.72
855.704	-15.53
855.879	0.85
856.053	31.57
856.228	-31.91
856.403	-19.63
856.577	41.81
856.752	33.62
856.926	45.91
857.101	37.72
857.276	136.02
857.45	29.52
857.625	101.2
857.799	-3.24
857.974	9.05
858.148	-3.24
858.323	17.24
858.497	-11.43
858.672	66.39
858.846	-3.24
859.02	111.44
859.195	4.95
859.369	-21.67
859.543	-29.87
859.718	47.96
859.892	62.29
860.066	72.53
860.241	33.62
860.415	-13.48
860.589	7
860.763	-27.82
860.938	9.05
861.112	60.24
861.286	-5.29
861.46	-7.34
861.634	-44.2
861.808	-19.63
861.982	-9.39
862.157	-15.53
862.331	72.53
862.505	7
862.679	27.48
862.853	52.05
863.027	4.95
863.201	72.53
863.375	-7.34
863.549	45.91
863.722	31.57
863.896	37.72
864.07	-5.29
864.244	109.4
864.418	64.34
864.592	60.24
864.766	23.38
864.939	-56.49
865.113	-3.24
865.287	54.1
865.461	-46.25
865.634	-42.15
865.808	-13.48
865.982	45.91
866.156	7
866.329	-21.67
866.503	-29.87
866.676	-11.43
866.85	-19.63
867.024	13.14
867.197	19.29
867.371	-52.39
867.544	13.14
867.718	2.9
867.891	148.31
868.065	-72.87
868.238	-7.34
868.412	-17.58
868.585	0.85
868.759	4.95
868.932	50
869.105	0.85
869.279	-25.77
869.452	-3.24
869.625	-31.91
869.799	54.1
869.972	-11.43
870.145	-23.72
870.319	-15.53
870.492	43.86
870.665	19.29
870.838	-44.2
871.011	7
871.185	62.29
871.358	68.44
871.531	-13.48
871.704	21.33
871.877	27.48
872.05	2.9
872.223	-21.67
872.396	-9.39
872.569	-13.48
872.742	27.48
872.915	43.86
873.088	19.29
873.261	-3.24
873.434	60.24
873.607	2.9
873.78	68.44
873.953	-7.34
874.126	62.29
874.299	60.24
874.471	-58.54
874.644	27.48
874.817	45.91
874.99	41.81
875.163	13.14
875.335	13.14
875.508	-27.82
875.681	-29.87
875.853	33.62
876.026	-19.63
876.199	4.95
876.371	37.72
876.544	70.48
876.717	21.33
876.889	23.38
877.062	39.76
877.234	-76.97
877.407	23.38
877.579	33.62
877.752	31.57
877.924	-29.87
878.097	37.72
878.269	-54.44
878.442	33.62
878.614	-11.43
878.786	-36.01
878.959	-1.19
879.131	23.38
879.303	-3.24
879.476	27.48
879.648	25.43
879.82	25.43
879.993	13.14
880.165	23.38
880.337	-13.48
880.509	41.81
880.681	-23.72
880.854	-17.58
881.026	25.43
881.198	-1.19
881.37	-29.87
881.542	45.91
881.714	-19.63
881.886	4.95
882.058	50
882.23	-21.67
882.402	-29.87
882.574	9.05
882.746	47.96
882.918	-46.25
883.09	9.05
883.262	29.52
883.434	-3.24
883.606	37.72
883.778	-29.87
883.95	58.2
884.122	-7.34
884.293	-46.25
884.465	-31.91
884.637	-21.67
884.809	-29.87
884.98	56.15
885.152	82.77
885.324	13.14
885.496	23.38
885.667	37.72
885.839	-23.72
886.011	27.48
886.182	35.67
886.354	-76.97
886.525	19.29
886.697	-3.24
886.869	35.67
887.04	52.05
887.212	0.85
887.383	41.81
887.555	41.81
887.726	7
887.897	-48.3
888.069	60.24
888.24	54.1
888.412	9.05
888.583	9.05
888.754	52.05
888.926	-15.53
889.097	-3.24
889.268	-29.87
889.44	-42.15
889.611	-68.78
889.782	-19.63
889.953	-23.72
890.125	80.72
890.296	58.2
890.467	-66.73
890.638	-29.87
890.809	-48.3
890.98	-13.48
891.151	50
891.323	23.38
891.494	0.85
891.665	56.15
891.836	35.67
892.007	-58.54
892.178	-13.48
892.349	-23.72
892.52	-3.24
892.691	-9.39
892.862	13.14
893.032	-13.48
893.203	-7.34
893.374	-95.4
893.545	17.24
893.716	35.67
893.887	39.76
894.057	-3.24
894.228	35.67
894.399	-54.44
894.57	29.52
894.74	-27.82
894.911	-87.21
895.082	-13.48
895.253	13.14
895.423	45.91
895.594	2.9
895.764	9.05
895.935	-62.63
896.106	17.24
896.276	45.91
896.447	2.9
896.617	-68.78
896.788	58.2
896.958	4.95
897.129	11.09
897.299	-3.24
897.47	-7.34
897.64	41.81
897.81	-40.11
897.981	2.9
898.151	9.05
898.322	-5.29
898.492	-17.58
898.662	29.52
898.832	0.85
899.003	17.24
899.173	0.85
899.343	33.62
899.513	-5.29
