Data from USB4F104151__258__11-11-49-608.txt Node

Date: Wed Mar 12 11:11:49 EDT 2025
User: louis
Spectrometer: USB4F10415
Trigger mode: 4
Integration Time (sec): 2.000000E-2
Scans to average: 1
Electric dark correction enabled: true
Nonlinearity correction enabled: false
Boxcar width: 0
XAxis mode: Wavelengths
Number of Pixels in Spectrum: 3648
>>>>>Begin Spectral Data<<<<<
178.204	-10.07
178.424	-10.07
178.644	-10.07
178.864	-65.36
179.084	-42.84
179.304	45.23
179.524	10.41
179.744	-24.4
179.964	-18.26
180.184	39.08
180.404	-26.45
180.624	-3.93
180.844	57.51
181.064	-46.93
181.283	-10.07
181.503	-46.93
181.723	24.75
181.943	-34.64
182.163	47.27
182.383	24.75
182.602	49.32
182.822	94.38
183.042	37.03
183.262	75.95
183.482	57.51
183.701	69.8
183.921	20.65
184.141	22.7
184.361	24.75
184.58	-12.12
184.8	28.84
185.02	4.27
185.239	16.55
185.459	-61.27
185.679	45.23
185.898	-65.36
186.118	18.6
186.338	100.52
186.557	12.46
186.777	32.94
186.997	67.75
187.216	49.32
187.436	53.42
187.655	28.84
187.875	37.03
188.095	24.75
188.314	2.22
188.534	131.24
188.753	18.6
188.973	41.13
189.192	55.47
189.412	45.23
189.631	22.7
189.851	16.55
190.07	104.62
190.29	39.08
190.509	-14.17
190.729	-22.36
190.948	-40.79
191.168	118.95
191.387	104.62
191.607	24.75
191.826	16.55
192.045	-14.17
192.265	88.23
192.484	-10.07
192.704	37.03
192.923	-44.88
193.142	57.51
193.362	30.89
193.581	67.75
193.8	49.32
194.02	41.13
194.239	-42.84
194.458	88.23
194.678	55.47
194.897	71.85
195.116	-42.84
195.335	-8.02
195.555	51.37
195.774	30.89
195.993	88.23
196.212	-12.12
196.432	6.31
196.651	39.08
196.87	-8.02
197.089	88.23
197.308	-20.31
197.528	94.38
197.747	28.84
197.966	90.28
198.185	8.36
198.404	20.65
198.623	59.56
198.842	61.61
199.062	4.27
199.281	0.17
199.5	51.37
199.719	26.79
199.938	-3.93
200.157	-32.6
200.376	-42.84
200.595	-22.36
200.814	84.14
201.033	-24.4
201.252	-18.26
201.471	73.9
201.69	34.99
201.909	80.04
202.128	37.03
202.347	90.28
202.566	34.99
202.785	51.37
203.004	61.61
203.223	106.67
203.442	8.36
203.661	55.47
203.879	37.03
204.098	86.19
204.317	32.94
204.536	63.66
204.755	-32.6
204.974	32.94
205.193	-8.02
205.411	133.29
205.63	37.03
205.849	67.75
206.068	-30.55
206.287	84.14
206.505	71.85
206.724	65.71
206.943	28.84
207.162	8.36
207.381	34.99
207.599	88.23
207.818	10.41
208.037	-63.32
208.255	-26.45
208.474	16.55
208.693	18.6
208.911	49.32
209.13	-44.88
209.349	49.32
209.567	-3.93
209.786	32.94
210.005	24.75
210.223	82.09
210.442	8.36
210.661	98.47
210.879	28.84
211.098	69.8
211.316	43.18
211.535	80.04
211.753	71.85
211.972	8.36
212.191	94.38
212.409	12.46
212.628	59.56
212.846	41.13
213.065	51.37
213.283	2.22
213.502	-3.93
213.72	6.31
213.938	6.31
214.157	-44.88
214.375	53.42
214.594	67.75
214.812	133.29
215.031	73.9
215.249	-3.93
215.467	-1.88
215.686	82.09
215.904	57.51
216.122	32.94
216.341	22.7
216.559	47.27
216.778	-10.07
216.996	145.58
217.214	49.32
217.432	16.55
217.651	20.65
217.869	82.09
218.087	-36.69
218.306	-8.02
218.524	86.19
218.742	12.46
218.96	90.28
219.179	-1.88
219.397	39.08
219.615	63.66
219.833	75.95
220.051	-3.93
220.27	8.36
220.488	16.55
220.706	12.46
220.924	-12.12
221.142	37.03
221.36	24.75
221.578	45.23
221.796	104.62
222.015	24.75
222.233	-42.84
222.451	71.85
222.669	0.17
222.887	127.14
223.105	32.94
223.323	10.41
223.541	34.99
223.759	61.61
223.977	20.65
224.195	-16.21
224.413	106.67
224.631	0.17
224.849	30.89
225.067	125.1
225.285	30.89
225.503	-8.02
225.721	30.89
225.939	51.37
226.157	37.03
226.375	24.75
226.592	73.9
226.81	-26.45
227.028	147.62
227.246	32.94
227.464	4.27
227.682	39.08
227.9	65.71
228.117	47.27
228.335	94.38
228.553	16.55
228.771	-12.12
228.989	57.51
229.206	-12.12
229.424	-26.45
229.642	34.99
229.86	-57.17
230.077	43.18
230.295	37.03
230.513	10.41
230.731	180.39
230.948	39.08
231.166	55.47
231.384	14.51
231.601	-26.45
231.819	32.94
232.037	-67.41
232.254	-26.45
232.472	61.61
232.689	-18.26
232.907	57.51
233.125	59.56
233.342	20.65
233.56	47.27
233.777	22.7
233.995	61.61
234.213	92.33
234.43	57.51
234.648	-8.02
234.865	41.13
235.083	-67.41
235.3	45.23
235.518	12.46
235.735	37.03
235.953	53.42
236.17	6.31
236.388	39.08
236.605	8.36
236.822	14.51
237.04	18.6
237.257	0.17
237.475	-18.26
237.692	12.46
237.909	-40.79
238.127	69.8
238.344	75.95
238.562	-24.4
238.779	80.04
238.996	37.03
239.214	34.99
239.431	8.36
239.648	69.8
239.865	65.71
240.083	-24.4
240.3	73.9
240.517	57.51
240.735	-8.02
240.952	28.84
241.169	90.28
241.386	41.13
241.603	86.19
241.821	80.04
242.038	22.7
242.255	-14.17
242.472	-30.55
242.689	45.23
242.907	4.27
243.124	-18.26
243.341	2.22
243.558	-61.27
243.775	-26.45
243.992	6.31
244.209	16.55
244.426	28.84
244.643	28.84
244.86	51.37
245.078	24.75
245.295	4.27
245.512	4.27
245.729	-40.79
245.946	110.76
246.163	37.03
246.38	24.75
246.597	-36.69
246.814	34.99
247.031	41.13
247.248	41.13
247.464	55.47
247.681	22.7
247.898	-3.93
248.115	12.46
248.332	0.17
248.549	55.47
248.766	32.94
248.983	20.65
249.2	77.99
249.417	53.42
249.633	100.52
249.85	102.57
250.067	32.94
250.284	57.51
250.501	28.84
250.717	116.9
250.934	67.75
251.151	100.52
251.368	-14.17
251.585	57.51
251.801	39.08
252.018	39.08
252.235	30.89
252.451	20.65
252.668	30.89
252.885	28.84
253.102	24.75
253.318	69.8
253.535	18.6
253.752	-3.93
253.968	82.09
254.185	34.99
254.401	84.14
254.618	-1.88
254.835	-20.31
255.051	61.61
255.268	12.46
255.484	6.31
255.701	14.51
255.917	-10.07
256.134	-46.93
256.351	39.08
256.567	28.84
256.784	82.09
257	-14.17
257.217	61.61
257.433	37.03
257.65	-14.17
257.866	80.04
258.082	4.27
258.299	20.65
258.515	96.43
258.732	37.03
258.948	65.71
259.165	63.66
259.381	-16.21
259.597	20.65
259.814	61.61
260.03	32.94
260.246	39.08
260.463	16.55
260.679	69.8
260.895	41.13
261.112	84.14
261.328	12.46
261.544	-12.12
261.761	90.28
261.977	-12.12
262.193	-12.12
262.409	0.17
262.626	37.03
262.842	28.84
263.058	-8.02
263.274	57.51
263.49	41.13
263.707	-3.93
263.923	45.23
264.139	45.23
264.355	26.79
264.571	110.76
264.787	28.84
265.004	61.61
265.22	45.23
265.436	84.14
265.652	24.75
265.868	69.8
266.084	-24.4
266.3	28.84
266.516	16.55
266.732	51.37
266.948	34.99
267.164	53.42
267.38	6.31
267.596	75.95
267.812	45.23
268.028	-32.6
268.244	-44.88
268.46	24.75
268.676	34.99
268.892	2.22
269.108	49.32
269.324	51.37
269.54	20.65
269.756	121
269.972	-1.88
270.188	30.89
270.403	-55.12
270.619	-16.21
270.835	14.51
271.051	61.61
271.267	6.31
271.483	75.95
271.698	49.32
271.914	-3.93
272.13	10.41
272.346	-38.74
272.562	-28.5
272.777	75.95
272.993	8.36
273.209	53.42
273.425	20.65
273.64	61.61
273.856	0.17
274.072	67.75
274.287	32.94
274.503	67.75
274.719	0.17
274.934	96.43
275.15	-42.84
275.366	28.84
275.581	28.84
275.797	2.22
276.012	10.41
276.228	-40.79
276.444	88.23
276.659	32.94
276.875	37.03
277.09	94.38
277.306	12.46
277.521	90.28
277.737	39.08
277.952	-1.88
278.168	16.55
278.383	65.71
278.599	20.65
278.814	57.51
279.03	41.13
279.245	75.95
279.461	30.89
279.676	30.89
279.892	47.27
280.107	41.13
280.322	-30.55
280.538	65.71
280.753	37.03
280.969	-3.93
281.184	28.84
281.399	71.85
281.615	43.18
281.83	14.51
282.045	59.56
282.26	-5.97
282.476	28.84
282.691	118.95
282.906	69.8
283.122	53.42
283.337	-14.17
283.552	69.8
283.767	22.7
283.983	80.04
284.198	12.46
284.413	-8.02
284.628	-16.21
284.843	53.42
285.058	37.03
285.274	65.71
285.489	2.22
285.704	51.37
285.919	-3.93
286.134	-40.79
286.349	53.42
286.564	14.51
286.779	-3.93
286.995	49.32
287.21	34.99
287.425	67.75
287.64	98.47
287.855	32.94
288.07	-12.12
288.285	69.8
288.5	53.42
288.715	84.14
288.93	10.41
289.145	30.89
289.36	-1.88
289.575	-40.79
289.79	20.65
290.004	61.61
290.219	39.08
290.434	30.89
290.649	28.84
290.864	98.47
291.079	73.9
291.294	45.23
291.509	-48.98
291.724	55.47
291.938	45.23
292.153	26.79
292.368	-28.5
292.583	28.84
292.798	26.79
293.012	-16.21
293.227	84.14
293.442	-26.45
293.657	39.08
293.871	14.51
294.086	24.75
294.301	-1.88
294.516	47.27
294.73	110.76
294.945	-28.5
295.16	51.37
295.374	8.36
295.589	39.08
295.804	-44.88
296.018	55.47
296.233	88.23
296.447	-1.88
296.662	102.57
296.877	47.27
297.091	121
297.306	108.71
297.52	41.13
297.735	28.84
297.949	90.28
298.164	-57.17
298.378	-16.21
298.593	41.13
298.807	61.61
299.022	12.46
299.236	55.47
299.451	8.36
299.665	-8.02
299.88	-18.26
300.094	12.46
300.309	90.28
300.523	-1.88
300.737	-8.02
300.952	63.66
301.166	106.67
301.381	-36.69
301.595	-53.08
301.809	12.46
302.024	-36.69
302.238	28.84
302.452	121
302.667	30.89
302.881	86.19
303.095	57.51
303.309	45.23
303.524	-10.07
303.738	61.61
303.952	-53.08
304.166	59.56
304.381	-16.21
304.595	51.37
304.809	22.7
305.023	24.75
305.237	118.95
305.452	106.67
305.666	26.79
305.88	43.18
306.094	65.71
306.308	39.08
306.522	45.23
306.736	-48.98
306.95	0.17
307.164	59.56
307.379	69.8
307.593	92.33
307.807	18.6
308.021	8.36
308.235	-5.97
308.449	88.23
308.663	-12.12
308.877	26.79
309.091	102.57
309.305	65.71
309.519	18.6
309.733	51.37
309.947	2.22
310.161	-1.88
310.374	88.23
310.588	67.75
310.802	69.8
311.016	-34.64
311.23	-30.55
311.444	-3.93
311.658	16.55
311.872	45.23
312.085	71.85
312.299	18.6
312.513	80.04
312.727	32.94
312.941	43.18
313.154	53.42
313.368	20.65
313.582	47.27
313.796	61.61
314.009	39.08
314.223	20.65
314.437	41.13
314.651	12.46
314.864	-10.07
315.078	-14.17
315.292	30.89
315.505	6.31
315.719	45.23
315.933	92.33
316.146	4.27
316.36	-1.88
316.573	41.13
316.787	6.31
317.001	108.71
317.214	12.46
317.428	32.94
317.641	-32.6
317.855	65.71
318.068	75.95
318.282	47.27
318.495	51.37
318.709	-30.55
318.922	-20.31
319.136	8.36
319.349	32.94
319.563	39.08
319.776	98.47
319.99	30.89
320.203	61.61
320.417	24.75
320.63	69.8
320.843	75.95
321.057	34.99
321.27	-48.98
321.483	55.47
321.697	69.8
321.91	30.89
322.124	-1.88
322.337	10.41
322.55	86.19
322.763	43.18
322.977	24.75
323.19	-30.55
323.403	65.71
323.617	37.03
323.83	51.37
324.043	63.66
324.256	24.75
324.469	43.18
324.683	84.14
324.896	65.71
325.109	55.47
325.322	-3.93
325.535	110.76
325.748	67.75
325.962	-8.02
326.175	24.75
326.388	6.31
326.601	26.79
326.814	147.62
327.027	45.23
327.24	114.86
327.453	49.32
327.666	49.32
327.879	41.13
328.092	77.99
328.305	94.38
328.518	16.55
328.731	16.55
328.944	51.37
329.157	24.75
329.37	39.08
329.583	55.47
329.796	141.48
330.009	-30.55
330.222	65.71
330.435	34.99
330.648	47.27
330.861	71.85
331.073	-8.02
331.286	28.84
331.499	-32.6
331.712	34.99
331.925	39.08
332.138	10.41
332.35	106.67
332.563	63.66
332.776	82.09
332.989	-30.55
333.202	32.94
333.414	53.42
333.627	26.79
333.84	41.13
334.053	-61.27
334.265	28.84
334.478	20.65
334.691	75.95
334.903	75.95
335.116	12.46
335.329	2.22
335.541	30.89
335.754	28.84
335.966	6.31
336.179	59.56
336.392	37.03
336.604	80.04
336.817	4.27
337.029	39.08
337.242	-59.22
337.454	71.85
337.667	73.9
337.88	63.66
338.092	53.42
338.305	96.43
338.517	24.75
338.729	20.65
338.942	104.62
339.154	-1.88
339.367	92.33
339.579	34.99
339.792	-28.5
340.004	51.37
340.217	0.17
340.429	43.18
340.641	-5.97
340.854	129.19
341.066	32.94
341.278	67.75
341.491	16.55
341.703	47.27
341.915	12.46
342.128	84.14
342.34	-75.6
342.552	30.89
342.764	16.55
342.977	71.85
343.189	63.66
343.401	14.51
343.613	39.08
343.826	53.42
344.038	55.47
344.25	-38.74
344.462	73.9
344.674	-5.97
344.886	0.17
345.099	49.32
345.311	28.84
345.523	22.7
345.735	47.27
345.947	67.75
346.159	-10.07
346.371	18.6
346.583	24.75
346.795	112.81
347.007	-12.12
347.219	28.84
347.431	67.75
347.643	90.28
347.855	-20.31
348.067	51.37
348.279	67.75
348.491	-30.55
348.703	80.04
348.915	-3.93
349.127	28.84
349.339	18.6
349.551	57.51
349.763	63.66
349.975	110.76
350.187	55.47
350.399	67.75
350.61	12.46
350.822	49.32
351.034	-5.97
351.246	34.99
351.458	4.27
351.669	45.23
351.881	-44.88
352.093	26.79
352.305	108.71
352.517	37.03
352.728	49.32
352.94	32.94
353.152	53.42
353.363	45.23
353.575	26.79
353.787	100.52
353.999	65.71
354.21	57.51
354.422	-8.02
354.633	51.37
354.845	16.55
355.057	-28.5
355.268	57.51
355.48	73.9
355.692	73.9
355.903	20.65
356.115	-20.31
356.326	16.55
356.538	4.27
356.749	63.66
356.961	77.99
357.172	51.37
357.384	4.27
357.595	202.92
357.807	61.61
358.018	2.22
358.23	77.99
358.441	94.38
358.653	4.27
358.864	8.36
359.075	-18.26
359.287	6.31
359.498	77.99
359.709	43.18
359.921	39.08
360.132	71.85
360.344	20.65
360.555	-3.93
360.766	98.47
360.977	-42.84
361.189	-24.4
361.4	-22.36
361.611	28.84
361.823	110.76
362.034	88.23
362.245	77.99
362.456	71.85
362.667	24.75
362.879	114.86
363.09	82.09
363.301	10.41
363.512	30.89
363.723	55.47
363.935	65.71
364.146	41.13
364.357	-10.07
364.568	61.61
364.779	-14.17
364.99	80.04
365.201	86.19
365.412	118.95
365.623	16.55
365.834	61.61
366.045	18.6
366.256	49.32
366.467	-20.31
366.678	104.62
366.889	80.04
367.1	67.75
367.311	84.14
367.522	18.6
367.733	71.85
367.944	82.09
368.155	47.27
368.366	32.94
368.577	53.42
368.788	10.41
368.999	98.47
369.209	65.71
369.42	114.86
369.631	108.71
369.842	86.19
370.053	61.61
370.264	-28.5
370.474	90.28
370.685	53.42
370.896	20.65
371.107	114.86
371.317	20.65
371.528	59.56
371.739	92.33
371.95	82.09
372.16	75.95
372.371	67.75
372.582	53.42
372.792	57.51
373.003	0.17
373.214	43.18
373.424	39.08
373.635	63.66
373.846	104.62
374.056	84.14
374.267	16.55
374.477	26.79
374.688	-14.17
374.898	32.94
375.109	88.23
375.319	4.27
375.53	112.81
375.74	73.9
375.951	-8.02
376.161	59.56
376.372	75.95
376.582	41.13
376.793	37.03
377.003	41.13
377.214	32.94
377.424	-3.93
377.635	63.66
377.845	6.31
378.055	98.47
378.266	-5.97
378.476	94.38
378.686	37.03
378.897	37.03
379.107	61.61
379.317	67.75
379.528	-12.12
379.738	10.41
379.948	28.84
380.158	106.67
380.369	28.84
380.579	49.32
380.789	-3.93
380.999	90.28
381.21	41.13
381.42	61.61
381.63	67.75
381.84	49.32
382.05	69.8
382.261	24.75
382.471	67.75
382.681	45.23
382.891	61.61
383.101	37.03
383.311	37.03
383.521	34.99
383.731	110.76
383.941	12.46
384.151	67.75
384.361	92.33
384.571	-3.93
384.781	94.38
384.991	77.99
385.201	57.51
385.411	30.89
385.621	8.36
385.831	90.28
386.041	80.04
386.251	12.46
386.461	51.37
386.671	37.03
386.881	92.33
387.091	61.61
387.301	96.43
387.511	55.47
387.72	34.99
387.93	84.14
388.14	18.6
388.35	92.33
388.56	18.6
388.769	43.18
388.979	55.47
389.189	45.23
389.399	28.84
389.609	69.8
389.818	12.46
390.028	57.51
390.238	75.95
390.447	65.71
390.657	80.04
390.867	49.32
391.076	-36.69
391.286	92.33
391.496	110.76
391.705	102.57
391.915	20.65
392.125	39.08
392.334	-24.4
392.544	82.09
392.753	92.33
392.963	24.75
393.172	18.6
393.382	80.04
393.591	80.04
393.801	45.23
394.01	90.28
394.22	110.76
394.429	45.23
394.639	102.57
394.848	69.8
395.058	-5.97
395.267	39.08
395.477	98.47
395.686	63.66
395.895	65.71
396.105	178.34
396.314	75.95
396.524	47.27
396.733	8.36
396.942	96.43
397.152	90.28
397.361	139.43
397.57	26.79
397.78	65.71
397.989	84.14
398.198	65.71
398.407	18.6
398.617	168.1
398.826	100.52
399.035	92.33
399.244	65.71
399.453	92.33
399.663	37.03
399.872	86.19
400.081	77.99
400.29	45.23
400.499	45.23
400.708	174.25
400.917	86.19
401.127	-3.93
401.336	47.27
401.545	96.43
401.754	123.05
401.963	114.86
402.172	-5.97
402.381	69.8
402.59	18.6
402.799	86.19
403.008	149.67
403.217	118.95
403.426	90.28
403.635	69.8
403.844	121
404.053	106.67
404.262	118.95
404.471	116.9
404.68	100.52
404.888	155.82
405.097	63.66
405.306	153.77
405.515	141.48
405.724	139.43
405.933	69.8
406.142	123.05
406.35	159.91
406.559	118.95
406.768	186.54
406.977	96.43
407.185	90.28
407.394	217.26
407.603	180.39
407.812	159.91
408.02	174.25
408.229	180.39
408.438	116.9
408.646	180.39
408.855	161.96
409.064	223.4
409.272	104.62
409.481	245.93
409.69	133.29
409.898	198.82
410.107	215.21
410.315	213.16
410.524	174.25
410.733	278.69
410.941	256.17
411.15	327.85
411.358	356.52
411.567	235.69
411.775	227.5
411.984	237.74
412.192	278.69
412.401	313.51
412.609	290.98
412.818	305.32
413.026	336.04
413.234	266.41
413.443	354.47
413.651	391.33
413.86	383.14
414.068	475.3
414.276	352.42
414.485	336.04
414.693	440.48
414.901	508.07
415.11	438.44
415.318	463.01
415.526	438.44
415.734	538.79
415.943	538.79
416.151	538.79
416.359	573.6
416.567	542.88
416.776	632.99
416.984	635.04
417.192	600.23
417.4	618.66
417.608	653.47
417.817	725.15
418.025	719.01
418.233	759.97
418.441	725.15
418.649	821.41
418.857	874.65
419.065	766.11
419.273	884.89
419.481	944.28
419.689	991.39
419.897	925.85
420.105	1036.44
420.313	929.95
420.521	1044.63
420.729	1132.7
420.937	1120.41
421.145	1056.92
421.353	1249.43
421.561	1196.18
421.769	1317.01
421.977	1347.73
422.185	1370.26
422.393	1331.35
422.601	1460.37
422.809	1521.81
423.017	1470.61
423.224	1593.49
423.432	1708.18
423.64	1628.31
423.848	1738.9
424.056	1634.45
424.263	1800.34
424.471	1927.31
424.679	1908.88
424.887	2015.37
425.094	2007.18
425.302	2064.52
425.51	2121.87
425.718	2142.35
425.925	2293.9
426.133	2386.05
426.341	2527.36
426.548	2517.12
426.756	2611.33
426.964	2662.53
427.171	2668.67
427.379	2756.74
427.586	2965.63
427.794	2941.05
428.001	3076.22
428.209	3242.11
428.417	3225.72
428.624	3430.52
428.832	3305.59
429.039	3467.38
429.247	3258.49
429.454	3756.15
429.662	3842.16
429.869	3702.9
430.076	3989.61
430.284	3639.41
430.491	4032.62
430.699	4075.63
430.906	4159.6
431.114	4200.55
431.321	4477.03
431.528	4415.59
431.736	4767.84
431.943	4989.02
432.15	4726.88
432.358	4935.78
432.565	5199.96
432.772	5208.16
432.979	5617.75
433.187	5515.35
433.394	5568.6
433.601	5812.31
433.808	5849.17
434.016	5849.17
434.223	6232.14
434.43	6504.52
434.637	6477.9
434.844	6654.02
435.052	6789.19
435.259	6836.29
435.466	7020.61
435.673	6852.67
435.88	7272.51
436.087	7637.05
436.294	7551.03
436.501	7647.29
436.708	7630.9
436.915	8005.68
437.122	8155.18
437.329	8083.5
437.537	8615.98
437.743	8710.18
437.95	8558.63
438.157	9015.33
438.364	9388.06
438.571	9365.53
438.778	9347.1
438.985	10237.97
439.192	9777.17
439.399	10018.83
439.606	9828.37
439.813	10403.85
440.02	11077.63
440.227	10868.74
440.433	10649.61
440.64	11218.94
440.847	10958.85
441.054	11321.34
441.261	11978.74
441.467	11886.58
441.674	12265.46
441.881	12402.67
442.088	12503.02
442.294	12199.92
442.501	12617.71
442.708	13103.07
442.914	13647.83
443.121	14155.73
443.328	13625.31
443.534	14692.3
443.741	14215.12
443.948	14157.78
444.154	15282.11
444.361	14979.01
444.568	15308.74
444.774	15007.69
444.981	15112.13
445.187	15871.93
445.394	16342.96
445.6	16068.53
445.807	17641.37
446.013	16912.3
446.22	17401.76
446.426	17936.28
446.633	18112.41
446.839	18560.91
447.046	17883.03
447.252	18868.11
447.459	18810.76
447.665	18864.01
447.871	19392.39
448.078	20346.74
448.284	19632
448.491	19937.15
448.697	20785.01
448.903	21133.16
449.11	21124.97
449.316	20846.44
449.522	21340.01
449.728	21858.14
449.935	22040.41
450.141	21735.26
450.347	22357.85
450.553	21620.58
450.76	21919.58
450.966	22574.93
451.172	22081.37
451.378	22679.38
451.584	22390.61
451.791	23107.4
451.997	22863.69
452.203	23101.26
452.409	23127.88
452.615	23306.06
452.821	22241.11
453.027	22151
453.233	22933.32
453.44	22253.4
453.646	22282.07
453.852	22583.12
454.058	22777.68
454.264	21989.21
454.47	22656.85
454.676	22073.18
454.882	22634.32
455.088	20735.85
455.294	21127.02
455.5	21086.06
455.705	21653.34
455.911	20705.13
456.117	20313.97
456.323	20107.13
456.529	18562.96
456.735	19920.76
456.941	19208.07
457.147	18845.58
457.352	18483.09
457.558	17915.8
457.764	18100.12
457.97	17782.68
458.176	17428.38
458.381	17373.09
458.587	16619.44
458.793	16252.85
458.999	15919.03
459.204	16783.27
459.41	16545.71
459.616	15155.14
459.821	15306.69
460.027	14987.21
460.233	14800.84
460.438	14231.51
460.644	14456.78
460.85	13684.7
461.055	13387.74
461.261	13445.09
461.466	12156.91
461.672	12118
461.878	12822.5
462.083	11960.31
462.289	11950.07
462.494	11667.45
462.7	11524.09
462.905	10921.99
463.111	11139.07
463.316	11237.38
463.522	11380.73
463.727	11120.64
463.932	10948.61
464.138	10971.14
464.343	11130.88
464.549	10713.1
464.754	10971.14
464.959	10995.71
465.165	10915.84
465.37	10450.96
465.575	10231.82
465.781	10299.41
465.986	10618.89
466.191	10184.72
466.397	10090.51
466.602	9678.87
466.807	10145.81
467.012	9930.77
467.218	9725.97
467.423	9723.93
467.628	9967.63
467.833	10258.45
468.038	9998.35
468.244	9351.2
468.449	9867.28
468.654	9648.15
468.859	9666.58
469.064	9562.14
469.269	9156.64
469.474	9109.54
469.679	9408.54
469.885	9089.06
470.09	9080.86
470.295	9240.61
470.5	9103.39
470.705	9246.75
470.91	9000.99
471.115	8798.24
471.32	8835.11
471.525	8714.28
471.73	8564.78
471.935	8677.41
472.139	8194.09
472.344	8321.07
472.549	8200.24
472.754	8333.36
472.959	7991.34
473.164	7835.7
473.369	7739.44
473.574	8097.84
473.778	7899.19
473.983	8046.64
474.188	7819.32
474.393	7333.95
474.598	7530.55
474.802	7370.81
475.007	7487.54
475.212	7329.85
475.417	7131.2
475.621	7120.96
475.826	7157.82
476.031	7135.29
476.235	6944.83
476.44	6791.24
476.645	6733.89
476.849	6879.3
477.054	6832.19
477.259	6697.03
477.463	6645.83
477.668	6457.42
477.872	6731.84
478.077	6371.4
478.282	6414.41
478.486	6443.08
478.691	6361.16
478.895	6160.46
479.1	6254.67
479.304	6193.23
479.509	6053.97
479.713	6277.19
479.918	5980.24
480.122	5988.43
480.326	6072.4
480.531	6004.82
480.735	5959.76
480.94	5843.03
481.144	6133.84
481.348	5802.07
481.553	5617.75
481.757	5707.86
481.961	5795.92
482.166	6025.29
482.37	5759.06
482.574	5787.73
482.778	5656.66
482.983	5904.46
483.187	5656.66
483.391	5836.88
483.595	5587.03
483.8	5664.85
484.004	5650.52
484.208	5728.34
484.412	5613.65
484.616	5816.4
484.821	5699.67
485.025	5623.89
485.229	5705.81
485.433	5763.15
485.637	5759.06
485.841	5556.31
486.045	5638.23
486.249	5857.36
486.453	5722.2
486.657	5806.16
486.861	5851.22
487.065	5597.27
487.269	5752.91
487.473	5494.87
487.677	5812.31
487.881	5711.96
488.085	5793.87
488.289	5734.48
488.493	5666.9
488.697	5763.15
488.901	5769.3
489.105	5879.89
489.309	5691.48
489.512	5890.13
489.716	5883.98
489.92	5843.03
490.124	5902.42
490.328	6035.53
490.531	5779.54
490.735	5795.92
490.939	5892.18
491.143	6029.39
491.346	5955.66
491.55	6066.25
491.754	6035.53
491.958	6025.29
492.161	5908.56
492.365	6086.73
492.569	6051.92
492.772	5970
492.976	6148.17
493.18	6139.98
493.383	6193.23
493.587	6187.08
493.79	6187.08
493.994	6322.25
494.197	6240.33
494.401	6348.87
494.605	6285.39
494.808	6379.59
495.012	6496.33
495.215	6432.84
495.419	6668.36
495.622	6492.23
495.825	6840.39
496.029	6684.74
496.232	6737.99
496.436	6752.32
496.639	6965.31
496.843	6946.88
497.046	7000.13
497.249	7053.38
497.453	7049.28
497.656	7221.31
497.859	7356.47
498.063	7270.46
498.266	7262.27
498.469	7346.23
498.673	7520.31
498.876	7663.67
499.079	7481.4
499.282	7821.36
499.485	7991.34
499.689	7870.51
499.892	8048.69
500.095	7952.43
500.298	8325.16
500.501	8226.86
500.705	8476.71
500.908	8388.65
501.111	8509.48
501.314	8673.32
501.517	8568.87
501.72	8865.83
501.923	8712.23
502.126	9029.66
502.329	9146.4
502.532	9275.42
502.735	9205.79
502.938	9424.92
503.141	9510.94
503.344	9590.81
503.547	9498.65
503.75	9590.81
503.953	9752.6
504.156	9984.02
504.359	10143.76
504.562	10098.7
504.765	10264.59
504.968	10360.84
505.17	10528.78
505.373	10481.67
505.576	10653.7
505.779	10844.17
505.982	10825.73
506.185	11171.84
506.387	11104.26
506.59	11284.48
506.793	11454.46
506.996	11333.63
507.198	11632.63
507.401	11550.71
507.604	11837.43
507.807	11890.68
508.009	12074.99
508.212	12089.33
508.415	12113.91
508.617	12353.52
508.82	12795.88
509.022	12437.48
509.225	12697.58
509.428	12830.69
509.63	12883.94
509.833	13074.4
510.035	13172.71
510.238	13195.23
510.44	13359.07
510.643	13385.69
510.845	13891.54
511.048	13959.13
511.25	13742.04
511.453	13959.13
511.655	14604.24
511.858	14342.1
512.06	14548.94
512.262	14677.96
512.465	14720.97
512.667	14882.76
512.87	15232.96
513.072	15052.74
513.274	15300.55
513.477	15638.46
513.679	15595.45
513.881	15787.96
514.084	15869.88
514.286	15843.26
514.488	16162.74
514.69	16539.57
514.893	16461.74
515.095	16570.29
515.297	16902.06
515.499	17020.84
515.701	17094.57
515.904	17168.29
516.106	17184.68
516.308	17442.72
516.51	17756.06
516.712	17911.71
516.914	17856.41
517.116	18335.63
517.318	18294.68
517.52	18431.89
517.722	18485.14
517.925	18720.65
518.127	19077
518.329	19120.01
518.531	18968.46
518.733	19472.26
518.935	19507.07
519.136	19367.81
519.338	20006.78
519.54	19912.57
519.742	20254.58
519.944	20260.73
520.146	20801.39
520.348	20477.81
520.55	20561.78
520.752	20993.9
520.954	21153.64
521.155	21135.21
521.357	21575.52
521.559	21436.26
521.761	21962.59
521.963	21874.52
522.164	21765.98
522.366	22198.1
522.568	22234.97
522.77	22478.68
522.971	22550.35
523.173	22562.64
523.375	22796.11
523.576	22859.6
523.778	22452.05
523.98	23213.9
524.181	23433.03
524.383	23224.14
524.584	23435.08
524.786	23357.25
524.988	23410.5
525.189	23803.71
525.391	24051.52
525.592	24303.42
525.794	24241.98
525.995	24313.66
526.197	24471.35
526.398	24356.66
526.6	24502.07
526.801	24461.11
527.003	24995.63
527.204	24680.24
527.406	25188.14
527.607	24983.34
527.808	25440.04
528.01	25134.89
528.211	25630.5
528.412	25466.66
528.614	25216.81
528.815	25636.64
529.016	25804.58
529.218	25558.82
529.419	25720.61
529.62	25548.58
529.822	25673.51
530.023	25995.04
530.224	25859.87
530.425	26040.09
530.626	26076.96
530.828	25724.71
531.029	26644.24
531.23	26093.34
531.431	26111.77
531.632	26105.63
531.833	26179.36
532.035	26378.01
532.236	26363.67
532.437	26410.78
532.638	26081.05
532.839	26822.42
533.04	26560.28
533.241	26058.53
533.442	26775.31
533.643	26971.92
533.844	26556.18
534.045	26558.23
534.246	26441.5
534.447	26699.54
534.648	26654.48
534.849	26904.34
535.05	26634
535.251	26580.76
535.451	26736.4
535.652	26935.06
535.853	26789.65
536.054	26953.49
536.255	26662.68
536.456	26521.37
536.657	26912.53
536.857	26900.24
537.058	26871.57
537.259	27021.07
537.46	26871.57
537.66	26435.35
537.861	26859.28
538.062	26935.06
538.263	27004.69
538.463	26849.04
538.664	26806.03
538.865	27012.88
539.065	27074.32
539.266	26767.12
539.466	27109.13
539.667	26449.69
539.868	26982.16
540.068	26711.83
540.269	26988.3
540.469	27160.33
540.67	26629.91
540.87	26820.37
541.071	26816.27
541.271	27049.74
541.472	26355.48
541.672	26691.35
541.873	26455.83
542.073	26253.08
542.274	26875.66
542.474	26609.43
542.675	26408.73
542.875	26695.44
543.075	26687.25
543.276	26662.68
543.476	26873.62
543.676	26560.28
543.877	26543.89
544.077	26408.73
544.277	26701.59
544.478	26867.47
544.678	26476.31
544.878	26756.88
545.078	26801.94
545.279	26443.54
545.479	26711.83
545.679	26480.41
545.879	26529.56
546.079	26341.14
546.28	26552.09
546.48	26019.61
546.68	26670.87
546.88	26605.33
547.08	26478.36
547.28	26574.61
547.48	26459.93
547.68	26513.17
547.88	26144.54
548.081	26648.34
548.281	26578.71
548.481	26482.45
548.681	26330.9
548.881	26572.57
549.081	26464.02
549.28	26357.53
549.48	26877.71
549.68	26464.02
549.88	26691.35
550.08	26236.7
550.28	26281.75
550.48	26746.64
550.68	26388.25
550.88	26255.13
551.08	26261.27
551.279	26316.57
551.479	26165.02
551.679	26488.6
551.879	26285.85
552.079	26384.15
552.278	26052.38
552.478	26150.68
552.678	25986.85
552.878	26464.02
553.077	26103.58
553.277	26185.5
553.477	26713.88
553.676	26093.34
553.876	25968.41
554.076	26130.2
554.275	26068.76
554.475	25933.6
554.674	26183.45
554.874	25820.96
555.074	26218.27
555.273	26167.07
555.473	26052.38
555.672	25739.04
555.872	26169.12
556.071	26173.21
556.271	26132.25
556.47	25698.08
556.67	25734.95
556.869	25632.55
557.068	25818.91
557.268	25524.01
557.467	25800.48
557.667	25642.79
557.866	25628.45
558.065	25677.6
558.265	25360.17
558.464	25034.54
558.663	25693.99
558.863	25208.62
559.062	25562.92
559.261	24983.34
559.461	25540.39
559.66	25175.85
559.859	25261.87
560.058	24799.02
560.258	25100.08
560.457	25069.36
560.656	25091.88
560.855	24858.42
561.054	24921.9
561.253	25071.4
561.453	25048.88
561.652	24696.63
561.851	24948.53
562.05	24749.87
562.249	24330.04
562.448	25016.11
562.647	24751.92
562.846	24901.42
563.045	24581.94
563.244	24612.66
563.443	24889.13
563.642	24022.84
563.841	24618.8
564.04	24229.69
564.239	24350.52
564.438	24366.9
564.637	24350.52
564.836	24362.81
565.035	24129.34
565.234	23916.35
565.432	23902.01
565.631	23766.85
565.83	23846.72
566.029	23992.12
566.228	23914.3
566.427	23643.97
566.625	23598.91
566.824	23416.65
567.023	23621.44
567.222	23359.3
567.42	23396.17
567.619	23430.98
567.818	23605.06
568.016	23189.32
568.215	23564.1
568.414	23377.73
568.612	22935.37
568.811	22894.41
569.01	22880.08
569.208	22794.06
569.407	22980.43
569.605	22544.21
569.804	22890.32
570.002	22316.89
570.201	22632.27
570.4	22243.16
570.598	22480.72
570.797	22402.9
570.995	22581.07
571.193	21927.77
571.392	22421.33
571.59	22128.47
571.789	22306.65
571.987	22112.09
572.186	21870.43
572.384	22083.42
572.582	22134.62
572.781	21999.45
572.979	21718.88
573.177	21499.75
573.376	21733.22
573.574	21407.59
573.772	21747.55
573.971	21251.94
574.169	21262.18
574.367	21395.3
574.565	21417.83
574.763	21346.15
574.962	21133.16
575.16	20797.29
575.358	21016.43
575.556	20795.25
575.754	21243.75
575.952	20873.07
576.151	21118.82
576.349	20717.42
576.547	20813.68
576.745	20928.36
576.943	20592.5
577.141	20764.53
577.339	20676.46
577.537	20549.49
577.735	20692.85
577.933	20488.05
578.131	20174.71
578.329	20219.77
578.527	20074.36
578.725	20148.09
578.923	20414.32
579.121	20150.14
579.319	19881.85
579.516	20234.1
579.714	19910.52
579.912	19752.83
580.11	19799.93
580.308	19740.54
580.506	19683.2
580.704	19302.28
580.901	19619.71
581.099	19670.91
581.297	19496.83
581.495	19603.33
581.692	19386.24
581.89	19216.26
582.088	19566.46
582.285	19447.68
582.483	19099.53
582.681	19345.28
582.878	19380.1
583.076	19093.38
583.274	19003.27
583.471	18882.44
583.669	18982.79
583.866	18890.63
584.064	19115.91
584.262	18622.35
584.459	18644.88
584.657	18597.77
584.854	18655.12
585.052	18376.59
585.249	18679.69
585.447	18507.66
585.644	18431.89
585.841	18282.39
586.039	18370.45
586.236	18214.8
586.434	18179.99
586.631	18192.28
586.828	18235.28
587.026	18157.46
587.223	18241.43
587.42	17854.36
587.618	17950.62
587.815	17723.29
588.012	17573.79
588.21	17715.1
588.407	17903.51
588.604	17833.88
588.801	17670.05
588.999	17579.93
589.196	17588.13
589.393	17442.72
589.59	17452.96
589.787	17424.29
589.984	17258.4
590.182	17287.07
590.379	17473.44
590.576	17024.93
590.773	17108.9
590.97	17127.33
591.167	16994.22
591.364	16730.03
591.561	17102.76
591.758	16897.96
591.955	16867.24
592.152	16857
592.349	16611.25
592.546	16883.63
592.743	16678.83
592.94	16359.35
593.137	16648.11
593.334	16512.94
593.531	16281.52
593.727	16197.56
593.924	16431.02
594.121	16269.23
594.318	16611.25
594.515	16164.79
594.712	16355.25
594.908	16095.16
595.105	16064.44
595.302	15847.35
595.499	15804.35
595.696	15769.53
595.892	16021.43
596.089	16132.02
596.286	15722.43
596.482	15810.49
596.679	15933.37
596.876	15767.48
597.072	15710.14
597.269	15560.64
597.466	15417.28
597.662	15505.34
597.859	15183.81
598.055	15376.32
598.252	15361.98
598.448	15267.78
598.645	15171.52
598.841	14938.05
599.038	15169.48
599.234	15198.15
599.431	15062.98
599.627	14876.62
599.824	15083.46
600.02	14911.43
600.217	14763.98
600.413	14759.88
600.609	14612.43
600.806	14692.3
601.002	14895.05
601.198	14393.3
601.395	14526.41
601.591	14512.08
601.787	14544.84
601.984	14274.51
602.18	14585.8
602.376	14184.4
602.572	14346.19
602.769	14405.58
602.965	14378.96
603.161	14397.39
603.357	14206.93
603.553	13834.2
603.75	14122.96
603.946	13963.22
604.142	14069.72
604.338	13830.1
604.534	13811.67
604.73	13834.2
604.926	13907.93
605.122	13721.56
605.318	13926.36
605.514	13678.55
605.71	13746.14
605.906	13817.82
606.102	13529.05
606.298	13520.86
606.494	13535.2
606.69	13508.57
606.886	13406.17
607.082	13428.7
607.278	13301.73
607.474	13088.74
607.67	13352.93
607.866	13346.78
608.062	13367.26
608.257	13234.14
608.453	13287.39
608.649	13223.9
608.845	12988.39
609.041	13049.83
609.236	13115.36
609.432	12994.53
609.628	13004.77
609.824	13008.87
610.019	12857.32
610.215	12861.41
610.411	12965.86
610.606	12582.89
610.802	12986.34
610.998	12804.07
611.193	12806.12
611.389	12654.57
611.584	12619.75
611.78	12705.77
611.976	12763.11
612.171	12554.22
612.367	12361.71
612.562	12652.52
612.758	12398.57
612.953	12447.72
613.149	12404.72
613.344	12398.57
613.539	12439.53
613.735	12632.04
613.93	12343.28
614.126	12384.24
614.321	12554.22
614.517	12361.71
614.712	12361.71
614.907	11999.22
615.103	12433.39
615.298	12001.27
615.493	12249.07
615.688	11993.08
615.884	12382.19
616.079	12185.58
616.274	12156.91
616.47	12054.51
616.665	12038.13
616.86	11923.44
617.055	12034.04
617.25	12031.99
617.445	11999.22
617.641	11833.33
617.836	11728.89
618.031	11765.75
618.226	11716.6
618.421	11775.99
618.616	11974.64
618.811	11438.08
619.006	11771.9
619.201	11472.89
619.396	11866.1
619.591	11335.68
619.786	11458.56
619.981	11452.41
620.176	11450.36
620.371	11329.53
620.566	11417.6
620.761	11237.38
620.956	11214.85
621.151	11063.3
621.346	11272.19
621.541	10987.52
621.735	11294.72
621.93	10833.93
622.125	10967.04
622.32	10903.56
622.515	10872.84
622.709	10711.05
622.904	10608.65
623.099	10485.77
623.294	10657.8
623.488	10610.7
623.683	10489.87
623.878	10403.85
624.072	10762.25
624.267	10381.32
624.462	10303.5
624.656	10377.23
624.851	10258.45
625.046	9891.86
625.24	10100.75
625.435	10061.84
625.629	10121.23
625.824	9957.39
626.018	9961.49
626.213	9836.56
626.407	9869.33
626.602	9691.16
626.796	9664.54
626.991	9758.74
627.185	9553.94
627.38	9644.06
627.574	9295.9
627.768	9310.24
627.963	9345.05
628.157	9322.52
628.352	9250.85
628.546	9203.74
628.74	9136.16
628.935	9144.35
629.129	9060.38
629.323	9019.43
629.517	9013.28
629.712	8998.95
629.906	8839.2
630.1	8970.27
630.294	8824.87
630.489	8794.15
630.683	8654.89
630.877	8634.41
631.071	8560.68
631.265	8638.5
631.459	8472.62
631.653	8331.31
631.848	8497.19
632.042	8513.58
632.236	8278.06
632.43	8249.39
632.624	8474.67
632.818	8282.16
633.012	8046.64
633.206	8144.94
633.4	8022.06
633.594	8112.17
633.788	8083.5
633.982	7794.74
634.176	8085.55
634.369	7843.89
634.563	7809.08
634.757	7712.82
634.951	7739.44
635.145	7704.63
635.339	7768.12
635.533	7663.67
635.726	7622.71
635.92	7548.98
636.114	7444.54
636.308	7508.02
636.501	7528.5
636.695	7544.89
636.889	7395.39
637.083	7286.84
637.276	7143.49
637.47	7186.49
637.664	7129.15
637.857	7211.07
638.051	7202.88
638.244	6977.6
638.438	6969.41
638.632	6989.89
638.825	6967.36
639.019	6887.49
639.212	6750.28
639.406	6932.54
639.599	7014.46
639.793	6733.89
639.986	6746.18
640.18	6756.42
640.373	6672.45
640.567	6672.45
640.76	6475.85
640.954	6594.63
641.147	6568.01
641.34	6506.57
641.534	6588.49
641.727	6459.46
641.92	6535.24
642.114	6414.41
642.307	6291.53
642.5	6426.7
642.694	6160.46
642.887	6318.15
643.08	6117.45
643.273	6154.32
643.467	6029.39
643.66	6076.49
643.853	6164.56
644.046	6023.25
644.239	6060.11
644.432	5947.47
644.626	5996.62
644.819	5773.39
645.012	5822.55
645.205	6008.91
645.398	5926.99
645.591	5861.46
645.784	5865.55
645.977	5685.33
646.17	5654.61
646.363	5419.1
646.556	5460.06
646.749	5490.77
646.942	5695.57
647.135	5711.96
647.328	5247.07
647.521	5331.03
647.714	5408.86
647.907	5501.01
648.099	5492.82
648.292	5333.08
648.485	5328.99
648.678	5167.2
648.871	5234.78
649.064	5312.6
649.256	5275.74
649.449	5138.52
649.642	5247.07
649.835	5070.94
650.027	5152.86
650.22	5095.52
650.413	4935.78
650.605	5097.56
650.798	4980.83
650.991	5015.65
651.183	5060.7
651.376	4939.87
651.568	5027.93
651.761	4931.68
651.954	4980.83
652.146	4780.13
652.339	4933.73
652.531	4800.61
652.724	4690.02
652.916	4632.68
653.109	4808.8
653.301	4489.32
653.494	4821.09
653.686	4466.79
653.879	4534.37
654.071	4599.91
654.263	4466.79
654.456	4552.81
654.648	4517.99
654.84	4331.62
655.033	4567.14
655.225	4423.78
655.417	4284.52
655.61	4474.98
655.802	4399.21
655.994	4241.51
656.186	4257.9
656.379	4313.19
656.571	4298.86
656.763	4382.82
656.955	4233.32
657.148	4286.57
657.34	4153.45
657.532	4173.93
657.724	4145.26
657.916	4210.79
658.108	3897.46
658.3	4132.97
658.492	4147.31
658.684	3983.47
658.876	4010.09
659.068	3979.37
659.26	3932.27
659.452	3899.5
659.644	3975.28
659.836	3838.06
660.028	3899.5
660.22	3860.59
660.412	3844.21
660.604	3836.02
660.796	3793.01
660.988	3750
661.18	3786.86
661.372	3684.47
661.563	3854.45
661.755	3600.5
661.947	3743.86
662.139	3772.53
662.331	3756.15
662.522	3717.23
662.714	3737.71
662.906	3532.92
663.097	3668.08
663.289	3537.01
663.481	3487.86
663.673	3416.18
663.864	3455.09
664.056	3434.61
664.247	3539.06
664.439	3582.07
664.631	3448.95
664.822	3532.92
665.014	3305.59
665.205	3317.88
665.397	3479.67
665.588	3451
665.78	3528.82
665.971	3256.44
666.163	3276.92
666.354	3242.11
666.546	3278.97
666.737	3223.67
666.929	3205.24
667.12	3317.88
667.311	3215.48
667.503	3289.21
667.694	3250.3
667.885	3037.31
668.077	3344.5
668.268	3117.18
668.459	3133.56
668.651	3082.36
668.842	3219.58
669.033	3207.29
669.224	3029.12
669.416	3158.14
669.607	2988.16
669.798	3094.65
669.989	2953.34
670.18	3016.83
670.371	3131.51
670.563	2842.75
670.754	3031.16
670.945	2877.57
671.136	3000.44
671.327	2998.4
671.518	2992.25
671.709	3078.27
671.9	2932.86
672.091	2918.53
672.282	2826.37
672.473	2850.94
672.664	3008.64
672.855	2936.96
673.046	2998.4
673.237	2771.07
673.428	2848.9
673.619	2889.85
673.809	2789.5
674	2822.27
674.191	2781.31
674.382	2769.02
674.573	2764.93
674.764	2785.41
674.954	2816.13
675.145	2734.21
675.336	2607.23
675.527	2662.53
675.717	2611.33
675.908	2769.02
676.099	2740.35
676.289	2637.95
676.48	2711.68
676.671	2728.07
676.861	2623.62
677.052	2635.91
677.243	2683.01
677.433	2547.84
677.624	2656.39
677.814	2617.47
678.005	2642.05
678.195	2640
678.386	2597
678.576	2535.56
678.767	2545.8
678.957	2433.16
679.148	2502.79
679.338	2523.27
679.529	2650.24
679.719	2492.55
679.909	2521.22
680.1	2506.88
680.29	2515.08
680.481	2459.78
680.671	2510.98
680.861	2584.71
681.052	2486.4
681.242	2506.88
681.432	2472.07
681.622	2494.6
681.813	2496.64
682.003	2461.83
682.193	2480.26
682.383	2451.59
682.573	2482.31
682.764	2455.69
682.954	2500.74
683.144	2306.18
683.334	2386.05
683.524	2334.86
683.714	2381.96
683.904	2322.57
684.094	2343.05
684.284	2371.72
684.474	2420.87
684.664	2490.5
684.854	2279.56
685.044	2390.15
685.234	2422.92
685.424	2390.15
685.614	2355.33
685.804	2267.27
685.994	2332.81
686.184	2281.61
686.374	2314.38
686.564	2236.55
686.753	2312.33
686.943	2252.94
687.133	2312.33
687.323	2246.79
687.513	2277.51
687.702	2250.89
687.892	2156.68
688.082	2261.13
688.272	2138.25
688.461	2203.79
688.651	2203.79
688.841	2136.2
689.03	2187.4
689.22	2117.77
689.41	2164.87
689.599	2140.3
689.789	2125.96
689.979	2171.02
690.168	2076.81
690.358	2132.11
690.547	2191.5
690.737	2078.86
690.926	2220.17
691.116	2048.14
691.305	2101.39
691.495	2007.18
691.684	2097.29
691.874	2027.66
692.063	2042
692.252	2011.28
692.442	2064.52
692.631	1994.89
692.82	1912.97
693.01	1931.41
693.199	1912.97
693.388	1964.17
693.578	1945.74
693.767	2023.56
693.956	1982.6
694.146	1929.36
694.335	2070.67
694.524	1964.17
694.713	2066.57
694.902	1980.56
695.092	1863.82
695.281	1974.41
695.47	1943.69
695.659	1960.08
695.848	1872.01
696.037	1923.21
696.226	1822.86
696.415	1902.73
696.604	1912.97
696.793	1806.48
696.982	1912.97
697.171	1769.62
697.36	1861.77
697.549	1876.11
697.738	1929.36
697.927	1806.48
698.116	1792.14
698.305	1855.63
698.494	1802.38
698.683	1888.4
698.872	1894.54
699.061	1843.34
699.25	1884.3
699.438	1865.87
699.627	1826.96
699.816	1812.62
700.005	1790.1
700.193	1816.72
700.382	1874.06
700.571	1765.52
700.76	1894.54
700.948	1829.01
701.137	1863.82
701.326	1781.9
701.514	1714.32
701.703	1802.38
701.892	1861.77
702.08	1777.81
702.269	1890.45
702.457	1765.52
702.646	1814.67
702.834	1773.71
703.023	1769.62
703.212	1751.18
703.4	1888.4
703.589	1853.58
703.777	1751.18
703.965	1728.66
704.154	1796.24
704.342	1691.79
704.531	1732.75
704.719	1829.01
704.907	1878.16
705.096	1773.71
705.284	1757.33
705.472	1820.81
705.661	1548.44
705.849	1773.71
706.037	1777.81
706.226	1841.29
706.414	1796.24
706.602	1745.04
706.79	1865.87
706.979	1802.38
707.167	1749.14
707.355	1685.65
707.543	1671.31
707.731	1837.2
707.919	1898.64
708.107	1773.71
708.296	1802.38
708.484	1716.37
708.672	1669.27
708.86	1650.83
709.048	1777.81
709.236	1691.79
709.424	1826.96
709.612	1728.66
709.8	1798.29
709.988	1806.48
710.176	1708.18
710.364	1720.46
710.551	1790.1
710.739	1802.38
710.927	1804.43
711.115	1663.12
711.303	1802.38
711.491	1779.86
711.679	1661.07
711.866	1738.9
712.054	1775.76
712.242	1822.86
712.43	1781.9
712.617	1724.56
712.805	1663.12
712.993	1794.19
713.181	1816.72
713.368	1728.66
713.556	1763.47
713.744	1775.76
713.931	1714.32
714.119	1646.74
714.306	1765.52
714.494	1685.65
714.682	1755.28
714.869	1702.03
715.057	1740.94
715.244	1814.67
715.432	1790.1
715.619	1783.95
715.807	1755.28
715.994	1808.53
716.182	1792.14
716.369	1708.18
716.556	1714.32
716.744	1720.46
716.931	1753.23
717.119	1730.7
717.306	1779.86
717.493	1749.14
717.681	1759.38
717.868	1749.14
718.055	1755.28
718.242	1824.91
718.43	1728.66
718.617	1824.91
718.804	1792.14
718.991	1808.53
719.179	1835.15
719.366	1681.55
719.553	1775.76
719.74	1837.2
719.927	1767.57
720.114	1812.62
720.301	1804.43
720.488	1697.94
720.676	1681.55
720.863	1759.38
721.05	1843.34
721.237	1685.65
721.424	1740.94
721.611	1826.96
721.798	1702.03
721.985	1781.9
722.172	1767.57
722.358	1687.7
722.545	1786
722.732	1742.99
722.919	1786
723.106	1728.66
723.293	1781.9
723.48	1839.25
723.667	1755.28
723.853	1775.76
724.04	1771.66
724.227	1745.04
724.414	1771.66
724.6	1710.22
724.787	1806.48
724.974	1726.61
725.161	1761.42
725.347	1753.23
725.534	1749.14
725.72	1777.81
725.907	1773.71
726.094	1745.04
726.28	1767.57
726.467	1753.23
726.653	1730.7
726.84	1751.18
727.027	1710.22
727.213	1738.9
727.4	1712.27
727.586	1734.8
727.773	1730.7
727.959	1759.38
728.145	1755.28
728.332	1722.51
728.518	1816.72
728.705	1783.95
728.891	1755.28
729.077	1689.74
729.264	1765.52
729.45	1765.52
729.636	1810.58
729.823	1783.95
730.009	1886.35
730.195	1835.15
730.382	1720.46
730.568	1724.56
730.754	1745.04
730.94	1685.65
731.126	1849.49
731.313	1814.67
731.499	1634.45
731.685	1736.85
731.871	1673.36
732.057	1786
732.243	1730.7
732.429	1820.81
732.615	1814.67
732.801	1736.85
732.987	1640.59
733.173	1702.03
733.359	1679.51
733.545	1716.37
733.731	1656.98
733.917	1738.9
734.103	1730.7
734.289	1786
734.475	1724.56
734.661	1704.08
734.847	1683.6
735.033	1712.27
735.219	1724.56
735.404	1685.65
735.59	1685.65
735.776	1769.62
735.962	1724.56
736.148	1724.56
736.333	1792.14
736.519	1736.85
736.705	1681.55
736.89	1781.9
737.076	1706.13
737.262	1781.9
737.447	1786
737.633	1718.42
737.819	1730.7
738.004	1697.94
738.19	1706.13
738.375	1675.41
738.561	1634.45
738.747	1720.46
738.932	1671.31
739.118	1702.03
739.303	1757.33
739.489	1726.61
739.674	1671.31
739.859	1630.35
740.045	1671.31
740.23	1693.84
740.416	1513.62
740.601	1691.79
740.786	1634.45
740.972	1683.6
741.157	1650.83
741.342	1620.11
741.528	1607.83
741.713	1509.52
741.898	1710.22
742.084	1638.55
742.269	1613.97
742.454	1517.72
742.639	1671.31
742.824	1630.35
743.01	1634.45
743.195	1640.59
743.38	1564.82
743.565	1654.93
743.75	1593.49
743.935	1513.62
744.12	1616.02
744.305	1597.59
744.49	1558.67
744.675	1577.11
744.86	1577.11
745.045	1525.91
745.23	1613.97
745.415	1493.14
745.6	1587.35
745.785	1472.66
745.97	1480.85
746.155	1546.39
746.34	1435.8
746.525	1452.18
746.71	1530
746.895	1384.6
747.079	1427.6
747.264	1456.28
747.449	1347.73
747.634	1419.41
747.819	1431.7
748.003	1407.13
748.188	1335.45
748.373	1382.55
748.557	1351.83
748.742	1335.45
748.927	1409.17
749.111	1343.64
749.296	1269.91
749.481	1343.64
749.665	1409.17
749.85	1360.02
750.034	1224.86
750.219	1341.59
750.404	1298.58
750.588	1276.06
750.773	1271.96
750.957	1216.66
751.141	1194.14
751.326	1214.62
751.51	1271.96
751.695	1183.9
751.879	1218.71
752.064	1226.9
752.248	1290.39
752.432	1257.62
752.617	1153.18
752.801	1149.08
752.985	1187.99
753.17	1239.19
753.354	1181.85
753.538	1149.08
753.722	1167.51
753.907	1144.99
754.091	1138.84
754.275	1169.56
754.459	1048.73
754.643	1116.31
754.828	1124.51
755.012	1173.66
755.196	1118.36
755.38	1124.51
755.564	1163.42
755.748	1155.23
755.932	1007.77
756.116	1087.64
756.3	1108.12
756.484	1132.7
756.668	1042.59
756.852	972.96
757.036	970.91
757.22	1020.06
757.404	942.24
757.588	1020.06
757.772	1042.59
757.956	975
758.14	956.57
758.323	989.34
758.507	1009.82
758.691	975
758.875	905.37
759.059	975
759.242	907.42
759.426	972.96
759.61	975
759.794	907.42
759.977	954.52
760.161	1005.72
760.345	956.57
760.528	907.42
760.712	852.13
760.895	907.42
761.079	886.94
761.263	811.17
761.446	915.61
761.63	899.23
761.813	944.28
761.997	886.94
762.18	860.32
762.364	911.52
762.547	860.32
762.731	858.27
762.914	921.76
763.098	825.5
763.281	831.65
763.464	897.18
763.648	882.85
763.831	796.83
764.015	813.21
764.198	813.21
764.381	807.07
764.564	884.89
764.748	782.49
764.931	872.61
765.114	809.12
765.297	821.41
765.481	897.18
765.664	886.94
765.847	790.69
766.03	794.78
766.213	798.88
766.397	800.93
766.58	766.11
766.763	831.65
766.946	704.67
767.129	725.15
767.312	712.86
767.495	780.45
767.678	696.48
767.861	766.11
768.044	729.25
768.227	751.78
768.41	786.59
768.593	743.58
768.776	702.62
768.959	778.4
769.142	794.78
769.324	696.48
769.507	710.82
769.69	667.81
769.873	729.25
770.056	772.25
770.239	663.71
770.421	694.43
770.604	733.34
770.787	635.04
770.97	694.43
771.152	635.04
771.335	712.86
771.518	616.61
771.7	665.76
771.883	661.66
772.066	673.95
772.248	602.27
772.431	706.72
772.613	741.54
772.796	649.38
772.978	684.19
773.161	626.85
773.343	700.58
773.526	676
773.708	651.42
773.891	606.37
774.073	569.51
774.256	559.27
774.438	628.9
774.621	645.28
774.803	555.17
774.985	589.99
775.168	626.85
775.35	561.31
775.532	673.95
775.715	579.75
775.897	698.53
776.079	659.62
776.261	598.18
776.444	583.84
776.626	585.89
776.808	528.55
776.99	503.97
777.173	581.79
777.355	546.98
777.537	534.69
777.719	493.73
777.901	512.16
778.083	499.88
778.265	610.47
778.447	546.98
778.629	561.31
778.811	536.74
778.993	479.4
779.175	569.51
779.357	512.16
779.539	450.72
779.721	526.5
779.903	512.16
780.085	477.35
780.267	422.05
780.449	493.73
780.631	417.96
780.812	473.25
780.994	506.02
781.176	473.25
781.358	460.96
781.54	399.52
781.721	516.26
781.903	497.83
782.085	495.78
782.267	446.63
782.448	442.53
782.63	415.91
782.812	432.29
782.993	442.53
783.175	432.29
783.357	350.37
783.538	469.16
783.72	438.44
783.901	372.9
784.083	417.96
784.264	405.67
784.446	311.46
784.627	405.67
784.809	405.67
784.99	379.04
785.172	442.53
785.353	454.82
785.535	368.81
785.716	426.15
785.897	362.66
786.079	417.96
786.26	456.87
786.441	317.61
786.623	321.7
786.804	346.28
786.985	411.81
787.167	338.09
787.348	379.04
787.529	387.24
787.71	426.15
787.891	325.8
788.073	293.03
788.254	295.08
788.435	381.09
788.616	272.55
788.797	288.93
788.978	319.65
789.159	364.71
789.34	340.13
789.522	288.93
789.703	278.69
789.884	313.51
790.065	395.43
790.246	307.37
790.427	303.27
790.607	241.83
790.788	288.93
790.969	239.78
791.15	315.56
791.331	243.88
791.512	237.74
791.693	223.4
791.874	305.32
792.054	352.42
792.235	258.21
792.416	274.6
792.597	215.21
792.778	331.94
792.958	268.45
793.139	209.06
793.32	286.89
793.5	321.7
793.681	309.41
793.862	256.17
794.042	301.22
794.223	274.6
794.404	241.83
794.584	233.64
794.765	270.5
794.945	264.36
795.126	274.6
795.306	309.41
795.487	211.11
795.667	250.02
795.848	207.02
796.028	252.07
796.209	264.36
796.389	235.69
796.57	276.65
796.75	186.54
796.93	241.83
797.111	225.45
797.291	258.21
797.471	207.02
797.652	157.86
797.832	211.11
798.012	247.97
798.192	276.65
798.373	178.34
798.553	198.82
798.733	192.68
798.913	219.3
799.093	278.69
799.274	209.06
799.454	250.02
799.634	168.1
799.814	243.88
799.994	229.54
800.174	186.54
800.354	139.43
800.534	100.52
800.714	252.07
800.894	260.26
801.074	192.68
801.254	186.54
801.434	213.16
801.614	180.39
801.794	151.72
801.974	573.6
802.154	200.87
802.334	157.86
802.514	141.48
802.693	153.77
802.873	178.34
803.053	241.83
803.233	161.96
803.413	151.72
803.592	155.82
803.772	215.21
803.952	145.58
804.131	194.73
804.311	192.68
804.491	186.54
804.67	123.05
804.85	106.67
805.03	204.97
805.209	227.5
805.389	155.82
805.568	227.5
805.748	182.44
805.928	174.25
806.107	141.48
806.287	166.06
806.466	194.73
806.646	190.63
806.825	149.67
807.004	141.48
807.184	137.38
807.363	219.3
807.543	149.67
807.722	127.14
807.901	196.78
808.081	172.2
808.26	147.62
808.439	133.29
808.619	207.02
808.798	127.14
808.977	143.53
809.156	129.19
809.336	123.05
809.515	149.67
809.694	77.99
809.873	73.9
810.052	194.73
810.231	207.02
810.411	137.38
810.59	104.62
810.769	202.92
810.948	147.62
811.127	82.09
811.306	55.47
811.485	147.62
811.664	172.2
811.843	194.73
812.022	112.81
812.201	202.92
812.38	75.95
812.559	151.72
812.737	143.53
812.916	100.52
813.095	178.34
813.274	39.08
813.453	121
813.632	61.61
813.811	256.17
813.989	116.9
814.168	121
814.347	118.95
814.526	196.78
814.704	137.38
814.883	166.06
815.062	159.91
815.24	139.43
815.419	114.86
815.598	157.86
815.776	123.05
815.955	217.26
816.133	102.57
816.312	127.14
816.49	149.67
816.669	159.91
816.847	69.8
817.026	77.99
817.204	186.54
817.383	69.8
817.561	137.38
817.74	157.86
817.918	157.86
818.097	100.52
818.275	73.9
818.453	63.66
818.632	139.43
818.81	108.71
818.988	82.09
819.167	39.08
819.345	137.38
819.523	112.81
819.701	67.75
819.879	174.25
820.058	82.09
820.236	51.37
820.414	73.9
820.592	135.34
820.77	88.23
820.948	157.86
821.127	116.9
821.305	110.76
821.483	49.32
821.661	90.28
821.839	131.24
822.017	102.57
822.195	26.79
822.373	155.82
822.551	133.29
822.729	133.29
822.907	114.86
823.085	155.82
823.262	123.05
823.44	82.09
823.618	63.66
823.796	71.85
823.974	34.99
824.152	147.62
824.329	73.9
824.507	143.53
824.685	92.33
824.863	125.1
825.04	88.23
825.218	4.27
825.396	133.29
825.574	90.28
825.751	110.76
825.929	96.43
826.107	112.81
826.284	71.85
826.462	149.67
826.639	37.03
826.817	69.8
826.994	155.82
827.172	53.42
827.349	178.34
827.527	102.57
827.704	88.23
827.882	151.72
828.059	164.01
828.237	77.99
828.414	135.34
828.591	94.38
828.769	49.32
828.946	86.19
829.124	77.99
829.301	71.85
829.478	100.52
829.655	151.72
829.833	32.94
830.01	8.36
830.187	127.14
830.364	49.32
830.542	133.29
830.719	139.43
830.896	18.6
831.073	84.14
831.25	65.71
831.427	45.23
831.604	166.06
831.782	98.47
831.959	137.38
832.136	55.47
832.313	69.8
832.49	69.8
832.667	69.8
832.844	106.67
833.021	61.61
833.198	67.75
833.374	82.09
833.551	168.1
833.728	22.7
833.905	159.91
834.082	71.85
834.259	114.86
834.436	94.38
834.612	51.37
834.789	12.46
834.966	67.75
835.143	30.89
835.319	102.57
835.496	49.32
835.673	-3.93
835.85	86.19
836.026	69.8
836.203	112.81
836.38	61.61
836.556	45.23
836.733	69.8
836.909	45.23
837.086	92.33
837.262	18.6
837.439	125.1
837.616	-26.45
837.792	16.55
837.968	73.9
838.145	2.22
838.321	61.61
838.498	55.47
838.674	110.76
838.851	86.19
839.027	43.18
839.203	55.47
839.38	65.71
839.556	90.28
839.732	22.7
839.909	102.57
840.085	92.33
840.261	55.47
840.437	155.82
840.614	26.79
840.79	57.51
840.966	71.85
841.142	71.85
841.318	77.99
841.494	49.32
841.671	77.99
841.847	12.46
842.023	26.79
842.199	43.18
842.375	112.81
842.551	94.38
842.727	61.61
842.903	57.51
843.079	28.84
843.255	104.62
843.431	51.37
843.607	63.66
843.783	12.46
843.959	65.71
844.134	86.19
844.31	59.56
844.486	47.27
844.662	26.79
844.838	10.41
845.013	41.13
845.189	59.56
845.365	47.27
845.541	135.34
845.716	65.71
845.892	96.43
846.068	155.82
846.244	-24.4
846.419	82.09
846.595	59.56
846.77	22.7
846.946	88.23
847.122	59.56
847.297	26.79
847.473	65.71
847.648	8.36
847.824	59.56
847.999	59.56
848.175	53.42
848.35	73.9
848.526	39.08
848.701	18.6
848.876	80.04
849.052	106.67
849.227	59.56
849.403	116.9
849.578	65.71
849.753	32.94
849.929	82.09
850.104	55.47
850.279	55.47
850.454	41.13
850.63	112.81
850.805	-14.17
850.98	82.09
851.155	45.23
851.33	16.55
851.505	28.84
851.681	24.75
851.856	65.71
852.031	104.62
852.206	69.8
852.381	82.09
852.556	2.22
852.731	77.99
852.906	49.32
853.081	86.19
853.256	-12.12
853.431	82.09
853.606	-67.41
853.781	37.03
853.956	45.23
854.131	92.33
854.305	51.37
854.48	32.94
854.655	12.46
854.83	34.99
855.005	94.38
855.18	-10.07
855.354	-22.36
855.529	10.41
855.704	-24.4
855.879	61.61
856.053	45.23
856.228	112.81
856.403	32.94
856.577	75.95
856.752	67.75
856.926	41.13
857.101	86.19
857.276	-18.26
857.45	16.55
857.625	22.7
857.799	53.42
857.974	116.9
858.148	4.27
858.323	53.42
858.497	2.22
858.672	45.23
858.846	73.9
859.02	69.8
859.195	26.79
859.369	0.17
859.543	57.51
859.718	20.65
859.892	61.61
860.066	-5.97
860.241	-12.12
860.415	-3.93
860.589	12.46
860.763	59.56
860.938	69.8
861.112	45.23
861.286	61.61
861.46	-22.36
861.634	-10.07
861.808	-16.21
861.982	47.27
862.157	43.18
862.331	-44.88
862.505	18.6
862.679	30.89
862.853	34.99
863.027	26.79
863.201	75.95
863.375	22.7
863.549	69.8
863.722	6.31
863.896	26.79
864.07	12.46
864.244	24.75
864.418	41.13
864.592	45.23
864.766	-1.88
864.939	80.04
865.113	-8.02
865.287	39.08
865.461	43.18
865.634	53.42
865.808	12.46
865.982	-30.55
866.156	-8.02
866.329	28.84
866.503	-14.17
866.676	51.37
866.85	53.42
867.024	24.75
867.197	22.7
867.371	75.95
867.544	-1.88
867.718	75.95
867.891	-73.56
868.065	26.79
868.238	18.6
868.412	57.51
868.585	86.19
868.759	-38.74
868.932	4.27
869.105	45.23
869.279	47.27
869.452	14.51
869.625	28.84
869.799	61.61
869.972	-3.93
870.145	-48.98
870.319	67.75
870.492	0.17
870.665	22.7
870.838	28.84
871.011	-40.79
871.185	0.17
871.358	53.42
871.531	49.32
871.704	-26.45
871.877	47.27
872.05	0.17
872.223	73.9
872.396	28.84
872.569	77.99
872.742	47.27
872.915	-44.88
873.088	28.84
873.261	104.62
873.434	118.95
873.607	49.32
873.78	28.84
873.953	88.23
874.126	63.66
874.299	20.65
874.471	14.51
874.644	65.71
874.817	39.08
874.99	8.36
875.163	20.65
875.335	24.75
875.508	-34.64
875.681	67.75
875.853	-22.36
876.026	45.23
876.199	84.14
876.371	69.8
876.544	-1.88
876.717	14.51
876.889	73.9
877.062	10.41
877.234	-16.21
877.407	14.51
877.579	-8.02
877.752	125.1
877.924	-26.45
878.097	53.42
878.269	24.75
878.442	45.23
878.614	32.94
878.786	39.08
878.959	59.56
879.131	-36.69
879.303	45.23
879.476	69.8
879.648	28.84
879.82	26.79
879.993	30.89
880.165	69.8
880.337	-16.21
880.509	86.19
880.681	-8.02
880.854	-5.97
881.026	49.32
881.198	164.01
881.37	-28.5
881.542	32.94
881.714	-46.93
881.886	141.48
882.058	20.65
882.23	8.36
882.402	20.65
882.574	-1.88
882.746	-22.36
882.918	0.17
883.09	22.7
883.262	16.55
883.434	6.31
883.606	-28.5
883.778	94.38
883.95	53.42
884.122	-46.93
884.293	94.38
884.465	18.6
884.637	8.36
884.809	-12.12
884.98	41.13
885.152	-38.74
885.324	71.85
885.496	-1.88
885.667	59.56
885.839	77.99
886.011	88.23
886.182	77.99
886.354	65.71
886.525	-61.27
886.697	24.75
886.869	0.17
887.04	57.51
887.212	71.85
887.383	80.04
887.555	59.56
887.726	30.89
887.897	4.27
888.069	10.41
888.24	53.42
888.412	39.08
888.583	4.27
888.754	-12.12
888.926	-77.65
889.097	26.79
889.268	8.36
889.44	63.66
889.611	-36.69
889.782	0.17
889.953	47.27
890.125	8.36
890.296	51.37
890.467	37.03
890.638	49.32
890.809	37.03
890.98	28.84
891.151	18.6
891.323	82.09
891.494	127.14
891.665	121
891.836	63.66
892.007	24.75
892.178	30.89
892.349	61.61
892.52	61.61
892.691	45.23
892.862	-3.93
893.032	61.61
893.203	6.31
893.374	37.03
893.545	18.6
893.716	30.89
893.887	34.99
894.057	-5.97
894.228	10.41
894.399	28.84
894.57	-5.97
894.74	20.65
894.911	80.04
895.082	24.75
895.253	22.7
895.423	-110.42
895.594	20.65
895.764	-46.93
895.935	-1.88
896.106	32.94
896.276	-36.69
896.447	63.66
896.617	16.55
896.788	8.36
896.958	28.84
897.129	2.22
897.299	30.89
897.47	43.18
897.64	26.79
897.81	-14.17
897.981	55.47
898.151	30.89
898.322	98.47
898.492	10.41
898.662	20.65
898.832	-63.32
899.003	59.56
899.173	51.37
899.343	28.84
899.513	-12.12
