Data from USB4F104151__282__11-12-53-989.txt Node

Date: Wed Mar 12 11:12:54 EDT 2025
User: louis
Spectrometer: USB4F10415
Trigger mode: 4
Integration Time (sec): 2.000000E-2
Scans to average: 1
Electric dark correction enabled: true
Nonlinearity correction enabled: false
Boxcar width: 0
XAxis mode: Wavelengths
Number of Pixels in Spectrum: 3648
>>>>>Begin Spectral Data<<<<<
178.204	-46.42
178.424	-46.42
178.644	-46.42
178.864	-19.8
179.084	-34.13
179.304	-48.47
179.524	-5.46
179.744	43.69
179.964	2.73
180.184	60.07
180.404	17.07
180.624	-7.51
180.844	-30.04
181.064	88.75
181.283	6.83
181.503	-46.42
181.723	-81.24
181.943	17.07
182.163	72.36
182.383	35.5
182.602	105.13
182.822	45.74
183.042	76.46
183.262	-27.99
183.482	66.22
183.701	-42.32
183.921	84.65
184.141	19.11
184.361	121.51
184.58	8.87
184.8	62.12
185.02	-9.56
185.239	35.5
185.459	58.03
185.679	72.36
185.898	0.68
186.118	76.46
186.338	49.83
186.557	31.4
186.777	21.16
186.997	64.17
187.216	8.87
187.436	43.69
187.655	154.28
187.875	60.07
188.095	23.21
188.314	15.02
188.534	51.88
188.753	55.98
188.973	17.07
189.192	4.78
189.412	96.94
189.631	6.83
189.851	72.36
190.07	78.51
190.29	39.59
190.509	64.17
190.729	45.74
190.948	88.75
191.168	121.51
191.387	6.83
191.607	12.97
191.826	25.26
192.045	47.79
192.265	19.11
192.484	33.45
192.704	74.41
192.923	43.69
193.142	35.5
193.362	17.07
193.581	80.55
193.8	53.93
194.02	88.75
194.239	31.4
194.458	23.21
194.678	78.51
194.897	35.5
195.116	51.88
195.335	17.07
195.555	109.22
195.774	19.11
195.993	8.87
196.212	4.78
196.432	96.94
196.651	39.59
196.87	96.94
197.089	90.79
197.308	33.45
197.528	86.7
197.747	39.59
197.966	27.31
198.185	86.7
198.404	74.41
198.623	70.31
198.842	55.98
199.062	109.22
199.281	76.46
199.5	10.92
199.719	70.31
199.938	94.89
200.157	90.79
200.376	72.36
200.595	58.03
200.814	60.07
201.033	62.12
201.252	21.16
201.471	39.59
201.69	70.31
201.909	58.03
202.128	43.69
202.347	129.7
202.566	27.31
202.785	90.79
203.004	-3.41
203.223	123.56
203.442	58.03
203.661	29.35
203.879	12.97
204.098	31.4
204.317	60.07
204.536	49.83
204.755	70.31
204.974	68.27
205.193	84.65
205.411	64.17
205.63	90.79
205.849	103.08
206.068	-40.28
206.287	15.02
206.505	68.27
206.724	53.93
206.943	47.79
207.162	68.27
207.381	31.4
207.599	15.02
207.818	62.12
208.037	33.45
208.255	-81.24
208.474	55.98
208.693	66.22
208.911	60.07
209.13	17.07
209.349	101.03
209.567	21.16
209.786	135.85
210.005	23.21
210.223	-11.61
210.442	47.79
210.661	60.07
210.879	109.22
211.098	35.5
211.316	144.04
211.535	107.18
211.753	31.4
211.972	74.41
212.191	74.41
212.409	43.69
212.628	107.18
212.846	35.5
213.065	96.94
213.283	92.84
213.502	58.03
213.72	45.74
213.938	2.73
214.157	53.93
214.375	19.11
214.594	45.74
214.812	74.41
215.031	31.4
215.249	37.55
215.467	70.31
215.686	19.11
215.904	88.75
216.122	74.41
216.341	35.5
216.559	68.27
216.778	12.97
216.996	51.88
217.214	6.83
217.432	27.31
217.651	70.31
217.869	-50.52
218.087	64.17
218.306	84.65
218.524	43.69
218.742	80.55
218.96	47.79
219.179	29.35
219.397	31.4
219.615	92.84
219.833	25.26
220.051	4.78
220.27	37.55
220.488	64.17
220.706	51.88
220.924	10.92
221.142	23.21
221.36	35.5
221.578	45.74
221.796	82.6
222.015	53.93
222.233	58.03
222.451	64.17
222.669	109.22
222.887	58.03
223.105	55.98
223.323	41.64
223.541	39.59
223.759	37.55
223.977	55.98
224.195	86.7
224.413	74.41
224.631	45.74
224.849	98.99
225.067	115.37
225.285	101.03
225.503	90.79
225.721	-21.85
225.939	58.03
226.157	19.11
226.375	113.32
226.592	76.46
226.81	62.12
227.028	98.99
227.246	66.22
227.464	4.78
227.682	41.64
227.9	47.79
228.117	39.59
228.335	105.13
228.553	43.69
228.771	74.41
228.989	45.74
229.206	47.79
229.424	35.5
229.642	53.93
229.86	25.26
230.077	15.02
230.295	53.93
230.513	51.88
230.731	10.92
230.948	70.31
231.166	107.18
231.384	-5.46
231.601	72.36
231.819	84.65
232.037	21.16
232.254	0.68
232.472	31.4
232.689	117.42
232.907	23.21
233.125	68.27
233.342	-1.37
233.56	98.99
233.777	49.83
233.995	-1.37
234.213	96.94
234.43	74.41
234.648	39.59
234.865	105.13
235.083	94.89
235.3	90.79
235.518	60.07
235.735	129.7
235.953	-11.61
236.17	64.17
236.388	94.89
236.605	33.45
236.822	84.65
237.04	84.65
237.257	103.08
237.475	-9.56
237.692	96.94
237.909	51.88
238.127	74.41
238.344	98.99
238.562	115.37
238.779	19.11
238.996	-13.65
239.214	45.74
239.431	68.27
239.648	35.5
239.865	86.7
240.083	43.69
240.3	111.27
240.517	49.83
240.735	43.69
240.952	101.03
241.169	72.36
241.386	84.65
241.603	76.46
241.821	37.55
242.038	15.02
242.255	70.31
242.472	41.64
242.689	68.27
242.907	55.98
243.124	53.93
243.341	31.4
243.558	111.27
243.775	29.35
243.992	15.02
244.209	109.22
244.426	35.5
244.643	37.55
244.86	62.12
245.078	88.75
245.295	60.07
245.512	137.9
245.729	41.64
245.946	80.55
246.163	60.07
246.38	-17.75
246.597	66.22
246.814	86.7
247.031	53.93
247.248	60.07
247.464	84.65
247.681	80.55
247.898	74.41
248.115	17.07
248.332	27.31
248.549	64.17
248.766	105.13
248.983	21.16
249.2	58.03
249.417	49.83
249.633	53.93
249.85	58.03
250.067	29.35
250.284	148.14
250.501	119.46
250.717	84.65
250.934	84.65
251.151	43.69
251.368	78.51
251.585	109.22
251.801	43.69
252.018	74.41
252.235	115.37
252.451	64.17
252.668	39.59
252.885	86.7
253.102	55.98
253.318	182.95
253.535	55.98
253.752	58.03
253.968	49.83
254.185	90.79
254.401	49.83
254.618	111.27
254.835	98.99
255.051	68.27
255.268	107.18
255.484	4.78
255.701	43.69
255.917	64.17
256.134	64.17
256.351	29.35
256.567	35.5
256.784	41.64
257	58.03
257.217	-3.41
257.433	21.16
257.65	105.13
257.866	43.69
258.082	96.94
258.299	55.98
258.515	43.69
258.732	113.32
258.948	64.17
259.165	109.22
259.381	-3.41
259.597	-17.75
259.814	60.07
260.03	47.79
260.246	111.27
260.463	43.69
260.679	84.65
260.895	115.37
261.112	105.13
261.328	90.79
261.544	70.31
261.761	121.51
261.977	98.99
262.193	-40.28
262.409	90.79
262.626	41.64
262.842	49.83
263.058	27.31
263.274	101.03
263.49	41.64
263.707	88.75
263.923	86.7
264.139	64.17
264.355	72.36
264.571	43.69
264.787	101.03
265.004	47.79
265.22	60.07
265.436	90.79
265.652	66.22
265.868	94.89
266.084	-25.94
266.3	84.65
266.516	49.83
266.732	64.17
266.948	166.57
267.164	-1.37
267.38	19.11
267.596	74.41
267.812	19.11
268.028	62.12
268.244	55.98
268.46	103.08
268.676	21.16
268.892	6.83
269.108	12.97
269.324	33.45
269.54	41.64
269.756	111.27
269.972	92.84
270.188	78.51
270.403	88.75
270.619	80.55
270.835	66.22
271.051	45.74
271.267	27.31
271.483	-7.51
271.698	60.07
271.914	146.09
272.13	94.89
272.346	105.13
272.562	15.02
272.777	113.32
272.993	25.26
273.209	162.47
273.425	68.27
273.64	35.5
273.856	72.36
274.072	80.55
274.287	84.65
274.503	96.94
274.719	96.94
274.934	49.83
275.15	23.21
275.366	68.27
275.581	58.03
275.797	88.75
276.012	92.84
276.228	31.4
276.444	17.07
276.659	82.6
276.875	82.6
277.09	90.79
277.306	41.64
277.521	123.56
277.737	105.13
277.952	178.86
278.168	23.21
278.383	107.18
278.599	66.22
278.814	82.6
279.03	88.75
279.245	168.62
279.461	68.27
279.676	68.27
279.892	39.59
280.107	72.36
280.322	29.35
280.538	74.41
280.753	76.46
280.969	55.98
281.184	66.22
281.399	170.66
281.615	78.51
281.83	60.07
282.045	74.41
282.26	111.27
282.476	84.65
282.691	66.22
282.906	33.45
283.122	74.41
283.337	35.5
283.552	78.51
283.767	60.07
283.983	10.92
284.198	86.7
284.413	45.74
284.628	6.83
284.843	72.36
285.058	45.74
285.274	80.55
285.489	58.03
285.704	76.46
285.919	41.64
286.134	105.13
286.349	35.5
286.564	105.13
286.779	90.79
286.995	113.32
287.21	35.5
287.425	72.36
287.64	64.17
287.855	43.69
288.07	66.22
288.285	72.36
288.5	101.03
288.715	103.08
288.93	103.08
289.145	-27.99
289.36	55.98
289.575	43.69
289.79	117.42
290.004	60.07
290.219	51.88
290.434	4.78
290.649	115.37
290.864	64.17
291.079	10.92
291.294	119.46
291.509	51.88
291.724	103.08
291.938	41.64
292.153	78.51
292.368	96.94
292.583	74.41
292.798	127.66
293.012	70.31
293.227	51.88
293.442	88.75
293.657	78.51
293.871	64.17
294.086	55.98
294.301	127.66
294.516	70.31
294.73	41.64
294.945	35.5
295.16	90.79
295.374	0.68
295.589	64.17
295.804	19.11
296.018	8.87
296.233	51.88
296.447	27.31
296.662	66.22
296.877	86.7
297.091	98.99
297.306	15.02
297.52	47.79
297.735	76.46
297.949	66.22
298.164	-5.46
298.378	19.11
298.593	84.65
298.807	125.61
299.022	62.12
299.236	45.74
299.451	84.65
299.665	55.98
299.88	78.51
300.094	60.07
300.309	60.07
300.523	101.03
300.737	62.12
300.952	103.08
301.166	84.65
301.381	25.26
301.595	58.03
301.809	84.65
302.024	10.92
302.238	90.79
302.452	125.61
302.667	70.31
302.881	109.22
303.095	64.17
303.309	70.31
303.524	0.68
303.738	27.31
303.952	27.31
304.166	135.85
304.381	47.79
304.595	125.61
304.809	84.65
305.023	76.46
305.237	51.88
305.452	51.88
305.666	31.4
305.88	19.11
306.094	101.03
306.308	78.51
306.522	101.03
306.736	78.51
306.95	90.79
307.164	84.65
307.379	19.11
307.593	15.02
307.807	51.88
308.021	39.59
308.235	86.7
308.449	35.5
308.663	84.65
308.877	45.74
309.091	82.6
309.305	37.55
309.519	72.36
309.733	96.94
309.947	121.51
310.161	90.79
310.374	107.18
310.588	82.6
310.802	82.6
311.016	84.65
311.23	90.79
311.444	72.36
311.658	19.11
311.872	127.66
312.085	17.07
312.299	76.46
312.513	64.17
312.727	146.09
312.941	29.35
313.154	76.46
313.368	62.12
313.582	64.17
313.796	129.7
314.009	64.17
314.223	58.03
314.437	19.11
314.651	39.59
314.864	90.79
315.078	60.07
315.292	66.22
315.505	62.12
315.719	49.83
315.933	86.7
316.146	51.88
316.36	-1.37
316.573	119.46
316.787	33.45
317.001	101.03
317.214	125.61
317.428	96.94
317.641	131.75
317.855	84.65
318.068	168.62
318.282	160.42
318.495	80.55
318.709	72.36
318.922	76.46
319.136	148.14
319.349	127.66
319.563	92.84
319.776	64.17
319.99	129.7
320.203	94.89
320.417	80.55
320.63	86.7
320.843	105.13
321.057	84.65
321.27	53.93
321.483	33.45
321.697	37.55
321.91	55.98
322.124	119.46
322.337	94.89
322.55	53.93
322.763	55.98
322.977	31.4
323.19	39.59
323.403	70.31
323.617	121.51
323.83	80.55
324.043	58.03
324.256	27.31
324.469	92.84
324.683	23.21
324.896	68.27
325.109	113.32
325.322	6.83
325.535	111.27
325.748	68.27
325.962	74.41
326.175	55.98
326.388	98.99
326.601	80.55
326.814	58.03
327.027	55.98
327.24	137.9
327.453	51.88
327.666	78.51
327.879	98.99
328.092	107.18
328.305	43.69
328.518	33.45
328.731	96.94
328.944	119.46
329.157	109.22
329.37	119.46
329.583	109.22
329.796	58.03
330.009	15.02
330.222	92.84
330.435	76.46
330.648	45.74
330.861	66.22
331.073	133.8
331.286	129.7
331.499	49.83
331.712	80.55
331.925	96.94
332.138	109.22
332.35	88.75
332.563	62.12
332.776	137.9
332.989	15.02
333.202	68.27
333.414	66.22
333.627	37.55
333.84	21.16
334.053	88.75
334.265	84.65
334.478	25.26
334.691	47.79
334.903	121.51
335.116	27.31
335.329	58.03
335.541	78.51
335.754	103.08
335.966	94.89
336.179	41.64
336.392	41.64
336.604	68.27
336.817	29.35
337.029	72.36
337.242	72.36
337.454	31.4
337.667	139.94
337.88	123.56
338.092	156.33
338.305	41.64
338.517	158.38
338.729	62.12
338.942	66.22
339.154	107.18
339.367	17.07
339.579	135.85
339.792	164.52
340.004	64.17
340.217	76.46
340.429	80.55
340.641	101.03
340.854	160.42
341.066	55.98
341.278	82.6
341.491	84.65
341.703	144.04
341.915	90.79
342.128	21.16
342.34	127.66
342.552	70.31
342.764	115.37
342.977	148.14
343.189	25.26
343.401	105.13
343.613	19.11
343.826	64.17
344.038	49.83
344.25	60.07
344.462	68.27
344.674	27.31
344.886	129.7
345.099	78.51
345.311	47.79
345.523	47.79
345.735	51.88
345.947	105.13
346.159	90.79
346.371	55.98
346.583	125.61
346.795	90.79
347.007	144.04
347.219	74.41
347.431	47.79
347.643	76.46
347.855	0.68
348.067	55.98
348.279	94.89
348.491	78.51
348.703	103.08
348.915	123.56
349.127	41.64
349.339	109.22
349.551	31.4
349.763	115.37
349.975	37.55
350.187	84.65
350.399	137.9
350.61	58.03
350.822	86.7
351.034	43.69
351.246	90.79
351.458	111.27
351.669	98.99
351.881	27.31
352.093	92.84
352.305	139.94
352.517	82.6
352.728	19.11
352.94	94.89
353.152	98.99
353.363	55.98
353.575	66.22
353.787	84.65
353.999	53.93
354.21	164.52
354.422	58.03
354.633	-13.65
354.845	109.22
355.057	101.03
355.268	72.36
355.48	119.46
355.692	55.98
355.903	41.64
356.115	146.09
356.326	53.93
356.538	113.32
356.749	72.36
356.961	109.22
357.172	76.46
357.384	86.7
357.595	33.45
357.807	39.59
358.018	150.18
358.23	113.32
358.441	70.31
358.653	88.75
358.864	27.31
359.075	78.51
359.287	84.65
359.498	131.75
359.709	17.07
359.921	27.31
360.132	64.17
360.344	137.9
360.555	107.18
360.766	37.55
360.977	51.88
361.189	101.03
361.4	78.51
361.611	68.27
361.823	105.13
362.034	150.18
362.245	62.12
362.456	92.84
362.667	58.03
362.879	115.37
363.09	39.59
363.301	94.89
363.512	150.18
363.723	35.5
363.935	133.8
364.146	166.57
364.357	109.22
364.568	103.08
364.779	80.55
364.99	166.57
365.201	70.31
365.412	103.08
365.623	21.16
365.834	115.37
366.045	21.16
366.256	141.99
366.467	113.32
366.678	45.74
366.889	82.6
367.1	160.42
367.311	62.12
367.522	49.83
367.733	60.07
367.944	74.41
368.155	86.7
368.366	98.99
368.577	156.33
368.788	37.55
368.999	51.88
369.209	152.23
369.42	117.42
369.631	111.27
369.842	90.79
370.053	135.85
370.264	76.46
370.474	53.93
370.685	129.7
370.896	70.31
371.107	58.03
371.317	117.42
371.528	109.22
371.739	135.85
371.95	125.61
372.16	35.5
372.371	58.03
372.582	158.38
372.792	84.65
373.003	117.42
373.214	98.99
373.424	80.55
373.635	74.41
373.846	164.52
374.056	78.51
374.267	109.22
374.477	0.68
374.688	70.31
374.898	127.66
375.109	31.4
375.319	82.6
375.53	127.66
375.74	107.18
375.951	76.46
376.161	15.02
376.372	160.42
376.582	8.87
376.793	113.32
377.003	80.55
377.214	-5.46
377.424	58.03
377.635	10.92
377.845	92.84
378.055	94.89
378.266	64.17
378.476	94.89
378.686	86.7
378.897	96.94
379.107	92.84
379.317	53.93
379.528	41.64
379.738	92.84
379.948	41.64
380.158	98.99
380.369	78.51
380.579	82.6
380.789	51.88
380.999	96.94
381.21	74.41
381.42	119.46
381.63	82.6
381.84	131.75
382.05	96.94
382.261	70.31
382.471	90.79
382.681	86.7
382.891	121.51
383.101	162.47
383.311	90.79
383.521	101.03
383.731	103.08
383.941	70.31
384.151	53.93
384.361	150.18
384.571	41.64
384.781	55.98
384.991	90.79
385.201	146.09
385.411	113.32
385.621	150.18
385.831	219.82
386.041	119.46
386.251	68.27
386.461	92.84
386.671	90.79
386.881	144.04
387.091	80.55
387.301	33.45
387.511	96.94
387.72	109.22
387.93	150.18
388.14	121.51
388.35	53.93
388.56	154.28
388.769	150.18
388.979	74.41
389.189	78.51
389.399	82.6
389.609	68.27
389.818	174.76
390.028	74.41
390.238	131.75
390.447	78.51
390.657	84.65
390.867	172.71
391.076	92.84
391.286	96.94
391.496	123.56
391.705	129.7
391.915	86.7
392.125	109.22
392.334	109.22
392.544	92.84
392.753	139.94
392.963	135.85
393.172	90.79
393.382	66.22
393.591	223.91
393.801	72.36
394.01	111.27
394.22	115.37
394.429	154.28
394.639	88.75
394.848	107.18
395.058	84.65
395.267	162.47
395.477	164.52
395.686	103.08
395.895	219.82
396.105	152.23
396.314	189.1
396.524	160.42
396.733	103.08
396.942	135.85
397.152	133.8
397.361	133.8
397.57	109.22
397.78	189.1
397.989	139.94
398.198	164.52
398.407	168.62
398.617	105.13
398.826	166.57
399.035	162.47
399.244	170.66
399.453	195.24
399.663	60.07
399.872	139.94
400.081	162.47
400.29	131.75
400.499	94.89
400.708	127.66
400.917	131.75
401.127	141.99
401.336	119.46
401.545	185
401.754	176.81
401.963	160.42
402.172	172.71
402.381	162.47
402.59	172.71
402.799	187.05
403.008	137.9
403.217	113.32
403.426	107.18
403.635	193.19
403.844	146.09
404.053	221.86
404.262	172.71
404.471	148.14
404.68	160.42
404.888	271.01
405.097	178.86
405.306	182.95
405.515	297.64
405.724	205.48
405.933	201.38
406.142	150.18
406.35	119.46
406.559	189.1
406.768	213.67
406.977	240.29
407.185	232.1
407.394	193.19
407.603	244.39
407.812	236.2
408.02	334.5
408.229	320.17
408.438	273.06
408.646	240.29
408.855	225.96
409.064	271.01
409.272	334.5
409.481	348.84
409.69	281.25
409.898	334.5
410.107	393.89
410.315	340.65
410.524	477.86
410.733	397.99
410.941	412.32
411.15	363.17
411.358	424.61
411.567	420.52
411.775	457.38
411.984	428.71
412.192	527.01
412.401	436.9
412.609	547.49
412.818	514.72
413.026	547.49
413.234	578.21
413.443	576.16
413.651	686.75
413.86	656.03
414.068	692.9
414.276	637.6
414.485	711.33
414.693	696.99
414.901	737.95
415.11	686.75
415.318	717.47
415.526	815.77
415.734	783.01
415.943	893.6
416.151	932.51
416.359	938.65
416.567	961.18
416.776	955.04
416.984	989.85
417.192	1053.34
417.4	1067.67
417.608	1127.07
417.817	1071.77
418.025	1100.44
418.233	1219.22
418.441	1239.7
418.649	1311.38
418.857	1301.14
419.065	1419.92
419.273	1247.9
419.481	1370.77
419.689	1477.27
419.897	1524.37
420.105	1688.21
420.313	1751.7
420.521	1708.69
420.729	1706.64
420.937	1735.31
421.145	1839.76
421.353	1919.63
421.561	1903.25
421.769	2042.51
421.977	2091.66
422.185	2149
422.393	2259.59
422.601	2316.94
422.809	2400.9
423.017	2425.48
423.224	2429.57
423.432	2536.07
423.64	2642.56
423.848	2701.95
424.056	2763.39
424.263	2964.09
424.471	2962.05
424.679	3086.97
424.887	3299.96
425.094	3336.82
425.302	3304.06
425.51	3574.39
425.718	3459.7
425.925	3496.57
426.133	3697.27
426.341	3865.2
426.548	4192.87
426.756	4000.37
426.964	4049.52
427.171	4487.78
427.379	4463.21
427.586	4678.24
427.794	4588.13
428.001	4909.66
428.209	5257.82
428.417	5003.87
428.624	5298.78
428.832	5425.75
429.039	5354.07
429.247	5419.61
429.454	5909.07
429.662	6267.47
429.869	5950.03
430.076	6318.67
430.284	6251.08
430.491	6349.39
430.699	6748.74
430.906	6570.57
431.114	6900.29
431.321	7090.75
431.528	7180.86
431.736	7504.44
431.943	8041.01
432.15	7672.37
432.358	7871.03
432.565	8290.86
432.772	8284.72
432.979	8731.17
433.187	8847.91
433.394	8880.68
433.601	9515.55
433.808	9509.4
434.016	9474.59
434.223	10019.35
434.43	10582.54
434.637	10199.57
434.844	10856.97
435.052	11110.91
435.259	10965.51
435.466	11119.1
435.673	11059.71
435.88	11909.62
436.087	12311.02
436.294	12470.76
436.501	12157.43
436.708	12057.07
436.915	12591.59
437.122	13072.87
437.329	13208.03
437.537	13468.13
437.743	13851.1
437.95	13679.07
438.157	14461.39
438.364	15049.16
438.571	14969.29
438.778	15102.4
438.985	16460.21
439.192	16089.53
439.399	16523.69
439.606	15999.41
439.813	16798.12
440.02	18157.97
440.227	17486.24
440.433	17222.05
440.64	17924.51
440.847	17576.35
441.054	18499.98
441.261	19538.3
441.467	19216.77
441.674	19652.99
441.881	19992.95
442.088	19882.36
442.294	20253.05
442.501	20402.55
442.708	20937.07
442.914	21729.63
443.121	22548.82
443.328	22249.82
443.534	23779.65
443.741	22948.17
443.948	22901.07
444.154	24400.18
444.361	24099.13
444.568	24383.8
444.774	24768.82
444.981	24641.84
445.187	25397.54
445.394	26390.81
445.6	26276.12
445.807	28684.53
446.013	27382.02
446.22	27650.31
446.426	29110.51
446.633	29075.69
446.839	30007.52
447.046	28662.01
447.252	30583
447.459	30314.72
447.665	30300.38
447.871	31785.16
448.078	32993.46
448.284	31322.32
448.491	32325.82
448.697	33454.25
448.903	34039.97
449.11	34320.54
449.316	33149.1
449.522	34238.62
449.728	35061.91
449.935	35229.84
450.141	35180.69
450.347	36415.61
450.553	34885.78
450.76	35371.15
450.966	36268.16
451.172	36153.47
451.378	36980.85
451.584	36208.77
451.791	36896.89
451.997	36849.78
452.203	37572.72
452.409	37720.17
452.615	37488.75
452.821	35833.99
453.027	35739.79
453.233	37701.74
453.44	35930.25
453.646	36094.08
453.852	36759.67
454.058	37003.38
454.264	35784.84
454.47	36608.12
454.676	35668.11
454.882	36860.02
455.088	33968.29
455.294	34308.26
455.5	34648.22
455.705	35238.03
455.911	33814.69
456.117	33083.57
456.323	32442.56
456.529	30920.91
456.735	32178.37
456.941	31232.21
457.147	30839
457.352	29731.04
457.558	29864.16
457.764	29700.33
457.97	29210.86
458.176	28545.27
458.381	28543.22
458.587	27136.27
458.793	27044.11
458.999	25973.02
459.204	27672.84
459.41	27029.77
459.616	24713.52
459.821	25018.67
460.027	25088.3
460.233	24523.06
460.438	23157.07
460.644	23556.42
460.85	22471
461.055	22077.79
461.261	22258.01
461.466	20468.08
461.672	19810.68
461.878	21379.43
462.083	19841.4
462.289	19485.06
462.494	19394.95
462.7	18352.53
462.905	17969.56
463.111	18643.34
463.316	18682.25
463.522	18215.32
463.727	18291.09
463.932	18110.87
464.138	17822.11
464.343	18194.84
464.549	17676.7
464.754	17955.22
464.959	18131.35
465.165	17934.74
465.37	17127.85
465.575	16691.63
465.781	17480.1
465.986	17562.01
466.191	16826.79
466.397	16581.04
466.602	15786.43
466.807	16302.51
467.012	16300.47
467.218	16259.51
467.423	16097.72
467.628	16343.47
467.833	16722.35
468.038	16261.55
468.244	15776.19
468.449	16515.5
468.654	16110
468.859	15712.7
469.064	15860.15
469.269	15090.12
469.474	15006.15
469.679	15356.35
469.885	14746.06
470.09	15188.42
470.295	15190.47
470.5	14811.59
470.705	15018.44
470.91	14475.73
471.115	14236.11
471.32	14500.3
471.525	14467.53
471.73	14191.06
471.935	14074.32
472.139	13531.61
472.344	13978.07
472.549	13933.01
472.754	13421.02
472.959	13306.34
473.164	13048.29
473.369	12929.51
473.574	13216.23
473.778	12800.49
473.983	12909.03
474.188	12917.22
474.393	12358.13
474.598	12390.89
474.802	12331.5
475.007	12104.18
475.212	12302.83
475.417	11837.94
475.621	11887.09
475.826	11966.96
476.031	11715.06
476.235	11403.77
476.44	11581.95
476.645	11551.23
476.849	11485.69
477.054	11119.1
477.259	11018.75
477.463	11037.19
477.668	10828.29
477.872	10908.16
478.077	10719.75
478.282	10611.21
478.486	10340.88
478.691	10314.25
478.895	10291.73
479.1	10316.3
479.304	10418.7
479.509	9953.81
479.713	10408.46
479.918	10027.54
480.122	9925.14
480.326	10027.54
480.531	9982.48
480.735	9818.64
480.94	9835.03
481.144	10037.78
481.348	9536.03
481.553	9687.57
481.757	9456.15
481.961	9673.24
482.166	9536.03
482.37	9667.1
482.574	9349.66
482.778	9685.53
482.983	9744.92
483.187	9468.44
483.391	9706.01
483.595	9525.79
483.8	9202.21
484.004	9593.37
484.208	9804.31
484.412	9658.9
484.616	9646.62
484.821	9581.08
485.025	9427.48
485.229	9531.93
485.433	9587.22
485.637	9368.09
485.841	9445.91
486.045	9456.15
486.249	9611.8
486.453	9445.91
486.657	9652.76
486.861	9384.48
487.065	9454.11
487.269	9640.47
487.473	9468.44
487.677	9603.61
487.881	9529.88
488.085	9341.47
488.289	9525.79
488.493	9550.36
488.697	9603.61
488.901	9642.52
489.105	9540.12
489.309	9722.39
489.512	9751.06
489.716	9566.74
489.92	9568.79
490.124	9517.59
490.328	9800.21
490.531	9669.14
490.735	9783.83
490.939	9847.32
491.143	9568.79
491.346	9691.67
491.55	9949.71
491.754	9972.24
491.958	10117.65
492.161	9982.48
492.365	10156.56
492.569	10009.11
492.772	9986.58
492.976	10224.14
493.18	10183.18
493.383	10183.18
493.587	10254.86
493.79	10508.81
493.994	10263.05
494.197	10543.63
494.401	10535.43
494.605	10586.63
494.808	10684.94
495.012	10783.24
495.215	10709.51
495.419	10971.65
495.622	11051.52
495.825	11094.53
496.029	11098.63
496.232	11409.92
496.436	11174.4
496.639	11500.03
496.843	11330.05
497.046	11889.14
497.249	11688.44
497.453	11774.45
497.656	11995.64
497.859	12122.61
498.063	12085.75
498.266	12349.93
498.469	12132.85
498.673	12399.09
498.876	12755.43
499.079	12804.58
499.282	12696.04
499.485	12997.09
499.689	13105.63
499.892	13416.93
500.095	13269.47
500.298	13566.43
500.501	13496.8
500.705	13910.49
500.908	14336.46
501.111	14225.87
501.314	14203.35
501.517	14369.23
501.72	14576.08
501.923	14696.91
502.126	14944.71
502.329	15380.93
502.532	15446.46
502.735	15360.45
502.938	15403.46
503.141	15583.68
503.344	15876.54
503.547	16017.85
503.75	16300.47
503.953	16644.52
504.156	16675.24
504.359	16726.44
504.562	16828.84
504.765	17283.49
504.968	17496.48
505.17	17514.91
505.373	17545.63
505.576	17879.45
505.779	17975.7
505.982	18069.91
506.185	18370.96
506.387	18600.33
506.59	18739.6
506.793	19321.22
506.996	18727.31
507.198	19687.81
507.401	19169.67
507.604	19812.73
507.807	20064.63
508.009	20328.82
508.212	20408.69
508.415	20390.26
508.617	20689.26
508.82	21049.71
509.022	21121.38
509.225	21539.17
509.428	21481.83
509.63	21721.44
509.833	21690.72
510.035	22210.9
510.238	22268.25
510.44	22323.54
510.643	22755.66
510.845	23040.33
511.048	23085.39
511.25	22982.99
511.453	23458.12
511.655	24154.43
511.858	23853.37
512.06	24260.92
512.262	24156.47
512.465	24510.77
512.667	24533.3
512.87	24992.05
513.072	24987.95
513.274	25721.12
513.477	25745.7
513.679	26093.85
513.881	26200.35
514.084	26587.41
514.286	26745.11
514.488	26642.71
514.69	27218.19
514.893	27527.43
515.095	27541.77
515.297	27883.78
515.499	27906.3
515.701	28172.54
515.904	28545.27
516.106	28887.28
516.308	29249.77
516.51	29718.76
516.712	29239.53
516.914	29782.24
517.116	30284
517.318	30322.91
517.52	30157.02
517.722	30638.3
517.925	30843.09
518.127	31090.9
518.329	31414.48
518.531	31310.03
518.733	32051.39
518.935	32024.77
519.136	32172.22
519.338	32753.85
519.54	32999.6
519.742	33190.06
519.944	33190.06
520.146	33661.1
520.348	33890.47
520.55	34033.83
520.752	34121.89
520.954	34748.57
521.155	34664.6
521.357	34945.17
521.559	35025.04
521.761	35872.9
521.963	35696.78
522.164	36139.14
522.366	35805.32
522.568	36233.35
522.77	36243.59
522.971	37097.59
523.173	36579.45
523.375	36941.94
523.576	37093.49
523.778	36913.27
523.98	37394.54
524.181	37722.22
524.383	37933.16
524.584	38559.84
524.786	38340.71
524.988	37994.6
525.189	38580.32
525.391	38940.76
525.592	38758.49
525.794	39157.85
525.995	39213.14
526.197	39434.32
526.398	39190.61
526.6	39575.63
526.801	39790.67
527.003	40063.05
527.204	39751.76
527.406	39987.27
527.607	40095.81
527.808	40556.61
528.01	40167.49
528.211	40562.75
528.412	41140.28
528.614	40912.95
528.815	40867.9
529.016	41121.85
529.218	40699.97
529.419	41564.21
529.62	41236.53
529.822	41148.47
530.023	41349.17
530.224	41295.92
530.425	41535.54
530.626	40921.15
530.828	41422.9
531.029	42170.41
531.23	41254.97
531.431	41150.52
531.632	41410.61
531.833	41760.81
532.035	41623.6
532.236	41838.64
532.437	41848.88
532.638	41715.76
532.839	42094.63
533.04	42213.41
533.241	41553.97
533.442	42704.93
533.643	41650.22
533.844	41701.42
534.045	42405.92
534.246	41873.45
534.447	42405.92
534.648	42151.98
534.849	42070.06
535.05	41959.47
535.251	41979.95
535.451	42242.09
535.652	42377.25
535.853	42244.13
536.054	42618.91
536.255	42020.91
536.456	41941.03
536.657	42778.65
536.857	41848.88
537.058	42237.99
537.259	42676.26
537.46	42596.38
537.66	41898.03
537.861	42012.71
538.062	42176.55
538.263	42524.71
538.463	42029.1
538.664	42192.93
538.865	42084.39
539.065	42725.41
539.266	41824.3
539.466	42373.16
539.667	42180.65
539.868	42326.05
540.068	42268.71
540.269	42317.86
540.469	42213.41
540.67	42178.6
540.87	42020.91
541.071	42354.72
541.271	42184.74
541.472	42074.15
541.672	41631.79
541.873	42242.09
542.073	41537.58
542.274	42213.41
542.474	42209.32
542.675	41766.96
542.875	42502.18
543.075	41752.62
543.276	41834.54
543.476	41938.99
543.676	41429.04
543.877	42440.74
544.077	42020.91
544.277	42035.24
544.478	41738.29
544.678	41879.6
544.878	41826.35
545.078	41852.97
545.279	41617.46
545.479	42022.95
545.679	42006.57
545.879	41644.08
546.079	42143.78
546.28	41457.71
546.48	41357.36
546.68	41984.04
546.88	41795.63
547.08	41799.72
547.28	41410.61
547.48	41244.73
547.68	41820.2
547.88	41297.97
548.081	41836.59
548.281	41908.27
548.481	41809.96
548.681	41670.7
548.881	41351.22
549.081	41594.93
549.28	41744.43
549.48	41910.32
549.68	41646.13
549.88	42190.89
550.08	41697.33
550.28	41930.79
550.48	41386.04
550.68	41998.38
550.88	41547.82
551.08	41400.37
551.279	41592.88
551.479	41437.23
551.679	41726
551.879	41340.98
552.079	41781.29
552.278	41537.58
552.478	41357.36
552.678	41568.3
552.878	41654.32
553.077	41146.42
553.277	41080.89
553.477	41730.09
553.676	41390.13
553.876	41367.6
554.076	41066.55
554.275	41275.44
554.475	40710.21
554.674	41443.38
554.874	41519.15
555.074	41252.92
555.273	41310.26
555.473	41132.09
555.672	41132.09
555.872	41205.81
556.071	41087.03
556.271	41146.42
556.47	40812.6
556.67	40515.65
556.869	40837.18
557.068	40747.07
557.268	40894.52
557.467	40769.6
557.667	40292.42
557.866	40630.33
558.065	40710.21
558.265	40415.3
558.464	40351.81
558.663	40595.52
558.863	40349.76
559.062	40808.51
559.261	40058.95
559.461	40755.26
559.66	39751.76
559.859	40151.11
560.058	40095.81
560.258	40058.95
560.457	39526.48
560.656	40349.76
560.855	40001.61
561.054	40181.83
561.253	39530.58
561.453	40235.08
561.652	39936.07
561.851	40071.24
562.05	39886.92
562.249	39759.95
562.448	40052.81
562.647	40009.8
562.846	39383.12
563.045	39815.24
563.244	39225.43
563.443	39682.13
563.642	39094.36
563.841	39362.64
564.04	39295.06
564.239	39751.76
564.438	39235.67
564.637	39077.97
564.836	39270.48
565.035	38492.26
565.234	38813.79
565.432	38852.7
565.631	38699.1
565.83	38441.06
566.029	38457.44
566.228	38565.98
566.427	38723.68
566.625	38424.67
566.824	37881.96
567.023	38537.31
567.222	38195.3
567.42	38455.39
567.619	38195.3
567.818	38203.49
568.016	37933.16
568.215	38010.98
568.414	37468.27
568.612	37716.08
568.811	37613.68
569.01	37662.83
569.208	37496.94
569.407	37787.75
569.605	37216.37
569.804	37335.15
570.002	37242.99
570.201	37365.87
570.4	37226.61
570.598	36954.23
570.797	36917.37
570.995	37093.49
571.193	36747.39
571.392	36970.61
571.59	36696.19
571.789	36561.02
571.987	36606.08
572.186	36714.62
572.384	36794.49
572.582	36808.82
572.781	36378.75
572.979	36350.08
573.177	36106.37
573.376	36534.4
573.574	35704.97
573.772	36042.88
573.971	35999.88
574.169	35602.57
574.367	35674.25
574.565	35846.28
574.763	35405.97
574.962	35676.3
575.16	35057.81
575.358	35412.11
575.556	35074.2
575.754	35543.18
575.952	35043.48
576.151	35119.25
576.349	34629.79
576.547	34898.07
576.745	34900.12
576.943	35143.83
577.141	34789.53
577.339	34883.73
577.537	34609.31
577.735	34556.06
577.933	34144.42
578.131	34764.95
578.329	34218.14
578.527	33804.45
578.725	34046.12
578.923	33956
579.121	33706.15
579.319	33867.94
579.516	33941.67
579.714	33808.55
579.912	33788.07
580.11	33622.19
580.308	33904.81
580.506	33173.68
580.704	33142.96
580.901	33398.96
581.099	33695.91
581.297	33446.06
581.495	32968.88
581.692	33061.04
581.89	32620.73
582.088	33058.99
582.285	32710.84
582.483	32823.48
582.681	32770.23
582.878	32673.98
583.076	32217.28
583.274	32565.43
583.471	32090.3
583.669	32338.11
583.866	32520.38
584.064	32008.39
584.262	31918.28
584.459	32006.34
584.657	31938.76
584.854	31967.43
585.052	31361.23
585.249	31658.18
585.447	31473.87
585.644	31275.21
585.841	31316.17
586.039	31971.52
586.236	31135.95
586.434	31164.62
586.631	30912.72
586.828	30937.3
587.026	31162.58
587.223	30748.89
587.42	30345.44
587.618	30640.34
587.815	30275.8
588.012	30380.25
588.21	30566.62
588.407	30570.71
588.604	30292.19
588.801	30216.41
588.999	29896.93
589.196	30111.97
589.393	30429.4
589.59	29991.14
589.787	30054.62
589.984	29630.69
590.182	29690.09
590.379	29855.97
590.576	29724.9
590.773	29649.13
590.97	29520.1
591.167	29516.01
591.364	29065.46
591.561	29090.03
591.758	28909.81
591.955	29151.47
592.152	29233.39
592.349	28825.84
592.546	28651.77
592.743	28707.06
592.94	28193.02
593.137	28516.6
593.334	28774.64
593.531	27767.04
593.727	28416.25
593.924	28225.79
594.121	27881.73
594.318	28051.71
594.515	27590.92
594.712	28301.56
594.908	28002.56
595.105	27715.84
595.302	27814.15
595.499	27783.43
595.696	27527.43
595.892	27357.45
596.089	27873.54
596.286	27384.07
596.482	27144.46
596.679	27224.33
596.876	27488.52
597.072	27105.55
597.269	27119.88
597.466	26888.46
597.662	26982.67
597.859	27083.02
598.055	27042.06
598.252	26603.8
598.448	26898.7
598.645	26687.76
598.841	26456.34
599.038	26317.08
599.234	26210.59
599.431	25956.64
599.627	26011.93
599.824	26435.86
600.02	26024.22
600.217	25897.25
600.413	25837.86
600.609	25522.47
600.806	25411.88
601.002	25930.01
601.198	25432.36
601.395	25254.19
601.591	25049.39
601.787	25411.88
601.984	25168.17
602.18	25278.76
602.376	25170.22
602.572	25076.01
602.769	24840.5
602.965	24756.53
603.161	24897.84
603.357	24486.2
603.553	24498.48
603.75	24625.46
603.946	24252.73
604.142	24521.01
604.338	24320.31
604.534	24564.02
604.73	24090.94
604.926	24176.95
605.122	24287.54
605.318	23963.97
605.514	24039.74
605.71	23861.57
605.906	23787.84
606.102	23986.49
606.298	23945.53
606.494	23525.7
606.69	23746.88
606.886	23716.16
607.082	23310.66
607.278	23628.1
607.474	23032.14
607.67	23396.68
607.866	23087.43
608.062	23699.78
608.257	22886.73
608.453	23114.06
608.649	22982.99
608.845	22851.92
609.041	23163.21
609.236	23238.98
609.432	22815.05
609.628	22835.53
609.824	22970.7
610.019	22751.57
610.215	22673.74
610.411	22677.84
610.606	22499.67
610.802	22499.67
610.998	22632.79
611.193	22348.12
611.389	22417.75
611.584	22462.8
611.78	22272.34
611.976	22153.56
612.171	22092.12
612.367	22325.59
612.562	22028.63
612.758	21780.83
612.953	21696.86
613.149	22184.28
613.344	21913.95
613.539	22159.7
613.735	22100.31
613.93	22200.66
614.126	21889.37
614.321	22124.89
614.517	21862.75
614.712	21578.08
614.907	21698.91
615.103	21731.68
615.298	21762.4
615.493	21799.26
615.688	21430.63
615.884	21838.17
616.079	21616.99
616.274	21334.37
616.47	21524.83
616.665	21334.37
616.86	21221.73
617.055	21240.17
617.25	21332.33
617.445	21537.12
617.641	20959.59
617.836	21174.63
618.031	21000.55
618.226	20867.44
618.421	20892.01
618.616	20916.59
618.811	20652.4
619.006	21100.9
619.201	20287.86
619.396	20754.8
619.591	20083.06
619.786	20498.8
619.981	19886.46
620.176	20550
620.371	20191.61
620.566	20502.9
620.761	20224.37
620.956	20306.29
621.151	19714.43
621.346	19855.74
621.541	19667.33
621.735	19790.2
621.93	19523.97
622.125	19595.65
622.32	19337.6
622.515	19067.27
622.709	19229.06
622.904	18966.92
623.099	19020.17
623.294	19138.95
623.488	18674.06
623.683	18966.92
623.878	18411.92
624.072	18467.22
624.267	18620.81
624.462	18575.76
624.656	18239.89
624.851	18307.48
625.046	18086.29
625.24	17703.32
625.435	17695.13
625.629	17912.22
625.824	17662.37
626.018	17736.09
626.213	17256.87
626.407	17449.38
626.602	17220
626.796	17416.61
626.991	17140.13
627.185	17263.01
627.38	16916.9
627.574	16863.66
627.768	16751.02
627.963	16656.81
628.157	16722.35
628.352	16566.7
628.546	16269.75
628.74	16589.23
628.935	16304.56
629.129	16458.16
629.323	16009.65
629.517	16161.2
629.712	15802.81
629.906	16144.82
630.1	15598.01
630.294	15876.54
630.489	15575.49
630.683	15720.89
630.877	15237.57
631.071	15460.8
631.265	15565.25
631.459	15124.93
631.653	15118.79
631.848	15075.78
632.042	14866.89
632.236	14989.77
632.43	15010.25
632.624	14774.73
632.818	14610.89
633.012	14602.7
633.206	14696.91
633.4	14358.99
633.594	14617.04
633.788	14377.42
633.982	14195.15
634.176	14221.78
634.369	14131.67
634.563	14154.19
634.757	13947.35
634.951	13822.42
635.145	13894.1
635.339	13773.27
635.533	13576.67
635.726	13799.9
635.92	13717.98
636.114	13593.05
636.308	13461.98
636.501	13500.89
636.695	13394.4
636.889	13361.63
637.083	13103.59
637.276	13292
637.47	13246.94
637.664	13036
637.857	12970.47
638.051	13033.96
638.244	12655.08
638.438	12777.96
638.632	12468.72
638.825	12351.98
639.019	12323.31
639.212	12448.24
639.406	12599.79
639.599	12397.04
639.793	12319.21
639.986	12268.02
640.18	12321.26
640.373	12214.77
640.567	12018.16
640.76	11973.11
640.954	11905.52
641.147	11856.37
641.34	11725.3
641.534	11852.28
641.727	11811.32
641.92	11684.34
642.114	11575.8
642.307	11436.54
642.5	11368.96
642.694	11336.19
642.887	11401.72
643.08	11217.41
643.273	11080.19
643.467	11065.86
643.66	11061.76
643.853	11129.34
644.046	10951.17
644.239	11049.47
644.432	10811.91
644.626	10842.63
644.819	10723.85
645.012	10422.8
645.205	10727.94
645.398	10607.11
645.591	10557.96
645.784	10488.33
645.977	10263.05
646.17	10283.53
646.363	10332.68
646.556	10142.22
646.749	10099.22
646.942	10240.53
647.135	10074.64
647.328	10361.36
647.521	10123.79
647.714	9771.54
647.907	9916.95
648.099	9632.28
648.292	9779.73
648.485	9722.39
648.678	9746.97
648.871	9546.26
649.064	9464.35
649.256	9574.94
649.449	9554.46
649.642	9400.86
649.835	9314.84
650.027	9286.17
650.22	9239.07
650.413	9179.68
650.605	9220.64
650.798	9241.12
650.991	9015.84
651.183	9071.14
651.376	8929.83
651.568	8962.59
651.761	8841.76
651.954	9056.8
652.146	8927.78
652.339	8817.19
652.531	8718.89
652.724	8604.2
652.916	8620.58
653.109	8550.95
653.301	8530.47
653.494	8391.21
653.686	8403.5
653.879	8397.35
654.071	8319.53
654.263	8153.65
654.456	8395.31
654.648	8307.24
654.84	8258.09
655.033	8227.37
655.225	8069.68
655.417	8165.93
655.61	7934.51
655.802	8090.16
655.994	7907.89
656.186	7817.78
656.379	7944.75
656.571	7770.68
656.763	7744.05
656.955	7813.68
657.148	7707.19
657.34	7701.05
657.532	7473.72
657.724	7668.28
657.916	7592.5
658.108	7477.82
658.3	7479.86
658.492	7592.5
658.684	7342.65
658.876	7502.39
659.068	7465.53
659.26	7483.96
659.452	7242.3
659.644	7250.49
659.836	7113.28
660.028	7285.31
660.22	6992.45
660.412	7082.56
660.604	6902.34
660.796	7332.41
660.988	7141.95
661.18	6953.54
661.372	6785.6
661.563	6926.91
661.755	6826.56
661.947	6894.15
662.139	6720.07
662.331	6836.8
662.522	6771.27
662.714	6765.12
662.906	6619.72
663.097	6703.68
663.289	6689.35
663.481	6691.4
663.673	6576.71
663.864	6423.11
664.056	6394.44
664.247	6384.2
664.439	6251.08
664.631	6365.77
664.822	6380.11
665.014	6300.23
665.205	6398.54
665.397	6304.33
665.588	6208.08
665.78	6150.73
665.971	6255.18
666.163	6152.78
666.354	6064.72
666.546	6003.28
666.737	6206.03
666.929	6122.06
667.12	6060.62
667.311	6083.15
667.503	5870.16
667.694	5888.59
667.885	5755.47
668.077	5902.93
668.268	5800.53
668.459	5958.22
668.651	5689.94
668.842	5753.43
669.033	5593.69
669.224	5628.5
669.416	5683.8
669.607	5681.75
669.798	5599.83
669.989	5560.92
670.18	5542.49
670.371	5587.54
670.563	5395.03
670.754	5542.49
670.945	5368.41
671.136	5323.35
671.327	5440.09
671.518	5290.59
671.709	5294.68
671.9	5313.11
672.091	5401.18
672.282	5270.11
672.473	5266.01
672.664	5329.5
672.855	5370.46
673.046	5112.41
673.237	5278.3
673.428	5071.45
673.619	5274.2
673.809	5180
674	4995.68
674.191	5177.95
674.382	5032.54
674.573	5114.46
674.764	4964.96
674.954	5200.48
675.145	4829.79
675.336	5124.7
675.527	4876.9
675.717	4880.99
675.908	4948.58
676.099	4919.9
676.289	4967.01
676.48	4856.42
676.671	4944.48
676.861	4944.48
677.052	4747.87
677.243	4684.39
677.433	4817.51
677.624	4868.7
677.814	4698.72
678.005	4901.47
678.195	4833.89
678.386	4786.79
678.576	4749.92
678.767	4727.39
678.957	4571.75
679.148	4786.79
679.338	4719.2
679.529	4631.14
679.719	4647.52
679.909	4711.01
680.1	4510.31
680.29	4747.87
680.481	4649.57
680.671	4557.41
680.861	4549.22
681.052	4502.12
681.242	4571.75
681.432	4637.28
681.622	4463.21
681.813	4352.62
682.003	4403.82
682.193	4432.49
682.383	4483.69
682.573	4377.19
682.764	4448.87
682.954	4401.77
683.144	4495.97
683.334	4375.14
683.524	4387.43
683.714	4366.95
683.904	4305.51
684.094	4311.66
684.284	4301.42
684.474	4414.06
684.664	4270.7
684.854	4289.13
685.044	4203.11
685.234	4209.26
685.424	4354.66
685.614	4178.54
685.804	4156.01
685.994	4211.31
686.184	4221.55
686.374	4254.31
686.564	4076.14
686.753	4188.78
686.943	4115.05
687.133	4291.18
687.323	4045.42
687.513	4094.57
687.702	4145.77
687.892	4063.85
688.082	4026.99
688.272	3988.08
688.461	3900.02
688.651	3891.82
688.841	3914.35
689.03	3953.26
689.22	3844.72
689.41	4022.89
689.599	3879.54
689.789	3781.23
689.979	3732.08
690.168	3770.99
690.358	3809.9
690.547	3836.53
690.737	3725.94
690.926	3768.95
691.116	3684.98
691.305	3699.31
691.495	3748.47
691.684	3666.55
691.874	3666.55
692.063	3695.22
692.252	3689.07
692.442	3627.64
692.631	3678.83
692.82	3611.25
693.01	3496.57
693.199	3531.38
693.388	3457.65
693.578	3498.61
693.767	3560.05
693.956	3392.12
694.146	3467.89
694.335	3410.55
694.524	3465.85
694.713	3334.78
694.902	3371.64
695.092	3353.21
695.281	3437.17
695.47	3379.83
695.659	3250.81
695.848	3299.96
696.037	3293.82
696.226	3451.51
696.415	3267.19
696.604	3244.67
696.793	3246.71
696.982	3310.2
697.171	3148.41
697.36	3236.47
697.549	3132.03
697.738	2947.71
697.927	3215.99
698.116	3148.41
698.305	3115.64
698.494	3074.68
698.683	3132.03
698.872	3205.75
699.061	3095.16
699.25	3021.44
699.438	3007.1
699.627	3109.5
699.816	3072.64
700.005	3070.59
700.193	3175.03
700.382	3011.2
700.571	2984.57
700.76	2968.19
700.948	3058.3
701.137	2953.85
701.326	3115.64
701.514	3015.29
701.703	2978.43
701.892	2939.52
702.08	3000.96
702.269	3013.24
702.457	2904.7
702.646	2847.36
702.834	2972.29
703.023	2914.94
703.212	2890.37
703.4	2859.65
703.589	3017.34
703.777	2900.61
703.965	2916.99
704.154	2888.32
704.342	2900.61
704.531	2914.94
704.719	2792.06
704.907	2828.93
705.096	2904.7
705.284	2824.83
705.472	2777.73
705.661	2851.46
705.849	2835.07
706.037	2787.97
706.226	2822.78
706.414	2898.56
706.602	2761.34
706.79	2894.46
706.979	2816.64
707.167	2839.17
707.355	2677.38
707.543	2884.22
707.731	2820.74
707.919	2710.15
708.107	2820.74
708.296	2677.38
708.484	2734.72
708.672	2882.17
708.86	2749.06
709.048	2820.74
709.236	2779.78
709.424	2771.58
709.612	2783.87
709.8	2697.86
709.988	2878.08
710.176	2734.72
710.364	2769.54
710.551	2785.92
710.739	2790.02
710.927	2693.76
711.115	2738.82
711.303	2675.33
711.491	2732.67
711.679	2677.38
711.866	2665.09
712.054	2771.58
712.242	2749.06
712.43	2859.65
712.617	2800.26
712.805	2837.12
712.993	2654.85
713.181	2587.27
713.368	2785.92
713.556	2712.19
713.744	2562.69
713.931	2697.86
714.119	2689.67
714.306	2615.94
714.494	2685.57
714.682	2822.78
714.869	2636.42
715.057	2667.14
715.244	2601.6
715.432	2714.24
715.619	2644.61
715.807	2710.15
715.994	2642.56
716.182	2622.08
716.369	2779.78
716.556	2685.57
716.744	2681.47
716.931	2562.69
717.119	2617.99
717.306	2708.1
717.493	2613.89
717.681	2646.66
717.868	2636.42
718.055	2646.66
718.242	2693.76
718.43	2724.48
718.617	2742.91
718.804	2626.18
718.991	2677.38
719.179	2640.51
719.366	2665.09
719.553	2642.56
719.74	2560.64
719.927	2724.48
720.114	2642.56
720.301	2620.03
720.488	2603.65
720.676	2630.27
720.863	2581.12
721.05	2671.23
721.237	2579.08
721.424	2550.4
721.611	2572.93
721.798	2562.69
721.985	2480.77
722.172	2726.53
722.358	2579.08
722.545	2652.8
722.732	2620.03
722.919	2828.93
723.106	2611.84
723.293	2730.62
723.48	2708.1
723.667	2568.84
723.853	2542.21
724.04	2542.21
724.227	2613.89
724.414	2669.19
724.6	2636.42
724.787	2630.27
724.974	2648.71
725.161	2544.26
725.347	2493.06
725.534	2630.27
725.72	2579.08
725.907	2562.69
726.094	2718.34
726.28	2601.6
726.467	2601.6
726.653	2790.02
726.84	2665.09
727.027	2601.6
727.213	2642.56
727.4	2777.73
727.586	2626.18
727.773	2544.26
727.959	2609.79
728.145	2603.65
728.332	2630.27
728.518	2609.79
728.705	2751.1
728.891	2646.66
729.077	2605.7
729.264	2550.4
729.45	2714.24
729.636	2566.79
729.823	2660.99
730.009	2701.95
730.195	2624.13
730.382	2726.53
730.568	2595.46
730.754	2710.15
730.94	2636.42
731.126	2796.16
731.313	2628.23
731.499	2591.36
731.685	2677.38
731.871	2665.09
732.057	2656.9
732.243	2693.76
732.429	2706.05
732.615	2667.14
732.801	2677.38
732.987	2681.47
733.173	2783.87
733.359	2636.42
733.545	2529.92
733.731	2749.06
733.917	2697.86
734.103	2652.8
734.289	2658.95
734.475	2663.04
734.661	2708.1
734.847	2755.2
735.033	2699.91
735.219	2722.43
735.404	2626.18
735.59	2732.67
735.776	2660.99
735.962	2792.06
736.148	2704
736.333	2622.08
736.519	2638.47
736.705	2757.25
736.89	2693.76
737.076	2624.13
737.262	2624.13
737.447	2699.91
737.633	2679.43
737.819	2656.9
738.004	2718.34
738.19	2720.39
738.375	2620.03
738.561	2601.6
738.747	2724.48
738.932	2691.71
739.118	2648.71
739.303	2787.97
739.489	2701.95
739.674	2585.22
739.859	2587.27
740.045	2574.98
740.23	2572.93
740.416	2570.88
740.601	2593.41
740.786	2544.26
740.972	2572.93
741.157	2689.67
741.342	2488.96
741.528	2609.79
741.713	2611.84
741.898	2525.83
742.084	2503.3
742.269	2505.35
742.454	2525.83
742.639	2593.41
742.824	2499.2
743.01	2538.12
743.195	2509.44
743.38	2484.87
743.565	2474.63
743.75	2441.86
743.935	2503.3
744.12	2579.08
744.305	2466.44
744.49	2476.68
744.675	2298.5
744.86	2636.42
745.045	2468.48
745.23	2441.86
745.415	2441.86
745.6	2437.77
745.785	2400.9
745.97	2454.15
746.155	2245.26
746.34	2390.66
746.525	2308.74
746.71	2370.18
746.895	2411.14
747.079	2392.71
747.264	2302.6
747.449	2194.06
747.634	2341.51
747.819	2290.31
748.003	2204.3
748.188	2235.02
748.373	2208.39
748.557	2189.96
748.742	2118.28
748.927	2189.96
749.111	2204.3
749.296	2302.6
749.481	2073.23
749.665	2099.85
749.85	2112.14
750.034	2097.8
750.219	2142.86
750.404	2140.81
750.588	2120.33
750.773	2075.27
750.957	2099.85
751.141	1989.26
751.326	2118.28
751.51	2065.04
751.695	2054.8
751.879	2062.99
752.064	2091.66
752.248	2026.12
752.432	1919.63
752.617	2015.88
752.801	1954.44
752.985	1927.82
753.17	1876.62
753.354	2005.64
753.538	1890.96
753.722	1890.96
753.907	1901.2
754.091	1796.75
754.275	1886.86
754.459	1880.72
754.643	1702.54
754.828	1915.53
755.012	1884.81
755.196	1770.13
755.38	1737.36
755.564	1665.68
755.748	1770.13
755.932	1761.94
756.116	1700.5
756.3	1706.64
756.484	1637.01
756.668	1643.15
756.852	1690.26
757.036	1614.48
757.22	1647.25
757.404	1641.11
757.588	1567.38
757.772	1712.78
757.956	1505.94
758.14	1550.99
758.323	1583.76
758.507	1594
758.691	1497.75
758.875	1557.14
759.059	1669.78
759.242	1460.88
759.426	1575.57
759.61	1546.9
759.794	1532.56
759.977	1573.52
760.161	1563.28
760.345	1585.81
760.528	1415.83
760.712	1491.6
760.895	1485.46
761.079	1485.46
761.263	1452.69
761.446	1413.78
761.63	1520.28
761.813	1440.4
761.997	1454.74
762.18	1438.36
762.364	1467.03
762.547	1368.73
762.731	1520.28
762.914	1405.59
763.098	1464.98
763.281	1323.67
763.464	1479.32
763.648	1362.58
763.831	1315.48
764.015	1333.91
764.198	1338.01
764.381	1256.09
764.564	1368.73
764.748	1321.62
764.931	1329.81
765.114	1356.44
765.297	1272.47
765.481	1251.99
765.664	1231.51
765.847	1352.34
766.03	1274.52
766.213	1264.28
766.397	1303.19
766.58	1280.66
766.763	1288.85
766.946	1327.77
767.129	1172.12
767.312	1307.29
767.495	1221.27
767.678	1340.05
767.861	1272.47
768.044	1206.94
768.227	1286.81
768.41	1196.7
768.593	1174.17
768.776	1272.47
768.959	1178.26
769.142	1208.98
769.324	1243.8
769.507	1135.26
769.69	1129.11
769.873	1208.98
770.056	1268.38
770.239	1213.08
770.421	1241.75
770.604	1215.13
770.787	1198.74
770.97	1118.87
771.152	1135.26
771.335	1096.35
771.518	1133.21
771.7	1092.25
771.883	1137.31
772.066	1092.25
772.248	1120.92
772.431	1143.45
772.613	1047.19
772.796	1036.95
772.978	1116.83
773.161	1118.87
773.343	1024.67
773.526	1057.43
773.708	1039
773.891	1008.28
774.073	996
774.256	1022.62
774.438	1057.43
774.621	989.85
774.803	1077.91
774.985	1065.63
775.168	934.56
775.35	979.61
775.532	1018.52
775.715	942.75
775.897	1020.57
776.079	963.23
776.261	901.79
776.444	973.47
776.626	1022.62
776.808	942.75
776.99	977.56
777.173	897.69
777.355	963.23
777.537	838.3
777.719	850.59
777.901	879.26
778.083	811.68
778.265	877.21
778.447	854.69
778.629	789.15
778.811	936.6
778.993	871.07
779.175	907.93
779.357	780.96
779.539	909.98
779.721	850.59
779.903	774.81
780.085	719.52
780.267	801.44
780.449	881.31
780.631	830.11
780.812	830.11
780.994	690.85
781.176	699.04
781.358	727.71
781.54	774.81
781.721	740
781.903	764.57
782.085	746.14
782.267	795.29
782.448	703.14
782.63	713.38
782.812	676.51
782.993	604.83
783.175	760.48
783.357	705.18
783.538	737.95
783.72	668.32
783.901	676.51
784.083	729.76
784.264	670.37
784.446	631.46
784.627	627.36
784.809	584.35
784.99	627.36
785.172	627.36
785.353	623.27
785.535	645.79
785.716	631.46
785.897	572.07
786.079	649.89
786.26	584.35
786.441	658.08
786.623	637.6
786.804	633.5
786.985	633.5
787.167	590.5
787.348	578.21
787.529	522.91
787.71	637.6
787.891	633.5
788.073	563.87
788.254	598.69
788.435	553.63
788.616	522.91
788.797	555.68
788.978	610.98
789.159	455.33
789.34	520.87
789.522	488.1
789.703	537.25
789.884	565.92
790.065	510.63
790.246	508.58
790.427	469.67
790.607	514.72
790.788	447.14
790.969	522.91
791.15	543.39
791.331	490.15
791.512	428.71
791.693	436.9
791.874	422.56
792.054	428.71
792.235	400.04
792.416	432.8
792.597	516.77
792.778	463.52
792.958	520.87
793.139	500.39
793.32	449.19
793.5	410.28
793.681	574.11
793.862	424.61
794.042	496.29
794.223	426.66
794.404	412.32
794.584	424.61
794.765	408.23
794.945	404.13
795.126	455.33
795.306	348.84
795.487	367.27
795.667	451.24
795.848	365.22
796.028	459.43
796.209	389.8
796.389	412.32
796.57	447.14
796.75	426.66
796.93	434.85
797.111	414.37
797.291	389.8
797.471	416.42
797.652	397.99
797.832	412.32
798.012	406.18
798.192	391.84
798.373	373.41
798.553	445.09
798.733	322.21
798.913	363.17
799.093	389.8
799.274	422.56
799.454	426.66
799.634	424.61
799.814	387.75
799.994	377.51
800.174	404.13
800.354	352.93
800.534	291.49
800.714	307.88
800.894	412.32
801.074	228.01
801.254	367.27
801.434	406.18
801.614	322.21
801.794	326.31
801.974	602.79
802.154	344.74
802.334	342.69
802.514	326.31
802.693	334.5
802.873	275.11
803.053	391.84
803.233	377.51
803.413	328.36
803.592	340.65
803.772	295.59
803.952	322.21
804.131	357.03
804.311	158.38
804.491	344.74
804.67	307.88
804.85	322.21
805.03	324.26
805.209	338.6
805.389	367.27
805.568	354.98
805.748	299.69
805.928	299.69
806.107	412.32
806.287	289.45
806.466	228.01
806.646	324.26
806.825	264.87
807.004	275.11
807.184	332.45
807.363	367.27
807.543	324.26
807.722	248.49
807.901	314.02
808.081	281.25
808.26	328.36
808.439	311.97
808.619	338.6
808.798	230.06
808.977	318.12
809.156	268.97
809.336	281.25
809.515	330.41
809.694	260.77
809.873	293.54
810.052	199.34
810.231	287.4
810.411	146.09
810.59	230.06
810.769	193.19
810.948	260.77
811.127	260.77
811.306	193.19
811.485	211.62
811.664	268.97
811.843	254.63
812.022	158.38
812.201	244.39
812.38	248.49
812.559	207.53
812.737	281.25
812.916	262.82
813.095	277.16
813.274	264.87
813.453	228.01
813.632	240.29
813.811	303.78
813.989	228.01
814.168	268.97
814.347	168.62
814.526	260.77
814.704	273.06
814.883	164.52
815.062	199.34
815.24	174.76
815.419	209.58
815.598	232.1
815.776	164.52
815.955	281.25
816.133	166.57
816.312	209.58
816.49	203.43
816.669	238.25
816.847	201.38
817.026	193.19
817.204	191.14
817.383	217.77
817.561	152.23
817.74	244.39
817.918	158.38
818.097	215.72
818.275	166.57
818.453	230.06
818.632	230.06
818.81	174.76
818.988	213.67
819.167	228.01
819.345	207.53
819.523	191.14
819.701	215.72
819.879	242.34
820.058	187.05
820.236	271.01
820.414	228.01
820.592	117.42
820.77	178.86
820.948	137.9
821.127	209.58
821.305	195.24
821.483	154.28
821.661	225.96
821.839	215.72
822.017	125.61
822.195	213.67
822.373	203.43
822.551	172.71
822.729	164.52
822.907	248.49
823.085	193.19
823.262	150.18
823.44	191.14
823.618	141.99
823.796	195.24
823.974	266.92
824.152	131.75
824.329	146.09
824.507	141.99
824.685	158.38
824.863	223.91
825.04	180.9
825.218	283.3
825.396	256.68
825.574	139.94
825.751	150.18
825.929	199.34
826.107	223.91
826.284	156.33
826.462	154.28
826.639	139.94
826.817	174.76
826.994	137.9
827.172	125.61
827.349	193.19
827.527	139.94
827.704	166.57
827.882	156.33
828.059	240.29
828.237	160.42
828.414	152.23
828.591	35.5
828.769	135.85
828.946	135.85
829.124	160.42
829.301	178.86
829.478	111.27
829.655	141.99
829.833	92.84
830.01	98.99
830.187	232.1
830.364	191.14
830.542	88.75
830.719	191.14
830.896	146.09
831.073	92.84
831.25	125.61
831.427	160.42
831.604	125.61
831.782	197.29
831.959	174.76
832.136	117.42
832.313	162.47
832.49	129.7
832.667	178.86
832.844	139.94
833.021	133.8
833.198	125.61
833.374	129.7
833.551	182.95
833.728	150.18
833.905	127.66
834.082	111.27
834.259	135.85
834.436	162.47
834.612	94.89
834.789	182.95
834.966	139.94
835.143	178.86
835.319	146.09
835.496	82.6
835.673	203.43
835.85	187.05
836.026	115.37
836.203	141.99
836.38	193.19
836.556	113.32
836.733	115.37
836.909	160.42
837.086	74.41
837.262	123.56
837.439	141.99
837.616	103.08
837.792	105.13
837.968	133.8
838.145	121.51
838.321	135.85
838.498	86.7
838.674	139.94
838.851	148.14
839.027	90.79
839.203	111.27
839.38	129.7
839.556	129.7
839.732	146.09
839.909	121.51
840.085	72.36
840.261	96.94
840.437	101.03
840.614	86.7
840.79	115.37
840.966	141.99
841.142	70.31
841.318	127.66
841.494	119.46
841.671	137.9
841.847	101.03
842.023	49.83
842.199	96.94
842.375	84.65
842.551	74.41
842.727	25.26
842.903	123.56
843.079	55.98
843.255	137.9
843.431	166.57
843.607	187.05
843.783	101.03
843.959	144.04
844.134	94.89
844.31	195.24
844.486	113.32
844.662	96.94
844.838	125.61
845.013	156.33
845.189	137.9
845.365	88.75
845.541	47.79
845.716	125.61
845.892	150.18
846.068	62.12
846.244	139.94
846.419	0.68
846.595	39.59
846.77	88.75
846.946	55.98
847.122	84.65
847.297	60.07
847.473	64.17
847.648	78.51
847.824	121.51
847.999	86.7
848.175	133.8
848.35	55.98
848.526	68.27
848.701	156.33
848.876	103.08
849.052	109.22
849.227	98.99
849.403	109.22
849.578	107.18
849.753	119.46
849.929	62.12
850.104	35.5
850.279	113.32
850.454	139.94
850.63	80.55
850.805	76.46
850.98	107.18
851.155	60.07
851.33	127.66
851.505	53.93
851.681	172.71
851.856	-3.41
852.031	117.42
852.206	103.08
852.381	45.74
852.556	41.64
852.731	74.41
852.906	37.55
853.081	101.03
853.256	129.7
853.431	123.56
853.606	84.65
853.781	78.51
853.956	-25.94
854.131	105.13
854.305	31.4
854.48	98.99
854.655	117.42
854.83	88.75
855.005	74.41
855.18	31.4
855.354	90.79
855.529	123.56
855.704	58.03
855.879	84.65
856.053	68.27
856.228	78.51
856.403	84.65
856.577	94.89
856.752	90.79
856.926	43.69
857.101	88.75
857.276	80.55
857.45	123.56
857.625	133.8
857.799	39.59
857.974	74.41
858.148	70.31
858.323	80.55
858.497	2.73
858.672	170.66
858.846	80.55
859.02	109.22
859.195	92.84
859.369	133.8
859.543	129.7
859.718	101.03
859.892	137.9
860.066	94.89
860.241	47.79
860.415	-9.56
860.589	51.88
860.763	70.31
860.938	31.4
861.112	55.98
861.286	76.46
861.46	62.12
861.634	29.35
861.808	58.03
861.982	-1.37
862.157	37.55
862.331	-9.56
862.505	33.45
862.679	21.16
862.853	103.08
863.027	49.83
863.201	139.94
863.375	35.5
863.549	113.32
863.722	96.94
863.896	78.51
864.07	-25.94
864.244	15.02
864.418	53.93
864.592	37.55
864.766	84.65
864.939	47.79
865.113	8.87
865.287	92.84
865.461	129.7
865.634	70.31
865.808	60.07
865.982	121.51
866.156	66.22
866.329	-9.56
866.503	49.83
866.676	82.6
866.85	113.32
867.024	53.93
867.197	88.75
867.371	49.83
867.544	84.65
867.718	55.98
867.891	55.98
868.065	-19.8
868.238	119.46
868.412	80.55
868.585	98.99
868.759	58.03
868.932	10.92
869.105	37.55
869.279	80.55
869.452	45.74
869.625	39.59
869.799	92.84
869.972	12.97
870.145	31.4
870.319	72.36
870.492	96.94
870.665	76.46
870.838	23.21
871.011	33.45
871.185	60.07
871.358	21.16
871.531	72.36
871.704	58.03
871.877	98.99
872.05	-38.23
872.223	90.79
872.396	84.65
872.569	80.55
872.742	19.11
872.915	86.7
873.088	25.26
873.261	64.17
873.434	51.88
873.607	68.27
873.78	41.64
873.953	-64.85
874.126	117.42
874.299	10.92
874.471	15.02
874.644	86.7
874.817	88.75
874.99	68.27
875.163	60.07
875.335	78.51
875.508	49.83
875.681	2.73
875.853	33.45
876.026	76.46
876.199	58.03
876.371	76.46
876.544	70.31
876.717	29.35
876.889	78.51
877.062	0.68
877.234	72.36
877.407	37.55
877.579	27.31
877.752	27.31
877.924	82.6
878.097	62.12
878.269	70.31
878.442	15.02
878.614	53.93
878.786	60.07
878.959	129.7
879.131	103.08
879.303	12.97
879.476	76.46
879.648	51.88
879.82	23.21
879.993	-50.52
880.165	55.98
880.337	55.98
880.509	-15.7
880.681	129.7
880.854	6.83
881.026	92.84
881.198	53.93
881.37	62.12
881.542	90.79
881.714	33.45
881.886	62.12
882.058	92.84
882.23	84.65
882.402	117.42
882.574	94.89
882.746	45.74
882.918	72.36
883.09	-7.51
883.262	12.97
883.434	82.6
883.606	-17.75
883.778	45.74
883.95	74.41
884.122	-1.37
884.293	113.32
884.465	86.7
884.637	80.55
884.809	17.07
884.98	58.03
885.152	64.17
885.324	-11.61
885.496	101.03
885.667	33.45
885.839	35.5
886.011	39.59
886.182	23.21
886.354	58.03
886.525	49.83
886.697	92.84
886.869	-32.08
887.04	29.35
887.212	51.88
887.383	156.33
887.555	137.9
887.726	60.07
887.897	-71
888.069	51.88
888.24	31.4
888.412	51.88
888.583	25.26
888.754	21.16
888.926	10.92
889.097	-34.13
889.268	-32.08
889.44	94.89
889.611	45.74
889.782	43.69
889.953	68.27
890.125	58.03
890.296	60.07
890.467	31.4
890.638	55.98
890.809	107.18
890.98	-9.56
891.151	103.08
891.323	51.88
891.494	47.79
891.665	27.31
891.836	10.92
892.007	17.07
892.178	37.55
892.349	92.84
892.52	39.59
892.691	62.12
892.862	35.5
893.032	29.35
893.203	127.66
893.374	23.21
893.545	84.65
893.716	55.98
893.887	101.03
894.057	43.69
894.228	23.21
894.399	-38.23
894.57	72.36
894.74	23.21
894.911	60.07
895.082	80.55
895.253	2.73
895.423	76.46
895.594	82.6
895.764	27.31
895.935	98.99
896.106	47.79
896.276	35.5
896.447	94.89
896.617	-27.99
896.788	33.45
896.958	27.31
897.129	31.4
897.299	25.26
897.47	58.03
897.64	96.94
897.81	-23.89
897.981	103.08
898.151	0.68
898.322	15.02
898.492	51.88
898.662	49.83
898.832	64.17
899.003	15.02
899.173	25.26
899.343	94.89
899.513	45.74
