Data from USB4F104151__278__11-12-49-350.txt Node

Date: Wed Mar 12 11:12:49 EDT 2025
User: louis
Spectrometer: USB4F10415
Trigger mode: 4
Integration Time (sec): 2.000000E-2
Scans to average: 1
Electric dark correction enabled: true
Nonlinearity correction enabled: false
Boxcar width: 0
XAxis mode: Wavelengths
Number of Pixels in Spectrum: 3648
>>>>>Begin Spectral Data<<<<<
178.204	-101.37
178.424	-101.37
178.644	-101.37
178.864	-117.76
179.084	-25.6
179.304	-9.22
179.524	-1.02
179.744	-60.42
179.964	64.51
180.184	103.42
180.404	11.26
180.624	11.26
180.844	-17.41
181.064	-29.7
181.283	13.31
181.503	-95.23
181.723	9.22
181.943	-23.55
182.163	39.94
182.383	-89.09
182.602	-9.22
182.822	-11.26
183.042	33.79
183.262	-1.02
183.482	-7.17
183.701	44.03
183.921	37.89
184.141	-66.56
184.361	41.98
184.58	48.13
184.8	46.08
185.02	46.08
185.239	-1.02
185.459	60.42
185.679	64.51
185.898	1.02
186.118	50.18
186.338	41.98
186.557	37.89
186.777	5.12
186.997	-17.41
187.216	29.7
187.436	41.98
187.655	27.65
187.875	27.65
188.095	54.27
188.314	29.7
188.534	17.41
188.753	41.98
188.973	-29.7
189.192	-3.07
189.412	13.31
189.631	56.32
189.851	19.46
190.07	29.7
190.29	62.46
190.509	1.02
190.729	11.26
190.948	50.18
191.168	44.03
191.387	58.37
191.607	37.89
191.826	-54.27
192.045	-39.94
192.265	27.65
192.484	-17.41
192.704	64.51
192.923	11.26
193.142	68.61
193.362	66.56
193.581	87.04
193.8	89.09
194.02	82.94
194.239	-3.07
194.458	13.31
194.678	19.46
194.897	-15.36
195.116	70.65
195.335	29.7
195.555	58.37
195.774	56.32
195.993	74.75
196.212	48.13
196.432	11.26
196.651	54.27
196.87	-27.65
197.089	68.61
197.308	105.47
197.528	-54.27
197.747	7.17
197.966	25.6
198.185	-27.65
198.404	3.07
198.623	46.08
198.842	-23.55
199.062	58.37
199.281	5.12
199.5	82.94
199.719	23.55
199.938	117.76
200.157	56.32
200.376	44.03
200.595	101.37
200.814	11.26
201.033	11.26
201.252	115.71
201.471	93.18
201.69	91.13
201.909	-11.26
202.128	29.7
202.347	17.41
202.566	-37.89
202.785	3.07
203.004	-68.61
203.223	101.37
203.442	123.9
203.661	74.75
203.879	84.99
204.098	99.33
204.317	39.94
204.536	31.74
204.755	46.08
204.974	29.7
205.193	19.46
205.411	3.07
205.63	74.75
205.849	58.37
206.068	68.61
206.287	-27.65
206.505	-3.07
206.724	66.56
206.943	-27.65
207.162	11.26
207.381	29.7
207.599	64.51
207.818	35.84
208.037	-27.65
208.255	1.02
208.474	-25.6
208.693	72.7
208.911	41.98
209.13	-29.7
209.349	46.08
209.567	37.89
209.786	7.17
210.005	93.18
210.223	-9.22
210.442	-19.46
210.661	13.31
210.879	41.98
211.098	35.84
211.316	48.13
211.535	66.56
211.753	33.79
211.972	5.12
212.191	21.5
212.409	17.41
212.628	-5.12
212.846	87.04
213.065	-23.55
213.283	111.61
213.502	-11.26
213.72	5.12
213.938	76.8
214.157	25.6
214.375	44.03
214.594	48.13
214.812	48.13
215.031	119.81
215.249	60.42
215.467	31.74
215.686	7.17
215.904	-5.12
216.122	35.84
216.341	21.5
216.559	-35.84
216.778	21.5
216.996	13.31
217.214	-27.65
217.432	-19.46
217.651	74.75
217.869	37.89
218.087	13.31
218.306	29.7
218.524	74.75
218.742	-50.18
218.96	87.04
219.179	41.98
219.397	3.07
219.615	95.23
219.833	-3.07
220.051	56.32
220.27	76.8
220.488	74.75
220.706	1.02
220.924	44.03
221.142	11.26
221.36	-11.26
221.578	21.5
221.796	29.7
222.015	-31.74
222.233	82.94
222.451	23.55
222.669	5.12
222.887	54.27
223.105	-19.46
223.323	56.32
223.541	-15.36
223.759	107.52
223.977	-19.46
224.195	37.89
224.413	13.31
224.631	76.8
224.849	39.94
225.067	82.94
225.285	-19.46
225.503	48.13
225.721	-39.94
225.939	52.22
226.157	31.74
226.375	91.13
226.592	13.31
226.81	56.32
227.028	-7.17
227.246	21.5
227.464	46.08
227.682	25.6
227.9	64.51
228.117	35.84
228.335	17.41
228.553	9.22
228.771	-31.74
228.989	21.5
229.206	50.18
229.424	-3.07
229.642	-80.89
229.86	-46.08
230.077	41.98
230.295	58.37
230.513	58.37
230.731	58.37
230.948	17.41
231.166	17.41
231.384	-27.65
231.601	33.79
231.819	62.46
232.037	11.26
232.254	11.26
232.472	68.61
232.689	-23.55
232.907	72.7
233.125	62.46
233.342	60.42
233.56	29.7
233.777	-1.02
233.995	54.27
234.213	33.79
234.43	-31.74
234.648	-21.5
234.865	9.22
235.083	19.46
235.3	27.65
235.518	158.72
235.735	13.31
235.953	37.89
236.17	21.5
236.388	123.9
236.605	17.41
236.822	-1.02
237.04	23.55
237.257	31.74
237.475	64.51
237.692	70.65
237.909	64.51
238.127	15.36
238.344	3.07
238.562	37.89
238.779	3.07
238.996	31.74
239.214	64.51
239.431	89.09
239.648	-7.17
239.865	-5.12
240.083	87.04
240.3	76.8
240.517	-7.17
240.735	62.46
240.952	46.08
241.169	37.89
241.386	56.32
241.603	113.66
241.821	-13.31
242.038	66.56
242.255	107.52
242.472	9.22
242.689	13.31
242.907	44.03
243.124	-3.07
243.341	-15.36
243.558	-15.36
243.775	64.51
243.992	23.55
244.209	72.7
244.426	33.79
244.643	-15.36
244.86	11.26
245.078	107.52
245.295	11.26
245.512	-5.12
245.729	27.65
245.946	17.41
246.163	107.52
246.38	54.27
246.597	19.46
246.814	5.12
247.031	56.32
247.248	-9.22
247.464	25.6
247.681	23.55
247.898	41.98
248.115	44.03
248.332	44.03
248.549	78.85
248.766	37.89
248.983	109.57
249.2	39.94
249.417	41.98
249.633	33.79
249.85	-9.22
250.067	-21.5
250.284	60.42
250.501	29.7
250.717	37.89
250.934	35.84
251.151	29.7
251.368	37.89
251.585	13.31
251.801	21.5
252.018	31.74
252.235	3.07
252.451	1.02
252.668	21.5
252.885	3.07
253.102	33.79
253.318	66.56
253.535	48.13
253.752	54.27
253.968	35.84
254.185	9.22
254.401	19.46
254.618	7.17
254.835	-1.02
255.051	93.18
255.268	46.08
255.484	25.6
255.701	44.03
255.917	7.17
256.134	5.12
256.351	41.98
256.567	-37.89
256.784	68.61
257	56.32
257.217	62.46
257.433	-31.74
257.65	27.65
257.866	17.41
258.082	-15.36
258.299	1.02
258.515	66.56
258.732	27.65
258.948	11.26
259.165	27.65
259.381	1.02
259.597	13.31
259.814	11.26
260.03	3.07
260.246	35.84
260.463	23.55
260.679	-27.65
260.895	-11.26
261.112	48.13
261.328	11.26
261.544	-13.31
261.761	13.31
261.977	76.8
262.193	-29.7
262.409	54.27
262.626	37.89
262.842	41.98
263.058	3.07
263.274	39.94
263.49	-82.94
263.707	9.22
263.923	35.84
264.139	29.7
264.355	-15.36
264.571	64.51
264.787	-13.31
265.004	87.04
265.22	-11.26
265.436	-7.17
265.652	39.94
265.868	66.56
266.084	-9.22
266.3	25.6
266.516	9.22
266.732	-21.5
266.948	15.36
267.164	7.17
267.38	87.04
267.596	99.33
267.812	21.5
268.028	97.28
268.244	101.37
268.46	5.12
268.676	44.03
268.892	3.07
269.108	50.18
269.324	37.89
269.54	62.46
269.756	89.09
269.972	13.31
270.188	60.42
270.403	23.55
270.619	31.74
270.835	9.22
271.051	62.46
271.267	70.65
271.483	25.6
271.698	-11.26
271.914	76.8
272.13	-27.65
272.346	39.94
272.562	-21.5
272.777	54.27
272.993	39.94
273.209	23.55
273.425	21.5
273.64	39.94
273.856	60.42
274.072	31.74
274.287	21.5
274.503	5.12
274.719	-13.31
274.934	29.7
275.15	54.27
275.366	52.22
275.581	31.74
275.797	74.75
276.012	25.6
276.228	72.7
276.444	5.12
276.659	78.85
276.875	-3.07
277.09	-25.6
277.306	35.84
277.521	27.65
277.737	121.85
277.952	84.99
278.168	52.22
278.383	9.22
278.599	58.37
278.814	41.98
279.03	-11.26
279.245	31.74
279.461	15.36
279.676	44.03
279.892	27.65
280.107	46.08
280.322	-17.41
280.538	84.99
280.753	44.03
280.969	52.22
281.184	70.65
281.399	58.37
281.615	21.5
281.83	5.12
282.045	25.6
282.26	76.8
282.476	52.22
282.691	31.74
282.906	-23.55
283.122	64.51
283.337	-21.5
283.552	23.55
283.767	5.12
283.983	101.37
284.198	-13.31
284.413	111.61
284.628	64.51
284.843	-19.46
285.058	64.51
285.274	37.89
285.489	93.18
285.704	13.31
285.919	33.79
286.134	-5.12
286.349	-64.51
286.564	74.75
286.779	27.65
286.995	44.03
287.21	17.41
287.425	52.22
287.64	-31.74
287.855	107.52
288.07	-5.12
288.285	31.74
288.5	66.56
288.715	35.84
288.93	70.65
289.145	66.56
289.36	62.46
289.575	-60.42
289.79	5.12
290.004	27.65
290.219	50.18
290.434	50.18
290.649	44.03
290.864	50.18
291.079	29.7
291.294	60.42
291.509	5.12
291.724	-17.41
291.938	56.32
292.153	1.02
292.368	23.55
292.583	74.75
292.798	66.56
293.012	13.31
293.227	46.08
293.442	17.41
293.657	52.22
293.871	80.89
294.086	-11.26
294.301	46.08
294.516	82.94
294.73	31.74
294.945	15.36
295.16	35.84
295.374	-7.17
295.589	54.27
295.804	21.5
296.018	35.84
296.233	60.42
296.447	-17.41
296.662	21.5
296.877	97.28
297.091	66.56
297.306	35.84
297.52	70.65
297.735	3.07
297.949	37.89
298.164	21.5
298.378	-9.22
298.593	31.74
298.807	78.85
299.022	101.37
299.236	58.37
299.451	31.74
299.665	7.17
299.88	-25.6
300.094	37.89
300.309	-39.94
300.523	-7.17
300.737	35.84
300.952	11.26
301.166	1.02
301.381	48.13
301.595	33.79
301.809	52.22
302.024	23.55
302.238	-5.12
302.452	46.08
302.667	44.03
302.881	50.18
303.095	35.84
303.309	19.46
303.524	62.46
303.738	76.8
303.952	-48.13
304.166	52.22
304.381	9.22
304.595	60.42
304.809	93.18
305.023	44.03
305.237	19.46
305.452	46.08
305.666	25.6
305.88	39.94
306.094	5.12
306.308	29.7
306.522	72.7
306.736	58.37
306.95	-5.12
307.164	66.56
307.379	21.5
307.593	68.61
307.807	99.33
308.021	-23.55
308.235	54.27
308.449	-37.89
308.663	35.84
308.877	-9.22
309.091	58.37
309.305	48.13
309.519	37.89
309.733	95.23
309.947	60.42
310.161	31.74
310.374	23.55
310.588	31.74
310.802	64.51
311.016	56.32
311.23	132.09
311.444	62.46
311.658	58.37
311.872	17.41
312.085	54.27
312.299	29.7
312.513	5.12
312.727	5.12
312.941	-11.26
313.154	31.74
313.368	105.47
313.582	1.02
313.796	62.46
314.009	23.55
314.223	166.91
314.437	48.13
314.651	41.98
314.864	-3.07
315.078	21.5
315.292	46.08
315.505	-19.46
315.719	136.19
315.933	72.7
316.146	62.46
316.36	1.02
316.573	58.37
316.787	5.12
317.001	-37.89
317.214	48.13
317.428	23.55
317.641	13.31
317.855	19.46
318.068	64.51
318.282	13.31
318.495	41.98
318.709	78.85
318.922	-23.55
319.136	64.51
319.349	70.65
319.563	93.18
319.776	74.75
319.99	17.41
320.203	97.28
320.417	93.18
320.63	60.42
320.843	60.42
321.057	-15.36
321.27	15.36
321.483	23.55
321.697	37.89
321.91	33.79
322.124	62.46
322.337	78.85
322.55	-5.12
322.763	-5.12
322.977	25.6
323.19	27.65
323.403	84.99
323.617	7.17
323.83	35.84
324.043	39.94
324.256	64.51
324.469	68.61
324.683	52.22
324.896	25.6
325.109	72.7
325.322	-15.36
325.535	19.46
325.748	-11.26
325.962	23.55
326.175	46.08
326.388	37.89
326.601	58.37
326.814	3.07
327.027	48.13
327.24	74.75
327.453	25.6
327.666	101.37
327.879	17.41
328.092	74.75
328.305	91.13
328.518	87.04
328.731	5.12
328.944	48.13
329.157	-1.02
329.37	35.84
329.583	58.37
329.796	99.33
330.009	9.22
330.222	74.75
330.435	64.51
330.648	-56.32
330.861	138.24
331.073	33.79
331.286	23.55
331.499	76.8
331.712	58.37
331.925	9.22
332.138	5.12
332.35	101.37
332.563	31.74
332.776	121.85
332.989	54.27
333.202	3.07
333.414	9.22
333.627	68.61
333.84	136.19
334.053	113.66
334.265	-3.07
334.478	27.65
334.691	13.31
334.903	46.08
335.116	-33.79
335.329	60.42
335.541	95.23
335.754	37.89
335.966	-27.65
336.179	17.41
336.392	68.61
336.604	-35.84
336.817	1.02
337.029	62.46
337.242	46.08
337.454	-15.36
337.667	27.65
337.88	89.09
338.092	5.12
338.305	56.32
338.517	60.42
338.729	35.84
338.942	-52.22
339.154	27.65
339.367	27.65
339.579	103.42
339.792	-39.94
340.004	44.03
340.217	78.85
340.429	56.32
340.641	3.07
340.854	19.46
341.066	-62.46
341.278	54.27
341.491	82.94
341.703	39.94
341.915	-35.84
342.128	21.5
342.34	35.84
342.552	31.74
342.764	11.26
342.977	64.51
343.189	97.28
343.401	15.36
343.613	41.98
343.826	52.22
344.038	80.89
344.25	29.7
344.462	29.7
344.674	-60.42
344.886	48.13
345.099	41.98
345.311	33.79
345.523	60.42
345.735	31.74
345.947	72.7
346.159	48.13
346.371	31.74
346.583	58.37
346.795	64.51
347.007	46.08
347.219	33.79
347.431	33.79
347.643	46.08
347.855	17.41
348.067	48.13
348.279	31.74
348.491	60.42
348.703	89.09
348.915	72.7
349.127	31.74
349.339	128
349.551	107.52
349.763	62.46
349.975	-19.46
350.187	121.85
350.399	66.56
350.61	84.99
350.822	37.89
351.034	64.51
351.246	25.6
351.458	91.13
351.669	66.56
351.881	25.6
352.093	54.27
352.305	78.85
352.517	9.22
352.728	35.84
352.94	103.42
353.152	23.55
353.363	48.13
353.575	150.53
353.787	72.7
353.999	46.08
354.21	107.52
354.422	50.18
354.633	50.18
354.845	41.98
355.057	-3.07
355.268	80.89
355.48	46.08
355.692	46.08
355.903	-35.84
356.115	11.26
356.326	11.26
356.538	101.37
356.749	105.47
356.961	93.18
357.172	33.79
357.384	76.8
357.595	48.13
357.807	136.19
358.018	44.03
358.23	21.5
358.441	44.03
358.653	97.28
358.864	78.85
359.075	29.7
359.287	44.03
359.498	109.57
359.709	37.89
359.921	46.08
360.132	46.08
360.344	72.7
360.555	-9.22
360.766	109.57
360.977	11.26
361.189	7.17
361.4	21.5
361.611	76.8
361.823	80.89
362.034	13.31
362.245	15.36
362.456	56.32
362.667	54.27
362.879	41.98
363.09	58.37
363.301	21.5
363.512	-21.5
363.723	29.7
363.935	56.32
364.146	89.09
364.357	62.46
364.568	56.32
364.779	3.07
364.99	7.17
365.201	48.13
365.412	70.65
365.623	-35.84
365.834	60.42
366.045	33.79
366.256	-11.26
366.467	35.84
366.678	44.03
366.889	33.79
367.1	132.09
367.311	52.22
367.522	11.26
367.733	95.23
367.944	-9.22
368.155	62.46
368.366	89.09
368.577	78.85
368.788	60.42
368.999	105.47
369.209	50.18
369.42	111.61
369.631	132.09
369.842	119.81
370.053	60.42
370.264	95.23
370.474	-5.12
370.685	27.65
370.896	1.02
371.107	99.33
371.317	70.65
371.528	52.22
371.739	-13.31
371.95	-3.07
372.16	1.02
372.371	29.7
372.582	19.46
372.792	9.22
373.003	72.7
373.214	46.08
373.424	103.42
373.635	31.74
373.846	27.65
374.056	-3.07
374.267	80.89
374.477	46.08
374.688	84.99
374.898	78.85
375.109	9.22
375.319	9.22
375.53	111.61
375.74	17.41
375.951	56.32
376.161	25.6
376.372	107.52
376.582	35.84
376.793	35.84
377.003	93.18
377.214	66.56
377.424	46.08
377.635	37.89
377.845	46.08
378.055	97.28
378.266	54.27
378.476	64.51
378.686	37.89
378.897	87.04
379.107	25.6
379.317	7.17
379.528	21.5
379.738	5.12
379.948	37.89
380.158	89.09
380.369	17.41
380.579	72.7
380.789	89.09
380.999	33.79
381.21	123.9
381.42	132.09
381.63	107.52
381.84	66.56
382.05	-9.22
382.261	33.79
382.471	35.84
382.681	-27.65
382.891	107.52
383.101	66.56
383.311	-35.84
383.521	68.61
383.731	111.61
383.941	60.42
384.151	11.26
384.361	91.13
384.571	41.98
384.781	50.18
384.991	80.89
385.201	62.46
385.411	103.42
385.621	95.23
385.831	13.31
386.041	35.84
386.251	33.79
386.461	125.95
386.671	95.23
386.881	109.57
387.091	103.42
387.301	80.89
387.511	142.33
387.72	93.18
387.93	50.18
388.14	144.38
388.35	21.5
388.56	41.98
388.769	48.13
388.979	87.04
389.189	31.74
389.399	103.42
389.609	72.7
389.818	103.42
390.028	52.22
390.238	101.37
390.447	97.28
390.657	111.61
390.867	93.18
391.076	76.8
391.286	97.28
391.496	66.56
391.705	50.18
391.915	52.22
392.125	62.46
392.334	21.5
392.544	103.42
392.753	80.89
392.963	91.13
393.172	121.85
393.382	78.85
393.591	121.85
393.801	35.84
394.01	37.89
394.22	95.23
394.429	56.32
394.639	84.99
394.848	177.15
395.058	171.01
395.267	62.46
395.477	138.24
395.686	84.99
395.895	80.89
396.105	123.9
396.314	123.9
396.524	138.24
396.733	48.13
396.942	123.9
397.152	117.76
397.361	140.29
397.57	89.09
397.78	93.18
397.989	164.86
398.198	105.47
398.407	105.47
398.617	138.24
398.826	136.19
399.035	160.77
399.244	113.66
399.453	187.39
399.663	80.89
399.872	138.24
400.081	156.67
400.29	115.71
400.499	37.89
400.708	187.39
400.917	152.57
401.127	168.96
401.336	181.25
401.545	173.05
401.754	146.43
401.963	121.85
402.172	128
402.381	89.09
402.59	87.04
402.799	148.48
403.008	54.27
403.217	171.01
403.426	107.52
403.635	123.9
403.844	78.85
404.053	101.37
404.262	87.04
404.471	199.68
404.68	254.97
404.888	230.4
405.097	134.14
405.306	193.53
405.515	173.05
405.724	252.92
405.933	175.1
406.142	222.2
406.35	183.29
406.559	168.96
406.768	132.09
406.977	269.31
407.185	224.25
407.394	218.11
407.603	142.33
407.812	269.31
408.02	287.74
408.229	201.72
408.438	287.74
408.646	228.35
408.855	263.16
409.064	340.99
409.272	297.98
409.481	302.08
409.69	293.88
409.898	345.08
410.107	312.32
410.315	465.91
410.524	383.99
410.733	373.75
410.941	304.12
411.15	400.38
411.358	463.86
411.567	486.39
411.775	381.95
411.984	433.15
412.192	490.49
412.401	533.5
412.609	558.07
412.818	525.3
413.026	644.09
413.234	603.13
413.443	502.78
413.651	662.52
413.86	617.46
414.068	676.85
414.276	738.29
414.485	707.57
414.693	744.44
414.901	855.03
415.11	766.96
415.318	791.54
415.526	775.16
415.734	918.51
415.943	926.71
416.151	1004.53
416.359	994.29
416.567	1049.58
416.776	984.05
416.984	1119.21
417.192	1047.54
417.4	1233.9
417.608	1027.06
417.817	1229.81
418.025	1303.53
418.233	1334.25
418.441	1340.4
418.649	1385.45
418.857	1420.27
419.065	1465.32
419.273	1532.9
419.481	1532.9
419.689	1618.92
419.897	1590.25
420.105	1760.23
420.313	1833.96
420.521	1823.72
420.729	1915.87
420.937	1915.87
421.145	1948.64
421.353	2169.82
421.561	2241.5
421.769	2233.31
421.977	2237.41
422.185	2241.5
422.393	2528.22
422.601	2700.25
422.809	2673.62
423.017	2659.29
423.224	2771.93
423.432	2755.54
423.64	2884.56
423.848	3056.59
424.056	3181.52
424.263	3189.71
424.471	3351.5
424.679	3343.31
424.887	3673.03
425.094	3691.46
425.302	3695.56
425.51	3728.33
425.718	3824.58
425.925	3931.08
426.133	4182.98
426.341	4316.09
426.548	4588.47
426.756	4430.78
426.964	4484.03
427.171	4699.06
427.379	4948.92
427.586	5094.32
427.794	5022.64
428.001	5256.11
428.209	5544.88
428.417	5557.16
428.624	5868.45
428.832	6130.59
429.039	5884.84
429.247	5878.69
429.454	6443.93
429.662	6783.9
429.869	6388.64
430.076	6865.82
430.284	6751.13
430.491	7138.2
430.699	7416.72
430.906	7418.77
431.114	7539.6
431.321	7842.7
431.528	7959.43
431.736	8211.33
431.943	8721.27
432.15	8680.32
432.358	8805.24
432.565	9106.29
432.772	8971.13
432.979	9724.78
433.187	9888.62
433.394	9610.09
433.601	10421.09
433.808	10470.24
434.016	10482.53
434.223	10787.68
434.43	11451.22
434.637	11610.96
434.844	11975.5
435.052	12462.91
435.259	12149.57
435.466	12235.59
435.673	11989.83
435.88	12903.23
436.087	13728.56
436.294	13665.07
436.501	13302.58
436.708	13570.86
436.915	14009.13
437.122	14662.43
437.329	14666.53
437.537	15201.05
437.743	15205.14
437.95	15348.5
438.157	16071.43
438.364	16519.94
438.571	16501.51
438.778	16493.32
438.985	18295.53
439.192	17425.14
439.399	17890.03
439.606	17881.84
439.813	18539.24
440.02	19659.48
440.227	19428.06
440.433	19362.52
440.64	19894.99
440.847	19450.58
441.054	20396.74
441.261	21537.46
441.467	21174.97
441.674	21695.16
441.881	22518.44
442.088	22547.11
442.294	22051.5
442.501	22934.18
442.708	23413.4
442.914	23966.35
443.121	25221.76
443.328	24777.35
443.534	26554.99
443.741	25825.91
443.948	25164.42
444.154	27208.29
444.361	26698.34
444.568	26985.06
444.774	26940
444.981	27546.2
445.187	28037.72
445.394	29532.73
445.6	29016.65
445.807	31990.3
446.013	30161.46
446.22	30734.89
446.426	31926.81
446.633	32246.29
446.839	33214.98
447.046	31781.4
447.252	34054.65
447.459	34187.77
447.665	33397.25
447.871	35146.22
448.078	36327.89
448.284	35236.33
448.491	35396.07
448.697	36811.21
448.903	37681.6
449.11	37900.73
449.316	36917.71
449.522	37435.84
449.728	38904.24
449.935	38926.77
450.141	38568.37
450.347	39885.22
450.553	38451.64
450.76	38926.77
450.966	40810.9
451.172	39758.24
451.378	40724.88
451.584	40286.62
451.791	40618.39
451.997	41255.31
452.203	41523.59
452.409	41750.91
452.615	41365.9
452.821	39244.2
453.027	39698.85
453.233	41953.66
453.44	39795.1
453.646	40274.33
453.852	40530.33
454.058	40913.3
454.264	39416.23
454.47	40757.65
454.676	39733.67
454.882	41101.71
455.088	37640.64
455.294	38171.07
455.5	38486.45
455.705	38631.86
455.911	37235.14
456.117	36461.01
456.323	35951.07
456.529	34081.27
456.735	35721.69
456.941	34595.31
457.147	34109.94
457.352	33028.62
457.558	32578.06
457.764	32872.97
457.97	32639.5
458.176	31267.36
458.381	31926.81
458.587	29672
458.793	29772.35
458.999	28451.41
459.204	30380.59
459.41	29747.77
459.616	27587.16
459.821	27570.78
460.027	27902.55
460.233	26604.14
460.438	25922.16
460.644	26155.63
460.85	24681.1
461.055	24177.3
461.261	24318.6
461.466	22620.84
461.672	21936.82
461.878	23761.56
462.083	21887.67
462.289	21430.97
462.494	21328.57
462.7	20374.22
462.905	19985.1
463.111	20308.68
463.316	20490.95
463.522	20167.37
463.727	20406.98
463.932	20044.49
464.138	20280.01
464.343	20075.21
464.549	19407.58
464.754	20255.43
464.959	19999.44
465.165	19722.96
465.37	19012.32
465.575	18385.64
465.781	19122.91
465.986	19327.71
466.191	18455.27
466.397	18354.92
466.602	17644.27
466.807	18027.24
467.012	17986.29
467.218	17877.74
467.423	17636.08
467.628	17914.61
467.833	18574.05
468.038	17906.41
468.244	17447.67
468.449	18328.3
468.654	17513.2
468.859	17529.59
469.064	17136.38
469.269	16378.63
469.474	16947.97
469.679	17308.41
469.885	16470.79
470.09	16823.04
470.295	16818.94
470.5	16478.98
470.705	16390.92
470.91	15930.12
471.115	15809.29
471.32	16233.22
471.525	15950.6
471.73	15624.98
471.935	15723.28
472.139	15297.3
472.344	15174.42
472.549	14996.25
472.754	15112.99
472.959	14623.52
473.164	14125.86
473.369	13986.6
473.574	14797.6
473.778	14545.7
473.983	14482.21
474.188	14363.43
474.393	13749.04
474.598	13480.75
474.802	13400.88
475.007	13660.98
475.212	13701.93
475.417	12927.8
475.621	13071.16
475.826	13245.24
476.031	12837.69
476.235	12739.39
476.44	12716.86
476.645	12616.51
476.849	12532.54
477.054	12553.02
477.259	12213.06
477.463	12264.26
477.668	11891.53
477.872	11940.68
478.077	11920.2
478.282	11621.2
478.486	11600.72
478.691	11361.11
478.895	11447.12
479.1	11391.83
479.304	11359.06
479.509	10941.27
479.713	11246.42
479.918	10914.65
480.122	10711.9
480.326	11062.1
480.531	10789.72
480.735	10873.69
480.94	10793.82
481.144	11150.17
481.348	10656.61
481.553	10570.59
481.757	10564.45
481.961	10658.65
482.166	10689.37
482.37	10658.65
482.574	10535.78
482.778	10500.96
482.983	10642.27
483.187	10554.21
483.391	10750.81
483.595	10425.18
483.8	10552.16
484.004	10492.77
484.208	10453.86
484.412	10513.25
484.616	10376.03
484.821	10668.89
485.025	10523.49
485.229	10652.51
485.433	10396.51
485.637	10394.47
485.841	10290.02
486.045	10310.5
486.249	10345.31
486.453	10189.67
486.657	10523.49
486.861	10556.25
487.065	10312.55
487.269	10462.05
487.473	10392.42
487.677	10429.28
487.881	10500.96
488.085	10548.06
488.289	10412.9
488.493	10427.23
488.697	10408.8
488.901	10568.54
489.105	10646.37
489.309	10761.05
489.512	10625.89
489.716	10576.73
489.92	10642.27
490.124	10556.25
490.328	11019.1
490.531	10728.28
490.735	10822.49
490.939	10767.2
491.143	10672.99
491.346	10711.9
491.55	11004.76
491.754	10937.18
491.958	11096.92
492.161	10783.58
492.365	10908.51
492.569	11090.77
492.772	11025.24
492.976	11111.25
493.18	11379.54
493.383	11217.75
493.587	11549.52
493.79	11506.51
493.994	11242.32
494.197	11623.25
494.401	11531.09
494.605	11703.12
494.808	11823.95
495.012	12012.36
495.215	11834.19
495.419	12020.55
495.622	11940.68
495.825	12202.82
496.029	12344.13
496.232	12643.14
496.436	12387.14
496.639	12663.61
496.843	12626.75
497.046	12804.92
497.249	12849.98
497.453	13333.3
497.656	13220.66
497.859	13486.9
498.063	13366.07
498.266	13546.29
498.469	13470.51
498.673	13726.51
498.876	14050.09
499.079	14336.81
499.282	13925.16
499.485	14476.07
499.689	14414.63
499.892	14623.52
500.095	14619.42
500.298	15037.21
500.501	15024.92
500.705	15518.48
500.908	15596.31
501.111	15741.71
501.314	15860.49
501.517	16034.57
501.72	16096.01
501.923	16292.62
502.126	16550.66
502.329	16786.18
502.532	16818.94
502.735	16952.06
502.938	17095.42
503.141	17441.53
503.344	17814.26
503.547	17574.64
503.75	17926.89
503.953	18219.75
504.156	18379.5
504.359	18381.54
504.562	18440.93
504.765	18731.75
504.968	19102.43
505.17	19327.71
505.373	19602.13
505.576	19985.1
505.779	20058.83
505.982	20077.26
506.185	20173.52
506.387	20390.6
506.59	20759.24
506.793	21127.87
506.996	21101.25
507.198	21611.19
507.401	21545.66
507.604	21625.53
507.807	22117.04
508.009	22432.43
508.212	22323.88
508.415	22739.62
508.617	23388.83
508.82	23161.5
509.022	22784.68
509.225	23689.88
509.428	23814.8
509.63	24097.42
509.833	24386.19
510.035	24720.01
510.238	24613.51
510.44	24763.01
510.643	25508.47
510.845	25358.97
511.048	25256.57
511.25	25840.25
511.453	25815.67
511.655	26481.26
511.858	26585.71
512.06	26501.74
512.262	26946.15
512.465	26860.13
512.667	27550.3
512.87	27560.54
513.072	27533.92
513.274	28316.24
513.477	28885.58
513.679	28660.3
513.881	29385.28
514.084	29479.49
514.286	29424.19
514.488	29532.73
514.69	30558.77
514.893	30730.8
515.095	30386.74
515.297	30781.99
515.499	30865.96
515.701	31250.98
515.904	31197.73
516.106	31658.52
516.308	32266.77
516.51	32461.33
516.712	32291.35
516.914	32451.09
517.116	33192.45
517.318	33339.91
517.52	33456.64
517.722	33571.33
517.925	34257.4
518.127	34605.55
518.329	34509.3
518.531	34564.59
518.733	35594.72
518.935	35373.54
519.136	35365.35
519.338	36035.03
519.54	36280.79
519.742	36413.91
519.944	36375
520.146	37226.95
520.348	37675.46
520.55	37468.61
520.752	37407.17
520.954	38377.91
521.155	37910.97
521.357	38318.52
521.559	39176.62
521.761	39299.5
521.963	39362.98
522.164	39664.03
522.366	39553.44
522.568	39887.26
522.77	40270.23
522.971	40868.24
523.173	40278.43
523.375	41060.75
523.576	40999.31
523.778	40872.34
523.98	41374.09
524.181	41533.83
524.383	41630.08
524.584	42320.25
524.786	42121.6
524.988	41470.34
525.189	42510.71
525.391	42408.31
525.592	43153.77
525.794	43374.95
525.995	43428.2
526.197	43211.12
526.398	43112.81
526.6	43925.86
526.801	44200.29
527.003	43884.9
527.204	44243.29
527.406	44763.48
527.607	44636.5
527.808	44980.56
528.01	43950.43
528.211	44382.55
528.412	44978.51
528.614	45175.12
528.815	44988.75
529.016	45627.72
529.218	44978.51
529.419	45222.22
529.62	45590.86
529.822	45623.62
530.023	45461.83
530.224	45326.67
530.425	45349.2
530.626	45164.88
530.828	44689.75
531.029	46453.05
531.23	45582.66
531.431	45869.38
531.632	45955.39
531.833	45898.05
532.035	46137.66
532.236	46057.79
532.437	45961.54
532.638	45916.48
532.839	46414.14
533.04	46559.55
533.241	45877.57
533.442	46479.67
533.643	46477.63
533.844	46313.79
534.045	46487.87
534.246	46000.45
534.447	46717.24
534.648	46285.12
534.849	46078.27
535.05	46412.09
535.251	46618.94
535.451	46481.72
535.652	46569.79
535.853	46025.03
536.054	46487.87
536.255	46631.22
536.456	45965.63
536.657	47040.82
536.857	46258.49
537.058	46285.12
537.259	46831.93
537.46	46663.99
537.66	46446.91
537.861	46592.31
538.062	46264.64
538.263	46403.9
538.463	46217.53
538.664	46741.81
538.865	46713.14
539.065	46868.79
539.266	46258.49
539.466	46766.39
539.667	46379.32
539.868	46932.28
540.068	46381.37
540.269	46190.91
540.469	46788.92
540.67	46299.45
540.87	46602.55
541.071	46485.82
541.271	46358.84
541.472	46367.04
541.672	46076.22
541.873	46053.7
542.073	46022.98
542.274	46905.65
542.474	46436.67
542.675	46029.12
542.875	46676.28
543.075	46381.37
543.276	45850.95
543.476	46354.75
543.676	46285.12
543.877	46471.48
544.077	46557.5
544.277	46313.79
544.478	46080.32
544.678	46545.21
544.878	46031.17
545.078	46264.64
545.279	45865.28
545.479	46438.72
545.679	46135.62
545.879	46197.06
546.079	46231.87
546.28	45889.86
546.48	46053.7
546.68	46285.12
546.88	46094.66
547.08	46047.55
547.28	46203.2
547.48	46027.07
547.68	46446.91
547.88	45812.04
548.081	46131.52
548.281	46289.21
548.481	45717.83
548.681	46197.06
548.881	46364.99
549.081	46063.94
549.28	45506.89
549.48	46211.39
549.68	45820.23
549.88	46684.47
550.08	45779.27
550.28	46115.14
550.48	45680.97
550.68	46285.12
550.88	45988.16
551.08	46297.41
551.279	46311.74
551.479	46002.5
551.679	46287.17
551.879	45848.9
552.079	45908.29
552.278	45324.62
552.478	46274.88
552.678	45758.79
552.878	46074.18
553.077	45998.4
553.277	45257.04
553.477	46328.13
553.676	46068.03
553.876	46080.32
554.076	45422.92
554.275	45558.09
554.475	45224.27
554.674	45701.45
554.874	45357.39
555.074	45545.8
555.273	45384.01
555.473	45996.35
555.672	45185.36
555.872	45439.31
556.071	45199.69
556.271	45476.17
556.47	45455.69
556.67	44540.25
556.869	45271.37
557.068	45306.19
557.268	44947.79
557.467	45080.91
557.667	44829.01
557.866	45349.2
558.065	45275.47
558.265	44597.59
558.464	44681.56
558.663	45508.94
558.863	44185.95
559.062	45439.31
559.261	44589.4
559.461	45080.91
559.66	44112.22
559.859	44861.78
560.058	44163.42
560.258	44650.84
560.457	43606.37
560.656	44808.53
560.855	44321.12
561.054	44360.03
561.253	43934.05
561.453	44058.98
561.652	44271.96
561.851	43981.15
562.05	43915.62
562.249	43653.48
562.448	44099.94
562.647	44013.92
562.846	44163.42
563.045	43999.58
563.244	43311.47
563.443	44089.7
563.642	43401.58
563.841	43782.5
564.04	43362.67
564.239	43757.92
564.438	43323.75
564.637	43768.16
564.836	43274.6
565.035	43301.23
565.234	43313.52
565.432	42733.94
565.631	42830.19
565.83	43299.18
566.029	42803.57
566.228	42635.64
566.427	42568.05
566.625	42570.1
566.824	42137.98
567.023	42684.79
567.222	41591.17
567.42	42654.07
567.619	41892.22
567.818	42226.04
568.016	42023.29
568.215	42344.83
568.414	41695.62
568.612	42154.36
568.811	41759.11
569.01	42166.65
569.208	41367.94
569.407	41689.48
569.605	40876.43
569.804	42113.41
570.002	41197.96
570.201	41613.7
570.4	41011.6
570.598	41304.46
570.797	40915.34
570.995	41114
571.193	40702.35
571.392	41109.9
571.59	40712.59
571.789	41097.61
571.987	40679.83
572.186	40878.48
572.384	40690.07
572.582	40223.13
572.781	40364.44
572.979	40069.53
573.177	40278.43
573.376	40370.58
573.574	40065.44
573.772	40182.17
573.971	40036.77
574.169	39723.43
574.367	39397.8
574.565	39762.34
574.763	39289.26
574.962	39737.76
575.16	39238.06
575.358	39354.79
575.556	39066.03
575.754	39594.4
575.952	39039.4
576.151	39545.25
576.349	38900.14
576.547	38871.47
576.745	38805.94
576.943	38844.85
577.141	38476.21
577.339	38621.62
577.537	38201.79
577.735	38103.48
577.933	37941.69
578.131	38506.93
578.329	38177.21
578.527	37956.03
578.725	38171.07
578.923	38365.62
579.121	38068.67
579.319	37740.99
579.516	38050.24
579.714	37583.3
579.912	37702.08
580.11	37333.45
580.308	37280.2
580.506	37128.65
580.704	36778.45
580.901	37380.55
581.099	37517.76
581.297	36944.33
581.495	36590.03
581.692	37302.73
581.89	36145.62
582.088	36919.76
582.285	35887.58
582.483	36481.49
582.681	36518.35
582.878	36202.97
583.076	35914.2
583.274	36321.75
583.471	36157.91
583.669	36282.84
583.866	35365.35
584.064	35742.17
584.262	35310.05
584.459	35580.39
584.657	35650.02
584.854	35639.78
585.052	34793.97
585.249	35654.11
585.447	34900.46
585.644	35052.01
585.841	35039.72
586.039	35166.7
586.236	34439.67
586.434	34595.31
586.631	34591.22
586.828	34703.85
587.026	34408.95
587.223	34417.14
587.42	34386.42
587.618	34179.57
587.815	33804.8
588.012	33944.06
588.21	33970.68
588.407	34171.38
588.604	33319.43
588.801	33387.01
588.999	33653.25
589.196	33686.01
589.393	33690.11
589.59	33468.93
589.787	33313.28
589.984	33245.7
590.182	32893.45
590.379	32991.75
590.576	32918.03
590.773	33073.67
590.97	32621.07
591.167	33116.68
591.364	32627.21
591.561	32549.39
591.758	32225.81
591.955	32117.27
592.152	32426.51
592.349	32191
592.546	32203.28
592.743	32315.92
592.94	31636
593.137	31865.37
593.334	32082.45
593.531	31607.33
593.727	31877.66
593.924	31586.85
594.121	31230.5
594.318	31437.34
594.515	31242.79
594.712	31455.78
594.908	31019.56
595.105	31091.24
595.302	30712.36
595.499	30726.7
595.696	30677.55
595.892	30847.53
596.089	30667.31
596.286	30773.8
596.482	30175.8
596.679	30270
596.876	30358.06
597.072	30382.64
597.269	30368.3
597.466	29872.7
597.662	29790.78
597.859	29768.25
598.055	29422.14
598.252	29729.34
598.448	29612.6
598.645	29536.83
598.841	29133.38
599.038	29598.27
599.234	29190.72
599.431	28662.35
599.627	28623.44
599.824	29508.16
600.02	29096.52
600.217	28807.75
600.413	29045.32
600.609	28613.2
600.806	28637.77
601.002	28471.89
601.198	28355.15
601.395	28070.48
601.591	28265.04
601.787	28101.2
601.984	27912.79
602.18	28435.02
602.376	27732.57
602.572	27877.97
602.769	28084.82
602.965	27495
603.161	27794.01
603.357	27589.21
603.553	27351.65
603.75	27310.69
603.946	26894.95
604.142	27316.83
604.338	26767.98
604.534	27103.84
604.73	27019.88
604.926	27206.24
605.122	26935.91
605.318	26866.28
605.514	26649.19
605.71	26745.45
605.906	26688.1
606.102	26583.66
606.298	26976.87
606.494	26641
606.69	26434.16
606.886	26249.84
607.082	26165.87
607.278	26274.42
607.474	25901.68
607.67	26346.09
607.866	25801.33
608.062	26106.48
608.257	25911.92
608.453	25764.47
608.649	25854.58
608.845	25444.99
609.041	26063.47
609.236	25627.26
609.432	25614.97
609.628	25424.51
609.824	25395.84
610.019	25750.14
610.215	25311.87
610.411	25498.23
610.606	25078.4
610.802	25348.73
610.998	25121.41
611.193	25117.31
611.389	25168.51
611.584	24808.07
611.78	25053.83
611.976	25033.35
612.171	24881.8
612.367	24924.8
612.562	24728.2
612.758	24423.05
612.953	24558.22
613.149	24752.77
613.344	24361.61
613.539	24648.33
613.735	24566.41
613.93	24863.36
614.126	24500.87
614.321	24668.81
614.517	24496.78
614.712	24304.27
614.907	24201.87
615.103	24724.1
615.298	24156.82
615.493	24267.41
615.688	23804.56
615.884	24496.78
616.079	23956.11
616.274	24132.24
616.47	23988.88
616.665	24023.7
616.86	23720.6
617.055	24044.18
617.25	23931.54
617.445	24015.51
617.641	23511.71
617.836	23876.24
618.031	23681.69
618.226	23759.51
618.421	23126.69
618.616	23472.79
618.811	22962.85
619.006	23610.01
619.201	22903.46
619.396	23186.08
619.591	22794.92
619.786	23218.85
619.981	22592.17
620.176	22614.69
620.371	22536.87
620.566	22639.27
620.761	22223.53
620.956	22274.73
621.151	21996.21
621.346	22502.06
621.541	21990.06
621.735	22215.34
621.93	21707.44
622.125	21535.42
622.32	21375.67
622.515	21865.14
622.709	21463.74
622.904	21500.6
623.099	21121.73
623.294	21140.16
623.488	21084.86
623.683	21160.64
623.878	20701.89
624.072	20912.83
624.267	20689.6
624.462	20308.68
624.656	20234.96
624.851	20464.33
625.046	20337.35
625.24	20089.55
625.435	19792.59
625.629	19823.31
625.824	19741.39
626.018	19894.99
626.213	19309.27
626.407	19579.61
626.602	19167.96
626.796	19466.97
626.991	19456.73
627.185	19159.77
627.38	19151.58
627.574	18758.37
627.768	18959.07
627.963	18772.71
628.157	18713.31
628.352	18733.79
628.546	18242.28
628.74	18438.89
628.935	17971.95
629.129	17986.29
629.323	18033.39
629.517	17959.66
629.712	17720.05
629.906	17930.99
630.1	17439.48
630.294	17916.65
630.489	17431.29
630.683	17353.46
630.877	17177.34
631.071	17228.54
631.265	17298.17
631.459	17089.28
631.653	17119.99
631.848	16872.19
632.042	16927.49
632.236	16952.06
632.43	16798.46
632.624	16757.5
632.818	16534.28
633.012	16341.77
633.206	16171.79
633.4	16229.13
633.594	16018.19
633.788	15897.36
633.982	16177.93
634.176	16102.15
634.369	15887.12
634.563	15717.14
634.757	15581.97
634.951	15455
635.145	15715.09
635.339	15373.08
635.533	15065.88
635.726	15313.69
635.92	15143.7
636.114	15129.37
636.308	14967.58
636.501	14902.04
636.695	14762.78
636.889	14990.11
637.083	14527.27
637.276	14603.04
637.47	14478.12
637.664	14770.97
637.857	14560.03
638.051	14340.9
638.244	14246.69
638.438	14177.06
638.632	14273.32
638.825	14035.75
639.019	13904.68
639.212	14091.05
639.406	13708.08
639.599	13785.9
639.793	13990.7
639.986	13558.58
640.18	13779.76
640.373	13603.63
640.567	13501.23
640.76	13361.97
640.954	13269.81
641.147	13214.52
641.34	13159.22
641.534	13275.96
641.727	13218.61
641.92	12964.67
642.114	12759.87
642.307	12774.21
642.5	12634.94
642.694	12614.46
642.887	12534.59
643.08	12706.62
643.273	12464.96
643.467	12514.11
643.66	12473.15
643.853	12137.29
644.046	12116.81
644.239	12313.41
644.432	12073.8
644.626	12104.52
644.819	11803.47
645.012	11940.68
645.205	11912.01
645.398	11852.62
645.591	11871.05
645.784	11596.62
645.977	11379.54
646.17	11551.57
646.363	11314
646.556	11266.9
646.749	11357.01
646.942	11352.91
647.135	11463.51
647.328	11119.45
647.521	11170.65
647.714	11053.91
647.907	11326.29
648.099	10916.7
648.292	11043.67
648.485	11033.43
648.678	10820.44
648.871	10720.09
649.064	10695.52
649.256	10707.8
649.449	10670.94
649.642	10390.37
649.835	10513.25
650.027	10421.09
650.22	10290.02
650.413	10357.6
650.605	10431.33
650.798	10388.32
650.991	10007.4
651.183	10181.48
651.376	9984.87
651.568	9857.9
651.761	9968.49
651.954	10060.65
652.146	9778.03
652.339	9988.97
652.531	9708.4
652.724	9720.68
652.916	9618.29
653.109	9567.09
653.301	9655.15
653.494	9532.27
653.686	9345.91
653.879	9579.37
654.071	9458.54
654.263	9276.27
654.456	9024.37
654.648	9212.79
654.84	9180.02
655.033	9251.7
655.225	9192.31
655.417	9042.81
655.61	8891.26
655.802	8833.91
655.994	8803.19
656.186	8790.91
656.379	8698.75
656.571	8723.32
656.763	8758.14
656.955	8723.32
657.148	8819.58
657.34	8598.4
657.532	8582.01
657.724	8563.58
657.916	8379.26
658.108	8526.72
658.3	8321.92
658.492	8326.02
658.684	8299.39
658.876	8338.3
659.068	8115.08
659.26	8084.36
659.452	8135.56
659.644	8084.36
659.836	7893.9
660.028	8102.79
660.22	7836.55
660.412	7873.42
660.604	7570.32
660.796	7861.13
660.988	7922.57
661.18	7734.15
661.372	7678.86
661.563	7728.01
661.755	7508.88
661.947	7607.18
662.139	7451.53
662.331	7451.53
662.522	7549.84
662.714	7525.26
662.906	7351.18
663.097	7246.74
663.289	7314.32
663.481	7162.77
663.673	7265.17
663.864	7238.55
664.056	7136.15
664.247	7060.37
664.439	6914.97
664.631	6990.74
664.822	7232.4
665.014	7078.8
665.205	7048.08
665.397	6865.82
665.588	6919.06
665.78	6925.21
665.971	6642.59
666.163	6849.43
666.354	6855.58
666.546	6605.72
666.737	6722.46
666.929	6671.26
667.12	6716.31
667.311	6671.26
667.503	6577.05
667.694	6484.89
667.885	6454.17
668.077	6376.35
668.268	6241.18
668.459	6314.91
668.651	6194.08
668.842	6411.17
669.033	6396.83
669.224	6273.95
669.416	6333.34
669.607	6185.89
669.798	6337.44
669.989	6161.31
670.18	6091.68
670.371	6099.87
670.563	6077.35
670.754	6253.47
670.945	5850.02
671.136	6067.11
671.327	5966.76
671.518	5923.75
671.709	5829.54
671.9	5942.18
672.091	5870.5
672.282	5827.5
672.473	5680.04
672.664	5739.43
672.855	5671.85
673.046	5960.61
673.237	5653.42
673.428	5465
673.619	5618.6
673.809	5413.81
674	5585.83
674.191	5563.31
674.382	5391.28
674.573	5559.21
674.764	5444.52
674.954	5467.05
675.145	5577.64
675.336	5483.44
675.527	5512.11
675.717	5368.75
675.908	5378.99
676.099	5268.4
676.289	5436.33
676.48	5415.85
676.671	5227.44
676.861	5321.65
677.052	5366.7
677.243	5012.4
677.433	5184.43
677.624	5116.85
677.814	5145.52
678.005	5088.18
678.195	5002.16
678.386	5125.04
678.576	5057.46
678.767	5057.46
678.957	5075.89
679.148	5051.31
679.338	5032.88
679.529	5049.27
679.719	4959.16
679.909	5026.74
680.1	4895.67
680.29	4774.84
680.481	4924.34
680.671	4979.64
680.861	4811.7
681.052	4936.63
681.242	4834.23
681.432	4991.92
681.622	4774.84
681.813	4735.93
682.003	4805.56
682.193	4670.39
682.383	4715.45
682.573	4701.11
682.764	4649.91
682.954	4649.91
683.144	4606.91
683.334	4682.68
683.524	4645.82
683.714	4590.52
683.904	4518.84
684.094	4731.83
684.284	4496.32
684.474	4600.76
684.664	4498.36
684.854	4453.31
685.044	4316.09
685.234	4572.09
685.424	4424.64
685.614	4383.68
685.804	4365.25
685.994	4373.44
686.184	4504.51
686.374	4346.81
686.564	4221.89
686.753	4240.32
686.943	4170.69
687.133	4174.78
687.323	4232.13
687.513	4369.34
687.702	4248.51
687.892	4258.75
688.082	4250.56
688.272	4182.98
688.461	4152.26
688.651	4176.83
688.841	3957.7
689.03	4154.3
689.22	4088.77
689.41	4080.58
689.599	4053.95
689.789	4090.82
689.979	4033.47
690.168	3918.79
690.358	3810.25
690.547	3865.54
690.737	3984.32
690.926	3959.75
691.116	3943.36
691.305	3945.41
691.495	3773.38
691.684	3826.63
691.874	3883.97
692.063	3746.76
692.252	3890.12
692.442	3703.75
692.631	3718.09
692.82	3732.42
693.01	3630.02
693.199	3591.11
693.388	3609.54
693.578	3654.6
693.767	3652.55
693.956	3554.25
694.146	3673.03
694.335	3591.11
694.524	3675.08
694.713	3552.2
694.902	3691.46
695.092	3638.22
695.281	3408.84
695.47	3511.24
695.659	3445.71
695.848	3464.14
696.037	3517.39
696.226	3527.63
696.415	3398.6
696.604	3431.37
696.793	3492.81
696.982	3535.82
697.171	3410.89
697.36	3494.86
697.549	3406.8
697.738	3431.37
697.927	3421.13
698.116	3417.04
698.305	3290.06
698.494	3310.54
698.683	3380.17
698.872	3380.17
699.061	3273.68
699.25	3267.53
699.438	3156.94
699.627	3187.66
699.816	3421.13
700.005	3507.15
700.193	3206.1
700.382	3335.12
700.571	3103.7
700.76	3298.25
700.948	3277.77
701.137	3214.29
701.326	3312.59
701.514	3134.42
701.703	3132.37
701.892	3220.43
702.08	3105.74
702.269	3310.54
702.457	3023.83
702.646	3199.95
702.834	3070.93
703.023	3156.94
703.212	3144.66
703.4	3036.11
703.589	2968.53
703.777	3202
703.965	3032.02
704.154	2980.82
704.342	3011.54
704.531	3001.3
704.719	3040.21
704.907	3130.32
705.096	3060.69
705.284	3118.03
705.472	3040.21
705.661	3089.36
705.849	2974.67
706.037	2880.47
706.226	3040.21
706.414	3003.35
706.602	3005.39
706.79	3044.31
706.979	2974.67
707.167	2923.48
707.355	3034.07
707.543	2849.75
707.731	2937.81
707.919	2864.08
708.107	2821.08
708.296	2937.81
708.484	2853.84
708.672	2917.33
708.86	2911.19
709.048	2921.43
709.236	3029.97
709.424	2796.5
709.612	2898.9
709.8	2759.64
709.988	2886.61
710.176	2939.86
710.364	2821.08
710.551	2802.65
710.739	2825.17
710.927	2939.86
711.115	2821.08
711.303	2929.62
711.491	2831.32
711.679	2845.65
711.866	2786.26
712.054	2876.37
712.242	2948.05
712.43	2888.66
712.617	2802.65
712.805	2816.98
712.993	2825.17
713.181	2796.5
713.368	2806.74
713.556	2720.73
713.744	2810.84
713.931	2864.08
714.119	2788.31
714.306	2761.69
714.494	2892.76
714.682	2694.1
714.869	2814.93
715.057	2839.51
715.244	2835.41
715.432	2814.93
715.619	2841.56
715.807	2767.83
715.994	2788.31
716.182	2747.35
716.369	2776.02
716.556	2757.59
716.744	2716.63
716.931	2751.45
717.119	2728.92
717.306	2763.73
717.493	2718.68
717.681	2683.86
717.868	2845.65
718.055	2780.12
718.242	2661.34
718.43	2683.86
718.617	2776.02
718.804	2720.73
718.991	2624.47
719.179	2716.63
719.366	2708.44
719.553	2673.62
719.74	2728.92
719.927	2755.54
720.114	2677.72
720.301	2761.69
720.488	2655.19
720.676	2657.24
720.863	2745.3
721.05	2767.83
721.237	2716.63
721.424	2634.71
721.611	2571.22
721.798	2515.93
721.985	2612.18
722.172	2628.57
722.358	2692.05
722.545	2597.85
722.732	2708.44
722.919	2679.77
723.106	2634.71
723.293	2575.32
723.48	2665.43
723.667	2618.33
723.853	2550.75
724.04	2681.82
724.227	2687.96
724.414	2696.15
724.6	2603.99
724.787	2571.22
724.974	2663.38
725.161	2692.05
725.347	2540.51
725.534	2599.9
725.72	2620.38
725.907	2757.59
726.094	2669.53
726.28	2687.96
726.467	2655.19
726.653	2571.22
726.84	2618.33
727.027	2755.54
727.213	2532.31
727.4	2667.48
727.586	2536.41
727.773	2499.55
727.959	2628.57
728.145	2661.34
728.332	2573.27
728.518	2556.89
728.705	2700.25
728.891	2520.03
729.077	2636.76
729.264	2669.53
729.45	2618.33
729.636	2675.67
729.823	2601.94
730.009	2667.48
730.195	2579.42
730.382	2599.9
730.568	2595.8
730.754	2712.53
730.94	2542.55
731.126	2595.8
731.313	2690.01
731.499	2603.99
731.685	2595.8
731.871	2669.53
732.057	2503.64
732.243	2612.18
732.429	2606.04
732.615	2657.24
732.801	2577.37
732.987	2550.75
733.173	2573.27
733.359	2544.6
733.545	2599.9
733.731	2565.08
733.917	2655.19
734.103	2673.62
734.289	2677.72
734.475	2556.89
734.661	2728.92
734.847	2581.46
735.033	2552.79
735.219	2683.86
735.404	2683.86
735.59	2767.83
735.776	2587.61
735.962	2595.8
736.148	2560.98
736.333	2569.18
736.519	2511.83
736.705	2481.11
736.89	2550.75
737.076	2603.99
737.262	2491.35
737.447	2501.59
737.633	2567.13
737.819	2517.98
738.004	2569.18
738.19	2622.42
738.375	2603.99
738.561	2573.27
738.747	2567.13
738.932	2569.18
739.118	2581.46
739.303	2495.45
739.489	2513.88
739.674	2403.29
739.859	2612.18
740.045	2501.59
740.23	2517.98
740.416	2491.35
740.601	2462.68
740.786	2499.55
740.972	2491.35
741.157	2401.24
741.342	2481.11
741.528	2362.33
741.713	2556.89
741.898	2456.54
742.084	2526.17
742.269	2335.71
742.454	2429.91
742.639	2304.99
742.824	2405.34
743.01	2327.52
743.195	2391
743.38	2253.79
743.565	2294.75
743.75	2319.32
743.935	2364.38
744.12	2509.79
744.305	2280.41
744.49	2286.56
744.675	2319.32
744.86	2288.61
745.045	2159.58
745.23	2329.56
745.415	2288.61
745.6	2321.37
745.785	2151.39
745.97	2290.65
746.155	2128.86
746.34	2231.26
746.525	2204.64
746.71	2151.39
746.895	2132.96
747.079	2182.11
747.264	2235.36
747.449	2110.43
747.634	2122.72
747.819	2030.56
748.003	2079.71
748.188	2069.47
748.373	2192.35
748.557	2190.3
748.742	2057.18
748.927	2069.47
749.111	2044.9
749.296	2063.33
749.481	2073.57
749.665	1915.87
749.85	2046.94
750.034	2053.09
750.219	2071.52
750.404	1881.06
750.588	2018.27
750.773	1919.97
750.957	2020.32
751.141	1899.49
751.326	1905.63
751.51	1821.67
751.695	1780.71
751.879	1965.03
752.064	1917.92
752.248	1733.61
752.432	1809.38
752.617	1694.69
752.801	1827.81
752.985	1833.96
753.17	1795.04
753.354	1817.57
753.538	1657.83
753.722	1807.33
753.907	1760.23
754.091	1747.94
754.275	1758.18
754.459	1571.82
754.643	1647.59
754.828	1606.63
755.012	1741.8
755.196	1643.49
755.38	1743.85
755.564	1602.54
755.748	1571.82
755.932	1557.48
756.116	1666.02
756.3	1688.55
756.484	1534.95
756.668	1506.28
756.852	1600.49
757.036	1526.76
757.22	1471.47
757.404	1498.09
757.588	1479.66
757.772	1457.13
757.956	1510.38
758.14	1555.43
758.323	1463.27
758.507	1537
758.691	1375.21
758.875	1467.37
759.059	1448.94
759.242	1412.07
759.426	1340.4
759.61	1461.23
759.794	1393.64
759.977	1438.7
760.161	1348.59
760.345	1483.75
760.528	1407.98
760.712	1389.55
760.895	1272.81
761.079	1416.17
761.263	1342.44
761.446	1463.27
761.63	1332.2
761.813	1371.12
761.997	1278.96
762.18	1258.48
762.364	1397.74
762.547	1362.92
762.731	1244.14
762.914	1340.4
763.098	1317.87
763.281	1303.53
763.464	1252.33
763.648	1313.77
763.831	1199.09
764.015	1197.04
764.198	1262.57
764.381	1301.48
764.564	1268.72
764.748	1350.64
764.931	1274.86
765.114	1197.04
765.297	1199.09
765.481	1084.4
765.664	1299.44
765.847	1309.68
766.03	1254.38
766.213	1238
766.397	1213.42
766.58	1219.57
766.763	1194.99
766.946	1166.32
767.129	1156.08
767.312	1068.02
767.495	1244.14
767.678	1170.41
767.861	1229.81
768.044	1098.74
768.227	1139.69
768.41	1108.98
768.593	1070.06
768.776	1223.66
768.959	1143.79
769.142	1170.41
769.324	1137.65
769.507	1141.74
769.69	1121.26
769.873	1123.31
770.056	1186.8
770.239	1137.65
770.421	1133.55
770.604	1127.41
770.787	971.76
770.97	996.34
771.152	998.38
771.335	1119.21
771.518	1014.77
771.7	1111.02
771.883	1121.26
772.066	1010.67
772.248	1104.88
772.431	1100.78
772.613	1037.3
772.796	1057.78
772.978	1102.83
773.161	1037.3
773.343	1006.58
773.526	926.71
773.708	1031.15
773.891	928.75
774.073	994.29
774.256	908.27
774.438	877.55
774.621	898.03
774.803	941.04
774.985	924.66
775.168	934.9
775.35	934.9
775.532	936.95
775.715	906.23
775.897	961.52
776.079	916.47
776.261	934.9
776.444	881.65
776.626	990.19
776.808	879.6
776.99	947.19
777.173	926.71
777.355	814.07
777.537	875.51
777.719	844.79
777.901	789.49
778.083	850.93
778.265	824.31
778.447	766.96
778.629	805.88
778.811	748.53
778.993	855.03
779.175	795.64
779.357	744.44
779.539	750.58
779.721	822.26
779.903	709.62
780.085	752.63
780.267	836.6
780.449	705.53
780.631	744.44
780.812	719.86
780.994	775.16
781.176	793.59
781.358	658.42
781.54	734.2
781.721	709.62
781.903	701.43
782.085	676.85
782.267	705.53
782.448	674.81
782.63	619.51
782.812	769.01
782.993	674.81
783.175	732.15
783.357	609.27
783.538	656.37
783.72	648.18
783.901	603.13
784.083	635.89
784.264	672.76
784.446	627.7
784.627	599.03
784.809	607.22
784.99	648.18
785.172	648.18
785.353	562.17
785.535	619.51
785.716	560.12
785.897	498.68
786.079	582.65
786.26	482.3
786.441	584.7
786.623	441.34
786.804	494.58
786.985	609.27
787.167	537.59
787.348	457.72
787.529	556.02
787.71	525.3
787.891	588.79
788.073	476.15
788.254	480.25
788.435	521.21
788.616	457.72
788.797	455.67
788.978	470.01
789.159	451.58
789.34	451.58
789.522	529.4
789.703	429.05
789.884	463.86
790.065	525.3
790.246	478.2
790.427	510.97
790.607	476.15
790.788	449.53
790.969	461.82
791.15	433.15
791.331	506.87
791.512	377.85
791.693	420.86
791.874	427
792.054	437.24
792.235	478.2
792.416	410.62
792.597	498.68
792.778	402.43
792.958	476.15
793.139	437.24
793.32	410.62
793.5	328.7
793.681	379.9
793.862	416.76
794.042	424.95
794.223	375.8
794.404	472.06
794.584	433.15
794.765	394.23
794.945	373.75
795.126	424.95
795.306	420.86
795.487	451.58
795.667	359.42
795.848	383.99
796.028	343.03
796.209	336.89
796.389	404.47
796.57	343.03
796.75	283.64
796.93	373.75
797.111	349.18
797.291	300.03
797.471	332.79
797.652	383.99
797.832	367.61
798.012	361.47
798.192	322.56
798.373	330.75
798.553	308.22
798.733	353.27
798.913	330.75
799.093	295.93
799.274	263.16
799.454	422.91
799.634	334.84
799.814	314.36
799.994	345.08
800.174	324.6
800.354	408.57
800.534	381.95
800.714	353.27
800.894	373.75
801.074	246.78
801.254	265.21
801.434	295.93
801.614	304.12
801.794	234.49
801.974	687.09
802.154	226.3
802.334	279.55
802.514	254.97
802.693	330.75
802.873	252.92
803.053	283.64
803.233	304.12
803.413	302.08
803.592	269.31
803.772	218.11
803.952	291.84
804.131	281.6
804.311	287.74
804.491	314.36
804.67	254.97
804.85	252.92
805.03	295.93
805.209	328.7
805.389	152.57
805.568	218.11
805.748	259.07
805.928	246.78
806.107	283.64
806.287	316.41
806.466	312.32
806.646	261.12
806.825	224.25
807.004	236.54
807.184	271.36
807.363	216.06
807.543	285.69
807.722	302.08
807.901	240.64
808.081	203.77
808.26	201.72
808.439	244.73
808.619	130.05
808.798	240.64
808.977	289.79
809.156	193.53
809.336	199.68
809.515	187.39
809.694	191.49
809.873	254.97
810.052	209.92
810.231	185.34
810.411	207.87
810.59	269.31
810.769	201.72
810.948	214.01
811.127	224.25
811.306	254.97
811.485	224.25
811.664	211.96
811.843	193.53
812.022	218.11
812.201	201.72
812.38	185.34
812.559	207.87
812.737	252.92
812.916	205.82
813.095	138.24
813.274	183.29
813.453	199.68
813.632	226.3
813.811	250.88
813.989	160.77
814.168	189.44
814.347	238.59
814.526	238.59
814.704	199.68
814.883	177.15
815.062	183.29
815.24	158.72
815.419	195.58
815.598	199.68
815.776	179.2
815.955	173.05
816.133	154.62
816.312	168.96
816.49	154.62
816.669	201.72
816.847	164.86
817.026	257.02
817.204	123.9
817.383	179.2
817.561	201.72
817.74	158.72
817.918	125.95
818.097	177.15
818.275	160.77
818.453	211.96
818.632	160.77
818.81	238.59
818.988	177.15
819.167	185.34
819.345	91.13
819.523	166.91
819.701	185.34
819.879	74.75
820.058	222.2
820.236	31.74
820.414	134.14
820.592	91.13
820.77	132.09
820.948	136.19
821.127	146.43
821.305	132.09
821.483	134.14
821.661	156.67
821.839	146.43
822.017	185.34
822.195	121.85
822.373	216.06
822.551	160.77
822.729	154.62
822.907	111.61
823.085	105.47
823.262	105.47
823.44	66.56
823.618	111.61
823.796	107.52
823.974	123.9
824.152	130.05
824.329	140.29
824.507	191.49
824.685	138.24
824.863	117.76
825.04	152.57
825.218	89.09
825.396	197.63
825.574	150.53
825.751	91.13
825.929	142.33
826.107	130.05
826.284	160.77
826.462	91.13
826.639	130.05
826.817	89.09
826.994	103.42
827.172	99.33
827.349	197.63
827.527	35.84
827.704	205.82
827.882	166.91
828.059	101.37
828.237	140.29
828.414	187.39
828.591	89.09
828.769	166.91
828.946	101.37
829.124	134.14
829.301	74.75
829.478	136.19
829.655	101.37
829.833	117.76
830.01	105.47
830.187	52.22
830.364	72.7
830.542	125.95
830.719	113.66
830.896	175.1
831.073	99.33
831.25	130.05
831.427	72.7
831.604	99.33
831.782	68.61
831.959	128
832.136	56.32
832.313	138.24
832.49	117.76
832.667	72.7
832.844	103.42
833.021	132.09
833.198	103.42
833.374	150.53
833.551	89.09
833.728	31.74
833.905	115.71
834.082	134.14
834.259	138.24
834.436	142.33
834.612	113.66
834.789	91.13
834.966	13.31
835.143	105.47
835.319	99.33
835.496	74.75
835.673	80.89
835.85	84.99
836.026	128
836.203	107.52
836.38	115.71
836.556	37.89
836.733	21.5
836.909	140.29
837.086	78.85
837.262	128
837.439	152.57
837.616	84.99
837.792	134.14
837.968	171.01
838.145	29.7
838.321	70.65
838.498	95.23
838.674	23.55
838.851	146.43
839.027	56.32
839.203	-13.31
839.38	140.29
839.556	41.98
839.732	93.18
839.909	80.89
840.085	119.81
840.261	60.42
840.437	76.8
840.614	128
840.79	84.99
840.966	39.94
841.142	136.19
841.318	56.32
841.494	29.7
841.671	158.72
841.847	37.89
842.023	87.04
842.199	95.23
842.375	136.19
842.551	62.46
842.727	64.51
842.903	54.27
843.079	62.46
843.255	70.65
843.431	21.5
843.607	78.85
843.783	-3.07
843.959	72.7
844.134	76.8
844.31	76.8
844.486	78.85
844.662	148.48
844.838	54.27
845.013	74.75
845.189	70.65
845.365	95.23
845.541	111.61
845.716	89.09
845.892	19.46
846.068	70.65
846.244	3.07
846.419	103.42
846.595	46.08
846.77	35.84
846.946	58.37
847.122	111.61
847.297	13.31
847.473	87.04
847.648	-11.26
847.824	123.9
847.999	78.85
848.175	76.8
848.35	31.74
848.526	80.89
848.701	54.27
848.876	113.66
849.052	89.09
849.227	66.56
849.403	74.75
849.578	95.23
849.753	9.22
849.929	58.37
850.104	111.61
850.279	21.5
850.454	25.6
850.63	17.41
850.805	87.04
850.98	66.56
851.155	107.52
851.33	72.7
851.505	23.55
851.681	105.47
851.856	-11.26
852.031	21.5
852.206	44.03
852.381	113.66
852.556	37.89
852.731	15.36
852.906	103.42
853.081	-21.5
853.256	41.98
853.431	64.51
853.606	72.7
853.781	76.8
853.956	-19.46
854.131	33.79
854.305	-44.03
854.48	46.08
854.655	-11.26
854.83	60.42
855.005	5.12
855.18	-1.02
855.354	76.8
855.529	48.13
855.704	-1.02
855.879	119.81
856.053	58.37
856.228	111.61
856.403	52.22
856.577	134.14
856.752	11.26
856.926	21.5
857.101	31.74
857.276	-21.5
857.45	35.84
857.625	58.37
857.799	87.04
857.974	37.89
858.148	1.02
858.323	66.56
858.497	21.5
858.672	25.6
858.846	-17.41
859.02	91.13
859.195	54.27
859.369	60.42
859.543	-17.41
859.718	41.98
859.892	11.26
860.066	48.13
860.241	-33.79
860.415	41.98
860.589	13.31
860.763	9.22
860.938	-13.31
861.112	54.27
861.286	13.31
861.46	64.51
861.634	54.27
861.808	19.46
861.982	-11.26
862.157	-9.22
862.331	7.17
862.505	64.51
862.679	31.74
862.853	44.03
863.027	115.71
863.201	103.42
863.375	80.89
863.549	1.02
863.722	1.02
863.896	54.27
864.07	27.65
864.244	-17.41
864.418	21.5
864.592	7.17
864.766	80.89
864.939	19.46
865.113	11.26
865.287	115.71
865.461	-19.46
865.634	5.12
865.808	-39.94
865.982	70.65
866.156	17.41
866.329	80.89
866.503	19.46
866.676	48.13
866.85	-23.55
867.024	80.89
867.197	5.12
867.371	111.61
867.544	11.26
867.718	-5.12
867.891	50.18
868.065	27.65
868.238	-9.22
868.412	31.74
868.585	-1.02
868.759	68.61
868.932	25.6
869.105	17.41
869.279	52.22
869.452	21.5
869.625	46.08
869.799	46.08
869.972	52.22
870.145	82.94
870.319	89.09
870.492	-33.79
870.665	-19.46
870.838	46.08
871.011	1.02
871.185	35.84
871.358	-13.31
871.531	3.07
871.704	19.46
871.877	1.02
872.05	27.65
872.223	52.22
872.396	-19.46
872.569	25.6
872.742	56.32
872.915	70.65
873.088	76.8
873.261	-37.89
873.434	11.26
873.607	-13.31
873.78	7.17
873.953	-17.41
874.126	54.27
874.299	-15.36
874.471	19.46
874.644	-44.03
874.817	74.75
874.99	9.22
875.163	9.22
875.335	25.6
875.508	33.79
875.681	54.27
875.853	21.5
876.026	-19.46
876.199	37.89
876.371	44.03
876.544	-21.5
876.717	-1.02
876.889	31.74
877.062	19.46
877.234	-44.03
877.407	78.85
877.579	66.56
877.752	80.89
877.924	-1.02
878.097	3.07
878.269	46.08
878.442	35.84
878.614	5.12
878.786	58.37
878.959	-17.41
879.131	9.22
879.303	-1.02
879.476	39.94
879.648	64.51
879.82	70.65
879.993	-56.32
880.165	-1.02
880.337	27.65
880.509	37.89
880.681	29.7
880.854	19.46
881.026	-15.36
881.198	39.94
881.37	33.79
881.542	-44.03
881.714	41.98
881.886	27.65
882.058	-19.46
882.23	25.6
882.402	17.41
882.574	9.22
882.746	121.85
882.918	17.41
883.09	-31.74
883.262	37.89
883.434	7.17
883.606	-39.94
883.778	93.18
883.95	29.7
884.122	-21.5
884.293	13.31
884.465	62.46
884.637	46.08
884.809	-60.42
884.98	-21.5
885.152	-15.36
885.324	54.27
885.496	-27.65
885.667	76.8
885.839	21.5
886.011	7.17
886.182	23.55
886.354	35.84
886.525	-62.46
886.697	62.46
886.869	-50.18
887.04	64.51
887.212	103.42
887.383	84.99
887.555	37.89
887.726	-3.07
887.897	80.89
888.069	41.98
888.24	-29.7
888.412	87.04
888.583	39.94
888.754	80.89
888.926	13.31
889.097	72.7
889.268	39.94
889.44	9.22
889.611	27.65
889.782	1.02
889.953	39.94
890.125	41.98
890.296	-21.5
890.467	37.89
890.638	19.46
890.809	52.22
890.98	-33.79
891.151	37.89
891.323	5.12
891.494	48.13
891.665	3.07
891.836	64.51
892.007	44.03
892.178	78.85
892.349	35.84
892.52	-1.02
892.691	-15.36
892.862	-39.94
893.032	70.65
893.203	19.46
893.374	17.41
893.545	-46.08
893.716	-31.74
893.887	-9.22
894.057	17.41
894.228	41.98
894.399	33.79
894.57	78.85
894.74	62.46
894.911	-19.46
895.082	-3.07
895.253	-35.84
895.423	19.46
895.594	52.22
895.764	-56.32
895.935	68.61
896.106	-15.36
896.276	-3.07
896.447	35.84
896.617	11.26
896.788	-44.03
896.958	52.22
897.129	-44.03
897.299	-39.94
897.47	19.46
897.64	50.18
897.81	-21.5
897.981	64.51
898.151	-62.46
898.322	48.13
898.492	56.32
898.662	27.65
898.832	44.03
899.003	-27.65
899.173	31.74
899.343	-66.56
899.513	46.08
