Data from USB4F104151__43__11-05-29-058.txt Node

Date: Wed Mar 12 11:05:29 EDT 2025
User: louis
Spectrometer: USB4F10415
Trigger mode: 4
Integration Time (sec): 2.000000E-2
Scans to average: 1
Electric dark correction enabled: true
Nonlinearity correction enabled: false
Boxcar width: 0
XAxis mode: Wavelengths
Number of Pixels in Spectrum: 3648
>>>>>Begin Spectral Data<<<<<
178.204	-16.38
178.424	-16.38
178.644	-16.38
178.864	-49.15
179.084	-104.45
179.304	26.62
179.524	-45.06
179.744	-55.3
179.964	69.63
180.184	-24.58
180.404	-12.29
180.624	-24.58
180.844	30.72
181.064	-2.05
181.283	20.48
181.503	18.43
181.723	-2.05
181.943	-88.06
182.163	34.82
182.383	43.01
182.602	-45.06
182.822	24.58
183.042	38.91
183.262	-26.62
183.482	24.58
183.701	43.01
183.921	16.38
184.141	-16.38
184.361	24.58
184.58	18.43
184.8	-45.06
185.02	6.14
185.239	16.38
185.459	77.82
185.679	12.29
185.898	34.82
186.118	83.97
186.338	2.05
186.557	14.34
186.777	-75.77
186.997	34.82
187.216	-26.62
187.436	43.01
187.655	-32.77
187.875	49.15
188.095	43.01
188.314	32.77
188.534	40.96
188.753	40.96
188.973	20.48
189.192	112.64
189.412	53.25
189.631	14.34
189.851	59.39
190.07	38.91
190.29	14.34
190.509	38.91
190.729	-2.05
190.948	14.34
191.168	86.01
191.387	22.53
191.607	-24.58
191.826	8.19
192.045	30.72
192.265	6.14
192.484	16.38
192.704	-4.1
192.923	-53.25
193.142	57.34
193.362	8.19
193.581	77.82
193.8	-26.62
194.02	-71.68
194.239	63.49
194.458	32.77
194.678	-36.86
194.897	-10.24
195.116	40.96
195.335	8.19
195.555	49.15
195.774	0
195.993	6.14
196.212	-4.1
196.432	26.62
196.651	-40.96
196.87	-40.96
197.089	-4.1
197.308	36.86
197.528	36.86
197.747	32.77
197.966	-16.38
198.185	104.45
198.404	63.49
198.623	-28.67
198.842	30.72
199.062	-24.58
199.281	55.3
199.5	-30.72
199.719	-4.1
199.938	-12.29
200.157	34.82
200.376	38.91
200.595	8.19
200.814	16.38
201.033	102.4
201.252	75.77
201.471	-57.34
201.69	32.77
201.909	53.25
202.128	6.14
202.347	22.53
202.566	49.15
202.785	24.58
203.004	38.91
203.223	63.49
203.442	51.2
203.661	10.24
203.879	-8.19
204.098	12.29
204.317	-55.3
204.536	61.44
204.755	-67.58
204.974	4.1
205.193	61.44
205.411	86.01
205.63	49.15
205.849	81.92
206.068	32.77
206.287	16.38
206.505	26.62
206.724	61.44
206.943	-47.1
207.162	92.16
207.381	-4.1
207.599	53.25
207.818	-16.38
208.037	-12.29
208.255	-43.01
208.474	38.91
208.693	63.49
208.911	-10.24
209.13	2.05
209.349	-47.1
209.567	2.05
209.786	61.44
210.005	77.82
210.223	20.48
210.442	-14.34
210.661	75.77
210.879	34.82
211.098	26.62
211.316	16.38
211.535	16.38
211.753	94.21
211.972	16.38
212.191	-43.01
212.409	57.34
212.628	12.29
212.846	0
213.065	26.62
213.283	36.86
213.502	30.72
213.72	49.15
213.938	0
214.157	77.82
214.375	-20.48
214.594	-47.1
214.812	69.63
215.031	6.14
215.249	34.82
215.467	34.82
215.686	4.1
215.904	69.63
216.122	12.29
216.341	77.82
216.559	-4.1
216.778	38.91
216.996	18.43
217.214	-26.62
217.432	73.73
217.651	57.34
217.869	36.86
218.087	-53.25
218.306	8.19
218.524	8.19
218.742	-22.53
218.96	12.29
219.179	14.34
219.397	14.34
219.615	43.01
219.833	90.11
220.051	-12.29
220.27	12.29
220.488	49.15
220.706	16.38
220.924	38.91
221.142	32.77
221.36	47.1
221.578	-43.01
221.796	90.11
222.015	16.38
222.233	-30.72
222.451	53.25
222.669	-2.05
222.887	20.48
223.105	53.25
223.323	57.34
223.541	-24.58
223.759	-12.29
223.977	10.24
224.195	77.82
224.413	22.53
224.631	-2.05
224.849	-6.14
225.067	69.63
225.285	6.14
225.503	20.48
225.721	40.96
225.939	57.34
226.157	73.73
226.375	32.77
226.592	-10.24
226.81	-36.86
227.028	47.1
227.246	51.2
227.464	32.77
227.682	57.34
227.9	-69.63
228.117	86.01
228.335	-4.1
228.553	-12.29
228.771	53.25
228.989	-2.05
229.206	24.58
229.424	26.62
229.642	67.58
229.86	116.73
230.077	92.16
230.295	51.2
230.513	43.01
230.731	45.06
230.948	71.68
231.166	94.21
231.384	28.67
231.601	-34.82
231.819	63.49
232.037	-40.96
232.254	-49.15
232.472	4.1
232.689	-43.01
232.907	28.67
233.125	12.29
233.342	108.54
233.56	0
233.777	20.48
233.995	43.01
234.213	57.34
234.43	-28.67
234.648	47.1
234.865	-14.34
235.083	-32.77
235.3	-16.38
235.518	51.2
235.735	90.11
235.953	40.96
236.17	73.73
236.388	34.82
236.605	12.29
236.822	124.93
237.04	47.1
237.257	0
237.475	32.77
237.692	24.58
237.909	2.05
238.127	20.48
238.344	-40.96
238.562	18.43
238.779	14.34
238.996	-18.43
239.214	30.72
239.431	36.86
239.648	18.43
239.865	-34.82
240.083	81.92
240.3	36.86
240.517	14.34
240.735	59.39
240.952	24.58
241.169	61.44
241.386	40.96
241.603	32.77
241.821	-26.62
242.038	51.2
242.255	-38.91
242.472	-12.29
242.689	53.25
242.907	53.25
243.124	12.29
243.341	-57.34
243.558	38.91
243.775	0
243.992	38.91
244.209	43.01
244.426	43.01
244.643	-36.86
244.86	8.19
245.078	-8.19
245.295	81.92
245.512	55.3
245.729	4.1
245.946	18.43
246.163	43.01
246.38	8.19
246.597	-22.53
246.814	16.38
247.031	36.86
247.248	2.05
247.464	-18.43
247.681	-30.72
247.898	36.86
248.115	77.82
248.332	38.91
248.549	55.3
248.766	77.82
248.983	94.21
249.2	-12.29
249.417	88.06
249.633	-24.58
249.85	14.34
250.067	-24.58
250.284	81.92
250.501	49.15
250.717	18.43
250.934	-61.44
251.151	-4.1
251.368	14.34
251.585	28.67
251.801	-49.15
252.018	16.38
252.235	0
252.451	-14.34
252.668	28.67
252.885	94.21
253.102	65.54
253.318	79.87
253.535	4.1
253.752	40.96
253.968	-40.96
254.185	12.29
254.401	6.14
254.618	26.62
254.835	36.86
255.051	67.58
255.268	61.44
255.484	63.49
255.701	45.06
255.917	49.15
256.134	-24.58
256.351	96.25
256.567	4.1
256.784	6.14
257	-18.43
257.217	88.06
257.433	-4.1
257.65	22.53
257.866	0
258.082	10.24
258.299	40.96
258.515	18.43
258.732	67.58
258.948	-26.62
259.165	34.82
259.381	94.21
259.597	20.48
259.814	-4.1
260.03	-14.34
260.246	-6.14
260.463	57.34
260.679	40.96
260.895	28.67
261.112	28.67
261.328	-4.1
261.544	-18.43
261.761	-26.62
261.977	4.1
262.193	-8.19
262.409	45.06
262.626	65.54
262.842	34.82
263.058	-6.14
263.274	32.77
263.49	-28.67
263.707	98.3
263.923	53.25
264.139	79.87
264.355	24.58
264.571	77.82
264.787	6.14
265.004	94.21
265.22	12.29
265.436	-12.29
265.652	-18.43
265.868	10.24
266.084	40.96
266.3	-12.29
266.516	40.96
266.732	16.38
266.948	90.11
267.164	83.97
267.38	71.68
267.596	86.01
267.812	79.87
268.028	0
268.244	-22.53
268.46	57.34
268.676	32.77
268.892	22.53
269.108	30.72
269.324	-2.05
269.54	28.67
269.756	49.15
269.972	47.1
270.188	14.34
270.403	51.2
270.619	24.58
270.835	53.25
271.051	118.78
271.267	24.58
271.483	86.01
271.698	12.29
271.914	28.67
272.13	34.82
272.346	-4.1
272.562	65.54
272.777	36.86
272.993	10.24
273.209	28.67
273.425	45.06
273.64	-49.15
273.856	49.15
274.072	77.82
274.287	79.87
274.503	-16.38
274.719	55.3
274.934	55.3
275.15	-32.77
275.366	108.54
275.581	-8.19
275.797	69.63
276.012	0
276.228	10.24
276.444	8.19
276.659	81.92
276.875	-10.24
277.09	24.58
277.306	88.06
277.521	116.73
277.737	6.14
277.952	59.39
278.168	57.34
278.383	12.29
278.599	22.53
278.814	38.91
279.03	108.54
279.245	24.58
279.461	63.49
279.676	45.06
279.892	71.68
280.107	96.25
280.322	-16.38
280.538	26.62
280.753	8.19
280.969	36.86
281.184	16.38
281.399	30.72
281.615	12.29
281.83	4.1
282.045	14.34
282.26	18.43
282.476	63.49
282.691	96.25
282.906	26.62
283.122	10.24
283.337	18.43
283.552	10.24
283.767	-28.67
283.983	14.34
284.198	-18.43
284.413	69.63
284.628	-12.29
284.843	2.05
285.058	59.39
285.274	73.73
285.489	43.01
285.704	34.82
285.919	8.19
286.134	75.77
286.349	32.77
286.564	69.63
286.779	47.1
286.995	88.06
287.21	8.19
287.425	67.58
287.64	22.53
287.855	45.06
288.07	-32.77
288.285	83.97
288.5	114.69
288.715	-12.29
288.93	24.58
289.145	69.63
289.36	67.58
289.575	12.29
289.79	49.15
290.004	55.3
290.219	4.1
290.434	28.67
290.649	40.96
290.864	14.34
291.079	10.24
291.294	-45.06
291.509	77.82
291.724	12.29
291.938	20.48
292.153	2.05
292.368	-26.62
292.583	63.49
292.798	16.38
293.012	98.3
293.227	-4.1
293.442	4.1
293.657	131.07
293.871	47.1
294.086	22.53
294.301	114.69
294.516	34.82
294.73	-16.38
294.945	79.87
295.16	-16.38
295.374	79.87
295.589	90.11
295.804	-16.38
296.018	16.38
296.233	55.3
296.447	-30.72
296.662	14.34
296.877	61.44
297.091	63.49
297.306	53.25
297.52	28.67
297.735	34.82
297.949	90.11
298.164	73.73
298.378	-32.77
298.593	32.77
298.807	-30.72
299.022	96.25
299.236	-24.58
299.451	83.97
299.665	-14.34
299.88	79.87
300.094	16.38
300.309	81.92
300.523	-12.29
300.737	53.25
300.952	-22.53
301.166	12.29
301.381	-20.48
301.595	16.38
301.809	6.14
302.024	143.36
302.238	63.49
302.452	14.34
302.667	-30.72
302.881	90.11
303.095	22.53
303.309	47.1
303.524	-12.29
303.738	102.4
303.952	-40.96
304.166	47.1
304.381	-32.77
304.595	102.4
304.809	12.29
305.023	45.06
305.237	32.77
305.452	110.59
305.666	45.06
305.88	73.73
306.094	-40.96
306.308	38.91
306.522	83.97
306.736	-26.62
306.95	28.67
307.164	-12.29
307.379	12.29
307.593	22.53
307.807	49.15
308.021	-6.14
308.235	8.19
308.449	88.06
308.663	36.86
308.877	94.21
309.091	24.58
309.305	53.25
309.519	-28.67
309.733	-4.1
309.947	-2.05
310.161	49.15
310.374	24.58
310.588	65.54
310.802	2.05
311.016	-40.96
311.23	8.19
311.444	14.34
311.658	53.25
311.872	-2.05
312.085	51.2
312.299	108.54
312.513	94.21
312.727	51.2
312.941	-20.48
313.154	20.48
313.368	65.54
313.582	32.77
313.796	47.1
314.009	49.15
314.223	32.77
314.437	26.62
314.651	-32.77
314.864	-53.25
315.078	36.86
315.292	34.82
315.505	24.58
315.719	79.87
315.933	53.25
316.146	8.19
316.36	-36.86
316.573	100.35
316.787	-53.25
317.001	36.86
317.214	-22.53
317.428	10.24
317.641	22.53
317.855	124.93
318.068	10.24
318.282	12.29
318.495	6.14
318.709	16.38
318.922	4.1
319.136	90.11
319.349	30.72
319.563	8.19
319.776	-24.58
319.99	-8.19
320.203	32.77
320.417	-2.05
320.63	-6.14
320.843	114.69
321.057	55.3
321.27	26.62
321.483	53.25
321.697	30.72
321.91	-8.19
322.124	4.1
322.337	-2.05
322.55	-6.14
322.763	57.34
322.977	10.24
323.19	36.86
323.403	-32.77
323.617	-16.38
323.83	51.2
324.043	67.58
324.256	55.3
324.469	57.34
324.683	65.54
324.896	16.38
325.109	79.87
325.322	57.34
325.535	73.73
325.748	-6.14
325.962	86.01
326.175	-22.53
326.388	36.86
326.601	94.21
326.814	38.91
327.027	51.2
327.24	157.69
327.453	-30.72
327.666	73.73
327.879	-12.29
328.092	81.92
328.305	-14.34
328.518	98.3
328.731	28.67
328.944	57.34
329.157	43.01
329.37	-2.05
329.583	53.25
329.796	2.05
330.009	86.01
330.222	-26.62
330.435	47.1
330.648	81.92
330.861	28.67
331.073	55.3
331.286	59.39
331.499	67.58
331.712	45.06
331.925	40.96
332.138	-8.19
332.35	-2.05
332.563	-57.34
332.776	63.49
332.989	-2.05
333.202	98.3
333.414	77.82
333.627	34.82
333.84	67.58
334.053	63.49
334.265	-32.77
334.478	47.1
334.691	24.58
334.903	34.82
335.116	20.48
335.329	43.01
335.541	102.4
335.754	112.64
335.966	8.19
336.179	96.25
336.392	20.48
336.604	10.24
336.817	65.54
337.029	108.54
337.242	10.24
337.454	65.54
337.667	36.86
337.88	55.3
338.092	16.38
338.305	22.53
338.517	75.77
338.729	57.34
338.942	47.1
339.154	38.91
339.367	61.44
339.579	86.01
339.792	-16.38
340.004	0
340.217	88.06
340.429	79.87
340.641	43.01
340.854	28.67
341.066	55.3
341.278	57.34
341.491	57.34
341.703	28.67
341.915	26.62
342.128	8.19
342.34	47.1
342.552	-36.86
342.764	4.1
342.977	65.54
343.189	63.49
343.401	26.62
343.613	-2.05
343.826	88.06
344.038	49.15
344.25	0
344.462	49.15
344.674	-22.53
344.886	88.06
345.099	106.49
345.311	90.11
345.523	-12.29
345.735	-26.62
345.947	63.49
346.159	-24.58
346.371	34.82
346.583	-22.53
346.795	22.53
347.007	36.86
347.219	65.54
347.431	-26.62
347.643	61.44
347.855	10.24
348.067	4.1
348.279	26.62
348.491	2.05
348.703	-14.34
348.915	0
349.127	0
349.339	24.58
349.551	-32.77
349.763	34.82
349.975	6.14
350.187	69.63
350.399	49.15
350.61	4.1
350.822	47.1
351.034	73.73
351.246	57.34
351.458	-20.48
351.669	22.53
351.881	92.16
352.093	24.58
352.305	32.77
352.517	45.06
352.728	81.92
352.94	43.01
353.152	67.58
353.363	79.87
353.575	88.06
353.787	141.31
353.999	36.86
354.21	8.19
354.422	-14.34
354.633	-8.19
354.845	34.82
355.057	59.39
355.268	-12.29
355.48	-57.34
355.692	38.91
355.903	18.43
356.115	-16.38
356.326	2.05
356.538	61.44
356.749	59.39
356.961	86.01
357.172	90.11
357.384	6.14
357.595	61.44
357.807	45.06
358.018	12.29
358.23	4.1
358.441	120.83
358.653	71.68
358.864	20.48
359.075	-22.53
359.287	63.49
359.498	53.25
359.709	14.34
359.921	65.54
360.132	36.86
360.344	114.69
360.555	47.1
360.766	73.73
360.977	47.1
361.189	45.06
361.4	-4.1
361.611	77.82
361.823	10.24
362.034	90.11
362.245	-18.43
362.456	86.01
362.667	79.87
362.879	-24.58
363.09	55.3
363.301	-22.53
363.512	32.77
363.723	14.34
363.935	24.58
364.146	20.48
364.357	63.49
364.568	20.48
364.779	55.3
364.99	106.49
365.201	34.82
365.412	30.72
365.623	-32.77
365.834	36.86
366.045	53.25
366.256	65.54
366.467	47.1
366.678	86.01
366.889	24.58
367.1	100.35
367.311	63.49
367.522	73.73
367.733	8.19
367.944	92.16
368.155	-22.53
368.366	86.01
368.577	73.73
368.788	104.45
368.999	20.48
369.209	59.39
369.42	22.53
369.631	100.35
369.842	98.3
370.053	40.96
370.264	18.43
370.474	92.16
370.685	8.19
370.896	24.58
371.107	43.01
371.317	106.49
371.528	16.38
371.739	112.64
371.95	24.58
372.16	79.87
372.371	83.97
372.582	65.54
372.792	14.34
373.003	4.1
373.214	100.35
373.424	86.01
373.635	114.69
373.846	129.02
374.056	6.14
374.267	77.82
374.477	65.54
374.688	16.38
374.898	71.68
375.109	86.01
375.319	73.73
375.53	110.59
375.74	22.53
375.951	36.86
376.161	36.86
376.372	14.34
376.582	55.3
376.793	86.01
377.003	-10.24
377.214	40.96
377.424	38.91
377.635	24.58
377.845	69.63
378.055	16.38
378.266	57.34
378.476	90.11
378.686	-40.96
378.897	-32.77
379.107	79.87
379.317	38.91
379.528	102.4
379.738	112.64
379.948	102.4
380.158	0
380.369	-16.38
380.579	32.77
380.789	-4.1
380.999	-22.53
381.21	100.35
381.42	118.78
381.63	34.82
381.84	110.59
382.05	55.3
382.261	79.87
382.471	61.44
382.681	16.38
382.891	57.34
383.101	-16.38
383.311	63.49
383.521	45.06
383.731	67.58
383.941	69.63
384.151	77.82
384.361	-26.62
384.571	36.86
384.781	77.82
384.991	69.63
385.201	86.01
385.411	98.3
385.621	51.2
385.831	-16.38
386.041	77.82
386.251	61.44
386.461	49.15
386.671	20.48
386.881	112.64
387.091	57.34
387.301	24.58
387.511	34.82
387.72	-18.43
387.93	120.83
388.14	43.01
388.35	73.73
388.56	59.39
388.769	55.3
388.979	49.15
389.189	12.29
389.399	55.3
389.609	8.19
389.818	81.92
390.028	47.1
390.238	79.87
390.447	20.48
390.657	43.01
390.867	40.96
391.076	49.15
391.286	30.72
391.496	71.68
391.705	16.38
391.915	73.73
392.125	22.53
392.334	38.91
392.544	51.2
392.753	16.38
392.963	129.02
393.172	79.87
393.382	51.2
393.591	77.82
393.801	47.1
394.01	104.45
394.22	71.68
394.429	149.5
394.639	98.3
394.848	63.49
395.058	-12.29
395.267	59.39
395.477	83.97
395.686	92.16
395.895	110.59
396.105	83.97
396.314	90.11
396.524	122.88
396.733	67.58
396.942	133.12
397.152	102.4
397.361	151.55
397.57	98.3
397.78	86.01
397.989	90.11
398.198	73.73
398.407	34.82
398.617	47.1
398.826	108.54
399.035	36.86
399.244	67.58
399.453	75.77
399.663	86.01
399.872	110.59
400.081	102.4
400.29	141.31
400.499	69.63
400.708	83.97
400.917	57.34
401.127	77.82
401.336	40.96
401.545	208.89
401.754	75.77
401.963	106.49
402.172	49.15
402.381	59.39
402.59	108.54
402.799	100.35
403.008	186.37
403.217	200.7
403.426	67.58
403.635	106.49
403.844	161.79
404.053	86.01
404.262	38.91
404.471	167.93
404.68	110.59
404.888	133.12
405.097	163.84
405.306	131.07
405.515	155.65
405.724	102.4
405.933	204.8
406.142	217.08
406.35	163.84
406.559	110.59
406.768	180.22
406.977	204.8
407.185	200.7
407.394	167.93
407.603	190.46
407.812	245.76
408.02	145.41
408.229	221.18
408.438	200.7
408.646	198.65
408.855	249.85
409.064	225.28
409.272	208.89
409.481	286.72
409.69	198.65
409.898	231.42
410.107	284.67
410.315	303.1
410.524	249.85
410.733	362.49
410.941	286.72
411.15	290.81
411.358	299
411.567	327.67
411.775	450.55
411.984	276.48
412.192	364.54
412.401	344.06
412.609	458.75
412.818	391.16
413.026	430.07
413.234	452.6
413.443	419.83
413.651	518.14
413.86	385.02
414.068	550.9
414.276	555
414.485	542.71
414.693	595.96
414.901	571.38
415.11	595.96
415.318	514.04
415.526	645.11
415.734	645.11
415.943	673.78
416.151	776.18
416.359	755.7
416.567	765.94
416.776	763.89
416.984	841.72
417.192	815.09
417.4	792.56
417.608	862.19
417.817	911.35
418.025	968.69
418.233	1009.65
418.441	925.68
418.649	1116.14
418.857	1075.18
419.065	1107.95
419.273	1116.14
419.481	1138.67
419.689	1241.07
419.897	1390.57
420.105	1304.56
420.313	1452.01
420.521	1368.04
420.729	1435.63
420.937	1562.6
421.145	1595.37
421.353	1558.5
421.561	1761.25
421.769	1687.53
421.977	1865.7
422.185	1687.53
422.393	1935.33
422.601	1957.86
422.809	1943.52
423.017	1957.86
423.224	2058.21
423.432	2160.61
423.64	2095.07
423.848	2310.11
424.056	2310.11
424.263	2414.56
424.471	2465.75
424.679	2500.57
424.887	2723.8
425.094	2668.5
425.302	2711.51
425.51	2904.02
425.718	3043.28
425.925	2967.51
426.133	3151.82
426.341	3284.94
426.548	3368.91
426.756	3534.79
426.964	3356.62
427.171	3606.47
427.379	3895.24
427.586	3862.47
427.794	3864.52
428.001	4147.14
428.209	4425.66
428.417	4276.16
428.624	4577.21
428.832	4509.63
429.039	4313.02
429.247	4642.75
429.454	4904.89
429.662	5357.49
429.869	4958.13
430.076	5261.23
430.284	5183.41
430.491	5470.12
430.699	5603.24
430.906	5767.08
431.114	5515.18
431.321	6066.08
431.528	6360.99
431.736	6481.82
431.943	6760.34
432.15	6688.67
432.358	6449.05
432.565	6760.34
432.772	7022.48
432.979	7208.85
433.187	7466.89
433.394	7624.59
433.601	8052.61
433.808	8073.09
434.016	7905.16
434.223	8394.62
434.43	8771.45
434.637	8576.89
434.844	9365.36
435.052	9377.65
435.259	9265.01
435.466	9330.55
435.673	9246.58
435.88	10086.25
436.087	10573.66
436.294	10467.17
436.501	10231.65
436.708	10522.46
436.915	10891.1
437.122	11265.88
437.329	11276.12
437.537	11485.01
437.743	11788.11
437.95	11796.3
438.157	12156.74
438.364	12654.4
438.571	12320.58
438.778	12769.09
438.985	13856.56
439.192	13438.77
439.399	13842.22
439.606	13453.11
439.813	14372.64
440.02	15175.45
440.227	14892.83
440.433	14976.8
440.64	15410.96
440.847	15197.98
441.054	15527.7
441.261	16762.62
441.467	16318.21
441.674	16924.41
441.881	17016.57
442.088	17182.46
442.294	17141.5
442.501	17458.93
442.708	17649.39
442.914	18544.36
443.121	19410.65
443.328	18747.11
443.534	20135.63
443.741	19527.38
443.948	19496.66
444.154	20997.82
444.361	20842.18
444.568	20866.75
444.774	20944.58
444.981	21386.94
445.187	21503.67
445.394	22808.23
445.6	22281.9
445.807	24522.38
446.013	23172.77
446.22	23742.1
446.426	24712.84
446.633	24845.96
446.839	25757.3
447.046	24782.47
447.252	26193.52
447.459	26095.22
447.665	26007.16
447.871	27047.52
448.078	28239.44
448.284	27002.47
448.491	27952.73
448.697	28558.92
448.903	29161.03
449.11	29034.05
449.316	28665.42
449.522	29365.82
449.728	29886.01
449.935	30398
450.141	30301.75
450.347	30512.69
450.553	29972.02
450.76	29916.73
450.966	31018.53
451.172	30664.24
451.378	31571.49
451.584	31120.93
451.791	31684.12
451.997	31297.06
452.203	32149.01
452.409	31952.41
452.615	31622.69
452.821	30334.51
453.027	30238.26
453.233	31694.36
453.44	30445.1
453.646	30920.23
453.852	30754.35
454.058	31434.27
454.264	30395.95
454.47	31057.45
454.676	30457.39
454.882	30826.03
455.088	28749.39
455.294	28804.68
455.5	29081.16
455.705	29421.12
455.911	28370.51
456.117	27653.72
456.323	27453.02
456.529	25876.09
456.735	27031.14
456.941	26408.56
457.147	25618.04
457.352	24960.64
457.558	24573.58
457.764	24780.42
457.97	24391.31
458.176	23676.57
458.381	23762.58
458.587	22488.74
458.793	22412.97
458.999	21417.66
459.204	22822.56
459.41	22322.86
459.616	20637.38
459.821	20735.68
460.027	20750.02
460.233	20164.3
460.438	19044.06
460.644	19451.61
460.85	18646.76
461.055	18419.43
461.261	18216.68
461.466	16969.47
461.672	16477.96
461.878	17530.61
462.083	16252.68
462.289	16049.93
462.494	16092.94
462.7	15185.69
462.905	14810.91
463.111	15349.53
463.316	15482.64
463.522	15011.61
463.727	15136.54
463.932	15322.9
464.138	14812.96
464.343	15044.38
464.549	14608.16
464.754	15177.5
464.959	14997.28
465.165	14790.43
465.37	14325.54
465.575	13864.75
465.781	14200.62
465.986	14599.97
466.191	14120.74
466.397	13934.38
466.602	13250.36
466.807	13498.16
467.012	13543.22
467.218	13645.62
467.423	13139.77
467.628	13373.24
467.833	13778.73
468.038	13248.31
468.244	13066.04
468.449	13670.19
468.654	13008.7
468.859	12873.53
469.064	12924.73
469.269	12654.4
469.474	12580.67
469.679	12695.36
469.885	12396.35
470.09	12416.83
470.295	12742.46
470.5	12402.5
470.705	12312.39
470.91	12023.62
471.115	11824.97
471.32	11988.81
471.525	11968.33
471.73	11812.68
471.935	11781.96
472.139	11321.17
472.344	11540.3
472.549	11255.64
472.754	11118.42
472.959	11054.94
473.164	10731.36
473.369	10544.99
473.574	10899.29
473.778	10727.26
473.983	10594.14
474.188	10653.53
474.393	10217.32
474.598	10262.37
474.802	10196.84
475.007	10182.5
475.212	10026.85
475.417	9701.23
475.621	9791.34
475.826	9654.12
476.031	9510.77
476.235	9555.82
476.44	9459.57
476.645	9332.59
476.849	9406.32
477.054	9279.35
477.259	9052.02
477.463	9150.32
477.668	8773.5
477.872	8892.28
478.077	8812.41
478.282	8589.18
478.486	8474.49
478.691	8425.34
478.895	8497.02
479.1	8439.68
479.304	8646.52
479.509	8136.58
479.713	8476.54
479.918	8150.92
480.122	7989.13
480.326	8130.44
480.531	8161.16
480.735	8232.83
480.94	7853.96
481.144	8251.27
481.348	7917.45
481.553	8073.09
481.757	7874.44
481.961	7954.31
482.166	8112
482.37	8144.77
482.574	7864.2
482.778	8030.09
482.983	8005.51
483.187	7866.25
483.391	7991.17
483.595	7653.26
483.8	7677.83
484.004	7813
484.208	7913.35
484.412	7829.38
484.616	8011.65
484.821	7950.21
485.025	7813
485.229	8124.29
485.433	7786.38
485.637	8001.41
485.841	7733.13
486.045	7864.2
486.249	7937.93
486.453	7868.3
486.657	7853.96
486.861	7819.14
487.065	7653.26
487.269	7890.82
487.473	7731.08
487.677	7911.3
487.881	8003.46
488.085	8009.61
488.289	7993.22
488.493	7690.12
488.697	7903.11
488.901	8066.95
489.105	7956.36
489.309	7956.36
489.512	7962.5
489.716	7868.3
489.92	8226.69
490.124	7774.09
490.328	8136.58
490.531	8136.58
490.735	8091.52
490.939	8204.16
491.143	8017.8
491.346	8023.94
491.55	8136.58
491.754	8288.13
491.958	8392.58
492.161	8079.24
492.365	8470.4
492.569	8306.56
492.772	8243.07
492.976	8353.66
493.18	8511.36
493.383	8540.03
493.587	8447.87
493.79	8757.11
493.994	8638.33
494.197	8740.73
494.401	8742.78
494.605	8787.83
494.808	8990.58
495.012	9017.21
495.215	8927.1
495.419	9176.95
495.622	9015.16
495.825	9265.01
496.029	9125.75
496.232	9285.49
496.436	9328.5
496.639	9777
496.843	9598.83
497.046	9803.63
497.249	9983.85
497.453	9885.55
497.656	10084.2
497.859	10248.04
498.063	10110.82
498.266	10254.18
498.469	10385.25
498.673	10389.35
498.876	10561.37
499.079	10753.88
499.282	10714.97
499.485	11073.37
499.689	10887
499.892	11181.91
500.095	11179.86
500.298	11620.17
500.501	11564.88
500.705	11648.85
500.908	11810.64
501.111	11794.25
501.314	11982.67
501.517	12078.92
501.72	12461.89
501.923	12418.88
502.126	12693.31
502.329	12894.01
502.532	12906.3
502.735	13057.85
502.938	13076.28
503.141	13180.73
503.344	13363
503.547	13483.83
503.75	13629.23
503.953	13854.51
504.156	13897.52
504.359	14255.91
504.562	14149.42
504.765	14454.56
504.968	14446.37
505.17	15003.42
505.373	15058.71
505.576	14962.46
505.779	15103.77
505.982	15189.78
506.185	15769.36
506.387	15675.15
506.59	15724.3
506.793	16396.04
506.996	16410.37
507.198	16574.21
507.401	16537.35
507.604	16686.85
507.807	17026.81
508.009	17217.27
508.212	17192.7
508.415	17764.08
508.617	17702.64
508.82	17802.99
509.022	17600.24
509.225	18558.69
509.428	18274.03
509.63	18523.88
509.833	18622.18
510.035	18992.86
510.238	18980.57
510.44	19236.57
510.643	19615.44
510.845	19850.96
511.048	19379.93
511.25	20000.46
511.453	20086.48
511.655	20766.4
511.858	20686.53
512.06	20682.44
512.262	21057.21
512.465	21145.28
512.667	21388.99
512.87	21573.3
513.072	21712.56
513.274	22183.6
513.477	22367.91
513.679	22523.56
513.881	22574.76
514.084	22949.54
514.286	23015.07
514.488	23334.56
514.69	23826.07
514.893	23783.06
515.095	23832.21
515.297	24366.73
515.499	24131.22
515.701	24585.86
515.904	25044.61
516.106	25112.19
516.308	25187.97
516.51	25749.11
516.712	25613.95
516.914	25759.35
517.116	26226.29
517.318	26359.41
517.52	26703.46
517.722	26981.99
517.925	27407.97
518.127	27405.92
518.329	27981.4
518.531	27766.36
518.733	28153.43
518.935	28311.12
519.136	28446.29
519.338	28855.88
519.54	28864.07
519.742	29335.1
519.944	29697.59
520.146	29990.45
520.348	30062.13
520.55	30422.58
520.752	30584.37
520.954	31063.59
521.155	30946.86
521.357	31540.77
521.559	31370.79
521.761	31843.87
521.963	31968.79
522.164	32194.07
522.366	32491.02
522.568	32650.77
522.77	32775.69
522.971	33476.1
523.173	33170.95
523.375	33793.53
523.576	33584.64
523.778	33469.95
523.98	33990.14
524.181	34285.04
524.383	34463.22
524.584	34590.19
524.786	34858.48
524.988	35087.85
525.189	35620.32
525.391	35567.07
525.592	35511.78
525.794	36005.34
525.995	35653.09
526.197	36015.58
526.398	36410.84
526.6	36341.21
526.801	36720.08
527.003	37019.08
527.204	37053.9
527.406	37027.28
527.607	36785.61
527.808	37514.69
528.01	36863.44
528.211	37819.84
528.412	38124.99
528.614	37811.65
528.815	37727.68
529.016	38391.22
529.218	37563.84
529.419	38053.31
529.62	37961.15
529.822	38067.64
530.023	38032.83
530.224	38522.29
530.425	38370.74
530.626	38225.34
530.828	38299.06
531.029	39445.93
531.23	38753.71
531.431	38856.11
531.632	38817.2
531.833	39208.36
532.035	38839.73
532.236	39294.38
532.437	39663.01
532.638	38931.89
532.839	39347.62
533.04	39517.61
533.241	38919.6
533.442	39892.38
533.643	39689.63
533.844	39536.04
534.045	39544.23
534.246	39204.27
534.447	39554.47
534.648	39628.2
534.849	39927.2
535.05	39796.13
535.251	40113.56
535.451	39228.84
535.652	40170.91
535.853	39658.91
536.054	39964.06
536.255	39777.7
536.456	39337.38
536.657	40189.34
536.857	39761.31
537.058	39452.07
537.259	40256.92
537.46	40017.31
537.66	39931.29
537.861	39902.62
538.062	39581.09
538.263	39933.34
538.463	39368.1
538.664	39673.25
538.865	40068.51
539.065	40189.34
539.266	39318.95
539.466	40433.05
539.667	39718.31
539.868	40543.64
540.068	40070.56
540.269	39669.15
540.469	40134.04
540.67	40099.23
540.87	39884.19
541.071	39652.77
541.271	39992.73
541.472	39873.95
541.672	39794.08
541.873	39962.01
542.073	39349.67
542.274	40164.76
542.474	39699.87
542.675	39558.56
542.875	39937.44
543.075	39886.24
543.276	39435.69
543.476	40054.17
543.676	39773.6
543.877	39613.86
544.077	39724.45
544.277	39527.84
544.478	39687.59
544.678	39775.65
544.878	39998.88
545.078	39660.96
545.279	39828.9
545.479	39785.89
545.679	39605.67
545.879	39992.73
546.079	39810.46
546.28	39669.15
546.48	39591.33
546.68	39955.87
546.88	39863.71
547.08	39814.56
547.28	39464.36
547.48	39191.98
547.68	40193.43
547.88	39611.81
548.081	39570.85
548.281	40031.65
548.481	39695.78
548.681	39630.24
548.881	39454.12
549.081	40095.13
549.28	39089.58
549.48	39884.19
549.68	39497.13
549.88	39857.57
550.08	39216.55
550.28	39777.7
550.48	39521.7
550.68	39785.89
550.88	38997.42
551.08	39820.7
551.279	39194.03
551.479	39093.68
551.679	39593.38
551.879	39413.16
552.079	39587.24
552.278	39359.91
552.478	39065
552.678	39454.12
552.878	39267.75
553.077	39310.76
553.277	38757.81
553.477	39814.56
553.676	39185.83
553.876	39097.77
554.076	39218.6
554.275	39056.81
554.475	38847.92
554.674	38919.6
554.874	39415.21
555.074	38999.47
555.273	39011.76
555.473	39085.48
555.672	38503.86
555.872	38620.59
556.071	38968.75
556.271	39095.72
556.47	38469.04
556.67	38493.62
556.869	38393.27
557.068	38659.51
557.268	38526.39
557.467	38399.41
557.667	38540.72
557.866	38583.73
558.065	38634.93
558.265	38266.3
558.464	38196.67
558.663	38614.45
558.863	38118.84
559.062	38204.86
559.261	38067.64
559.461	38262.2
559.66	37635.52
559.859	38243.77
560.058	37531.08
560.258	37889.47
560.457	37492.16
560.656	38116.79
560.855	37782.98
561.054	38081.98
561.253	37522.88
561.453	37406.15
561.652	37512.64
561.851	37690.82
562.05	37170.63
562.249	37029.32
562.448	37696.96
562.647	37254.6
562.846	36920.78
563.045	36857.29
563.244	36640.21
563.443	37037.51
563.642	36500.95
563.841	36662.74
564.04	36470.23
564.239	36656.59
564.438	36277.72
564.637	36693.46
564.836	36546
565.035	35827.17
565.234	36398.55
565.432	36085.21
565.631	36081.11
565.83	36404.69
566.029	36224.47
566.228	36056.54
566.427	35614.18
566.625	35384.8
566.824	35190.25
567.023	35659.23
567.222	34985.45
567.42	35407.33
567.619	35546.59
567.818	34956.78
568.016	35102.18
568.215	35128.81
568.414	34813.42
568.612	35147.24
568.811	34682.35
569.01	34772.46
569.208	34463.22
569.407	34416.11
569.605	34125.3
569.804	34745.84
570.002	33994.23
570.201	34274.81
570.4	34033.14
570.598	33713.66
570.797	33854.97
570.995	34018.81
571.193	33412.61
571.392	33883.64
571.59	33312.26
571.789	33459.71
571.987	32996.87
572.186	33328.64
572.384	32990.73
572.582	33437.19
572.781	32960.01
572.979	32495.12
573.177	32759.31
573.376	33248.77
573.574	32628.24
573.772	32505.36
573.971	32472.59
574.169	32243.22
574.367	32022.04
574.565	32157.21
574.763	32181.78
574.962	31946.26
575.16	31776.28
575.358	32103.96
575.556	31712.8
575.754	32353.81
575.952	31147.56
576.151	31618.59
576.349	31147.56
576.547	31227.43
576.745	31319.59
576.943	31401.5
577.141	31458.85
577.339	31577.63
577.537	30789.16
577.735	31170.08
577.933	30457.39
578.131	30592.56
578.329	30299.7
578.527	30541.36
578.725	30395.95
578.923	30785.07
579.121	30801.45
579.319	29949.49
579.516	30363.18
579.714	29771.32
579.912	29873.72
580.11	29859.38
580.308	30127.67
580.506	30062.13
580.704	29277.76
580.901	29513.28
581.099	29644.35
581.297	29275.71
581.495	28993.09
581.692	29314.62
581.89	29290.05
582.088	29609.53
582.285	28872.26
582.483	29384.26
582.681	29091.4
582.878	28909.13
583.076	28644.94
583.274	28780.1
583.471	28614.22
583.669	28626.51
583.866	28218.96
584.064	28896.84
584.262	28247.63
584.459	28507.72
584.657	28411.47
584.854	28251.73
585.052	27897.43
585.249	28005.97
585.447	28036.69
585.644	27752.02
585.841	27858.52
586.039	28057.17
586.236	27450.97
586.434	27467.36
586.631	27627.1
586.828	27311.71
587.026	27481.69
587.223	27487.84
587.42	27108.96
587.618	27088.48
587.815	27047.52
588.012	26945.12
588.21	26814.05
588.407	27178.59
588.604	26510.96
588.801	26609.26
588.999	26388.08
589.196	26650.22
589.393	26613.35
589.59	26295.92
589.787	25970.29
589.984	26367.6
590.182	25749.11
590.379	26121.84
590.576	25734.78
590.773	25962.1
590.97	25927.28
591.167	25691.77
591.364	25390.72
591.561	25632.38
591.758	25329.28
591.955	25306.75
592.152	25575.03
592.349	25435.77
592.546	25204.35
592.743	25276.03
592.94	24960.64
593.137	25015.94
593.334	25079.43
593.531	24782.47
593.727	25118.34
593.924	25038.47
594.121	24727.17
594.318	24819.33
594.515	24567.43
594.712	24700.55
594.908	24508.04
595.105	24465.03
595.302	23856.79
595.499	24221.33
595.696	24225.42
595.892	23973.52
596.089	24075.92
596.286	24032.91
596.482	23858.84
596.679	23850.64
596.876	23762.58
597.072	23619.22
597.269	23725.72
597.466	23539.35
597.662	23406.23
597.859	23367.32
598.055	23471.77
598.252	22922.91
598.448	23383.71
598.645	23320.22
598.841	22707.88
599.038	23109.28
599.234	22916.77
599.431	22369.96
599.627	22488.74
599.824	22908.58
600.02	22525.61
600.217	22826.66
600.413	22464.17
600.609	22671.01
600.806	22464.17
601.002	22535.85
601.198	22218.41
601.395	21843.63
601.591	22046.38
601.787	22275.76
601.984	21937.84
602.18	21927.6
602.376	21962.42
602.572	21761.72
602.769	21710.52
602.965	21485.24
603.161	21788.34
603.357	21266.11
603.553	21622.45
603.75	21386.94
603.946	21126.85
604.142	21929.65
604.338	20883.14
604.534	21274.3
604.73	20893.38
604.926	21034.69
605.122	21087.93
605.318	20989.63
605.514	20739.78
605.71	20412.1
605.906	20917.95
606.102	20594.37
606.298	20553.41
606.494	20702.92
606.69	20616.9
606.886	20631.24
607.082	20059.85
607.278	20289.23
607.474	20143.82
607.67	20180.68
607.866	20018.89
608.062	20031.18
608.257	20207.31
608.453	19680.98
608.649	20057.81
608.845	19701.46
609.041	19760.85
609.236	20008.65
609.432	19781.33
609.628	19828.43
609.824	19576.53
610.019	19594.96
610.215	19836.63
610.411	19695.32
610.606	19338.97
610.802	19513.05
610.998	19568.34
611.193	19476.18
611.389	19349.21
611.584	19365.59
611.78	19201.75
611.976	19168.99
612.171	19283.67
612.367	19295.96
612.562	19244.76
612.758	18833.12
612.953	19128.03
613.149	19089.12
613.344	18759.39
613.539	19048.16
613.735	18605.8
613.93	19283.67
614.126	18908.9
614.321	18880.22
614.517	18724.58
614.712	18712.29
614.907	18755.3
615.103	18884.32
615.298	18634.47
615.493	18759.39
615.688	18444.01
615.884	18984.67
616.079	18114.28
616.274	18501.35
616.47	18511.59
616.665	18552.55
616.86	18228.97
617.055	17907.44
617.25	18149.1
617.445	18282.22
617.641	17878.77
617.836	17970.93
618.031	17782.51
618.226	18300.65
618.421	17809.14
618.616	17975.02
618.811	17794.8
619.006	17798.9
619.201	17327.86
619.396	17637.11
619.591	17245.94
619.786	17590
619.981	17348.34
620.176	17622.77
620.371	17317.62
620.566	17231.61
620.761	16973.56
620.956	17329.91
621.151	17012.48
621.346	17118.97
621.541	16955.13
621.735	16660.23
621.93	16484.1
622.125	16715.52
622.32	16422.66
622.515	16488.2
622.709	16498.44
622.904	16301.83
623.099	16154.38
623.294	16221.96
623.488	16049.93
623.683	15992.59
623.878	15908.62
624.072	15685.39
624.267	16011.02
624.462	15724.3
624.656	15535.89
624.851	15767.31
625.046	15363.86
625.24	15365.91
625.435	15169.3
625.629	15445.78
625.824	15132.44
626.018	15079.19
626.213	14831.39
626.407	15030.04
626.602	14673.7
626.796	14860.06
626.991	14931.74
627.185	14552.87
627.38	14757.66
627.574	14384.93
627.768	14192.42
627.963	14163.75
628.157	14249.77
628.352	14227.24
628.546	13922.09
628.74	14137.13
628.935	13786.93
629.129	13936.43
629.323	13684.53
629.517	13510.45
629.712	13557.55
629.906	13623.09
630.1	13426.48
630.294	13260.6
630.489	13303.6
630.683	13391.67
630.877	13121.34
631.071	13111.1
631.265	13250.36
631.459	13066.04
631.653	12943.16
631.848	12709.69
632.042	12642.11
632.236	12625.73
632.43	12689.21
632.624	12687.17
632.818	12760.89
633.012	12537.66
633.206	12339.01
633.4	12445.51
633.594	12132.17
633.788	12226.37
633.982	12058.44
634.176	12412.74
634.369	12134.21
634.563	11980.62
634.757	11728.72
634.951	11988.81
635.145	11857.74
635.339	11792.2
635.533	11667.28
635.726	11784.01
635.92	11480.91
636.114	11364.18
636.308	11364.18
636.501	11429.71
636.695	11308.88
636.889	11274.07
637.083	11020.12
637.276	10995.54
637.47	11116.37
637.664	11085.65
637.857	11394.9
638.051	10796.89
638.244	10927.96
638.438	10757.98
638.632	10649.44
638.825	10684.25
639.019	10479.46
639.212	10452.83
639.406	10536.8
639.599	10440.54
639.793	10434.4
639.986	10350.43
640.18	10309.47
640.373	10194.79
640.567	10235.75
640.76	9996.14
640.954	10090.34
641.147	10018.66
641.34	9926.5
641.534	10018.66
641.727	9813.87
641.92	9822.06
642.114	9695.08
642.307	9731.95
642.5	9944.94
642.694	9543.53
642.887	9561.97
643.08	9699.18
643.273	9533.29
643.467	9512.81
643.66	9222
643.853	9320.31
644.046	9258.87
644.239	9273.2
644.432	9086.84
644.626	9000.82
644.819	9031.54
645.012	9176.95
645.205	9148.28
645.398	8871.8
645.591	8888.18
645.784	8826.75
645.977	8793.98
646.17	8902.52
646.363	8660.86
646.556	8470.4
646.749	8662.91
646.942	8445.82
647.135	8468.35
647.328	8427.39
647.521	8677.24
647.714	8267.65
647.907	8347.52
648.099	8474.49
648.292	8198.02
648.485	8198.02
648.678	8185.73
648.871	8183.68
649.064	8021.89
649.256	8144.77
649.449	7974.79
649.642	8021.89
649.835	7753.61
650.027	7860.1
650.22	7993.22
650.413	7792.52
650.605	7825.29
650.798	7591.82
650.991	7518.09
651.183	7649.16
651.376	7456.65
651.568	7628.68
651.761	7456.65
651.954	7434.13
652.146	7464.85
652.339	7577.48
652.531	7452.56
652.724	7356.3
652.916	7114.64
653.109	7221.14
653.301	7128.98
653.494	7151.51
653.686	7153.55
653.879	7102.36
654.071	7077.78
654.263	6946.71
654.456	7126.93
654.648	6993.81
654.84	6997.91
655.033	6952.85
655.225	6924.18
655.417	6709.15
655.61	6827.93
655.802	6872.98
655.994	6770.58
656.186	6616.99
656.379	6549.4
656.571	6655.9
656.763	6643.61
656.955	6676.38
657.148	6508.44
657.34	6487.96
657.532	6412.19
657.724	6389.66
657.916	6287.26
658.108	6256.54
658.3	6301.6
658.492	6188.96
658.684	6393.76
658.876	6213.54
659.068	6231.97
659.26	6160.29
659.452	6182.82
659.644	6203.3
659.836	6154.15
660.028	6068.13
660.22	5996.45
660.412	5955.49
660.604	5969.83
660.796	6055.84
660.988	5881.77
661.18	5955.49
661.372	5719.98
661.563	5935.01
661.755	5713.83
661.947	5896.1
662.139	5760.94
662.331	5752.74
662.522	5586.86
662.714	5683.11
662.906	5599.15
663.097	5593
663.289	5437.36
663.481	5578.67
663.673	5685.16
663.864	5406.64
664.056	5466.03
664.247	5423.02
664.439	5267.38
664.631	5377.97
664.822	5443.5
665.014	5296.05
665.205	5363.63
665.397	5291.95
665.588	5367.73
665.78	5144.5
665.971	5195.7
666.163	5156.79
666.354	5154.74
666.546	5175.22
666.737	5064.63
666.929	5175.22
667.12	5054.39
667.311	5136.31
667.503	5089.2
667.694	5078.96
667.885	4986.8
668.077	4964.28
668.268	4908.98
668.459	4839.35
668.651	4769.72
668.842	4939.7
669.033	4853.69
669.224	4722.62
669.416	5033.91
669.607	4648.89
669.798	4714.42
669.989	4708.28
670.18	4671.42
670.371	4794.29
670.563	4652.98
670.754	4700.09
670.945	4724.66
671.136	4652.98
671.327	4657.08
671.518	4530.11
671.709	4702.14
671.9	4626.36
672.091	4491.2
672.282	4526.01
672.473	4595.64
672.664	4519.87
672.855	4562.87
673.046	4519.87
673.237	4366.27
673.428	4519.87
673.619	4388.8
673.809	4440
674	4421.56
674.191	4345.79
674.382	4353.98
674.573	4263.87
674.764	4302.78
674.954	4317.12
675.145	4278.21
675.336	4278.21
675.527	4323.26
675.717	4224.96
675.908	4163.52
676.099	4251.58
676.289	4186.05
676.48	3971.01
676.671	4140.99
676.861	4194.24
677.052	4065.22
677.243	3948.48
677.433	4087.75
677.624	4147.14
677.814	4194.24
678.005	4063.17
678.195	4034.5
678.386	4075.46
678.576	4018.11
678.767	4050.88
678.957	3979.2
679.148	4048.83
679.338	3999.68
679.529	3852.23
679.719	3979.2
679.909	4149.18
680.1	4022.21
680.29	3923.91
680.481	4085.7
680.671	4112.32
680.861	3934.15
681.052	4083.65
681.242	3807.17
681.432	3821.51
681.622	3923.91
681.813	3909.57
682.003	3903.43
682.193	3981.25
682.383	3852.23
682.573	3923.91
682.764	3876.8
682.954	4067.27
683.144	3928
683.334	3928
683.524	3835.85
683.714	3706.82
683.904	3827.65
684.094	3856.33
684.284	3674.06
684.474	3758.02
684.664	3823.56
684.854	3731.4
685.044	3770.31
685.234	3663.82
685.424	3796.93
685.614	3827.65
685.804	3839.94
685.994	3583.95
686.184	3674.06
686.374	3624.9
686.564	3661.77
686.753	3772.36
686.943	3706.82
687.133	3762.12
687.323	3536.84
687.513	3635.14
687.702	3489.74
687.892	3508.17
688.082	3661.77
688.272	3354.57
688.461	3706.82
688.651	3477.45
688.841	3534.79
689.03	3469.26
689.22	3436.49
689.41	3489.74
689.599	3467.21
689.789	3456.97
689.979	3393.48
690.168	3459.02
690.358	3368.91
690.547	3268.56
690.737	3436.49
690.926	3348.43
691.116	3284.94
691.305	3342.28
691.495	3295.18
691.684	3188.69
691.874	3473.35
692.063	3280.85
692.252	3137.49
692.442	3291.09
692.631	3254.22
692.82	3135.44
693.01	3178.45
693.199	3225.55
693.388	3256.27
693.578	3219.41
693.767	3162.06
693.956	3180.5
694.146	3135.44
694.335	3170.26
694.524	3133.39
694.713	3166.16
694.902	3082.19
695.092	3215.31
695.281	3168.21
695.47	3295.18
695.659	3043.28
695.848	3020.75
696.037	3157.97
696.226	3028.95
696.415	3049.43
696.604	3096.53
696.793	2998.23
696.982	3049.43
697.171	2992.08
697.36	3096.53
697.549	3143.63
697.738	3039.19
697.927	2949.07
698.116	3067.86
698.305	3108.82
698.494	3051.47
698.683	3055.57
698.872	2965.46
699.061	2981.84
699.25	3030.99
699.438	2944.98
699.627	3080.14
699.816	3067.86
700.005	2985.94
700.193	3108.82
700.382	3061.71
700.571	3022.8
700.76	3018.71
700.948	3059.67
701.137	2957.27
701.326	3045.33
701.514	2883.54
701.703	3112.91
701.892	2846.68
702.08	2959.31
702.269	2994.13
702.457	2854.87
702.646	2914.26
702.834	2949.07
703.023	2901.97
703.212	2926.55
703.4	3037.14
703.589	2889.68
703.777	3076.05
703.965	2805.72
704.154	2942.93
704.342	2875.35
704.531	2904.02
704.719	2975.7
704.907	3112.91
705.096	2805.72
705.284	2977.75
705.472	3051.47
705.661	2891.73
705.849	2881.49
706.037	2942.93
706.226	2877.4
706.414	3010.51
706.602	2881.49
706.79	2983.89
706.979	3043.28
707.167	2932.69
707.355	2885.59
707.543	2910.16
707.731	3041.23
707.919	2928.6
708.107	2973.65
708.296	2834.39
708.484	2822.1
708.672	2797.53
708.86	2893.78
709.048	3006.42
709.236	2846.68
709.424	2940.88
709.612	2922.45
709.8	2881.49
709.988	2795.48
710.176	2897.88
710.364	2885.59
710.551	2789.33
710.739	2924.5
710.927	2885.59
711.115	2938.84
711.303	2799.57
711.491	2967.51
711.679	2813.91
711.866	2865.11
712.054	2920.4
712.242	2908.12
712.43	2969.55
712.617	2801.62
712.805	2932.69
712.993	2836.44
713.181	2822.1
713.368	2904.02
713.556	2895.83
713.744	2830.29
713.931	2940.88
714.119	2840.53
714.306	3018.71
714.494	2977.75
714.682	2959.31
714.869	2904.02
715.057	2842.58
715.244	2891.73
715.432	2869.2
715.619	2852.82
715.807	2785.24
715.994	2813.91
716.182	2770.9
716.369	2854.87
716.556	2938.84
716.744	2809.81
716.931	2764.76
717.119	2846.68
717.306	2770.9
717.493	2908.12
717.681	2717.65
717.868	2750.42
718.055	2785.24
718.242	2918.36
718.43	2822.1
718.617	2832.34
718.804	2781.14
718.991	2723.8
719.179	2775
719.366	2822.1
719.553	2742.23
719.74	2856.92
719.927	2740.18
720.114	2822.1
720.301	2729.94
720.488	2775
720.676	2787.29
720.863	2844.63
721.05	2861.01
721.237	2699.22
721.424	2762.71
721.611	2785.24
721.798	2760.66
721.985	2787.29
722.172	2828.24
722.358	2826.2
722.545	2813.91
722.732	2813.91
722.919	2801.62
723.106	2752.47
723.293	2807.77
723.48	2770.9
723.667	2734.04
723.853	2703.32
724.04	2818.01
724.227	2744.28
724.414	2895.83
724.6	2615.26
724.787	2811.86
724.974	2836.44
725.161	2719.7
725.347	2713.56
725.534	2918.36
725.72	2709.46
725.907	2822.1
726.094	2811.86
726.28	2748.37
726.467	2703.32
726.653	2809.81
726.84	2824.15
727.027	2818.01
727.213	2744.28
727.4	2830.29
727.586	2867.16
727.773	2688.98
727.959	2791.38
728.145	2807.77
728.332	2713.56
728.518	2799.57
728.705	2848.72
728.891	2838.48
729.077	2734.04
729.264	2772.95
729.45	2674.65
729.636	2701.27
729.823	2654.17
730.009	2777.05
730.195	2764.76
730.382	2744.28
730.568	2658.26
730.754	2678.74
730.94	2785.24
731.126	2834.39
731.313	2801.62
731.499	2818.01
731.685	2781.14
731.871	2764.76
732.057	2811.86
732.243	2797.53
732.429	2717.65
732.615	2697.17
732.801	2641.88
732.987	2705.37
733.173	2731.99
733.359	2750.42
733.545	2658.26
733.731	2607.06
733.917	2793.43
734.103	2658.26
734.289	2707.41
734.475	2797.53
734.661	2820.05
734.847	2686.93
735.033	2691.03
735.219	2729.94
735.404	2703.32
735.59	2654.17
735.776	2682.84
735.962	2725.85
736.148	2674.65
736.333	2695.13
736.519	2613.21
736.705	2701.27
736.89	2699.22
737.076	2705.37
737.262	2531.29
737.447	2570.2
737.633	2629.59
737.819	2645.98
738.004	2637.78
738.19	2613.21
738.375	2734.04
738.561	2717.65
738.747	2541.53
738.932	2541.53
739.118	2562.01
739.303	2654.17
739.489	2510.81
739.674	2516.95
739.859	2592.73
740.045	2623.45
740.23	2678.74
740.416	2584.54
740.601	2613.21
740.786	2451.42
740.972	2461.66
741.157	2465.75
741.342	2385.88
741.528	2527.19
741.713	2568.15
741.898	2471.9
742.084	2455.51
742.269	2525.15
742.454	2478.04
742.639	2574.3
742.824	2349.02
743.01	2406.36
743.195	2541.53
743.38	2320.35
743.565	2486.23
743.75	2322.4
743.935	2441.18
744.12	2447.32
744.305	2465.75
744.49	2426.84
744.675	2338.78
744.86	2256.86
745.045	2334.68
745.23	2330.59
745.415	2215.9
745.6	2351.07
745.785	2340.83
745.97	2263.01
746.155	2230.24
746.34	2320.35
746.525	2238.43
746.71	2303.96
746.895	2322.4
747.079	2152.42
747.264	2246.62
747.449	2250.72
747.634	2142.18
747.819	2123.74
748.003	2099.17
748.188	2195.42
748.373	2070.5
748.557	2172.89
748.742	2095.07
748.927	2062.3
749.111	2025.44
749.296	2002.91
749.481	2174.94
749.665	2064.35
749.85	1986.53
750.034	2093.02
750.219	2037.73
750.404	1976.29
750.588	2023.39
750.773	2021.35
750.957	1925.09
751.141	2041.82
751.326	2004.96
751.51	1853.41
751.695	1933.28
751.879	1974.24
752.064	1849.32
752.248	1943.52
752.432	1837.03
752.617	1867.75
752.801	1925.09
752.985	1775.59
753.17	1851.36
753.354	1832.93
753.538	1849.32
753.722	1847.27
753.907	1732.58
754.091	1724.39
754.275	1744.87
754.459	1734.63
754.643	1660.9
754.828	1697.77
755.012	1724.39
755.196	1722.34
755.38	1576.94
755.564	1646.57
755.748	1648.61
755.932	1576.94
756.116	1675.24
756.3	1671.14
756.484	1572.84
756.668	1679.33
756.852	1474.54
757.036	1634.28
757.22	1529.83
757.404	1449.96
757.588	1492.97
757.772	1578.98
757.956	1583.08
758.14	1482.73
758.323	1540.07
758.507	1388.52
758.691	1425.39
758.875	1474.54
759.059	1331.18
759.242	1347.56
759.426	1501.16
759.61	1286.12
759.794	1396.71
759.977	1294.32
760.161	1382.38
760.345	1384.43
760.528	1370.09
760.712	1474.54
760.895	1366
761.079	1327.08
761.263	1335.28
761.446	1376.23
761.63	1314.8
761.813	1216.49
761.997	1267.69
762.18	1296.36
762.364	1267.69
762.547	1282.03
762.731	1265.64
762.914	1302.51
763.098	1343.47
763.281	1370.09
763.464	1204.21
763.648	1224.69
763.831	1292.27
764.015	1259.5
764.198	1241.07
764.381	1273.84
764.564	1296.36
764.748	1253.36
764.931	1204.21
765.114	1228.78
765.297	1216.49
765.481	1187.82
765.664	1257.45
765.847	1191.92
766.03	1234.93
766.213	1165.29
766.397	1222.64
766.58	1150.96
766.763	1130.48
766.946	1075.18
767.129	1196.01
767.312	1159.15
767.495	1150.96
767.678	1193.97
767.861	1159.15
768.044	1015.79
768.227	1210.35
768.41	1124.33
768.593	1107.95
768.776	1198.06
768.959	1101.81
769.142	1185.77
769.324	1097.71
769.507	1071.09
769.69	1134.57
769.873	1034.22
770.056	1128.43
770.239	1062.9
770.421	1046.51
770.604	1083.38
770.787	987.12
770.97	1021.94
771.152	1089.52
771.335	1034.22
771.518	968.69
771.7	1011.7
771.883	1013.74
772.066	1042.42
772.248	964.59
772.431	974.83
772.613	1005.55
772.796	1003.5
772.978	966.64
773.161	1015.79
773.343	987.12
773.526	897.01
773.708	905.2
773.891	880.63
774.073	858.1
774.256	933.87
774.438	972.79
774.621	827.38
774.803	901.11
774.985	956.4
775.168	897.01
775.35	950.26
775.532	909.3
775.715	876.53
775.897	864.24
776.079	851.96
776.261	837.62
776.444	925.68
776.626	749.56
776.808	864.24
776.99	802.8
777.173	811
777.355	808.95
777.537	743.41
777.719	854
777.901	794.61
778.083	747.51
778.265	741.36
778.447	806.9
778.629	845.81
778.811	704.5
778.993	749.56
779.175	770.04
779.357	743.41
779.539	806.9
779.721	747.51
779.903	800.76
780.085	712.69
780.267	724.98
780.449	679.93
780.631	808.95
780.812	735.22
780.994	708.6
781.176	745.46
781.358	651.25
781.54	587.77
781.721	655.35
781.903	741.36
782.085	663.54
782.267	622.58
782.448	571.38
782.63	628.73
782.812	632.82
782.993	612.34
783.175	626.68
783.357	665.59
783.538	638.97
783.72	653.3
783.901	569.34
784.083	632.82
784.264	657.4
784.446	626.68
784.627	626.68
784.809	567.29
784.99	595.96
785.172	565.24
785.353	534.52
785.535	505.85
785.716	532.47
785.897	561.14
786.079	505.85
786.26	505.85
786.441	524.28
786.623	595.96
786.804	462.84
786.985	489.46
787.167	485.37
787.348	501.75
787.529	489.46
787.71	460.79
787.891	536.57
788.073	409.59
788.254	520.18
788.435	555
788.616	567.29
788.797	468.98
788.978	548.86
789.159	489.46
789.34	460.79
789.522	477.18
789.703	391.16
789.884	419.83
790.065	385.02
790.246	520.18
790.427	489.46
790.607	479.22
790.788	481.27
790.969	483.32
791.15	454.65
791.331	444.41
791.512	421.88
791.693	456.7
791.874	464.89
792.054	352.25
792.235	548.86
792.416	360.44
792.597	374.78
792.778	444.41
792.958	389.11
793.139	487.42
793.32	423.93
793.5	356.35
793.681	417.79
793.862	419.83
794.042	331.77
794.223	350.2
794.404	397.31
794.584	309.24
794.765	348.15
794.945	401.4
795.126	366.59
795.306	350.2
795.487	385.02
795.667	395.26
795.848	370.68
796.028	399.35
796.209	327.67
796.389	368.63
796.57	333.82
796.75	368.63
796.93	237.56
797.111	370.68
797.291	346.11
797.471	370.68
797.652	354.3
797.832	391.16
798.012	331.77
798.192	323.58
798.373	299
798.553	196.61
798.733	319.48
798.913	323.58
799.093	245.76
799.274	296.96
799.454	354.3
799.634	350.2
799.814	333.82
799.994	303.1
800.174	393.21
800.354	319.48
800.534	219.13
800.714	352.25
800.894	235.52
801.074	315.39
801.254	268.28
801.434	309.24
801.614	344.06
801.794	354.3
801.974	649.21
802.154	262.14
802.334	225.28
802.514	303.1
802.693	278.52
802.873	307.2
803.053	256
803.233	352.25
803.413	327.67
803.592	241.66
803.772	221.18
803.952	321.53
804.131	268.28
804.311	206.84
804.491	294.91
804.67	262.14
804.85	208.89
805.03	290.81
805.209	231.42
805.389	278.52
805.568	190.46
805.748	258.04
805.928	290.81
806.107	212.99
806.287	258.04
806.466	235.52
806.646	243.71
806.825	239.61
807.004	202.75
807.184	292.86
807.363	276.48
807.543	290.81
807.722	200.7
807.901	249.85
808.081	190.46
808.26	311.29
808.439	204.8
808.619	229.37
808.798	174.08
808.977	253.95
809.156	221.18
809.336	163.84
809.515	256
809.694	174.08
809.873	231.42
810.052	294.91
810.231	176.13
810.411	253.95
810.59	292.86
810.769	221.18
810.948	229.37
811.127	192.51
811.306	239.61
811.485	180.22
811.664	270.33
811.843	219.13
812.022	143.36
812.201	229.37
812.38	192.51
812.559	210.94
812.737	217.08
812.916	260.09
813.095	180.22
813.274	143.36
813.453	249.85
813.632	198.65
813.811	190.46
813.989	149.5
814.168	225.28
814.347	219.13
814.526	106.49
814.704	192.51
814.883	223.23
815.062	180.22
815.24	165.89
815.419	159.74
815.598	151.55
815.776	108.54
815.955	184.32
816.133	212.99
816.312	159.74
816.49	165.89
816.669	180.22
816.847	135.17
817.026	149.5
817.204	202.75
817.383	190.46
817.561	122.88
817.74	219.13
817.918	149.5
818.097	141.31
818.275	153.6
818.453	227.32
818.632	163.84
818.81	135.17
818.988	104.45
819.167	198.65
819.345	178.17
819.523	90.11
819.701	180.22
819.879	135.17
820.058	118.78
820.236	106.49
820.414	86.01
820.592	143.36
820.77	133.12
820.948	176.13
821.127	217.08
821.305	198.65
821.483	65.54
821.661	169.98
821.839	129.02
822.017	131.07
822.195	204.8
822.373	147.45
822.551	143.36
822.729	149.5
822.907	141.31
823.085	157.69
823.262	106.49
823.44	116.73
823.618	124.93
823.796	135.17
823.974	147.45
824.152	118.78
824.329	126.97
824.507	131.07
824.685	200.7
824.863	172.03
825.04	122.88
825.218	110.59
825.396	153.6
825.574	90.11
825.751	69.63
825.929	126.97
826.107	126.97
826.284	194.56
826.462	149.5
826.639	155.65
826.817	129.02
826.994	112.64
827.172	141.31
827.349	157.69
827.527	106.49
827.704	153.6
827.882	124.93
828.059	133.12
828.237	98.3
828.414	122.88
828.591	108.54
828.769	90.11
828.946	124.93
829.124	114.69
829.301	153.6
829.478	96.25
829.655	126.97
829.833	169.98
830.01	110.59
830.187	88.06
830.364	110.59
830.542	77.82
830.719	73.73
830.896	137.21
831.073	51.2
831.25	145.41
831.427	147.45
831.604	163.84
831.782	86.01
831.959	143.36
832.136	182.27
832.313	53.25
832.49	112.64
832.667	90.11
832.844	100.35
833.021	110.59
833.198	100.35
833.374	88.06
833.551	184.32
833.728	143.36
833.905	114.69
834.082	137.21
834.259	102.4
834.436	108.54
834.612	83.97
834.789	143.36
834.966	129.02
835.143	114.69
835.319	124.93
835.496	155.65
835.673	114.69
835.85	71.68
836.026	126.97
836.203	137.21
836.38	28.67
836.556	108.54
836.733	79.87
836.909	75.77
837.086	94.21
837.262	129.02
837.439	106.49
837.616	98.3
837.792	65.54
837.968	129.02
838.145	34.82
838.321	88.06
838.498	139.26
838.674	61.44
838.851	53.25
839.027	55.3
839.203	151.55
839.38	75.77
839.556	6.14
839.732	157.69
839.909	112.64
840.085	69.63
840.261	61.44
840.437	28.67
840.614	6.14
840.79	131.07
840.966	59.39
841.142	81.92
841.318	112.64
841.494	92.16
841.671	77.82
841.847	139.26
842.023	53.25
842.199	79.87
842.375	112.64
842.551	69.63
842.727	32.77
842.903	75.77
843.079	116.73
843.255	49.15
843.431	55.3
843.607	55.3
843.783	47.1
843.959	90.11
844.134	24.58
844.31	83.97
844.486	120.83
844.662	-18.43
844.838	75.77
845.013	43.01
845.189	88.06
845.365	81.92
845.541	45.06
845.716	116.73
845.892	40.96
846.068	65.54
846.244	79.87
846.419	71.68
846.595	67.58
846.77	59.39
846.946	38.91
847.122	114.69
847.297	53.25
847.473	34.82
847.648	77.82
847.824	92.16
847.999	12.29
848.175	-10.24
848.35	8.19
848.526	81.92
848.701	26.62
848.876	108.54
849.052	81.92
849.227	12.29
849.403	135.17
849.578	120.83
849.753	55.3
849.929	96.25
850.104	73.73
850.279	75.77
850.454	20.48
850.63	-16.38
850.805	34.82
850.98	30.72
851.155	38.91
851.33	104.45
851.505	-45.06
851.681	32.77
851.856	49.15
852.031	73.73
852.206	28.67
852.381	83.97
852.556	92.16
852.731	32.77
852.906	100.35
853.081	79.87
853.256	22.53
853.431	61.44
853.606	73.73
853.781	43.01
853.956	-43.01
854.131	112.64
854.305	-26.62
854.48	57.34
854.655	38.91
854.83	4.1
855.005	51.2
855.18	90.11
855.354	-14.34
855.529	32.77
855.704	-36.86
855.879	79.87
856.053	16.38
856.228	149.5
856.403	28.67
856.577	57.34
856.752	67.58
856.926	28.67
857.101	-10.24
857.276	-10.24
857.45	34.82
857.625	63.49
857.799	-2.05
857.974	2.05
858.148	55.3
858.323	10.24
858.497	-12.29
858.672	92.16
858.846	22.53
859.02	32.77
859.195	36.86
859.369	34.82
859.543	36.86
859.718	77.82
859.892	2.05
860.066	47.1
860.241	20.48
860.415	57.34
860.589	34.82
860.763	4.1
860.938	30.72
861.112	-8.19
861.286	10.24
861.46	0
861.634	36.86
861.808	6.14
861.982	36.86
862.157	32.77
862.331	24.58
862.505	57.34
862.679	10.24
862.853	38.91
863.027	28.67
863.201	75.77
863.375	-14.34
863.549	71.68
863.722	36.86
863.896	30.72
864.07	-28.67
864.244	86.01
864.418	38.91
864.592	63.49
864.766	36.86
864.939	-71.68
865.113	30.72
865.287	69.63
865.461	40.96
865.634	71.68
865.808	28.67
865.982	22.53
866.156	38.91
866.329	34.82
866.503	20.48
866.676	4.1
866.85	73.73
867.024	53.25
867.197	24.58
867.371	45.06
867.544	-20.48
867.718	65.54
867.891	65.54
868.065	-16.38
868.238	71.68
868.412	43.01
868.585	36.86
868.759	-53.25
868.932	-40.96
869.105	18.43
869.279	59.39
869.452	4.1
869.625	102.4
869.799	65.54
869.972	-71.68
870.145	49.15
870.319	59.39
870.492	0
870.665	38.91
870.838	67.58
871.011	4.1
871.185	36.86
871.358	-12.29
871.531	104.45
871.704	-18.43
871.877	77.82
872.05	65.54
872.223	20.48
872.396	114.69
872.569	8.19
872.742	-10.24
872.915	65.54
873.088	-24.58
873.261	36.86
873.434	0
873.607	43.01
873.78	38.91
873.953	55.3
874.126	-2.05
874.299	96.25
874.471	-8.19
874.644	-30.72
874.817	16.38
874.99	126.97
875.163	-20.48
875.335	2.05
875.508	36.86
875.681	61.44
875.853	-49.15
876.026	12.29
876.199	86.01
876.371	0
876.544	61.44
876.717	8.19
876.889	57.34
877.062	12.29
877.234	32.77
877.407	61.44
877.579	40.96
877.752	4.1
877.924	30.72
878.097	137.21
878.269	34.82
878.442	77.82
878.614	-20.48
878.786	22.53
878.959	65.54
879.131	12.29
879.303	-49.15
879.476	45.06
879.648	10.24
879.82	-10.24
879.993	0
880.165	75.77
880.337	-63.49
880.509	-14.34
880.681	-63.49
880.854	94.21
881.026	20.48
881.198	32.77
881.37	10.24
881.542	18.43
881.714	4.1
881.886	8.19
882.058	-2.05
882.23	-2.05
882.402	30.72
882.574	83.97
882.746	-8.19
882.918	145.41
883.09	-40.96
883.262	-83.97
883.434	53.25
883.606	18.43
883.778	12.29
883.95	57.34
884.122	0
884.293	51.2
884.465	-63.49
884.637	43.01
884.809	-51.2
884.98	-28.67
885.152	-2.05
885.324	-2.05
885.496	10.24
885.667	4.1
885.839	40.96
886.011	49.15
886.182	-30.72
886.354	49.15
886.525	67.58
886.697	36.86
886.869	10.24
887.04	53.25
887.212	57.34
887.383	47.1
887.555	16.38
887.726	2.05
887.897	40.96
888.069	4.1
888.24	6.14
888.412	12.29
888.583	67.58
888.754	-20.48
888.926	47.1
889.097	43.01
889.268	-51.2
889.44	-34.82
889.611	-57.34
889.782	4.1
889.953	10.24
890.125	-10.24
890.296	12.29
890.467	-20.48
890.638	6.14
890.809	51.2
890.98	-8.19
891.151	-34.82
891.323	24.58
891.494	34.82
891.665	16.38
891.836	69.63
892.007	4.1
892.178	8.19
892.349	-4.1
892.52	69.63
892.691	-4.1
892.862	59.39
893.032	0
893.203	-40.96
893.374	-4.1
893.545	40.96
893.716	16.38
893.887	63.49
894.057	-12.29
894.228	-6.14
894.399	40.96
894.57	73.73
894.74	-16.38
894.911	6.14
895.082	-18.43
895.253	-12.29
895.423	30.72
895.594	83.97
895.764	-30.72
895.935	-16.38
896.106	-26.62
896.276	65.54
896.447	-43.01
896.617	96.25
896.788	-34.82
896.958	59.39
897.129	49.15
897.299	-16.38
897.47	12.29
897.64	2.05
897.81	65.54
897.981	40.96
898.151	16.38
898.322	26.62
898.492	4.1
898.662	-14.34
898.832	-16.38
899.003	28.67
899.173	16.38
899.343	10.24
899.513	-8.19
