Data from USB4F104151__222__11-10-47-954.txt Node

Date: Wed Mar 12 11:10:47 EDT 2025
User: louis
Spectrometer: USB4F10415
Trigger mode: 4
Integration Time (sec): 2.000000E-2
Scans to average: 1
Electric dark correction enabled: true
Nonlinearity correction enabled: false
Boxcar width: 0
XAxis mode: Wavelengths
Number of Pixels in Spectrum: 3648
>>>>>Begin Spectral Data<<<<<
178.204	-112.47
178.424	-112.47
178.644	-112.47
178.864	-130.9
179.084	-40.79
179.304	32.94
179.524	-22.36
179.744	-20.31
179.964	41.13
180.184	-5.97
180.404	100.52
180.624	-28.5
180.844	24.75
181.064	12.46
181.283	-5.97
181.503	-55.12
181.723	-73.56
181.943	-18.26
182.163	30.89
182.383	-22.36
182.602	16.55
182.822	90.28
183.042	-14.17
183.262	57.51
183.482	22.7
183.701	16.55
183.921	59.56
184.141	-63.32
184.361	110.76
184.58	-65.36
184.8	8.36
185.02	49.32
185.239	34.99
185.459	-20.31
185.679	-30.55
185.898	-20.31
186.118	-48.98
186.338	-36.69
186.557	4.27
186.777	16.55
186.997	94.38
187.216	-89.94
187.436	14.51
187.655	71.85
187.875	18.6
188.095	16.55
188.314	75.95
188.534	39.08
188.753	-1.88
188.973	30.89
189.192	67.75
189.412	77.99
189.631	55.47
189.851	53.42
190.07	26.79
190.29	-67.41
190.509	34.99
190.729	32.94
190.948	57.51
191.168	108.71
191.387	24.75
191.607	-46.93
191.826	-94.04
192.045	14.51
192.265	-12.12
192.484	6.31
192.704	75.95
192.923	55.47
193.142	63.66
193.362	49.32
193.581	53.42
193.8	-18.26
194.02	63.66
194.239	47.27
194.458	92.33
194.678	26.79
194.897	6.31
195.116	14.51
195.335	12.46
195.555	26.79
195.774	18.6
195.993	-14.17
196.212	37.03
196.432	43.18
196.651	10.41
196.87	51.37
197.089	88.23
197.308	26.79
197.528	8.36
197.747	10.41
197.966	47.27
198.185	57.51
198.404	-51.03
198.623	65.71
198.842	84.14
199.062	51.37
199.281	4.27
199.5	24.75
199.719	14.51
199.938	53.42
200.157	26.79
200.376	20.65
200.595	10.41
200.814	90.28
201.033	20.65
201.252	-16.21
201.471	47.27
201.69	53.42
201.909	34.99
202.128	16.55
202.347	49.32
202.566	30.89
202.785	22.7
203.004	-34.64
203.223	24.75
203.442	47.27
203.661	18.6
203.879	84.14
204.098	-10.07
204.317	39.08
204.536	84.14
204.755	90.28
204.974	73.9
205.193	28.84
205.411	112.81
205.63	26.79
205.849	-57.17
206.068	-42.84
206.287	39.08
206.505	114.86
206.724	10.41
206.943	55.47
207.162	0.17
207.381	22.7
207.599	-14.17
207.818	-3.93
208.037	14.51
208.255	37.03
208.474	20.65
208.693	71.85
208.911	104.62
209.13	26.79
209.349	55.47
209.567	4.27
209.786	20.65
210.005	45.23
210.223	4.27
210.442	18.6
210.661	51.37
210.879	26.79
211.098	14.51
211.316	71.85
211.535	4.27
211.753	-10.07
211.972	59.56
212.191	4.27
212.409	26.79
212.628	2.22
212.846	18.6
213.065	37.03
213.283	41.13
213.502	10.41
213.72	67.75
213.938	59.56
214.157	10.41
214.375	26.79
214.594	-1.88
214.812	-22.36
215.031	14.51
215.249	10.41
215.467	86.19
215.686	88.23
215.904	18.6
216.122	28.84
216.341	22.7
216.559	55.47
216.778	10.41
216.996	8.36
217.214	8.36
217.432	14.51
217.651	-22.36
217.869	30.89
218.087	30.89
218.306	14.51
218.524	37.03
218.742	24.75
218.96	14.51
219.179	26.79
219.397	41.13
219.615	30.89
219.833	92.33
220.051	-22.36
220.27	86.19
220.488	59.56
220.706	39.08
220.924	57.51
221.142	4.27
221.36	2.22
221.578	24.75
221.796	4.27
222.015	18.6
222.233	82.09
222.451	34.99
222.669	30.89
222.887	32.94
223.105	51.37
223.323	-8.02
223.541	14.51
223.759	80.04
223.977	-5.97
224.195	55.47
224.413	71.85
224.631	26.79
224.849	10.41
225.067	55.47
225.285	37.03
225.503	-1.88
225.721	-12.12
225.939	30.89
226.157	2.22
226.375	137.38
226.592	37.03
226.81	2.22
227.028	-20.31
227.246	77.99
227.464	61.61
227.682	-20.31
227.9	28.84
228.117	51.37
228.335	-8.02
228.553	10.41
228.771	14.51
228.989	-26.45
229.206	39.08
229.424	59.56
229.642	14.51
229.86	45.23
230.077	96.43
230.295	39.08
230.513	14.51
230.731	22.7
230.948	63.66
231.166	73.9
231.384	45.23
231.601	-34.64
231.819	86.19
232.037	6.31
232.254	-14.17
232.472	80.04
232.689	-42.84
232.907	49.32
233.125	-34.64
233.342	32.94
233.56	49.32
233.777	22.7
233.995	2.22
234.213	32.94
234.43	49.32
234.648	0.17
234.865	14.51
235.083	-20.31
235.3	-10.07
235.518	65.71
235.735	55.47
235.953	69.8
236.17	0.17
236.388	53.42
236.605	28.84
236.822	61.61
237.04	-5.97
237.257	30.89
237.475	6.31
237.692	12.46
237.909	73.9
238.127	16.55
238.344	6.31
238.562	75.95
238.779	-40.79
238.996	-12.12
239.214	-26.45
239.431	51.37
239.648	-1.88
239.865	-12.12
240.083	32.94
240.3	-28.5
240.517	18.6
240.735	20.65
240.952	-3.93
241.169	80.04
241.386	45.23
241.603	-22.36
241.821	8.36
242.038	-44.88
242.255	53.42
242.472	63.66
242.689	26.79
242.907	8.36
243.124	51.37
243.341	2.22
243.558	-3.93
243.775	67.75
243.992	34.99
244.209	26.79
244.426	22.7
244.643	20.65
244.86	6.31
245.078	90.28
245.295	22.7
245.512	86.19
245.729	8.36
245.946	-14.17
246.163	34.99
246.38	14.51
246.597	-1.88
246.814	84.14
247.031	-8.02
247.248	14.51
247.464	127.14
247.681	-5.97
247.898	32.94
248.115	8.36
248.332	-40.79
248.549	16.55
248.766	47.27
248.983	-5.97
249.2	14.51
249.417	82.09
249.633	2.22
249.85	45.23
250.067	32.94
250.284	90.28
250.501	6.31
250.717	-12.12
250.934	-26.45
251.151	32.94
251.368	45.23
251.585	0.17
251.801	-3.93
252.018	26.79
252.235	0.17
252.451	32.94
252.668	24.75
252.885	69.8
253.102	37.03
253.318	37.03
253.535	73.9
253.752	86.19
253.968	2.22
254.185	-36.69
254.401	-10.07
254.618	-40.79
254.835	41.13
255.051	67.75
255.268	0.17
255.484	43.18
255.701	24.75
255.917	37.03
256.134	-16.21
256.351	10.41
256.567	-26.45
256.784	55.47
257	2.22
257.217	63.66
257.433	-42.84
257.65	-26.45
257.866	61.61
258.082	-22.36
258.299	4.27
258.515	37.03
258.732	-36.69
258.948	55.47
259.165	30.89
259.381	45.23
259.597	16.55
259.814	43.18
260.03	37.03
260.246	2.22
260.463	18.6
260.679	45.23
260.895	6.31
261.112	59.56
261.328	-16.21
261.544	-44.88
261.761	34.99
261.977	20.65
262.193	-34.64
262.409	28.84
262.626	22.7
262.842	14.51
263.058	12.46
263.274	4.27
263.49	4.27
263.707	24.75
263.923	-32.6
264.139	-5.97
264.355	30.89
264.571	-3.93
264.787	39.08
265.004	8.36
265.22	20.65
265.436	49.32
265.652	-14.17
265.868	67.75
266.084	4.27
266.3	69.8
266.516	20.65
266.732	-1.88
266.948	4.27
267.164	32.94
267.38	53.42
267.596	22.7
267.812	92.33
268.028	24.75
268.244	49.32
268.46	65.71
268.676	-10.07
268.892	112.81
269.108	30.89
269.324	-22.36
269.54	39.08
269.756	4.27
269.972	-30.55
270.188	67.75
270.403	-26.45
270.619	90.28
270.835	67.75
271.051	8.36
271.267	-79.7
271.483	6.31
271.698	69.8
271.914	63.66
272.13	6.31
272.346	-48.98
272.562	26.79
272.777	4.27
272.993	14.51
273.209	77.99
273.425	34.99
273.64	-24.4
273.856	51.37
274.072	57.51
274.287	-24.4
274.503	41.13
274.719	61.61
274.934	37.03
275.15	-18.26
275.366	32.94
275.581	82.09
275.797	39.08
276.012	18.6
276.228	55.47
276.444	47.27
276.659	34.99
276.875	28.84
277.09	6.31
277.306	14.51
277.521	37.03
277.737	8.36
277.952	30.89
278.168	-1.88
278.383	82.09
278.599	-1.88
278.814	22.7
279.03	32.94
279.245	61.61
279.461	-3.93
279.676	77.99
279.892	-61.27
280.107	22.7
280.322	8.36
280.538	24.75
280.753	61.61
280.969	34.99
281.184	10.41
281.399	-8.02
281.615	-1.88
281.83	30.89
282.045	34.99
282.26	0.17
282.476	39.08
282.691	41.13
282.906	-20.31
283.122	32.94
283.337	8.36
283.552	2.22
283.767	-14.17
283.983	59.56
284.198	26.79
284.413	90.28
284.628	-16.21
284.843	-10.07
285.058	55.47
285.274	88.23
285.489	34.99
285.704	61.61
285.919	20.65
286.134	32.94
286.349	4.27
286.564	18.6
286.779	30.89
286.995	77.99
287.21	-14.17
287.425	80.04
287.64	14.51
287.855	100.52
288.07	39.08
288.285	80.04
288.5	55.47
288.715	4.27
288.93	-26.45
289.145	12.46
289.36	-32.6
289.575	-10.07
289.79	12.46
290.004	-14.17
290.219	-10.07
290.434	69.8
290.649	-12.12
290.864	-14.17
291.079	86.19
291.294	-10.07
291.509	71.85
291.724	24.75
291.938	0.17
292.153	84.14
292.368	24.75
292.583	75.95
292.798	-10.07
293.012	53.42
293.227	6.31
293.442	100.52
293.657	65.71
293.871	59.56
294.086	88.23
294.301	6.31
294.516	39.08
294.73	14.51
294.945	-34.64
295.16	-5.97
295.374	39.08
295.589	41.13
295.804	-34.64
296.018	28.84
296.233	20.65
296.447	26.79
296.662	-12.12
296.877	41.13
297.091	53.42
297.306	26.79
297.52	51.37
297.735	51.37
297.949	-40.79
298.164	51.37
298.378	53.42
298.593	-42.84
298.807	-28.5
299.022	24.75
299.236	-10.07
299.451	-89.94
299.665	22.7
299.88	20.65
300.094	-8.02
300.309	-12.12
300.523	-18.26
300.737	47.27
300.952	20.65
301.166	18.6
301.381	24.75
301.595	4.27
301.809	45.23
302.024	47.27
302.238	51.37
302.452	-12.12
302.667	63.66
302.881	116.9
303.095	-48.98
303.309	8.36
303.524	-26.45
303.738	32.94
303.952	-10.07
304.166	22.7
304.381	22.7
304.595	59.56
304.809	-38.74
305.023	2.22
305.237	43.18
305.452	34.99
305.666	4.27
305.88	129.19
306.094	39.08
306.308	-26.45
306.522	18.6
306.736	14.51
306.95	-1.88
307.164	-5.97
307.379	-16.21
307.593	59.56
307.807	8.36
308.021	20.65
308.235	45.23
308.449	18.6
308.663	-53.08
308.877	106.67
309.091	39.08
309.305	84.14
309.519	-8.02
309.733	-5.97
309.947	8.36
310.161	98.47
310.374	6.31
310.588	32.94
310.802	-28.5
311.016	26.79
311.23	-16.21
311.444	37.03
311.658	41.13
311.872	6.31
312.085	-30.55
312.299	69.8
312.513	-44.88
312.727	37.03
312.941	47.27
313.154	65.71
313.368	10.41
313.582	116.9
313.796	-20.31
314.009	0.17
314.223	4.27
314.437	43.18
314.651	16.55
314.864	32.94
315.078	0.17
315.292	14.51
315.505	41.13
315.719	24.75
315.933	14.51
316.146	92.33
316.36	34.99
316.573	14.51
316.787	47.27
317.001	26.79
317.214	6.31
317.428	100.52
317.641	-18.26
317.855	37.03
318.068	6.31
318.282	8.36
318.495	84.14
318.709	94.38
318.922	-51.03
319.136	86.19
319.349	18.6
319.563	6.31
319.776	26.79
319.99	26.79
320.203	129.19
320.417	26.79
320.63	41.13
320.843	53.42
321.057	34.99
321.27	69.8
321.483	63.66
321.697	53.42
321.91	51.37
322.124	0.17
322.337	18.6
322.55	32.94
322.763	47.27
322.977	41.13
323.19	6.31
323.403	39.08
323.617	71.85
323.83	61.61
324.043	47.27
324.256	16.55
324.469	28.84
324.683	41.13
324.896	77.99
325.109	16.55
325.322	8.36
325.535	39.08
325.748	18.6
325.962	4.27
326.175	-20.31
326.388	4.27
326.601	82.09
326.814	37.03
327.027	10.41
327.24	41.13
327.453	-63.32
327.666	4.27
327.879	47.27
328.092	55.47
328.305	0.17
328.518	51.37
328.731	-1.88
328.944	59.56
329.157	39.08
329.37	57.51
329.583	32.94
329.796	92.33
330.009	-12.12
330.222	43.18
330.435	14.51
330.648	80.04
330.861	14.51
331.073	28.84
331.286	18.6
331.499	80.04
331.712	63.66
331.925	67.75
332.138	-44.88
332.35	49.32
332.563	20.65
332.776	84.14
332.989	6.31
333.202	55.47
333.414	0.17
333.627	45.23
333.84	18.6
334.053	43.18
334.265	6.31
334.478	22.7
334.691	12.46
334.903	-44.88
335.116	20.65
335.329	10.41
335.541	51.37
335.754	57.51
335.966	-53.08
336.179	-18.26
336.392	57.51
336.604	82.09
336.817	26.79
337.029	30.89
337.242	53.42
337.454	69.8
337.667	-46.93
337.88	77.99
338.092	22.7
338.305	28.84
338.517	49.32
338.729	41.13
338.942	4.27
339.154	-16.21
339.367	16.55
339.579	116.9
339.792	14.51
340.004	43.18
340.217	-12.12
340.429	51.37
340.641	59.56
340.854	26.79
341.066	61.61
341.278	39.08
341.491	98.47
341.703	18.6
341.915	32.94
342.128	8.36
342.34	45.23
342.552	14.51
342.764	18.6
342.977	47.27
343.189	51.37
343.401	57.51
343.613	2.22
343.826	-18.26
344.038	-59.22
344.25	92.33
344.462	-34.64
344.674	88.23
344.886	75.95
345.099	18.6
345.311	61.61
345.523	80.04
345.735	-51.03
345.947	-36.69
346.159	61.61
346.371	22.7
346.583	22.7
346.795	84.14
347.007	-18.26
347.219	84.14
347.431	0.17
347.643	8.36
347.855	-77.65
348.067	77.99
348.279	18.6
348.491	69.8
348.703	34.99
348.915	49.32
349.127	53.42
349.339	80.04
349.551	47.27
349.763	22.7
349.975	69.8
350.187	80.04
350.399	39.08
350.61	24.75
350.822	-1.88
351.034	86.19
351.246	51.37
351.458	71.85
351.669	69.8
351.881	53.42
352.093	71.85
352.305	63.66
352.517	43.18
352.728	37.03
352.94	30.89
353.152	94.38
353.363	47.27
353.575	112.81
353.787	57.51
353.999	4.27
354.21	32.94
354.422	-10.07
354.633	14.51
354.845	53.42
355.057	10.41
355.268	37.03
355.48	49.32
355.692	-65.36
355.903	26.79
356.115	37.03
356.326	37.03
356.538	43.18
356.749	-18.26
356.961	55.47
357.172	-30.55
357.384	18.6
357.595	30.89
357.807	18.6
358.018	100.52
358.23	61.61
358.441	75.95
358.653	96.43
358.864	61.61
359.075	69.8
359.287	-26.45
359.498	12.46
359.709	57.51
359.921	-36.69
360.132	57.51
360.344	145.58
360.555	59.56
360.766	43.18
360.977	77.99
361.189	24.75
361.4	-3.93
361.611	41.13
361.823	82.09
362.034	18.6
362.245	12.46
362.456	12.46
362.667	116.9
362.879	41.13
363.09	67.75
363.301	47.27
363.512	4.27
363.723	-34.64
363.935	69.8
364.146	57.51
364.357	4.27
364.568	6.31
364.779	45.23
364.99	90.28
365.201	18.6
365.412	77.99
365.623	51.37
365.834	45.23
366.045	96.43
366.256	77.99
366.467	75.95
366.678	47.27
366.889	41.13
367.1	16.55
367.311	37.03
367.522	2.22
367.733	20.65
367.944	-51.03
368.155	71.85
368.366	77.99
368.577	86.19
368.788	86.19
368.999	49.32
369.209	63.66
369.42	32.94
369.631	88.23
369.842	0.17
370.053	-18.26
370.264	43.18
370.474	24.75
370.685	-12.12
370.896	34.99
371.107	45.23
371.317	43.18
371.528	8.36
371.739	69.8
371.95	71.85
372.16	51.37
372.371	24.75
372.582	22.7
372.792	39.08
373.003	73.9
373.214	71.85
373.424	41.13
373.635	49.32
373.846	94.38
374.056	108.71
374.267	57.51
374.477	51.37
374.688	26.79
374.898	-38.74
375.109	69.8
375.319	4.27
375.53	88.23
375.74	129.19
375.951	24.75
376.161	43.18
376.372	88.23
376.582	34.99
376.793	-14.17
377.003	47.27
377.214	43.18
377.424	34.99
377.635	77.99
377.845	-46.93
378.055	112.81
378.266	20.65
378.476	30.89
378.686	51.37
378.897	65.71
379.107	114.86
379.317	121
379.528	2.22
379.738	75.95
379.948	96.43
380.158	61.61
380.369	37.03
380.579	32.94
380.789	6.31
380.999	47.27
381.21	49.32
381.42	129.19
381.63	73.9
381.84	8.36
382.05	77.99
382.261	41.13
382.471	53.42
382.681	80.04
382.891	26.79
383.101	92.33
383.311	10.41
383.521	39.08
383.731	112.81
383.941	53.42
384.151	41.13
384.361	47.27
384.571	28.84
384.781	65.71
384.991	57.51
385.201	114.86
385.411	69.8
385.621	53.42
385.831	10.41
386.041	88.23
386.251	96.43
386.461	18.6
386.671	80.04
386.881	41.13
387.091	-53.08
387.301	51.37
387.511	96.43
387.72	80.04
387.93	88.23
388.14	14.51
388.35	65.71
388.56	114.86
388.769	16.55
388.979	16.55
389.189	28.84
389.399	0.17
389.609	37.03
389.818	45.23
390.028	53.42
390.238	84.14
390.447	65.71
390.657	14.51
390.867	8.36
391.076	59.56
391.286	63.66
391.496	86.19
391.705	63.66
391.915	26.79
392.125	98.47
392.334	88.23
392.544	61.61
392.753	-3.93
392.963	2.22
393.172	47.27
393.382	112.81
393.591	121
393.801	30.89
394.01	63.66
394.22	133.29
394.429	26.79
394.639	61.61
394.848	32.94
395.058	106.67
395.267	-24.4
395.477	32.94
395.686	45.23
395.895	84.14
396.105	141.48
396.314	43.18
396.524	80.04
396.733	28.84
396.942	98.47
397.152	96.43
397.361	123.05
397.57	88.23
397.78	112.81
397.989	104.62
398.198	75.95
398.407	121
398.617	82.09
398.826	114.86
399.035	45.23
399.244	121
399.453	125.1
399.663	129.19
399.872	94.38
400.081	116.9
400.29	63.66
400.499	96.43
400.708	108.71
400.917	2.22
401.127	125.1
401.336	12.46
401.545	67.75
401.754	147.62
401.963	98.47
402.172	129.19
402.381	53.42
402.59	112.81
402.799	125.1
403.008	125.1
403.217	82.09
403.426	98.47
403.635	51.37
403.844	145.58
404.053	77.99
404.262	96.43
404.471	135.34
404.68	108.71
404.888	118.95
405.097	164.01
405.306	190.63
405.515	121
405.724	192.68
405.933	121
406.142	184.49
406.35	135.34
406.559	161.96
406.768	137.38
406.977	188.58
407.185	106.67
407.394	149.67
407.603	186.54
407.812	131.24
408.02	207.02
408.229	229.54
408.438	125.1
408.646	182.44
408.855	188.58
409.064	213.16
409.272	260.26
409.481	239.78
409.69	288.93
409.898	254.12
410.107	280.74
410.315	315.56
410.524	264.36
410.733	327.85
410.941	299.17
411.15	342.18
411.358	303.27
411.567	395.43
411.775	385.19
411.984	366.76
412.192	366.76
412.401	387.24
412.609	463.01
412.818	391.33
413.026	477.35
413.234	395.43
413.443	434.34
413.651	409.76
413.86	436.39
414.068	530.59
414.276	516.26
414.485	567.46
414.693	512.16
414.901	506.02
415.11	575.65
415.318	686.24
415.526	698.53
415.734	692.38
415.943	700.58
416.151	663.71
416.359	798.88
416.567	729.25
416.776	737.44
416.984	835.74
417.192	903.32
417.4	903.32
417.608	880.8
417.817	884.89
418.025	962.72
418.233	1052.83
418.441	915.61
418.649	1079.45
418.857	1069.21
419.065	1161.37
419.273	1003.68
419.481	1171.61
419.689	1288.34
419.897	1288.34
420.105	1255.58
420.313	1349.78
420.521	1413.27
420.729	1419.41
420.937	1372.31
421.145	1673.36
421.353	1552.53
421.561	1677.46
421.769	1704.08
421.977	1845.39
422.185	1816.72
422.393	1919.12
422.601	1896.59
422.809	1949.84
423.017	2074.76
423.224	2001.04
423.432	2150.54
423.64	2095.24
423.848	2355.33
424.056	2384.01
424.263	2486.4
424.471	2500.74
424.679	2553.99
424.887	2818.18
425.094	2662.53
425.302	2703.49
425.51	2734.21
425.718	2904.19
425.925	2885.76
426.133	3047.55
426.341	3201.15
426.548	3381.37
426.756	3424.37
426.964	3504.25
427.171	3782.77
427.379	3582.07
427.586	3764.34
427.794	4014.19
428.001	4034.67
428.209	4388.97
428.417	4274.28
428.624	4321.38
428.832	4524.13
429.039	4348.01
429.247	4583.52
429.454	4821.09
429.662	5179.48
429.869	4745.31
430.076	5335.13
430.284	5077.09
430.491	5544.02
430.699	5378.14
430.906	5634.13
431.114	5660.76
431.321	5765.2
431.528	5886.03
431.736	6322.25
431.943	6721.6
432.15	6412.36
432.358	6518.86
432.565	6989.89
432.772	7020.61
432.979	7268.41
433.187	7346.23
433.394	7475.26
433.601	7749.68
433.808	7712.82
434.016	7864.37
434.223	8138.8
434.43	8665.13
434.637	8683.56
434.844	8968.23
435.052	9277.47
435.259	9330.72
435.466	9166.88
435.673	9191.45
435.88	9742.36
436.087	10283.02
436.294	10272.78
436.501	10047.51
436.708	10270.73
436.915	10657.8
437.122	11016.19
437.329	10993.67
437.537	11526.14
437.743	11546.62
437.95	11350.01
438.157	11993.08
438.364	12414.96
438.571	12132.34
438.778	12408.81
438.985	13672.41
439.192	13111.27
439.399	13553.63
439.606	13121.51
439.813	13879.25
440.02	14860.23
440.227	14536.65
440.433	14501.84
440.64	14919.62
440.847	14856.14
441.054	15300.55
441.261	15978.42
441.467	16078.77
441.674	16347.06
441.881	16762.79
442.088	16846.76
442.294	16453.55
442.501	17446.82
442.708	17434.53
442.914	18194.33
443.121	18792.33
443.328	18493.33
443.534	19662.72
443.741	18999.18
443.948	18716.56
444.154	20637.55
444.361	20223.86
444.568	20264.82
444.774	20432.75
444.981	20565.87
445.187	20989.8
445.394	22142.81
445.6	21538.66
445.807	23752.51
446.013	22421.33
446.22	23154.51
446.426	24100.67
446.633	24516.4
446.839	25093.93
447.046	23590.72
447.252	25239.34
447.459	25177.9
447.665	25421.61
447.871	26498.84
448.078	27205.39
448.284	25808.67
448.491	27059.98
448.697	27819.78
448.903	28309.24
449.11	28618.49
449.316	28108.54
449.522	28434.17
449.728	28970.74
449.935	29220.59
450.141	29376.23
450.347	29996.77
450.553	28913.39
450.76	28905.2
450.966	29966.05
451.172	29720.29
451.378	30639.83
451.584	30080.74
451.791	30830.29
451.997	30392.03
452.203	31022.8
452.409	31190.73
452.615	30703.32
452.821	30031.58
453.027	29691.62
453.233	31090.38
453.44	29597.42
453.646	30025.44
453.852	30295.77
454.058	30834.39
454.264	29638.37
454.47	30537.43
454.676	29224.68
454.882	30564.06
455.088	27520.77
455.294	28292.86
455.5	28864.24
455.705	28733.17
455.911	27688.71
456.117	27225.87
456.323	26892.05
456.529	25376.55
456.735	26459.93
456.941	25663.27
457.147	25202.47
457.352	24420.15
457.558	24282.94
457.764	24479.54
457.97	24112.95
458.176	23426.89
458.381	23490.37
458.587	22333.27
458.793	22417.24
458.999	21049.19
459.204	22349.65
459.41	21925.72
459.616	20483.95
459.821	20477.81
460.027	20453.23
460.233	19881.85
460.438	19072.9
460.644	19429.25
460.85	18446.23
461.055	18233.24
461.261	18276.24
461.466	16740.27
461.672	16011.19
461.878	17510.3
462.083	16138.16
462.289	16228.28
462.494	15869.88
462.7	15083.46
462.905	14811.08
463.111	14999.49
463.316	15208.39
463.522	14837.7
463.727	14763.98
463.932	15091.65
464.138	14841.8
464.343	14866.38
464.549	14415.82
464.754	14909.38
464.959	14692.3
465.165	14272.46
465.37	13981.65
465.575	13608.92
465.781	14147.54
465.986	14421.97
466.191	14016.47
466.397	13680.6
466.602	12777.45
466.807	13228
467.012	13467.61
467.218	13070.31
467.423	13424.61
467.628	13275.1
467.833	13582.3
468.038	13391.84
468.244	12787.69
468.449	13594.59
468.654	13047.78
468.859	13058.02
469.064	12568.55
469.269	12130.29
469.474	12314.61
469.679	12675.05
469.885	12197.87
470.09	12572.65
470.295	12412.91
470.5	12173.3
470.705	12122.1
470.91	11704.31
471.115	11874.29
471.32	11827.19
471.525	11798.52
471.73	11536.38
471.935	11536.38
472.139	11116.55
472.344	11210.75
472.549	11042.82
472.754	10891.27
472.959	10776.58
473.164	10723.34
473.369	10436.62
473.574	10838.02
473.778	10614.79
473.983	10588.17
474.188	10459.15
474.393	10192.91
474.598	10164.24
474.802	10162.19
475.007	9990.16
475.212	9961.49
475.417	9568.28
475.621	9711.64
475.826	9664.54
476.031	9504.79
476.235	9355.29
476.44	9316.38
476.645	9340.96
476.849	9121.82
477.054	9246.75
477.259	8923.17
477.463	8998.95
477.668	8779.81
477.872	8835.11
478.077	8640.55
478.282	8597.54
478.486	8452.14
478.691	8407.08
478.895	8355.88
479.1	8255.53
479.304	8386.6
479.509	8083.5
479.713	8257.58
479.918	8149.04
480.122	7860.27
480.326	8015.92
480.531	8026.16
480.735	8030.26
480.94	7946.29
481.144	8130.61
481.348	7721.01
481.553	7944.24
481.757	7784.5
481.961	7764.02
482.166	7852.08
482.37	7749.68
482.574	7702.58
482.778	7575.61
482.983	7831.6
483.187	7569.46
483.391	7667.77
483.595	7501.88
483.8	7626.81
484.004	7735.35
484.208	7907.38
484.412	7682.1
484.616	7643.19
484.821	7985.2
485.025	7751.73
485.229	7977.01
485.433	7600.18
485.637	7813.17
485.841	7481.4
486.045	7508.02
486.249	7706.68
486.453	7788.6
486.657	7602.23
486.861	7714.87
487.065	7557.18
487.269	7667.77
487.473	7510.07
487.677	7639.09
487.881	7684.15
488.085	7792.69
488.289	7796.79
488.493	7847.99
488.697	7657.53
488.901	7571.51
489.105	7745.59
489.309	7878.71
489.512	7809.08
489.716	7809.08
489.92	7827.51
490.124	7792.69
490.328	7784.5
490.531	7821.36
490.735	7727.16
490.939	7907.38
491.143	7837.75
491.346	7972.91
491.55	8050.74
491.754	8050.74
491.958	8083.5
492.161	8089.65
492.365	8077.36
492.569	8196.14
492.772	8173.61
492.976	8321.07
493.18	8202.29
493.383	8302.64
493.587	8300.59
493.79	8409.13
493.994	8429.61
494.197	8417.32
494.401	8493.1
494.605	8495.15
494.808	8704.04
495.012	8638.5
495.215	8742.95
495.419	8888.36
495.622	8734.76
495.825	9021.47
496.029	8984.61
496.232	9115.68
496.436	9293.85
496.639	9175.07
496.843	9359.39
497.046	9490.46
497.249	9607.19
497.453	9717.78
497.656	9584.66
497.859	9721.88
498.063	9941.01
498.266	10321.93
498.469	9920.53
498.673	10162.19
498.876	10276.88
499.079	10453
499.282	10248.21
499.485	10534.92
499.689	10459.15
499.892	10760.2
500.095	10633.22
500.298	11104.26
500.501	10921.99
500.705	11155.46
500.908	11225.09
501.111	11487.23
501.314	11573.24
501.517	11796.47
501.72	11870.2
501.923	11786.23
502.126	12285.94
502.329	12398.57
502.532	12216.3
502.735	12668.91
502.938	12816.36
503.141	12601.32
503.344	12808.17
503.547	12978.15
503.75	13068.26
503.953	13428.7
504.156	13375.45
504.359	13617.11
504.562	13602.78
504.765	13952.98
504.968	14041.04
505.17	14028.76
505.373	14286.8
505.576	14569.42
505.779	14770.12
505.982	14729.16
506.185	15071.17
506.387	15149
506.59	15206.34
506.793	15454.14
506.996	15448
507.198	15796.15
507.401	15822.78
507.604	15701.95
507.807	16205.75
508.009	16215.99
508.212	16306.1
508.415	16541.61
508.617	16809.9
508.82	16951.21
509.022	16926.63
509.225	17375.14
509.428	17450.91
509.63	17584.03
509.833	17899.42
510.035	18313.11
510.238	18001.82
510.44	18149.27
510.643	18462.61
510.845	18642.83
511.048	18544.53
511.25	18751.37
511.453	19148.68
511.655	19511.17
511.858	19445.63
512.06	19675.01
512.262	19879.8
512.465	19955.58
512.667	20215.67
512.87	20461.43
513.072	20524.91
513.274	20911.98
513.477	21194.6
513.679	21215.08
513.881	21368.68
514.084	21528.42
514.286	21290.85
514.488	21800.8
514.69	22323.03
514.893	22548.31
515.095	22415.19
515.297	22910.8
515.499	22970.19
515.701	23066.44
515.904	23490.37
516.106	23420.74
516.308	23609.15
516.51	24039.23
516.712	24094.52
516.914	24319.8
517.116	24792.88
517.318	24930.09
517.52	24801.07
517.722	25116.46
517.925	25665.32
518.127	25788.19
518.329	25714.47
518.531	25931.55
518.733	26402.58
518.935	26748.69
519.136	26410.78
519.338	27121.42
519.54	27143.95
519.742	27340.55
519.944	27404.04
520.146	28063.49
520.348	28319.48
520.55	28108.54
520.752	28251.9
520.954	28645.11
521.155	28376.83
521.357	29034.22
521.559	29122.29
521.761	29765.35
521.963	29619.94
522.164	29624.04
522.366	30084.83
522.568	30494.43
522.77	30351.07
522.971	30797.52
523.173	30570.2
523.375	30906.07
523.576	30944.98
523.778	31033.04
523.98	31370.96
524.181	31403.72
524.383	31624.9
524.584	32403.13
524.786	31985.35
524.988	31901.38
525.189	32323.26
525.391	32536.25
525.592	32763.57
525.794	32845.49
525.995	33052.34
526.197	33164.98
526.398	33175.22
526.6	33304.24
526.801	33564.33
527.003	33885.86
527.204	33951.4
527.406	34049.7
527.607	33920.68
527.808	34291.36
528.01	33738.41
528.211	34408.09
528.412	34823.83
528.614	34705.05
528.815	34539.16
529.016	34932.37
529.218	34680.47
529.419	34938.52
529.62	35036.82
529.822	35102.36
530.023	35135.12
530.224	35276.43
530.425	35317.39
530.626	35544.72
530.828	34803.35
531.029	35679.88
531.23	35524.24
531.431	35200.66
531.632	35147.41
531.833	35565.2
532.035	35557
532.236	35962.5
532.437	36052.61
532.638	35458.7
532.839	35606.16
533.04	36085.38
533.241	35634.83
533.442	36439.68
533.643	35929.73
533.844	35880.58
534.045	36335.23
534.246	35497.61
534.447	36005.51
534.648	35782.28
534.849	36345.47
535.05	36122.24
535.251	36292.22
535.451	36116.1
535.652	36398.72
535.853	36556.41
536.054	36488.83
536.255	36130.44
536.456	36034.18
536.657	36744.83
536.857	36318.85
537.058	36341.38
537.259	36765.31
537.46	36527.74
537.66	36232.83
537.861	36212.35
538.062	35939.97
538.263	36337.28
538.463	35942.02
538.664	36152.96
538.865	36474.49
539.065	36281.99
539.266	36374.14
539.466	36482.69
539.667	36052.61
539.868	36638.33
540.068	36388.48
540.269	36048.52
540.469	36402.82
540.67	35956.36
540.87	36187.78
541.071	36257.41
541.271	36327.04
541.472	36382.34
541.672	36234.88
541.873	35831.43
542.073	35303.06
542.274	36589.18
542.474	36073.09
542.675	35653.26
542.875	36458.11
543.075	35993.22
543.276	35563.15
543.476	36128.39
543.676	35823.24
543.877	36257.41
544.077	35923.59
544.277	36028.04
544.478	35673.74
544.678	36222.59
544.878	36320.9
545.078	35974.79
545.279	36001.41
545.479	35845.77
545.679	35995.27
545.879	35561.1
546.079	36179.59
546.28	35686.03
546.48	35507.85
546.68	36114.05
546.88	35780.23
547.08	36116.1
547.28	35690.12
547.48	35790.47
547.68	35974.79
547.88	35438.22
548.081	36103.81
548.281	35923.59
548.481	35837.58
548.681	36023.94
548.881	35874.44
549.081	36062.85
549.28	35894.92
549.48	36150.92
549.68	35884.68
549.88	36363.9
550.08	35610.25
550.28	35923.59
550.48	35907.21
550.68	35982.98
550.88	35509.9
551.08	35452.56
551.279	35382.93
551.479	35978.89
551.679	35602.06
551.879	35184.27
552.079	35507.85
552.278	35352.21
552.478	35552.91
552.678	35311.25
552.878	35331.73
553.077	35376.78
553.277	35155.6
553.477	36134.53
553.676	35585.68
553.876	35192.47
554.076	35303.06
554.275	35045.01
554.475	34967.19
554.674	35042.96
554.874	35311.25
555.074	35042.96
555.273	34973.33
555.473	35493.52
555.672	35151.51
555.872	34979.48
556.071	34905.75
556.271	35038.87
556.47	34860.69
556.67	34610.84
556.869	34528.92
557.068	34944.66
557.268	34666.14
557.467	34627.23
557.667	34461.34
557.866	34737.82
558.065	34168.48
558.265	34258.59
558.464	34500.25
558.663	34514.59
558.863	34061.99
559.062	34832.02
559.261	33992.36
559.461	34377.37
559.66	33818.28
559.859	34221.73
560.058	33697.45
560.258	34119.33
560.457	34006.69
560.656	33724.07
560.855	33648.3
561.054	33812.13
561.253	33687.21
561.453	33814.18
561.652	33308.33
561.851	33791.66
562.05	33640.11
562.249	33388.21
562.448	33805.99
562.647	33257.14
562.846	33197.74
563.045	33351.34
563.244	32980.66
563.443	33519.28
563.642	32917.17
563.841	33023.67
564.04	32878.26
564.239	32798.39
564.438	32464.57
564.637	32831.16
564.836	33005.24
565.035	32132.8
565.234	32423.61
565.432	32276.16
565.631	31923.91
565.83	32403.13
566.029	32196.29
566.228	31844.04
566.427	32151.23
566.625	32046.79
566.824	31114.96
567.023	32272.06
567.222	31487.69
567.42	31766.21
567.619	31401.68
567.818	31407.82
568.016	31246.03
568.215	31846.08
568.414	31221.45
568.612	31698.63
568.811	30736.09
569.01	31096.53
569.208	30459.61
569.407	31456.97
569.605	30549.72
569.804	30643.93
570.002	30400.22
570.201	30879.44
570.4	30467.8
570.598	30535.38
570.797	30099.17
570.995	30330.59
571.193	29671.14
571.392	29859.56
571.59	29791.97
571.789	30023.39
571.987	29708.01
572.186	29777.64
572.384	29714.15
572.582	29892.32
572.781	29718.25
572.979	29228.78
573.177	29214.44
573.376	29372.14
573.574	28976.88
573.772	29474.54
573.971	29239.02
574.169	28829.43
574.367	28585.72
574.565	29085.42
574.763	28901.11
574.962	28733.17
575.16	28208.89
575.358	28667.64
575.556	28309.24
575.754	28389.11
575.952	27946.75
576.151	28247.8
576.349	28016.38
576.547	27926.27
576.745	27889.41
576.943	28008.19
577.141	27903.74
577.339	27834.11
577.537	27721.48
577.735	27701
577.933	27442.95
578.131	27709.19
578.329	27174.67
578.527	27102.99
578.725	27426.57
578.923	27479.82
579.121	27012.88
579.319	27135.76
579.516	27270.92
579.714	26988.3
579.912	26857.23
580.11	26687.25
580.308	26947.34
580.506	26560.28
580.704	26547.99
580.901	26400.54
581.099	26496.79
581.297	26142.49
581.495	26169.12
581.692	26511.13
581.89	26138.4
582.088	26337.05
582.285	25978.65
582.483	26113.82
582.681	25960.22
582.878	25777.95
583.076	25661.22
583.274	25704.23
583.471	25425.7
583.669	25675.55
583.866	25065.26
584.064	25233.19
584.262	25118.51
584.459	25249.58
584.657	24940.33
584.854	25112.36
585.052	24692.53
585.249	25151.27
585.447	24592.18
585.644	24377.14
585.841	24579.89
586.039	24794.93
586.236	24463.16
586.434	24256.31
586.631	24457.01
586.828	24528.69
587.026	24383.29
587.223	24241.98
587.42	24131.39
587.618	24246.07
587.815	23584.58
588.012	23756.61
588.21	23723.84
588.407	23887.68
588.604	23656.26
588.801	23336.77
588.999	23633.73
589.196	23609.15
589.393	23529.28
589.59	23215.94
589.787	23263.05
589.984	23193.42
590.182	23058.25
590.379	23064.39
590.576	22828.88
590.773	23113.55
590.97	22679.38
591.167	22880.08
591.364	22658.9
591.561	22736.72
591.758	22687.57
591.955	22357.85
592.152	22513.49
592.349	22380.37
592.546	22353.75
592.743	22441.81
592.94	21970.78
593.137	22124.38
593.334	22132.57
593.531	21874.52
593.727	21815.13
593.924	21991.26
594.121	21663.58
594.318	21870.43
594.515	21383.01
594.712	22011.74
594.908	21700.45
595.105	21581.67
595.302	21210.98
595.499	21018.47
595.696	21481.31
595.892	21321.57
596.089	21524.32
596.286	21149.54
596.482	20877.16
596.679	21206.89
596.876	21053.29
597.072	20647.79
597.269	20604.78
597.466	20846.44
597.662	20326.26
597.859	20518.77
598.055	20660.08
598.252	20311.92
598.448	20574.06
598.645	20313.97
598.841	20215.67
599.038	20141.94
599.234	20174.71
599.431	19924.86
599.627	19828.6
599.824	20180.85
600.02	19857.28
600.217	19826.56
600.413	19808.12
600.609	19640.19
600.806	19677.05
601.002	19677.05
601.198	19441.54
601.395	19441.54
601.591	19376
601.787	19537.79
601.984	19341.19
602.18	19468.16
602.376	19255.17
602.572	19306.37
602.769	19150.73
602.965	18800.52
603.161	19064.71
603.357	18796.43
603.553	18716.56
603.75	18919.31
603.946	18827.15
604.142	18782.09
604.338	18608.01
604.534	18614.16
604.73	18640.78
604.926	18390.93
605.122	18552.72
605.318	18182.04
605.514	18280.34
605.71	18110.36
605.906	18096.02
606.102	17993.62
606.298	17819.55
606.494	18204.56
606.69	17975.19
606.886	17792.92
607.082	17657.76
607.278	17962.9
607.474	17657.76
607.67	17794.97
607.866	17428.38
608.062	17768.35
608.257	17397.67
608.453	17467.3
608.649	17809.31
608.845	17211.3
609.041	17321.89
609.236	17448.86
609.432	17094.57
609.628	17551.26
609.824	17229.73
610.019	17106.85
610.215	17317.79
610.411	17156
610.606	17407.91
610.802	17239.97
610.998	16881.58
611.193	16930.73
611.389	17377.19
611.584	16873.39
611.78	16680.88
611.976	17055.65
612.171	16619.44
612.367	16474.03
612.562	16506.8
612.758	16349.11
612.953	16496.56
613.149	16439.22
613.344	16322.48
613.539	16740.27
613.735	16603.05
613.93	16394.16
614.126	16328.63
614.321	16633.77
614.517	16238.51
614.712	16267.19
614.907	16379.82
615.103	16273.33
615.298	16025.53
615.493	16424.88
615.688	16093.11
615.884	16351.15
616.079	16005.05
616.274	15900.6
616.47	16183.22
616.665	16132.02
616.86	15878.07
617.055	16005.05
617.25	15927.22
617.445	15916.98
617.641	15509.44
617.836	15894.46
618.031	15654.84
618.226	15865.78
618.421	15615.93
618.616	15663.04
618.811	15384.51
619.006	15773.63
619.201	15314.88
619.396	15460.29
619.591	14946.25
619.786	15409.09
619.981	15101.89
620.176	15192
620.371	15050.69
620.566	15136.71
620.761	14872.52
620.956	15138.76
621.151	14671.82
621.346	14692.3
621.541	14548.94
621.735	14661.58
621.93	14276.56
622.125	14434.25
622.32	14157.78
622.515	14198.74
622.709	14067.67
622.904	14165.97
623.099	14122.96
623.294	14090.2
623.488	13873.11
623.683	13877.21
623.878	13715.42
624.072	13883.35
624.267	13866.97
624.462	13639.64
624.656	13391.84
624.851	13598.68
625.046	13285.34
625.24	13498.33
625.435	12963.81
625.629	13045.73
625.824	13053.92
626.018	13139.94
626.213	12808.17
626.407	12629.99
626.602	12593.13
626.796	12980.2
626.991	12695.53
627.185	12613.61
627.38	12574.7
627.574	12441.58
627.768	12353.52
627.963	12339.18
628.157	12279.79
628.352	12101.62
628.546	12099.57
628.74	12148.72
628.935	11997.17
629.129	12093.43
629.323	11917.3
629.517	11589.63
629.712	11833.33
629.906	11661.3
630.1	11644.92
630.294	11614.2
630.489	11700.22
630.683	11433.98
630.877	11427.84
631.071	11341.82
631.265	11298.81
631.459	11079.68
631.653	11210.75
631.848	10956.8
632.042	11018.24
632.236	11018.24
632.43	10852.36
632.624	10965
632.818	10778.63
633.012	10848.26
633.206	10688.52
633.4	10713.1
633.594	10684.42
633.788	10635.27
633.982	10506.25
634.176	10457.1
634.369	10317.84
634.563	10309.65
634.757	10274.83
634.951	10307.6
635.145	10360.84
635.339	10219.53
635.533	10113.04
635.726	10059.79
635.92	9857.04
636.114	9762.84
636.308	9777.17
636.501	9779.22
636.695	9963.54
636.889	9717.78
637.083	9736.21
637.276	9457.69
637.47	9539.61
637.664	9586.71
637.857	9635.86
638.051	9472.03
638.244	9527.32
638.438	9377.82
638.632	9306.14
638.825	9044
639.019	9150.5
639.212	9168.93
639.406	9005.09
639.599	9064.48
639.793	9099.3
639.986	8894.5
640.18	8579.11
640.373	8857.64
640.567	8785.96
640.76	8706.09
640.954	8581.16
641.147	8505.38
641.34	8505.38
641.534	8538.15
641.727	8667.17
641.92	8378.41
642.114	8513.58
642.307	8415.27
642.5	8310.83
642.694	8288.3
642.887	8132.65
643.08	8194.09
643.273	8243.24
643.467	8196.14
643.66	8181.81
643.853	7778.36
644.046	7796.79
644.239	7841.84
644.432	7921.71
644.626	7792.69
644.819	7698.49
645.012	7815.22
645.205	7841.84
645.398	7669.81
645.591	7624.76
645.784	7692.34
645.977	7532.6
646.17	7524.41
646.363	7536.7
646.556	7354.43
646.749	7395.39
646.942	7315.52
647.135	7397.43
647.328	7270.46
647.521	7319.61
647.714	7217.21
647.907	7120.96
648.099	7102.53
648.292	7092.29
648.485	7123.01
648.678	7032.9
648.871	6873.15
649.064	6895.68
649.256	7010.37
649.449	6848.58
649.642	6885.44
649.835	6721.6
650.027	6895.68
650.22	6793.28
650.413	6731.84
650.605	6537.29
650.798	6676.55
650.991	6420.55
651.183	6611.01
651.376	6453.32
651.568	6664.26
651.761	6361.16
651.954	6285.39
652.146	6467.66
652.339	6371.4
652.531	6254.67
652.724	6260.81
652.916	6105.17
653.109	6152.27
653.301	6064.21
653.494	6211.66
653.686	6162.51
653.879	6000.72
654.071	5990.48
654.263	6142.03
654.456	5976.14
654.648	5924.94
654.84	5834.83
655.033	5789.78
655.225	5800.02
655.417	5746.77
655.61	5810.26
655.802	5797.97
655.994	5730.39
656.186	5654.61
656.379	5677.14
656.571	5732.44
656.763	5408.86
656.955	5476.44
657.148	5666.9
657.34	5531.73
657.532	5636.18
657.724	5421.14
657.916	5515.35
658.108	5390.42
658.3	5376.09
658.492	5396.57
658.684	5347.42
658.876	5306.46
659.068	5314.65
659.26	5263.45
659.452	5240.92
659.644	5197.92
659.836	5095.52
660.028	5161.05
660.22	4982.88
660.412	5103.71
660.604	5052.51
660.796	4849.76
660.988	4978.78
661.18	4991.07
661.372	4851.81
661.563	4962.4
661.755	4880.48
661.947	4896.86
662.139	4829.28
662.331	4769.89
662.522	4659.3
662.714	4546.66
662.906	4776.03
663.097	4765.79
663.289	4624.48
663.481	4694.12
663.673	4724.83
663.864	4677.73
664.056	4587.62
664.247	4669.54
664.439	4474.98
664.631	4503.65
664.822	4583.52
665.014	4585.57
665.205	4440.17
665.397	4366.44
665.588	4411.5
665.78	4526.18
665.971	4472.93
666.163	4382.82
666.354	4335.72
666.546	4298.86
666.737	4253.8
666.929	4313.19
667.12	4337.77
667.311	4155.5
667.503	4194.41
667.694	4221.03
667.885	4112.49
668.077	4153.45
668.268	4171.88
668.459	4196.46
668.651	4161.64
668.842	4073.58
669.033	3838.06
669.224	4008.05
669.416	4094.06
669.607	3883.12
669.798	3883.12
669.989	3973.23
670.18	3790.96
670.371	3856.5
670.563	3868.78
670.754	4022.38
670.945	3975.28
671.136	3852.4
671.327	3817.58
671.518	3854.45
671.709	3803.25
671.9	3831.92
672.091	3793.01
672.282	3817.58
672.473	3887.22
672.664	3790.96
672.855	3690.61
673.046	3608.69
673.237	3741.81
673.428	3698.8
673.619	3631.22
673.809	3481.72
674	3723.38
674.191	3537.01
674.382	3496.05
674.573	3475.57
674.764	3549.3
674.954	3594.36
675.145	3575.92
675.336	3424.37
675.527	3467.38
675.717	3360.89
675.908	3475.57
676.099	3373.18
676.289	3457.14
676.48	3575.92
676.671	3342.46
676.861	3422.33
677.052	3344.5
677.243	3379.32
677.433	3289.21
677.624	3328.12
677.814	3305.59
678.005	3360.89
678.195	3303.54
678.386	3281.02
678.576	3256.44
678.767	3330.17
678.957	3244.15
679.148	3268.73
679.338	3207.29
679.529	3274.87
679.719	3160.19
679.909	3281.02
680.1	3369.08
680.29	3145.85
680.481	3170.43
680.671	3076.22
680.861	3055.74
681.052	3205.24
681.242	3211.39
681.432	3125.37
681.622	3068.03
681.813	3117.18
682.003	3143.8
682.193	2992.25
682.383	3098.75
682.573	3154.04
682.764	2977.92
682.954	3008.64
683.144	2977.92
683.334	3104.89
683.524	2955.39
683.714	2984.06
683.904	3088.51
684.094	2930.81
684.284	2975.87
684.474	2957.44
684.664	3018.88
684.854	2967.68
685.044	2994.3
685.234	2869.37
685.424	2855.04
685.614	2928.77
685.804	2898.05
685.994	2828.42
686.184	2930.81
686.374	2943.1
686.564	2979.97
686.753	2785.41
686.943	2701.44
687.133	2875.52
687.323	2807.94
687.513	2787.46
687.702	2814.08
687.892	2734.21
688.082	2830.46
688.272	2738.3
688.461	2711.68
688.651	2914.43
688.841	2775.17
689.03	2627.71
689.22	2797.7
689.41	2744.45
689.599	2652.29
689.789	2680.96
689.979	2635.91
690.168	2699.39
690.358	2547.84
690.547	2683.01
690.737	2656.39
690.926	2576.52
691.116	2625.67
691.305	2549.89
691.495	2513.03
691.684	2480.26
691.874	2621.57
692.063	2531.46
692.252	2533.51
692.442	2519.17
692.631	2420.87
692.82	2482.31
693.01	2590.85
693.199	2553.99
693.388	2478.21
693.578	2498.69
693.767	2539.65
693.956	2408.58
694.146	2449.54
694.335	2373.77
694.524	2418.82
694.713	2461.83
694.902	2533.51
695.092	2349.19
695.281	2494.6
695.47	2435.21
695.659	2328.71
695.848	2338.95
696.037	2504.84
696.226	2394.25
696.415	2287.75
696.604	2355.33
696.793	2248.84
696.982	2326.66
697.171	2384.01
697.36	2308.23
697.549	2334.86
697.738	2289.8
697.927	2244.74
698.116	2281.61
698.305	2265.22
698.494	2347.14
698.683	2328.71
698.872	2338.95
699.061	2271.37
699.25	2259.08
699.438	2304.14
699.627	2410.63
699.816	2365.57
700.005	2349.19
700.193	2365.57
700.382	2320.52
700.571	2181.26
700.76	2345.09
700.948	2394.25
701.137	2349.19
701.326	2211.98
701.514	2330.76
701.703	2277.51
701.892	2295.94
702.08	2232.46
702.269	2324.62
702.457	2265.22
702.646	2386.05
702.834	2277.51
703.023	2287.75
703.212	2402.44
703.4	2308.23
703.589	2277.51
703.777	2336.9
703.965	2291.85
704.154	2197.64
704.342	2254.98
704.531	2295.94
704.719	2248.84
704.907	2279.56
705.096	2291.85
705.284	2140.3
705.472	2316.42
705.661	2349.19
705.849	2158.73
706.037	2205.83
706.226	2236.55
706.414	2218.12
706.602	2261.13
706.79	2207.88
706.979	2216.07
707.167	2302.09
707.355	2156.68
707.543	2275.46
707.731	2181.26
707.919	2279.56
708.107	2271.37
708.296	2273.42
708.484	2142.35
708.672	2279.56
708.86	2293.9
709.048	2189.45
709.236	2254.98
709.424	2193.55
709.612	2070.67
709.8	2199.69
709.988	2207.88
710.176	2136.2
710.364	2117.77
710.551	2263.18
710.739	2353.29
710.927	2193.55
711.115	2246.79
711.303	2179.21
711.491	2277.51
711.679	2166.92
711.866	2302.09
712.054	2279.56
712.242	2207.88
712.43	2297.99
712.617	2222.22
712.805	2156.68
712.993	2259.08
713.181	2267.27
713.368	2304.14
713.556	2226.31
713.744	2160.78
713.931	2232.46
714.119	2297.99
714.306	2179.21
714.494	2203.79
714.682	2285.7
714.869	2275.46
715.057	2300.04
715.244	2306.18
715.432	2197.64
715.619	2134.15
715.807	2152.59
715.994	2250.89
716.182	2175.11
716.369	2232.46
716.556	2211.98
716.744	2185.35
716.931	2152.59
717.119	2242.7
717.306	2232.46
717.493	2144.39
717.681	2304.14
717.868	2263.18
718.055	2209.93
718.242	2197.64
718.43	2205.83
718.617	2156.68
718.804	2246.79
718.991	2146.44
719.179	2222.22
719.366	2140.3
719.553	2287.75
719.74	2248.84
719.927	2119.82
720.114	2271.37
720.301	2189.45
720.488	2211.98
720.676	2134.15
720.863	2037.9
721.05	2250.89
721.237	2201.74
721.424	2185.35
721.611	2183.31
721.798	2291.85
721.985	2101.39
722.172	2082.95
722.358	2070.67
722.545	2144.39
722.732	2168.97
722.919	2185.35
723.106	2179.21
723.293	2164.87
723.48	2105.48
723.667	2150.54
723.853	2234.5
724.04	2248.84
724.227	2199.69
724.414	2316.42
724.6	2244.74
724.787	2105.48
724.974	2193.55
725.161	2224.26
725.347	2144.39
725.534	2148.49
725.72	2160.78
725.907	2257.03
726.094	2236.55
726.28	2125.96
726.467	2113.67
726.653	2093.19
726.84	2218.12
727.027	2193.55
727.213	2070.67
727.4	2199.69
727.586	2158.73
727.773	2162.83
727.959	2226.31
728.145	2230.41
728.332	2259.08
728.518	2013.32
728.705	2072.72
728.891	2228.36
729.077	2162.83
729.264	2146.44
729.45	2177.16
729.636	2134.15
729.823	2052.24
730.009	2113.67
730.195	2125.96
730.382	2171.02
730.568	2128.01
730.754	2062.48
730.94	2160.78
731.126	2080.91
731.313	2113.67
731.499	2150.54
731.685	2031.76
731.871	2060.43
732.057	2150.54
732.243	2191.5
732.429	2039.95
732.615	2232.46
732.801	2121.87
732.987	2072.72
733.173	2156.68
733.359	2158.73
733.545	2150.54
733.731	2123.91
733.917	2244.74
734.103	2152.59
734.289	2085
734.475	1980.56
734.661	2113.67
734.847	2187.4
735.033	2142.35
735.219	2291.85
735.404	2048.14
735.59	2095.24
735.776	2058.38
735.962	2023.56
736.148	2015.37
736.333	2109.58
736.519	2130.06
736.705	2156.68
736.89	2117.77
737.076	2033.8
737.262	2060.43
737.447	1988.75
737.633	2216.07
737.819	2042
738.004	2033.8
738.19	2087.05
738.375	2115.72
738.561	2109.58
738.747	1923.21
738.932	1947.79
739.118	2064.52
739.303	2027.66
739.489	1966.22
739.674	2023.56
739.859	1990.8
740.045	1966.22
740.23	1951.88
740.416	1898.64
740.601	1998.99
740.786	2123.91
740.972	1943.69
741.157	1972.36
741.342	1900.69
741.528	1992.84
741.713	1955.98
741.898	1962.12
742.084	1921.17
742.269	1847.44
742.454	1986.7
742.639	1976.46
742.824	1808.53
743.01	1894.54
743.195	1890.45
743.38	1878.16
743.565	1872.01
743.75	1943.69
743.935	1835.15
744.12	1898.64
744.305	1790.1
744.49	1869.97
744.675	1794.19
744.86	1812.62
745.045	1833.1
745.23	1792.14
745.415	1810.58
745.6	1808.53
745.785	1638.55
745.97	1757.33
746.155	1716.37
746.34	1751.18
746.525	1685.65
746.71	1829.01
746.895	1652.88
747.079	1693.84
747.264	1730.7
747.449	1732.75
747.634	1693.84
747.819	1826.96
748.003	1661.07
748.188	1659.03
748.373	1669.27
748.557	1624.21
748.742	1564.82
748.927	1640.59
749.111	1509.52
749.296	1540.24
749.481	1566.87
749.665	1595.54
749.85	1523.86
750.034	1638.55
750.219	1613.97
750.404	1575.06
750.588	1589.39
750.773	1534.1
750.957	1499.28
751.141	1622.16
751.326	1472.66
751.51	1364.12
751.695	1480.85
751.879	1476.76
752.064	1523.86
752.248	1413.27
752.432	1472.66
752.617	1396.89
752.801	1495.19
752.985	1388.69
753.17	1443.99
753.354	1278.1
753.538	1382.55
753.722	1396.89
753.907	1353.88
754.091	1280.15
754.275	1331.35
754.459	1218.71
754.643	1253.53
754.828	1278.1
755.012	1253.53
755.196	1241.24
755.38	1376.41
755.564	1431.7
755.748	1185.94
755.932	1259.67
756.116	1290.39
756.3	1202.33
756.484	1259.67
756.668	1194.14
756.852	1153.18
757.036	1212.57
757.22	1187.99
757.404	1216.66
757.588	1204.38
757.772	1190.04
757.956	1169.56
758.14	1157.27
758.323	1214.62
758.507	1204.38
758.691	1104.03
758.875	1185.94
759.059	1169.56
759.242	1155.23
759.426	1015.96
759.61	1216.66
759.794	1042.59
759.977	1132.7
760.161	1122.46
760.345	1042.59
760.528	1063.07
760.712	1061.02
760.895	1028.25
761.079	1030.3
761.263	1050.78
761.446	1013.92
761.63	1087.64
761.813	1058.97
761.997	1073.31
762.18	1065.11
762.364	934.04
762.547	1054.87
762.731	970.91
762.914	1001.63
763.098	1042.59
763.281	1024.16
763.464	981.15
763.648	993.44
763.831	1032.35
764.015	911.52
764.198	1063.07
764.381	995.48
764.564	1011.87
764.748	1024.16
764.931	1013.92
765.114	899.23
765.297	977.05
765.481	958.62
765.664	966.81
765.847	942.24
766.03	940.19
766.213	954.52
766.397	905.37
766.58	944.28
766.763	934.04
766.946	880.8
767.129	936.09
767.312	923.8
767.495	903.32
767.678	915.61
767.861	870.56
768.044	911.52
768.227	977.05
768.41	876.7
768.593	958.62
768.776	837.79
768.959	848.03
769.142	964.76
769.324	886.94
769.507	829.6
769.69	839.84
769.873	792.73
770.056	850.08
770.239	841.89
770.421	827.55
770.604	831.65
770.787	786.59
770.97	856.22
771.152	780.45
771.335	823.45
771.518	829.6
771.7	878.75
771.883	796.83
772.066	788.64
772.248	776.35
772.431	872.61
772.613	827.55
772.796	741.54
772.978	753.82
773.161	721.06
773.343	784.54
773.526	692.38
773.708	794.78
773.891	692.38
774.073	839.84
774.256	694.43
774.438	755.87
774.621	745.63
774.803	735.39
774.985	710.82
775.168	764.06
775.35	651.42
775.532	710.82
775.715	792.73
775.897	843.93
776.079	723.1
776.261	759.97
776.444	768.16
776.626	770.21
776.808	692.38
776.99	708.77
777.173	657.57
777.355	721.06
777.537	626.85
777.719	796.83
777.901	655.52
778.083	630.95
778.265	641.18
778.447	606.37
778.629	555.17
778.811	692.38
778.993	659.62
779.175	694.43
779.357	559.27
779.539	534.69
779.721	577.7
779.903	600.23
780.085	585.89
780.267	632.99
780.449	606.37
780.631	632.99
780.812	581.79
780.994	538.79
781.176	594.08
781.358	600.23
781.54	538.79
781.721	516.26
781.903	534.69
782.085	495.78
782.267	587.94
782.448	508.07
782.63	518.31
782.812	587.94
782.993	577.7
783.175	477.35
783.357	549.03
783.538	530.59
783.72	538.79
783.901	485.54
784.083	532.64
784.264	477.35
784.446	483.49
784.627	436.39
784.809	446.63
784.99	477.35
785.172	579.75
785.353	454.82
785.535	510.11
785.716	428.2
785.897	481.44
786.079	387.24
786.26	460.96
786.441	538.79
786.623	475.3
786.804	524.45
786.985	452.77
787.167	446.63
787.348	413.86
787.529	438.44
787.71	383.14
787.891	426.15
788.073	297.13
788.254	362.66
788.435	442.53
788.616	364.71
788.797	344.23
788.978	379.04
789.159	391.33
789.34	395.43
789.522	379.04
789.703	411.81
789.884	370.85
790.065	436.39
790.246	356.52
790.427	323.75
790.607	387.24
790.788	415.91
790.969	356.52
791.15	417.96
791.331	377
791.512	338.09
791.693	336.04
791.874	331.94
792.054	370.85
792.235	366.76
792.416	264.36
792.597	299.17
792.778	379.04
792.958	282.79
793.139	327.85
793.32	317.61
793.5	303.27
793.681	331.94
793.862	336.04
794.042	342.18
794.223	313.51
794.404	391.33
794.584	309.41
794.765	295.08
794.945	315.56
795.126	356.52
795.306	288.93
795.487	280.74
795.667	293.03
795.848	325.8
796.028	319.65
796.209	352.42
796.389	301.22
796.57	303.27
796.75	245.93
796.93	303.27
797.111	235.69
797.291	235.69
797.471	264.36
797.652	284.84
797.832	254.12
798.012	336.04
798.192	161.96
798.373	200.87
798.553	237.74
798.733	260.26
798.913	231.59
799.093	194.73
799.274	243.88
799.454	297.13
799.634	225.45
799.814	268.45
799.994	241.83
800.174	254.12
800.354	239.78
800.534	211.11
800.714	272.55
800.894	252.07
801.074	223.4
801.254	243.88
801.434	198.82
801.614	258.21
801.794	290.98
801.974	659.62
802.154	153.77
802.334	233.64
802.514	262.31
802.693	196.78
802.873	211.11
803.053	166.06
803.233	243.88
803.413	168.1
803.592	215.21
803.772	266.41
803.952	215.21
804.131	211.11
804.311	215.21
804.491	155.82
804.67	172.2
804.85	245.93
805.03	147.62
805.209	254.12
805.389	229.54
805.568	186.54
805.748	235.69
805.928	155.82
806.107	182.44
806.287	188.58
806.466	239.78
806.646	129.19
806.825	145.58
807.004	256.17
807.184	231.59
807.363	198.82
807.543	143.53
807.722	141.48
807.901	219.3
808.081	129.19
808.26	155.82
808.439	252.07
808.619	145.58
808.798	168.1
808.977	168.1
809.156	219.3
809.336	174.25
809.515	260.26
809.694	92.33
809.873	145.58
810.052	116.9
810.231	264.36
810.411	157.86
810.59	229.54
810.769	217.26
810.948	133.29
811.127	157.86
811.306	116.9
811.485	164.01
811.664	202.92
811.843	143.53
812.022	125.1
812.201	229.54
812.38	67.75
812.559	196.78
812.737	180.39
812.916	176.3
813.095	137.38
813.274	84.14
813.453	172.2
813.632	178.34
813.811	155.82
813.989	129.19
814.168	227.5
814.347	116.9
814.526	102.57
814.704	157.86
814.883	157.86
815.062	118.95
815.24	153.77
815.419	176.3
815.598	186.54
815.776	129.19
815.955	223.4
816.133	145.58
816.312	141.48
816.49	133.29
816.669	198.82
816.847	135.34
817.026	180.39
817.204	182.44
817.383	121
817.561	75.95
817.74	131.24
817.918	151.72
818.097	59.56
818.275	127.14
818.453	123.05
818.632	137.38
818.81	127.14
818.988	131.24
819.167	96.43
819.345	188.58
819.523	94.38
819.701	100.52
819.879	127.14
820.058	133.29
820.236	153.77
820.414	170.15
820.592	47.27
820.77	139.43
820.948	133.29
821.127	147.62
821.305	143.53
821.483	100.52
821.661	153.77
821.839	116.9
822.017	18.6
822.195	127.14
822.373	229.54
822.551	131.24
822.729	145.58
822.907	92.33
823.085	12.46
823.262	116.9
823.44	125.1
823.618	104.62
823.796	116.9
823.974	137.38
824.152	63.66
824.329	98.47
824.507	161.96
824.685	108.71
824.863	34.99
825.04	86.19
825.218	129.19
825.396	67.75
825.574	116.9
825.751	69.8
825.929	88.23
826.107	102.57
826.284	47.27
826.462	145.58
826.639	100.52
826.817	24.75
826.994	116.9
827.172	129.19
827.349	92.33
827.527	125.1
827.704	26.79
827.882	75.95
828.059	96.43
828.237	45.23
828.414	100.52
828.591	82.09
828.769	106.67
828.946	49.32
829.124	86.19
829.301	75.95
829.478	65.71
829.655	88.23
829.833	57.51
830.01	8.36
830.187	145.58
830.364	34.99
830.542	22.7
830.719	41.13
830.896	65.71
831.073	112.81
831.25	92.33
831.427	108.71
831.604	116.9
831.782	67.75
831.959	86.19
832.136	116.9
832.313	104.62
832.49	110.76
832.667	88.23
832.844	47.27
833.021	47.27
833.198	82.09
833.374	39.08
833.551	106.67
833.728	75.95
833.905	102.57
834.082	96.43
834.259	63.66
834.436	125.1
834.612	75.95
834.789	39.08
834.966	47.27
835.143	71.85
835.319	28.84
835.496	24.75
835.673	96.43
835.85	61.61
836.026	96.43
836.203	53.42
836.38	53.42
836.556	84.14
836.733	137.38
836.909	116.9
837.086	63.66
837.262	65.71
837.439	104.62
837.616	-22.36
837.792	75.95
837.968	90.28
838.145	69.8
838.321	43.18
838.498	-55.12
838.674	22.7
838.851	98.47
839.027	63.66
839.203	63.66
839.38	14.51
839.556	84.14
839.732	59.56
839.909	6.31
840.085	77.99
840.261	53.42
840.437	59.56
840.614	6.31
840.79	53.42
840.966	96.43
841.142	45.23
841.318	92.33
841.494	8.36
841.671	47.27
841.847	-48.98
842.023	59.56
842.199	116.9
842.375	92.33
842.551	-55.12
842.727	61.61
842.903	73.9
843.079	43.18
843.255	84.14
843.431	57.51
843.607	37.03
843.783	20.65
843.959	104.62
844.134	-3.93
844.31	49.32
844.486	43.18
844.662	73.9
844.838	69.8
845.013	26.79
845.189	88.23
845.365	116.9
845.541	-3.93
845.716	55.47
845.892	-28.5
846.068	61.61
846.244	-14.17
846.419	118.95
846.595	22.7
846.77	69.8
846.946	47.27
847.122	18.6
847.297	41.13
847.473	69.8
847.648	-10.07
847.824	37.03
847.999	47.27
848.175	39.08
848.35	125.1
848.526	94.38
848.701	30.89
848.876	28.84
849.052	100.52
849.227	37.03
849.403	73.9
849.578	69.8
849.753	71.85
849.929	22.7
850.104	57.51
850.279	80.04
850.454	59.56
850.63	96.43
850.805	-5.97
850.98	24.75
851.155	43.18
851.33	59.56
851.505	-12.12
851.681	151.72
851.856	-1.88
852.031	24.75
852.206	75.95
852.381	61.61
852.556	-57.17
852.731	59.56
852.906	51.37
853.081	49.32
853.256	61.61
853.431	-5.97
853.606	-28.5
853.781	80.04
853.956	-18.26
854.131	71.85
854.305	28.84
854.48	2.22
854.655	28.84
854.83	37.03
855.005	80.04
855.18	28.84
855.354	-14.17
855.529	43.18
855.704	-12.12
855.879	108.71
856.053	-10.07
856.228	47.27
856.403	-32.6
856.577	37.03
856.752	24.75
856.926	-22.36
857.101	-20.31
857.276	-24.4
857.45	-8.02
857.625	10.41
857.799	12.46
857.974	32.94
858.148	14.51
858.323	4.27
858.497	-10.07
858.672	-20.31
858.846	55.47
859.02	28.84
859.195	-8.02
859.369	45.23
859.543	96.43
859.718	41.13
859.892	14.51
860.066	22.7
860.241	26.79
860.415	-5.97
860.589	59.56
860.763	18.6
860.938	-14.17
861.112	39.08
861.286	116.9
861.46	37.03
861.634	28.84
861.808	-5.97
861.982	-42.84
862.157	12.46
862.331	59.56
862.505	59.56
862.679	26.79
862.853	-42.84
863.027	-10.07
863.201	43.18
863.375	-18.26
863.549	55.47
863.722	51.37
863.896	-12.12
864.07	55.47
864.244	37.03
864.418	2.22
864.592	0.17
864.766	-30.55
864.939	51.37
865.113	24.75
865.287	10.41
865.461	69.8
865.634	-5.97
865.808	10.41
865.982	8.36
866.156	6.31
866.329	43.18
866.503	53.42
866.676	102.57
866.85	16.55
867.024	-42.84
867.197	30.89
867.371	53.42
867.544	-61.27
867.718	2.22
867.891	118.95
868.065	-22.36
868.238	55.47
868.412	59.56
868.585	37.03
868.759	47.27
868.932	-1.88
869.105	86.19
869.279	4.27
869.452	53.42
869.625	-3.93
869.799	6.31
869.972	-12.12
870.145	41.13
870.319	51.37
870.492	75.95
870.665	-8.02
870.838	-59.22
871.011	-69.46
871.185	28.84
871.358	8.36
871.531	10.41
871.704	34.99
871.877	34.99
872.05	16.55
872.223	32.94
872.396	-24.4
872.569	26.79
872.742	39.08
872.915	26.79
873.088	-1.88
873.261	-12.12
873.434	-8.02
873.607	18.6
873.78	10.41
873.953	0.17
874.126	24.75
874.299	43.18
874.471	67.75
874.644	-5.97
874.817	22.7
874.99	67.75
875.163	75.95
875.335	12.46
875.508	-40.79
875.681	-34.64
875.853	-24.4
876.026	-24.4
876.199	-73.56
876.371	14.51
876.544	12.46
876.717	-36.69
876.889	22.7
877.062	-8.02
877.234	-34.64
877.407	-8.02
877.579	-14.17
877.752	-14.17
877.924	55.47
878.097	10.41
878.269	55.47
878.442	28.84
878.614	73.9
878.786	67.75
878.959	-30.55
879.131	67.75
879.303	-55.12
879.476	-40.79
879.648	-30.55
879.82	28.84
879.993	-28.5
880.165	6.31
880.337	6.31
880.509	28.84
880.681	6.31
880.854	28.84
881.026	26.79
881.198	39.08
881.37	26.79
881.542	-28.5
881.714	4.27
881.886	-1.88
882.058	-1.88
882.23	-55.12
882.402	-12.12
882.574	73.9
882.746	-40.79
882.918	55.47
883.09	49.32
883.262	-59.22
883.434	-3.93
883.606	-28.5
883.778	43.18
883.95	8.36
884.122	26.79
884.293	32.94
884.465	37.03
884.637	6.31
884.809	71.85
884.98	10.41
885.152	0.17
885.324	34.99
885.496	0.17
885.667	57.51
885.839	-26.45
886.011	51.37
886.182	-5.97
886.354	75.95
886.525	-26.45
886.697	43.18
886.869	-83.8
887.04	28.84
887.212	49.32
887.383	24.75
887.555	22.7
887.726	-16.21
887.897	-18.26
888.069	12.46
888.24	63.66
888.412	75.95
888.583	43.18
888.754	71.85
888.926	-22.36
889.097	65.71
889.268	-55.12
889.44	-1.88
889.611	-10.07
889.782	-10.07
889.953	-20.31
890.125	80.04
890.296	39.08
890.467	53.42
890.638	49.32
890.809	32.94
890.98	-32.6
891.151	22.7
891.323	20.65
891.494	114.86
891.665	102.57
891.836	10.41
892.007	18.6
892.178	-34.64
892.349	6.31
892.52	55.47
892.691	43.18
892.862	-5.97
893.032	-65.36
893.203	41.13
893.374	57.51
893.545	51.37
893.716	-38.74
893.887	20.65
894.057	-55.12
894.228	30.89
894.399	28.84
894.57	71.85
894.74	-18.26
894.911	30.89
895.082	39.08
895.253	-5.97
895.423	53.42
895.594	-48.98
895.764	4.27
895.935	-5.97
896.106	12.46
896.276	43.18
896.447	28.84
896.617	-32.6
896.788	80.04
896.958	14.51
897.129	0.17
897.299	82.09
897.47	84.14
897.64	-57.17
897.81	43.18
897.981	59.56
898.151	-1.88
898.322	-38.74
898.492	37.03
898.662	43.18
898.832	-26.45
899.003	-18.26
899.173	-22.36
899.343	-8.02
899.513	-28.5
