Data from USB4F104151__128__11-07-37-995.txt Node

Date: Wed Mar 12 11:07:37 EDT 2025
User: louis
Spectrometer: USB4F10415
Trigger mode: 4
Integration Time (sec): 2.000000E-2
Scans to average: 1
Electric dark correction enabled: true
Nonlinearity correction enabled: false
Boxcar width: 0
XAxis mode: Wavelengths
Number of Pixels in Spectrum: 3648
>>>>>Begin Spectral Data<<<<<
178.204	-40.45
178.424	-40.45
178.644	-40.45
178.864	-79.36
179.084	-62.98
179.304	-17.92
179.524	55.81
179.744	-7.68
179.964	23.04
180.184	-15.87
180.404	-5.63
180.624	-15.87
180.844	4.61
181.064	33.28
181.283	-42.5
181.503	-58.88
181.723	47.62
181.943	8.7
182.163	27.14
182.383	12.8
182.602	25.09
182.822	61.95
183.042	33.28
183.262	47.62
183.482	74.24
183.701	51.71
183.921	-1.54
184.141	39.42
184.361	57.86
184.58	39.42
184.8	-11.78
185.02	29.18
185.239	4.61
185.459	82.43
185.679	6.66
185.898	31.23
186.118	102.91
186.338	-44.54
186.557	49.66
186.777	47.62
186.997	55.81
187.216	0.51
187.436	72.19
187.655	45.57
187.875	41.47
188.095	100.86
188.314	33.28
188.534	8.7
188.753	-32.26
188.973	78.33
189.192	-3.58
189.412	23.04
189.631	86.53
189.851	20.99
190.07	84.48
190.29	25.09
190.509	8.7
190.729	70.14
190.948	25.09
191.168	125.44
191.387	70.14
191.607	6.66
191.826	33.28
192.045	33.28
192.265	-56.83
192.484	39.42
192.704	10.75
192.923	33.28
193.142	94.72
193.362	-28.16
193.581	70.14
193.8	-3.58
194.02	23.04
194.239	29.18
194.458	76.29
194.678	-5.63
194.897	6.66
195.116	68.09
195.335	-36.35
195.555	68.09
195.774	-40.45
195.993	51.71
196.212	10.75
196.432	43.52
196.651	84.48
196.87	-19.97
197.089	39.42
197.308	55.81
197.528	66.05
197.747	-5.63
197.966	-17.92
198.185	4.61
198.404	33.28
198.623	80.38
198.842	94.72
199.062	51.71
199.281	64
199.5	33.28
199.719	23.04
199.938	20.99
200.157	100.86
200.376	41.47
200.595	47.62
200.814	-3.58
201.033	31.23
201.252	37.38
201.471	31.23
201.69	18.94
201.909	27.14
202.128	68.09
202.347	94.72
202.566	-26.11
202.785	-60.93
203.004	-5.63
203.223	111.1
203.442	33.28
203.661	57.86
203.879	-44.54
204.098	6.66
204.317	29.18
204.536	51.71
204.755	16.9
204.974	82.43
205.193	16.9
205.411	-11.78
205.63	-5.63
205.849	18.94
206.068	35.33
206.287	27.14
206.505	39.42
206.724	84.48
206.943	-24.06
207.162	66.05
207.381	68.09
207.599	43.52
207.818	45.57
208.037	84.48
208.255	29.18
208.474	84.48
208.693	64
208.911	10.75
209.13	-11.78
209.349	27.14
209.567	45.57
209.786	72.19
210.005	41.47
210.223	51.71
210.442	66.05
210.661	12.8
210.879	66.05
211.098	-15.87
211.316	33.28
211.535	96.77
211.753	6.66
211.972	29.18
212.191	74.24
212.409	23.04
212.628	-50.69
212.846	59.9
213.065	86.53
213.283	16.9
213.502	-3.58
213.72	4.61
213.938	14.85
214.157	41.47
214.375	64
214.594	-1.54
214.812	66.05
215.031	57.86
215.249	-22.02
215.467	-22.02
215.686	25.09
215.904	10.75
216.122	-71.17
216.341	84.48
216.559	35.33
216.778	49.66
216.996	23.04
217.214	27.14
217.432	-15.87
217.651	39.42
217.869	45.57
218.087	47.62
218.306	68.09
218.524	57.86
218.742	-1.54
218.96	8.7
219.179	66.05
219.397	57.86
219.615	59.9
219.833	12.8
220.051	12.8
220.27	92.67
220.488	104.96
220.706	76.29
220.924	-69.12
221.142	45.57
221.36	6.66
221.578	53.76
221.796	41.47
222.015	68.09
222.233	12.8
222.451	59.9
222.669	16.9
222.887	119.29
223.105	18.94
223.323	-9.73
223.541	45.57
223.759	51.71
223.977	47.62
224.195	57.86
224.413	53.76
224.631	-9.73
224.849	29.18
225.067	96.77
225.285	47.62
225.503	41.47
225.721	-22.02
225.939	4.61
226.157	25.09
226.375	66.05
226.592	20.99
226.81	88.57
227.028	90.62
227.246	127.49
227.464	111.1
227.682	53.76
227.9	27.14
228.117	29.18
228.335	39.42
228.553	31.23
228.771	25.09
228.989	82.43
229.206	12.8
229.424	-34.3
229.642	49.66
229.86	12.8
230.077	18.94
230.295	141.82
230.513	33.28
230.731	53.76
230.948	64
231.166	125.44
231.384	8.7
231.601	39.42
231.819	51.71
232.037	12.8
232.254	2.56
232.472	59.9
232.689	-28.16
232.907	68.09
233.125	49.66
233.342	23.04
233.56	-28.16
233.777	37.38
233.995	-60.93
234.213	29.18
234.43	45.57
234.648	82.43
234.865	8.7
235.083	-34.3
235.3	80.38
235.518	10.75
235.735	39.42
235.953	16.9
236.17	-13.82
236.388	27.14
236.605	8.7
236.822	82.43
237.04	-7.68
237.257	14.85
237.475	31.23
237.692	121.34
237.909	43.52
238.127	6.66
238.344	27.14
238.562	-32.26
238.779	66.05
238.996	-17.92
239.214	72.19
239.431	82.43
239.648	-5.63
239.865	94.72
240.083	61.95
240.3	47.62
240.517	-38.4
240.735	14.85
240.952	53.76
241.169	68.09
241.386	84.48
241.603	12.8
241.821	80.38
242.038	45.57
242.255	55.81
242.472	-24.06
242.689	18.94
242.907	80.38
243.124	-24.06
243.341	14.85
243.558	23.04
243.775	64
243.992	49.66
244.209	29.18
244.426	12.8
244.643	47.62
244.86	6.66
245.078	70.14
245.295	59.9
245.512	61.95
245.729	6.66
245.946	43.52
246.163	61.95
246.38	2.56
246.597	55.81
246.814	18.94
247.031	25.09
247.248	31.23
247.464	-19.97
247.681	-13.82
247.898	27.14
248.115	59.9
248.332	2.56
248.549	90.62
248.766	59.9
248.983	43.52
249.2	-13.82
249.417	41.47
249.633	53.76
249.85	-7.68
250.067	-28.16
250.284	-15.87
250.501	64
250.717	86.53
250.934	-11.78
251.151	12.8
251.368	8.7
251.585	29.18
251.801	43.52
252.018	35.33
252.235	74.24
252.451	104.96
252.668	-1.54
252.885	68.09
253.102	45.57
253.318	94.72
253.535	76.29
253.752	70.14
253.968	23.04
254.185	16.9
254.401	53.76
254.618	-17.92
254.835	51.71
255.051	64
255.268	55.81
255.484	41.47
255.701	12.8
255.917	59.9
256.134	6.66
256.351	72.19
256.567	4.61
256.784	37.38
257	-24.06
257.217	10.75
257.433	45.57
257.65	47.62
257.866	12.8
258.082	12.8
258.299	82.43
258.515	74.24
258.732	6.66
258.948	47.62
259.165	23.04
259.381	78.33
259.597	70.14
259.814	41.47
260.03	88.57
260.246	59.9
260.463	80.38
260.679	37.38
260.895	23.04
261.112	43.52
261.328	-24.06
261.544	35.33
261.761	35.33
261.977	-26.11
262.193	-19.97
262.409	66.05
262.626	70.14
262.842	29.18
263.058	49.66
263.274	78.33
263.49	16.9
263.707	-3.58
263.923	23.04
264.139	8.7
264.355	4.61
264.571	31.23
264.787	-11.78
265.004	80.38
265.22	78.33
265.436	53.76
265.652	55.81
265.868	74.24
266.084	33.28
266.3	23.04
266.516	31.23
266.732	74.24
266.948	-48.64
267.164	8.7
267.38	10.75
267.596	-30.21
267.812	104.96
268.028	23.04
268.244	41.47
268.46	29.18
268.676	8.7
268.892	-1.54
269.108	53.76
269.324	-22.02
269.54	2.56
269.756	45.57
269.972	20.99
270.188	74.24
270.403	51.71
270.619	61.95
270.835	53.76
271.051	78.33
271.267	35.33
271.483	45.57
271.698	27.14
271.914	51.71
272.13	61.95
272.346	27.14
272.562	47.62
272.777	35.33
272.993	55.81
273.209	18.94
273.425	66.05
273.64	84.48
273.856	123.39
274.072	66.05
274.287	90.62
274.503	2.56
274.719	90.62
274.934	39.42
275.15	-24.06
275.366	39.42
275.581	-17.92
275.797	78.33
276.012	14.85
276.228	76.29
276.444	43.52
276.659	37.38
276.875	37.38
277.09	70.14
277.306	82.43
277.521	80.38
277.737	66.05
277.952	129.53
278.168	86.53
278.383	-1.54
278.599	59.9
278.814	20.99
279.03	107.01
279.245	29.18
279.461	4.61
279.676	10.75
279.892	20.99
280.107	100.86
280.322	33.28
280.538	156.16
280.753	2.56
280.969	-19.97
281.184	25.09
281.399	25.09
281.615	61.95
281.83	119.29
282.045	4.61
282.26	41.47
282.476	39.42
282.691	41.47
282.906	45.57
283.122	90.62
283.337	31.23
283.552	61.95
283.767	25.09
283.983	47.62
284.198	4.61
284.413	-1.54
284.628	72.19
284.843	31.23
285.058	125.44
285.274	20.99
285.489	18.94
285.704	121.34
285.919	29.18
286.134	64
286.349	0.51
286.564	90.62
286.779	47.62
286.995	16.9
287.21	12.8
287.425	90.62
287.64	37.38
287.855	74.24
288.07	29.18
288.285	2.56
288.5	31.23
288.715	76.29
288.93	68.09
289.145	78.33
289.36	41.47
289.575	2.56
289.79	61.95
290.004	0.51
290.219	18.94
290.434	33.28
290.649	61.95
290.864	45.57
291.079	88.57
291.294	0.51
291.509	45.57
291.724	51.71
291.938	57.86
292.153	66.05
292.368	70.14
292.583	131.58
292.798	16.9
293.012	64
293.227	100.86
293.442	78.33
293.657	78.33
293.871	80.38
294.086	-9.73
294.301	127.49
294.516	29.18
294.73	20.99
294.945	25.09
295.16	43.52
295.374	74.24
295.589	25.09
295.804	-36.35
296.018	41.47
296.233	61.95
296.447	76.29
296.662	72.19
296.877	43.52
297.091	68.09
297.306	39.42
297.52	72.19
297.735	92.67
297.949	41.47
298.164	14.85
298.378	10.75
298.593	41.47
298.807	-48.64
299.022	-13.82
299.236	49.66
299.451	8.7
299.665	-28.16
299.88	29.18
300.094	33.28
300.309	70.14
300.523	45.57
300.737	111.1
300.952	-7.68
301.166	25.09
301.381	43.52
301.595	25.09
301.809	4.61
302.024	43.52
302.238	29.18
302.452	-1.54
302.667	43.52
302.881	47.62
303.095	18.94
303.309	35.33
303.524	8.7
303.738	64
303.952	25.09
304.166	23.04
304.381	-48.64
304.595	104.96
304.809	35.33
305.023	37.38
305.237	117.25
305.452	27.14
305.666	72.19
305.88	92.67
306.094	86.53
306.308	59.9
306.522	18.94
306.736	18.94
306.95	27.14
307.164	74.24
307.379	-22.02
307.593	43.52
307.807	14.85
308.021	23.04
308.235	37.38
308.449	-22.02
308.663	4.61
308.877	57.86
309.091	72.19
309.305	143.87
309.519	23.04
309.733	-22.02
309.947	80.38
310.161	23.04
310.374	70.14
310.588	66.05
310.802	49.66
311.016	107.01
311.23	78.33
311.444	39.42
311.658	-1.54
311.872	-5.63
312.085	68.09
312.299	43.52
312.513	37.38
312.727	82.43
312.941	14.85
313.154	92.67
313.368	41.47
313.582	113.15
313.796	49.66
314.009	31.23
314.223	82.43
314.437	35.33
314.651	4.61
314.864	113.15
315.078	2.56
315.292	41.47
315.505	82.43
315.719	70.14
315.933	111.1
316.146	45.57
316.36	86.53
316.573	39.42
316.787	25.09
317.001	43.52
317.214	10.75
317.428	10.75
317.641	12.8
317.855	16.9
318.068	-3.58
318.282	66.05
318.495	10.75
318.709	47.62
318.922	102.91
319.136	8.7
319.349	33.28
319.563	6.66
319.776	66.05
319.99	107.01
320.203	6.66
320.417	0.51
320.63	35.33
320.843	123.39
321.057	23.04
321.27	86.53
321.483	29.18
321.697	131.58
321.91	20.99
322.124	55.81
322.337	66.05
322.55	33.28
322.763	2.56
322.977	33.28
323.19	-22.02
323.403	98.81
323.617	14.85
323.83	39.42
324.043	-7.68
324.256	-5.63
324.469	33.28
324.683	61.95
324.896	14.85
325.109	4.61
325.322	37.38
325.535	27.14
325.748	45.57
325.962	4.61
326.175	78.33
326.388	43.52
326.601	41.47
326.814	41.47
327.027	66.05
327.24	121.34
327.453	33.28
327.666	61.95
327.879	68.09
328.092	16.9
328.305	80.38
328.518	39.42
328.731	16.9
328.944	12.8
329.157	-46.59
329.37	29.18
329.583	92.67
329.796	72.19
330.009	35.33
330.222	84.48
330.435	51.71
330.648	41.47
330.861	-3.58
331.073	53.76
331.286	4.61
331.499	121.34
331.712	47.62
331.925	43.52
332.138	33.28
332.35	4.61
332.563	-1.54
332.776	88.57
332.989	39.42
333.202	23.04
333.414	92.67
333.627	72.19
333.84	-62.98
334.053	0.51
334.265	0.51
334.478	78.33
334.691	20.99
334.903	2.56
335.116	66.05
335.329	4.61
335.541	113.15
335.754	33.28
335.966	35.33
336.179	78.33
336.392	12.8
336.604	35.33
336.817	14.85
337.029	117.25
337.242	145.92
337.454	102.91
337.667	84.48
337.88	49.66
338.092	45.57
338.305	92.67
338.517	-11.78
338.729	16.9
338.942	88.57
339.154	100.86
339.367	-3.58
339.579	64
339.792	72.19
340.004	47.62
340.217	16.9
340.429	61.95
340.641	74.24
340.854	6.66
341.066	16.9
341.278	90.62
341.491	76.29
341.703	61.95
341.915	0.51
342.128	20.99
342.34	76.29
342.552	147.97
342.764	37.38
342.977	41.47
343.189	57.86
343.401	31.23
343.613	-19.97
343.826	78.33
344.038	35.33
344.25	39.42
344.462	66.05
344.674	37.38
344.886	61.95
345.099	-11.78
345.311	-15.87
345.523	78.33
345.735	45.57
345.947	27.14
346.159	43.52
346.371	53.76
346.583	74.24
346.795	94.72
347.007	61.95
347.219	20.99
347.431	12.8
347.643	35.33
347.855	10.75
348.067	25.09
348.279	4.61
348.491	61.95
348.703	35.33
348.915	27.14
349.127	27.14
349.339	18.94
349.551	61.95
349.763	20.99
349.975	47.62
350.187	90.62
350.399	-11.78
350.61	59.9
350.822	78.33
351.034	64
351.246	74.24
351.458	70.14
351.669	64
351.881	125.44
352.093	33.28
352.305	117.25
352.517	29.18
352.728	53.76
352.94	-19.97
353.152	8.7
353.363	-54.78
353.575	53.76
353.787	-22.02
353.999	39.42
354.21	35.33
354.422	35.33
354.633	-24.06
354.845	76.29
355.057	123.39
355.268	59.9
355.48	74.24
355.692	-11.78
355.903	37.38
356.115	12.8
356.326	16.9
356.538	184.83
356.749	2.56
356.961	-22.02
357.172	27.14
357.384	47.62
357.595	107.01
357.807	23.04
358.018	-28.16
358.23	45.57
358.441	16.9
358.653	37.38
358.864	74.24
359.075	16.9
359.287	119.29
359.498	72.19
359.709	45.57
359.921	113.15
360.132	29.18
360.344	-17.92
360.555	68.09
360.766	66.05
360.977	25.09
361.189	82.43
361.4	29.18
361.611	10.75
361.823	37.38
362.034	96.77
362.245	-26.11
362.456	29.18
362.667	45.57
362.879	12.8
363.09	49.66
363.301	47.62
363.512	51.71
363.723	37.38
363.935	20.99
364.146	51.71
364.357	51.71
364.568	12.8
364.779	102.91
364.99	76.29
365.201	45.57
365.412	61.95
365.623	94.72
365.834	-15.87
366.045	100.86
366.256	4.61
366.467	14.85
366.678	23.04
366.889	84.48
367.1	39.42
367.311	-1.54
367.522	84.48
367.733	121.34
367.944	55.81
368.155	49.66
368.366	39.42
368.577	31.23
368.788	92.67
368.999	10.75
369.209	39.42
369.42	45.57
369.631	86.53
369.842	53.76
370.053	74.24
370.264	119.29
370.474	35.33
370.685	82.43
370.896	78.33
371.107	84.48
371.317	45.57
371.528	-38.4
371.739	-1.54
371.95	37.38
372.16	117.25
372.371	53.76
372.582	94.72
372.792	41.47
373.003	117.25
373.214	45.57
373.424	41.47
373.635	20.99
373.846	39.42
374.056	25.09
374.267	61.95
374.477	66.05
374.688	0.51
374.898	111.1
375.109	18.94
375.319	10.75
375.53	35.33
375.74	78.33
375.951	74.24
376.161	39.42
376.372	113.15
376.582	23.04
376.793	49.66
377.003	64
377.214	102.91
377.424	43.52
377.635	61.95
377.845	39.42
378.055	53.76
378.266	23.04
378.476	76.29
378.686	76.29
378.897	92.67
379.107	57.86
379.317	68.09
379.528	45.57
379.738	107.01
379.948	2.56
380.158	104.96
380.369	127.49
380.579	104.96
380.789	66.05
380.999	41.47
381.21	84.48
381.42	119.29
381.63	41.47
381.84	35.33
382.05	29.18
382.261	55.81
382.471	123.39
382.681	145.92
382.891	129.53
383.101	29.18
383.311	10.75
383.521	92.67
383.731	43.52
383.941	23.04
384.151	68.09
384.361	61.95
384.571	104.96
384.781	68.09
384.991	64
385.201	66.05
385.411	57.86
385.621	41.47
385.831	2.56
386.041	31.23
386.251	57.86
386.461	64
386.671	27.14
386.881	92.67
387.091	70.14
387.301	57.86
387.511	115.2
387.72	43.52
387.93	92.67
388.14	25.09
388.35	78.33
388.56	25.09
388.769	135.68
388.979	-26.11
389.189	70.14
389.399	66.05
389.609	133.63
389.818	10.75
390.028	80.38
390.238	86.53
390.447	82.43
390.657	14.85
390.867	98.81
391.076	80.38
391.286	72.19
391.496	90.62
391.705	55.81
391.915	100.86
392.125	119.29
392.334	37.38
392.544	68.09
392.753	18.94
392.963	14.85
393.172	127.49
393.382	47.62
393.591	90.62
393.801	57.86
394.01	68.09
394.22	127.49
394.429	68.09
394.639	100.86
394.848	61.95
395.058	92.67
395.267	111.1
395.477	80.38
395.686	43.52
395.895	64
396.105	45.57
396.314	131.58
396.524	90.62
396.733	82.43
396.942	100.86
397.152	74.24
397.361	117.25
397.57	66.05
397.78	72.19
397.989	111.1
398.198	195.07
398.407	86.53
398.617	100.86
398.826	82.43
399.035	131.58
399.244	162.3
399.453	72.19
399.663	156.16
399.872	8.7
400.081	100.86
400.29	100.86
400.499	119.29
400.708	78.33
400.917	78.33
401.127	109.05
401.336	51.71
401.545	123.39
401.754	123.39
401.963	107.01
402.172	127.49
402.381	100.86
402.59	133.63
402.799	119.29
403.008	160.25
403.217	98.81
403.426	25.09
403.635	31.23
403.844	104.96
404.053	197.12
404.262	143.87
404.471	156.16
404.68	166.4
404.888	164.35
405.097	119.29
405.306	164.35
405.515	107.01
405.724	156.16
405.933	109.05
406.142	94.72
406.35	213.5
406.559	135.68
406.768	193.02
406.977	201.21
407.185	182.78
407.394	188.93
407.603	135.68
407.812	125.44
408.02	184.83
408.229	217.6
408.438	219.64
408.646	143.87
408.855	274.94
409.064	256.51
409.272	231.93
409.481	250.36
409.69	233.98
409.898	246.27
410.107	272.89
410.315	262.65
410.524	242.17
410.733	311.8
410.941	322.04
411.15	317.95
411.358	340.47
411.567	297.47
411.775	424.44
411.984	340.47
412.192	432.63
412.401	360.95
412.609	352.76
412.818	463.35
413.026	539.13
413.234	457.21
413.443	444.92
413.651	442.87
413.86	487.93
414.068	612.85
414.276	543.22
414.485	608.76
414.693	547.32
414.901	575.99
415.11	606.71
415.318	528.89
415.526	604.66
415.734	643.57
415.943	662.01
416.151	735.73
416.359	619
416.567	633.33
416.776	762.36
416.984	926.19
417.192	817.65
417.4	756.21
417.608	922.1
417.817	928.24
418.025	887.28
418.233	1014.26
418.441	985.58
418.649	1044.98
418.857	1135.09
419.065	1110.51
419.273	1067.5
419.481	1104.37
419.689	1206.77
419.897	1217.01
420.105	1366.51
420.313	1374.7
420.521	1350.12
420.729	1448.43
420.937	1415.66
421.145	1466.86
421.353	1511.91
421.561	1630.7
421.769	1642.98
421.977	1843.68
422.185	1802.72
422.393	1763.81
422.601	1964.51
422.809	1997.28
423.017	1989.09
423.224	2179.55
423.432	2171.36
423.64	2050.53
423.848	2441.69
424.056	2259.42
424.263	2603.48
424.471	2435.55
424.679	2552.28
424.887	2632.15
425.094	2656.73
425.302	2806.23
425.51	2863.57
425.718	2914.77
425.925	2961.87
426.133	2943.44
426.341	3215.82
426.548	3328.46
426.756	3387.85
426.964	3406.28
427.171	3609.03
427.379	3613.13
427.586	3701.19
427.794	3817.93
428.001	3951.04
428.209	4264.38
428.417	3977.67
428.624	4432.32
428.832	4385.21
429.039	4415.93
429.247	4340.16
429.454	4854.2
429.662	5208.5
429.869	4835.77
430.076	5151.15
430.284	4944.31
430.491	5345.71
430.699	5589.42
430.906	5509.55
431.114	5710.25
431.321	5921.19
431.528	5896.61
431.736	6273.44
431.943	6490.52
432.15	6390.17
432.358	6365.6
432.565	6855.06
432.772	6834.58
432.979	7082.39
433.187	7252.37
433.394	7440.78
433.601	7686.54
433.808	7786.89
434.016	7844.23
434.223	8143.24
434.43	8679.8
434.637	8397.18
434.844	8966.52
435.052	9265.52
435.259	9181.56
435.466	9156.98
435.673	9089.4
435.88	9546.09
436.087	10021.22
436.294	10197.35
436.501	10088.81
436.708	10213.73
436.915	10635.61
437.122	10774.88
437.329	10899.8
437.537	11284.82
437.743	11450.71
437.95	11368.79
438.157	11940.17
438.364	12267.84
438.571	12394.82
438.778	12345.67
438.985	13324.6
439.192	12824.89
439.399	13539.63
439.606	13113.66
439.813	13842.73
440.02	14876.96
440.227	14688.54
440.433	14481.7
440.64	14813.47
440.847	14842.14
441.054	15155.48
441.261	16179.47
441.467	15712.53
441.674	16380.17
441.881	16974.08
442.088	16593.15
442.294	16767.23
442.501	17131.77
442.708	17305.85
442.914	17918.19
443.121	18974.94
443.328	18508.01
443.534	19423.45
443.741	18895.07
443.948	18835.68
444.154	20285.64
444.361	20117.71
444.568	20185.29
444.774	20469.96
444.981	20541.64
445.187	20938.94
445.394	21964.98
445.6	21561.53
445.807	23720.09
446.013	22620.33
446.22	23120.03
446.426	23998.61
446.633	24203.41
446.839	24989.83
447.046	24035.47
447.252	25442.43
447.459	25360.51
447.665	25409.66
447.871	26534
448.078	27287.65
448.284	26040.43
448.491	26663.02
448.697	28045.4
448.903	28115.03
449.11	28526.67
449.316	27914.33
449.522	28395.6
449.728	29132.87
449.935	29452.35
450.141	29171.78
450.347	30074.93
450.553	28885.06
450.76	29610.04
450.966	30236.72
451.172	29868.09
451.378	30949.42
451.584	30177.33
451.791	31105.06
451.997	30509.1
452.203	31109.16
452.409	31565.85
452.615	30924.84
452.821	29888.57
453.027	29659.2
453.233	31242.28
453.44	29687.87
453.646	30144.56
453.852	30107.7
454.058	30840.87
454.264	29833.27
454.47	30281.78
454.676	29530.17
454.882	30900.26
455.088	28110.93
455.294	28371.02
455.5	28960.84
455.705	28862.54
455.911	27967.57
456.117	27504.73
456.323	26880.1
456.529	25723
456.735	26521.71
456.941	25979
457.147	25464.96
457.352	24651.91
457.558	24307.85
457.764	24582.28
457.97	23994.51
458.176	23367.84
458.381	23232.67
458.587	22214.83
458.793	22452.39
458.999	20900.03
459.204	23007.39
459.41	22141.1
459.616	20740.29
459.821	20601.03
460.027	20574.41
460.233	20273.35
460.438	19028.19
460.644	19497.17
460.85	18530.53
461.055	18491.62
461.261	18329.83
461.466	17017.08
461.672	16511.24
461.878	17690.87
462.083	16433.41
462.289	15907.09
462.494	15997.2
462.7	15257.88
462.905	14909.72
463.111	15735.06
463.316	15376.66
463.522	15055.13
463.727	14969.12
463.932	15061.27
464.138	14997.79
464.343	14807.33
464.549	14518.56
464.754	14999.84
464.959	14911.77
465.165	14874.91
465.37	14211.37
465.575	13814.06
465.781	14559.52
465.986	14590.24
466.191	14092.58
466.397	13775.15
466.602	13050.17
466.807	13545.78
467.012	13429.04
467.218	13404.47
467.423	13392.18
467.628	13496.63
467.833	13910.32
468.038	13330.74
468.244	13037.88
468.449	13521.2
468.654	13156.66
468.859	13041.98
469.064	12865.85
469.269	12509.51
469.474	12620.1
469.679	12785.98
469.885	12583.23
470.09	12593.47
470.295	12572.99
470.5	12269.89
470.705	12099.91
470.91	11983.18
471.115	11800.91
471.32	12017.99
471.525	12116.3
471.73	11577.68
471.935	11606.35
472.139	11264.34
472.344	11389.27
472.549	11325.78
472.754	11192.66
472.959	10963.29
473.164	10629.47
473.369	10516.83
473.574	10895.71
473.778	10856.79
473.983	10811.74
474.188	10850.65
474.393	10172.77
474.598	10508.64
474.802	10219.88
475.007	10094.95
475.212	10191.2
475.417	9873.77
475.621	9894.25
475.826	9875.82
476.031	9671.02
476.235	9501.04
476.44	9722.22
476.645	9435.5
476.849	9355.63
477.054	9314.67
477.259	9365.87
477.463	9193.84
477.668	9062.77
477.872	9150.84
478.077	8776.06
478.282	8851.83
478.486	8626.56
478.691	8501.63
478.895	8558.97
479.1	8442.24
479.304	8626.56
479.509	8493.44
479.713	8487.29
479.918	8323.46
480.122	8202.63
480.326	8477.05
480.531	8407.42
480.735	8141.19
480.94	8124.8
481.144	8397.18
481.348	8044.93
481.553	7942.53
481.757	8044.93
481.961	8128.9
482.166	8368.51
482.37	8143.24
482.574	8020.36
482.778	8073.6
482.983	7987.59
483.187	8026.5
483.391	8028.55
483.595	8210.82
483.8	7723.4
484.004	8026.5
484.208	7965.06
484.412	7920.01
484.616	7965.06
484.821	7805.32
485.025	7907.72
485.229	8003.97
485.433	8001.93
485.637	7954.82
485.841	7870.86
486.045	7811.46
486.249	7997.83
486.453	7952.77
486.657	8151.43
486.861	8022.41
487.065	7917.96
487.269	7950.73
487.473	7883.14
487.677	7983.49
487.881	8106.37
488.085	8118.66
488.289	7917.96
488.493	8130.95
488.697	8042.89
488.901	8223.11
489.105	7969.16
489.309	8114.56
489.512	8233.35
489.716	8221.06
489.92	8247.68
490.124	8061.32
490.328	8354.18
490.531	8155.52
490.735	8155.52
490.939	8319.36
491.143	8165.76
491.346	8227.2
491.55	8409.47
491.754	8362.37
491.958	8413.57
492.161	8415.62
492.365	8477.05
492.569	8305.03
492.772	8571.26
492.976	8567.17
493.18	8671.61
493.383	8708.48
493.587	8722.81
493.79	8868.22
493.994	8665.47
494.197	8868.22
494.401	8987
494.605	9058.68
494.808	9130.36
495.012	9226.61
495.215	9122.16
495.419	9263.47
495.622	9214.32
495.825	9281.91
496.029	9300.34
496.232	9607.53
496.436	9423.22
496.639	9656.68
496.843	9578.86
497.046	9945.45
497.249	10176.87
497.453	10088.81
497.656	10156.39
497.859	10025.32
498.063	10387.81
498.266	10539.36
498.469	10522.98
498.673	10473.82
498.876	10707.29
499.079	10826.07
499.282	10766.68
499.485	11348.31
499.689	11303.25
499.892	11211.09
500.095	11462.99
500.298	11819.34
500.501	11589.97
500.705	11917.64
500.908	11954.51
501.111	12280.13
501.314	12276.04
501.517	12075.34
501.72	12347.72
501.923	12448.07
502.126	12863.8
502.329	12822.84
502.532	13080.89
502.735	13115.7
502.938	13359.41
503.141	13330.74
503.344	13646.13
503.547	13685.04
503.75	13973.8
503.953	14051.63
504.156	14166.31
504.359	14297.38
504.562	14219.56
504.765	14778.65
504.968	15003.93
505.17	15036.7
505.373	15114.52
505.576	15368.47
505.779	15288.6
505.982	15612.18
506.185	16032.01
506.387	15950.09
506.59	16216.33
506.793	16412.93
506.996	16316.68
507.198	16886.01
507.401	16767.23
507.604	17023.23
507.807	17428.73
508.009	17389.81
508.212	17522.93
508.415	17567.99
508.617	18055.4
508.82	18137.32
509.022	18180.33
509.225	18567.4
509.428	18438.37
509.63	18596.07
509.833	18874.59
510.035	19046.62
510.238	19284.19
510.44	19357.91
510.643	19833.04
510.845	20043.98
511.048	19925.2
511.25	20281.55
511.453	20076.75
511.655	21186.75
511.858	20940.99
512.06	21248.19
512.262	21332.15
512.465	21401.79
512.667	21815.48
512.87	22048.94
513.072	22085.81
513.274	22622.37
513.477	22755.49
513.679	22892.71
513.881	22909.09
514.084	23234.72
514.286	23255.2
514.488	23761.05
514.69	24062.1
514.893	24426.64
515.095	23953.55
515.297	24696.97
515.499	24432.78
515.701	25002.11
515.904	25268.35
516.106	25401.47
516.308	25696.38
516.51	25720.95
516.712	26065.01
516.914	26138.74
517.116	27007.08
517.318	26566.76
517.52	27154.53
517.722	27080.8
517.925	27633.75
518.127	27818.07
518.329	27863.13
518.531	28092.5
518.733	28483.66
518.935	28565.58
519.136	28913.73
519.338	29022.28
519.54	29175.87
519.742	29798.46
519.944	29685.82
520.146	30455.86
520.348	30306.35
520.55	30869.54
520.752	30892.07
520.954	31279.14
521.155	31090.73
521.357	31703.07
521.559	31987.74
521.761	32583.69
521.963	32413.71
522.164	32653.33
522.366	32563.22
522.568	32843.79
522.77	33202.18
522.971	33822.72
523.173	33341.44
523.375	33777.66
523.576	33937.4
523.778	34007.03
523.98	34707.44
524.181	34185.21
524.383	34340.85
524.584	35147.75
524.786	34916.33
524.988	35221.48
525.189	35788.77
525.391	35432.42
525.592	35813.34
525.794	36257.75
525.995	36116.44
526.197	36108.25
526.398	36458.45
526.6	36540.37
526.801	36878.29
527.003	37531.59
527.204	37160.9
527.406	37267.4
527.607	37517.25
527.808	38037.44
528.01	37072.84
528.211	37691.33
528.412	37748.67
528.614	38049.72
528.815	37892.03
529.016	38586.29
529.218	38266.81
529.419	37742.53
529.62	38211.51
529.822	38313.91
530.023	38748.08
530.224	38574
530.425	38645.68
530.626	38490.04
530.828	38410.17
531.029	39397.29
531.23	38668.21
531.431	39077.8
531.632	39108.52
531.833	39602.08
532.035	39153.58
532.236	39385
532.437	39641
532.638	39311.27
532.839	39321.51
533.04	39731.11
533.241	39253.93
533.442	39509.93
533.643	39688.1
533.844	39767.97
534.045	39561.12
534.246	39346.09
534.447	40118.17
534.648	39700.39
534.849	39899.04
535.05	39698.34
535.251	39944.09
535.451	39430.05
535.652	40165.28
535.853	39907.23
536.054	40187.8
536.255	40165.28
536.456	39921.57
536.657	40103.84
536.857	40091.55
537.058	39845.79
537.259	39956.38
537.46	40167.32
537.66	39749.54
537.861	40234.91
538.062	40009.63
538.263	40517.53
538.463	39770.02
538.664	40095.64
538.865	40363.93
539.065	40546.2
539.266	40087.45
539.466	40060.83
539.667	39260.07
539.868	40429.46
540.068	40075.16
540.269	40245.15
540.469	40093.6
540.67	40077.21
540.87	39997.34
541.071	40372.12
541.271	40318.87
541.472	40017.82
541.672	39810.98
541.873	39798.69
542.073	39880.61
542.274	40341.4
542.474	40130.46
542.675	39917.47
542.875	40058.78
543.075	40019.87
543.276	39532.45
543.476	40359.83
543.676	39872.42
543.877	40499.09
544.077	40060.83
544.277	40271.77
544.478	39690.15
544.678	40523.67
544.878	39970.72
545.078	40404.89
545.279	40032.16
545.479	40343.45
545.679	39761.83
545.879	39825.31
546.079	39917.47
546.28	39688.1
546.48	39503.78
546.68	39872.42
546.88	39950.24
547.08	39868.32
547.28	39391.14
547.48	39608.23
547.68	39733.15
547.88	39462.82
548.081	40218.52
548.281	39888.8
548.481	39888.8
548.681	39845.79
548.881	40056.73
549.081	39952.29
549.28	39606.18
549.48	39927.71
549.68	39602.08
549.88	40294.3
550.08	39583.65
550.28	39864.22
550.48	39581.6
550.68	39946.14
550.88	39886.75
551.08	39905.18
551.279	40044.44
551.479	39743.39
551.679	39595.94
551.879	39487.4
552.079	40200.09
552.278	39679.91
552.478	39731.11
552.678	39425.96
552.878	39389.09
553.077	39624.61
553.277	39354.28
553.477	40032.16
553.676	39434.15
553.876	39702.43
554.076	39385
554.275	39278.5
554.475	39200.68
554.674	39610.28
554.874	39268.26
555.074	39380.9
555.273	39395.24
555.473	39471.01
555.672	38950.83
555.872	39212.97
556.071	39241.64
556.271	39315.37
556.47	39298.98
556.67	38850.48
556.869	38879.15
557.068	39081.9
557.268	39135.15
557.467	38930.35
557.667	39073.71
557.866	38975.41
558.065	38637.49
558.265	38700.98
558.464	39016.36
558.663	38651.83
558.863	38258.62
559.062	39315.37
559.261	38326.2
559.461	38588.34
559.66	38176.7
559.859	38008.76
560.058	38127.55
560.258	38330.3
560.457	37932.99
560.656	38139.83
560.855	37832.64
561.054	38135.74
561.253	37795.78
561.453	37982.14
561.652	38057.92
561.851	38125.5
562.05	38115.26
562.249	37554.11
562.448	37900.22
562.647	37863.36
562.846	37246.92
563.045	37312.45
563.244	37408.71
563.443	37756.86
563.642	36866
563.841	37345.22
564.04	37076.94
564.239	37533.64
564.438	36730.83
564.637	37187.53
564.836	37052.36
565.035	36493.27
565.234	36964.3
565.432	36591.57
565.631	36507.6
565.83	36749.26
566.029	36493.27
566.228	36179.93
566.427	36136.92
566.625	36362.2
566.824	35993.56
567.023	35887.07
567.222	35327.97
567.42	35913.69
567.619	35649.5
567.818	35506.15
568.016	35321.83
568.215	35973.08
568.414	35823.58
568.612	35712.99
568.811	35520.48
569.01	35358.69
569.208	35096.55
569.407	35108.84
569.605	34543.6
569.804	34996.2
570.002	34713.58
570.201	34789.36
570.4	34539.5
570.598	34428.91
570.797	34027.51
570.995	34473.97
571.193	33902.59
571.392	34707.44
571.59	34220.02
571.789	34000.89
571.987	33867.77
572.186	33888.25
572.384	33566.72
572.582	34060.28
572.781	33622.01
572.979	33193.99
573.177	33634.3
573.376	33593.34
573.574	33449.99
573.772	33558.53
573.971	33128.45
574.169	32790.54
574.367	32798.73
574.565	33339.4
574.763	32630.8
574.962	32901.13
575.16	32532.5
575.358	32866.31
575.556	32565.26
575.754	32493.58
575.952	32114.71
576.151	32813.07
576.349	31926.3
576.547	32325.65
576.745	32028.7
576.943	32127
577.141	31782.94
577.339	31807.51
577.537	31483.94
577.735	31698.97
577.933	31658.01
578.131	31797.27
578.329	31170.6
578.527	31133.73
578.725	31154.21
578.923	31426.59
579.121	30844.97
579.319	31197.22
579.516	31184.93
579.714	31082.53
579.912	30615.6
580.11	30398.51
580.308	30834.73
580.506	30337.07
580.704	30236.72
580.901	30918.7
581.099	30920.74
581.297	30216.24
581.495	30214.19
581.692	30431.28
581.89	29796.41
582.088	30109.75
582.285	29904.95
582.483	30068.79
582.681	29962.29
582.878	29403.2
583.076	29263.94
583.274	29628.48
583.471	29204.55
583.669	29376.58
583.866	29161.54
584.064	29583.42
584.262	28866.63
584.459	29298.75
584.657	29278.27
584.854	29263.94
585.052	28790.86
585.249	28858.44
585.447	28588.11
585.644	28473.42
585.841	28741.71
586.039	28842.06
586.236	28242
586.434	28127.31
586.631	28037.2
586.828	28254.29
587.026	27949.14
587.223	28211.28
587.42	27598.94
587.618	27949.14
587.815	27535.45
588.012	27791.45
588.21	27588.7
588.407	27893.85
588.604	27502.68
588.801	27367.52
588.999	27371.61
589.196	27646.04
589.393	27261.02
589.59	27138.15
589.787	27291.74
589.984	26912.87
590.182	26683.5
590.379	26986.6
590.576	26558.57
590.773	26818.66
590.97	26585.19
591.167	26746.98
591.364	26159.22
591.561	26548.33
591.758	25858.17
591.955	26140.79
592.152	26589.29
592.349	26042.48
592.546	26507.37
592.743	26208.37
592.94	25763.96
593.137	26007.67
593.334	26052.72
593.531	25518.2
593.727	25847.93
593.924	25690.23
594.121	25311.36
594.318	25608.31
594.515	25235.58
594.712	25471.1
594.908	25247.87
595.105	25229.44
595.302	24901.76
595.499	25510.01
595.696	25286.78
595.892	24746.12
596.089	24742.02
596.286	24893.57
596.482	24696.97
596.679	24502.41
596.876	24633.48
597.072	24537.23
597.269	24613
597.466	24318.09
597.662	24221.84
597.859	23916.69
598.055	24240.27
598.252	24053.9
598.448	23869.59
598.645	24129.68
598.841	23552.15
599.038	24170.64
599.234	23658.65
599.431	23498.91
599.627	23476.38
599.824	23947.41
600.02	23378.08
600.217	23484.57
600.413	23640.22
600.609	23259.29
600.806	23236.77
601.002	23255.2
601.198	23208.09
601.395	23023.78
601.591	22767.78
601.787	22915.23
601.984	22728.87
602.18	22997.15
602.376	22571.18
602.572	22732.97
602.769	22593.7
602.965	22573.22
603.161	22550.7
603.357	22390.95
603.553	22245.55
603.75	22304.94
603.946	22016.18
604.142	22393
604.338	21981.36
604.534	22182.06
604.73	21805.24
604.926	21854.39
605.122	21938.35
605.318	21743.8
605.514	21539
605.71	21575.86
605.906	21688.5
606.102	21416.12
606.298	21354.68
606.494	21532.86
606.69	21498.04
606.886	21559.48
607.082	21479.61
607.278	21309.63
607.474	20922.56
607.67	21029.06
607.866	20814.02
608.062	21440.7
608.257	20740.29
608.453	20947.14
608.649	20891.84
608.845	20881.6
609.041	20875.46
609.236	20764.87
609.432	20547.78
609.628	20433.1
609.824	20682.95
610.019	20437.19
610.215	20226.25
610.411	20564.17
610.606	20304.07
610.802	20543.69
610.998	20228.3
611.193	20259.02
611.389	20160.72
611.584	20076.75
611.78	19919.06
611.976	20363.47
612.171	20457.67
612.367	20402.38
612.562	19734.74
612.758	19673.3
612.953	20035.79
613.149	20101.33
613.344	19904.72
613.539	19972.3
613.735	19720.4
613.93	19802.32
614.126	19579.09
614.321	19830.99
614.517	19663.06
614.712	19507.41
614.907	19529.94
615.103	19708.12
615.298	19531.99
615.493	19744.98
615.688	19419.35
615.884	19697.88
616.079	19091.68
616.274	19531.99
616.47	19347.67
616.665	19536.09
616.86	19411.16
617.055	19466.45
617.25	19142.88
617.445	19314.91
617.641	18745.57
617.836	18710.75
618.031	18708.71
618.226	19173.6
618.421	18698.47
618.616	19128.54
618.811	18594.02
619.006	18854.11
619.201	18565.35
619.396	18534.63
619.591	18215.15
619.786	18419.94
619.981	18168.04
620.176	18282.73
620.371	18233.58
620.566	18389.22
620.761	17883.38
620.956	18168.04
621.151	17750.26
621.346	18039.02
621.541	17881.33
621.735	17809.65
621.93	17518.84
622.125	17635.57
622.32	17205.5
622.515	17561.84
622.709	17092.86
622.904	17137.91
623.099	17025.28
623.294	17152.25
623.488	16701.7
623.683	16990.46
623.878	16521.48
624.072	16834.82
624.267	16711.94
624.462	16234.76
624.656	16427.27
624.851	16337.16
625.046	16257.29
625.24	16161.03
625.435	16316.68
625.629	16212.23
625.824	15767.82
626.018	16144.65
626.213	15591.7
626.407	15786.26
626.602	15440.15
626.796	15950.09
626.991	15554.83
627.185	15481.11
627.38	15186.2
627.574	15186.2
627.768	15110.43
627.963	15128.86
628.157	15182.1
628.352	14997.79
628.546	14879
628.74	14911.77
628.935	14838.05
629.129	14924.06
629.323	14520.61
629.517	14590.24
629.712	14274.85
629.906	14217.51
630.1	14123.3
630.294	14090.54
630.489	13902.12
630.683	14297.38
630.877	13881.64
631.071	13871.4
631.265	13777.2
631.459	13601.07
631.653	13824.3
631.848	13807.92
632.042	13484.34
632.236	13427
632.43	13363.51
632.624	13629.74
632.818	13060.41
633.012	13062.46
633.206	13183.29
633.4	12986.68
633.594	12759.36
633.788	12800.32
633.982	13003.07
634.176	13111.61
634.369	12730.69
634.563	12777.79
634.757	12390.72
634.951	12667.2
635.145	12437.83
635.339	12673.34
635.533	12568.9
635.726	12353.86
635.92	12386.63
636.114	12149.06
636.308	12067.14
636.501	11999.56
636.695	11895.11
636.889	12073.29
637.083	11876.68
637.276	11993.42
637.47	11393.36
637.664	11618.64
637.857	11665.74
638.051	11452.75
638.244	11352.4
638.438	11379.03
638.632	11546.96
638.825	11284.82
639.019	11456.85
639.212	11137.37
639.406	11211.09
639.599	11123.03
639.793	11012.44
639.986	10889.56
640.18	10926.43
640.373	10994.01
640.567	10826.07
640.76	10789.21
640.954	10596.7
641.147	10590.56
641.34	10645.85
641.534	10559.84
641.727	10541.41
641.92	10434.91
642.114	10527.07
642.307	10363.23
642.5	10344.8
642.694	10084.71
642.887	10043.75
643.08	10080.61
643.273	10035.56
643.467	9967.98
643.66	10082.66
643.853	9714.03
644.046	9785.71
644.239	9773.42
644.432	9896.3
644.626	9830.76
644.819	9587.05
645.012	9621.87
645.205	9701.74
645.398	9582.96
645.591	9587.05
645.784	9267.57
645.977	9320.82
646.17	9314.67
646.363	9275.76
646.556	9161.08
646.749	9226.61
646.942	9167.22
647.135	9120.12
647.328	9290.1
647.521	8933.75
647.714	8745.34
647.907	8849.78
648.099	8804.73
648.292	8911.22
648.485	8792.44
648.678	8663.42
648.871	8653.18
649.064	8581.5
649.256	8704.38
649.449	8644.99
649.642	8423.81
649.835	8345.98
650.027	8374.66
650.22	8413.57
650.413	8049.03
650.605	8343.94
650.798	8112.52
650.991	8118.66
651.183	8165.76
651.376	8014.21
651.568	8012.17
651.761	8083.84
651.954	7936.39
652.146	7881.1
652.339	7840.14
652.531	7950.73
652.724	7809.42
652.916	7731.59
653.109	7782.79
653.301	7782.79
653.494	7928.2
653.686	7610.76
653.879	7764.36
654.071	7426.45
654.263	7416.21
654.456	7491.98
654.648	7367.06
654.84	7211.41
655.033	7389.58
655.225	7326.1
655.417	7283.09
655.61	7166.35
655.802	7287.18
655.994	7307.66
656.186	7217.55
656.379	7221.65
656.571	6936.98
656.763	7147.92
656.955	7057.81
657.148	7012.76
657.34	6867.35
657.532	6728.09
657.724	6959.51
657.916	6658.46
658.108	6805.91
658.3	6797.72
658.492	6713.75
658.684	6689.18
658.876	6773.14
659.068	6504.86
659.26	6519.2
659.452	6707.61
659.644	6697.37
659.836	6420.89
660.028	6519.2
660.22	6371.74
660.412	6435.23
660.604	6293.92
660.796	6281.63
660.988	6330.78
661.18	6244.77
661.372	6152.61
661.563	6195.62
661.755	6068.64
661.947	6259.1
662.139	6101.41
662.331	6195.62
662.522	6070.69
662.714	5923.24
662.906	5939.62
663.097	5829.03
663.289	5951.91
663.481	5921.19
663.673	6070.69
663.864	5935.53
664.056	5859.75
664.247	5861.8
664.439	5603.75
664.631	5810.6
664.822	5816.74
665.014	5728.68
665.205	5822.89
665.397	5763.5
665.588	5542.32
665.78	5540.27
665.971	5446.06
666.163	5581.23
666.354	5448.11
666.546	5439.92
666.737	5462.44
666.929	5439.92
667.12	5468.59
667.311	5476.78
667.503	5360.05
667.694	5329.33
667.885	5314.99
668.077	5235.12
668.268	5226.93
668.459	5163.44
668.651	5247.41
668.842	5177.78
669.033	5282.22
669.224	5161.39
669.416	5130.67
669.607	5159.35
669.798	4968.88
669.989	5163.44
670.18	5112.24
670.371	4964.79
670.563	4983.22
670.754	5097.91
670.945	4874.68
671.136	5067.19
671.327	5089.71
671.518	4901.3
671.709	4899.25
671.9	4897.21
672.091	4858.29
672.282	4905.4
672.473	4747.7
672.664	4696.5
672.855	4766.14
673.046	4682.17
673.237	4635.07
673.428	4786.61
673.619	4655.54
673.809	4649.4
674	4532.67
674.191	4680.12
674.382	4532.67
674.573	4673.98
674.764	4532.67
674.954	4415.93
675.145	4557.24
675.336	4561.34
675.527	4526.52
675.717	4436.41
675.908	4305.34
676.099	4493.76
676.289	4334.01
676.48	4430.27
676.671	4532.67
676.861	4409.79
677.052	4379.07
677.243	4211.14
677.433	4215.23
677.624	4368.83
677.814	4346.3
678.005	4420.03
678.195	4248
678.386	4184.51
678.576	4178.37
678.767	4321.73
678.957	4217.28
679.148	4207.04
679.338	4254.14
679.529	4073.92
679.719	4268.48
679.909	4278.72
680.1	4211.14
680.29	4155.84
680.481	4161.98
680.671	4227.52
680.861	4086.21
681.052	4102.59
681.242	3998.15
681.432	4155.84
681.622	4153.79
681.813	4118.98
682.003	4065.73
682.193	4084.16
682.383	4145.6
682.573	4065.73
682.764	4086.21
682.954	3944.9
683.144	4071.87
683.334	4032.96
683.524	3989.96
683.714	3985.86
683.904	3979.72
684.094	3985.86
684.284	3951.04
684.474	3946.95
684.664	3903.94
684.854	3836.36
685.044	3981.76
685.234	3955.14
685.424	3908.04
685.614	3846.6
685.804	3795.4
685.994	3854.79
686.184	3871.17
686.374	3967.43
686.564	3819.97
686.753	3774.92
686.943	3584.46
687.133	3822.02
687.323	3664.33
687.513	3815.88
687.702	3758.53
687.892	3645.9
688.082	3744.2
688.272	3684.81
688.461	3723.72
688.651	3641.8
688.841	3688.9
689.03	3619.27
689.22	3490.25
689.41	3510.73
689.599	3463.63
689.789	3606.98
689.979	3559.88
690.168	3580.36
690.358	3578.31
690.547	3477.96
690.737	3559.88
690.926	3510.73
691.116	3447.24
691.305	3523.02
691.495	3525.07
691.684	3361.23
691.874	3477.96
692.063	3414.48
692.252	3254.73
692.442	3371.47
692.631	3287.5
692.82	3338.7
693.01	3217.87
693.199	3248.59
693.388	3262.93
693.578	3191.25
693.767	3185.1
693.956	3252.69
694.146	3320.27
694.335	3256.78
694.524	3269.07
694.713	3191.25
694.902	3299.79
695.092	3219.92
695.281	3131.86
695.47	3142.1
695.659	3144.14
695.848	3178.96
696.037	3252.69
696.226	3035.6
696.415	3029.46
696.604	3127.76
696.793	3166.67
696.982	3084.75
697.171	3240.4
697.36	3092.94
697.549	3164.62
697.738	3056.08
697.927	3125.71
698.116	3193.3
698.305	3054.03
698.494	3170.77
698.683	2957.78
698.872	3256.78
699.061	3031.51
699.25	3043.79
699.438	2978.26
699.627	3146.19
699.816	3150.29
700.005	3111.38
700.193	3045.84
700.382	3056.08
700.571	2994.64
700.76	3056.08
700.948	3166.67
701.137	3074.51
701.326	3092.94
701.514	2951.63
701.703	3086.8
701.892	3023.31
702.08	3082.7
702.269	3058.13
702.457	3084.75
702.646	3004.88
702.834	3039.7
703.023	3043.79
703.212	2982.35
703.4	3062.23
703.589	2998.74
703.777	3000.79
703.965	2998.74
704.154	2929.11
704.342	2939.35
704.531	2947.54
704.719	2953.68
704.907	3039.7
705.096	3113.42
705.284	2945.49
705.472	3029.46
705.661	3002.83
705.849	2998.74
706.037	3013.07
706.226	2972.11
706.414	3076.56
706.602	2941.4
706.79	2994.64
706.979	2912.72
707.167	3037.65
707.355	2996.69
707.543	2988.5
707.731	3074.51
707.919	2941.4
708.107	2806.23
708.296	2879.96
708.484	2847.19
708.672	2884.05
708.86	2976.21
709.048	2855.38
709.236	2920.92
709.424	2900.44
709.612	2816.47
709.8	2857.43
709.988	2902.48
710.176	2933.2
710.364	2896.34
710.551	2935.25
710.739	2853.33
710.927	2890.2
711.115	2929.11
711.303	2867.67
711.491	2984.4
711.679	2927.06
711.866	2896.34
712.054	2974.16
712.242	2949.59
712.43	2980.31
712.617	2957.78
712.805	2783.7
712.993	2869.72
713.181	2814.42
713.368	2843.09
713.556	2853.33
713.744	2912.72
713.931	2931.16
714.119	2886.1
714.306	2851.28
714.494	2867.67
714.682	2869.72
714.869	2855.38
715.057	2804.18
715.244	2798.04
715.432	2927.06
715.619	2869.72
715.807	2791.89
715.994	2785.75
716.182	2740.69
716.369	2769.37
716.556	2765.27
716.744	2894.29
716.931	2775.51
717.119	2783.7
717.306	2793.94
717.493	2804.18
717.681	2771.41
717.868	2812.37
718.055	2779.61
718.242	2859.48
718.43	2804.18
718.617	2818.52
718.804	2791.89
718.991	2687.45
719.179	2730.45
719.366	2798.04
719.553	2834.9
719.74	2746.84
719.927	2744.79
720.114	2666.97
720.301	2656.73
720.488	2707.93
720.676	2701.78
720.863	2793.94
721.05	2890.2
721.237	2812.37
721.424	2746.84
721.611	2816.47
721.798	2775.51
721.985	2519.51
722.172	2650.58
722.358	2671.06
722.545	2746.84
722.732	2752.98
722.919	2671.06
723.106	2638.3
723.293	2707.93
723.48	2669.02
723.667	2677.21
723.853	2763.22
724.04	2699.73
724.227	2734.55
724.414	2707.93
724.6	2732.5
724.787	2699.73
724.974	2617.82
725.161	2771.41
725.347	2605.53
725.534	2632.15
725.72	2791.89
725.907	2695.64
726.094	2638.3
726.28	2585.05
726.467	2671.06
726.653	2609.62
726.84	2679.26
727.027	2701.78
727.213	2554.33
727.4	2691.54
727.586	2595.29
727.773	2587.1
727.959	2638.3
728.145	2566.62
728.332	2535.9
728.518	2636.25
728.705	2712.02
728.891	2603.48
729.077	2621.91
729.264	2531.8
729.45	2632.15
729.636	2679.26
729.823	2664.92
730.009	2611.67
730.195	2669.02
730.382	2666.97
730.568	2580.95
730.754	2542.04
730.94	2689.49
731.126	2613.72
731.313	2578.9
731.499	2621.91
731.685	2630.1
731.871	2623.96
732.057	2646.49
732.243	2654.68
732.429	2619.86
732.615	2531.8
732.801	2685.4
732.987	2515.42
733.173	2492.89
733.359	2734.55
733.545	2537.95
733.731	2570.71
733.917	2548.19
734.103	2599.38
734.289	2572.76
734.475	2413.02
734.661	2566.62
734.847	2644.44
735.033	2519.51
735.219	2650.58
735.404	2591.19
735.59	2603.48
735.776	2511.32
735.962	2447.83
736.148	2519.51
736.333	2560.47
736.519	2597.34
736.705	2552.28
736.89	2654.68
737.076	2593.24
737.262	2394.59
737.447	2550.23
737.633	2531.8
737.819	2609.62
738.004	2587.1
738.19	2548.19
738.375	2578.9
738.561	2601.43
738.747	2499.03
738.932	2546.14
739.118	2499.03
739.303	2478.55
739.489	2445.79
739.674	2464.22
739.859	2451.93
740.045	2509.27
740.23	2380.25
740.416	2382.3
740.601	2460.12
740.786	2413.02
740.972	2517.47
741.157	2392.54
741.342	2341.34
741.528	2404.83
741.713	2329.05
741.898	2468.31
742.084	2351.58
742.269	2394.59
742.454	2306.52
742.639	2331.1
742.824	2396.64
743.01	2288.09
743.195	2290.14
743.38	2302.43
743.565	2284
743.75	2349.53
743.935	2292.19
744.12	2380.25
744.305	2154.98
744.49	2302.43
744.675	2214.37
744.86	2183.65
745.045	2140.64
745.23	2161.12
745.415	2193.89
745.6	2091.49
745.785	2132.45
745.97	2157.02
746.155	2068.96
746.34	2030.05
746.525	2068.96
746.71	2087.39
746.895	2028
747.079	2116.06
747.264	2134.5
747.449	2068.96
747.634	1972.71
747.819	2068.96
748.003	2023.91
748.188	1929.7
748.373	2101.73
748.557	2050.53
748.742	1954.27
748.927	2019.81
749.111	1894.88
749.296	1909.22
749.481	2032.1
749.665	1946.08
749.85	1933.79
750.034	1847.78
750.219	1833.44
750.404	1778.15
750.588	1866.21
750.773	1839.59
750.957	1706.47
751.141	1817.06
751.326	1802.72
751.51	1714.66
751.695	1790.44
751.879	1817.06
752.064	1872.36
752.248	1753.57
752.432	1767.91
752.617	1751.53
752.801	1712.61
752.985	1698.28
753.17	1778.15
753.354	1642.98
753.538	1681.89
753.722	1677.8
753.907	1589.74
754.091	1604.07
754.275	1575.4
754.459	1649.13
754.643	1575.4
754.828	1663.46
755.012	1544.68
755.196	1604.07
755.38	1589.74
755.564	1561.06
755.748	1571.3
755.932	1620.46
756.116	1532.39
756.3	1546.73
756.484	1511.91
756.668	1473
756.852	1415.66
757.036	1489.39
757.22	1399.27
757.404	1389.03
757.588	1481.19
757.772	1456.62
757.956	1444.33
758.14	1489.39
758.323	1450.47
758.507	1436.14
758.691	1438.19
758.875	1366.51
759.059	1354.22
759.242	1391.08
759.426	1311.21
759.61	1325.55
759.794	1300.97
759.977	1303.02
760.161	1409.51
760.345	1407.47
760.528	1323.5
760.712	1278.44
760.895	1311.21
761.079	1311.21
761.263	1321.45
761.446	1241.58
761.63	1339.88
761.813	1307.12
761.997	1196.53
762.18	1229.29
762.364	1245.68
762.547	1229.29
762.731	1249.77
762.914	1202.67
763.098	1237.49
763.281	1176.05
763.464	1219.05
763.648	1104.37
763.831	1188.33
764.015	1130.99
764.198	1188.33
764.381	1204.72
764.564	1198.57
764.748	1190.38
764.931	1163.76
765.114	1114.61
765.297	1225.2
765.481	1174
765.664	1167.85
765.847	1143.28
766.03	1260.01
766.213	1083.89
766.397	1083.89
766.58	1020.4
766.763	1122.8
766.946	1130.99
767.129	1090.03
767.312	1151.47
767.495	1055.22
767.678	1128.94
767.861	1022.45
768.044	1188.33
768.227	1130.99
768.41	1016.3
768.593	1057.26
768.776	1094.13
768.959	1102.32
769.142	1096.18
769.324	987.63
769.507	1026.54
769.69	1036.78
769.873	1014.26
770.056	1087.98
770.239	1008.11
770.421	963.06
770.604	954.87
770.787	963.06
770.97	1077.74
771.152	1030.64
771.335	903.67
771.518	1004.02
771.7	948.72
771.883	918
772.066	975.35
772.248	926.19
772.431	936.43
772.613	981.49
772.796	971.25
772.978	987.63
773.161	881.14
773.343	821.75
773.526	868.85
773.708	885.23
773.891	899.57
774.073	881.14
774.256	819.7
774.438	877.04
774.621	889.33
774.803	877.04
774.985	870.9
775.168	840.18
775.35	823.8
775.532	807.41
775.715	831.99
775.897	860.66
776.079	793.08
776.261	840.18
776.444	774.64
776.626	774.64
776.808	813.56
776.99	762.36
777.173	887.28
777.355	860.66
777.537	735.73
777.719	711.16
777.901	719.35
778.083	786.93
778.265	680.44
778.447	739.83
778.629	731.64
778.811	748.02
778.993	711.16
779.175	829.94
779.357	745.97
779.539	670.2
779.721	649.72
779.903	719.35
780.085	715.25
780.267	680.44
780.449	707.06
780.631	672.25
780.812	672.25
780.994	692.73
781.176	680.44
781.358	584.18
781.54	651.77
781.721	676.34
781.903	651.77
782.085	575.99
782.267	651.77
782.448	635.38
782.63	578.04
782.812	688.63
782.993	635.38
783.175	592.37
783.357	510.46
783.538	535.03
783.72	649.72
783.901	584.18
784.083	594.42
784.264	516.6
784.446	592.37
784.627	508.41
784.809	520.7
784.99	637.43
785.172	592.37
785.353	584.18
785.535	520.7
785.716	541.18
785.897	502.26
786.079	537.08
786.26	539.13
786.441	487.93
786.623	481.78
786.804	514.55
786.985	553.46
787.167	492.02
787.348	422.39
787.529	532.98
787.71	489.98
787.891	520.7
788.073	403.96
788.254	526.84
788.435	438.78
788.616	483.83
788.797	453.11
788.978	457.21
789.159	481.78
789.34	508.41
789.522	494.07
789.703	457.21
789.884	387.58
790.065	489.98
790.246	387.58
790.427	420.35
790.607	532.98
790.788	430.59
790.969	440.83
791.15	504.31
791.331	418.3
791.512	414.2
791.693	430.59
791.874	381.43
792.054	498.17
792.235	406.01
792.416	395.77
792.597	383.48
792.778	408.06
792.958	328.19
793.139	395.77
793.32	403.96
793.5	399.87
793.681	385.53
793.862	371.19
794.042	338.43
794.223	403.96
794.404	391.67
794.584	393.72
794.765	348.67
794.945	322.04
795.126	467.45
795.306	330.23
795.487	309.76
795.667	303.61
795.848	377.34
796.028	387.58
796.209	365.05
796.389	324.09
796.57	352.76
796.75	285.18
796.93	332.28
797.111	307.71
797.291	324.09
797.471	340.47
797.652	303.61
797.832	379.39
798.012	352.76
798.192	332.28
798.373	246.27
798.553	311.8
798.733	268.8
798.913	309.76
799.093	254.46
799.274	291.32
799.454	303.61
799.634	322.04
799.814	406.01
799.994	348.67
800.174	315.9
800.354	219.64
800.534	289.28
800.714	270.84
800.894	244.22
801.074	225.79
801.254	317.95
801.434	365.05
801.614	276.99
801.794	264.7
801.974	571.9
802.154	262.65
802.334	287.23
802.514	287.23
802.693	293.37
802.873	248.32
803.053	326.14
803.233	240.12
803.413	240.12
803.592	291.32
803.772	274.94
803.952	279.04
804.131	215.55
804.311	258.56
804.491	279.04
804.67	233.98
804.85	252.41
805.03	317.95
805.209	219.64
805.389	330.23
805.568	322.04
805.748	201.21
805.928	301.56
806.107	266.75
806.287	287.23
806.466	307.71
806.646	268.8
806.825	258.56
807.004	272.89
807.184	190.97
807.363	219.64
807.543	285.18
807.722	240.12
807.901	211.45
808.081	203.26
808.26	213.5
808.439	248.32
808.619	236.03
808.798	211.45
808.977	184.83
809.156	303.61
809.336	264.7
809.515	170.49
809.694	162.3
809.873	244.22
810.052	262.65
810.231	262.65
810.411	213.5
810.59	250.36
810.769	246.27
810.948	227.84
811.127	166.4
811.306	209.4
811.485	182.78
811.664	250.36
811.843	182.78
812.022	197.12
812.201	213.5
812.38	209.4
812.559	172.54
812.737	205.31
812.916	193.02
813.095	250.36
813.274	152.06
813.453	156.16
813.632	131.58
813.811	205.31
813.989	203.26
814.168	195.07
814.347	113.15
814.526	188.93
814.704	193.02
814.883	225.79
815.062	145.92
815.24	205.31
815.419	215.55
815.598	104.96
815.776	123.39
815.955	178.69
816.133	131.58
816.312	229.88
816.49	160.25
816.669	98.81
816.847	164.35
817.026	123.39
817.204	193.02
817.383	197.12
817.561	131.58
817.74	129.53
817.918	158.21
818.097	186.88
818.275	160.25
818.453	152.06
818.632	160.25
818.81	203.26
818.988	160.25
819.167	186.88
819.345	170.49
819.523	150.01
819.701	176.64
819.879	209.4
820.058	143.87
820.236	152.06
820.414	164.35
820.592	184.83
820.77	209.4
820.948	145.92
821.127	59.9
821.305	186.88
821.483	123.39
821.661	154.11
821.839	139.77
822.017	127.49
822.195	127.49
822.373	131.58
822.551	154.11
822.729	180.73
822.907	86.53
823.085	70.14
823.262	199.16
823.44	102.91
823.618	102.91
823.796	94.72
823.974	139.77
824.152	137.73
824.329	176.64
824.507	84.48
824.685	82.43
824.863	84.48
825.04	162.3
825.218	115.2
825.396	92.67
825.574	135.68
825.751	168.45
825.929	129.53
826.107	37.38
826.284	154.11
826.462	102.91
826.639	107.01
826.817	131.58
826.994	78.33
827.172	90.62
827.349	125.44
827.527	107.01
827.704	203.26
827.882	158.21
828.059	102.91
828.237	98.81
828.414	43.52
828.591	125.44
828.769	98.81
828.946	102.91
829.124	102.91
829.301	98.81
829.478	160.25
829.655	104.96
829.833	152.06
830.01	61.95
830.187	143.87
830.364	94.72
830.542	131.58
830.719	61.95
830.896	57.86
831.073	166.4
831.25	158.21
831.427	68.09
831.604	162.3
831.782	94.72
831.959	86.53
832.136	117.25
832.313	133.63
832.49	141.82
832.667	133.63
832.844	51.71
833.021	102.91
833.198	78.33
833.374	59.9
833.551	80.38
833.728	86.53
833.905	117.25
834.082	80.38
834.259	113.15
834.436	66.05
834.612	121.34
834.789	137.73
834.966	82.43
835.143	80.38
835.319	14.85
835.496	199.16
835.673	113.15
835.85	23.04
836.026	127.49
836.203	113.15
836.38	137.73
836.556	131.58
836.733	61.95
836.909	98.81
837.086	92.67
837.262	37.38
837.439	39.42
837.616	109.05
837.792	84.48
837.968	55.81
838.145	33.28
838.321	117.25
838.498	16.9
838.674	94.72
838.851	66.05
839.027	-9.73
839.203	2.56
839.38	119.29
839.556	72.19
839.732	68.09
839.909	90.62
840.085	82.43
840.261	84.48
840.437	29.18
840.614	76.29
840.79	98.81
840.966	129.53
841.142	100.86
841.318	66.05
841.494	125.44
841.671	111.1
841.847	127.49
842.023	145.92
842.199	82.43
842.375	98.81
842.551	8.7
842.727	90.62
842.903	135.68
843.079	47.62
843.255	70.14
843.431	47.62
843.607	43.52
843.783	96.77
843.959	61.95
844.134	80.38
844.31	45.57
844.486	127.49
844.662	25.09
844.838	113.15
845.013	61.95
845.189	88.57
845.365	64
845.541	2.56
845.716	6.66
845.892	113.15
846.068	68.09
846.244	57.86
846.419	43.52
846.595	-30.21
846.77	98.81
846.946	84.48
847.122	72.19
847.297	127.49
847.473	76.29
847.648	49.66
847.824	98.81
847.999	0.51
848.175	47.62
848.35	139.77
848.526	113.15
848.701	70.14
848.876	55.81
849.052	43.52
849.227	64
849.403	70.14
849.578	47.62
849.753	27.14
849.929	127.49
850.104	104.96
850.279	61.95
850.454	57.86
850.63	70.14
850.805	84.48
850.98	39.42
851.155	70.14
851.33	150.01
851.505	70.14
851.681	20.99
851.856	4.61
852.031	43.52
852.206	68.09
852.381	-58.88
852.556	33.28
852.731	125.44
852.906	123.39
853.081	78.33
853.256	8.7
853.431	90.62
853.606	33.28
853.781	25.09
853.956	4.61
854.131	23.04
854.305	45.57
854.48	107.01
854.655	4.61
854.83	59.9
855.005	20.99
855.18	143.87
855.354	-22.02
855.529	68.09
855.704	57.86
855.879	37.38
856.053	59.9
856.228	51.71
856.403	78.33
856.577	35.33
856.752	6.66
856.926	90.62
857.101	29.18
857.276	88.57
857.45	94.72
857.625	-15.87
857.799	100.86
857.974	20.99
858.148	23.04
858.323	74.24
858.497	59.9
858.672	16.9
858.846	74.24
859.02	16.9
859.195	70.14
859.369	39.42
859.543	98.81
859.718	94.72
859.892	-36.35
860.066	61.95
860.241	18.94
860.415	82.43
860.589	35.33
860.763	-60.93
860.938	45.57
861.112	51.71
861.286	41.47
861.46	88.57
861.634	23.04
861.808	70.14
861.982	86.53
862.157	33.28
862.331	-87.55
862.505	66.05
862.679	-28.16
862.853	47.62
863.027	-13.82
863.201	37.38
863.375	-9.73
863.549	61.95
863.722	12.8
863.896	68.09
864.07	41.47
864.244	12.8
864.418	4.61
864.592	23.04
864.766	-15.87
864.939	98.81
865.113	4.61
865.287	39.42
865.461	39.42
865.634	82.43
865.808	107.01
865.982	8.7
866.156	2.56
866.329	0.51
866.503	12.8
866.676	94.72
866.85	-1.54
867.024	35.33
867.197	84.48
867.371	57.86
867.544	23.04
867.718	-13.82
867.891	0.51
868.065	-24.06
868.238	59.9
868.412	29.18
868.585	25.09
868.759	35.33
868.932	-7.68
869.105	-1.54
869.279	57.86
869.452	27.14
869.625	2.56
869.799	-36.35
869.972	4.61
870.145	-5.63
870.319	25.09
870.492	14.85
870.665	2.56
870.838	64
871.011	-5.63
871.185	57.86
871.358	-9.73
871.531	-1.54
871.704	51.71
871.877	86.53
872.05	0.51
872.223	-5.63
872.396	45.57
872.569	55.81
872.742	57.86
872.915	8.7
873.088	49.66
873.261	41.47
873.434	43.52
873.607	4.61
873.78	137.73
873.953	8.7
874.126	74.24
874.299	55.81
874.471	35.33
874.644	74.24
874.817	-50.69
874.99	0.51
875.163	-38.4
875.335	53.76
875.508	-3.58
875.681	-30.21
875.853	-7.68
876.026	70.14
876.199	10.75
876.371	61.95
876.544	86.53
876.717	39.42
876.889	35.33
877.062	59.9
877.234	49.66
877.407	25.09
877.579	37.38
877.752	88.57
877.924	20.99
878.097	35.33
878.269	33.28
878.442	59.9
878.614	16.9
878.786	33.28
878.959	41.47
879.131	39.42
879.303	16.9
879.476	72.19
879.648	12.8
879.82	16.9
879.993	16.9
880.165	31.23
880.337	18.94
880.509	31.23
880.681	27.14
880.854	49.66
881.026	86.53
881.198	31.23
881.37	-3.58
881.542	80.38
881.714	18.94
881.886	27.14
882.058	6.66
882.23	45.57
882.402	12.8
882.574	-30.21
882.746	33.28
882.918	88.57
883.09	64
883.262	45.57
883.434	20.99
883.606	0.51
883.778	59.9
883.95	8.7
884.122	2.56
884.293	-5.63
884.465	16.9
884.637	39.42
884.809	25.09
884.98	-3.58
885.152	12.8
885.324	49.66
885.496	-13.82
885.667	70.14
885.839	-32.26
886.011	18.94
886.182	35.33
886.354	35.33
886.525	86.53
886.697	14.85
886.869	25.09
887.04	-36.35
887.212	35.33
887.383	72.19
887.555	37.38
887.726	-11.78
887.897	-3.58
888.069	14.85
888.24	-9.73
888.412	61.95
888.583	-13.82
888.754	6.66
888.926	-40.45
889.097	25.09
889.268	12.8
889.44	53.76
889.611	-40.45
889.782	-46.59
889.953	37.38
890.125	45.57
890.296	20.99
890.467	41.47
890.638	107.01
890.809	20.99
890.98	-40.45
891.151	35.33
891.323	107.01
891.494	70.14
891.665	4.61
891.836	51.71
892.007	-15.87
892.178	10.75
892.349	70.14
892.52	23.04
892.691	29.18
892.862	41.47
893.032	35.33
893.203	72.19
893.374	6.66
893.545	45.57
893.716	12.8
893.887	6.66
894.057	27.14
894.228	150.01
894.399	-19.97
894.57	66.05
894.74	-7.68
894.911	82.43
895.082	8.7
895.253	-44.54
895.423	-5.63
895.594	-7.68
895.764	-5.63
895.935	25.09
896.106	55.81
896.276	-15.87
896.447	4.61
896.617	-30.21
896.788	47.62
896.958	-3.58
897.129	29.18
897.299	6.66
897.47	76.29
897.64	49.66
897.81	55.81
897.981	37.38
898.151	16.9
898.322	10.75
898.492	0.51
898.662	-1.54
898.832	45.57
899.003	2.56
899.173	23.04
899.343	70.14
899.513	2.56
