Data from USB4F104151__28__11-05-09-592.txt Node

Date: Wed Mar 12 11:05:09 EDT 2025
User: louis
Spectrometer: USB4F10415
Trigger mode: 4
Integration Time (sec): 2.000000E-2
Scans to average: 1
Electric dark correction enabled: true
Nonlinearity correction enabled: false
Boxcar width: 0
XAxis mode: Wavelengths
Number of Pixels in Spectrum: 3648
>>>>>Begin Spectral Data<<<<<
178.204	-58.71
178.424	-58.71
178.644	-58.71
178.864	-64.85
179.084	-77.14
179.304	-5.46
179.524	6.83
179.744	15.02
179.964	55.98
180.184	-19.8
180.404	-3.41
180.624	-13.65
180.844	-46.42
181.064	-21.84
181.283	-7.51
181.503	55.98
181.723	-15.7
181.943	-13.65
182.163	-36.18
182.383	-32.08
182.602	10.92
182.822	10.92
183.042	-21.84
183.262	23.21
183.482	27.31
183.701	-44.37
183.921	-1.37
184.141	-44.37
184.361	55.98
184.58	43.69
184.8	-36.18
185.02	15.02
185.239	101.03
185.459	109.23
185.679	115.37
185.898	21.16
186.118	72.36
186.338	88.75
186.557	10.92
186.777	10.92
186.997	51.88
187.216	-19.8
187.436	55.98
187.655	64.17
187.875	27.31
188.095	51.88
188.314	23.21
188.534	84.65
188.753	76.46
188.973	12.97
189.192	66.22
189.412	-5.46
189.631	23.21
189.851	19.11
190.07	76.46
190.29	29.35
190.509	-13.65
190.729	2.73
190.948	62.12
191.168	80.55
191.387	8.87
191.607	17.07
191.826	12.97
192.045	-13.65
192.265	53.93
192.484	53.93
192.704	17.07
192.923	64.17
193.142	90.79
193.362	78.51
193.581	47.79
193.8	53.93
194.02	51.88
194.239	47.79
194.458	15.02
194.678	-42.32
194.897	-38.23
195.116	39.59
195.335	72.36
195.555	39.59
195.774	109.23
195.993	76.46
196.212	60.07
196.432	74.41
196.651	0.68
196.87	31.4
197.089	98.99
197.308	-30.04
197.528	21.16
197.747	12.97
197.966	74.41
198.185	37.55
198.404	15.02
198.623	31.4
198.842	74.41
199.062	-3.41
199.281	133.8
199.5	64.17
199.719	2.73
199.938	39.59
200.157	23.21
200.376	25.26
200.595	10.92
200.814	17.07
201.033	12.97
201.252	35.5
201.471	29.35
201.69	43.69
201.909	41.64
202.128	35.5
202.347	33.45
202.566	27.31
202.785	96.94
203.004	37.55
203.223	96.94
203.442	-5.46
203.661	53.93
203.879	6.83
204.098	35.5
204.317	27.31
204.536	58.03
204.755	78.51
204.974	117.42
205.193	39.59
205.411	84.65
205.63	86.7
205.849	88.75
206.068	64.17
206.287	-11.61
206.505	31.4
206.724	-32.08
206.943	51.88
207.162	2.73
207.381	-13.65
207.599	23.21
207.818	45.74
208.037	29.35
208.255	15.02
208.474	-32.08
208.693	74.41
208.911	-3.41
209.13	0.68
209.349	62.12
209.567	27.31
209.786	25.26
210.005	39.59
210.223	33.45
210.442	2.73
210.661	31.4
210.879	-30.04
211.098	43.69
211.316	74.41
211.535	62.12
211.753	39.59
211.972	33.45
212.191	2.73
212.409	27.31
212.628	6.83
212.846	113.32
213.065	-30.04
213.283	107.18
213.502	53.93
213.72	31.4
213.938	47.79
214.157	58.03
214.375	25.26
214.594	101.03
214.812	27.31
215.031	6.83
215.249	76.46
215.467	19.11
215.686	37.55
215.904	103.08
216.122	21.16
216.341	33.45
216.559	31.4
216.778	43.69
216.996	33.45
217.214	82.6
217.432	0.68
217.651	53.93
217.869	8.87
218.087	-34.13
218.306	64.17
218.524	90.79
218.742	68.27
218.96	84.65
219.179	84.65
219.397	58.03
219.615	68.27
219.833	49.83
220.051	33.45
220.27	92.84
220.488	39.59
220.706	94.89
220.924	4.78
221.142	-9.56
221.36	74.41
221.578	10.92
221.796	74.41
222.015	45.74
222.233	51.88
222.451	27.31
222.669	-21.84
222.887	-17.75
223.105	58.03
223.323	60.07
223.541	-19.8
223.759	2.73
223.977	86.7
224.195	90.79
224.413	105.13
224.631	47.79
224.849	31.4
225.067	90.79
225.285	-11.61
225.503	-3.41
225.721	4.78
225.939	88.75
226.157	25.26
226.375	170.66
226.592	17.07
226.81	72.36
227.028	123.56
227.246	55.98
227.464	45.74
227.682	23.21
227.9	45.74
228.117	29.35
228.335	-56.66
228.553	58.03
228.771	68.27
228.989	31.4
229.206	51.88
229.424	74.41
229.642	41.64
229.86	94.89
230.077	74.41
230.295	80.55
230.513	15.02
230.731	74.41
230.948	64.17
231.166	66.22
231.384	68.27
231.601	55.98
231.819	55.98
232.037	-9.56
232.254	41.64
232.472	19.11
232.689	19.11
232.907	107.18
233.125	78.51
233.342	8.87
233.56	12.97
233.777	2.73
233.995	25.26
234.213	101.03
234.43	113.32
234.648	47.79
234.865	74.41
235.083	45.74
235.3	0.68
235.518	62.12
235.735	62.12
235.953	111.27
236.17	35.5
236.388	19.11
236.605	58.03
236.822	49.83
237.04	51.88
237.257	51.88
237.475	27.31
237.692	41.64
237.909	55.98
238.127	-25.94
238.344	66.22
238.562	17.07
238.779	68.27
238.996	-11.61
239.214	43.69
239.431	8.87
239.648	41.64
239.865	-27.99
240.083	51.88
240.3	47.79
240.517	-50.52
240.735	21.16
240.952	90.79
241.169	31.4
241.386	62.12
241.603	43.69
241.821	-1.37
242.038	55.98
242.255	49.83
242.472	-1.37
242.689	27.31
242.907	31.4
243.124	78.51
243.341	29.35
243.558	55.98
243.775	-62.8
243.992	37.55
244.209	74.41
244.426	64.17
244.643	74.41
244.86	41.64
245.078	17.07
245.295	96.94
245.512	35.5
245.729	62.12
245.946	-9.56
246.163	135.85
246.38	70.31
246.597	58.03
246.814	72.36
247.031	84.65
247.248	156.33
247.464	41.64
247.681	-9.56
247.898	35.5
248.115	88.75
248.332	51.88
248.549	53.93
248.766	39.59
248.983	-1.37
249.2	98.99
249.417	103.08
249.633	-13.65
249.85	51.88
250.067	-7.51
250.284	8.87
250.501	19.11
250.717	101.03
250.934	31.4
251.151	37.55
251.368	15.02
251.585	53.93
251.801	53.93
252.018	39.59
252.235	103.08
252.451	-5.46
252.668	-11.61
252.885	23.21
253.102	25.26
253.318	135.85
253.535	-62.8
253.752	53.93
253.968	8.87
254.185	17.07
254.401	51.88
254.618	17.07
254.835	31.4
255.051	109.23
255.268	-21.84
255.484	64.17
255.701	37.55
255.917	103.08
256.134	-21.84
256.351	84.65
256.567	113.32
256.784	45.74
257	39.59
257.217	19.11
257.433	84.65
257.65	92.84
257.866	10.92
258.082	15.02
258.299	23.21
258.515	49.83
258.732	49.83
258.948	66.22
259.165	49.83
259.381	-23.89
259.597	-19.8
259.814	15.02
260.03	33.45
260.246	33.45
260.463	72.36
260.679	80.55
260.895	33.45
261.112	51.88
261.328	37.55
261.544	21.16
261.761	70.31
261.977	8.87
262.193	-17.75
262.409	31.4
262.626	80.55
262.842	55.98
263.058	-9.56
263.274	88.75
263.49	117.42
263.707	96.94
263.923	39.59
264.139	47.79
264.355	84.65
264.571	4.78
264.787	12.97
265.004	101.03
265.22	10.92
265.436	19.11
265.652	47.79
265.868	12.97
266.084	4.78
266.3	31.4
266.516	35.5
266.732	15.02
266.948	62.12
267.164	74.41
267.38	45.74
267.596	-1.37
267.812	19.11
268.028	45.74
268.244	55.98
268.46	37.55
268.676	76.46
268.892	-1.37
269.108	35.5
269.324	15.02
269.54	121.51
269.756	19.11
269.972	55.98
270.188	86.7
270.403	-3.41
270.619	47.79
270.835	37.55
271.051	35.5
271.267	51.88
271.483	-46.42
271.698	29.35
271.914	68.27
272.13	39.59
272.346	-25.94
272.562	-32.08
272.777	58.03
272.993	43.69
273.209	82.6
273.425	21.16
273.64	39.59
273.856	86.7
274.072	58.03
274.287	12.97
274.503	70.31
274.719	-23.89
274.934	43.69
275.15	-7.51
275.366	4.78
275.581	15.02
275.797	66.22
276.012	4.78
276.228	25.26
276.444	72.36
276.659	94.89
276.875	-11.61
277.09	-13.65
277.306	-40.28
277.521	27.31
277.737	68.27
277.952	37.55
278.168	53.93
278.383	74.41
278.599	31.4
278.814	45.74
279.03	-34.13
279.245	-5.46
279.461	2.73
279.676	47.79
279.892	8.87
280.107	-9.56
280.322	-13.65
280.538	31.4
280.753	78.51
280.969	-50.52
281.184	10.92
281.399	60.07
281.615	4.78
281.83	58.03
282.045	25.26
282.26	-66.9
282.476	6.83
282.691	101.03
282.906	58.03
283.122	43.69
283.337	53.93
283.552	103.08
283.767	-1.37
283.983	51.88
284.198	53.93
284.413	98.99
284.628	-17.75
284.843	78.51
285.058	64.17
285.274	47.79
285.489	4.78
285.704	27.31
285.919	-30.04
286.134	51.88
286.349	15.02
286.564	19.11
286.779	37.55
286.995	51.88
287.21	60.07
287.425	90.79
287.64	51.88
287.855	74.41
288.07	23.21
288.285	70.31
288.5	62.12
288.715	41.64
288.93	80.55
289.145	12.97
289.36	19.11
289.575	60.07
289.79	101.03
290.004	92.84
290.219	76.46
290.434	29.35
290.649	17.07
290.864	39.59
291.079	41.64
291.294	10.92
291.509	15.02
291.724	41.64
291.938	39.59
292.153	78.51
292.368	12.97
292.583	43.69
292.798	98.99
293.012	6.83
293.227	53.93
293.442	15.02
293.657	101.03
293.871	76.46
294.086	78.51
294.301	101.03
294.516	37.55
294.73	96.94
294.945	0.68
295.16	86.7
295.374	39.59
295.589	-1.37
295.804	-3.41
296.018	35.5
296.233	33.45
296.447	103.08
296.662	8.87
296.877	51.88
297.091	21.16
297.306	47.79
297.52	29.35
297.735	60.07
297.949	58.03
298.164	139.94
298.378	-27.99
298.593	64.17
298.807	47.79
299.022	78.51
299.236	96.94
299.451	10.92
299.665	-9.56
299.88	43.69
300.094	60.07
300.309	51.88
300.523	29.35
300.737	49.83
300.952	33.45
301.166	35.5
301.381	113.32
301.595	72.36
301.809	-21.84
302.024	17.07
302.238	80.55
302.452	78.51
302.667	117.42
302.881	-54.61
303.095	60.07
303.309	12.97
303.524	-30.04
303.738	4.78
303.952	58.03
304.166	64.17
304.381	-7.51
304.595	60.07
304.809	29.35
305.023	55.98
305.237	39.59
305.452	31.4
305.666	117.42
305.88	53.93
306.094	72.36
306.308	43.69
306.522	64.17
306.736	55.98
306.95	51.88
307.164	68.27
307.379	76.46
307.593	107.18
307.807	-44.37
308.021	139.94
308.235	43.69
308.449	25.26
308.663	19.11
308.877	96.94
309.091	72.36
309.305	53.93
309.519	45.74
309.733	72.36
309.947	-52.56
310.161	-30.04
310.374	21.16
310.588	39.59
310.802	21.16
311.016	31.4
311.23	117.42
311.444	-11.61
311.658	41.64
311.872	21.16
312.085	51.88
312.299	-5.46
312.513	51.88
312.727	80.55
312.941	49.83
313.154	105.13
313.368	25.26
313.582	27.31
313.796	35.5
314.009	49.83
314.223	64.17
314.437	68.27
314.651	35.5
314.864	78.51
315.078	103.08
315.292	33.45
315.505	27.31
315.719	68.27
315.933	84.65
316.146	2.73
316.36	-11.61
316.573	76.46
316.787	98.99
317.001	37.55
317.214	-7.51
317.428	55.98
317.641	-38.23
317.855	121.51
318.068	21.16
318.282	45.74
318.495	55.98
318.709	51.88
318.922	-60.76
319.136	47.79
319.349	105.13
319.563	113.32
319.776	80.55
319.99	19.11
320.203	103.08
320.417	96.94
320.63	-11.61
320.843	64.17
321.057	49.83
321.27	4.78
321.483	39.59
321.697	47.79
321.91	62.12
322.124	125.61
322.337	60.07
322.55	60.07
322.763	88.75
322.977	21.16
323.19	86.7
323.403	117.42
323.617	66.22
323.83	96.94
324.043	31.4
324.256	135.85
324.469	-17.75
324.683	98.99
324.896	-30.04
325.109	103.08
325.322	-5.46
325.535	105.13
325.748	72.36
325.962	45.74
326.175	68.27
326.388	60.07
326.601	121.51
326.814	84.65
327.027	80.55
327.24	90.79
327.453	105.13
327.666	33.45
327.879	109.23
328.092	66.22
328.305	101.03
328.518	25.26
328.731	74.41
328.944	80.55
329.157	125.61
329.37	-13.65
329.583	15.02
329.796	58.03
330.009	53.93
330.222	45.74
330.435	64.17
330.648	51.88
330.861	25.26
331.073	103.08
331.286	117.42
331.499	-9.56
331.712	12.97
331.925	72.36
332.138	60.07
332.35	2.73
332.563	6.83
332.776	148.14
332.989	55.98
333.202	51.88
333.414	12.97
333.627	17.07
333.84	23.21
334.053	33.45
334.265	6.83
334.478	72.36
334.691	39.59
334.903	80.55
335.116	78.51
335.329	-27.99
335.541	19.11
335.754	53.93
335.966	115.37
336.179	76.46
336.392	25.26
336.604	-44.37
336.817	72.36
337.029	39.59
337.242	-11.61
337.454	119.46
337.667	-19.8
337.88	131.75
338.092	25.26
338.305	90.79
338.517	17.07
338.729	35.5
338.942	68.27
339.154	31.4
339.367	29.35
339.579	68.27
339.792	35.5
340.004	-19.8
340.217	53.93
340.429	82.6
340.641	39.59
340.854	47.79
341.066	66.22
341.278	64.17
341.491	125.61
341.703	19.11
341.915	78.51
342.128	53.93
342.34	21.16
342.552	76.46
342.764	64.17
342.977	172.71
343.189	58.03
343.401	152.23
343.613	-30.04
343.826	86.7
344.038	27.31
344.25	53.93
344.462	88.75
344.674	33.45
344.886	55.98
345.099	68.27
345.311	62.12
345.523	92.84
345.735	98.99
345.947	94.89
346.159	62.12
346.371	15.02
346.583	-19.8
346.795	80.55
347.007	96.94
347.219	105.13
347.431	86.7
347.643	41.64
347.855	17.07
348.067	33.45
348.279	8.87
348.491	113.32
348.703	109.23
348.915	60.07
349.127	27.31
349.339	72.36
349.551	31.4
349.763	35.5
349.975	88.75
350.187	84.65
350.399	55.98
350.61	60.07
350.822	25.26
351.034	101.03
351.246	41.64
351.458	64.17
351.669	105.13
351.881	115.37
352.093	51.88
352.305	10.92
352.517	49.83
352.728	98.99
352.94	19.11
353.152	139.94
353.363	58.03
353.575	123.56
353.787	88.75
353.999	84.65
354.21	23.21
354.422	17.07
354.633	41.64
354.845	68.27
355.057	41.64
355.268	4.78
355.48	23.21
355.692	-5.46
355.903	60.07
356.115	80.55
356.326	-27.99
356.538	-38.23
356.749	41.64
356.961	105.13
357.172	41.64
357.384	15.02
357.595	84.65
357.807	29.35
358.018	10.92
358.23	88.75
358.441	133.8
358.653	76.46
358.864	17.07
359.075	35.5
359.287	92.84
359.498	88.75
359.709	21.16
359.921	78.51
360.132	109.23
360.344	88.75
360.555	15.02
360.766	35.5
360.977	51.88
361.189	53.93
361.4	86.7
361.611	64.17
361.823	21.16
362.034	117.42
362.245	19.11
362.456	17.07
362.667	31.4
362.879	76.46
363.09	15.02
363.301	144.04
363.512	64.17
363.723	43.69
363.935	96.94
364.146	98.99
364.357	37.55
364.568	-25.94
364.779	29.35
364.99	60.07
365.201	31.4
365.412	103.08
365.623	60.07
365.834	8.87
366.045	47.79
366.256	27.31
366.467	35.5
366.678	68.27
366.889	80.55
367.1	68.27
367.311	64.17
367.522	55.98
367.733	-1.37
367.944	-15.7
368.155	21.16
368.366	137.9
368.577	139.94
368.788	68.27
368.999	103.08
369.209	17.07
369.42	49.83
369.631	127.66
369.842	49.83
370.053	66.22
370.264	96.94
370.474	41.64
370.685	35.5
370.896	41.64
371.107	88.75
371.317	78.51
371.528	-17.75
371.739	80.55
371.95	133.8
372.16	0.68
372.371	33.45
372.582	43.69
372.792	51.88
373.003	90.79
373.214	15.02
373.424	21.16
373.635	-34.13
373.846	35.5
374.056	55.98
374.267	64.17
374.477	80.55
374.688	41.64
374.898	25.26
375.109	55.98
375.319	47.79
375.53	62.12
375.74	84.65
375.951	37.55
376.161	21.16
376.372	70.31
376.582	51.88
376.793	51.88
377.003	137.9
377.214	115.37
377.424	37.55
377.635	72.36
377.845	60.07
378.055	111.27
378.266	51.88
378.476	60.07
378.686	86.7
378.897	39.59
379.107	88.75
379.317	129.7
379.528	25.26
379.738	127.66
379.948	37.55
380.158	76.46
380.369	60.07
380.579	101.03
380.789	43.69
380.999	60.07
381.21	78.51
381.42	111.27
381.63	84.65
381.84	64.17
382.05	19.11
382.261	68.27
382.471	76.46
382.681	68.27
382.891	135.85
383.101	76.46
383.311	35.5
383.521	96.94
383.731	60.07
383.941	39.59
384.151	35.5
384.361	78.51
384.571	98.99
384.781	82.6
384.991	84.65
385.201	98.99
385.411	15.02
385.621	68.27
385.831	47.79
386.041	68.27
386.251	-11.61
386.461	109.23
386.671	68.27
386.881	33.45
387.091	64.17
387.301	6.83
387.511	88.75
387.72	15.02
387.93	90.79
388.14	51.88
388.35	80.55
388.56	74.41
388.769	94.89
388.979	111.27
389.189	107.18
389.399	27.31
389.609	43.69
389.818	55.98
390.028	39.59
390.238	68.27
390.447	43.69
390.657	72.36
390.867	82.6
391.076	25.26
391.286	78.51
391.496	41.64
391.705	105.13
391.915	4.78
392.125	94.89
392.334	84.65
392.544	82.6
392.753	146.09
392.963	68.27
393.172	150.18
393.382	10.92
393.591	137.9
393.801	43.69
394.01	90.79
394.22	49.83
394.429	129.7
394.639	94.89
394.848	139.94
395.058	90.79
395.267	88.75
395.477	10.92
395.686	117.42
395.895	199.34
396.105	127.66
396.314	137.9
396.524	101.03
396.733	131.75
396.942	-3.41
397.152	49.83
397.361	158.38
397.57	209.58
397.78	127.66
397.989	27.31
398.198	115.37
398.407	129.7
398.617	141.99
398.826	105.13
399.035	119.46
399.244	94.89
399.453	121.51
399.663	96.94
399.872	105.13
400.081	92.84
400.29	144.04
400.499	82.6
400.708	125.61
400.917	47.79
401.127	131.75
401.336	80.55
401.545	160.42
401.754	193.19
401.963	148.14
402.172	80.55
402.381	125.61
402.59	23.21
402.799	127.66
403.008	197.29
403.217	117.42
403.426	82.6
403.635	152.23
403.844	137.9
404.053	96.94
404.262	121.51
404.471	180.9
404.68	125.61
404.888	178.86
405.097	107.18
405.306	107.18
405.515	141.99
405.724	166.57
405.933	141.99
406.142	164.52
406.35	129.7
406.559	193.19
406.768	178.86
406.977	191.14
407.185	264.87
407.394	303.78
407.603	158.38
407.812	246.44
408.02	174.76
408.229	164.52
408.438	201.38
408.646	244.39
408.855	185
409.064	201.38
409.272	307.88
409.481	332.45
409.69	252.58
409.898	266.92
410.107	299.69
410.315	334.5
410.524	268.97
410.733	342.69
410.941	311.97
411.15	369.32
411.358	289.45
411.567	408.23
411.775	365.22
411.984	348.84
412.192	359.08
412.401	410.28
412.609	510.63
412.818	471.72
413.026	422.56
413.234	438.95
413.443	424.61
413.651	430.76
413.86	555.68
414.068	547.49
414.276	572.07
414.485	488.1
414.693	563.87
414.901	633.51
415.11	629.41
415.318	647.84
415.526	625.31
415.734	707.23
415.943	742.05
416.151	713.38
416.359	770.72
416.567	875.17
416.776	856.73
416.984	871.07
417.192	944.8
417.4	885.41
417.608	895.65
417.817	981.66
418.025	1098.39
418.233	1034.91
418.441	1047.19
418.649	1047.19
418.857	1194.65
419.065	1290.9
419.273	1251.99
419.481	1305.24
419.689	1297.05
419.897	1264.28
420.105	1401.49
420.313	1399.45
420.521	1456.79
420.729	1548.95
420.937	1630.87
421.145	1583.76
421.353	1657.49
421.561	1757.84
421.769	1823.37
421.977	1868.43
422.185	1811.09
422.393	2028.17
422.601	2138.76
422.809	2046.6
423.017	2224.78
423.224	2198.15
423.432	2259.59
423.64	2318.98
423.848	2439.81
424.056	2351.75
424.263	2540.16
424.471	2611.84
424.679	2728.58
424.887	2796.16
425.094	2820.74
425.302	2902.65
425.51	3070.59
425.718	3023.48
425.925	3232.38
426.133	3316.34
426.341	3469.94
426.548	3652.21
426.756	3631.73
426.964	3617.4
427.171	3930.73
427.379	3996.27
427.586	4121.2
427.794	4039.28
428.001	4450.92
428.209	4377.19
428.417	4508.26
428.624	4723.3
428.832	4835.94
429.039	4717.15
429.247	4794.98
429.454	5190.24
429.662	5485.14
429.869	5194.33
430.076	5581.4
430.284	5343.83
430.491	5644.88
430.699	5861.97
430.906	5964.37
431.114	5902.93
431.321	6224.46
431.528	6435.4
431.736	6873.67
431.943	7256.64
432.15	6865.47
432.358	7125.57
432.565	7297.6
432.772	7260.73
432.979	7565.88
433.187	7760.44
433.394	7801.4
433.601	8401.45
433.808	8448.55
434.016	8477.23
434.223	8784.42
434.43	9189.92
434.637	9265.69
434.844	9663
435.052	9761.3
435.259	9849.36
435.466	9878.04
435.673	9837.08
435.88	10248.72
436.087	11041.28
436.294	11090.43
436.501	10555.91
436.708	10924.55
436.915	11131.39
437.122	11782.65
437.329	11756.02
437.537	12304.88
437.743	12231.15
437.95	12202.48
438.157	12913.13
438.364	13322.72
438.571	13382.11
438.778	13550.04
438.985	14670.28
439.192	14090.71
439.399	14604.75
439.606	14299.6
439.813	15100.36
440.02	15991.22
440.227	15628.73
440.433	15366.59
440.64	16038.33
440.847	15815.1
441.054	16554.41
441.261	17181.09
441.467	17170.85
441.674	17406.37
441.881	18127.25
442.088	18104.73
442.294	17846.68
442.501	18422.16
442.708	18973.07
442.914	19640.7
443.121	20375.92
443.328	19763.58
443.534	21207.4
443.741	20806
443.948	20216.18
444.154	21959
444.361	21406.05
444.568	21981.53
444.774	21811.55
444.981	22047.07
445.187	22655.31
445.394	23908.67
445.6	23253.32
445.807	25530.66
446.013	24559.92
446.22	24854.83
446.426	26026.27
446.633	25973.02
446.839	26954
447.046	25551.14
447.252	27273.48
447.459	27480.33
447.665	27328.78
447.871	28014.85
448.078	29749.48
448.284	28492.02
448.491	29130.99
448.697	30216.41
448.903	30580.95
449.11	30535.9
449.316	29956.32
449.522	30863.57
449.728	31430.86
449.935	31783.11
450.141	31797.45
450.347	32356.54
450.553	31097.04
450.76	31924.42
450.966	32477.37
451.172	32325.82
451.378	32706.74
451.584	32420.03
451.791	32979.12
451.997	33106.1
452.203	33661.1
452.409	33446.06
452.615	33155.25
452.821	32078.02
453.027	31596.74
453.233	33220.78
453.44	31854.79
453.646	32377.02
453.852	32696.5
454.058	32678.07
454.264	31678.66
454.47	32536.76
454.676	31568.07
454.882	32454.84
455.088	29413.61
455.294	30109.92
455.5	30273.76
455.705	30931.15
455.911	29812.96
456.117	29108.46
456.323	28621.05
456.529	26890.51
456.735	27994.37
456.941	27306.25
457.147	27044.11
457.352	25991.45
457.558	25882.91
457.764	25858.34
457.97	25100.59
458.176	24899.89
458.381	24521.01
458.587	23619.91
458.793	23472.45
458.999	22006.11
459.204	23789.89
459.41	23093.58
459.616	21385.57
459.821	21686.62
460.027	21561.7
460.233	21129.58
460.438	19925.37
460.644	20242.81
460.85	19478.91
461.055	19214.73
461.261	18983.31
461.466	17648.03
461.672	17095.08
461.878	18440.59
462.083	17381.79
462.289	17138.09
462.494	16630.19
462.7	15851.96
462.905	15569.34
463.111	15958.46
463.316	15962.55
463.522	15817.15
463.727	15862.2
463.932	15825.34
464.138	15927.74
464.343	15761.85
464.549	15235.52
464.754	15532.48
464.959	15487.42
465.165	15397.31
465.37	14727.63
465.575	14453.2
465.781	14977.48
465.986	15090.12
466.191	14457.29
466.397	14318.03
466.602	13511.13
466.807	14080.47
467.012	14307.79
467.218	13865.43
467.423	13904.34
467.628	13926.87
467.833	14442.96
468.038	14004.69
468.244	13771.22
468.449	14008.79
468.654	13820.38
468.859	13623.77
469.064	13304.29
469.269	12984.8
469.474	13203.94
469.679	13310.43
469.885	12886.5
470.09	13130.21
470.295	13042.15
470.5	12521.96
470.705	12769.77
470.91	12452.33
471.115	12292.59
471.32	12444.14
471.525	12384.75
471.73	12110.32
471.935	12212.72
472.139	11684.34
472.344	11866.61
472.549	11590.14
472.754	11848.18
472.959	11457.02
473.164	11147.78
473.369	10859.01
473.574	11328
473.778	11334.14
473.983	10998.27
474.188	11049.47
474.393	10416.65
474.598	10768.9
474.802	10553.87
475.007	10476.04
475.212	10533.39
475.417	9949.71
475.621	10045.97
475.826	10105.36
476.031	9716.25
476.235	9841.17
476.44	9939.47
476.645	9720.34
476.849	9669.14
477.054	9597.46
477.259	9566.74
477.463	9382.43
477.668	9245.21
477.872	9611.8
478.077	8948.26
478.282	9021.98
478.486	8882.72
478.691	8671.78
478.895	8718.89
479.1	8768.04
479.304	8731.17
479.509	8505.9
479.713	8776.23
479.918	8493.61
480.122	8534.57
480.326	8493.61
480.531	8532.52
480.735	8376.87
480.94	8473.13
481.144	8712.74
481.348	8016.43
481.553	8415.79
481.757	8243.76
481.961	8534.57
482.166	8280.62
482.37	8235.56
482.574	8028.72
482.778	8315.44
482.983	8340.01
483.187	8219.18
483.391	8385.07
483.595	7973.43
483.8	8260.14
484.004	8217.13
484.208	8288.81
484.412	8178.22
484.616	8198.7
484.821	8137.26
485.025	8104.49
485.229	8317.48
485.433	8249.9
485.637	8157.74
485.841	8159.79
486.045	8106.54
486.249	8163.89
486.453	8067.63
486.657	7993.9
486.861	8157.74
487.065	8032.82
487.269	8210.99
487.473	8061.49
487.677	8215.09
487.881	8364.59
488.085	8094.26
488.289	8335.92
488.493	8059.44
488.697	8174.13
488.901	8264.24
489.105	8239.66
489.309	8153.65
489.512	8305.2
489.716	8370.73
489.92	8356.4
490.124	8440.36
490.328	8362.54
490.531	8256.04
490.735	8393.26
490.939	8325.68
491.143	8495.66
491.346	8256.04
491.55	8612.39
491.754	8653.35
491.958	8456.75
492.161	8401.45
492.365	8466.99
492.569	8448.55
492.772	8671.78
492.976	8864.29
493.18	8841.76
493.383	8897.06
493.587	9040.42
493.79	8964.64
493.994	9103.9
494.197	9060.9
494.401	9191.97
494.605	9042.46
494.808	9153.05
495.012	9212.45
495.215	9429.53
495.419	9527.83
495.622	9402.91
495.825	9755.16
496.029	9536.03
496.232	9703.96
496.436	9746.97
496.639	10019.35
496.843	10084.88
497.046	9933.33
497.249	10095.12
497.453	10347.02
497.656	10398.22
497.859	10283.53
498.063	10574.35
498.266	10758.66
498.469	10889.73
498.673	10787.33
498.876	10940.93
499.079	10955.27
499.282	11127.3
499.485	11534.84
499.689	11328
499.892	11704.82
500.095	11690.49
500.298	11819.51
500.501	11991.54
500.705	12059.12
500.908	12339.69
501.111	12458.48
501.314	12333.55
501.517	12626.41
501.72	12650.99
501.923	12679.66
502.126	13038.05
502.329	12976.61
502.532	13228.51
502.735	13189.6
502.938	13496.8
503.141	13548
503.344	14062.04
503.547	13709.79
503.75	14137.81
503.953	14406.09
504.156	14367.18
504.359	14553.55
504.562	14522.83
504.765	14950.85
504.968	15514.05
505.17	15245.76
505.373	15378.88
505.576	15735.23
505.779	15628.73
505.982	15868.34
506.185	16259.51
506.387	16325.04
506.59	16529.84
506.793	16906.66
506.996	16728.49
507.198	17252.77
507.401	17361.31
507.604	17056.17
507.807	17570.21
508.009	18024.86
508.212	17832.35
508.415	17856.92
508.617	18069.91
508.82	18231.7
509.022	18231.7
509.225	18882.95
509.428	19167.62
509.63	19392.9
509.833	19337.6
510.035	19843.45
510.238	19663.23
510.44	19980.67
510.643	20197.75
510.845	20535.67
511.048	20326.77
511.25	20734.32
511.453	20879.72
511.655	21451.11
511.858	21317.99
512.06	21543.27
512.262	22288.73
512.465	22180.18
512.667	22395.22
512.87	22622.55
513.072	22446.42
513.274	22788.43
513.477	23230.79
513.679	23355.72
513.881	23927.1
514.084	23961.92
514.286	24043.84
514.488	23968.06
514.69	24492.34
514.893	24670.51
515.095	25100.59
515.297	25569.57
515.499	25358.63
515.701	25960.73
515.904	26188.06
516.106	26200.35
516.308	26698
516.51	26841.36
516.712	26745.11
516.914	27326.73
517.116	27463.94
517.318	27980.03
517.52	28086.53
517.722	27906.3
517.925	28291.32
518.127	28455.16
518.329	28963.06
518.531	28635.38
518.733	29180.14
518.935	29802.72
519.136	29747.43
519.338	30427.35
519.54	30263.52
519.742	30597.34
519.944	31101.14
520.146	31539.4
520.348	31408.33
520.55	31459.53
520.752	32284.86
520.954	32352.44
521.155	32075.97
521.357	32592.06
521.559	33390.77
521.761	33495.21
521.963	33673.38
522.164	33781.93
522.366	33822.89
522.568	34328.73
522.77	34105.51
522.971	34893.97
523.173	34689.18
523.375	35250.32
523.576	34896.02
523.778	35461.26
523.98	35659.91
524.181	36040.84
524.383	36147.33
524.584	36702.33
524.786	36638.84
524.988	36700.28
525.189	36997.24
525.391	37517.42
525.592	37535.85
525.794	37689.45
525.995	37671.02
526.197	38002.79
526.398	38174.82
526.6	38117.48
526.801	38086.76
527.003	38838.36
527.204	38715.48
527.406	38768.73
527.607	39102.55
527.808	39161.94
528.01	38883.42
528.211	39098.45
528.412	39794.76
528.614	39927.88
528.815	39843.91
529.016	40546.37
529.218	39567.44
529.419	40423.49
529.62	40198.21
529.822	40554.56
530.023	40138.82
530.224	40329.28
530.425	40572.99
530.626	40407.11
530.828	40073.29
531.029	41429.04
531.23	40849.47
531.431	40687.68
531.632	40894.52
531.833	41254.97
532.035	41144.37
532.236	41431.09
532.437	41365.56
532.638	41109.56
532.839	41738.29
533.04	42078.25
533.241	41078.84
533.442	42184.74
533.643	41691.18
533.844	41840.68
534.045	41637.94
534.246	40933.43
534.447	41850.92
534.648	41717.81
534.849	41904.17
535.05	41824.3
535.251	42090.54
535.451	41887.79
535.652	42151.98
535.853	41867.31
536.054	41467.95
536.255	42082.34
536.456	41111.61
536.657	42594.34
536.857	41576.5
537.058	41814.06
537.259	42407.97
537.46	42049.58
537.66	41992.23
537.861	42295.33
538.062	41734.19
538.263	41777.2
538.463	41871.4
538.664	42014.76
538.865	42274.85
539.065	42270.76
539.266	42186.79
539.466	42203.17
539.667	41539.63
539.868	42375.2
540.068	41885.74
540.269	42139.69
540.469	42141.74
540.67	41758.77
540.87	41855.02
541.071	41818.16
541.271	42401.83
541.472	41740.33
541.672	41709.61
541.873	41426.99
542.073	41558.06
542.274	42242.09
542.474	42004.52
542.675	41766.96
542.875	42059.82
543.075	41785.39
543.276	41779.25
543.476	42233.89
543.676	41375.8
543.877	41936.94
544.077	41418.8
544.277	41730.09
544.478	41812.01
544.678	41832.49
544.878	41592.88
545.078	41783.34
545.279	41783.34
545.479	41558.06
545.679	41857.07
545.879	41535.54
546.079	41842.73
546.28	41449.52
546.48	41142.33
546.68	41631.79
546.88	41760.81
547.08	41721.9
547.28	41826.35
547.48	41287.73
547.68	41474.1
547.88	41623.6
548.081	41220.15
548.281	41535.54
548.481	41242.68
548.681	41594.93
548.881	41635.89
549.081	41310.26
549.28	41281.59
549.48	41803.82
549.68	41689.13
549.88	41947.18
550.08	41308.21
550.28	41701.42
550.48	41336.88
550.68	41744.43
550.88	41441.33
551.08	41510.96
551.279	41596.98
551.479	40988.73
551.679	41371.7
551.879	41351.22
552.079	41639.98
552.278	41320.5
552.478	41326.64
552.678	40970.3
552.878	41398.32
553.077	41410.61
553.277	40945.72
553.477	41685.04
553.676	40931.39
553.876	41082.94
554.076	40648.77
554.275	40960.06
554.475	40620.09
554.674	40796.22
554.874	40958.01
555.074	40462.4
555.273	40923.19
555.473	40941.63
555.672	40333.38
555.872	40726.59
556.071	40566.85
556.271	40853.56
556.47	40681.53
556.67	40302.66
556.869	40345.67
557.068	40884.28
557.268	40335.43
557.467	40335.43
557.667	40306.76
557.866	40126.53
558.065	40308.8
558.265	39991.37
558.464	39796.81
558.663	40120.39
558.863	39809.1
559.062	40398.91
559.261	39446.61
559.461	39903.31
559.66	39686.22
559.859	39227.48
560.058	39235.67
560.258	39958.6
560.457	39194.71
560.656	39583.82
560.855	39202.9
561.054	39303.25
561.253	39276.63
561.453	39145.56
561.652	38881.37
561.851	39096.41
562.05	38948.95
562.249	38660.19
562.448	38475.87
562.647	38613.09
562.846	38482.02
563.045	38629.47
563.244	38361.19
563.443	39245.91
563.642	38111.33
563.841	38146.15
564.04	38164.58
564.239	38551.65
564.438	37873.77
564.637	38180.96
564.836	37908.58
565.035	37615.72
565.234	37458.03
565.432	37445.74
565.631	37417.07
565.83	37435.5
566.029	37265.52
566.228	37212.27
566.427	36984.95
566.625	37171.32
566.824	36284.54
567.023	36903.03
567.222	36112.52
567.42	36810.87
567.619	36569.21
567.818	36262.02
568.016	36362.37
568.215	36606.08
568.414	36204.67
568.612	36253.83
568.811	35989.64
569.01	35868.81
569.208	35582.09
569.407	35881.1
569.605	35305.62
569.804	35491.98
570.002	35176.59
570.201	35469.45
570.4	34998.42
570.598	34953.37
570.797	34810.01
570.995	34709.66
571.193	34474.14
571.392	35186.83
571.59	34136.23
571.789	34355.36
571.987	34298.02
572.186	34228.38
572.384	33841.32
572.582	34089.12
572.781	34345.12
572.979	33714.34
573.177	33792.17
573.376	33650.86
573.574	33484.97
573.772	33607.85
573.971	33384.62
574.169	33255.6
574.367	32903.35
574.565	32966.84
574.763	32927.92
574.962	32518.33
575.16	32403.64
575.358	32757.94
575.556	32264.38
575.754	32772.28
575.952	32299.2
576.151	32399.55
576.349	31930.56
576.547	31713.48
576.745	32307.39
576.943	32059.59
577.141	32022.72
577.339	32073.92
577.537	31490.25
577.735	31449.29
577.933	31181.01
578.131	31613.13
578.329	31326.41
578.527	30832.85
578.725	30959.83
578.923	31471.82
579.121	31002.83
579.319	30857.43
579.516	31105.23
579.714	30834.9
579.912	30523.61
580.11	30437.59
580.308	30591.19
580.506	30732.5
580.704	29849.83
580.901	30318.81
581.099	30480.6
581.297	30089.44
581.495	29794.53
581.692	30284
581.89	29638.89
582.088	29841.64
582.285	29577.45
582.483	30109.92
582.681	29726.95
582.878	29231.34
583.076	29137.13
583.274	29479.14
583.471	28930.29
583.669	29075.69
583.866	28717.3
584.064	28936.43
584.262	28477.69
584.459	28778.74
584.657	28653.81
584.854	28831.99
585.052	27939.07
585.249	28545.27
585.447	28330.23
585.644	28070.14
585.841	28141.82
586.039	28354.81
586.236	28076.29
586.434	27670.79
586.631	27746.56
586.828	27881.73
587.026	27640.07
587.223	27848.96
587.42	27298.06
587.618	27646.21
587.815	27324.68
588.012	27224.33
588.21	27042.06
588.407	27302.15
588.604	26888.46
588.801	26761.49
588.999	26917.14
589.196	26812.69
589.393	26857.74
589.59	26560.79
589.787	26530.07
589.984	26507.54
590.182	26417.43
590.379	26425.62
590.576	26370.33
590.773	26013.98
590.97	25782.56
591.167	25903.39
591.364	25819.42
591.561	26089.76
591.758	25583.91
591.955	25485.61
592.152	25575.72
592.349	25409.83
592.546	25432.36
592.743	25411.88
592.94	25274.66
593.137	25399.59
593.334	25162.03
593.531	24711.47
593.727	25200.94
593.924	25004.33
594.121	24635.7
594.318	24973.61
594.515	24219.96
594.712	24858.93
594.908	24508.72
595.105	24418.61
595.302	24551.73
595.499	24340.79
595.696	24344.89
595.892	23730.5
596.089	24095.03
596.286	24389.94
596.482	23841.09
596.679	24004.92
596.876	23820.61
597.072	23804.22
597.269	23679.3
597.466	23832.89
597.662	23445.83
597.859	23454.02
598.055	23243.08
598.252	23177.54
598.448	23159.11
598.645	23169.35
598.841	23183.69
599.038	22880.59
599.234	22876.49
599.431	22751.57
599.627	22821.2
599.824	22868.3
600.02	22733.14
600.217	22780.24
600.413	22589.78
600.609	22303.06
600.806	22362.45
601.002	22425.94
601.198	21928.28
601.395	22198.62
601.591	21770.59
601.787	22440.28
601.984	21932.38
602.18	21936.48
602.376	21655.9
602.572	21653.86
602.769	21705.06
602.965	21653.86
603.161	21660
603.357	21408.1
603.553	21733.73
603.75	21467.49
603.946	21420.39
604.142	21305.7
604.338	20996.46
604.534	21180.78
604.73	21068.14
604.926	20719.98
605.122	20844.91
605.318	20758.89
605.514	20724.08
605.71	20627.82
605.906	20566.38
606.102	20527.47
606.298	20734.32
606.494	20386.16
606.69	20550
606.886	20679.02
607.082	20023.67
607.278	20552.05
607.474	20005.24
607.67	20347.25
607.866	19958.14
608.062	20056.44
608.257	20076.92
608.453	19943.8
608.649	19898.75
608.845	19665.28
609.041	19970.43
609.236	19761.53
609.432	19769.72
609.628	19552.64
609.824	19585.41
610.019	19521.92
610.215	19331.46
610.411	19456.39
610.606	19210.63
610.802	19317.12
610.998	18950.54
611.193	19429.76
611.389	18798.99
611.584	19255.68
611.78	19446.15
611.976	19016.07
612.171	18977.16
612.367	18801.04
612.562	18776.46
612.758	18606.48
612.953	18809.23
613.149	18946.44
613.344	18485.65
613.539	18971.02
613.735	18823.56
613.93	18833.8
614.126	18583.95
614.321	18508.18
614.517	18563.47
614.712	18450.83
614.907	18313.62
615.103	18516.37
615.298	18217.36
615.493	18555.28
615.688	17848.73
615.884	18454.93
616.079	18035.1
616.274	18047.38
616.47	18026.9
616.665	18184.6
616.86	18063.77
617.055	17858.97
617.25	18006.42
617.445	18178.45
617.641	17635.74
617.836	17775
618.031	17568.16
618.226	17910.17
618.421	17543.58
618.616	17807.77
618.811	17299.87
619.006	17789.34
619.201	17338.79
619.396	17314.21
619.591	16875.95
619.786	17320.35
619.981	17041.83
620.176	17093.03
620.371	16742.83
620.566	16738.73
620.761	16923.05
620.956	17002.92
621.151	16843.18
621.346	16640.43
621.541	16433.58
621.735	16622
621.93	16114.1
622.125	16400.82
622.32	16030.13
622.515	16267.7
622.709	15960.5
622.904	16007.61
623.099	16062.9
623.294	15964.6
623.488	15509.95
623.683	15681.98
623.878	15311.3
624.072	15729.08
624.267	15602.11
624.462	15315.39
624.656	14971.33
624.851	15120.84
625.046	15202.75
625.24	15219.14
625.435	14940.61
625.629	14637.52
625.824	14746.06
626.018	14635.47
626.213	14344.66
626.407	14582.22
626.602	14103
626.796	14336.46
626.991	14154.19
627.185	14123.48
627.38	14211.54
627.574	13959.64
627.768	13943.25
627.963	13728.22
628.157	13771.22
628.352	13849.05
628.546	13687.26
628.74	13828.57
628.935	13537.76
629.129	13498.84
629.323	13406.69
629.517	13351.39
629.712	13165.03
629.906	13218.27
630.1	12777.96
630.294	13013.48
630.489	13007.33
630.683	13050.34
630.877	12825.06
631.071	12524.01
631.265	12810.73
631.459	12655.08
631.653	12505.58
631.848	12499.44
632.042	12274.16
632.236	12499.44
632.43	12220.91
632.624	12306.93
632.818	12282.35
633.012	12110.32
633.206	11897.33
633.4	12112.37
633.594	11784.69
633.788	12030.45
633.982	12003.83
634.176	11606.52
634.369	11839.99
634.563	11553.27
634.757	11545.08
634.951	11444.73
635.145	11631.1
635.339	11389.44
635.533	11211.26
635.726	11289.09
635.92	11100.67
636.114	11301.37
636.308	11096.58
636.501	11055.62
636.695	11053.57
636.889	10973.7
637.083	10799.62
637.276	10910.21
637.47	10822.15
637.664	10490.38
637.857	10674.7
638.051	10469.9
638.244	10514.95
638.438	10404.36
638.632	10258.96
638.825	10457.61
639.019	10361.36
639.212	10226.19
639.406	10273.29
639.599	9992.72
639.793	10177.04
639.986	10123.79
640.18	10156.56
640.373	10019.35
640.567	9875.99
640.76	9685.53
640.954	9730.58
641.147	9630.23
641.34	9540.12
641.534	9708.05
641.727	9366.04
641.92	9402.91
642.114	9251.36
642.307	9400.86
642.5	9273.89
642.694	9050.66
642.887	9288.22
643.08	9572.89
643.273	9089.57
643.467	9083.42
643.66	8870.44
643.853	8981.03
644.046	8876.58
644.239	8780.32
644.432	8716.84
644.626	8667.69
644.819	8651.3
645.012	8553
645.205	8579.62
645.398	8530.47
645.591	8368.68
645.784	8389.16
645.977	8403.5
646.17	8335.92
646.363	8258.09
646.556	8190.51
646.749	8137.26
646.942	8423.98
647.135	8092.21
647.328	8118.83
647.521	8133.17
647.714	8045.1
647.907	7807.54
648.099	8010.29
648.292	8153.65
648.485	7668.28
648.678	7678.52
648.871	7811.64
649.064	7639.61
649.256	7952.95
649.449	7662.13
649.642	7662.13
649.835	7475.77
650.027	7588.41
650.22	7524.92
650.413	7412.28
650.605	7465.53
650.798	7289.4
650.991	7109.18
651.183	7281.21
651.376	7141.95
651.568	7285.31
651.761	7117.37
651.954	7055.94
652.146	7012.93
652.339	7127.61
652.531	7113.28
652.724	6926.91
652.916	6871.62
653.109	6867.52
653.301	6867.52
653.494	6875.71
653.686	6736.45
653.879	6703.68
654.071	6828.61
654.263	6548.04
654.456	6640.2
654.648	6683.2
654.84	6552.13
655.033	6517.32
655.225	6443.59
655.417	6410.82
655.61	6449.74
655.802	6419.02
655.994	6318.67
656.186	6224.46
656.379	6171.21
656.571	6218.32
656.763	6253.13
656.955	6267.47
657.148	6273.61
657.34	6163.02
657.532	5964.37
657.724	6128.21
657.916	6111.82
658.108	5960.27
658.3	5778
658.492	5993.04
658.684	5907.02
658.876	5937.74
659.068	5821.01
659.26	5712.47
659.452	5855.83
659.644	5737.04
659.836	5710.42
660.028	5835.35
660.22	5601.88
660.412	5573.21
660.604	5667.41
660.796	5558.87
660.988	5591.64
661.18	5515.86
661.372	5528.15
661.563	5421.66
661.755	5337.69
661.947	5421.66
662.139	5409.37
662.331	5257.82
662.522	5390.94
662.714	5286.49
662.906	5399.13
663.097	5241.43
663.289	5298.78
663.481	5055.07
663.673	5327.45
663.864	4967.01
664.056	5085.79
664.247	5294.68
664.439	5069.41
664.631	5038.69
664.822	4969.05
665.014	4946.53
665.205	4901.47
665.397	4973.15
665.588	4932.19
665.78	4954.72
665.971	4811.36
666.163	4868.7
666.354	4813.41
666.546	4821.6
666.737	4852.32
666.929	4786.79
667.12	4794.98
667.311	4758.11
667.503	4833.89
667.694	4655.72
667.885	4745.83
668.077	4647.52
668.268	4694.63
668.459	4549.22
668.651	4639.33
668.842	4473.45
669.033	4520.55
669.224	4434.53
669.416	4575.84
669.607	4385.38
669.798	4373.1
669.989	4340.33
670.18	4366.95
670.371	4332.14
670.563	4475.49
670.754	4405.86
670.945	4340.33
671.136	4231.79
671.327	4301.42
671.518	4176.49
671.709	4248.17
671.9	4399.72
672.091	4297.32
672.282	4199.02
672.473	4221.55
672.664	4387.43
672.855	4170.35
673.046	4250.22
673.237	4213.35
673.428	4158.06
673.619	4098.67
673.809	4135.53
674	3998.32
674.191	4178.54
674.382	4018.8
674.573	4100.72
674.764	4131.44
674.954	4020.85
675.145	4035.18
675.336	3840.62
675.527	3955.31
675.717	4057.71
675.908	4037.23
676.099	3949.17
676.289	3916.4
676.48	3869.3
676.671	3758.71
676.861	4035.18
677.052	3897.97
677.243	3820.14
677.433	3848.82
677.624	3943.02
677.814	3791.47
678.005	3986.03
678.195	3787.38
678.386	3797.62
678.576	3883.63
678.767	3846.77
678.957	3791.47
679.148	3752.56
679.338	3791.47
679.529	3793.52
679.719	3928.69
679.909	3807.86
680.1	3654.26
680.29	3824.24
680.481	3746.42
680.671	3777.14
680.861	3736.18
681.052	3707.51
681.242	3668.59
681.432	3676.79
681.622	3619.44
681.813	3635.83
682.003	3582.58
682.193	3605.11
682.383	3570.29
682.573	3617.4
682.764	3570.29
682.954	3633.78
683.144	3469.94
683.334	3539.57
683.524	3662.45
683.714	3617.4
683.904	3590.77
684.094	3603.06
684.284	3631.73
684.474	3609.2
684.664	3566.2
684.854	3508.85
685.044	3558
685.234	3525.24
685.424	3471.99
685.614	3385.98
685.804	3469.94
685.994	3418.74
686.184	3603.06
686.374	3547.76
686.564	3400.31
686.753	3596.92
686.943	3328.63
687.133	3443.32
687.323	3385.98
687.513	3422.84
687.702	3357.3
687.892	3508.85
688.082	3373.69
688.272	3312.25
688.461	3248.76
688.651	3267.19
688.841	3336.82
689.03	3367.54
689.22	3279.48
689.41	3218.04
689.599	3273.34
689.789	3279.48
689.979	3238.52
690.168	3244.67
690.358	3218.04
690.547	3197.56
690.737	3240.57
690.926	3111.55
691.116	3148.41
691.305	3050.11
691.495	3177.08
691.684	3271.29
691.874	3125.88
692.063	3181.18
692.252	3101.31
692.442	3089.02
692.631	2943.61
692.82	3054.2
693.01	3060.35
693.199	3177.08
693.388	3015.29
693.578	2996.86
693.767	2945.66
693.956	3052.16
694.146	3066.49
694.335	3080.83
694.524	2931.33
694.713	3019.39
694.902	3005.05
695.092	3015.29
695.281	3043.96
695.47	2990.72
695.659	2894.46
695.848	2916.99
696.037	3089.02
696.226	3021.44
696.415	2914.94
696.604	3062.4
696.793	2914.94
696.982	2964.09
697.171	3033.72
697.36	2888.32
697.549	2923.13
697.738	2873.98
697.927	2816.64
698.116	2828.93
698.305	2935.42
698.494	2980.48
698.683	2859.65
698.872	2853.5
699.061	2755.2
699.25	2960
699.438	2859.65
699.627	2800.26
699.816	2955.9
700.005	2935.42
700.193	2947.71
700.382	2937.47
700.571	2927.23
700.76	2855.55
700.948	3031.68
701.137	2880.13
701.326	2923.13
701.514	2855.55
701.703	2871.93
701.892	2849.41
702.08	3000.96
702.269	2972.29
702.457	2925.18
702.646	2884.22
702.834	2812.54
703.023	2878.08
703.212	2806.4
703.4	2857.6
703.589	2824.83
703.777	2855.55
703.965	2871.93
704.154	2992.77
704.342	2925.18
704.531	2906.75
704.719	2783.87
704.907	2939.52
705.096	2896.51
705.284	2964.09
705.472	2953.85
705.661	2912.89
705.849	2968.19
706.037	2810.5
706.226	2886.27
706.414	2853.5
706.602	2859.65
706.79	2824.83
706.979	2933.37
707.167	2921.09
707.355	2878.08
707.543	2826.88
707.731	2884.22
707.919	2810.5
708.107	2841.22
708.296	2777.73
708.484	2787.97
708.672	2865.79
708.86	2822.78
709.048	2810.5
709.236	2869.89
709.424	2843.26
709.612	2847.36
709.8	2738.82
709.988	2761.34
710.176	2886.27
710.364	2867.84
710.551	2878.08
710.739	2792.06
710.927	2783.87
711.115	2783.87
711.303	2787.97
711.491	2730.62
711.679	2816.64
711.866	2847.36
712.054	2796.16
712.242	2812.54
712.43	2871.93
712.617	2820.74
712.805	2712.19
712.993	2736.77
713.181	2818.69
713.368	2824.83
713.556	2880.13
713.744	2730.62
713.931	2665.09
714.119	2767.49
714.306	2712.19
714.494	2751.1
714.682	2749.06
714.869	2833.02
715.057	2769.54
715.244	2759.3
715.432	2714.24
715.619	2808.45
715.807	2685.57
715.994	2908.8
716.182	2747.01
716.369	2761.34
716.556	2687.62
716.744	2681.47
716.931	2769.54
717.119	2869.89
717.306	2632.32
717.493	2841.22
717.681	2660.99
717.868	2890.37
718.055	2710.15
718.242	2566.79
718.43	2658.95
718.617	2695.81
718.804	2841.22
718.991	2787.97
719.179	2708.1
719.366	2720.39
719.553	2753.15
719.74	2740.86
719.927	2615.94
720.114	2775.68
720.301	2663.04
720.488	2638.47
720.676	2714.24
720.863	2712.19
721.05	2718.34
721.237	2726.53
721.424	2675.33
721.611	2767.49
721.798	2646.66
721.985	2589.32
722.172	2656.9
722.358	2687.62
722.545	2828.93
722.732	2665.09
722.919	2675.33
723.106	2577.03
723.293	2613.89
723.48	2675.33
723.667	2622.08
723.853	2648.71
724.04	2722.43
724.227	2589.32
724.414	2624.13
724.6	2630.27
724.787	2691.71
724.974	2521.73
725.161	2617.99
725.347	2603.65
725.534	2658.95
725.72	2611.84
725.907	2658.95
726.094	2704
726.28	2630.27
726.467	2656.9
726.653	2660.99
726.84	2658.95
727.027	2781.82
727.213	2554.5
727.4	2534.02
727.586	2716.29
727.773	2599.56
727.959	2589.32
728.145	2529.92
728.332	2591.36
728.518	2589.32
728.705	2706.05
728.891	2538.12
729.077	2622.08
729.264	2574.98
729.45	2568.84
729.636	2595.46
729.823	2646.66
730.009	2591.36
730.195	2476.68
730.382	2570.88
730.568	2589.32
730.754	2599.56
730.94	2546.31
731.126	2591.36
731.313	2525.83
731.499	2591.36
731.685	2597.51
731.871	2568.84
732.057	2652.8
732.243	2515.59
732.429	2478.72
732.615	2525.83
732.801	2493.06
732.987	2620.03
733.173	2536.07
733.359	2558.6
733.545	2474.63
733.731	2595.46
733.917	2464.39
734.103	2620.03
734.289	2599.56
734.475	2579.08
734.661	2558.6
734.847	2607.75
735.033	2429.57
735.219	2390.66
735.404	2591.36
735.59	2548.36
735.776	2560.64
735.962	2542.21
736.148	2525.83
736.333	2474.63
736.519	2437.77
736.705	2419.33
736.89	2456.2
737.076	2411.14
737.262	2374.28
737.447	2472.58
737.633	2388.61
737.819	2361.99
738.004	2374.28
738.19	2302.6
738.375	2452.1
738.561	2380.42
738.747	2361.99
738.932	2433.67
739.118	2486.92
739.303	2271.88
739.489	2407.05
739.674	2364.04
739.859	2347.65
740.045	2382.47
740.23	2306.7
740.416	2396.81
740.601	2388.61
740.786	2392.71
740.972	2419.33
741.157	2280.07
741.342	2224.78
741.528	2271.88
741.713	2290.31
741.898	2300.55
742.084	2224.78
742.269	2333.32
742.454	2239.11
742.639	2239.11
742.824	2249.35
743.01	2312.84
743.195	2321.03
743.38	2247.3
743.565	2222.73
743.75	2239.11
743.935	2208.39
744.12	2308.74
744.305	2083.47
744.49	2169.48
744.675	2208.39
744.86	2200.2
745.045	2091.66
745.23	2120.33
745.415	2210.44
745.6	2140.81
745.785	2058.89
745.97	2032.27
746.155	2091.66
746.34	2124.43
746.525	2026.12
746.71	2050.7
746.895	2054.8
747.079	1976.97
747.264	2005.64
747.449	2034.32
747.634	2116.23
747.819	1989.26
748.003	1933.97
748.188	2026.12
748.373	1974.92
748.557	2017.93
748.742	1911.44
748.927	1837.71
749.111	1817.23
749.296	1794.7
749.481	1868.43
749.665	1893.01
749.85	1749.65
750.034	1837.71
750.219	1839.76
750.404	1837.71
750.588	1735.31
750.773	1815.18
750.957	1700.5
751.141	1895.05
751.326	1796.75
751.51	1766.03
751.695	1704.59
751.879	1690.26
752.064	1708.69
752.248	1665.68
752.432	1753.74
752.617	1723.02
752.801	1641.11
752.985	1565.33
753.17	1655.44
753.354	1671.83
753.538	1659.54
753.722	1620.63
753.907	1602.19
754.091	1495.7
754.275	1594
754.459	1657.49
754.643	1489.56
754.828	1540.76
755.012	1583.76
755.196	1464.98
755.38	1606.29
755.564	1544.85
755.748	1551
755.932	1561.23
756.116	1503.89
756.3	1483.41
756.484	1440.4
756.668	1456.79
756.852	1444.5
757.036	1417.88
757.22	1407.64
757.404	1387.16
757.588	1362.58
757.772	1419.92
757.956	1424.02
758.14	1372.82
758.323	1356.44
758.507	1383.06
758.691	1354.39
758.875	1329.81
759.059	1268.38
759.242	1323.67
759.426	1335.96
759.61	1233.56
759.794	1278.62
759.977	1260.18
760.161	1301.14
760.345	1213.08
760.528	1229.46
760.712	1331.86
760.895	1295
761.079	1206.94
761.263	1178.26
761.446	1211.03
761.63	1184.41
761.813	1297.05
761.997	1176.22
762.18	1141.4
762.364	1168.02
762.547	1245.85
762.731	1202.84
762.914	1204.89
763.098	1096.35
763.281	1176.22
763.464	1106.59
763.648	1082.01
763.831	1157.79
764.015	1106.59
764.198	1092.25
764.381	1155.74
764.564	1143.45
764.748	1194.65
764.931	1129.11
765.114	1002.14
765.297	1190.55
765.481	1065.63
765.664	1047.19
765.847	1145.5
766.03	1077.91
766.213	1075.87
766.397	981.66
766.58	1030.81
766.763	1082.01
766.946	1039
767.129	1149.59
767.312	950.94
767.495	1002.14
767.678	1034.91
767.861	1043.1
768.044	1002.14
768.227	1034.91
768.41	952.99
768.593	1090.2
768.776	996
768.959	1077.91
769.142	948.89
769.324	993.95
769.507	973.47
769.69	971.42
769.873	965.28
770.056	936.6
770.239	955.04
770.421	948.89
770.604	971.42
770.787	975.52
770.97	920.22
771.152	969.37
771.335	957.08
771.518	944.8
771.7	936.6
771.883	996
772.066	885.41
772.248	942.75
772.431	909.98
772.613	926.36
772.796	848.54
772.978	883.36
773.161	877.21
773.343	852.64
773.526	828.06
773.708	877.21
773.891	840.35
774.073	871.07
774.256	807.58
774.438	879.26
774.621	862.88
774.803	860.83
774.985	799.39
775.168	848.54
775.35	756.38
775.532	799.39
775.715	664.22
775.897	762.53
776.079	778.91
776.261	760.48
776.444	805.53
776.626	764.58
776.808	785.05
776.99	733.86
777.173	783.01
777.355	785.05
777.537	780.96
777.719	709.28
777.901	699.04
778.083	707.23
778.265	699.04
778.447	770.72
778.629	676.51
778.811	756.38
778.993	744.1
779.175	752.29
779.357	731.81
779.539	688.8
779.721	666.27
779.903	770.72
780.085	557.73
780.267	709.28
780.449	729.76
780.631	625.31
780.812	694.94
780.994	664.22
781.176	723.62
781.358	627.36
781.54	565.92
781.721	703.14
781.903	633.51
782.085	631.46
782.267	576.16
782.448	596.64
782.63	498.34
782.812	600.74
782.993	557.73
783.175	563.87
783.357	582.31
783.538	574.11
783.72	592.55
783.901	512.67
784.083	465.57
784.264	502.44
784.446	500.39
784.627	535.2
784.809	574.11
784.99	555.68
785.172	541.35
785.353	559.78
785.535	510.63
785.716	430.76
785.897	459.43
786.079	463.52
786.26	582.31
786.441	451.24
786.623	459.43
786.804	508.58
786.985	570.02
787.167	516.77
787.348	434.85
787.529	445.09
787.71	375.46
787.891	451.24
788.073	457.38
788.254	371.37
788.435	490.15
788.616	420.52
788.797	395.94
788.978	436.9
789.159	424.61
789.34	522.91
789.522	414.37
789.703	459.43
789.884	438.95
790.065	498.34
790.246	375.46
790.427	471.72
790.607	533.15
790.788	416.42
790.969	377.51
791.15	379.56
791.331	418.47
791.512	414.37
791.693	361.13
791.874	375.46
792.054	408.23
792.235	455.33
792.416	449.19
792.597	408.23
792.778	400.04
792.958	389.8
793.139	391.84
793.32	428.71
793.5	318.12
793.681	391.84
793.862	330.41
794.042	336.55
794.223	320.17
794.404	381.6
794.584	271.01
794.765	422.56
794.945	371.37
795.126	340.65
795.306	348.84
795.487	402.08
795.667	285.35
795.848	283.3
796.028	344.74
796.209	340.65
796.389	258.73
796.57	340.65
796.75	361.13
796.93	336.55
797.111	322.21
797.291	322.21
797.471	416.42
797.652	307.88
797.832	283.3
798.012	320.17
798.192	295.59
798.373	264.87
798.553	287.4
798.733	254.63
798.913	301.73
799.093	277.16
799.274	324.26
799.454	295.59
799.634	340.65
799.814	305.83
799.994	293.54
800.174	215.72
800.354	250.53
800.534	242.34
800.714	256.68
800.894	189.1
801.074	238.25
801.254	246.44
801.434	318.12
801.614	244.39
801.794	277.16
801.974	645.79
802.154	281.25
802.334	275.11
802.514	256.68
802.693	209.58
802.873	225.96
803.053	357.03
803.233	230.06
803.413	250.53
803.592	246.44
803.772	297.64
803.952	277.16
804.131	291.49
804.311	271.01
804.491	287.4
804.67	232.1
804.85	287.4
805.03	266.92
805.209	209.58
805.389	281.25
805.568	228.01
805.748	225.96
805.928	275.11
806.107	256.68
806.287	258.73
806.466	289.45
806.646	228.01
806.825	221.86
807.004	238.25
807.184	197.29
807.363	225.96
807.543	256.68
807.722	166.57
807.901	240.3
808.081	221.86
808.26	211.62
808.439	219.82
808.619	193.19
808.798	205.48
808.977	303.78
809.156	156.33
809.336	168.62
809.515	168.62
809.694	266.92
809.873	195.24
810.052	201.38
810.231	252.58
810.411	213.67
810.59	305.83
810.769	111.27
810.948	182.95
811.127	133.8
811.306	166.57
811.485	109.23
811.664	207.53
811.843	139.94
812.022	281.25
812.201	182.95
812.38	228.01
812.559	209.58
812.737	199.34
812.916	195.24
813.095	201.38
813.274	242.34
813.453	150.18
813.632	221.86
813.811	150.18
813.989	160.42
814.168	164.52
814.347	158.38
814.526	68.27
814.704	236.2
814.883	176.81
815.062	131.75
815.24	209.58
815.419	150.18
815.598	170.66
815.776	68.27
815.955	148.14
816.133	205.48
816.312	174.76
816.49	94.89
816.669	185
816.847	170.66
817.026	248.49
817.204	150.18
817.383	187.05
817.561	172.71
817.74	187.05
817.918	150.18
818.097	191.14
818.275	148.14
818.453	152.23
818.632	217.77
818.81	133.8
818.988	107.18
819.167	191.14
819.345	150.18
819.523	154.28
819.701	152.23
819.879	150.18
820.058	127.66
820.236	166.57
820.414	90.79
820.592	144.04
820.77	160.42
820.948	127.66
821.127	107.18
821.305	178.86
821.483	121.51
821.661	96.94
821.839	185
822.017	135.85
822.195	170.66
822.373	115.37
822.551	117.42
822.729	195.24
822.907	131.75
823.085	166.57
823.262	27.31
823.44	178.86
823.618	172.71
823.796	70.31
823.974	146.09
824.152	180.9
824.329	117.42
824.507	271.01
824.685	133.8
824.863	168.62
825.04	76.46
825.218	133.8
825.396	66.22
825.574	195.24
825.751	146.09
825.929	195.24
826.107	141.99
826.284	156.33
826.462	174.76
826.639	94.89
826.817	105.13
826.994	144.04
827.172	133.8
827.349	166.57
827.527	195.24
827.704	80.55
827.882	156.33
828.059	141.99
828.237	103.08
828.414	131.75
828.591	92.84
828.769	158.38
828.946	113.32
829.124	92.84
829.301	113.32
829.478	82.6
829.655	125.61
829.833	41.64
830.01	80.55
830.187	141.99
830.364	131.75
830.542	84.65
830.719	144.04
830.896	119.46
831.073	166.57
831.25	98.99
831.427	172.71
831.604	86.7
831.782	105.13
831.959	123.56
832.136	148.14
832.313	144.04
832.49	103.08
832.667	82.6
832.844	10.92
833.021	74.41
833.198	90.79
833.374	78.51
833.551	141.99
833.728	96.94
833.905	78.51
834.082	101.03
834.259	68.27
834.436	133.8
834.612	88.75
834.789	172.71
834.966	64.17
835.143	74.41
835.319	121.51
835.496	131.75
835.673	64.17
835.85	123.56
836.026	150.18
836.203	115.37
836.38	64.17
836.556	78.51
836.733	25.26
836.909	109.23
837.086	94.89
837.262	158.38
837.439	76.46
837.616	135.85
837.792	53.93
837.968	43.69
838.145	64.17
838.321	92.84
838.498	105.13
838.674	103.08
838.851	62.12
839.027	60.07
839.203	90.79
839.38	41.64
839.556	25.26
839.732	96.94
839.909	115.37
840.085	103.08
840.261	35.5
840.437	55.98
840.614	72.36
840.79	53.93
840.966	55.98
841.142	115.37
841.318	82.6
841.494	137.9
841.671	125.61
841.847	88.75
842.023	80.55
842.199	119.46
842.375	105.13
842.551	78.51
842.727	43.69
842.903	146.09
843.079	90.79
843.255	109.23
843.431	64.17
843.607	74.41
843.783	25.26
843.959	125.61
844.134	27.31
844.31	70.31
844.486	60.07
844.662	94.89
844.838	-32.08
845.013	107.18
845.189	90.79
845.365	43.69
845.541	25.26
845.716	31.4
845.892	80.55
846.068	51.88
846.244	2.73
846.419	105.13
846.595	27.31
846.77	10.92
846.946	21.16
847.122	92.84
847.297	33.45
847.473	135.85
847.648	27.31
847.824	53.93
847.999	-7.51
848.175	33.45
848.35	121.51
848.526	101.03
848.701	90.79
848.876	27.31
849.052	70.31
849.227	78.51
849.403	-21.84
849.578	113.32
849.753	29.35
849.929	-15.7
850.104	74.41
850.279	105.13
850.454	-11.61
850.63	58.03
850.805	35.5
850.98	74.41
851.155	51.88
851.33	31.4
851.505	19.11
851.681	62.12
851.856	76.46
852.031	80.55
852.206	25.26
852.381	58.03
852.556	64.17
852.731	45.74
852.906	76.46
853.081	31.4
853.256	58.03
853.431	29.35
853.606	27.31
853.781	29.35
853.956	47.79
854.131	10.92
854.305	2.73
854.48	10.92
854.655	37.55
854.83	47.79
855.005	64.17
855.18	2.73
855.354	53.93
855.529	25.26
855.704	23.21
855.879	101.03
856.053	86.7
856.228	70.31
856.403	27.31
856.577	101.03
856.752	-27.99
856.926	68.27
857.101	105.13
857.276	33.45
857.45	58.03
857.625	55.98
857.799	-21.84
857.974	-40.28
858.148	27.31
858.323	6.83
858.497	41.64
858.672	43.69
858.846	-21.84
859.02	0.68
859.195	-30.04
859.369	47.79
859.543	19.11
859.718	109.23
859.892	39.59
860.066	-3.41
860.241	86.7
860.415	21.16
860.589	23.21
860.763	-21.84
860.938	-54.61
861.112	80.55
861.286	35.5
861.46	10.92
861.634	-9.56
861.808	101.03
861.982	0.68
862.157	15.02
862.331	39.59
862.505	12.97
862.679	-25.94
862.853	27.31
863.027	17.07
863.201	101.03
863.375	-15.7
863.549	55.98
863.722	72.36
863.896	103.08
864.07	96.94
864.244	53.93
864.418	64.17
864.592	117.42
864.766	47.79
864.939	64.17
865.113	-46.42
865.287	21.16
865.461	55.98
865.634	107.18
865.808	70.31
865.982	19.11
866.156	39.59
866.329	8.87
866.503	-17.75
866.676	84.65
866.85	10.92
867.024	37.55
867.197	49.83
867.371	37.55
867.544	60.07
867.718	45.74
867.891	39.59
868.065	-7.51
868.238	58.03
868.412	47.79
868.585	41.64
868.759	25.26
868.932	-3.41
869.105	-5.46
869.279	33.45
869.452	74.41
869.625	90.79
869.799	4.78
869.972	25.26
870.145	23.21
870.319	12.97
870.492	-15.7
870.665	37.55
870.838	49.83
871.011	33.45
871.185	10.92
871.358	92.84
871.531	41.64
871.704	39.59
871.877	39.59
872.05	-58.71
872.223	-11.61
872.396	58.03
872.569	25.26
872.742	-9.56
872.915	62.12
873.088	12.97
873.261	43.69
873.434	-42.32
873.607	103.08
873.78	60.07
873.953	25.26
874.126	47.79
874.299	35.5
874.471	27.31
874.644	43.69
874.817	96.94
874.99	80.55
875.163	17.07
875.335	31.4
875.508	37.55
875.681	60.07
875.853	-38.23
876.026	-21.84
876.199	39.59
876.371	90.79
876.544	37.55
876.717	43.69
876.889	-19.8
877.062	86.7
877.234	-27.99
877.407	47.79
877.579	84.65
877.752	45.74
877.924	107.18
878.097	49.83
878.269	-73.04
878.442	33.45
878.614	82.6
878.786	39.59
878.959	-15.7
879.131	60.07
879.303	-36.18
879.476	31.4
879.648	29.35
879.82	37.55
879.993	-7.51
880.165	25.26
880.337	58.03
880.509	53.93
880.681	10.92
880.854	-23.89
881.026	19.11
881.198	51.88
881.37	-9.56
881.542	25.26
881.714	47.79
881.886	-25.94
882.058	2.73
882.23	-3.41
882.402	31.4
882.574	15.02
882.746	43.69
882.918	113.32
883.09	60.07
883.262	80.55
883.434	51.88
883.606	-7.51
883.778	-9.56
883.95	64.17
884.122	-23.89
884.293	74.41
884.465	-21.84
884.637	103.08
884.809	15.02
884.98	39.59
885.152	80.55
885.324	35.5
885.496	-25.94
885.667	74.41
885.839	25.26
886.011	76.46
886.182	-30.04
886.354	-5.46
886.525	92.84
886.697	76.46
886.869	33.45
887.04	-19.8
887.212	64.17
887.383	62.12
887.555	-9.56
887.726	53.93
887.897	31.4
888.069	-15.7
888.24	53.93
888.412	-62.8
888.583	39.59
888.754	-15.7
888.926	23.21
889.097	55.98
889.268	-42.32
889.44	-9.56
889.611	0.68
889.782	15.02
889.953	47.79
890.125	23.21
890.296	72.36
890.467	31.4
890.638	27.31
890.809	84.65
890.98	-58.71
891.151	31.4
891.323	43.69
891.494	88.75
891.665	-23.89
891.836	31.4
892.007	39.59
892.178	-83.28
892.349	60.07
892.52	2.73
892.691	-15.7
892.862	35.5
893.032	6.83
893.203	-21.84
893.374	35.5
893.545	-1.37
893.716	41.64
893.887	-17.75
894.057	-7.51
894.228	60.07
894.399	25.26
894.57	121.51
894.74	148.14
894.911	78.51
895.082	27.31
895.253	64.17
895.423	10.92
895.594	62.12
895.764	51.88
895.935	45.74
896.106	33.45
896.276	-19.8
896.447	15.02
896.617	45.74
896.788	39.59
896.958	33.45
897.129	70.31
897.299	80.55
897.47	0.68
897.64	-32.08
897.81	-7.51
897.981	-62.8
898.151	-9.56
898.322	64.17
898.492	19.11
898.662	-68.95
898.832	84.65
899.003	19.11
899.173	-30.04
899.343	80.55
899.513	-60.76
