Data from USB4F104151__214__11-10-36-456.txt Node

Date: Wed Mar 12 11:10:36 EDT 2025
User: louis
Spectrometer: USB4F10415
Trigger mode: 4
Integration Time (sec): 2.000000E-2
Scans to average: 1
Electric dark correction enabled: true
Nonlinearity correction enabled: false
Boxcar width: 0
XAxis mode: Wavelengths
Number of Pixels in Spectrum: 3648
>>>>>Begin Spectral Data<<<<<
178.204	-16.21
178.424	-16.21
178.644	-16.21
178.864	-28.5
179.084	-38.74
179.304	12.46
179.524	-51.03
179.744	-26.45
179.964	30.89
180.184	18.6
180.404	2.22
180.624	-5.97
180.844	18.6
181.064	45.23
181.283	55.47
181.503	-69.46
181.723	-30.55
181.943	-3.93
182.163	65.71
182.383	82.09
182.602	32.94
182.822	0.17
183.042	-40.79
183.262	-12.12
183.482	2.22
183.701	43.18
183.921	34.99
184.141	24.75
184.361	63.66
184.58	24.75
184.8	-20.31
185.02	2.22
185.239	-22.36
185.459	75.95
185.679	77.99
185.898	18.6
186.118	-3.93
186.338	137.38
186.557	-1.88
186.777	-26.45
186.997	37.03
187.216	4.27
187.436	127.14
187.655	55.47
187.875	18.6
188.095	-20.31
188.314	77.99
188.534	94.38
188.753	-38.74
188.973	-77.65
189.192	6.31
189.412	61.61
189.631	49.32
189.851	-22.36
190.07	73.9
190.29	-73.56
190.509	16.55
190.729	22.7
190.948	22.7
191.168	82.09
191.387	20.65
191.607	84.14
191.826	22.7
192.045	-8.02
192.265	-104.28
192.484	-5.97
192.704	20.65
192.923	-22.36
193.142	34.99
193.362	69.8
193.581	-5.97
193.8	-16.21
194.02	-8.02
194.239	2.22
194.458	32.94
194.678	-30.55
194.897	37.03
195.116	-3.93
195.335	20.65
195.555	59.56
195.774	41.13
195.993	-40.79
196.212	45.23
196.432	82.09
196.651	47.27
196.87	24.75
197.089	77.99
197.308	0.17
197.528	43.18
197.747	-69.46
197.966	-1.88
198.185	45.23
198.404	18.6
198.623	2.22
198.842	84.14
199.062	26.79
199.281	57.51
199.5	51.37
199.719	86.19
199.938	-3.93
200.157	96.43
200.376	26.79
200.595	65.71
200.814	30.89
201.033	8.36
201.252	151.72
201.471	75.95
201.69	24.75
201.909	82.09
202.128	-8.02
202.347	59.56
202.566	34.99
202.785	-32.6
203.004	-12.12
203.223	102.57
203.442	26.79
203.661	49.32
203.879	34.99
204.098	32.94
204.317	37.03
204.536	63.66
204.755	49.32
204.974	4.27
205.193	88.23
205.411	32.94
205.63	53.42
205.849	16.55
206.068	10.41
206.287	51.37
206.505	28.84
206.724	-12.12
206.943	51.37
207.162	4.27
207.381	2.22
207.599	41.13
207.818	-20.31
208.037	-16.21
208.255	-32.6
208.474	53.42
208.693	28.84
208.911	8.36
209.13	43.18
209.349	59.56
209.567	26.79
209.786	-16.21
210.005	-44.88
210.223	45.23
210.442	-3.93
210.661	8.36
210.879	-16.21
211.098	73.9
211.316	69.8
211.535	55.47
211.753	-3.93
211.972	32.94
212.191	6.31
212.409	51.37
212.628	34.99
212.846	12.46
213.065	22.7
213.283	-57.17
213.502	90.28
213.72	6.31
213.938	30.89
214.157	8.36
214.375	0.17
214.594	-1.88
214.812	30.89
215.031	2.22
215.249	-10.07
215.467	16.55
215.686	16.55
215.904	-26.45
216.122	-22.36
216.341	-12.12
216.559	34.99
216.778	77.99
216.996	90.28
217.214	94.38
217.432	24.75
217.651	26.79
217.869	45.23
218.087	-102.23
218.306	0.17
218.524	32.94
218.742	-42.84
218.96	-12.12
219.179	-30.55
219.397	59.56
219.615	-14.17
219.833	59.56
220.051	39.08
220.27	71.85
220.488	-28.5
220.706	4.27
220.924	51.37
221.142	28.84
221.36	10.41
221.578	51.37
221.796	-28.5
222.015	20.65
222.233	65.71
222.451	114.86
222.669	-12.12
222.887	39.08
223.105	2.22
223.323	61.61
223.541	-8.02
223.759	49.32
223.977	59.56
224.195	102.57
224.413	37.03
224.631	80.04
224.849	10.41
225.067	96.43
225.285	59.56
225.503	12.46
225.721	-26.45
225.939	-14.17
226.157	4.27
226.375	114.86
226.592	2.22
226.81	-26.45
227.028	-3.93
227.246	94.38
227.464	22.7
227.682	77.99
227.9	28.84
228.117	94.38
228.335	30.89
228.553	24.75
228.771	6.31
228.989	10.41
229.206	47.27
229.424	-5.97
229.642	8.36
229.86	53.42
230.077	90.28
230.295	22.7
230.513	125.1
230.731	6.31
230.948	-46.93
231.166	32.94
231.384	16.55
231.601	-8.02
231.819	37.03
232.037	75.95
232.254	6.31
232.472	-8.02
232.689	6.31
232.907	65.71
233.125	55.47
233.342	-26.45
233.56	55.47
233.777	16.55
233.995	59.56
234.213	45.23
234.43	-32.6
234.648	-12.12
234.865	53.42
235.083	106.67
235.3	-12.12
235.518	69.8
235.735	37.03
235.953	14.51
236.17	49.32
236.388	-5.97
236.605	65.71
236.822	34.99
237.04	16.55
237.257	6.31
237.475	10.41
237.692	96.43
237.909	100.52
238.127	-3.93
238.344	-57.17
238.562	6.31
238.779	16.55
238.996	22.7
239.214	-26.45
239.431	41.13
239.648	0.17
239.865	94.38
240.083	65.71
240.3	-42.84
240.517	4.27
240.735	0.17
240.952	57.51
241.169	45.23
241.386	-1.88
241.603	53.42
241.821	77.99
242.038	14.51
242.255	106.67
242.472	26.79
242.689	73.9
242.907	55.47
243.124	2.22
243.341	34.99
243.558	55.47
243.775	22.7
243.992	16.55
244.209	39.08
244.426	92.33
244.643	45.23
244.86	32.94
245.078	37.03
245.295	67.75
245.512	28.84
245.729	12.46
245.946	57.51
246.163	69.8
246.38	53.42
246.597	4.27
246.814	-3.93
247.031	28.84
247.248	-1.88
247.464	8.36
247.681	39.08
247.898	16.55
248.115	20.65
248.332	-20.31
248.549	43.18
248.766	-3.93
248.983	92.33
249.2	34.99
249.417	41.13
249.633	71.85
249.85	41.13
250.067	47.27
250.284	51.37
250.501	12.46
250.717	63.66
250.934	2.22
251.151	28.84
251.368	45.23
251.585	-3.93
251.801	51.37
252.018	-22.36
252.235	14.51
252.451	51.37
252.668	26.79
252.885	127.14
253.102	-10.07
253.318	82.09
253.535	-69.46
253.752	-57.17
253.968	28.84
254.185	0.17
254.401	24.75
254.618	18.6
254.835	20.65
255.051	82.09
255.268	61.61
255.484	8.36
255.701	69.8
255.917	-36.69
256.134	49.32
256.351	41.13
256.567	32.94
256.784	32.94
257	-16.21
257.217	24.75
257.433	24.75
257.65	16.55
257.866	-1.88
258.082	-63.32
258.299	12.46
258.515	98.47
258.732	59.56
258.948	20.65
259.165	-32.6
259.381	69.8
259.597	14.51
259.814	24.75
260.03	8.36
260.246	49.32
260.463	-22.36
260.679	49.32
260.895	59.56
261.112	37.03
261.328	-30.55
261.544	-16.21
261.761	30.89
261.977	14.51
262.193	-3.93
262.409	96.43
262.626	-18.26
262.842	49.32
263.058	55.47
263.274	28.84
263.49	69.8
263.707	10.41
263.923	10.41
264.139	92.33
264.355	114.86
264.571	82.09
264.787	20.65
265.004	75.95
265.22	20.65
265.436	-3.93
265.652	43.18
265.868	77.99
266.084	6.31
266.3	4.27
266.516	32.94
266.732	37.03
266.948	24.75
267.164	-44.88
267.38	77.99
267.596	26.79
267.812	47.27
268.028	82.09
268.244	0.17
268.46	-14.17
268.676	8.36
268.892	43.18
269.108	-5.97
269.324	61.61
269.54	-26.45
269.756	4.27
269.972	69.8
270.188	-28.5
270.403	-5.97
270.619	12.46
270.835	-3.93
271.051	-3.93
271.267	-46.93
271.483	47.27
271.698	2.22
271.914	49.32
272.13	-59.22
272.346	73.9
272.562	90.28
272.777	102.57
272.993	59.56
273.209	41.13
273.425	-16.21
273.64	14.51
273.856	143.53
274.072	-63.32
274.287	123.05
274.503	8.36
274.719	2.22
274.934	65.71
275.15	26.79
275.366	-3.93
275.581	24.75
275.797	6.31
276.012	80.04
276.228	10.41
276.444	34.99
276.659	8.36
276.875	12.46
277.09	16.55
277.306	24.75
277.521	73.9
277.737	102.57
277.952	86.19
278.168	-55.12
278.383	32.94
278.599	-3.93
278.814	22.7
279.03	-3.93
279.245	49.32
279.461	53.42
279.676	69.8
279.892	102.57
280.107	80.04
280.322	10.41
280.538	30.89
280.753	61.61
280.969	67.75
281.184	26.79
281.399	18.6
281.615	4.27
281.83	32.94
282.045	-51.03
282.26	67.75
282.476	14.51
282.691	75.95
282.906	-36.69
283.122	20.65
283.337	-3.93
283.552	39.08
283.767	51.37
283.983	69.8
284.198	-32.6
284.413	94.38
284.628	-77.65
284.843	90.28
285.058	12.46
285.274	41.13
285.489	63.66
285.704	2.22
285.919	37.03
286.134	45.23
286.349	73.9
286.564	53.42
286.779	28.84
286.995	-5.97
287.21	-40.79
287.425	14.51
287.64	80.04
287.855	6.31
288.07	-63.32
288.285	-3.93
288.5	47.27
288.715	16.55
288.93	-1.88
289.145	82.09
289.36	20.65
289.575	32.94
289.79	30.89
290.004	8.36
290.219	80.04
290.434	77.99
290.649	67.75
290.864	39.08
291.079	-3.93
291.294	22.7
291.509	57.51
291.724	8.36
291.938	28.84
292.153	80.04
292.368	20.65
292.583	51.37
292.798	41.13
293.012	55.47
293.227	41.13
293.442	18.6
293.657	-46.93
293.871	118.95
294.086	63.66
294.301	92.33
294.516	49.32
294.73	-30.55
294.945	-28.5
295.16	-26.45
295.374	4.27
295.589	92.33
295.804	53.42
296.018	71.85
296.233	69.8
296.447	-8.02
296.662	32.94
296.877	116.9
297.091	8.36
297.306	88.23
297.52	80.04
297.735	71.85
297.949	39.08
298.164	61.61
298.378	24.75
298.593	-14.17
298.807	41.13
299.022	53.42
299.236	26.79
299.451	30.89
299.665	-1.88
299.88	143.53
300.094	30.89
300.309	8.36
300.523	-12.12
300.737	-12.12
300.952	14.51
301.166	104.62
301.381	2.22
301.595	-42.84
301.809	-12.12
302.024	-1.88
302.238	-16.21
302.452	12.46
302.667	0.17
302.881	69.8
303.095	-48.98
303.309	34.99
303.524	-67.41
303.738	90.28
303.952	51.37
304.166	106.67
304.381	37.03
304.595	141.48
304.809	-5.97
305.023	32.94
305.237	-8.02
305.452	-26.45
305.666	121
305.88	39.08
306.094	90.28
306.308	37.03
306.522	90.28
306.736	43.18
306.95	-3.93
307.164	34.99
307.379	69.8
307.593	110.76
307.807	69.8
308.021	-22.36
308.235	45.23
308.449	10.41
308.663	-46.93
308.877	69.8
309.091	6.31
309.305	73.9
309.519	26.79
309.733	39.08
309.947	45.23
310.161	86.19
310.374	14.51
310.588	94.38
310.802	-53.08
311.016	100.52
311.23	37.03
311.444	47.27
311.658	-20.31
311.872	-26.45
312.085	75.95
312.299	-8.02
312.513	32.94
312.727	20.65
312.941	49.32
313.154	22.7
313.368	59.56
313.582	106.67
313.796	75.95
314.009	71.85
314.223	16.55
314.437	-8.02
314.651	26.79
314.864	28.84
315.078	65.71
315.292	47.27
315.505	28.84
315.719	100.52
315.933	82.09
316.146	-3.93
316.36	0.17
316.573	43.18
316.787	-1.88
317.001	41.13
317.214	24.75
317.428	39.08
317.641	53.42
317.855	12.46
318.068	-10.07
318.282	82.09
318.495	8.36
318.709	-8.02
318.922	37.03
319.136	73.9
319.349	43.18
319.563	14.51
319.776	92.33
319.99	92.33
320.203	53.42
320.417	45.23
320.63	65.71
320.843	26.79
321.057	80.04
321.27	37.03
321.483	53.42
321.697	-3.93
321.91	39.08
322.124	59.56
322.337	28.84
322.55	-14.17
322.763	8.36
322.977	12.46
323.19	37.03
323.403	63.66
323.617	22.7
323.83	84.14
324.043	30.89
324.256	18.6
324.469	39.08
324.683	22.7
324.896	16.55
325.109	73.9
325.322	12.46
325.535	63.66
325.748	-12.12
325.962	-5.97
326.175	34.99
326.388	73.9
326.601	104.62
326.814	34.99
327.027	65.71
327.24	37.03
327.453	0.17
327.666	28.84
327.879	75.95
328.092	77.99
328.305	-22.36
328.518	-10.07
328.731	-20.31
328.944	28.84
329.157	45.23
329.37	18.6
329.583	10.41
329.796	82.09
330.009	14.51
330.222	112.81
330.435	39.08
330.648	90.28
330.861	53.42
331.073	26.79
331.286	65.71
331.499	45.23
331.712	59.56
331.925	22.7
332.138	67.75
332.35	65.71
332.563	10.41
332.776	86.19
332.989	4.27
333.202	77.99
333.414	4.27
333.627	59.56
333.84	-28.5
334.053	133.29
334.265	-14.17
334.478	-18.26
334.691	100.52
334.903	0.17
335.116	-3.93
335.329	73.9
335.541	12.46
335.754	-3.93
335.966	57.51
336.179	24.75
336.392	49.32
336.604	71.85
336.817	90.28
337.029	0.17
337.242	30.89
337.454	67.75
337.667	24.75
337.88	92.33
338.092	98.47
338.305	45.23
338.517	-5.97
338.729	24.75
338.942	133.29
339.154	37.03
339.367	18.6
339.579	49.32
339.792	14.51
340.004	135.34
340.217	37.03
340.429	-8.02
340.641	-3.93
340.854	47.27
341.066	2.22
341.278	77.99
341.491	94.38
341.703	-12.12
341.915	47.27
342.128	24.75
342.34	-8.02
342.552	10.41
342.764	47.27
342.977	28.84
343.189	51.37
343.401	26.79
343.613	55.47
343.826	51.37
344.038	6.31
344.25	30.89
344.462	8.36
344.674	67.75
344.886	73.9
345.099	12.46
345.311	-16.21
345.523	55.47
345.735	59.56
345.947	61.61
346.159	67.75
346.371	61.61
346.583	4.27
346.795	57.51
347.007	-24.4
347.219	4.27
347.431	63.66
347.643	106.67
347.855	24.75
348.067	8.36
348.279	102.57
348.491	24.75
348.703	82.09
348.915	-18.26
349.127	45.23
349.339	82.09
349.551	8.36
349.763	92.33
349.975	73.9
350.187	80.04
350.399	4.27
350.61	131.24
350.822	24.75
351.034	-14.17
351.246	67.75
351.458	100.52
351.669	59.56
351.881	45.23
352.093	41.13
352.305	22.7
352.517	82.09
352.728	24.75
352.94	-20.31
353.152	86.19
353.363	80.04
353.575	10.41
353.787	114.86
353.999	2.22
354.21	63.66
354.422	-3.93
354.633	14.51
354.845	24.75
355.057	0.17
355.268	51.37
355.48	43.18
355.692	28.84
355.903	69.8
356.115	82.09
356.326	16.55
356.538	-12.12
356.749	65.71
356.961	108.71
357.172	4.27
357.384	98.47
357.595	47.27
357.807	43.18
358.018	16.55
358.23	77.99
358.441	37.03
358.653	22.7
358.864	71.85
359.075	20.65
359.287	37.03
359.498	28.84
359.709	63.66
359.921	75.95
360.132	49.32
360.344	67.75
360.555	47.27
360.766	-18.26
360.977	41.13
361.189	67.75
361.4	34.99
361.611	86.19
361.823	51.37
362.034	37.03
362.245	47.27
362.456	8.36
362.667	12.46
362.879	-26.45
363.09	22.7
363.301	133.29
363.512	-16.21
363.723	61.61
363.935	96.43
364.146	-3.93
364.357	18.6
364.568	0.17
364.779	41.13
364.99	55.47
365.201	55.47
365.412	92.33
365.623	43.18
365.834	16.55
366.045	-14.17
366.256	133.29
366.467	8.36
366.678	39.08
366.889	37.03
367.1	6.31
367.311	149.67
367.522	12.46
367.733	57.51
367.944	88.23
368.155	-3.93
368.366	69.8
368.577	65.71
368.788	65.71
368.999	55.47
369.209	59.56
369.42	63.66
369.631	110.76
369.842	10.41
370.053	20.65
370.264	-16.21
370.474	37.03
370.685	39.08
370.896	43.18
371.107	47.27
371.317	82.09
371.528	32.94
371.739	39.08
371.95	18.6
372.16	24.75
372.371	-12.12
372.582	-3.93
372.792	6.31
373.003	84.14
373.214	127.14
373.424	26.79
373.635	-16.21
373.846	61.61
374.056	26.79
374.267	34.99
374.477	116.9
374.688	69.8
374.898	37.03
375.109	30.89
375.319	8.36
375.53	69.8
375.74	57.51
375.951	24.75
376.161	65.71
376.372	65.71
376.582	14.51
376.793	59.56
377.003	-38.74
377.214	24.75
377.424	37.03
377.635	14.51
377.845	67.75
378.055	75.95
378.266	-12.12
378.476	65.71
378.686	10.41
378.897	125.1
379.107	153.77
379.317	102.57
379.528	20.65
379.738	20.65
379.948	37.03
380.158	86.19
380.369	47.27
380.579	77.99
380.789	92.33
380.999	65.71
381.21	53.42
381.42	80.04
381.63	10.41
381.84	67.75
382.05	28.84
382.261	180.39
382.471	67.75
382.681	32.94
382.891	55.47
383.101	80.04
383.311	-44.88
383.521	75.95
383.731	30.89
383.941	75.95
384.151	63.66
384.361	41.13
384.571	71.85
384.781	37.03
384.991	88.23
385.201	67.75
385.411	49.32
385.621	18.6
385.831	45.23
386.041	26.79
386.251	30.89
386.461	75.95
386.671	-5.97
386.881	-8.02
387.091	-3.93
387.301	26.79
387.511	37.03
387.72	69.8
387.93	45.23
388.14	104.62
388.35	92.33
388.56	49.32
388.769	90.28
388.979	45.23
389.189	45.23
389.399	43.18
389.609	59.56
389.818	84.14
390.028	8.36
390.238	30.89
390.447	49.32
390.657	198.82
390.867	57.51
391.076	0.17
391.286	55.47
391.496	96.43
391.705	45.23
391.915	131.24
392.125	28.84
392.334	77.99
392.544	59.56
392.753	28.84
392.963	92.33
393.172	137.38
393.382	49.32
393.591	71.85
393.801	86.19
394.01	123.05
394.22	30.89
394.429	65.71
394.639	51.37
394.848	69.8
395.058	75.95
395.267	69.8
395.477	57.51
395.686	137.38
395.895	127.14
396.105	125.1
396.314	88.23
396.524	114.86
396.733	73.9
396.942	28.84
397.152	84.14
397.361	94.38
397.57	88.23
397.78	65.71
397.989	53.42
398.198	26.79
398.407	45.23
398.617	37.03
398.826	106.67
399.035	114.86
399.244	139.43
399.453	82.09
399.663	82.09
399.872	102.57
400.081	137.38
400.29	174.25
400.499	49.32
400.708	127.14
400.917	94.38
401.127	75.95
401.336	90.28
401.545	194.73
401.754	110.76
401.963	141.48
402.172	100.52
402.381	53.42
402.59	135.34
402.799	80.04
403.008	51.37
403.217	102.57
403.426	141.48
403.635	59.56
403.844	116.9
404.053	143.53
404.262	34.99
404.471	110.76
404.68	110.76
404.888	104.62
405.097	112.81
405.306	145.58
405.515	219.3
405.724	92.33
405.933	143.53
406.142	147.62
406.35	157.86
406.559	131.24
406.768	114.86
406.977	161.96
407.185	176.3
407.394	241.83
407.603	127.14
407.812	172.2
408.02	241.83
408.229	184.49
408.438	200.87
408.646	190.63
408.855	168.1
409.064	270.5
409.272	233.64
409.481	237.74
409.69	164.01
409.898	270.5
410.107	239.78
410.315	352.42
410.524	254.12
410.733	356.52
410.941	286.89
411.15	377
411.358	362.66
411.567	346.28
411.775	362.66
411.984	350.37
412.192	422.05
412.401	360.61
412.609	276.65
412.818	420
413.026	389.28
413.234	436.39
413.443	413.86
413.651	401.57
413.86	503.97
414.068	503.97
414.276	530.59
414.485	563.36
414.693	569.51
414.901	704.67
415.11	559.27
415.318	567.46
415.526	592.03
415.734	637.09
415.943	735.39
416.151	690.34
416.359	704.67
416.567	823.45
416.776	788.64
416.984	743.58
417.192	835.74
417.4	905.37
417.608	811.17
417.817	917.66
418.025	975
418.233	966.81
418.441	1011.87
418.649	1075.35
418.857	1085.59
419.065	1089.69
419.273	1204.38
419.481	1056.92
419.689	1292.44
419.897	1294.49
420.105	1323.16
420.313	1321.11
420.521	1411.22
420.729	1443.99
420.937	1523.86
421.145	1476.76
421.353	1587.35
421.561	1618.07
421.769	1704.08
421.977	1829.01
422.185	1710.22
422.393	1921.17
422.601	1988.75
422.809	2001.04
423.017	1927.31
423.224	2013.32
423.432	2181.26
423.64	2136.2
423.848	2363.53
424.056	2267.27
424.263	2439.3
424.471	2519.17
424.679	2486.4
424.887	2564.23
425.094	2748.54
425.302	2812.03
425.51	2918.53
425.718	2855.04
425.925	3047.55
426.133	3084.41
426.341	3270.78
426.548	3340.41
426.756	3510.39
426.964	3539.06
427.171	3528.82
427.379	3727.47
427.586	3866.74
427.794	3836.02
428.001	4100.2
428.209	4094.06
428.417	4051.05
428.624	4546.66
428.832	4526.18
429.039	4515.94
429.247	4593.76
429.454	4874.34
429.662	5146.72
429.869	4814.95
430.076	5224.54
430.284	5066.85
430.491	5345.37
430.699	5820.5
430.906	5630.04
431.114	5570.65
431.321	5902.42
431.528	6103.12
431.736	6324.3
431.943	6590.53
432.15	6400.07
432.358	6641.73
432.565	6850.63
432.772	6977.6
432.979	7329.85
433.187	7508.02
433.394	7397.43
433.601	7989.3
433.808	7909.43
434.016	7815.22
434.223	8187.95
434.43	8894.5
434.637	8513.58
434.844	9213.98
435.052	9304.09
435.259	9267.23
435.466	9328.67
435.673	8980.51
435.88	9840.66
436.087	10453
436.294	10287.12
436.501	10047.51
436.708	10293.26
436.915	10795.01
437.122	11278.33
437.329	11186.18
437.537	11462.65
437.743	11761.66
437.95	11612.15
438.157	12161.01
438.364	12574.7
438.571	12498.92
438.778	12451.82
438.985	13739.99
439.192	13371.36
439.399	13576.16
439.606	13244.38
439.813	14086.1
440.02	14979.01
440.227	14675.91
440.433	14526.41
440.64	15005.64
440.847	15048.65
441.054	15290.31
441.261	16441.26
441.467	16199.6
441.674	16396.21
441.881	17147.81
442.088	16914.34
442.294	16949.16
442.501	17434.53
442.708	17479.58
442.914	18263.96
443.121	19169.16
443.328	18405.27
443.534	19810.17
443.741	19451.78
443.948	19054.47
444.154	20545.39
444.361	20453.23
444.568	20594.54
444.774	20481.91
444.981	20580.21
445.187	21458.79
445.394	21976.92
445.6	22011.74
445.807	23965.5
446.013	22781.78
446.22	23412.55
446.426	24280.89
446.633	24604.47
446.839	25366.31
447.046	24246.07
447.252	25808.67
447.459	25431.85
447.665	25513.77
447.871	26677.01
448.078	27576.07
448.284	26480.41
448.491	26908.43
448.697	28053.25
448.903	28641.01
449.11	28944.11
449.316	28075.77
449.522	28874.48
449.728	29808.36
449.935	29456.11
450.141	29794.02
450.347	30367.45
450.553	29310.7
450.76	29347.56
450.966	30645.98
451.172	30299.87
451.378	31178.45
451.584	30299.87
451.791	31153.87
451.997	31227.6
452.203	31737.54
452.409	31364.81
452.615	31737.54
452.821	30295.77
453.027	29736.68
453.233	31416.01
453.44	30252.77
453.646	30338.78
453.852	30570.2
454.058	31129.3
454.264	29652.71
454.47	30828.24
454.676	29908.71
454.882	31114.96
455.088	27905.79
455.294	28962.54
455.5	29097.71
455.705	29363.95
455.911	28227.32
456.117	27701
456.323	27557.64
456.529	25892.64
456.735	26855.18
456.941	26023.71
457.147	25843.49
457.352	24932.14
457.558	24774.45
457.764	24846.13
457.97	24141.63
458.176	23582.53
458.381	23801.66
458.587	22581.07
458.793	22519.64
458.999	21585.76
459.204	23023.44
459.41	22257.5
459.616	20383.6
459.821	20762.48
460.027	20492.15
460.233	20418.42
460.438	19402.63
460.644	19748.73
460.85	18595.73
461.055	18552.72
461.261	18231.19
461.466	17002.41
461.672	16281.52
461.878	17594.27
462.083	16654.25
462.289	16039.86
462.494	16056.25
462.7	15386.56
462.905	14940.1
463.111	15472.57
463.316	15372.22
463.522	15292.35
463.727	15308.74
463.932	14966.73
464.138	14829.51
464.343	15128.52
464.549	14372.82
464.754	15103.94
464.959	14897.1
465.165	14835.66
465.37	14184.4
465.575	13975.51
465.781	14426.06
465.986	14761.93
466.191	14047.19
466.397	13791.19
466.602	12990.44
466.807	13774.81
467.012	13690.84
467.218	13727.71
467.423	13316.06
467.628	13412.32
467.833	13922.26
468.038	13527
468.244	13121.51
468.449	13672.41
468.654	13125.6
468.859	13072.36
469.064	13043.68
469.269	12398.57
469.474	12677.1
469.679	12824.55
469.885	12554.22
470.09	12683.24
470.295	12574.7
470.5	12113.91
470.705	12263.41
470.91	12132.34
471.115	11905.01
471.32	12099.57
471.525	12113.91
471.73	11780.09
471.935	11732.98
472.139	11251.71
472.344	11524.09
472.549	11270.14
472.754	11167.74
472.959	11077.63
473.164	10743.81
473.369	10616.84
473.574	11126.78
473.778	11032.58
473.983	10754.05
474.188	10729.48
474.393	10323.98
474.598	10442.76
474.802	10137.62
475.007	10180.62
475.212	10174.48
475.417	9881.62
475.621	9932.82
475.826	9875.48
476.031	9551.9
476.235	9386.01
476.44	9541.66
476.645	9300
476.849	9390.11
477.054	9246.75
477.259	9277.47
477.463	9078.82
477.668	9068.58
477.872	9148.45
478.077	8925.22
478.282	8724.52
478.486	8566.82
478.691	8826.92
478.895	8716.33
479.1	8634.41
479.304	8644.65
479.509	8210.48
479.713	8407.08
479.918	8202.29
480.122	8056.88
480.326	8243.24
480.531	8290.35
480.735	8253.48
480.94	8112.17
481.144	8474.67
481.348	8114.22
481.553	8083.5
481.757	7843.89
481.961	7923.76
482.166	7962.67
482.37	8065.07
482.574	7958.58
482.778	7917.62
482.983	8065.07
483.187	7921.71
483.391	7956.53
483.595	7837.75
483.8	7675.96
484.004	8146.99
484.208	8044.59
484.412	7741.49
484.616	8044.59
484.821	7804.98
485.025	7741.49
485.229	7852.08
485.433	7745.59
485.637	7893.04
485.841	7589.94
486.045	7841.84
486.249	7825.46
486.453	7645.24
486.657	7952.43
486.861	8112.17
487.065	7757.88
487.269	7942.19
487.473	7694.39
487.677	8112.17
487.881	7831.6
488.085	7936.05
488.289	7850.03
488.493	7983.15
488.697	8026.16
488.901	8038.45
489.105	8054.83
489.309	7917.62
489.512	8106.03
489.716	7815.22
489.92	8130.61
490.124	7876.66
490.328	8046.64
490.531	8046.64
490.735	8159.28
490.939	8020.02
491.143	8087.6
491.346	8106.03
491.55	8165.42
491.754	8327.21
491.958	8101.94
492.161	8235.05
492.365	8267.82
492.569	8138.8
492.772	8316.97
492.976	8388.65
493.18	8474.67
493.383	8656.93
493.587	8529.96
493.79	8513.58
493.994	8568.87
494.197	8464.43
494.401	8622.12
494.605	8620.07
494.808	9023.52
495.012	8941.6
495.215	8869.92
495.419	9000.99
495.622	8970.27
495.825	9463.83
496.029	9168.93
496.232	9267.23
496.436	9281.57
496.639	9676.82
496.843	9547.8
497.046	9596.95
497.249	9914.39
497.453	9832.47
497.656	10096.66
497.859	9811.99
498.063	10022.93
498.266	10252.3
498.469	10235.92
498.673	10321.93
498.876	10432.52
499.079	10586.12
499.282	10590.22
499.485	10743.81
499.689	10772.49
499.892	11157.5
500.095	10989.57
500.298	11194.37
500.501	11311.1
500.705	11444.22
500.908	11876.34
501.111	11649.02
501.314	11679.74
501.517	11960.31
501.72	12185.58
501.923	12242.93
502.126	12269.55
502.329	12419.05
502.532	12457.96
502.735	12982.24
502.938	12980.2
503.141	12965.86
503.344	13055.97
503.547	13309.92
503.75	13389.79
503.953	13461.47
504.156	13895.64
504.359	13983.7
504.562	13811.67
504.765	14225.36
504.968	14311.38
505.17	14684.11
505.373	14469.07
505.576	14968.77
505.779	15196.1
505.982	15091.65
506.185	15267.78
506.387	15347.65
506.59	15595.45
506.793	15726.52
506.996	15646.65
507.198	15980.47
507.401	16082.87
507.604	16222.13
507.807	16506.8
508.009	16734.12
508.212	16805.8
508.415	17002.41
508.617	17194.92
508.82	17551.26
509.022	17227.68
509.225	17508.26
509.428	18071.45
509.63	18010.01
509.833	18169.75
510.035	18515.86
510.238	18583.44
510.44	18943.88
510.643	19085.19
510.845	19175.3
511.048	18898.83
511.25	19480.45
511.453	19593.09
511.655	20172.66
511.858	19978.11
512.06	20160.38
512.262	20512.63
512.465	20416.37
512.667	20823.92
512.87	20801.39
513.072	20932.46
513.274	21337.96
513.477	21493.6
513.679	21825.37
513.881	22052.7
514.084	22314.84
514.286	22462.29
514.488	22587.22
514.69	23406.41
514.893	22962
515.095	23054.15
515.297	23451.46
515.499	23459.65
515.701	23811.9
515.904	23977.79
516.106	24203.07
516.308	24575.8
516.51	24604.47
516.712	24825.65
516.914	24995.63
517.116	25415.46
517.318	25347.88
517.52	25573.16
517.722	25757.47
517.925	26015.52
518.127	26605.33
518.329	26808.08
518.531	26482.45
518.733	27252.49
518.935	27490.06
519.136	27201.29
519.338	28026.62
519.54	28210.94
519.742	28112.64
519.944	28350.2
520.146	28583.67
520.348	28864.24
520.55	28978.93
520.752	29300.46
520.954	29581.03
521.155	29468.39
521.357	29959.91
521.559	29978.34
521.761	30328.54
521.963	30519
522.164	30672.6
522.366	30713.56
522.568	31205.07
522.77	31057.62
522.971	31559.37
523.173	31430.35
523.375	32114.37
523.576	32145.09
523.778	32011.97
523.98	32419.52
524.181	32761.53
524.383	32689.85
524.584	33005.24
524.786	33365.68
524.988	32956.08
525.189	33736.36
525.391	33738.41
525.592	33953.44
525.794	33994.4
525.995	34135.71
526.197	33701.54
526.398	34428.57
526.6	34494.11
526.801	34240.16
527.003	35063.44
527.204	34582.17
527.406	35249.81
527.607	35171.99
527.808	35258
528.01	34449.05
528.211	35360.4
528.412	36109.96
528.614	35735.18
528.815	35851.91
529.016	36159.11
529.218	35913.35
529.419	35808.9
529.62	36126.34
529.822	36001.41
530.023	36275.84
530.224	36333.18
530.425	35976.84
530.626	36132.48
530.828	35968.65
531.029	36902.52
531.23	36785.79
531.431	36607.61
531.632	36826.74
531.833	36705.91
532.035	37074.55
532.236	36992.63
532.437	37166.71
532.638	36939.38
532.839	37250.67
533.04	36634.24
533.241	36546.17
533.442	37582.45
533.643	37193.33
533.844	37189.24
534.045	37064.31
534.246	36873.85
534.447	37600.88
534.648	36716.15
534.849	37525.1
535.05	36759.16
535.251	37457.52
535.451	36847.22
535.652	37193.33
535.853	37256.82
536.054	37537.39
536.255	37328.5
536.456	37043.83
536.657	37672.56
536.857	37205.62
537.058	37179
537.259	37500.53
537.46	37500.53
537.66	37463.66
537.861	37500.53
538.062	37156.47
538.263	37570.16
538.463	37320.31
538.664	37510.77
538.865	37492.33
539.065	37371.5
539.266	37260.91
539.466	37834.35
539.667	37377.65
539.868	37813.87
540.068	37303.92
540.269	37408.37
540.469	37394.03
540.67	37525.1
540.87	37391.98
541.071	37254.77
541.271	37484.14
541.472	37369.46
541.672	37193.33
541.873	37084.79
542.073	36734.59
542.274	37746.28
542.474	36804.22
542.675	36918.9
542.875	37201.52
543.075	37314.16
543.276	36707.96
543.476	37398.13
543.676	37111.41
543.877	37449.33
544.077	37224.05
544.277	37095.03
544.478	36839.03
544.678	37447.28
544.878	37041.78
545.078	37391.98
545.279	37027.45
545.479	37090.93
545.679	37549.68
545.879	36843.13
546.079	37113.46
546.28	36810.36
546.48	36879.99
546.68	37277.3
546.88	37265.01
547.08	36931.19
547.28	37066.36
547.48	36988.53
547.68	36916.86
547.88	36818.55
548.081	37086.84
548.281	37011.06
548.481	37031.54
548.681	37049.97
548.881	36990.58
549.081	36720.25
549.28	36890.23
549.48	37150.32
549.68	37070.45
549.88	37367.41
550.08	36912.76
550.28	37080.69
550.48	37041.78
550.68	36978.29
550.88	36898.42
551.08	37002.87
551.279	36673.15
551.479	36544.13
551.679	36642.43
551.879	36611.71
552.079	36570.75
552.278	36710.01
552.478	36884.09
552.678	36951.67
552.878	36765.31
553.077	36755.07
553.277	36542.08
553.477	36943.48
553.676	36785.79
553.876	36443.77
554.076	36210.31
554.275	36611.71
554.475	36281.99
554.674	36476.54
554.874	36359.81
555.074	36220.55
555.273	36550.27
555.473	36501.12
555.672	36271.75
555.872	36144.77
556.071	36359.81
556.271	36478.59
556.47	35858.06
556.67	35761.8
556.869	36069
557.068	36365.95
557.268	35788.42
557.467	35985.03
557.667	36324.99
557.866	36152.96
558.065	35751.56
558.265	35755.66
558.464	35739.27
558.663	36017.8
558.863	35716.75
559.062	35952.26
559.261	35247.76
559.461	35931.78
559.66	34944.66
559.859	35640.97
560.058	35147.41
560.258	35401.36
560.457	34920.09
560.656	35419.79
560.855	35264.14
561.054	35088.02
561.253	34789.02
561.453	34825.88
561.652	34961.05
561.851	35331.73
562.05	34571.93
562.249	34903.7
562.448	34694.81
562.647	34768.54
562.846	34627.23
563.045	34528.92
563.244	34242.21
563.443	34524.83
563.642	33930.92
563.841	34092.71
564.04	34270.88
564.239	34578.08
564.438	33980.07
564.637	34150.05
564.836	34186.91
565.035	34059.94
565.234	33687.21
565.432	33531.56
565.631	33488.56
565.83	33509.04
566.029	33367.73
566.228	33357.49
566.427	33312.43
566.625	33232.56
566.824	32913.08
567.023	33152.69
567.222	32407.23
567.42	33281.71
567.619	32982.71
567.818	33162.93
568.016	32880.31
568.215	33019.57
568.414	32693.94
568.612	32861.88
568.811	32464.57
569.01	32501.43
569.208	32040.64
569.407	32405.18
569.605	32030.4
569.804	32800.44
570.002	31618.76
570.201	32165.57
570.4	31844.04
570.598	31561.42
570.797	31844.04
570.995	31667.91
571.193	31053.52
571.392	31688.39
571.59	31194.83
571.789	31463.11
571.987	31192.78
572.186	31055.57
572.384	30981.84
572.582	31311.56
572.781	31336.14
572.979	30551.77
573.177	30951.12
573.376	30846.68
573.574	30328.54
573.772	30746.33
573.971	30263
574.169	30246.62
574.367	29986.53
574.565	30332.64
574.763	30125.79
574.962	30402.27
575.16	29746.92
575.358	30000.86
575.556	29456.11
575.754	30045.92
575.952	29548.26
576.151	29679.33
576.349	29452.01
576.547	29429.48
576.745	29382.38
576.943	29279.98
577.141	29419.24
577.339	29458.15
577.537	29093.61
577.735	29302.51
577.933	28899.06
578.131	29026.03
578.329	29009.65
578.527	28899.06
578.725	28770.04
578.923	28849.91
579.121	28575.48
579.319	28542.71
579.516	28704.5
579.714	28356.35
579.912	28237.56
580.11	28088.06
580.308	28047.1
580.506	27852.55
580.704	27647.75
580.901	27596.55
581.099	28063.49
581.297	27674.37
581.495	27639.56
581.692	27670.28
581.89	27295.5
582.088	27565.83
582.285	27295.5
582.483	27492.1
582.681	27082.51
582.878	26994.45
583.076	26816.27
583.274	27432.71
583.471	26861.33
583.669	26824.47
583.866	26853.14
584.064	26701.59
584.262	26490.65
584.459	26816.27
584.657	26371.86
584.854	26742.55
585.052	26044.19
585.249	26840.85
585.447	26126.11
585.644	26341.14
585.841	26128.16
586.039	26451.74
586.236	25943.84
586.434	25943.84
586.631	25583.4
586.828	25777.95
587.026	25970.46
587.223	25687.84
587.42	25282.34
587.618	25773.86
587.815	25478.95
588.012	25323.3
588.21	25198.38
588.407	25181.99
588.604	25001.77
588.801	24868.66
588.999	24858.42
589.196	24868.66
589.393	24729.39
589.59	24422.2
589.787	24825.65
589.984	24477.49
590.182	24104.76
590.379	25022.25
590.576	24500.02
590.773	24284.98
590.97	24137.53
591.167	24254.26
591.364	24086.33
591.561	24219.45
591.758	23965.5
591.955	24092.48
592.152	23869.25
592.349	23744.32
592.546	24063.8
592.743	23977.79
592.94	23525.19
593.137	23459.65
593.334	23476.04
593.531	23275.34
593.727	23410.5
593.924	23123.79
594.121	23146.31
594.318	23435.08
594.515	23043.92
594.712	23131.98
594.908	22927.18
595.105	22978.38
595.302	22624.08
595.499	22896.46
595.696	22519.64
595.892	22808.4
596.089	22792.01
596.286	22507.35
596.482	22544.21
596.679	22447.96
596.876	22335.32
597.072	22320.98
597.269	22290.26
597.466	22214.49
597.662	21997.4
597.859	21829.47
598.055	22091.61
598.252	21569.38
598.448	21886.81
598.645	21673.82
598.841	21471.08
599.038	21544.8
599.234	21522.27
599.431	21120.87
599.627	21186.41
599.824	21606.24
600.02	21008.23
600.217	21305.19
600.413	21071.72
600.609	20975.47
600.806	20891.5
601.002	21116.78
601.198	20572.02
601.395	20721.52
601.591	20719.47
601.787	20715.37
601.984	20772.72
602.18	20897.64
602.376	20588.4
602.572	20273.01
602.769	20567.92
602.965	20340.6
603.161	20502.39
603.357	20191.09
603.553	19998.59
603.75	19955.58
603.946	19728.25
604.142	20060.02
604.338	19779.45
604.534	19933.05
604.73	19701.63
604.926	19650.43
605.122	19634.05
605.318	19558.27
605.514	19394.43
605.71	19492.74
605.906	19351.43
606.102	19140.49
606.298	19521.41
606.494	19091.34
606.69	19384.19
606.886	19371.91
607.082	19167.11
607.278	19210.12
607.474	18849.68
607.67	19009.42
607.866	18696.08
608.062	19019.66
608.257	18984.84
608.453	18855.82
608.649	18825.1
608.845	18558.86
609.041	18651.02
609.236	18659.21
609.432	18517.9
609.628	18712.46
609.824	18356.11
610.019	18319.25
610.215	18356.11
610.411	18421.65
610.606	18102.17
610.802	18372.5
610.998	18188.18
611.193	18108.31
611.389	17885.08
611.584	18145.17
611.78	18155.41
611.976	18247.57
612.171	17967
612.367	17977.24
612.562	17958.81
612.758	17479.58
612.953	17543.07
613.149	18194.33
613.344	17549.21
613.539	18175.89
613.735	17520.54
613.93	17569.69
614.126	17481.63
614.321	17780.64
614.517	17303.46
614.712	17553.31
614.907	17264.55
615.103	17688.48
615.298	17573.79
615.493	17541.02
615.688	17143.72
615.884	17706.91
616.079	17407.91
616.274	17330.08
616.47	17156
616.665	16977.83
616.86	17086.37
617.055	17225.64
617.25	16830.38
617.445	17203.11
617.641	17084.33
617.836	17020.84
618.031	16885.67
618.226	17076.13
618.421	16830.38
618.616	16756.65
618.811	16449.46
619.006	16662.44
619.201	16435.12
619.396	16578.48
619.591	16252.85
619.786	16367.54
619.981	16080.82
620.176	16385.97
620.371	16250.8
620.566	16185.27
620.761	15929.27
620.956	15998.9
621.151	15744.95
621.346	16054.2
621.541	15556.54
621.735	15697.85
621.93	15609.79
622.125	15857.59
622.32	15284.16
622.515	15497.15
622.709	15146.95
622.904	15298.5
623.099	15376.32
623.294	15232.96
623.488	15112.13
623.683	15308.74
623.878	14755.79
624.072	14997.45
624.267	14800.84
624.462	14571.47
624.656	14448.59
624.851	14643.15
625.046	14487.5
625.24	14329.81
625.435	14176.21
625.629	14333.9
625.824	14198.74
626.018	14243.79
626.213	13854.68
626.407	14047.19
626.602	13856.73
626.796	13717.47
626.991	13572.06
627.185	13561.82
627.38	13604.83
627.574	13373.41
627.768	13301.73
627.963	13412.32
628.157	13281.25
628.352	13131.75
628.546	13096.93
628.74	13041.64
628.935	12892.13
629.129	13103.07
629.323	12955.62
629.517	13035.49
629.712	12740.58
629.906	12603.37
630.1	12533.74
630.294	12513.26
630.489	12447.72
630.683	12330.99
630.877	12328.94
631.071	12269.55
631.265	12320.75
631.459	12111.86
631.653	12093.43
631.848	12101.62
632.042	11747.32
632.236	11943.92
632.43	11753.46
632.624	11974.64
632.818	11540.47
633.012	11620.35
633.206	11558.91
633.4	11528.19
633.594	11102.21
633.788	11573.24
633.982	11257.85
634.176	11323.39
634.369	11122.69
634.563	11134.98
634.757	11134.98
634.951	11171.84
635.145	11001.86
635.339	11173.89
635.533	10860.55
635.726	10731.53
635.92	10784.77
636.114	10690.57
636.308	10641.42
636.501	10467.34
636.695	10461.2
636.889	10588.17
637.083	10356.75
637.276	10203.15
637.47	10342.41
637.664	10258.45
637.857	10240.01
638.051	10211.34
638.244	9926.68
638.438	10041.36
638.632	9830.42
638.825	9830.42
639.019	9867.28
639.212	9986.07
639.406	9660.44
639.599	9642.01
639.793	9648.15
639.986	9629.72
640.18	9723.93
640.373	9605.14
640.567	9504.79
640.76	9594.9
640.954	9496.6
641.147	9320.48
641.34	9246.75
641.534	9127.97
641.727	9347.1
641.92	9168.93
642.114	9087.01
642.307	9023.52
642.5	9060.38
642.694	8812.58
642.887	8777.76
643.08	8826.92
643.273	8716.33
643.467	8896.55
643.66	8583.21
643.853	8450.09
644.046	8681.51
644.239	8646.69
644.432	8396.84
644.626	8558.63
644.819	8382.51
645.012	8362.03
645.205	8394.79
645.398	8374.31
645.591	8204.33
645.784	8271.92
645.977	8114.22
646.17	8165.42
646.363	8015.92
646.556	7903.28
646.749	8040.5
646.942	8179.76
647.135	7985.2
647.328	7747.64
647.521	7819.32
647.714	7686.2
647.907	7888.95
648.099	7811.12
648.292	7759.92
648.485	7743.54
648.678	7555.13
648.871	7540.79
649.064	7395.39
649.256	7301.18
649.449	7446.59
649.642	7473.21
649.835	7297.08
650.027	7340.09
650.22	7299.13
650.413	7417.91
650.605	7247.93
650.798	7145.53
650.991	6969.41
651.183	7292.99
651.376	7014.46
651.568	6930.5
651.761	6844.48
651.954	6871.11
652.146	6977.6
652.339	6965.31
652.531	6901.83
652.724	6772.8
652.916	6752.32
653.109	6803.52
653.301	6709.32
653.494	6611.01
653.686	6465.61
653.879	6785.09
654.071	6588.49
654.263	6373.45
654.456	6436.94
654.648	6400.07
654.84	6340.68
655.033	6416.46
655.225	6269
655.417	6217.8
655.61	6383.69
655.802	6076.49
655.994	6162.51
656.186	6269
656.379	6271.05
656.571	6217.8
656.763	6211.66
656.955	6047.82
657.148	5945.42
657.34	5990.48
657.532	5881.94
657.724	5843.03
657.916	5916.75
658.108	5990.48
658.3	5828.69
658.492	5660.76
658.684	5740.63
658.876	5746.77
659.068	5650.52
659.26	5728.34
659.452	5744.72
659.644	5611.61
659.836	5625.94
660.028	5494.87
660.22	5544.02
660.412	5509.21
660.604	5427.29
660.796	5390.42
660.988	5552.21
661.18	5474.39
661.372	5400.66
661.563	5318.75
661.755	5341.27
661.947	5273.69
662.139	5294.17
662.331	5247.07
662.522	5122.14
662.714	5087.33
662.906	5181.53
663.097	5093.47
663.289	5099.61
663.481	5097.56
663.673	5029.98
663.864	4890.72
664.056	4925.54
664.247	5015.65
664.439	4823.14
664.631	5040.22
664.822	4929.63
665.014	4980.83
665.205	4952.16
665.397	4853.86
665.588	4802.66
665.78	4802.66
665.971	4802.66
666.163	4636.77
666.354	4739.17
666.546	4604
666.737	4634.72
666.929	4575.33
667.12	4698.21
667.311	4479.08
667.503	4612.2
667.694	4532.33
667.885	4464.74
668.077	4618.34
668.268	4403.3
668.459	4462.69
668.651	4526.18
668.842	4497.51
669.033	4393.06
669.224	4448.36
669.416	4386.92
669.607	4386.92
669.798	4204.65
669.989	4462.69
670.18	4255.85
670.371	4393.06
670.563	4300.91
670.754	4239.47
670.945	4235.37
671.136	4286.57
671.327	4194.41
671.518	4139.12
671.709	4149.36
671.9	4149.36
672.091	4116.59
672.282	4130.92
672.473	4173.93
672.664	4141.16
672.855	3946.61
673.046	4122.73
673.237	4024.43
673.428	4030.57
673.619	4014.19
673.809	3981.42
674	3852.4
674.191	3979.37
674.382	4012.14
674.573	3827.82
674.764	3829.87
674.954	3807.34
675.145	3733.62
675.336	3895.41
675.527	3932.27
675.717	3893.36
675.908	3858.54
676.099	3790.96
676.289	3805.3
676.48	3817.58
676.671	3850.35
676.861	3811.44
677.052	3643.51
677.243	3719.28
677.433	3776.63
677.624	3690.61
677.814	3702.9
678.005	3676.27
678.195	3668.08
678.386	3706.99
678.576	3584.12
678.767	3639.41
678.957	3623.03
679.148	3651.7
679.338	3575.92
679.529	3625.08
679.719	3612.79
679.909	3618.93
680.1	3580.02
680.29	3571.83
680.481	3549.3
680.671	3477.62
680.861	3494.01
681.052	3526.77
681.242	3485.81
681.432	3559.54
681.622	3438.71
681.813	3420.28
682.003	3561.59
682.193	3457.14
682.383	3498.1
682.573	3471.48
682.764	3457.14
682.954	3436.66
683.144	3528.82
683.334	3461.24
683.524	3270.78
683.714	3436.66
683.904	3364.98
684.094	3426.42
684.284	3352.7
684.474	3260.54
684.664	3272.82
684.854	3338.36
685.044	3264.63
685.234	3342.46
685.424	3291.26
685.614	3317.88
685.804	3383.42
685.994	3278.97
686.184	3219.58
686.374	3182.71
686.564	3123.32
686.753	3205.24
686.943	3403.89
687.133	3190.91
687.323	3078.27
687.513	3141.75
687.702	3018.88
687.892	3211.39
688.082	3127.42
688.272	3090.56
688.461	3145.85
688.651	3147.9
688.841	3147.9
689.03	2973.82
689.22	3149.95
689.41	2984.06
689.599	2932.86
689.789	3055.74
689.979	3096.7
690.168	2934.91
690.358	2769.02
690.547	2850.94
690.737	2883.71
690.926	2988.16
691.116	2869.37
691.305	2975.87
691.495	2955.39
691.684	2865.28
691.874	2934.91
692.063	2824.32
692.252	2850.94
692.442	2945.15
692.631	2799.74
692.82	2834.56
693.01	2717.83
693.199	2764.93
693.388	2836.61
693.578	2730.11
693.767	2740.35
693.956	2812.03
694.146	2752.64
694.335	2764.93
694.524	2652.29
694.713	2787.46
694.902	2642.05
695.092	2619.52
695.281	2615.43
695.47	2658.43
695.659	2646.15
695.848	2629.76
696.037	2646.15
696.226	2640
696.415	2588.8
696.604	2744.45
696.793	2629.76
696.982	2578.56
697.171	2640
697.36	2562.18
697.549	2535.56
697.738	2601.09
697.927	2576.52
698.116	2525.32
698.305	2640
698.494	2549.89
698.683	2492.55
698.872	2564.23
699.061	2513.03
699.25	2441.35
699.438	2553.99
699.627	2572.42
699.816	2619.52
700.005	2486.4
700.193	2680.96
700.382	2529.41
700.571	2560.13
700.76	2502.79
700.948	2474.12
701.137	2578.56
701.326	2625.67
701.514	2408.58
701.703	2498.69
701.892	2519.17
702.08	2553.99
702.269	2543.75
702.457	2453.64
702.646	2543.75
702.834	2381.96
703.023	2474.12
703.212	2453.64
703.4	2586.76
703.589	2347.14
703.777	2455.69
703.965	2398.34
704.154	2433.16
704.342	2433.16
704.531	2433.16
704.719	2525.32
704.907	2498.69
705.096	2424.97
705.284	2476.16
705.472	2314.38
705.661	2488.45
705.849	2527.36
706.037	2396.29
706.226	2480.26
706.414	2457.73
706.602	2412.68
706.79	2453.64
706.979	2371.72
707.167	2523.27
707.355	2502.79
707.543	2492.55
707.731	2369.67
707.919	2496.64
708.107	2429.06
708.296	2453.64
708.484	2377.86
708.672	2345.09
708.86	2476.16
709.048	2416.77
709.236	2392.2
709.424	2461.83
709.612	2488.45
709.8	2424.97
709.988	2412.68
710.176	2404.49
710.364	2304.14
710.551	2328.71
710.739	2392.2
710.927	2523.27
711.115	2384.01
711.303	2267.27
711.491	2330.76
711.679	2312.33
711.866	2406.53
712.054	2363.53
712.242	2310.28
712.43	2336.9
712.617	2433.16
712.805	2508.93
712.993	2324.62
713.181	2318.47
713.368	2379.91
713.556	2285.7
713.744	2304.14
713.931	2433.16
714.119	2314.38
714.306	2373.77
714.494	2408.58
714.682	2330.76
714.869	2371.72
715.057	2238.6
715.244	2281.61
715.432	2351.24
715.619	2316.42
715.807	2341
715.994	2289.8
716.182	2293.9
716.369	2312.33
716.556	2412.68
716.744	2381.96
716.931	2316.42
717.119	2281.61
717.306	2336.9
717.493	2384.01
717.681	2384.01
717.868	2211.98
718.055	2365.57
718.242	2297.99
718.43	2269.32
718.617	2334.86
718.804	2289.8
718.991	2283.66
719.179	2283.66
719.366	2226.31
719.553	2246.79
719.74	2414.73
719.927	2306.18
720.114	2343.05
720.301	2316.42
720.488	2211.98
720.676	2238.6
720.863	2181.26
721.05	2232.46
721.237	2314.38
721.424	2324.62
721.611	2240.65
721.798	2191.5
721.985	2189.45
722.172	2181.26
722.358	2279.56
722.545	2158.73
722.732	2316.42
722.919	2236.55
723.106	2189.45
723.293	2345.09
723.48	2240.65
723.667	2285.7
723.853	2191.5
724.04	2236.55
724.227	2144.39
724.414	2205.83
724.6	2259.08
724.787	2207.88
724.974	2273.42
725.161	2306.18
725.347	2125.96
725.534	2238.6
725.72	2168.97
725.907	2222.22
726.094	2261.13
726.28	2216.07
726.467	2197.64
726.653	2175.11
726.84	2177.16
727.027	2336.9
727.213	2166.92
727.4	2207.88
727.586	2277.51
727.773	2261.13
727.959	2220.17
728.145	2230.41
728.332	2130.06
728.518	2293.9
728.705	2240.65
728.891	2185.35
729.077	2216.07
729.264	2181.26
729.45	2187.4
729.636	2160.78
729.823	2168.97
730.009	2187.4
730.195	2113.67
730.382	2244.74
730.568	2146.44
730.754	2207.88
730.94	2158.73
731.126	2191.5
731.313	2254.98
731.499	2230.41
731.685	2220.17
731.871	2173.07
732.057	2183.31
732.243	2156.68
732.429	2211.98
732.615	2207.88
732.801	2115.72
732.987	2111.63
733.173	2199.69
733.359	2152.59
733.545	2142.35
733.731	2121.87
733.917	2228.36
734.103	2134.15
734.289	2107.53
734.475	2121.87
734.661	2201.74
734.847	2074.76
735.033	2142.35
735.219	2191.5
735.404	2103.43
735.59	2150.54
735.776	2013.32
735.962	2166.92
736.148	2117.77
736.333	2134.15
736.519	2130.06
736.705	2087.05
736.89	2128.01
737.076	2097.29
737.262	2042
737.447	2142.35
737.633	1980.56
737.819	2078.86
738.004	2070.67
738.19	2027.66
738.375	1927.31
738.561	2173.07
738.747	2013.32
738.932	2007.18
739.118	2064.52
739.303	2107.53
739.489	2048.14
739.674	2058.38
739.859	2070.67
740.045	2029.71
740.23	2023.56
740.416	1994.89
740.601	2044.04
740.786	2058.38
740.972	2011.28
741.157	1990.8
741.342	1953.93
741.528	1919.12
741.713	2037.9
741.898	1951.88
742.084	1837.2
742.269	2029.71
742.454	1992.84
742.639	2007.18
742.824	1964.17
743.01	1978.51
743.195	1970.32
743.38	1865.87
743.565	1945.74
743.75	1792.14
743.935	1923.21
744.12	1921.17
744.305	1859.73
744.49	1953.93
744.675	1786
744.86	1880.21
745.045	1771.66
745.23	1794.19
745.415	1751.18
745.6	1788.05
745.785	1720.46
745.97	1798.29
746.155	1683.6
746.34	1732.75
746.525	1722.51
746.71	1775.76
746.895	1775.76
747.079	1826.96
747.264	1681.55
747.449	1749.14
747.634	1796.24
747.819	1763.47
748.003	1718.42
748.188	1699.98
748.373	1720.46
748.557	1669.27
748.742	1638.55
748.927	1693.84
749.111	1702.03
749.296	1589.39
749.481	1616.02
749.665	1722.51
749.85	1566.87
750.034	1581.2
750.219	1562.77
750.404	1511.57
750.588	1695.89
750.773	1616.02
750.957	1513.62
751.141	1599.63
751.326	1579.15
751.51	1530
751.695	1599.63
751.879	1388.69
752.064	1517.72
752.248	1503.38
752.432	1433.75
752.617	1396.89
752.801	1452.18
752.985	1374.36
753.17	1400.98
753.354	1443.99
753.538	1370.26
753.722	1378.45
753.907	1388.69
754.091	1300.63
754.275	1300.63
754.459	1388.69
754.643	1331.35
754.828	1456.28
755.012	1323.16
755.196	1312.92
755.38	1308.82
755.564	1321.11
755.748	1239.19
755.932	1267.86
756.116	1257.62
756.3	1202.33
756.484	1327.25
756.668	1224.86
756.852	1280.15
757.036	1239.19
757.22	1087.64
757.404	1202.33
757.588	1265.82
757.772	1112.22
757.956	1128.6
758.14	1185.94
758.323	1179.8
758.507	1093.79
758.691	1130.65
758.875	1126.55
759.059	1124.51
759.242	1163.42
759.426	1130.65
759.61	1122.46
759.794	1101.98
759.977	1042.59
760.161	1175.7
760.345	1124.51
760.528	1155.23
760.712	1110.17
760.895	1116.31
761.079	1091.74
761.263	1118.36
761.446	1081.5
761.63	1032.35
761.813	999.58
761.997	1001.63
762.18	1022.11
762.364	1063.07
762.547	940.19
762.731	1001.63
762.914	1042.59
763.098	1077.4
763.281	995.48
763.464	1028.25
763.648	1022.11
763.831	952.48
764.015	970.91
764.198	997.53
764.381	942.24
764.564	932
764.748	932
764.931	1028.25
765.114	968.86
765.297	993.44
765.481	805.02
765.664	909.47
765.847	934.04
766.03	895.13
766.213	942.24
766.397	895.13
766.58	913.56
766.763	1011.87
766.946	893.09
767.129	891.04
767.312	901.28
767.495	891.04
767.678	913.56
767.861	882.85
768.044	825.5
768.227	880.8
768.41	850.08
768.593	880.8
768.776	938.14
768.959	850.08
769.142	962.72
769.324	946.33
769.507	835.74
769.69	944.28
769.873	819.36
770.056	839.84
770.239	893.09
770.421	891.04
770.604	798.88
770.787	860.32
770.97	823.45
771.152	743.58
771.335	790.69
771.518	876.7
771.7	811.17
771.883	858.27
772.066	919.71
772.248	786.59
772.431	757.92
772.613	800.93
772.796	770.21
772.978	886.94
773.161	831.65
773.343	821.41
773.526	829.6
773.708	776.35
773.891	745.63
774.073	686.24
774.256	788.64
774.438	782.49
774.621	712.86
774.803	692.38
774.985	727.2
775.168	688.29
775.35	622.75
775.532	688.29
775.715	723.1
775.897	766.11
776.079	749.73
776.261	743.58
776.444	665.76
776.626	665.76
776.808	635.04
776.99	700.58
777.173	682.14
777.355	667.81
777.537	725.15
777.719	706.72
777.901	639.14
778.083	606.37
778.265	614.56
778.447	639.14
778.629	579.75
778.811	614.56
778.993	665.76
779.175	643.23
779.357	614.56
779.539	565.41
779.721	592.03
779.903	612.51
780.085	583.84
780.267	532.64
780.449	536.74
780.631	561.31
780.812	626.85
780.994	553.12
781.176	553.12
781.358	514.21
781.54	561.31
781.721	610.47
781.903	553.12
782.085	518.31
782.267	542.88
782.448	501.92
782.63	495.78
782.812	575.65
782.993	540.83
783.175	477.35
783.357	508.07
783.538	534.69
783.72	458.92
783.901	401.57
784.083	483.49
784.264	497.83
784.446	471.2
784.627	436.39
784.809	528.55
784.99	436.39
785.172	495.78
785.353	501.92
785.535	424.1
785.716	407.72
785.897	450.72
786.079	471.2
786.26	463.01
786.441	385.19
786.623	438.44
786.804	352.42
786.985	473.25
787.167	370.85
787.348	395.43
787.529	381.09
787.71	426.15
787.891	420
788.073	444.58
788.254	360.61
788.435	415.91
788.616	501.92
788.797	368.81
788.978	405.67
789.159	432.29
789.34	444.58
789.522	356.52
789.703	385.19
789.884	399.52
790.065	383.14
790.246	428.2
790.427	377
790.607	329.89
790.788	311.46
790.969	321.7
791.15	254.12
791.331	338.09
791.512	409.76
791.693	319.65
791.874	309.41
792.054	377
792.235	297.13
792.416	307.37
792.597	340.13
792.778	299.17
792.958	288.93
793.139	389.28
793.32	407.72
793.5	288.93
793.681	340.13
793.862	333.99
794.042	348.33
794.223	325.8
794.404	385.19
794.584	272.55
794.765	305.32
794.945	254.12
795.126	319.65
795.306	340.13
795.487	256.17
795.667	321.7
795.848	293.03
796.028	274.6
796.209	274.6
796.389	280.74
796.57	288.93
796.75	299.17
796.93	243.88
797.111	295.08
797.291	270.5
797.471	321.7
797.652	227.5
797.832	229.54
798.012	309.41
798.192	241.83
798.373	227.5
798.553	268.45
798.733	280.74
798.913	235.69
799.093	233.64
799.274	168.1
799.454	288.93
799.634	305.32
799.814	278.69
799.994	213.16
800.174	241.83
800.354	223.4
800.534	274.6
800.714	342.18
800.894	331.94
801.074	221.35
801.254	258.21
801.434	272.55
801.614	198.82
801.794	256.17
801.974	538.79
802.154	184.49
802.334	151.72
802.514	243.88
802.693	258.21
802.873	274.6
803.053	184.49
803.233	256.17
803.413	200.87
803.592	217.26
803.772	174.25
803.952	229.54
804.131	231.59
804.311	233.64
804.491	198.82
804.67	180.39
804.85	250.02
805.03	229.54
805.209	243.88
805.389	204.97
805.568	229.54
805.748	198.82
805.928	184.49
806.107	164.01
806.287	241.83
806.466	172.2
806.646	166.06
806.825	194.73
807.004	141.48
807.184	241.83
807.363	235.69
807.543	235.69
807.722	266.41
807.901	221.35
808.081	250.02
808.26	170.15
808.439	131.24
808.619	207.02
808.798	204.97
808.977	133.29
809.156	194.73
809.336	141.48
809.515	227.5
809.694	139.43
809.873	116.9
810.052	207.02
810.231	225.45
810.411	157.86
810.59	166.06
810.769	143.53
810.948	282.79
811.127	182.44
811.306	243.88
811.485	118.95
811.664	161.96
811.843	166.06
812.022	192.68
812.201	63.66
812.38	102.57
812.559	116.9
812.737	139.43
812.916	153.77
813.095	194.73
813.274	164.01
813.453	159.91
813.632	180.39
813.811	172.2
813.989	209.06
814.168	116.9
814.347	147.62
814.526	166.06
814.704	170.15
814.883	143.53
815.062	129.19
815.24	200.87
815.419	147.62
815.598	178.34
815.776	82.09
815.955	110.76
816.133	106.67
816.312	116.9
816.49	114.86
816.669	61.61
816.847	161.96
817.026	135.34
817.204	102.57
817.383	133.29
817.561	104.62
817.74	172.2
817.918	125.1
818.097	147.62
818.275	196.78
818.453	80.04
818.632	106.67
818.81	141.48
818.988	127.14
819.167	82.09
819.345	116.9
819.523	186.54
819.701	176.3
819.879	121
820.058	118.95
820.236	39.08
820.414	121
820.592	166.06
820.77	77.99
820.948	43.18
821.127	108.71
821.305	155.82
821.483	92.33
821.661	137.38
821.839	84.14
822.017	112.81
822.195	190.63
822.373	172.2
822.551	133.29
822.729	104.62
822.907	92.33
823.085	168.1
823.262	82.09
823.44	69.8
823.618	51.37
823.796	135.34
823.974	108.71
824.152	53.42
824.329	133.29
824.507	164.01
824.685	125.1
824.863	104.62
825.04	139.43
825.218	59.56
825.396	133.29
825.574	123.05
825.751	123.05
825.929	108.71
826.107	4.27
826.284	37.03
826.462	133.29
826.639	65.71
826.817	82.09
826.994	125.1
827.172	80.04
827.349	127.14
827.527	102.57
827.704	65.71
827.882	14.51
828.059	151.72
828.237	118.95
828.414	67.75
828.591	18.6
828.769	24.75
828.946	41.13
829.124	69.8
829.301	108.71
829.478	84.14
829.655	141.48
829.833	61.61
830.01	92.33
830.187	51.37
830.364	45.23
830.542	73.9
830.719	116.9
830.896	37.03
831.073	32.94
831.25	141.48
831.427	151.72
831.604	104.62
831.782	73.9
831.959	123.05
832.136	37.03
832.313	37.03
832.49	71.85
832.667	63.66
832.844	51.37
833.021	80.04
833.198	94.38
833.374	92.33
833.551	133.29
833.728	102.57
833.905	8.36
834.082	80.04
834.259	65.71
834.436	71.85
834.612	-8.02
834.789	131.24
834.966	61.61
835.143	127.14
835.319	4.27
835.496	102.57
835.673	141.48
835.85	96.43
836.026	10.41
836.203	32.94
836.38	118.95
836.556	8.36
836.733	53.42
836.909	75.95
837.086	32.94
837.262	82.09
837.439	82.09
837.616	41.13
837.792	-14.17
837.968	116.9
838.145	8.36
838.321	104.62
838.498	100.52
838.674	65.71
838.851	37.03
839.027	39.08
839.203	86.19
839.38	49.32
839.556	53.42
839.732	45.23
839.909	94.38
840.085	88.23
840.261	12.46
840.437	102.57
840.614	24.75
840.79	161.96
840.966	49.32
841.142	82.09
841.318	63.66
841.494	37.03
841.671	135.34
841.847	75.95
842.023	28.84
842.199	88.23
842.375	172.2
842.551	-3.93
842.727	51.37
842.903	153.77
843.079	45.23
843.255	98.47
843.431	20.65
843.607	32.94
843.783	-61.27
843.959	75.95
844.134	65.71
844.31	96.43
844.486	51.37
844.662	65.71
844.838	16.55
845.013	82.09
845.189	98.47
845.365	123.05
845.541	57.51
845.716	65.71
845.892	34.99
846.068	20.65
846.244	88.23
846.419	30.89
846.595	57.51
846.77	24.75
846.946	57.51
847.122	20.65
847.297	41.13
847.473	45.23
847.648	-20.31
847.824	104.62
847.999	41.13
848.175	-34.64
848.35	-8.02
848.526	90.28
848.701	51.37
848.876	104.62
849.052	75.95
849.227	61.61
849.403	69.8
849.578	151.72
849.753	84.14
849.929	51.37
850.104	37.03
850.279	49.32
850.454	61.61
850.63	-16.21
850.805	16.55
850.98	4.27
851.155	67.75
851.33	67.75
851.505	-36.69
851.681	47.27
851.856	10.41
852.031	39.08
852.206	71.85
852.381	53.42
852.556	-30.55
852.731	92.33
852.906	61.61
853.081	26.79
853.256	118.95
853.431	20.65
853.606	47.27
853.781	18.6
853.956	51.37
854.131	-12.12
854.305	8.36
854.48	2.22
854.655	41.13
854.83	59.56
855.005	30.89
855.18	18.6
855.354	61.61
855.529	-1.88
855.704	45.23
855.879	26.79
856.053	2.22
856.228	30.89
856.403	77.99
856.577	84.14
856.752	-22.36
856.926	-22.36
857.101	45.23
857.276	55.47
857.45	43.18
857.625	14.51
857.799	102.57
857.974	41.13
858.148	-1.88
858.323	26.79
858.497	12.46
858.672	94.38
858.846	-16.21
859.02	59.56
859.195	-34.64
859.369	32.94
859.543	61.61
859.718	47.27
859.892	-3.93
860.066	-16.21
860.241	28.84
860.415	24.75
860.589	45.23
860.763	41.13
860.938	49.32
861.112	65.71
861.286	49.32
861.46	92.33
861.634	4.27
861.808	12.46
861.982	37.03
862.157	4.27
862.331	71.85
862.505	-55.12
862.679	-44.88
862.853	-28.5
863.027	24.75
863.201	-32.6
863.375	24.75
863.549	32.94
863.722	24.75
863.896	84.14
864.07	61.61
864.244	49.32
864.418	16.55
864.592	24.75
864.766	63.66
864.939	63.66
865.113	-12.12
865.287	94.38
865.461	-3.93
865.634	28.84
865.808	-36.69
865.982	4.27
866.156	-28.5
866.329	-1.88
866.503	32.94
866.676	12.46
866.85	4.27
867.024	55.47
867.197	-14.17
867.371	-3.93
867.544	20.65
867.718	32.94
867.891	65.71
868.065	-34.64
868.238	12.46
868.412	10.41
868.585	55.47
868.759	-24.4
868.932	12.46
869.105	-20.31
869.279	-20.31
869.452	47.27
869.625	-1.88
869.799	41.13
869.972	10.41
870.145	-44.88
870.319	2.22
870.492	45.23
870.665	49.32
870.838	-3.93
871.011	-40.79
871.185	26.79
871.358	-55.12
871.531	49.32
871.704	-32.6
871.877	-3.93
872.05	10.41
872.223	4.27
872.396	-22.36
872.569	73.9
872.742	-59.22
872.915	61.61
873.088	-51.03
873.261	12.46
873.434	-22.36
873.607	77.99
873.78	2.22
873.953	-18.26
874.126	10.41
874.299	32.94
874.471	-44.88
874.644	-1.88
874.817	-1.88
874.99	24.75
875.163	-5.97
875.335	49.32
875.508	24.75
875.681	-81.75
875.853	-10.07
876.026	34.99
876.199	57.51
876.371	67.75
876.544	-71.51
876.717	-40.79
876.889	-77.65
877.062	30.89
877.234	2.22
877.407	8.36
877.579	41.13
877.752	-34.64
877.924	-14.17
878.097	102.57
878.269	-46.93
878.442	6.31
878.614	28.84
878.786	-20.31
878.959	-8.02
879.131	51.37
879.303	-85.84
879.476	22.7
879.648	4.27
879.82	-12.12
879.993	18.6
880.165	-18.26
880.337	10.41
880.509	-30.55
880.681	-30.55
880.854	20.65
881.026	32.94
881.198	57.51
881.37	-16.21
881.542	-12.12
881.714	12.46
881.886	4.27
882.058	0.17
882.23	26.79
882.402	-20.31
882.574	-8.02
882.746	28.84
882.918	67.75
883.09	104.62
883.262	8.36
883.434	-12.12
883.606	41.13
883.778	-26.45
883.95	10.41
884.122	47.27
884.293	10.41
884.465	-16.21
884.637	32.94
884.809	-42.84
884.98	20.65
885.152	0.17
885.324	53.42
885.496	4.27
885.667	18.6
885.839	4.27
886.011	12.46
886.182	-42.84
886.354	4.27
886.525	61.61
886.697	28.84
886.869	61.61
887.04	-5.97
887.212	-32.6
887.383	-5.97
887.555	43.18
887.726	6.31
887.897	-48.98
888.069	4.27
888.24	8.36
888.412	34.99
888.583	-30.55
888.754	8.36
888.926	24.75
889.097	55.47
889.268	18.6
889.44	104.62
889.611	-46.93
889.782	16.55
889.953	-22.36
890.125	4.27
890.296	14.51
890.467	20.65
890.638	37.03
890.809	4.27
890.98	37.03
891.151	28.84
891.323	-10.07
891.494	2.22
891.665	30.89
891.836	-5.97
892.007	59.56
892.178	53.42
892.349	57.51
892.52	6.31
892.691	-3.93
892.862	55.47
893.032	-61.27
893.203	32.94
893.374	-30.55
893.545	45.23
893.716	4.27
893.887	53.42
894.057	-30.55
894.228	24.75
894.399	-10.07
894.57	75.95
894.74	-40.79
894.911	88.23
895.082	12.46
895.253	-3.93
895.423	-10.07
895.594	20.65
895.764	12.46
895.935	-26.45
896.106	86.19
896.276	-36.69
896.447	90.28
896.617	41.13
896.788	-34.64
896.958	-48.98
897.129	45.23
897.299	90.28
897.47	65.71
897.64	73.9
897.81	2.22
897.981	-24.4
898.151	2.22
898.322	-10.07
898.492	20.65
898.662	18.6
898.832	43.18
899.003	-51.03
899.173	34.99
899.343	20.65
899.513	67.75
