Data from USB4F104151__127__11-07-37-416.txt Node

Date: Wed Mar 12 11:07:37 EDT 2025
User: louis
Spectrometer: USB4F10415
Trigger mode: 4
Integration Time (sec): 2.000000E-2
Scans to average: 1
Electric dark correction enabled: true
Nonlinearity correction enabled: false
Boxcar width: 0
XAxis mode: Wavelengths
Number of Pixels in Spectrum: 3648
>>>>>Begin Spectral Data<<<<<
178.204	-17.41
178.424	-17.41
178.644	-17.41
178.864	5.12
179.084	23.55
179.304	-15.36
179.524	3.07
179.744	-35.84
179.964	27.65
180.184	3.07
180.404	11.26
180.624	23.55
180.844	-21.5
181.064	-33.79
181.283	82.94
181.503	-9.22
181.723	-35.84
181.943	-15.36
182.163	5.12
182.383	-54.27
182.602	84.99
182.822	66.56
183.042	89.09
183.262	56.32
183.482	64.51
183.701	-3.07
183.921	7.17
184.141	-5.12
184.361	52.22
184.58	7.17
184.8	-25.6
185.02	66.56
185.239	48.13
185.459	5.12
185.679	31.74
185.898	19.46
186.118	99.33
186.338	39.94
186.557	72.7
186.777	68.61
186.997	101.37
187.216	5.12
187.436	29.7
187.655	31.74
187.875	89.09
188.095	29.7
188.314	84.99
188.534	199.68
188.753	17.41
188.973	101.37
189.192	46.08
189.412	66.56
189.631	91.13
189.851	44.03
190.07	111.61
190.29	33.79
190.509	58.37
190.729	138.24
190.948	123.9
191.168	84.99
191.387	44.03
191.607	27.65
191.826	19.46
192.045	74.75
192.265	89.09
192.484	68.61
192.704	35.84
192.923	-11.26
193.142	64.51
193.362	31.74
193.581	99.33
193.8	113.66
194.02	101.37
194.239	13.31
194.458	134.14
194.678	50.18
194.897	44.03
195.116	-19.46
195.335	87.04
195.555	19.46
195.774	5.12
195.993	46.08
196.212	48.13
196.432	-5.12
196.651	11.26
196.87	58.37
197.089	113.66
197.308	-17.41
197.528	64.51
197.747	15.36
197.966	3.07
198.185	74.75
198.404	62.46
198.623	19.46
198.842	72.7
199.062	58.37
199.281	103.42
199.5	54.27
199.719	56.32
199.938	-1.02
200.157	121.85
200.376	1.02
200.595	33.79
200.814	66.56
201.033	97.28
201.252	168.96
201.471	17.41
201.69	95.23
201.909	99.33
202.128	-41.98
202.347	95.23
202.566	39.94
202.785	62.46
203.004	48.13
203.223	97.28
203.442	66.56
203.661	-17.41
203.879	41.98
204.098	44.03
204.317	-19.46
204.536	44.03
204.755	68.61
204.974	87.04
205.193	37.89
205.411	89.09
205.63	19.46
205.849	62.46
206.068	48.13
206.287	1.02
206.505	84.99
206.724	35.84
206.943	37.89
207.162	66.56
207.381	41.98
207.599	87.04
207.818	66.56
208.037	-21.5
208.255	-54.27
208.474	41.98
208.693	44.03
208.911	78.85
209.13	25.6
209.349	37.89
209.567	76.8
209.786	3.07
210.005	48.13
210.223	1.02
210.442	7.17
210.661	39.94
210.879	44.03
211.098	25.6
211.316	80.89
211.535	21.5
211.753	78.85
211.972	56.32
212.191	70.65
212.409	27.65
212.628	35.84
212.846	19.46
213.065	56.32
213.283	56.32
213.502	17.41
213.72	35.84
213.938	93.18
214.157	119.81
214.375	58.37
214.594	37.89
214.812	-7.17
215.031	76.8
215.249	76.8
215.467	-1.02
215.686	13.31
215.904	41.98
216.122	78.85
216.341	74.75
216.559	15.36
216.778	46.08
216.996	31.74
217.214	-29.7
217.432	-35.84
217.651	29.7
217.869	80.89
218.087	64.51
218.306	58.37
218.524	76.8
218.742	25.6
218.96	-7.17
219.179	56.32
219.397	64.51
219.615	62.46
219.833	87.04
220.051	89.09
220.27	95.23
220.488	80.89
220.706	68.61
220.924	-17.41
221.142	82.94
221.36	37.89
221.578	113.66
221.796	93.18
222.015	37.89
222.233	35.84
222.451	72.7
222.669	25.6
222.887	50.18
223.105	78.85
223.323	39.94
223.541	-37.89
223.759	35.84
223.977	72.7
224.195	109.57
224.413	21.5
224.631	11.26
224.849	101.37
225.067	15.36
225.285	54.27
225.503	78.85
225.721	54.27
225.939	97.28
226.157	19.46
226.375	76.8
226.592	-1.02
226.81	66.56
227.028	23.55
227.246	23.55
227.464	48.13
227.682	66.56
227.9	72.7
228.117	68.61
228.335	107.52
228.553	35.84
228.771	37.89
228.989	48.13
229.206	11.26
229.424	48.13
229.642	76.8
229.86	48.13
230.077	39.94
230.295	50.18
230.513	84.99
230.731	60.42
230.948	132.09
231.166	72.7
231.384	19.46
231.601	111.61
231.819	60.42
232.037	17.41
232.254	5.12
232.472	44.03
232.689	-39.94
232.907	17.41
233.125	19.46
233.342	101.37
233.56	27.65
233.777	15.36
233.995	62.46
234.213	64.51
234.43	37.89
234.648	132.09
234.865	3.07
235.083	80.89
235.3	11.26
235.518	35.84
235.735	15.36
235.953	113.66
236.17	64.51
236.388	3.07
236.605	60.42
236.822	97.28
237.04	25.6
237.257	39.94
237.475	29.7
237.692	9.22
237.909	29.7
238.127	78.85
238.344	29.7
238.562	70.65
238.779	13.31
238.996	66.56
239.214	93.18
239.431	13.31
239.648	5.12
239.865	99.33
240.083	29.7
240.3	111.61
240.517	15.36
240.735	130.05
240.952	93.18
241.169	89.09
241.386	46.08
241.603	80.89
241.821	119.81
242.038	39.94
242.255	101.37
242.472	60.42
242.689	70.65
242.907	15.36
243.124	7.17
243.341	37.89
243.558	52.22
243.775	56.32
243.992	7.17
244.209	111.61
244.426	31.74
244.643	82.94
244.86	44.03
245.078	15.36
245.295	64.51
245.512	-29.7
245.729	-5.12
245.946	60.42
246.163	66.56
246.38	35.84
246.597	44.03
246.814	-1.02
247.031	25.6
247.248	44.03
247.464	35.84
247.681	50.18
247.898	95.23
248.115	15.36
248.332	31.74
248.549	48.13
248.766	87.04
248.983	46.08
249.2	64.51
249.417	13.31
249.633	-3.07
249.85	29.7
250.067	23.55
250.284	105.47
250.501	54.27
250.717	27.65
250.934	-9.22
251.151	66.56
251.368	19.46
251.585	46.08
251.801	132.09
252.018	70.65
252.235	84.99
252.451	46.08
252.668	-50.18
252.885	52.22
253.102	35.84
253.318	-15.36
253.535	21.5
253.752	23.55
253.968	5.12
254.185	68.61
254.401	-5.12
254.618	70.65
254.835	15.36
255.051	123.9
255.268	52.22
255.484	117.76
255.701	-17.41
255.917	148.48
256.134	56.32
256.351	48.13
256.567	41.98
256.784	138.24
257	21.5
257.217	91.13
257.433	39.94
257.65	41.98
257.866	80.89
258.082	48.13
258.299	97.28
258.515	82.94
258.732	70.65
258.948	15.36
259.165	31.74
259.381	80.89
259.597	64.51
259.814	74.75
260.03	66.56
260.246	15.36
260.463	76.8
260.679	64.51
260.895	134.14
261.112	9.22
261.328	84.99
261.544	7.17
261.761	78.85
261.977	156.67
262.193	31.74
262.409	31.74
262.626	89.09
262.842	48.13
263.058	-60.42
263.274	74.75
263.49	21.5
263.707	80.89
263.923	15.36
264.139	-44.03
264.355	31.74
264.571	68.61
264.787	89.09
265.004	68.61
265.22	99.33
265.436	70.65
265.652	-17.41
265.868	62.46
266.084	-58.37
266.3	1.02
266.516	35.84
266.732	52.22
266.948	35.84
267.164	17.41
267.38	58.37
267.596	76.8
267.812	39.94
268.028	56.32
268.244	41.98
268.46	89.09
268.676	74.75
268.892	105.47
269.108	23.55
269.324	31.74
269.54	23.55
269.756	115.71
269.972	13.31
270.188	21.5
270.403	58.37
270.619	46.08
270.835	46.08
271.051	87.04
271.267	23.55
271.483	25.6
271.698	37.89
271.914	-46.08
272.13	78.85
272.346	17.41
272.562	3.07
272.777	89.09
272.993	84.99
273.209	76.8
273.425	15.36
273.64	91.13
273.856	82.94
274.072	54.27
274.287	27.65
274.503	21.5
274.719	62.46
274.934	80.89
275.15	3.07
275.366	80.89
275.581	76.8
275.797	33.79
276.012	11.26
276.228	-25.6
276.444	119.81
276.659	50.18
276.875	3.07
277.09	70.65
277.306	17.41
277.521	27.65
277.737	84.99
277.952	31.74
278.168	89.09
278.383	58.37
278.599	95.23
278.814	-33.79
279.03	33.79
279.245	50.18
279.461	41.98
279.676	21.5
279.892	39.94
280.107	70.65
280.322	-33.79
280.538	46.08
280.753	58.37
280.969	130.05
281.184	27.65
281.399	39.94
281.615	56.32
281.83	68.61
282.045	-9.22
282.26	27.65
282.476	-9.22
282.691	-1.02
282.906	25.6
283.122	105.47
283.337	-27.65
283.552	37.89
283.767	-5.12
283.983	11.26
284.198	37.89
284.413	84.99
284.628	87.04
284.843	72.7
285.058	5.12
285.274	117.76
285.489	11.26
285.704	95.23
285.919	-19.46
286.134	72.7
286.349	21.5
286.564	1.02
286.779	58.37
286.995	78.85
287.21	62.46
287.425	93.18
287.64	46.08
287.855	95.23
288.07	5.12
288.285	97.28
288.5	70.65
288.715	80.89
288.93	31.74
289.145	31.74
289.36	48.13
289.575	68.61
289.79	60.42
290.004	107.52
290.219	68.61
290.434	37.89
290.649	60.42
290.864	-9.22
291.079	-41.98
291.294	72.7
291.509	76.8
291.724	125.95
291.938	-25.6
292.153	101.37
292.368	-3.07
292.583	52.22
292.798	99.33
293.012	-15.36
293.227	35.84
293.442	52.22
293.657	29.7
293.871	93.18
294.086	109.57
294.301	31.74
294.516	97.28
294.73	99.33
294.945	13.31
295.16	80.89
295.374	48.13
295.589	103.42
295.804	25.6
296.018	56.32
296.233	117.76
296.447	89.09
296.662	19.46
296.877	31.74
297.091	142.33
297.306	78.85
297.52	39.94
297.735	91.13
297.949	48.13
298.164	-15.36
298.378	87.04
298.593	3.07
298.807	39.94
299.022	140.29
299.236	74.75
299.451	68.61
299.665	-17.41
299.88	80.89
300.094	128
300.309	99.33
300.523	89.09
300.737	27.65
300.952	33.79
301.166	123.9
301.381	-27.65
301.595	111.61
301.809	158.72
302.024	1.02
302.238	-56.32
302.452	60.42
302.667	54.27
302.881	93.18
303.095	117.76
303.309	60.42
303.524	58.37
303.738	46.08
303.952	72.7
304.166	15.36
304.381	39.94
304.595	84.99
304.809	7.17
305.023	39.94
305.237	97.28
305.452	101.37
305.666	58.37
305.88	48.13
306.094	48.13
306.308	50.18
306.522	60.42
306.736	50.18
306.95	46.08
307.164	76.8
307.379	56.32
307.593	152.57
307.807	48.13
308.021	39.94
308.235	19.46
308.449	48.13
308.663	-11.26
308.877	21.5
309.091	48.13
309.305	60.42
309.519	111.61
309.733	146.43
309.947	64.51
310.161	80.89
310.374	44.03
310.588	84.99
310.802	91.13
311.016	82.94
311.23	66.56
311.444	64.51
311.658	19.46
311.872	54.27
312.085	87.04
312.299	78.85
312.513	80.89
312.727	70.65
312.941	15.36
313.154	80.89
313.368	35.84
313.582	64.51
313.796	50.18
314.009	56.32
314.223	74.75
314.437	31.74
314.651	80.89
314.864	54.27
315.078	11.26
315.292	-11.26
315.505	7.17
315.719	97.28
315.933	84.99
316.146	25.6
316.36	39.94
316.573	39.94
316.787	-1.02
317.001	109.57
317.214	99.33
317.428	52.22
317.641	17.41
317.855	52.22
318.068	-9.22
318.282	44.03
318.495	123.9
318.709	64.51
318.922	13.31
319.136	74.75
319.349	130.05
319.563	7.17
319.776	66.56
319.99	62.46
320.203	109.57
320.417	93.18
320.63	48.13
320.843	33.79
321.057	89.09
321.27	64.51
321.483	50.18
321.697	54.27
321.91	25.6
322.124	154.62
322.337	78.85
322.55	23.55
322.763	91.13
322.977	54.27
323.19	13.31
323.403	76.8
323.617	48.13
323.83	121.85
324.043	-1.02
324.256	44.03
324.469	5.12
324.683	91.13
324.896	21.5
325.109	121.85
325.322	21.5
325.535	27.65
325.748	46.08
325.962	-27.65
326.175	9.22
326.388	35.84
326.601	48.13
326.814	31.74
327.027	150.53
327.24	76.8
327.453	44.03
327.666	21.5
327.879	97.28
328.092	115.71
328.305	64.51
328.518	23.55
328.731	-9.22
328.944	52.22
329.157	58.37
329.37	76.8
329.583	29.7
329.796	68.61
330.009	48.13
330.222	66.56
330.435	58.37
330.648	109.57
330.861	50.18
331.073	78.85
331.286	66.56
331.499	58.37
331.712	72.7
331.925	9.22
332.138	54.27
332.35	-1.02
332.563	76.8
332.776	19.46
332.989	31.74
333.202	91.13
333.414	13.31
333.627	-3.07
333.84	62.46
334.053	17.41
334.265	72.7
334.478	13.31
334.691	76.8
334.903	44.03
335.116	117.76
335.329	62.46
335.541	7.17
335.754	64.51
335.966	95.23
336.179	37.89
336.392	3.07
336.604	84.99
336.817	31.74
337.029	105.47
337.242	25.6
337.454	62.46
337.667	95.23
337.88	117.76
338.092	-70.65
338.305	70.65
338.517	72.7
338.729	9.22
338.942	11.26
339.154	15.36
339.367	41.98
339.579	56.32
339.792	56.32
340.004	62.46
340.217	35.84
340.429	95.23
340.641	48.13
340.854	91.13
341.066	50.18
341.278	138.24
341.491	31.74
341.703	84.99
341.915	72.7
342.128	62.46
342.34	93.18
342.552	31.74
342.764	105.47
342.977	62.46
343.189	99.33
343.401	105.47
343.613	21.5
343.826	97.28
344.038	46.08
344.25	52.22
344.462	56.32
344.674	87.04
344.886	11.26
345.099	25.6
345.311	44.03
345.523	82.94
345.735	62.46
345.947	175.1
346.159	29.7
346.371	64.51
346.583	87.04
346.795	72.7
347.007	52.22
347.219	50.18
347.431	52.22
347.643	95.23
347.855	56.32
348.067	15.36
348.279	-5.12
348.491	66.56
348.703	128
348.915	25.6
349.127	84.99
349.339	78.85
349.551	19.46
349.763	29.7
349.975	87.04
350.187	140.29
350.399	103.42
350.61	35.84
350.822	78.85
351.034	119.81
351.246	152.57
351.458	89.09
351.669	48.13
351.881	105.47
352.093	97.28
352.305	72.7
352.517	89.09
352.728	46.08
352.94	62.46
353.152	72.7
353.363	54.27
353.575	97.28
353.787	44.03
353.999	78.85
354.21	78.85
354.422	62.46
354.633	-21.5
354.845	66.56
355.057	91.13
355.268	78.85
355.48	33.79
355.692	1.02
355.903	46.08
356.115	11.26
356.326	56.32
356.538	99.33
356.749	70.65
356.961	136.19
357.172	68.61
357.384	23.55
357.595	99.33
357.807	121.85
358.018	31.74
358.23	56.32
358.441	164.86
358.653	62.46
358.864	37.89
359.075	68.61
359.287	19.46
359.498	46.08
359.709	39.94
359.921	111.61
360.132	-1.02
360.344	41.98
360.555	11.26
360.766	74.75
360.977	23.55
361.189	58.37
361.4	72.7
361.611	82.94
361.823	152.57
362.034	52.22
362.245	-1.02
362.456	91.13
362.667	35.84
362.879	76.8
363.09	101.37
363.301	60.42
363.512	58.37
363.723	54.27
363.935	29.7
364.146	93.18
364.357	93.18
364.568	105.47
364.779	31.74
364.99	99.33
365.201	-7.17
365.412	70.65
365.623	41.98
365.834	74.75
366.045	44.03
366.256	84.99
366.467	50.18
366.678	91.13
366.889	64.51
367.1	70.65
367.311	64.51
367.522	74.75
367.733	78.85
367.944	41.98
368.155	97.28
368.366	50.18
368.577	148.48
368.788	68.61
368.999	111.61
369.209	56.32
369.42	89.09
369.631	154.62
369.842	84.99
370.053	109.57
370.264	48.13
370.474	101.37
370.685	125.95
370.896	105.47
371.107	35.84
371.317	39.94
371.528	37.89
371.739	68.61
371.95	66.56
372.16	99.33
372.371	5.12
372.582	11.26
372.792	91.13
373.003	60.42
373.214	39.94
373.424	158.72
373.635	11.26
373.846	109.57
374.056	23.55
374.267	48.13
374.477	156.67
374.688	-1.02
374.898	56.32
375.109	52.22
375.319	87.04
375.53	78.85
375.74	21.5
375.951	105.47
376.161	11.26
376.372	173.05
376.582	27.65
376.793	138.24
377.003	54.27
377.214	97.28
377.424	95.23
377.635	91.13
377.845	50.18
378.055	136.19
378.266	68.61
378.476	68.61
378.686	58.37
378.897	97.28
379.107	144.38
379.317	23.55
379.528	13.31
379.738	39.94
379.948	35.84
380.158	56.32
380.369	35.84
380.579	119.81
380.789	25.6
380.999	93.18
381.21	52.22
381.42	64.51
381.63	146.43
381.84	148.48
382.05	82.94
382.261	162.81
382.471	99.33
382.681	91.13
382.891	89.09
383.101	52.22
383.311	62.46
383.521	54.27
383.731	97.28
383.941	66.56
384.151	111.61
384.361	68.61
384.571	93.18
384.781	60.42
384.991	97.28
385.201	72.7
385.411	58.37
385.621	128
385.831	76.8
386.041	72.7
386.251	54.27
386.461	60.42
386.671	64.51
386.881	101.37
387.091	97.28
387.301	80.89
387.511	56.32
387.72	97.28
387.93	46.08
388.14	107.52
388.35	115.71
388.56	68.61
388.769	91.13
388.979	140.29
389.189	13.31
389.399	150.53
389.609	72.7
389.818	91.13
390.028	142.33
390.238	66.56
390.447	84.99
390.657	95.23
390.867	103.42
391.076	80.89
391.286	41.98
391.496	52.22
391.705	80.89
391.915	123.9
392.125	76.8
392.334	130.05
392.544	-13.31
392.753	101.37
392.963	33.79
393.172	132.09
393.382	15.36
393.591	123.9
393.801	66.56
394.01	54.27
394.22	17.41
394.429	39.94
394.639	76.8
394.848	66.56
395.058	95.23
395.267	52.22
395.477	89.09
395.686	68.61
395.895	105.47
396.105	76.8
396.314	101.37
396.524	152.57
396.733	173.05
396.942	162.81
397.152	111.61
397.361	150.53
397.57	111.61
397.78	91.13
397.989	119.81
398.198	195.58
398.407	95.23
398.617	52.22
398.826	171.01
399.035	138.24
399.244	46.08
399.453	95.23
399.663	132.09
399.872	146.43
400.081	74.75
400.29	187.39
400.499	136.19
400.708	91.13
400.917	111.61
401.127	82.94
401.336	41.98
401.545	234.49
401.754	138.24
401.963	216.06
402.172	82.94
402.381	78.85
402.59	111.61
402.799	125.95
403.008	117.76
403.217	119.81
403.426	117.76
403.635	185.34
403.844	146.43
404.053	113.66
404.262	68.61
404.471	146.43
404.68	168.96
404.888	136.19
405.097	177.15
405.306	156.67
405.515	214.01
405.724	162.81
405.933	168.96
406.142	130.05
406.35	113.66
406.559	154.62
406.768	214.01
406.977	189.44
407.185	150.53
407.394	130.05
407.603	211.96
407.812	218.11
408.02	267.26
408.229	244.73
408.438	216.06
408.646	248.83
408.855	257.02
409.064	246.78
409.272	259.07
409.481	242.68
409.69	293.88
409.898	220.16
410.107	252.92
410.315	345.08
410.524	314.36
410.733	373.75
410.941	343.03
411.15	314.36
411.358	355.32
411.567	273.4
411.775	318.46
411.984	408.57
412.192	427
412.401	461.82
412.609	429.05
412.818	486.39
413.026	488.44
413.234	390.14
413.443	465.91
413.651	486.39
413.86	515.06
414.068	539.64
414.276	523.26
414.485	519.16
414.693	607.22
414.901	654.33
415.11	656.37
415.318	578.55
415.526	719.86
415.734	699.38
415.943	658.42
416.151	717.81
416.359	713.72
416.567	742.39
416.776	783.35
416.984	883.7
417.192	826.36
417.4	826.36
417.608	916.47
417.817	986.1
418.025	979.95
418.233	1049.58
418.441	1035.25
418.649	1055.73
418.857	1129.45
419.065	1170.41
419.273	1113.07
419.481	1233.9
419.689	1209.33
419.897	1262.57
420.105	1270.76
420.313	1321.96
420.521	1397.74
420.729	1440.75
420.937	1461.23
421.145	1530.86
421.353	1668.07
421.561	1743.85
421.769	1747.94
421.977	1811.43
422.185	1616.87
422.393	1903.59
422.601	1950.69
422.809	2016.23
423.017	1922.02
423.224	2057.18
423.432	2163.68
423.64	2223.07
423.848	2358.24
424.056	2196.45
424.263	2501.59
424.471	2509.79
424.679	2536.41
424.887	2663.38
425.094	2720.73
425.302	2827.22
425.51	2841.56
425.718	2878.42
425.925	3036.11
426.133	3101.65
426.341	3199.95
426.548	3396.56
426.756	3433.42
426.964	3488.71
427.171	3562.44
427.379	3769.29
427.586	3888.07
427.794	4006.85
428.001	3974.08
428.209	4299.71
428.417	4213.7
428.624	4418.49
428.832	4453.31
429.039	4463.55
429.247	4537.27
429.454	4965.3
429.662	5096.37
429.869	4938.68
430.076	5340.08
430.284	5200.82
430.491	5381.04
430.699	5645.23
430.906	5731.24
431.114	5659.56
431.321	5821.35
431.528	6044.58
431.736	6400.93
431.943	6742.94
432.15	6433.69
432.358	6513.56
432.565	6892.44
432.772	6923.16
432.979	7336.85
433.187	7330.7
433.394	7433.1
433.601	7857.03
433.808	8020.87
434.016	7879.56
434.223	8090.5
434.43	8907.64
434.637	8448.9
434.844	9106.29
435.052	9112.44
435.259	8942.46
435.466	9323.38
435.673	8924.02
435.88	9892.71
436.087	10396.51
436.294	10287.97
436.501	10161
436.708	10236.77
436.915	10521.44
437.122	10957.66
437.329	11000.66
437.537	11508.56
437.743	11518.8
437.95	11576.14
438.157	12069.7
438.364	12499.78
438.571	12393.28
438.778	12581.7
438.985	13546.29
439.192	13114.17
439.399	13646.64
439.606	13300.53
439.813	14039.85
440.02	14617.38
440.227	14662.43
440.433	14433.06
440.64	15074.07
440.847	14877.47
441.054	15217.43
441.261	16370.44
441.467	16001.8
441.674	16413.45
441.881	16964.35
442.088	16937.73
442.294	17007.36
442.501	17275.64
442.708	17685.23
442.914	18082.54
443.121	18866.91
443.328	18498.28
443.534	19991.25
443.741	19202.78
443.948	19112.67
444.154	20312.78
444.361	20062.93
444.568	20619.97
444.774	20296.39
444.981	20265.67
445.187	21232.32
445.394	21893.81
445.6	21586.61
445.807	24091.28
446.013	22696.61
446.22	23298.72
446.426	24119.95
446.633	24455.82
446.839	25193.09
447.046	24128.14
447.252	25649.78
447.459	25367.16
447.665	25463.42
447.871	26610.28
448.078	27656.79
448.284	26327.66
448.491	26954.34
448.697	28127.83
448.903	28416.59
449.11	28770.89
449.316	28314.19
449.522	28670.54
449.728	29528.64
449.935	29719.1
450.141	29538.88
450.347	30280.24
450.553	29235.78
450.76	29536.83
450.966	30700.08
451.172	30399.02
451.378	30892.58
451.584	30310.96
451.791	31134.24
451.997	30900.78
452.203	31318.56
452.409	31427.1
452.615	31554.08
452.821	30259.76
453.027	30130.74
453.233	31005.22
453.44	30241.33
453.646	30519.85
453.852	30536.24
454.058	30872.1
454.264	29989.43
454.47	30736.94
454.676	29913.66
454.882	31078.95
455.088	28195.41
455.294	28445.26
455.5	29336.13
455.705	29651.52
455.911	28043.86
456.117	27619.93
456.323	26884.71
456.529	25995.89
456.735	26626.67
456.941	26395.25
457.147	25905.78
457.352	25270.91
457.558	24867.46
457.764	24836.74
457.97	24334.99
458.176	23923.35
458.381	23710.36
458.587	22495.91
458.793	22602.41
458.999	21377.72
459.204	22782.63
459.41	22301.36
459.616	20687.56
459.821	20785.86
460.027	20945.6
460.233	20273.87
460.438	19475.16
460.644	19452.63
460.85	18580.2
461.055	18184.94
461.261	18383.59
461.466	16982.78
461.672	16497.41
461.878	17715.95
462.083	16341.77
462.289	16403.21
462.494	16077.58
462.7	15379.22
462.905	14912.28
463.111	15368.98
463.316	15772.43
463.522	15104.79
463.727	15289.11
463.932	15182.62
464.138	14992.16
464.343	15000.35
464.549	14611.23
464.754	15229.72
464.959	14904.09
465.165	14904.09
465.37	14269.22
465.575	14152.49
465.781	14680.86
465.986	14672.67
466.191	14152.49
466.397	13697.84
466.602	13321.01
466.807	13275.96
467.012	13785.9
467.218	13802.29
467.423	13519.67
467.628	13669.17
467.833	13964.07
468.038	13529.91
468.244	13263.67
468.449	13552.43
468.654	13296.44
468.859	13204.28
469.064	13103.93
469.269	12686.14
469.474	12714.81
469.679	12983.1
469.885	12501.83
470.09	12766.01
470.295	12708.67
470.5	12276.55
470.705	12329.8
470.91	12006.22
471.115	11897.67
471.32	12190.53
471.525	12125
471.73	11838.28
471.935	11873.1
472.139	11535.18
472.344	11494.22
472.549	11451.22
472.754	11232.08
472.959	11012.95
473.164	10836.83
473.369	10838.87
473.574	11115.35
473.778	11070.3
473.983	10971.99
474.188	10949.46
474.393	10335.07
474.598	10416.99
474.802	10410.85
475.007	10167.14
475.212	10181.48
475.417	9984.87
475.621	9907.05
475.826	9941.86
476.031	9804.65
476.235	9569.13
476.44	9692.01
476.645	9663.34
476.849	9540.46
477.054	9239.41
477.259	9282.42
477.463	9370.48
477.668	9091.96
477.872	9034.61
478.077	8835.96
478.282	8844.15
478.486	8825.72
478.691	8704.89
478.895	8670.08
479.1	8536.96
479.304	8643.45
479.509	8283.01
479.713	8653.69
479.918	8287.11
480.122	8133.51
480.326	8391.55
480.531	8407.94
480.735	8092.55
480.94	8309.63
481.144	8530.81
481.348	8018.82
481.553	8248.19
481.757	8086.4
481.961	8129.41
482.166	8326.02
482.37	8149.89
482.574	7807.88
482.778	7975.81
482.983	8244.1
483.187	8149.89
483.391	8078.21
483.595	7920.52
483.8	7945.09
484.004	8008.58
484.208	8156.04
484.412	8225.67
484.616	8094.6
484.821	8131.46
485.025	8014.73
485.229	8024.97
485.433	8039.3
485.637	8141.7
485.841	7818.12
486.045	7822.22
486.249	8035.21
486.453	8223.62
486.657	8016.77
486.861	8268.67
487.065	7957.38
487.269	8010.63
487.473	7947.14
487.677	8194.95
487.881	8168.32
488.085	8059.78
488.289	7984.01
488.493	8053.64
488.697	8199.04
488.901	8123.27
489.105	7926.66
489.309	8156.04
489.512	8117.12
489.716	8194.95
489.92	8121.22
490.124	8244.1
490.328	8379.26
490.531	8344.45
490.735	8379.26
490.939	8254.34
491.143	8328.06
491.346	8354.69
491.55	8338.3
491.754	8395.65
491.958	8409.98
492.161	8366.98
492.365	8682.36
492.569	8584.06
492.772	8518.53
492.976	8663.93
493.18	8651.64
493.383	8682.36
493.587	8835.96
493.79	8848.25
493.994	8670.08
494.197	8905.59
494.401	9071.48
494.605	8907.64
494.808	8954.74
495.012	9266.03
495.215	9016.18
495.419	9388.91
495.622	9259.89
495.825	9423.73
496.029	9614.19
496.232	9788.27
496.436	9698.16
496.639	9876.33
496.843	9800.55
497.046	10038.12
497.249	10115.94
497.453	10058.6
497.656	10206.05
497.859	10292.07
498.063	10421.09
498.266	10404.71
498.469	10562.4
498.673	10572.64
498.876	10814.3
499.079	10941.27
499.282	11029.34
499.485	11246.42
499.689	11295.57
499.892	11461.46
500.095	11432.79
500.298	11762.51
500.501	11735.88
500.705	11930.44
500.908	12135.24
501.111	12188.49
501.314	12413.76
501.517	12557.12
501.72	12464.96
501.923	12585.79
502.126	12964.67
502.329	13153.08
502.532	13173.56
502.735	13431.6
502.938	13437.75
503.141	13382.45
503.344	13562.67
503.547	13808.43
503.75	13880.11
503.953	14379.81
504.156	14291.75
504.359	14498.59
504.562	14572.32
504.765	14795.55
504.968	15145.75
505.17	15344.41
505.373	15086.36
505.576	15426.32
505.779	15723.28
505.982	15887.12
506.185	16216.84
506.387	16050.96
506.59	16085.77
506.793	16833.28
506.996	16337.67
507.198	16990.97
507.401	16931.58
507.604	16806.66
507.807	17423.09
508.009	17642.23
508.212	17668.85
508.415	17900.27
508.617	18076.4
508.82	18021.1
509.022	18287.34
509.225	18569.96
509.428	19040.99
509.63	18868.96
509.833	18940.64
510.035	19585.75
510.238	19667.67
510.44	19808.98
510.643	19811.03
510.845	20226.76
511.048	19907.28
511.25	20290.25
511.453	20515.53
511.655	21039.81
511.858	20865.73
512.06	21156.54
512.262	21777.08
512.465	21539.51
512.667	21734.07
512.87	22008.5
513.072	22246.06
513.274	22510.25
513.477	22649.51
513.679	23055.01
513.881	23286.43
514.084	23388.83
514.286	23276.19
514.488	23749.27
514.69	24306.32
514.893	24382.09
515.095	24375.95
515.297	24789.64
515.499	24795.78
515.701	25242.24
515.904	25447.04
516.106	25858.68
516.308	25739.9
516.51	26018.42
516.712	26157.68
516.914	26712.68
517.116	26647.15
517.318	27288.16
517.52	27224.67
517.722	27347.55
517.925	27574.88
518.127	27902.55
518.329	27957.85
518.531	28469.84
518.733	28785.22
518.935	28856.9
519.136	29299.26
519.338	29418.05
519.54	29665.85
519.742	30130.74
519.944	30044.73
520.146	30482.99
520.348	30482.99
520.55	30890.54
520.752	30851.63
520.954	31228.45
521.155	31253.03
521.357	32174.61
521.559	31945.24
521.761	32666.13
521.963	32625.17
522.164	32731.66
522.366	32875.02
522.568	33024.52
522.77	33116.68
522.971	34060.79
523.173	33645.05
523.375	33778.17
523.576	33944.06
523.778	33812.99
523.98	34830.83
524.181	34460.15
524.383	34589.17
524.584	35109.35
524.786	35150.31
524.988	35230.18
525.189	35684.83
525.391	36139.48
525.592	36100.57
525.794	36233.69
525.995	36393.43
526.197	36413.91
526.398	36647.38
526.6	37423.56
526.801	36794.83
527.003	37075.4
527.204	37126.6
527.406	37562.82
527.607	37366.21
527.808	38357.43
528.01	37487.04
528.211	37915.07
528.412	38519.22
528.614	38093.24
528.815	38203.83
529.016	38588.85
529.218	38310.33
529.419	38222.26
529.62	38949.29
529.822	38543.8
530.023	38949.29
530.224	39049.64
530.425	38785.46
530.626	38859.18
530.828	38818.22
531.029	39373.22
531.23	38740.4
531.431	39430.57
531.632	39645.6
531.833	39678.37
532.035	39758.24
532.236	39522.72
532.437	39874.98
532.638	39635.36
532.839	39424.42
533.04	40092.06
533.241	39379.37
533.442	40223.13
533.643	40010.14
533.844	39713.19
534.045	40339.86
534.246	39553.44
534.447	40102.3
534.648	39758.24
534.849	40163.74
535.05	39670.18
535.251	40423.83
535.451	39727.52
535.652	40350.1
535.853	40137.12
536.054	40329.62
536.255	40559
536.456	39977.37
536.657	40634.77
536.857	40149.4
537.058	39838.11
537.259	40239.51
537.46	40667.54
537.66	40391.06
537.861	40657.3
538.062	40247.71
538.263	40128.92
538.463	40382.87
538.664	40212.89
538.865	40454.55
539.065	40542.61
539.266	39834.02
539.466	40462.74
539.667	40120.73
539.868	40896.91
540.068	40145.31
540.269	40602
540.469	40477.08
540.67	40061.34
540.87	40499.61
541.071	40257.95
541.271	40821.14
541.472	40319.38
541.672	40075.68
541.873	40624.53
542.073	39780.77
542.274	40901.01
542.474	40255.9
542.675	40157.6
542.875	40274.33
543.075	40159.64
543.276	39885.22
543.476	40567.19
543.676	39870.88
543.877	40364.44
544.077	40081.82
544.277	40036.77
544.478	40190.36
544.678	40214.94
544.878	40358.3
545.078	40309.14
545.279	40100.25
545.479	40229.27
545.679	40102.3
545.879	40214.94
546.079	40190.36
546.28	40286.62
546.48	39725.47
546.68	40554.9
546.88	39690.66
547.08	40190.36
547.28	40083.87
547.48	39934.37
547.68	40186.27
547.88	39545.25
548.081	39985.57
548.281	40421.78
548.481	39985.57
548.681	40313.24
548.881	40096.16
549.081	40065.44
549.28	40081.82
549.48	39948.7
549.68	40386.97
549.88	40565.14
550.08	39842.21
550.28	40268.19
550.48	40114.59
550.68	40288.67
550.88	40231.32
551.08	39952.8
551.279	39803.3
551.479	39686.56
551.679	40210.84
551.879	40102.3
552.079	40137.12
552.278	39772.58
552.478	39743.91
552.678	40047
552.878	40049.05
553.077	40006.05
553.277	39823.78
553.477	40194.46
553.676	39805.34
553.876	39461.29
554.076	39514.53
554.275	39592.36
554.475	39217.58
554.674	39629.22
554.874	39840.16
555.074	39735.71
555.273	39829.92
555.473	40104.35
555.672	39172.52
555.872	39711.14
556.071	39444.9
556.271	39698.85
556.47	39027.12
556.67	39072.17
556.869	39248.3
557.068	39498.15
557.268	39055.79
557.467	39313.83
557.667	38951.34
557.866	39219.63
558.065	39123.37
558.265	38762.93
558.464	38707.63
558.663	39078.32
558.863	38556.08
559.062	39285.16
559.261	38846.9
559.461	38953.39
559.66	38228.41
559.859	38586.8
560.058	38271.42
560.258	38521.27
560.457	38259.13
560.656	38402.49
560.855	38564.28
561.054	38259.13
561.253	38191.55
561.453	38214.07
561.652	37937.6
561.851	38179.26
562.05	38369.72
562.249	37980.6
562.448	38111.67
562.647	37818.81
562.846	38111.67
563.045	38068.67
563.244	37380.55
563.443	37972.41
563.642	37190.09
563.841	37220.81
564.04	37208.52
564.239	37640.64
564.438	37317.06
564.637	37704.13
564.836	36997.58
565.035	36764.11
565.234	36962.76
565.432	36794.83
565.631	36626.9
565.83	36905.42
566.029	36346.33
566.228	36463.06
566.427	36325.85
566.625	36495.83
566.824	36090.33
567.023	36630.99
567.222	35930.59
567.42	36422.1
567.619	36088.28
567.818	35729.89
568.016	35529.19
568.215	35946.97
568.414	35639.78
568.612	35963.36
568.811	35351.01
569.01	35592.67
569.208	34988.52
569.407	35469.79
569.605	34839.02
569.804	35375.59
570.002	34808.3
570.201	35068.39
570.4	34873.84
570.598	34802.16
570.797	34472.43
570.995	34720.24
571.193	34243.06
571.392	34505.2
571.59	34365.94
571.789	34066.94
571.987	34339.32
572.186	33888.76
572.384	33726.97
572.582	33894.91
572.781	34206.2
572.979	33438.21
573.177	33657.34
573.376	34105.85
573.574	33524.22
573.772	33974.78
573.971	33247.75
574.169	33083.91
574.367	33018.38
574.565	33063.43
574.763	33133.06
574.962	32778.76
575.16	32653.84
575.358	33288.71
575.556	32272.92
575.754	32840.2
575.952	32446.99
576.151	32692.75
576.349	32459.28
576.547	32291.35
576.745	32363.03
576.943	32201.24
577.141	32256.53
577.339	32352.79
577.537	31812.12
577.735	31859.23
577.933	31615.52
578.131	31943.19
578.329	31410.72
578.527	31244.84
578.725	31642.14
578.923	31775.26
579.121	31062.57
579.319	31248.93
579.516	31636
579.714	31097.38
579.912	30931.5
580.11	30728.75
580.308	30902.82
580.506	31031.85
580.704	30306.87
580.901	30757.42
581.099	30700.08
581.297	30157.36
581.495	30325.3
581.692	30384.69
581.89	30163.51
582.088	30384.69
582.285	29909.56
582.483	29985.33
582.681	30251.57
582.878	29512.25
583.076	29694.52
583.274	29829.69
583.471	29651.52
583.669	29825.59
583.866	29700.67
584.064	29430.33
584.262	29203.01
584.459	29764.15
584.657	29127.24
584.854	29504.06
585.052	28854.86
585.249	29252.16
585.447	29041.22
585.644	28664.39
585.841	28918.34
586.039	29135.43
586.236	28506.7
586.434	28693.07
586.631	28510.8
586.828	28443.21
587.026	28451.41
587.223	28314.19
587.42	28240.47
587.618	27873.88
587.815	27785.82
588.012	27736.66
588.21	27839.06
588.407	27738.71
588.604	27671.13
588.801	27585.12
588.999	27595.35
589.196	27507.29
589.393	27279.97
589.59	27593.31
589.787	27226.72
589.984	27069.03
590.182	26944.1
590.379	26987.11
590.576	26894.95
590.773	26925.67
590.97	26737.26
591.167	27038.31
591.364	26305.13
591.561	26657.39
591.758	26425.96
591.955	26397.29
592.152	26622.57
592.349	26446.44
592.546	26253.94
592.743	26405.49
592.94	25932.4
593.137	26192.5
593.334	26104.43
593.531	25698.94
593.727	25795.19
593.924	25604.73
594.121	25653.88
594.318	25711.22
594.515	25510.52
594.712	25766.52
594.908	25152.13
595.105	25303.68
595.302	25217.66
595.499	25434.75
595.696	25031.3
595.892	25002.63
596.089	25016.96
596.286	25102.98
596.482	24783.49
596.679	24826.5
596.876	24849.03
597.072	24816.26
597.269	24552.07
597.466	24588.94
597.662	24425.1
597.859	24529.55
598.055	24593.03
598.252	24142.48
598.448	24074.9
598.645	24267.41
598.841	24128.14
599.038	24189.58
599.234	23995.03
599.431	23835.28
599.627	23693.97
599.824	23866
600.02	23734.93
600.217	23638.68
600.413	23405.21
600.609	23106.21
600.806	23429.79
601.002	23480.99
601.198	23145.12
601.395	23292.57
601.591	22954.66
601.787	23153.31
601.984	23157.41
602.18	22815.4
602.376	22938.27
602.572	22657.7
602.769	22618.79
602.965	22530.73
603.161	22516.39
603.357	22510.25
603.553	22616.74
603.75	22405.8
603.946	21959.34
604.142	22231.72
604.338	22031.02
604.534	22106.8
604.73	21904.05
604.926	21936.82
605.122	22133.42
605.318	21625.53
605.514	21564.09
605.71	21580.47
605.906	21527.22
606.102	21660.34
606.298	21719.73
606.494	21344.95
606.69	21748.4
606.886	21531.32
607.082	21238.46
607.278	21426.87
607.474	21078.72
607.67	21394.11
607.866	21117.63
608.062	21166.78
608.257	21269.18
608.453	21154.49
608.649	21101.25
608.845	20812.48
609.041	20796.1
609.236	20918.98
609.432	21060.29
609.628	20796.1
609.824	20613.83
610.019	20710.08
610.215	20617.93
610.411	20818.63
610.606	20476.62
610.802	20384.46
610.998	20562.63
611.193	20568.77
611.389	20505.29
611.584	20382.41
611.78	20308.68
611.976	20028.11
612.171	20361.93
612.367	20224.72
612.562	20200.14
612.758	19808.98
612.953	20042.45
613.149	20357.83
613.344	19890.9
613.539	20105.93
613.735	19894.99
613.93	20280.01
614.126	20021.97
614.321	20095.69
614.517	19796.69
614.712	19710.68
614.907	19821.27
615.103	19888.85
615.298	19671.76
615.493	20101.84
615.688	19333.85
615.884	19688.15
616.079	19329.75
616.274	19237.59
616.47	19368.66
616.665	19702.48
616.86	19374.81
617.055	19469.01
617.25	19337.94
617.445	19063.52
617.641	18885.34
617.836	19411.67
618.031	18957.02
618.226	19251.93
618.421	19004.13
618.616	18911.97
618.811	18967.26
619.006	19018.46
619.201	18436.84
619.396	18703.07
619.591	18342.63
619.786	18576.1
619.981	18455.27
620.176	18416.36
620.371	17924.85
620.566	18324.2
620.761	18133.74
620.956	18039.53
621.151	17863.41
621.346	18000.62
621.541	17560.31
621.735	18283.24
621.93	17576.69
622.125	17691.38
622.32	17462.01
622.515	17378.04
622.709	17416.95
622.904	17302.26
623.099	17097.47
623.294	17226.49
623.488	16919.29
623.683	17046.27
623.878	16802.56
624.072	16737.02
624.267	16845.57
624.462	16837.38
624.656	16530.18
624.851	16341.77
625.046	16329.48
625.24	16309
625.435	16362.25
625.629	16089.87
625.824	16155.4
626.018	16225.03
626.213	15710.99
626.407	15936.27
626.602	15522.58
626.796	15631.12
626.991	15815.44
627.185	15579.92
627.38	15469.33
627.574	15338.26
627.768	15147.8
627.963	15129.37
628.157	15024.92
628.352	15123.23
628.546	15020.83
628.74	14979.87
628.935	14523.17
629.129	14777.12
629.323	14547.75
629.517	14644
629.712	14363.43
629.906	14435.11
630.1	14041.9
630.294	14390.05
630.489	14039.85
630.683	14385.96
630.877	13781.81
631.071	13857.58
631.265	13800.24
631.459	13765.42
631.653	13945.64
631.848	13843.24
632.042	13779.76
632.236	13773.61
632.43	13562.67
632.624	13634.35
632.818	13593.39
633.012	13056.82
633.206	13175.61
633.4	13368.12
633.594	13134.65
633.788	13108.02
633.982	13112.12
634.176	12991.29
634.369	12729.15
634.563	12907.32
634.757	12698.43
634.951	12604.22
635.145	12628.8
635.339	12792.64
635.533	12659.52
635.726	12514.11
635.92	12223.3
636.114	12407.62
636.308	12186.44
636.501	12397.38
636.695	12004.17
636.889	12180.29
637.083	11813.71
637.276	11848.52
637.47	12008.26
637.664	11760.46
637.857	11907.91
638.051	11787.08
638.244	11576.14
638.438	11656.01
638.632	11520.85
638.825	11340.63
639.019	11414.35
639.212	10943.32
639.406	11262.8
639.599	11129.69
639.793	11318.1
639.986	10969.94
640.18	11137.88
640.373	10865.5
640.567	11117.4
640.76	10910.55
640.954	10804.06
641.147	10664.8
641.34	10578.78
641.534	10775.39
641.727	10513.25
641.92	10535.78
642.114	10398.56
642.307	10521.44
642.5	10466.14
642.694	10109.8
642.887	10165.09
643.08	10171.24
643.273	10070.89
643.467	10169.19
643.66	9909.1
643.853	10027.88
644.046	9943.91
644.239	9919.34
644.432	9956.2
644.626	9761.64
644.819	9800.55
645.012	9704.3
645.205	9722.73
645.398	9657.2
645.591	9603.95
645.784	9436.02
645.977	9384.82
646.17	9546.61
646.363	9362.29
646.556	9143.16
646.749	9302.9
646.942	9343.86
647.135	9036.66
647.328	9096.05
647.521	9053.05
647.714	8989.56
647.907	8881.02
648.099	8975.22
648.292	9069.43
648.485	8866.68
648.678	8774.52
648.871	8778.62
649.064	8627.07
649.256	8670.08
649.449	8485.76
649.642	8584.06
649.835	8446.85
650.027	8399.74
650.22	8442.75
650.413	8551.29
650.605	8420.22
650.798	8430.46
650.991	8246.15
651.183	8272.77
651.376	8119.17
651.568	8188.8
651.761	8186.76
651.954	8162.18
652.146	7959.43
652.339	7992.2
652.531	7971.72
652.724	7941
652.916	7799.69
653.109	7781.26
653.301	7588.75
653.494	7932.81
653.686	7629.71
653.879	7627.66
654.071	7662.48
654.263	7629.71
654.456	7711.63
654.648	7521.17
654.84	7381.9
655.033	7232.4
655.225	7365.52
655.417	7279.5
655.61	7383.95
655.802	7394.19
655.994	6974.36
656.186	7224.21
656.379	7224.21
656.571	7306.13
656.763	7123.86
656.955	7084.95
657.148	7269.27
657.34	7023.51
657.532	6853.53
657.724	6804.38
657.916	6998.93
658.108	6957.97
658.3	6855.58
658.492	6884.25
658.684	6517.66
658.876	6804.38
659.068	6615.96
659.26	6663.07
659.452	6689.69
659.644	6661.02
659.836	6425.5
660.028	6505.37
660.22	6480.8
660.412	6400.93
660.604	6503.32
660.796	6413.21
660.988	6394.78
661.18	6362.01
661.372	6185.89
661.563	6271.9
661.755	6187.94
661.947	6255.52
662.139	6196.13
662.331	6294.43
662.522	6091.68
662.714	5954.47
662.906	6083.49
663.097	6034.34
663.289	6032.29
663.481	5995.43
663.673	6050.72
663.864	5770.15
664.056	5913.51
664.247	5817.26
664.439	5694.38
664.631	5856.17
664.822	5966.76
665.014	5661.61
665.205	5659.56
665.397	5639.08
665.588	5688.23
665.78	5548.97
665.971	5573.55
666.163	5606.31
666.354	5569.45
666.546	5479.34
666.737	5370.8
666.929	5430.19
667.12	5477.29
667.311	5372.85
667.503	5395.37
667.694	5413.81
667.885	5327.79
668.077	5270.45
668.268	5215.15
668.459	5348.27
668.651	5266.35
668.842	5346.22
669.033	5206.96
669.224	5082.03
669.416	5237.68
669.607	5065.65
669.798	5266.35
669.989	5192.62
670.18	5039.03
670.371	4955.06
670.563	4944.82
670.754	5061.55
670.945	4975.54
671.136	5012.4
671.327	4996.02
671.518	4955.06
671.709	4977.59
671.9	4924.34
672.091	4875.19
672.282	4918.2
672.473	4844.47
672.664	4813.75
672.855	4785.08
673.046	4744.12
673.237	4776.89
673.428	4654.01
673.619	4717.5
673.809	4672.44
674	4750.26
674.191	4711.35
674.382	4582.33
674.573	4731.83
674.764	4516.8
674.954	4645.82
675.145	4524.99
675.336	4619.19
675.527	4660.15
675.717	4633.53
675.908	4514.75
676.099	4418.49
676.289	4572.09
676.48	4570.04
676.671	4459.45
676.861	4371.39
677.052	4383.68
677.243	4355.01
677.433	4414.4
677.624	4430.78
677.814	4408.25
678.005	4369.34
678.195	4285.37
678.386	4391.87
678.576	4305.85
678.767	4291.52
678.957	4221.89
679.148	4219.84
679.338	4217.79
679.529	4516.8
679.719	4201.41
679.909	4244.42
680.1	4148.16
680.29	4322.24
680.481	4187.07
680.671	4101.06
680.861	4187.07
681.052	4295.61
681.242	4148.16
681.432	4246.46
681.622	4068.29
681.813	4156.35
682.003	4119.49
682.193	4156.35
682.383	4092.87
682.573	4123.59
682.764	4080.58
682.954	3945.41
683.144	4066.24
683.334	4029.38
683.524	4025.28
683.714	3953.6
683.904	4021.19
684.094	4041.67
684.284	3881.92
684.474	4021.19
684.664	3963.84
684.854	3931.08
685.044	4123.59
685.234	3943.36
685.424	3830.73
685.614	3877.83
685.804	3875.78
685.994	3847.11
686.184	3992.52
686.374	3873.73
686.564	3935.17
686.753	3736.52
686.943	3816.39
687.133	3722.18
687.323	3744.71
687.513	3584.97
687.702	3789.77
687.892	3765.19
688.082	3720.14
688.272	3722.18
688.461	3757
688.651	3699.66
688.841	3701.7
689.03	3621.83
689.22	3632.07
689.41	3689.42
689.599	3632.07
689.789	3517.39
689.979	3574.73
690.168	3533.77
690.358	3548.11
690.547	3556.3
690.737	3603.4
690.926	3353.55
691.116	3408.84
691.305	3482.57
691.495	3453.9
691.684	3412.94
691.874	3437.52
692.063	3513.29
692.252	3357.64
692.442	3339.21
692.631	3371.98
692.82	3419.08
693.01	3369.93
693.199	3470.28
693.388	3378.12
693.578	3310.54
693.767	3261.39
693.956	3269.58
694.146	3193.81
694.335	3339.21
694.524	3335.12
694.713	3320.78
694.902	3320.78
695.092	3468.24
695.281	3263.44
695.47	3328.97
695.659	3263.44
695.848	3083.22
696.037	3261.39
696.226	3161.04
696.415	3204.05
696.604	3245.01
696.793	3115.98
696.982	3242.96
697.171	3197.9
697.36	3148.75
697.549	3115.98
697.738	3079.12
697.927	3167.18
698.116	3210.19
698.305	3204.05
698.494	3218.38
698.683	2958.29
698.872	3134.42
699.061	3197.9
699.25	3146.7
699.438	3109.84
699.627	3152.85
699.816	3169.23
700.005	3115.98
700.193	3173.33
700.382	3136.46
700.571	3138.51
700.76	3015.63
700.948	3156.94
701.137	3040.21
701.326	3181.52
701.514	3062.74
701.703	3062.74
701.892	2997.2
702.08	3089.36
702.269	3077.07
702.457	3034.07
702.646	2980.82
702.834	3128.27
703.023	3005.39
703.212	3027.92
703.4	3046.35
703.589	3021.78
703.777	3023.83
703.965	2984.91
704.154	3011.54
704.342	3023.83
704.531	3036.11
704.719	2943.96
704.907	3081.17
705.096	3005.39
705.284	3032.02
705.472	3001.3
705.661	3058.64
705.849	2952.15
706.037	2991.06
706.226	3083.22
706.414	3019.73
706.602	2950.1
706.79	3109.84
706.979	2964.43
707.167	2984.91
707.355	3007.44
707.543	3038.16
707.731	3087.31
707.919	2939.86
708.107	3029.97
708.296	2991.06
708.484	2997.2
708.672	3115.98
708.86	2993.11
709.048	2976.72
709.236	3040.21
709.424	2835.41
709.612	3021.78
709.8	2864.08
709.988	2857.94
710.176	2986.96
710.364	2903
710.551	2905.04
710.739	2765.78
710.927	2913.24
711.115	2892.76
711.303	2882.52
711.491	2933.72
711.679	2874.32
711.866	2968.53
712.054	2946
712.242	2935.76
712.43	2933.72
712.617	2995.15
712.805	3027.92
712.993	2847.7
713.181	2841.56
713.368	2911.19
713.556	2972.63
713.744	2761.69
713.931	2880.47
714.119	2900.95
714.306	2851.8
714.494	2900.95
714.682	2857.94
714.869	2896.85
715.057	2841.56
715.244	2857.94
715.432	2872.28
715.619	2917.33
715.807	2880.47
715.994	2833.36
716.182	2837.46
716.369	2980.82
716.556	2872.28
716.744	2835.41
716.931	2804.69
717.119	2833.36
717.306	2835.41
717.493	2849.75
717.681	2794.45
717.868	2821.08
718.055	2751.45
718.242	2790.36
718.43	2927.57
718.617	2880.47
718.804	2796.5
718.991	2726.87
719.179	2778.07
719.366	2798.55
719.553	2782.17
719.74	2704.34
719.927	2741.21
720.114	2823.12
720.301	2847.7
720.488	2696.15
720.676	2849.75
720.863	2845.65
721.05	2722.77
721.237	2829.27
721.424	2677.72
721.611	2819.03
721.798	2663.38
721.985	2718.68
722.172	2833.36
722.358	2812.89
722.545	2806.74
722.732	2769.88
722.919	2753.49
723.106	2644.95
723.293	2669.53
723.48	2812.89
723.667	2776.02
723.853	2679.77
724.04	2804.69
724.227	2757.59
724.414	2706.39
724.6	2655.19
724.787	2843.6
724.974	2675.67
725.161	2722.77
725.347	2657.24
725.534	2739.16
725.72	2687.96
725.907	2698.2
726.094	2630.62
726.28	2776.02
726.467	2829.27
726.653	2603.99
726.84	2706.39
727.027	2700.25
727.213	2757.59
727.4	2651.1
727.586	2651.1
727.773	2681.82
727.959	2706.39
728.145	2692.05
728.332	2657.24
728.518	2755.54
728.705	2669.53
728.891	2712.53
729.077	2769.88
729.264	2593.75
729.45	2665.43
729.636	2747.35
729.823	2622.42
730.009	2745.3
730.195	2556.89
730.382	2698.2
730.568	2677.72
730.754	2730.97
730.94	2743.25
731.126	2603.99
731.313	2714.58
731.499	2681.82
731.685	2683.86
731.871	2653.14
732.057	2669.53
732.243	2587.61
732.429	2663.38
732.615	2692.05
732.801	2481.11
732.987	2565.08
733.173	2647
733.359	2677.72
733.545	2583.51
733.731	2599.9
733.917	2495.45
734.103	2634.71
734.289	2679.77
734.475	2599.9
734.661	2669.53
734.847	2560.98
735.033	2671.58
735.219	2626.52
735.404	2534.36
735.59	2560.98
735.776	2640.86
735.962	2571.22
736.148	2694.1
736.333	2628.57
736.519	2481.11
736.705	2505.69
736.89	2526.17
737.076	2599.9
737.262	2450.39
737.447	2530.27
737.633	2546.65
737.819	2595.8
738.004	2622.42
738.19	2515.93
738.375	2593.75
738.561	2485.21
738.747	2374.62
738.932	2608.09
739.118	2628.57
739.303	2479.07
739.489	2423.77
739.674	2382.81
739.859	2491.35
740.045	2530.27
740.23	2458.59
740.416	2507.74
740.601	2391
740.786	2503.64
740.972	2268.13
741.157	2515.93
741.342	2438.11
741.528	2429.91
741.713	2489.31
741.898	2391
742.084	2288.61
742.269	2427.87
742.454	2307.04
742.639	2302.94
742.824	2304.99
743.01	2352.09
743.195	2270.17
743.38	2325.47
743.565	2309.08
743.75	2198.49
743.935	2276.32
744.12	2354.14
744.305	2233.31
744.49	2257.89
744.675	2204.64
744.86	2137.06
745.045	2282.46
745.23	2354.14
745.415	2333.66
745.6	2229.21
745.785	2186.21
745.97	2106.34
746.155	2128.86
746.34	2171.87
746.525	2208.73
746.71	2118.62
746.895	2034.66
747.079	2085.86
747.264	2132.96
747.449	2147.3
747.634	2163.68
747.819	2069.47
748.003	2036.7
748.188	2038.75
748.373	2008.03
748.557	2089.95
748.742	1934.31
748.927	2014.18
749.111	1919.97
749.296	1975.27
749.481	2042.85
749.665	1922.02
749.85	2024.42
750.034	1981.41
750.219	1840.1
750.404	1962.98
750.588	1883.11
750.773	1967.07
750.957	1749.99
751.141	1885.16
751.326	1956.83
751.51	1907.68
751.695	1829.86
751.879	1793
752.064	1788.9
752.248	1690.6
752.432	1821.67
752.617	1801.19
752.801	1739.75
752.985	1745.89
753.17	1668.07
753.354	1745.89
753.538	1596.39
753.722	1645.54
753.907	1717.22
754.091	1702.89
754.275	1596.39
754.459	1723.37
754.643	1633.26
754.828	1569.77
755.012	1575.91
755.196	1590.25
755.38	1631.21
755.564	1506.28
755.748	1641.45
755.932	1639.4
756.116	1618.92
756.3	1534.95
756.484	1481.71
756.668	1504.23
756.852	1545.19
757.036	1491.95
757.22	1477.61
757.404	1367.02
757.588	1434.6
757.772	1442.79
757.956	1459.18
758.14	1514.47
758.323	1377.26
758.507	1545.19
758.691	1450.99
758.875	1399.79
759.059	1371.12
759.242	1448.94
759.426	1385.45
759.61	1416.17
759.794	1305.58
759.977	1385.45
760.161	1350.64
760.345	1262.57
760.528	1379.31
760.712	1307.63
760.895	1348.59
761.079	1371.12
761.263	1301.48
761.446	1252.33
761.63	1260.52
761.813	1168.37
761.997	1258.48
762.18	1201.13
762.364	1252.33
762.547	1235.95
762.731	1256.43
762.914	1250.28
763.098	1240.05
763.281	1266.67
763.464	1258.48
763.648	1168.37
763.831	1057.78
764.015	1264.62
764.198	1205.23
764.381	1197.04
764.564	1145.84
764.748	1133.55
764.931	1149.93
765.114	1154.03
765.297	1264.62
765.481	1143.79
765.664	1100.78
765.847	1080.3
766.03	1160.17
766.213	1174.51
766.397	1080.3
766.58	1068.02
766.763	1072.11
766.946	1072.11
767.129	1106.93
767.312	1076.21
767.495	1137.65
767.678	1088.5
767.861	1041.39
768.044	1129.45
768.227	1119.21
768.41	1051.63
768.593	1059.82
768.776	1055.73
768.959	1045.49
769.142	1078.26
769.324	1039.34
769.507	1106.93
769.69	1027.06
769.873	1090.54
770.056	1084.4
770.239	996.34
770.421	1014.77
770.604	1041.39
770.787	1010.67
770.97	1004.53
771.152	975.86
771.335	975.86
771.518	891.89
771.7	1020.91
771.883	941.04
772.066	941.04
772.248	979.95
772.431	971.76
772.613	906.23
772.796	967.67
772.978	994.29
773.161	957.43
773.343	1002.48
773.526	902.13
773.708	906.23
773.891	895.99
774.073	922.61
774.256	961.52
774.438	973.81
774.621	799.73
774.803	928.75
774.985	859.12
775.168	979.95
775.35	848.88
775.532	895.99
775.715	807.92
775.897	865.27
776.079	758.77
776.261	795.64
776.444	869.36
776.626	807.92
776.808	842.74
776.99	775.16
777.173	848.88
777.355	807.92
777.537	816.12
777.719	832.5
777.901	777.2
778.083	670.71
778.265	758.77
778.447	773.11
778.629	785.4
778.811	760.82
778.993	709.62
779.175	809.97
779.357	674.81
779.539	771.06
779.721	748.53
779.903	719.86
780.085	687.09
780.267	687.09
780.449	707.57
780.631	713.72
780.812	709.62
780.994	680.95
781.176	594.93
781.358	660.47
781.54	695.29
781.721	674.81
781.903	691.19
782.085	680.95
782.267	658.42
782.448	562.17
782.63	605.17
782.812	580.6
782.993	629.75
783.175	685.05
783.357	560.12
783.538	707.57
783.72	586.74
783.901	639.99
784.083	607.22
784.264	574.46
784.446	551.93
784.627	631.8
784.809	531.45
784.99	533.5
785.172	586.74
785.353	553.98
785.535	580.6
785.716	547.83
785.897	551.93
786.079	531.45
786.26	580.6
786.441	502.78
786.623	584.7
786.804	472.06
786.985	599.03
787.167	504.82
787.348	416.76
787.529	502.78
787.71	574.46
787.891	535.54
788.073	427
788.254	478.2
788.435	553.98
788.616	506.87
788.797	431.1
788.978	525.3
789.159	424.95
789.34	478.2
789.522	470.01
789.703	465.91
789.884	519.16
790.065	420.86
790.246	443.39
790.427	447.48
790.607	549.88
790.788	451.58
790.969	424.95
791.15	441.34
791.331	437.24
791.512	435.19
791.693	439.29
791.874	457.72
792.054	474.1
792.235	437.24
792.416	459.77
792.597	449.53
792.778	400.38
792.958	461.82
793.139	383.99
793.32	367.61
793.5	422.91
793.681	400.38
793.862	398.33
794.042	400.38
794.223	308.22
794.404	441.34
794.584	293.88
794.765	330.75
794.945	334.84
795.126	427
795.306	410.62
795.487	375.8
795.667	410.62
795.848	369.66
796.028	359.42
796.209	377.85
796.389	340.99
796.57	422.91
796.75	381.95
796.93	338.94
797.111	340.99
797.291	328.7
797.471	340.99
797.652	322.56
797.832	332.79
798.012	375.8
798.192	267.26
798.373	343.03
798.553	332.79
798.733	316.41
798.913	328.7
799.093	263.16
799.274	271.36
799.454	416.76
799.634	277.5
799.814	302.08
799.994	302.08
800.174	306.17
800.354	271.36
800.534	297.98
800.714	295.93
800.894	304.12
801.074	295.93
801.254	236.54
801.434	277.5
801.614	334.84
801.794	275.45
801.974	678.9
802.154	273.4
802.334	295.93
802.514	228.35
802.693	205.82
802.873	232.44
803.053	351.23
803.233	324.6
803.413	338.94
803.592	304.12
803.772	297.98
803.952	269.31
804.131	312.32
804.311	259.07
804.491	287.74
804.67	277.5
804.85	259.07
805.03	293.88
805.209	269.31
805.389	140.29
805.568	254.97
805.748	240.64
805.928	293.88
806.107	263.16
806.287	250.88
806.466	295.93
806.646	234.49
806.825	197.63
807.004	302.08
807.184	216.06
807.363	287.74
807.543	238.59
807.722	283.64
807.901	293.88
808.081	347.13
808.26	218.11
808.439	242.68
808.619	224.25
808.798	205.82
808.977	259.07
809.156	271.36
809.336	201.72
809.515	277.5
809.694	148.48
809.873	228.35
810.052	244.73
810.231	285.69
810.411	113.66
810.59	193.53
810.769	257.02
810.948	250.88
811.127	195.58
811.306	254.97
811.485	226.3
811.664	318.46
811.843	281.6
812.022	261.12
812.201	199.68
812.38	232.44
812.559	168.96
812.737	146.43
812.916	142.33
813.095	234.49
813.274	216.06
813.453	214.01
813.632	211.96
813.811	220.16
813.989	216.06
814.168	193.53
814.347	154.62
814.526	289.79
814.704	216.06
814.883	179.2
815.062	150.53
815.24	136.19
815.419	275.45
815.598	244.73
815.776	109.57
815.955	197.63
816.133	160.77
816.312	209.92
816.49	246.78
816.669	162.81
816.847	117.76
817.026	197.63
817.204	207.87
817.383	168.96
817.561	160.77
817.74	197.63
817.918	207.87
818.097	248.83
818.275	191.49
818.453	171.01
818.632	168.96
818.81	142.33
818.988	87.04
819.167	203.77
819.345	240.64
819.523	142.33
819.701	119.81
819.879	191.49
820.058	191.49
820.236	175.1
820.414	162.81
820.592	115.71
820.77	158.72
820.948	128
821.127	46.08
821.305	166.91
821.483	209.92
821.661	173.05
821.839	220.16
822.017	171.01
822.195	185.34
822.373	134.14
822.551	220.16
822.729	203.77
822.907	197.63
823.085	199.68
823.262	119.81
823.44	171.01
823.618	220.16
823.796	105.47
823.974	216.06
824.152	125.95
824.329	185.34
824.507	146.43
824.685	160.77
824.863	66.56
825.04	72.7
825.218	160.77
825.396	84.99
825.574	222.2
825.751	123.9
825.929	142.33
826.107	125.95
826.284	115.71
826.462	101.37
826.639	187.39
826.817	144.38
826.994	80.89
827.172	101.37
827.349	101.37
827.527	119.81
827.704	166.91
827.882	171.01
828.059	121.85
828.237	144.38
828.414	177.15
828.591	115.71
828.769	142.33
828.946	111.61
829.124	117.76
829.301	123.9
829.478	60.42
829.655	162.81
829.833	103.42
830.01	109.57
830.187	117.76
830.364	99.33
830.542	82.94
830.719	99.33
830.896	125.95
831.073	179.2
831.25	146.43
831.427	119.81
831.604	109.57
831.782	164.86
831.959	162.81
832.136	103.42
832.313	162.81
832.49	160.77
832.667	138.24
832.844	56.32
833.021	171.01
833.198	99.33
833.374	107.52
833.551	111.61
833.728	93.18
833.905	99.33
834.082	115.71
834.259	74.75
834.436	58.37
834.612	140.29
834.789	160.77
834.966	41.98
835.143	125.95
835.319	62.46
835.496	128
835.673	95.23
835.85	82.94
836.026	62.46
836.203	138.24
836.38	148.48
836.556	134.14
836.733	89.09
836.909	128
837.086	76.8
837.262	103.42
837.439	66.56
837.616	58.37
837.792	87.04
837.968	130.05
838.145	37.89
838.321	78.85
838.498	74.75
838.674	132.09
838.851	146.43
839.027	33.79
839.203	136.19
839.38	113.66
839.556	78.85
839.732	177.15
839.909	50.18
840.085	211.96
840.261	84.99
840.437	68.61
840.614	84.99
840.79	117.76
840.966	-1.02
841.142	76.8
841.318	109.57
841.494	56.32
841.671	35.84
841.847	150.53
842.023	62.46
842.199	84.99
842.375	117.76
842.551	29.7
842.727	44.03
842.903	46.08
843.079	80.89
843.255	166.91
843.431	132.09
843.607	99.33
843.783	52.22
843.959	101.37
844.134	146.43
844.31	107.52
844.486	101.37
844.662	142.33
844.838	117.76
845.013	89.09
845.189	15.36
845.365	121.85
845.541	76.8
845.716	52.22
845.892	84.99
846.068	21.5
846.244	91.13
846.419	111.61
846.595	80.89
846.77	121.85
846.946	50.18
847.122	54.27
847.297	74.75
847.473	125.95
847.648	44.03
847.824	23.55
847.999	66.56
848.175	109.57
848.35	56.32
848.526	138.24
848.701	39.94
848.876	13.31
849.052	105.47
849.227	99.33
849.403	15.36
849.578	58.37
849.753	-33.79
849.929	105.47
850.104	138.24
850.279	13.31
850.454	72.7
850.63	84.99
850.805	76.8
850.98	11.26
851.155	70.65
851.33	91.13
851.505	11.26
851.681	29.7
851.856	52.22
852.031	19.46
852.206	93.18
852.381	132.09
852.556	107.52
852.731	80.89
852.906	21.5
853.081	74.75
853.256	107.52
853.431	64.51
853.606	66.56
853.781	21.5
853.956	39.94
854.131	72.7
854.305	64.51
854.48	87.04
854.655	29.7
854.83	35.84
855.005	31.74
855.18	35.84
855.354	72.7
855.529	123.9
855.704	105.47
855.879	13.31
856.053	41.98
856.228	109.57
856.403	21.5
856.577	74.75
856.752	78.85
856.926	128
857.101	64.51
857.276	5.12
857.45	70.65
857.625	3.07
857.799	134.14
857.974	-23.55
858.148	25.6
858.323	56.32
858.497	70.65
858.672	72.7
858.846	23.55
859.02	87.04
859.195	58.37
859.369	82.94
859.543	68.61
859.718	1.02
859.892	89.09
860.066	136.19
860.241	80.89
860.415	62.46
860.589	21.5
860.763	103.42
860.938	11.26
861.112	60.42
861.286	29.7
861.46	64.51
861.634	103.42
861.808	109.57
861.982	46.08
862.157	78.85
862.331	3.07
862.505	17.41
862.679	9.22
862.853	29.7
863.027	80.89
863.201	64.51
863.375	15.36
863.549	103.42
863.722	-7.17
863.896	50.18
864.07	62.46
864.244	31.74
864.418	62.46
864.592	66.56
864.766	50.18
864.939	64.51
865.113	70.65
865.287	125.95
865.461	15.36
865.634	111.61
865.808	84.99
865.982	25.6
866.156	-27.65
866.329	-21.5
866.503	105.47
866.676	74.75
866.85	-35.84
867.024	103.42
867.197	13.31
867.371	76.8
867.544	52.22
867.718	-15.36
867.891	46.08
868.065	74.75
868.238	66.56
868.412	60.42
868.585	41.98
868.759	60.42
868.932	62.46
869.105	15.36
869.279	52.22
869.452	64.51
869.625	56.32
869.799	113.66
869.972	66.56
870.145	44.03
870.319	89.09
870.492	-1.02
870.665	54.27
870.838	48.13
871.011	5.12
871.185	19.46
871.358	27.65
871.531	50.18
871.704	-13.31
871.877	80.89
872.05	78.85
872.223	46.08
872.396	44.03
872.569	27.65
872.742	21.5
872.915	105.47
873.088	56.32
873.261	-3.07
873.434	50.18
873.607	50.18
873.78	91.13
873.953	70.65
874.126	84.99
874.299	76.8
874.471	11.26
874.644	31.74
874.817	54.27
874.99	142.33
875.163	54.27
875.335	64.51
875.508	3.07
875.681	66.56
875.853	-46.08
876.026	-33.79
876.199	37.89
876.371	52.22
876.544	60.42
876.717	52.22
876.889	70.65
877.062	132.09
877.234	25.6
877.407	111.61
877.579	-1.02
877.752	-66.56
877.924	3.07
878.097	37.89
878.269	-44.03
878.442	84.99
878.614	39.94
878.786	44.03
878.959	15.36
879.131	39.94
879.303	31.74
879.476	35.84
879.648	101.37
879.82	5.12
879.993	-25.6
880.165	-23.55
880.337	13.31
880.509	-13.31
880.681	-11.26
880.854	13.31
881.026	23.55
881.198	80.89
881.37	25.6
881.542	35.84
881.714	56.32
881.886	93.18
882.058	56.32
882.23	66.56
882.402	-27.65
882.574	56.32
882.746	64.51
882.918	41.98
883.09	-33.79
883.262	-5.12
883.434	39.94
883.606	37.89
883.778	54.27
883.95	1.02
884.122	72.7
884.293	103.42
884.465	39.94
884.637	80.89
884.809	41.98
884.98	87.04
885.152	5.12
885.324	29.7
885.496	9.22
885.667	7.17
885.839	62.46
886.011	21.5
886.182	60.42
886.354	56.32
886.525	48.13
886.697	-17.41
886.869	66.56
887.04	11.26
887.212	39.94
887.383	50.18
887.555	87.04
887.726	3.07
887.897	29.7
888.069	35.84
888.24	-46.08
888.412	97.28
888.583	48.13
888.754	46.08
888.926	17.41
889.097	27.65
889.268	-13.31
889.44	19.46
889.611	39.94
889.782	19.46
889.953	50.18
890.125	58.37
890.296	-48.13
890.467	82.94
890.638	-5.12
890.809	1.02
890.98	3.07
891.151	48.13
891.323	27.65
891.494	95.23
891.665	52.22
891.836	-11.26
892.007	3.07
892.178	58.37
892.349	-5.12
892.52	-58.37
892.691	3.07
892.862	35.84
893.032	29.7
893.203	31.74
893.374	74.75
893.545	101.37
893.716	54.27
893.887	25.6
894.057	70.65
894.228	27.65
894.399	3.07
894.57	-74.75
894.74	35.84
894.911	-3.07
895.082	31.74
895.253	35.84
895.423	-1.02
895.594	27.65
895.764	70.65
895.935	68.61
896.106	48.13
896.276	-13.31
896.447	-7.17
896.617	23.55
896.788	23.55
896.958	101.37
897.129	27.65
897.299	25.6
897.47	60.42
897.64	-9.22
897.81	19.46
897.981	39.94
898.151	-25.6
898.322	7.17
898.492	27.65
898.662	72.7
898.832	5.12
899.003	74.75
899.173	60.42
899.343	-3.07
899.513	11.26
