Data from USB4F104151__260__11-11-55-255.txt Node

Date: Wed Mar 12 11:11:55 EDT 2025
User: louis
Spectrometer: USB4F10415
Trigger mode: 4
Integration Time (sec): 2.000000E-2
Scans to average: 1
Electric dark correction enabled: true
Nonlinearity correction enabled: false
Boxcar width: 0
XAxis mode: Wavelengths
Number of Pixels in Spectrum: 3648
>>>>>Begin Spectral Data<<<<<
178.204	-80.89
178.424	-80.89
178.644	-80.89
178.864	-44.03
179.084	-97.28
179.304	-19.46
179.524	-31.74
179.744	76.8
179.964	-23.55
180.184	-66.56
180.404	46.08
180.624	-5.12
180.844	-25.6
181.064	-52.22
181.283	25.6
181.503	7.17
181.723	68.61
181.943	-31.74
182.163	58.37
182.383	-13.31
182.602	9.22
182.822	-21.5
183.042	56.32
183.262	-19.46
183.482	-46.08
183.701	44.03
183.921	39.94
184.141	62.46
184.361	19.46
184.58	17.41
184.8	7.17
185.02	19.46
185.239	29.7
185.459	44.03
185.679	-1.02
185.898	-19.46
186.118	33.79
186.338	27.65
186.557	78.85
186.777	-3.07
186.997	21.5
187.216	33.79
187.436	-3.07
187.655	29.7
187.875	84.99
188.095	-21.5
188.314	21.5
188.534	11.26
188.753	41.98
188.973	27.65
189.192	54.27
189.412	-3.07
189.631	5.12
189.851	41.98
190.07	89.09
190.29	31.74
190.509	78.85
190.729	31.74
190.948	31.74
191.168	183.29
191.387	37.89
191.607	25.6
191.826	54.27
192.045	17.41
192.265	52.22
192.484	41.98
192.704	-35.84
192.923	33.79
193.142	84.99
193.362	58.37
193.581	11.26
193.8	70.65
194.02	74.75
194.239	74.75
194.458	62.46
194.678	39.94
194.897	15.36
195.116	35.84
195.335	62.46
195.555	17.41
195.774	111.61
195.993	-19.46
196.212	5.12
196.432	3.07
196.651	7.17
196.87	84.99
197.089	101.37
197.308	39.94
197.528	29.7
197.747	-15.36
197.966	21.5
198.185	-13.31
198.404	21.5
198.623	97.28
198.842	33.79
199.062	27.65
199.281	95.23
199.5	84.99
199.719	39.94
199.938	70.65
200.157	44.03
200.376	-21.5
200.595	29.7
200.814	9.22
201.033	11.26
201.252	39.94
201.471	31.74
201.69	78.85
201.909	19.46
202.128	84.99
202.347	39.94
202.566	46.08
202.785	39.94
203.004	50.18
203.223	56.32
203.442	29.7
203.661	-23.55
203.879	62.46
204.098	46.08
204.317	19.46
204.536	58.37
204.755	33.79
204.974	41.98
205.193	17.41
205.411	97.28
205.63	-19.46
205.849	33.79
206.068	33.79
206.287	33.79
206.505	39.94
206.724	56.32
206.943	44.03
207.162	80.89
207.381	29.7
207.599	23.55
207.818	25.6
208.037	48.13
208.255	21.5
208.474	5.12
208.693	11.26
208.911	9.22
209.13	37.89
209.349	72.7
209.567	19.46
209.786	35.84
210.005	-15.36
210.223	29.7
210.442	25.6
210.661	9.22
210.879	56.32
211.098	103.42
211.316	125.95
211.535	46.08
211.753	13.31
211.972	56.32
212.191	15.36
212.409	-5.12
212.628	37.89
212.846	9.22
213.065	-19.46
213.283	52.22
213.502	-17.41
213.72	-13.31
213.938	48.13
214.157	76.8
214.375	-13.31
214.594	56.32
214.812	64.51
215.031	68.61
215.249	-33.79
215.467	3.07
215.686	87.04
215.904	9.22
216.122	48.13
216.341	27.65
216.559	132.09
216.778	48.13
216.996	35.84
217.214	7.17
217.432	97.28
217.651	17.41
217.869	21.5
218.087	13.31
218.306	25.6
218.524	-56.32
218.742	37.89
218.96	37.89
219.179	17.41
219.397	-7.17
219.615	89.09
219.833	23.55
220.051	68.61
220.27	29.7
220.488	7.17
220.706	37.89
220.924	70.65
221.142	-1.02
221.36	-3.07
221.578	-9.22
221.796	109.57
222.015	62.46
222.233	3.07
222.451	-11.26
222.669	-1.02
222.887	5.12
223.105	-5.12
223.323	54.27
223.541	19.46
223.759	-52.22
223.977	91.13
224.195	54.27
224.413	-13.31
224.631	44.03
224.849	5.12
225.067	93.18
225.285	56.32
225.503	72.7
225.721	50.18
225.939	27.65
226.157	41.98
226.375	72.7
226.592	27.65
226.81	99.33
227.028	25.6
227.246	97.28
227.464	23.55
227.682	60.42
227.9	27.65
228.117	60.42
228.335	41.98
228.553	60.42
228.771	50.18
228.989	23.55
229.206	107.52
229.424	52.22
229.642	15.36
229.86	7.17
230.077	35.84
230.295	-15.36
230.513	44.03
230.731	97.28
230.948	-15.36
231.166	13.31
231.384	-1.02
231.601	35.84
231.819	37.89
232.037	-33.79
232.254	58.37
232.472	5.12
232.689	5.12
232.907	-13.31
233.125	62.46
233.342	70.65
233.56	19.46
233.777	41.98
233.995	27.65
234.213	132.09
234.43	52.22
234.648	-3.07
234.865	-35.84
235.083	95.23
235.3	103.42
235.518	17.41
235.735	60.42
235.953	29.7
236.17	17.41
236.388	-17.41
236.605	5.12
236.822	-3.07
237.04	78.85
237.257	64.51
237.475	-13.31
237.692	50.18
237.909	39.94
238.127	31.74
238.344	70.65
238.562	46.08
238.779	9.22
238.996	74.75
239.214	5.12
239.431	140.29
239.648	35.84
239.865	76.8
240.083	29.7
240.3	56.32
240.517	-70.65
240.735	-13.31
240.952	25.6
241.169	74.75
241.386	41.98
241.603	-15.36
241.821	27.65
242.038	74.75
242.255	80.89
242.472	5.12
242.689	66.56
242.907	48.13
243.124	-7.17
243.341	23.55
243.558	-52.22
243.775	-62.46
243.992	5.12
244.209	1.02
244.426	25.6
244.643	-13.31
244.86	31.74
245.078	31.74
245.295	37.89
245.512	7.17
245.729	33.79
245.946	35.84
246.163	46.08
246.38	50.18
246.597	-7.17
246.814	68.61
247.031	60.42
247.248	56.32
247.464	46.08
247.681	21.5
247.898	25.6
248.115	41.98
248.332	52.22
248.549	60.42
248.766	19.46
248.983	64.51
249.2	78.85
249.417	113.66
249.633	21.5
249.85	29.7
250.067	27.65
250.284	62.46
250.501	72.7
250.717	37.89
250.934	-39.94
251.151	3.07
251.368	37.89
251.585	-11.26
251.801	82.94
252.018	9.22
252.235	48.13
252.451	50.18
252.668	-35.84
252.885	41.98
253.102	21.5
253.318	68.61
253.535	-7.17
253.752	58.37
253.968	-11.26
254.185	-17.41
254.401	-27.65
254.618	33.79
254.835	19.46
255.051	-37.89
255.268	58.37
255.484	25.6
255.701	-35.84
255.917	62.46
256.134	-7.17
256.351	-1.02
256.567	-64.51
256.784	-27.65
257	35.84
257.217	46.08
257.433	15.36
257.65	-9.22
257.866	62.46
258.082	52.22
258.299	29.7
258.515	39.94
258.732	74.75
258.948	7.17
259.165	41.98
259.381	5.12
259.597	44.03
259.814	-23.55
260.03	84.99
260.246	31.74
260.463	35.84
260.679	9.22
260.895	46.08
261.112	46.08
261.328	11.26
261.544	21.5
261.761	46.08
261.977	91.13
262.193	46.08
262.409	1.02
262.626	29.7
262.842	50.18
263.058	-39.94
263.274	21.5
263.49	72.7
263.707	72.7
263.923	9.22
264.139	3.07
264.355	27.65
264.571	58.37
264.787	19.46
265.004	33.79
265.22	60.42
265.436	60.42
265.652	-3.07
265.868	74.75
266.084	-7.17
266.3	41.98
266.516	54.27
266.732	41.98
266.948	121.85
267.164	-7.17
267.38	-9.22
267.596	-19.46
267.812	50.18
268.028	56.32
268.244	3.07
268.46	107.52
268.676	27.65
268.892	21.5
269.108	15.36
269.324	-3.07
269.54	72.7
269.756	50.18
269.972	-44.03
270.188	44.03
270.403	-9.22
270.619	-27.65
270.835	109.57
271.051	66.56
271.267	7.17
271.483	74.75
271.698	70.65
271.914	84.99
272.13	-19.46
272.346	15.36
272.562	-27.65
272.777	152.57
272.993	-25.6
273.209	44.03
273.425	15.36
273.64	5.12
273.856	-31.74
274.072	15.36
274.287	23.55
274.503	107.52
274.719	35.84
274.934	76.8
275.15	11.26
275.366	17.41
275.581	1.02
275.797	82.94
276.012	-1.02
276.228	-15.36
276.444	64.51
276.659	68.61
276.875	-29.7
277.09	29.7
277.306	-44.03
277.521	66.56
277.737	-29.7
277.952	87.04
278.168	-7.17
278.383	48.13
278.599	84.99
278.814	3.07
279.03	31.74
279.245	21.5
279.461	-31.74
279.676	52.22
279.892	-13.31
280.107	-11.26
280.322	31.74
280.538	82.94
280.753	39.94
280.969	48.13
281.184	19.46
281.399	-39.94
281.615	-68.61
281.83	-41.98
282.045	9.22
282.26	48.13
282.476	37.89
282.691	39.94
282.906	48.13
283.122	52.22
283.337	25.6
283.552	21.5
283.767	50.18
283.983	70.65
284.198	39.94
284.413	66.56
284.628	-3.07
284.843	27.65
285.058	58.37
285.274	-11.26
285.489	-23.55
285.704	9.22
285.919	-11.26
286.134	50.18
286.349	-29.7
286.564	27.65
286.779	11.26
286.995	-33.79
287.21	17.41
287.425	19.46
287.64	52.22
287.855	44.03
288.07	1.02
288.285	68.61
288.5	41.98
288.715	101.37
288.93	17.41
289.145	27.65
289.36	78.85
289.575	39.94
289.79	64.51
290.004	3.07
290.219	31.74
290.434	60.42
290.649	21.5
290.864	50.18
291.079	37.89
291.294	29.7
291.509	9.22
291.724	89.09
291.938	23.55
292.153	48.13
292.368	19.46
292.583	31.74
292.798	66.56
293.012	-11.26
293.227	1.02
293.442	-3.07
293.657	25.6
293.871	41.98
294.086	35.84
294.301	101.37
294.516	60.42
294.73	15.36
294.945	-17.41
295.16	15.36
295.374	-78.85
295.589	41.98
295.804	54.27
296.018	64.51
296.233	68.61
296.447	-35.84
296.662	-17.41
296.877	7.17
297.091	35.84
297.306	19.46
297.52	29.7
297.735	27.65
297.949	41.98
298.164	-23.55
298.378	74.75
298.593	80.89
298.807	56.32
299.022	97.28
299.236	29.7
299.451	21.5
299.665	74.75
299.88	56.32
300.094	29.7
300.309	58.37
300.523	62.46
300.737	74.75
300.952	-27.65
301.166	9.22
301.381	25.6
301.595	46.08
301.809	21.5
302.024	27.65
302.238	17.41
302.452	107.52
302.667	62.46
302.881	66.56
303.095	99.33
303.309	25.6
303.524	9.22
303.738	70.65
303.952	44.03
304.166	68.61
304.381	13.31
304.595	72.7
304.809	66.56
305.023	19.46
305.237	11.26
305.452	9.22
305.666	25.6
305.88	68.61
306.094	144.38
306.308	29.7
306.522	19.46
306.736	39.94
306.95	29.7
307.164	91.13
307.379	-64.51
307.593	23.55
307.807	27.65
308.021	23.55
308.235	33.79
308.449	13.31
308.663	74.75
308.877	123.9
309.091	41.98
309.305	39.94
309.519	33.79
309.733	84.99
309.947	31.74
310.161	66.56
310.374	3.07
310.588	62.46
310.802	-11.26
311.016	15.36
311.23	52.22
311.444	27.65
311.658	60.42
311.872	-5.12
312.085	70.65
312.299	37.89
312.513	-1.02
312.727	39.94
312.941	-21.5
313.154	84.99
313.368	58.37
313.582	78.85
313.796	-1.02
314.009	7.17
314.223	54.27
314.437	-11.26
314.651	62.46
314.864	29.7
315.078	11.26
315.292	-15.36
315.505	27.65
315.719	33.79
315.933	68.61
316.146	37.89
316.36	-60.42
316.573	107.52
316.787	-44.03
317.001	9.22
317.214	5.12
317.428	-23.55
317.641	-50.18
317.855	31.74
318.068	48.13
318.282	46.08
318.495	136.19
318.709	52.22
318.922	-7.17
319.136	64.51
319.349	64.51
319.563	39.94
319.776	-35.84
319.99	33.79
320.203	82.94
320.417	-80.89
320.63	54.27
320.843	101.37
321.057	-37.89
321.27	11.26
321.483	21.5
321.697	46.08
321.91	56.32
322.124	70.65
322.337	48.13
322.55	78.85
322.763	89.09
322.977	52.22
323.19	19.46
323.403	33.79
323.617	7.17
323.83	52.22
324.043	46.08
324.256	35.84
324.469	3.07
324.683	70.65
324.896	25.6
325.109	-39.94
325.322	5.12
325.535	-5.12
325.748	5.12
325.962	25.6
326.175	62.46
326.388	31.74
326.601	11.26
326.814	41.98
327.027	-33.79
327.24	84.99
327.453	29.7
327.666	44.03
327.879	-23.55
328.092	37.89
328.305	103.42
328.518	11.26
328.731	-39.94
328.944	-9.22
329.157	31.74
329.37	13.31
329.583	70.65
329.796	91.13
330.009	62.46
330.222	-23.55
330.435	9.22
330.648	80.89
330.861	56.32
331.073	78.85
331.286	68.61
331.499	44.03
331.712	5.12
331.925	21.5
332.138	7.17
332.35	52.22
332.563	27.65
332.776	60.42
332.989	48.13
333.202	41.98
333.414	-17.41
333.627	103.42
333.84	-58.37
334.053	54.27
334.265	25.6
334.478	21.5
334.691	31.74
334.903	-37.89
335.116	31.74
335.329	105.47
335.541	62.46
335.754	128
335.966	-52.22
336.179	41.98
336.392	-29.7
336.604	-1.02
336.817	56.32
337.029	97.28
337.242	82.94
337.454	-9.22
337.667	-7.17
337.88	56.32
338.092	17.41
338.305	60.42
338.517	7.17
338.729	35.84
338.942	50.18
339.154	25.6
339.367	50.18
339.579	35.84
339.792	54.27
340.004	33.79
340.217	29.7
340.429	13.31
340.641	25.6
340.854	9.22
341.066	37.89
341.278	3.07
341.491	11.26
341.703	54.27
341.915	-23.55
342.128	117.76
342.34	37.89
342.552	66.56
342.764	99.33
342.977	66.56
343.189	37.89
343.401	80.89
343.613	-39.94
343.826	54.27
344.038	27.65
344.25	37.89
344.462	29.7
344.674	35.84
344.886	46.08
345.099	68.61
345.311	62.46
345.523	50.18
345.735	82.94
345.947	58.37
346.159	27.65
346.371	-19.46
346.583	-9.22
346.795	48.13
347.007	25.6
347.219	37.89
347.431	-11.26
347.643	48.13
347.855	50.18
348.067	44.03
348.279	15.36
348.491	64.51
348.703	54.27
348.915	80.89
349.127	-7.17
349.339	17.41
349.551	29.7
349.763	58.37
349.975	29.7
350.187	17.41
350.399	82.94
350.61	21.5
350.822	9.22
351.034	58.37
351.246	-11.26
351.458	-5.12
351.669	37.89
351.881	93.18
352.093	23.55
352.305	41.98
352.517	-11.26
352.728	17.41
352.94	21.5
353.152	78.85
353.363	-60.42
353.575	52.22
353.787	41.98
353.999	29.7
354.21	35.84
354.422	17.41
354.633	44.03
354.845	41.98
355.057	-17.41
355.268	56.32
355.48	9.22
355.692	-5.12
355.903	21.5
356.115	1.02
356.326	11.26
356.538	27.65
356.749	25.6
356.961	52.22
357.172	44.03
357.384	1.02
357.595	78.85
357.807	87.04
358.018	-23.55
358.23	50.18
358.441	44.03
358.653	82.94
358.864	7.17
359.075	27.65
359.287	54.27
359.498	58.37
359.709	89.09
359.921	97.28
360.132	35.84
360.344	-35.84
360.555	48.13
360.766	48.13
360.977	44.03
361.189	107.52
361.4	121.85
361.611	91.13
361.823	15.36
362.034	50.18
362.245	7.17
362.456	109.57
362.667	70.65
362.879	82.94
363.09	80.89
363.301	58.37
363.512	60.42
363.723	50.18
363.935	80.89
364.146	35.84
364.357	56.32
364.568	39.94
364.779	25.6
364.99	62.46
365.201	60.42
365.412	72.7
365.623	-44.03
365.834	33.79
366.045	33.79
366.256	44.03
366.467	84.99
366.678	-23.55
366.889	-31.74
367.1	62.46
367.311	19.46
367.522	11.26
367.733	-3.07
367.944	66.56
368.155	-35.84
368.366	54.27
368.577	19.46
368.788	11.26
368.999	64.51
369.209	78.85
369.42	17.41
369.631	50.18
369.842	-3.07
370.053	-7.17
370.264	56.32
370.474	44.03
370.685	80.89
370.896	33.79
371.107	58.37
371.317	80.89
371.528	62.46
371.739	33.79
371.95	68.61
372.16	97.28
372.371	41.98
372.582	44.03
372.792	21.5
373.003	25.6
373.214	-19.46
373.424	41.98
373.635	-31.74
373.846	103.42
374.056	44.03
374.267	-48.13
374.477	109.57
374.688	37.89
374.898	21.5
375.109	29.7
375.319	93.18
375.53	128
375.74	11.26
375.951	68.61
376.161	41.98
376.372	39.94
376.582	23.55
376.793	37.89
377.003	80.89
377.214	15.36
377.424	62.46
377.635	-33.79
377.845	-15.36
378.055	37.89
378.266	-19.46
378.476	111.61
378.686	15.36
378.897	-52.22
379.107	-5.12
379.317	21.5
379.528	29.7
379.738	60.42
379.948	1.02
380.158	128
380.369	78.85
380.579	56.32
380.789	39.94
380.999	25.6
381.21	11.26
381.42	60.42
381.63	76.8
381.84	48.13
382.05	-3.07
382.261	99.33
382.471	64.51
382.681	54.27
382.891	64.51
383.101	35.84
383.311	17.41
383.521	-66.56
383.731	138.24
383.941	74.75
384.151	56.32
384.361	37.89
384.571	62.46
384.781	11.26
384.991	21.5
385.201	117.76
385.411	13.31
385.621	37.89
385.831	89.09
386.041	48.13
386.251	35.84
386.461	132.09
386.671	44.03
386.881	58.37
387.091	109.57
387.301	72.7
387.511	62.46
387.72	62.46
387.93	19.46
388.14	7.17
388.35	78.85
388.56	87.04
388.769	89.09
388.979	70.65
389.189	107.52
389.399	19.46
389.609	5.12
389.818	93.18
390.028	-44.03
390.238	56.32
390.447	60.42
390.657	41.98
390.867	56.32
391.076	27.65
391.286	-23.55
391.496	27.65
391.705	-7.17
391.915	113.66
392.125	5.12
392.334	93.18
392.544	41.98
392.753	99.33
392.963	-41.98
393.172	11.26
393.382	56.32
393.591	74.75
393.801	66.56
394.01	27.65
394.22	19.46
394.429	9.22
394.639	-7.17
394.848	27.65
395.058	68.61
395.267	121.85
395.477	72.7
395.686	21.5
395.895	101.37
396.105	107.52
396.314	46.08
396.524	82.94
396.733	76.8
396.942	64.51
397.152	35.84
397.361	21.5
397.57	50.18
397.78	25.6
397.989	-44.03
398.198	144.38
398.407	117.76
398.617	117.76
398.826	140.29
399.035	74.75
399.244	93.18
399.453	84.99
399.663	25.6
399.872	29.7
400.081	117.76
400.29	125.95
400.499	-7.17
400.708	58.37
400.917	136.19
401.127	91.13
401.336	82.94
401.545	105.47
401.754	72.7
401.963	99.33
402.172	13.31
402.381	44.03
402.59	70.65
402.799	78.85
403.008	146.43
403.217	87.04
403.426	70.65
403.635	9.22
403.844	74.75
404.053	103.42
404.262	41.98
404.471	121.85
404.68	21.5
404.888	48.13
405.097	123.9
405.306	89.09
405.515	74.75
405.724	29.7
405.933	48.13
406.142	64.51
406.35	168.96
406.559	82.94
406.768	9.22
406.977	140.29
407.185	70.65
407.394	99.33
407.603	13.31
407.812	179.2
408.02	119.81
408.229	113.66
408.438	109.57
408.646	103.42
408.855	78.85
409.064	152.57
409.272	107.52
409.481	201.72
409.69	119.81
409.898	72.7
410.107	140.29
410.315	119.81
410.524	117.76
410.733	142.33
410.941	168.96
411.15	185.34
411.358	199.68
411.567	148.48
411.775	242.68
411.984	119.81
412.192	218.11
412.401	209.92
412.609	285.69
412.818	193.53
413.026	185.34
413.234	181.25
413.443	226.3
413.651	185.34
413.86	273.4
414.068	248.83
414.276	300.03
414.485	300.03
414.693	254.97
414.901	265.21
415.11	269.31
415.318	293.88
415.526	314.36
415.734	435.19
415.943	316.41
416.151	392.19
416.359	340.99
416.567	347.13
416.776	392.19
416.984	433.15
417.192	445.43
417.4	381.95
417.608	396.28
417.817	353.27
418.025	361.47
418.233	439.29
418.441	412.67
418.649	402.43
418.857	377.85
419.065	457.72
419.273	402.43
419.481	502.78
419.689	572.41
419.897	556.02
420.105	521.21
420.313	562.17
420.521	629.75
420.729	658.42
420.937	539.64
421.145	564.22
421.353	588.79
421.561	705.53
421.769	660.47
421.977	664.57
422.185	738.29
422.393	703.48
422.601	721.91
422.809	715.77
423.017	781.3
423.224	789.49
423.432	857.07
423.64	859.12
423.848	953.33
424.056	844.79
424.263	945.14
424.471	887.79
424.679	955.38
424.887	1039.34
425.094	1090.54
425.302	1068.02
425.51	1033.2
425.718	1100.78
425.925	1190.89
426.133	1154.03
426.341	1307.63
426.548	1289.2
426.756	1289.2
426.964	1299.44
427.171	1334.25
427.379	1389.55
427.586	1420.27
427.794	1412.07
428.001	1567.72
428.209	1639.4
428.417	1565.67
428.624	1651.69
428.832	1768.42
429.039	1631.21
429.247	1704.93
429.454	1919.97
429.662	2053.09
429.869	1833.96
430.076	1913.83
430.284	1838.05
430.491	1895.4
430.699	2122.72
430.906	2030.56
431.114	2182.11
431.321	2075.62
431.528	2165.73
431.736	2325.47
431.943	2358.24
432.15	2317.28
432.358	2474.97
432.565	2536.41
432.772	2511.83
432.979	2628.57
433.187	2782.17
433.394	2720.73
433.601	2890.71
433.808	2960.34
434.016	2921.43
434.223	2997.2
434.43	3105.74
434.637	3132.37
434.844	3365.84
435.052	3251.15
435.259	3380.17
435.466	3529.67
435.673	3337.17
435.88	3521.48
436.087	3746.76
436.294	3881.92
436.501	3675.08
436.708	3744.71
436.915	3853.25
437.122	4078.53
437.329	3941.32
437.537	4082.63
437.743	4225.98
437.95	4178.88
438.157	4488.12
438.364	4662.2
438.571	4633.53
438.778	4582.33
438.985	4858.81
439.192	4643.77
439.399	5026.74
439.606	4801.46
439.813	5211.06
440.02	5442.48
440.227	5288.88
440.433	5301.17
440.64	5448.62
440.847	5487.53
441.054	5432.24
441.261	6028.2
441.467	5845.93
441.674	5837.73
441.881	6134.69
442.088	6013.86
442.294	5970.85
442.501	6120.35
442.708	6407.07
442.914	6572.96
443.121	6904.73
443.328	6550.43
443.534	7084.95
443.741	7000.98
443.948	6884.25
444.154	7291.79
444.361	7375.76
444.568	7361.42
444.774	7404.43
444.981	7539.6
445.187	7639.95
445.394	8080.26
445.6	7951.24
445.807	8631.16
446.013	8235.91
446.22	8346.5
446.426	8711.04
446.633	8803.19
446.839	9147.25
447.046	8790.91
447.252	9165.68
447.459	9018.23
447.665	9286.51
447.871	9636.72
448.078	9939.82
448.284	9476.98
448.491	9724.78
448.697	10236.77
448.903	10445.66
449.11	10154.85
449.316	10072.93
449.522	10337.12
449.728	10492.77
449.935	10722.14
450.141	10857.31
450.347	10916.7
450.553	10517.34
450.76	10732.38
450.966	10935.13
451.172	10910.55
451.378	11320.15
451.584	10920.79
451.791	11139.93
451.997	11033.43
452.203	11498.32
452.409	11281.24
452.615	11440.98
452.821	10957.66
453.027	10900.31
453.233	11293.52
453.44	10726.24
453.646	10998.62
453.852	11047.77
454.058	11254.61
454.264	10869.59
454.47	10892.12
454.676	10914.65
454.882	11137.88
455.088	10138.47
455.294	10259.3
455.5	10439.52
455.705	10804.06
455.911	10220.39
456.117	10111.85
456.323	9859.95
456.529	9415.54
456.735	9892.71
456.941	9657.2
457.147	9417.58
457.352	9137.01
457.558	8891.26
457.764	8964.98
457.97	8582.01
458.176	8526.72
458.381	8786.81
458.587	8389.5
458.793	8434.56
458.999	7994.25
459.204	8299.39
459.41	8047.49
459.616	7607.18
459.821	7396.24
460.027	7555.98
460.233	7465.87
460.438	7218.07
460.644	7101.33
460.85	6656.92
461.055	6855.58
461.261	6718.36
461.466	6171.55
461.672	5985.19
461.878	6556.57
462.083	6044.58
462.289	5862.31
462.494	5827.5
462.7	5526.44
462.905	5327.79
463.111	5766.06
463.316	5706.66
463.522	5434.29
463.727	5407.66
463.932	5493.68
464.138	5456.81
464.343	5448.62
464.549	5393.33
464.754	5493.68
464.959	5540.78
465.165	5245.87
465.37	5067.7
465.575	4867
465.781	5131.19
465.986	5272.5
466.191	5088.18
466.397	5073.84
466.602	4879.29
466.807	5057.46
467.012	4844.47
467.218	4875.19
467.423	4789.17
467.628	4871.09
467.833	5079.99
468.038	4957.11
468.244	4723.64
468.449	4924.34
468.654	4701.11
468.859	4649.91
469.064	4727.74
469.269	4578.23
469.474	4465.6
469.679	4590.52
469.885	4465.6
470.09	4518.84
470.295	4574.14
470.5	4357.05
470.705	4527.03
470.91	4432.83
471.115	4340.67
471.32	4506.56
471.525	4355.01
471.73	4264.89
471.935	4158.4
472.139	4203.46
472.344	4092.87
472.549	4176.83
472.754	3969.99
472.959	4062.15
473.164	4021.19
473.369	3916.74
473.574	3941.32
473.778	3853.25
473.983	3988.42
474.188	3890.12
474.393	3713.99
474.598	3795.91
474.802	3806.15
475.007	3691.46
475.212	3759.05
475.417	3496.91
475.621	3613.64
475.826	3642.31
476.031	3627.98
476.235	3605.45
476.44	3458
476.645	3453.9
476.849	3476.43
477.054	3378.12
477.259	3316.69
477.463	3339.21
477.668	3462.09
477.872	3290.06
478.077	3410.89
478.282	3085.26
478.486	3214.29
478.691	3093.46
478.895	3146.7
479.1	3161.04
479.304	3146.7
479.509	3029.97
479.713	3128.27
479.918	3023.83
480.122	2966.48
480.326	3005.39
480.531	3105.74
480.735	2966.48
480.94	2876.37
481.144	3099.6
481.348	2886.61
481.553	2903
481.757	2773.97
481.961	2900.95
482.166	3120.08
482.37	2909.14
482.574	2788.31
482.778	2790.36
482.983	2917.33
483.187	2972.63
483.391	2890.71
483.595	2878.42
483.8	2876.37
484.004	2950.1
484.208	2755.54
484.412	2905.04
484.616	2837.46
484.821	3019.73
485.025	2882.52
485.229	2905.04
485.433	2872.28
485.637	2943.96
485.841	2880.47
486.045	2794.45
486.249	2886.61
486.453	2794.45
486.657	2878.42
486.861	2835.41
487.065	2857.94
487.269	2888.66
487.473	2812.89
487.677	2841.56
487.881	2931.67
488.085	2843.6
488.289	2808.79
488.493	2819.03
488.697	2872.28
488.901	2929.62
489.105	2909.14
489.309	2952.15
489.512	2915.28
489.716	2917.33
489.92	2849.75
490.124	2794.45
490.328	2894.8
490.531	2974.67
490.735	2937.81
490.939	2886.61
491.143	2870.23
491.346	2939.86
491.55	3038.16
491.754	2909.14
491.958	3019.73
492.161	2939.86
492.365	2962.39
492.569	2962.39
492.772	3122.13
492.976	3099.6
493.18	2991.06
493.383	3111.89
493.587	3230.67
493.79	3056.59
493.994	3154.9
494.197	3060.69
494.401	3130.32
494.605	3220.43
494.808	3302.35
495.012	3228.62
495.215	3271.63
495.419	3232.72
495.622	3216.33
495.825	3363.79
496.029	3394.51
496.232	3410.89
496.436	3337.17
496.639	3572.68
496.843	3644.36
497.046	3419.08
497.249	3531.72
497.453	3455.95
497.656	3607.5
497.859	3572.68
498.063	3578.83
498.266	3775.43
498.469	3662.79
498.673	3918.79
498.876	3685.32
499.079	3795.91
499.282	3711.94
499.485	4060.1
499.689	3914.69
499.892	3959.75
500.095	3980.23
500.298	4215.74
500.501	4076.48
500.705	4207.55
500.908	4262.85
501.111	4135.87
501.314	4348.86
501.517	4352.96
501.72	4445.12
501.923	4410.3
502.126	4588.47
502.329	4674.49
502.532	4539.32
502.735	4647.87
502.938	4629.43
503.141	4516.8
503.344	4742.07
503.547	4817.85
503.75	4840.37
503.953	4903.86
504.156	5061.55
504.359	4918.2
504.562	4944.82
504.765	5082.03
504.968	5258.16
505.17	5190.58
505.373	5348.27
505.576	5274.54
505.779	5465
505.982	5465
506.185	5661.61
506.387	5575.59
506.59	5663.66
506.793	5829.54
506.996	5843.88
507.198	5876.65
507.401	5847.97
507.604	5809.06
507.807	6163.36
508.009	6028.2
508.212	6198.18
508.415	6024.1
508.617	6224.8
508.82	6290.34
509.022	6276
509.225	6411.17
509.428	6499.23
509.63	6767.51
509.833	6613.92
510.035	6736.79
510.238	6769.56
510.44	6716.31
510.643	6943.64
510.845	6988.69
511.048	7025.56
511.25	7160.72
511.453	7299.98
511.655	7396.24
511.858	7226.26
512.06	7480.21
512.262	7527.31
512.465	7334.8
512.667	7512.97
512.87	7795.59
513.072	7957.38
513.274	7922.57
513.477	8147.84
513.679	8039.3
513.881	8178.56
514.084	8280.96
514.286	8215.43
514.488	8131.46
514.69	8682.36
514.893	8551.29
515.095	8641.4
515.297	8598.4
515.499	8756.09
515.701	8649.6
515.904	8917.88
516.106	8848.25
516.308	9051
516.51	9288.56
516.712	9184.12
516.914	9286.51
517.116	9577.33
517.318	9669.48
517.52	9622.38
517.722	9630.57
517.925	9841.51
518.127	9993.06
518.329	10077.03
518.531	9882.47
518.733	10279.78
518.935	10265.44
519.136	10392.42
519.338	10505.06
519.54	10607.45
519.742	10679.13
519.944	10648.41
520.146	10849.11
520.348	11158.36
520.55	11000.66
520.752	11021.14
520.954	11158.36
521.155	11357.01
521.357	11311.96
521.559	11479.89
521.761	11537.23
521.963	11561.81
522.164	11813.71
522.366	11758.41
522.568	11832.14
522.77	12174.15
522.971	12184.39
523.173	12012.36
523.375	12391.23
523.576	12233.54
523.778	12424
523.98	12612.42
524.181	12573.5
524.383	12616.51
524.584	12835.64
524.786	13013.82
524.988	12919.61
525.189	12925.75
525.391	13081.4
525.592	13134.65
525.794	13245.24
525.995	13245.24
526.197	13284.15
526.398	13187.89
526.6	13636.4
526.801	13726.51
527.003	13757.23
527.204	13667.12
527.406	13728.56
527.607	14019.37
527.808	14005.03
528.01	13779.76
528.211	13867.82
528.412	14304.04
528.614	14177.06
528.815	14105.38
529.016	14594.85
529.218	14334.76
529.419	14385.96
529.62	14334.76
529.822	14265.13
530.023	14232.36
530.224	14451.49
530.425	14553.89
530.626	14271.27
530.828	14412.58
531.029	14682.91
531.23	14697.25
531.431	14740.26
531.632	14863.13
531.833	14891.8
532.035	14938.91
532.236	14764.83
532.437	14895.9
532.638	15004.44
532.839	15069.98
533.04	15125.27
533.241	14828.32
533.442	15342.36
533.643	15080.22
533.844	15045.4
534.045	15153.94
534.246	14832.41
534.447	15084.31
534.648	14883.61
534.849	15289.11
535.05	14992.16
535.251	15309.59
535.451	14963.48
535.652	15063.83
535.853	15086.36
536.054	15311.64
536.255	15278.87
536.456	15280.92
536.657	15459.09
536.857	15176.47
537.058	15266.58
537.259	15309.59
537.46	15213.34
537.66	15489.81
537.861	15446.8
538.062	15291.16
538.263	15340.31
538.463	15178.52
538.664	15266.58
538.865	15416.08
539.065	15520.53
539.266	15110.94
539.466	15362.84
539.667	15256.34
539.868	15381.27
540.068	15231.77
540.269	15405.84
540.469	15338.26
540.67	15196.95
540.87	15266.58
541.071	15344.41
541.271	15366.93
541.472	15352.6
541.672	15256.34
541.873	15061.79
542.073	15311.64
542.274	15350.55
542.474	15420.18
542.675	15375.13
542.875	15262.49
543.075	15516.44
543.276	15409.94
543.476	15332.12
543.676	15094.55
543.877	15383.32
544.077	15158.04
544.277	15325.97
544.478	15295.25
544.678	15282.97
544.878	15201.05
545.078	15534.87
545.279	15080.22
545.479	15444.76
545.679	15471.38
545.879	15225.62
546.079	15571.73
546.28	15323.93
546.48	15104.79
546.68	15299.35
546.88	15305.49
547.08	15254.3
547.28	15354.65
547.48	15135.51
547.68	15448.85
547.88	15377.17
548.081	15463.19
548.281	15289.11
548.481	15268.63
548.681	15332.12
548.881	15063.83
549.081	15223.58
549.28	15313.69
549.48	15215.38
549.68	15311.64
549.88	15350.55
550.08	15141.66
550.28	15375.13
550.48	15256.34
550.68	15438.61
550.88	15160.09
551.08	15287.06
551.279	15239.96
551.479	15067.93
551.679	15385.37
551.879	15176.47
552.079	15084.31
552.278	15074.07
552.478	15160.09
552.678	15227.67
552.878	15188.76
553.077	14934.81
553.277	14940.96
553.477	15112.99
553.676	15051.55
553.876	15151.9
554.076	15155.99
554.275	14910.24
554.475	14951.2
554.674	15141.66
554.874	15190.81
555.074	14893.85
555.273	14975.77
555.473	15092.51
555.672	14826.27
555.872	14904.09
556.071	14850.85
556.271	15029.02
556.47	14852.89
556.67	14871.33
556.869	14664.48
557.068	14885.66
557.268	15035.16
557.467	14940.96
557.667	14801.69
557.866	14611.23
558.065	14609.19
558.265	14570.27
558.464	14463.78
558.663	14586.66
558.863	14439.2
559.062	14795.55
559.261	14502.69
559.461	14650.14
559.66	14633.76
559.859	14519.07
560.058	14422.82
560.258	14330.66
560.457	14289.7
560.656	14420.77
560.855	14377.76
561.054	14447.4
561.253	14213.93
561.453	14332.71
561.652	14263.08
561.851	14357.28
562.05	14129.96
562.249	13884.2
562.448	14322.47
562.647	13968.17
562.846	14037.8
563.045	14041.9
563.244	13984.55
563.443	14181.16
563.642	13759.28
563.841	13941.55
564.04	13949.74
564.239	13925.16
564.438	13667.12
564.637	13671.22
564.836	13685.55
565.035	13607.73
565.234	13636.4
565.432	13540.15
565.631	13265.72
565.83	13683.5
566.029	13703.98
566.228	13364.02
566.427	13611.82
566.625	13472.56
566.824	13239.09
567.023	13388.6
567.222	13146.94
567.42	13253.43
567.619	13136.7
567.818	13048.63
568.016	12983.1
568.215	13378.36
568.414	13026.11
568.612	13278.01
568.811	12915.51
569.01	12833.6
569.208	12501.83
569.407	12673.85
569.605	12686.14
569.804	12825.4
570.002	12579.65
570.201	12616.51
570.4	12485.44
570.598	12192.58
570.797	12419.91
570.995	12385.09
571.193	12180.29
571.392	12540.74
571.59	12163.91
571.789	12284.74
571.987	12270.4
572.186	12301.12
572.384	12194.63
572.582	12147.53
572.781	12106.57
572.979	11877.19
573.177	11987.79
573.376	12065.61
573.574	11856.72
573.772	11793.23
573.971	12051.27
574.169	11653.97
574.367	11719.5
574.565	11762.51
574.763	11699.02
574.962	11709.26
575.16	11488.08
575.358	11762.51
575.556	11416.4
575.754	11490.13
575.952	11385.68
576.151	11543.38
576.349	11379.54
576.547	11299.67
576.745	11373.39
576.943	11422.55
577.141	11191.13
577.339	11285.33
577.537	11475.79
577.735	11385.68
577.933	10996.57
578.131	11209.56
578.329	11154.26
578.527	11064.15
578.725	11002.71
578.923	10875.74
579.121	11012.95
579.319	10826.59
579.516	11121.49
579.714	10920.79
579.912	10785.63
580.11	10621.79
580.308	10793.82
580.506	10699.61
580.704	10503.01
580.901	10646.37
581.099	10804.06
581.297	10490.72
581.495	10584.93
581.692	10621.79
581.89	10433.38
582.088	10656.61
582.285	10351.46
582.483	10320.74
582.681	10226.53
582.878	10357.6
583.076	10210.15
583.274	10480.48
583.471	10179.43
583.669	10105.7
583.866	9962.34
584.064	10187.62
584.262	9956.2
584.459	10142.57
584.657	10152.81
584.854	10046.31
585.052	9780.07
585.249	10036.07
585.447	9945.96
585.644	9722.73
585.841	9876.33
586.039	9874.28
586.236	9812.84
586.434	9692.01
586.631	9755.5
586.828	9769.83
587.026	9739.12
587.223	9737.07
587.42	9448.3
587.618	9673.58
587.815	9694.06
588.012	9741.16
588.21	9562.99
588.407	9773.93
588.604	9393.01
588.801	9333.62
588.999	9350
589.196	9366.39
589.393	9173.88
589.59	9366.39
589.787	9274.23
589.984	9102.2
590.182	9241.46
590.379	9253.75
590.576	9143.16
590.773	9182.07
590.97	9081.72
591.167	9167.73
591.364	9075.57
591.561	8954.74
591.758	8907.64
591.955	8934.26
592.152	8913.78
592.349	8835.96
592.546	8866.68
592.743	8874.87
592.94	8541.05
593.137	8805.24
593.334	8758.14
593.531	8655.74
593.727	8686.46
593.924	8729.47
594.121	8680.32
594.318	8692.6
594.515	8682.36
594.712	8891.26
594.908	8612.73
595.105	8485.76
595.302	8719.23
595.499	8541.05
595.696	8536.96
595.892	8465.28
596.089	8496
596.286	8448.9
596.482	8192.9
596.679	8366.98
596.876	8303.49
597.072	8317.83
597.269	8434.56
597.466	8326.02
597.662	8102.79
597.859	8213.38
598.055	8240
598.252	8043.4
598.448	8004.49
598.645	8332.16
598.841	8039.3
599.038	7938.95
599.234	8049.54
599.431	7957.38
599.627	7998.34
599.824	8043.4
600.02	7748.49
600.217	7885.7
600.413	7793.55
600.609	7885.7
600.806	7881.61
601.002	7867.27
601.198	7695.24
601.395	7691.15
601.591	7547.79
601.787	7766.92
601.984	7678.86
602.18	7605.13
602.376	7707.53
602.572	7705.48
602.769	7541.64
602.965	7558.03
603.161	7783.31
603.357	7398.29
603.553	7353.23
603.75	7529.36
603.946	7623.56
604.142	7463.82
604.338	7316.37
604.534	7363.47
604.73	7386
604.926	7318.42
605.122	7414.67
605.318	7424.91
605.514	7277.46
605.71	7021.46
605.906	7123.86
606.102	7146.39
606.298	7396.24
606.494	7037.84
606.69	7099.28
606.886	7211.92
607.082	7062.42
607.278	7236.5
607.474	6917.01
607.67	7125.91
607.866	7035.8
608.062	6964.12
608.257	6900.63
608.453	6968.21
608.649	6964.12
608.845	6824.86
609.041	6882.2
609.236	6945.69
609.432	6855.58
609.628	6890.39
609.824	6914.97
610.019	6845.34
610.215	6638.49
610.411	6888.34
610.606	6894.49
610.802	6812.57
610.998	6853.53
611.193	6800.28
611.389	6550.43
611.584	6769.56
611.78	6513.56
611.976	6517.66
612.171	6738.84
612.367	6656.92
612.562	6661.02
612.758	6505.37
612.953	6572.96
613.149	6575
613.344	6683.55
613.539	6310.82
613.735	6544.28
613.93	6507.42
614.126	6521.76
614.321	6661.02
614.517	6437.79
614.712	6538.14
614.907	6255.52
615.103	6458.27
615.298	6503.32
615.493	6413.21
615.688	6288.29
615.884	6409.12
616.079	6316.96
616.274	6245.28
616.47	6263.71
616.665	6239.14
616.86	6335.39
617.055	6370.21
617.25	6247.33
617.445	6386.59
617.641	6308.77
617.836	6175.65
618.031	6103.97
618.226	6226.85
618.421	6200.23
618.616	6198.18
618.811	6005.67
619.006	6108.07
619.201	6038.44
619.396	6106.02
619.591	5929.89
619.786	6112.16
619.981	6017.96
620.176	5819.3
620.371	5827.5
620.566	6058.92
620.761	5847.97
620.956	5837.73
621.151	5786.54
621.346	5831.59
621.541	5651.37
621.735	5698.47
621.93	5766.06
622.125	5630.89
622.32	5700.52
622.515	5688.23
622.709	5581.74
622.904	5702.57
623.099	5528.49
623.294	5567.4
623.488	5553.07
623.683	5557.16
623.878	5434.29
624.072	5512.11
624.267	5399.47
624.462	5288.88
624.656	5338.03
624.851	5354.41
625.046	5182.38
625.24	5225.39
625.435	5290.93
625.629	5346.22
625.824	5168.05
626.018	5202.86
626.213	5077.94
626.407	5061.55
626.602	4973.49
626.796	4946.87
626.991	4907.96
627.185	4955.06
627.38	4815.8
627.574	4944.82
627.768	4903.86
627.963	4907.96
628.157	4912.05
628.352	4901.81
628.546	4858.81
628.74	4867
628.935	4692.92
629.129	4770.74
629.323	4621.24
629.517	4740.02
629.712	4584.38
629.906	4555.71
630.1	4467.64
630.294	4627.39
630.489	4467.64
630.683	4578.23
630.877	4504.51
631.071	4586.43
631.265	4430.78
631.459	4469.69
631.653	4424.64
631.848	4473.79
632.042	4320.19
632.236	4389.82
632.43	4355.01
632.624	4330.43
632.818	4301.76
633.012	4180.93
633.206	4131.78
633.4	4332.48
633.594	4160.45
633.788	4142.02
633.982	4213.7
634.176	4037.57
634.369	4086.72
634.563	4066.24
634.757	4010.95
634.951	4103.11
635.145	3965.89
635.339	3888.07
635.533	3990.47
635.726	3933.12
635.92	3986.37
636.114	3947.46
636.308	3900.36
636.501	3814.34
636.695	3808.2
636.889	3814.34
637.083	3904.45
637.276	3779.53
637.47	3775.43
637.664	3789.77
637.857	3787.72
638.051	3693.51
638.244	3722.18
638.438	3615.69
638.632	3705.8
638.825	3486.67
639.019	3582.92
639.212	3498.95
639.406	3675.08
639.599	3548.11
639.793	3531.72
639.986	3466.19
640.18	3527.63
640.373	3462.09
640.567	3494.86
640.76	3392.46
640.954	3455.95
641.147	3400.65
641.34	3322.83
641.534	3367.88
641.727	3302.35
641.92	3199.95
642.114	3288.01
642.307	3204.05
642.5	3261.39
642.694	3187.66
642.887	3306.45
643.08	3240.91
643.273	3247.05
643.467	3208.14
643.66	3189.71
643.853	3122.13
644.046	3111.89
644.239	3101.65
644.432	3091.41
644.626	2978.77
644.819	3060.69
645.012	3060.69
645.205	3034.07
645.398	2929.62
645.591	3029.97
645.784	2986.96
645.977	2970.58
646.17	2993.11
646.363	3054.55
646.556	2792.41
646.749	2921.43
646.942	2892.76
647.135	2941.91
647.328	2890.71
647.521	2880.47
647.714	2831.32
647.907	2814.93
648.099	2778.07
648.292	2771.93
648.485	2862.04
648.678	2737.11
648.871	2753.49
649.064	2714.58
649.256	2708.44
649.449	2718.68
649.642	2524.12
649.835	2606.04
650.027	2669.53
650.22	2616.28
650.413	2661.34
650.605	2479.07
650.798	2571.22
650.991	2585.56
651.183	2694.1
651.376	2538.46
651.568	2667.48
651.761	2542.55
651.954	2573.27
652.146	2542.55
652.339	2483.16
652.531	2417.63
652.724	2581.46
652.916	2524.12
653.109	2298.84
653.301	2427.87
653.494	2417.63
653.686	2378.72
653.879	2380.76
654.071	2323.42
654.263	2270.17
654.456	2434.01
654.648	2352.09
654.84	2380.76
655.033	2233.31
655.225	2386.91
655.417	2378.72
655.61	2411.48
655.802	2415.58
655.994	2302.94
656.186	2317.28
656.379	2257.89
656.571	2323.42
656.763	2214.88
656.955	2225.12
657.148	2190.3
657.34	2218.97
657.532	2143.2
657.724	2237.41
657.916	2132.96
658.108	2112.48
658.3	2069.47
658.492	2280.41
658.684	2104.29
658.876	2022.37
659.068	2075.62
659.26	2028.51
659.452	2048.99
659.644	2026.47
659.836	2046.94
660.028	2077.66
660.22	2085.86
660.412	1915.87
660.604	2048.99
660.796	2069.47
660.988	1960.93
661.18	1999.84
661.372	1811.43
661.563	1989.6
661.755	1969.12
661.947	2018.27
662.139	1889.25
662.331	1993.7
662.522	2010.08
662.714	1917.92
662.906	1901.54
663.097	1960.93
663.289	1774.56
663.481	1932.26
663.673	1831.91
663.864	1876.96
664.056	1891.3
664.247	1817.57
664.439	1725.41
664.631	1836
664.822	1827.81
665.014	1860.58
665.205	1858.53
665.397	1813.48
665.588	1819.62
665.78	1709.03
665.971	1790.95
666.163	1848.29
666.354	1797.09
666.546	1752.04
666.737	1696.74
666.929	1731.56
667.12	1758.18
667.311	1672.17
667.503	1606.63
667.694	1709.03
667.885	1651.69
668.077	1676.26
668.268	1555.43
668.459	1706.98
668.651	1696.74
668.842	1594.34
669.033	1672.17
669.224	1606.63
669.416	1680.36
669.607	1629.16
669.798	1633.26
669.989	1561.58
670.18	1596.39
670.371	1661.93
670.563	1582.06
670.754	1610.73
670.945	1520.62
671.136	1655.78
671.327	1610.73
671.518	1631.21
671.709	1543.14
671.9	1678.31
672.091	1565.67
672.282	1561.58
672.473	1608.68
672.664	1663.97
672.855	1694.69
673.046	1537
673.237	1647.59
673.428	1539.05
673.619	1592.3
673.809	1485.8
674	1610.73
674.191	1545.19
674.382	1487.85
674.573	1518.57
674.764	1489.9
674.954	1508.33
675.145	1475.56
675.336	1526.76
675.527	1463.27
675.717	1526.76
675.908	1508.33
676.099	1461.23
676.289	1455.08
676.48	1516.52
676.671	1524.71
676.861	1504.23
677.052	1430.51
677.243	1518.57
677.433	1453.03
677.624	1469.42
677.814	1510.38
678.005	1504.23
678.195	1448.94
678.386	1444.84
678.576	1424.36
678.767	1485.8
678.957	1514.47
679.148	1514.47
679.338	1457.13
679.529	1539.05
679.719	1450.99
679.909	1477.61
680.1	1510.38
680.29	1397.74
680.481	1422.31
680.671	1450.99
680.861	1532.9
681.052	1616.87
681.242	1371.12
681.432	1479.66
681.622	1430.51
681.813	1424.36
682.003	1473.51
682.193	1340.4
682.383	1455.08
682.573	1358.83
682.764	1504.23
682.954	1528.81
683.144	1539.05
683.334	1485.8
683.524	1403.88
683.714	1448.94
683.904	1442.79
684.094	1491.95
684.284	1453.03
684.474	1541.1
684.664	1424.36
684.854	1442.79
685.044	1461.23
685.234	1469.42
685.424	1434.6
685.614	1442.79
685.804	1493.99
685.994	1463.27
686.184	1403.88
686.374	1434.6
686.564	1498.09
686.753	1358.83
686.943	1336.3
687.133	1379.31
687.323	1381.35
687.513	1395.69
687.702	1407.98
687.892	1281
688.082	1324.01
688.272	1340.4
688.461	1373.16
688.651	1358.83
688.841	1371.12
689.03	1389.55
689.22	1369.07
689.41	1287.15
689.599	1252.33
689.789	1289.2
689.979	1303.53
690.168	1395.69
690.358	1362.92
690.547	1319.92
690.737	1295.34
690.926	1369.07
691.116	1358.83
691.305	1307.63
691.495	1270.76
691.684	1303.53
691.874	1311.72
692.063	1219.57
692.252	1303.53
692.442	1250.28
692.631	1272.81
692.82	1238
693.01	1213.42
693.199	1305.58
693.388	1203.18
693.578	1242.09
693.767	1262.57
693.956	1201.13
694.146	1264.62
694.335	1207.28
694.524	1217.52
694.713	1209.33
694.902	1207.28
695.092	1287.15
695.281	1174.51
695.47	1158.13
695.659	1246.19
695.848	1145.84
696.037	1262.57
696.226	1076.21
696.415	1176.56
696.604	1299.44
696.793	1223.66
696.982	1127.41
697.171	1270.76
697.36	1184.75
697.549	1121.26
697.738	1184.75
697.927	1285.1
698.116	1229.81
698.305	1246.19
698.494	1166.32
698.683	1149.93
698.872	1254.38
699.061	1285.1
699.25	1254.38
699.438	1231.85
699.627	1117.17
699.816	1248.24
700.005	1149.93
700.193	1256.43
700.382	1139.69
700.571	1219.57
700.76	1199.09
700.948	1184.75
701.137	1205.23
701.326	1227.76
701.514	1086.45
701.703	1283.05
701.892	1207.28
702.08	1244.14
702.269	1231.85
702.457	1250.28
702.646	1133.55
702.834	1229.81
703.023	1209.33
703.212	1229.81
703.4	1182.7
703.589	1184.75
703.777	1201.13
703.965	1207.28
704.154	1256.43
704.342	1252.33
704.531	1209.33
704.719	1266.67
704.907	1285.1
705.096	1305.58
705.284	1293.29
705.472	1285.1
705.661	1248.24
705.849	1315.82
706.037	1291.24
706.226	1319.92
706.414	1299.44
706.602	1231.85
706.79	1201.13
706.979	1147.89
707.167	1227.76
707.355	1276.91
707.543	1278.96
707.731	1340.4
707.919	1199.09
708.107	1199.09
708.296	1211.37
708.484	1256.43
708.672	1250.28
708.86	1297.39
709.048	1248.24
709.236	1143.79
709.424	1217.52
709.612	1328.11
709.8	1197.04
709.988	1289.2
710.176	1184.75
710.364	1324.01
710.551	1301.48
710.739	1295.34
710.927	1248.24
711.115	1350.64
711.303	1266.67
711.491	1362.92
711.679	1201.13
711.866	1301.48
712.054	1276.91
712.242	1348.59
712.43	1281
712.617	1295.34
712.805	1270.76
712.993	1246.19
713.181	1180.65
713.368	1332.2
713.556	1315.82
713.744	1401.83
713.931	1332.2
714.119	1326.06
714.306	1422.31
714.494	1297.39
714.682	1336.3
714.869	1215.47
715.057	1299.44
715.244	1248.24
715.432	1297.39
715.619	1319.92
715.807	1334.25
715.994	1358.83
716.182	1369.07
716.369	1360.88
716.556	1311.72
716.744	1295.34
716.931	1268.72
717.119	1332.2
717.306	1272.81
717.493	1340.4
717.681	1319.92
717.868	1317.87
718.055	1348.59
718.242	1373.16
718.43	1373.16
718.617	1412.07
718.804	1336.3
718.991	1340.4
719.179	1276.91
719.366	1344.49
719.553	1303.53
719.74	1321.96
719.927	1231.85
720.114	1240.05
720.301	1301.48
720.488	1342.44
720.676	1266.67
720.863	1389.55
721.05	1401.83
721.237	1381.35
721.424	1391.59
721.611	1426.41
721.798	1301.48
721.985	1344.49
722.172	1416.17
722.358	1383.4
722.545	1414.12
722.732	1297.39
722.919	1455.08
723.106	1278.96
723.293	1395.69
723.48	1430.51
723.667	1356.78
723.853	1319.92
724.04	1362.92
724.227	1354.73
724.414	1420.27
724.6	1385.45
724.787	1430.51
724.974	1467.37
725.161	1354.73
725.347	1391.59
725.534	1508.33
725.72	1457.13
725.907	1371.12
726.094	1385.45
726.28	1334.25
726.467	1407.98
726.653	1381.35
726.84	1440.75
727.027	1422.31
727.213	1442.79
727.4	1342.44
727.586	1410.03
727.773	1391.59
727.959	1299.44
728.145	1440.75
728.332	1397.74
728.518	1254.38
728.705	1500.14
728.891	1414.12
729.077	1340.4
729.264	1586.15
729.45	1407.98
729.636	1479.66
729.823	1442.79
730.009	1426.41
730.195	1393.64
730.382	1424.36
730.568	1412.07
730.754	1471.47
730.94	1416.17
731.126	1422.31
731.313	1356.78
731.499	1420.27
731.685	1434.6
731.871	1455.08
732.057	1430.51
732.243	1401.83
732.429	1498.09
732.615	1471.47
732.801	1381.35
732.987	1410.03
733.173	1434.6
733.359	1405.93
733.545	1463.27
733.731	1348.59
733.917	1410.03
734.103	1401.83
734.289	1446.89
734.475	1401.83
734.661	1479.66
734.847	1418.22
735.033	1463.27
735.219	1414.12
735.404	1534.95
735.59	1416.17
735.776	1424.36
735.962	1336.3
736.148	1324.01
736.333	1432.55
736.519	1489.9
736.705	1489.9
736.89	1405.93
737.076	1348.59
737.262	1336.3
737.447	1356.78
737.633	1383.4
737.819	1489.9
738.004	1453.03
738.19	1426.41
738.375	1397.74
738.561	1395.69
738.747	1414.12
738.932	1412.07
739.118	1448.94
739.303	1324.01
739.489	1410.03
739.674	1346.54
739.859	1389.55
740.045	1367.02
740.23	1356.78
740.416	1326.06
740.601	1401.83
740.786	1383.4
740.972	1356.78
741.157	1291.24
741.342	1305.58
741.528	1401.83
741.713	1420.27
741.898	1414.12
742.084	1350.64
742.269	1346.54
742.454	1344.49
742.639	1362.92
742.824	1385.45
743.01	1356.78
743.195	1397.74
743.38	1209.33
743.565	1258.48
743.75	1348.59
743.935	1278.96
744.12	1346.54
744.305	1383.4
744.49	1276.91
744.675	1283.05
744.86	1303.53
745.045	1262.57
745.23	1285.1
745.415	1201.13
745.6	1281
745.785	1262.57
745.97	1172.46
746.155	1278.96
746.34	1199.09
746.525	1178.61
746.71	1238
746.895	1098.74
747.079	1264.62
747.264	1133.55
747.449	1197.04
747.634	1168.37
747.819	1291.24
748.003	1176.56
748.188	1162.22
748.373	1197.04
748.557	1287.15
748.742	1094.64
748.927	1258.48
749.111	1127.41
749.296	1172.46
749.481	1047.54
749.665	1270.76
749.85	1205.23
750.034	1174.51
750.219	1139.69
750.404	1139.69
750.588	1100.78
750.773	996.34
750.957	1111.02
751.141	1096.69
751.326	1164.27
751.51	1094.64
751.695	992.24
751.879	1053.68
752.064	1111.02
752.248	1012.72
752.432	1113.07
752.617	1049.58
752.801	1061.87
752.985	932.85
753.17	1037.3
753.354	1006.58
753.538	992.24
753.722	938.99
753.907	920.56
754.091	1022.96
754.275	1049.58
754.459	883.7
754.643	938.99
754.828	971.76
755.012	992.24
755.196	877.55
755.38	928.75
755.564	949.23
755.748	955.38
755.932	984.05
756.116	936.95
756.3	977.91
756.484	852.98
756.668	961.52
756.852	795.64
757.036	881.65
757.22	883.7
757.404	844.79
757.588	889.84
757.772	906.23
757.956	861.17
758.14	920.56
758.323	879.6
758.507	885.75
758.691	752.63
758.875	916.47
759.059	807.92
759.242	832.5
759.426	738.29
759.61	822.26
759.794	809.97
759.977	840.69
760.161	803.83
760.345	748.53
760.528	783.35
760.712	842.74
760.895	668.66
761.079	693.24
761.263	836.6
761.446	703.48
761.63	787.44
761.813	683
761.997	760.82
762.18	732.15
762.364	783.35
762.547	762.87
762.731	824.31
762.914	807.92
763.098	752.63
763.281	769.01
763.464	726
763.648	664.57
763.831	748.53
764.015	646.13
764.198	764.92
764.381	709.62
764.564	746.48
764.748	730.1
764.931	701.43
765.114	633.85
765.297	746.48
765.481	685.05
765.664	621.56
765.847	635.89
766.03	738.29
766.213	592.89
766.397	689.14
766.58	627.7
766.763	678.9
766.946	658.42
767.129	678.9
767.312	721.91
767.495	619.51
767.678	648.18
767.861	691.19
768.044	629.75
768.227	596.98
768.41	574.46
768.593	494.58
768.776	670.71
768.959	713.72
769.142	689.14
769.324	547.83
769.507	707.57
769.69	627.7
769.873	551.93
770.056	615.41
770.239	633.85
770.421	633.85
770.604	633.85
770.787	580.6
770.97	594.93
771.152	607.22
771.335	627.7
771.518	558.07
771.7	551.93
771.883	599.03
772.066	586.74
772.248	582.65
772.431	631.8
772.613	531.45
772.796	525.3
772.978	599.03
773.161	562.17
773.343	556.02
773.526	500.73
773.708	447.48
773.891	570.36
774.073	553.98
774.256	533.5
774.438	580.6
774.621	482.3
774.803	517.11
774.985	588.79
775.168	533.5
775.35	564.22
775.532	525.3
775.715	496.63
775.897	515.06
776.079	508.92
776.261	549.88
776.444	451.58
776.626	494.58
776.808	427
776.99	443.39
777.173	459.77
777.355	502.78
777.537	494.58
777.719	435.19
777.901	427
778.083	476.15
778.265	451.58
778.447	498.68
778.629	451.58
778.811	506.87
778.993	465.91
779.175	463.86
779.357	457.72
779.539	422.91
779.721	365.56
779.903	377.85
780.085	449.53
780.267	422.91
780.449	455.67
780.631	470.01
780.812	420.86
780.994	431.1
781.176	390.14
781.358	320.51
781.54	347.13
781.721	293.88
781.903	381.95
782.085	351.23
782.267	386.04
782.448	375.8
782.63	396.28
782.812	373.75
782.993	345.08
783.175	383.99
783.357	381.95
783.538	383.99
783.72	343.03
783.901	394.23
784.083	355.32
784.264	349.18
784.446	355.32
784.627	310.27
784.809	404.47
784.99	314.36
785.172	330.75
785.353	388.09
785.535	222.2
785.716	318.46
785.897	236.54
786.079	336.89
786.26	324.6
786.441	363.51
786.623	183.29
786.804	269.31
786.985	318.46
787.167	392.19
787.348	351.23
787.529	326.65
787.71	275.45
787.891	365.56
788.073	324.6
788.254	279.55
788.435	316.41
788.616	308.22
788.797	295.93
788.978	267.26
789.159	289.79
789.34	271.36
789.522	248.83
789.703	244.73
789.884	283.64
790.065	316.41
790.246	343.03
790.427	308.22
790.607	353.27
790.788	287.74
790.969	312.32
791.15	250.88
791.331	308.22
791.512	261.12
791.693	201.72
791.874	291.84
792.054	328.7
792.235	273.4
792.416	267.26
792.597	185.34
792.778	246.78
792.958	246.78
793.139	236.54
793.32	218.11
793.5	254.97
793.681	310.27
793.862	228.35
794.042	261.12
794.223	207.87
794.404	230.4
794.584	201.72
794.765	242.68
794.945	248.83
795.126	207.87
795.306	250.88
795.487	308.22
795.667	207.87
795.848	267.26
796.028	226.3
796.209	218.11
796.389	242.68
796.57	209.92
796.75	214.01
796.93	263.16
797.111	205.82
797.291	209.92
797.471	218.11
797.652	187.39
797.832	228.35
798.012	263.16
798.192	156.67
798.373	191.49
798.553	246.78
798.733	205.82
798.913	171.01
799.093	177.15
799.274	222.2
799.454	148.48
799.634	207.87
799.814	295.93
799.994	293.88
800.174	226.3
800.354	207.87
800.534	226.3
800.714	226.3
800.894	179.2
801.074	119.81
801.254	195.58
801.434	285.69
801.614	242.68
801.794	181.25
801.974	502.78
802.154	107.52
802.334	105.47
802.514	199.68
802.693	168.96
802.873	187.39
803.053	238.59
803.233	189.44
803.413	164.86
803.592	154.62
803.772	123.9
803.952	207.87
804.131	54.27
804.311	115.71
804.491	99.33
804.67	146.43
804.85	158.72
805.03	162.81
805.209	103.42
805.389	138.24
805.568	144.38
805.748	193.53
805.928	232.44
806.107	134.14
806.287	134.14
806.466	93.18
806.646	148.48
806.825	123.9
807.004	148.48
807.184	152.57
807.363	115.71
807.543	144.38
807.722	158.72
807.901	101.37
808.081	191.49
808.26	123.9
808.439	183.29
808.619	123.9
808.798	144.38
808.977	119.81
809.156	113.66
809.336	54.27
809.515	205.82
809.694	166.91
809.873	144.38
810.052	101.37
810.231	148.48
810.411	154.62
810.59	87.04
810.769	154.62
810.948	128
811.127	37.89
811.306	128
811.485	134.14
811.664	199.68
811.843	128
812.022	105.47
812.201	140.29
812.38	183.29
812.559	115.71
812.737	109.57
812.916	111.61
813.095	56.32
813.274	15.36
813.453	115.71
813.632	134.14
813.811	150.53
813.989	74.75
814.168	128
814.347	144.38
814.526	175.1
814.704	158.72
814.883	123.9
815.062	80.89
815.24	144.38
815.419	39.94
815.598	64.51
815.776	109.57
815.955	119.81
816.133	58.37
816.312	142.33
816.49	41.98
816.669	111.61
816.847	138.24
817.026	173.05
817.204	105.47
817.383	93.18
817.561	113.66
817.74	84.99
817.918	64.51
818.097	74.75
818.275	166.91
818.453	195.58
818.632	144.38
818.81	154.62
818.988	119.81
819.167	138.24
819.345	123.9
819.523	128
819.701	123.9
819.879	87.04
820.058	173.05
820.236	162.81
820.414	164.86
820.592	31.74
820.77	68.61
820.948	183.29
821.127	91.13
821.305	140.29
821.483	111.61
821.661	154.62
821.839	46.08
822.017	117.76
822.195	111.61
822.373	84.99
822.551	70.65
822.729	132.09
822.907	103.42
823.085	84.99
823.262	111.61
823.44	74.75
823.618	89.09
823.796	74.75
823.974	68.61
824.152	35.84
824.329	74.75
824.507	119.81
824.685	158.72
824.863	101.37
825.04	78.85
825.218	115.71
825.396	187.39
825.574	97.28
825.751	103.42
825.929	140.29
826.107	103.42
826.284	185.34
826.462	105.47
826.639	115.71
826.817	54.27
826.994	115.71
827.172	132.09
827.349	148.48
827.527	52.22
827.704	138.24
827.882	113.66
828.059	95.23
828.237	54.27
828.414	21.5
828.591	-5.12
828.769	109.57
828.946	37.89
829.124	-17.41
829.301	89.09
829.478	115.71
829.655	113.66
829.833	105.47
830.01	19.46
830.187	101.37
830.364	44.03
830.542	46.08
830.719	107.52
830.896	50.18
831.073	93.18
831.25	39.94
831.427	56.32
831.604	60.42
831.782	97.28
831.959	134.14
832.136	76.8
832.313	119.81
832.49	54.27
832.667	84.99
832.844	105.47
833.021	99.33
833.198	41.98
833.374	62.46
833.551	113.66
833.728	99.33
833.905	58.37
834.082	27.65
834.259	33.79
834.436	107.52
834.612	76.8
834.789	89.09
834.966	119.81
835.143	68.61
835.319	13.31
835.496	54.27
835.673	111.61
835.85	25.6
836.026	82.94
836.203	111.61
836.38	107.52
836.556	103.42
836.733	39.94
836.909	78.85
837.086	23.55
837.262	29.7
837.439	132.09
837.616	29.7
837.792	17.41
837.968	50.18
838.145	99.33
838.321	146.43
838.498	89.09
838.674	29.7
838.851	13.31
839.027	68.61
839.203	50.18
839.38	52.22
839.556	95.23
839.732	87.04
839.909	54.27
840.085	95.23
840.261	39.94
840.437	50.18
840.614	33.79
840.79	146.43
840.966	39.94
841.142	62.46
841.318	17.41
841.494	93.18
841.671	58.37
841.847	29.7
842.023	52.22
842.199	74.75
842.375	50.18
842.551	33.79
842.727	97.28
842.903	132.09
843.079	29.7
843.255	115.71
843.431	62.46
843.607	33.79
843.783	62.46
843.959	27.65
844.134	25.6
844.31	56.32
844.486	3.07
844.662	66.56
844.838	17.41
845.013	82.94
845.189	29.7
845.365	89.09
845.541	54.27
845.716	103.42
845.892	50.18
846.068	60.42
846.244	5.12
846.419	39.94
846.595	37.89
846.77	13.31
846.946	91.13
847.122	84.99
847.297	48.13
847.473	111.61
847.648	3.07
847.824	58.37
847.999	-58.37
848.175	15.36
848.35	70.65
848.526	13.31
848.701	48.13
848.876	82.94
849.052	17.41
849.227	21.5
849.403	74.75
849.578	35.84
849.753	-3.07
849.929	60.42
850.104	-44.03
850.279	91.13
850.454	19.46
850.63	27.65
850.805	-27.65
850.98	72.7
851.155	80.89
851.33	46.08
851.505	39.94
851.681	46.08
851.856	46.08
852.031	80.89
852.206	5.12
852.381	-13.31
852.556	46.08
852.731	31.74
852.906	-15.36
853.081	35.84
853.256	80.89
853.431	19.46
853.606	50.18
853.781	52.22
853.956	-39.94
854.131	70.65
854.305	68.61
854.48	58.37
854.655	78.85
854.83	13.31
855.005	9.22
855.18	31.74
855.354	23.55
855.529	50.18
855.704	46.08
855.879	35.84
856.053	-23.55
856.228	91.13
856.403	-11.26
856.577	-5.12
856.752	15.36
856.926	87.04
857.101	66.56
857.276	-13.31
857.45	80.89
857.625	-1.02
857.799	33.79
857.974	41.98
858.148	27.65
858.323	11.26
858.497	62.46
858.672	87.04
858.846	31.74
859.02	9.22
859.195	5.12
859.369	60.42
859.543	39.94
859.718	29.7
859.892	66.56
860.066	41.98
860.241	41.98
860.415	35.84
860.589	58.37
860.763	113.66
860.938	-17.41
861.112	140.29
861.286	3.07
861.46	33.79
861.634	3.07
861.808	44.03
861.982	37.89
862.157	-1.02
862.331	-25.6
862.505	-11.26
862.679	-39.94
862.853	33.79
863.027	35.84
863.201	50.18
863.375	48.13
863.549	3.07
863.722	50.18
863.896	66.56
864.07	80.89
864.244	19.46
864.418	-15.36
864.592	56.32
864.766	50.18
864.939	-23.55
865.113	-7.17
865.287	70.65
865.461	-13.31
865.634	13.31
865.808	-46.08
865.982	-87.04
866.156	-70.65
866.329	-15.36
866.503	105.47
866.676	70.65
866.85	80.89
867.024	33.79
867.197	84.99
867.371	64.51
867.544	33.79
867.718	35.84
867.891	66.56
868.065	-5.12
868.238	41.98
868.412	123.9
868.585	76.8
868.759	9.22
868.932	35.84
869.105	-19.46
869.279	-62.46
869.452	-37.89
869.625	3.07
869.799	21.5
869.972	-29.7
870.145	19.46
870.319	-3.07
870.492	3.07
870.665	37.89
870.838	15.36
871.011	60.42
871.185	25.6
871.358	7.17
871.531	87.04
871.704	13.31
871.877	-21.5
872.05	-31.74
872.223	-29.7
872.396	3.07
872.569	62.46
872.742	-29.7
872.915	3.07
873.088	-7.17
873.261	15.36
873.434	78.85
873.607	39.94
873.78	13.31
873.953	54.27
874.126	128
874.299	107.52
874.471	46.08
874.644	3.07
874.817	62.46
874.99	58.37
875.163	-25.6
875.335	21.5
875.508	3.07
875.681	138.24
875.853	25.6
876.026	9.22
876.199	87.04
876.371	27.65
876.544	58.37
876.717	99.33
876.889	-37.89
877.062	37.89
877.234	13.31
877.407	5.12
877.579	-39.94
877.752	-27.65
877.924	21.5
878.097	87.04
878.269	21.5
878.442	72.7
878.614	29.7
878.786	7.17
878.959	21.5
879.131	60.42
879.303	-60.42
879.476	27.65
879.648	21.5
879.82	29.7
879.993	15.36
880.165	33.79
880.337	-52.22
880.509	58.37
880.681	-7.17
880.854	-27.65
881.026	-7.17
881.198	109.57
881.37	-46.08
881.542	21.5
881.714	21.5
881.886	27.65
882.058	15.36
882.23	5.12
882.402	33.79
882.574	74.75
882.746	-3.07
882.918	66.56
883.09	41.98
883.262	31.74
883.434	46.08
883.606	25.6
883.778	-11.26
883.95	76.8
884.122	35.84
884.293	19.46
884.465	25.6
884.637	-9.22
884.809	-7.17
884.98	54.27
885.152	21.5
885.324	25.6
885.496	-19.46
885.667	-3.07
885.839	-54.27
886.011	52.22
886.182	-46.08
886.354	-31.74
886.525	21.5
886.697	7.17
886.869	-3.07
887.04	-17.41
887.212	13.31
887.383	13.31
887.555	-97.28
887.726	7.17
887.897	-25.6
888.069	48.13
888.24	1.02
888.412	-21.5
888.583	17.41
888.754	7.17
888.926	-25.6
889.097	35.84
889.268	-5.12
889.44	9.22
889.611	78.85
889.782	9.22
889.953	54.27
890.125	17.41
890.296	-9.22
890.467	-37.89
890.638	13.31
890.809	37.89
890.98	3.07
891.151	-29.7
891.323	11.26
891.494	21.5
891.665	9.22
891.836	33.79
892.007	35.84
892.178	50.18
892.349	91.13
892.52	-31.74
892.691	58.37
892.862	-31.74
893.032	9.22
893.203	68.61
893.374	-35.84
893.545	68.61
893.716	13.31
893.887	27.65
894.057	29.7
894.228	-62.46
894.399	58.37
894.57	74.75
894.74	-19.46
894.911	39.94
895.082	-19.46
895.253	29.7
895.423	33.79
895.594	7.17
895.764	27.65
895.935	11.26
896.106	-1.02
896.276	33.79
896.447	11.26
896.617	64.51
896.788	37.89
896.958	74.75
897.129	13.31
897.299	11.26
897.47	35.84
897.64	29.7
897.81	33.79
897.981	-5.12
898.151	-11.26
898.322	50.18
898.492	58.37
898.662	-31.74
898.832	9.22
899.003	29.7
899.173	60.42
899.343	21.5
899.513	89.09
