Data from USB4F104151__115__11-07-20-417.txt Node

Date: Wed Mar 12 11:07:20 EDT 2025
User: louis
Spectrometer: USB4F10415
Trigger mode: 4
Integration Time (sec): 2.000000E-2
Scans to average: 1
Electric dark correction enabled: true
Nonlinearity correction enabled: false
Boxcar width: 0
XAxis mode: Wavelengths
Number of Pixels in Spectrum: 3648
>>>>>Begin Spectral Data<<<<<
178.204	-70.83
178.424	-70.83
178.644	-70.83
178.864	-105.64
179.084	-76.97
179.304	-46.25
179.524	-17.58
179.744	-29.87
179.964	109.4
180.184	-5.29
180.404	-11.43
180.624	11.09
180.844	-1.19
181.064	-9.39
181.283	54.1
181.503	-19.63
181.723	-33.96
181.943	15.19
182.163	19.29
182.383	2.9
182.602	86.87
182.822	37.72
183.042	47.96
183.262	27.48
183.482	-23.72
183.701	9.05
183.921	39.76
184.141	-72.87
184.361	-31.91
184.58	-5.29
184.8	-25.77
185.02	52.05
185.239	47.96
185.459	31.57
185.679	-3.24
185.898	-38.06
186.118	27.48
186.338	41.81
186.557	-7.34
186.777	-64.68
186.997	31.57
187.216	-9.39
187.436	72.53
187.655	13.14
187.875	17.24
188.095	-40.11
188.314	19.29
188.534	74.58
188.753	11.09
188.973	19.29
189.192	7
189.412	78.68
189.631	0.85
189.851	52.05
190.07	37.72
190.29	-44.2
190.509	-11.43
190.729	-9.39
190.948	7
191.168	45.91
191.387	9.05
191.607	-60.59
191.826	-58.54
192.045	109.4
192.265	21.33
192.484	37.72
192.704	-48.3
192.923	41.81
193.142	64.34
193.362	37.72
193.581	72.53
193.8	62.29
194.02	-15.53
194.239	-36.01
194.458	56.15
194.678	2.9
194.897	-33.96
195.116	-9.39
195.335	25.43
195.555	13.14
195.774	-15.53
195.993	45.91
196.212	-31.91
196.432	68.44
196.651	-50.35
196.87	-23.72
197.089	17.24
197.308	37.72
197.528	95.06
197.747	-70.83
197.966	-25.77
198.185	142.16
198.404	41.81
198.623	-11.43
198.842	45.91
199.062	52.05
199.281	54.1
199.5	82.77
199.719	76.63
199.938	9.05
200.157	35.67
200.376	58.2
200.595	107.35
200.814	-31.91
201.033	52.05
201.252	82.77
201.471	41.81
201.69	0.85
201.909	13.14
202.128	64.34
202.347	74.58
202.566	23.38
202.785	21.33
203.004	-48.3
203.223	27.48
203.442	19.29
203.661	39.76
203.879	45.91
204.098	13.14
204.317	13.14
204.536	23.38
204.755	-1.19
204.974	35.67
205.193	50
205.411	45.91
205.63	13.14
205.849	58.2
206.068	-15.53
206.287	70.48
206.505	66.39
206.724	-17.58
206.943	4.95
207.162	-68.78
207.381	0.85
207.599	-13.48
207.818	-23.72
208.037	11.09
208.255	-5.29
208.474	11.09
208.693	-29.87
208.911	-52.39
209.13	11.09
209.349	2.9
209.567	-23.72
209.786	25.43
210.005	-76.97
210.223	25.43
210.442	23.38
210.661	-15.53
210.879	25.43
211.098	-13.48
211.316	-19.63
211.535	25.43
211.753	88.92
211.972	13.14
212.191	-33.96
212.409	-27.82
212.628	13.14
212.846	23.38
213.065	33.62
213.283	11.09
213.502	41.81
213.72	-17.58
213.938	33.62
214.157	78.68
214.375	-36.01
214.594	27.48
214.812	58.2
215.031	-3.24
215.249	88.92
215.467	101.2
215.686	19.29
215.904	37.72
216.122	9.05
216.341	37.72
216.559	-23.72
216.778	27.48
216.996	35.67
217.214	-13.48
217.432	-46.25
217.651	-13.48
217.869	25.43
218.087	13.14
218.306	31.57
218.524	39.76
218.742	76.63
218.96	7
219.179	86.87
219.397	0.85
219.615	19.29
219.833	37.72
220.051	35.67
220.27	4.95
220.488	70.48
220.706	70.48
220.924	-11.43
221.142	76.63
221.36	25.43
221.578	9.05
221.796	-23.72
222.015	13.14
222.233	25.43
222.451	45.91
222.669	23.38
222.887	0.85
223.105	-11.43
223.323	29.52
223.541	9.05
223.759	74.58
223.977	-64.68
224.195	66.39
224.413	-3.24
224.631	107.35
224.849	39.76
225.067	29.52
225.285	-64.68
225.503	25.43
225.721	-79.02
225.939	-44.2
226.157	-42.15
226.375	127.83
226.592	-52.39
226.81	13.14
227.028	25.43
227.246	66.39
227.464	21.33
227.682	45.91
227.9	50
228.117	17.24
228.335	64.34
228.553	-64.68
228.771	9.05
228.989	27.48
229.206	90.96
229.424	2.9
229.642	62.29
229.86	29.52
230.077	54.1
230.295	47.96
230.513	131.92
230.731	2.9
230.948	47.96
231.166	4.95
231.384	-27.82
231.601	35.67
231.819	9.05
232.037	27.48
232.254	17.24
232.472	-25.77
232.689	19.29
232.907	60.24
233.125	-33.96
233.342	25.43
233.56	-62.63
233.777	45.91
233.995	11.09
234.213	-15.53
234.43	52.05
234.648	29.52
234.865	-9.39
235.083	33.62
235.3	54.1
235.518	-13.48
235.735	13.14
235.953	52.05
236.17	-5.29
236.388	4.95
236.605	-7.34
236.822	47.96
237.04	54.1
237.257	45.91
237.475	47.96
237.692	19.29
237.909	-1.19
238.127	31.57
238.344	15.19
238.562	43.86
238.779	13.14
238.996	25.43
239.214	13.14
239.431	82.77
239.648	45.91
239.865	76.63
240.083	-23.72
240.3	-7.34
240.517	2.9
240.735	-15.53
240.952	54.1
241.169	74.58
241.386	60.24
241.603	4.95
241.821	19.29
242.038	23.38
242.255	31.57
242.472	-5.29
242.689	7
242.907	17.24
243.124	21.33
243.341	-29.87
243.558	-40.11
243.775	-70.83
243.992	-3.24
244.209	-62.63
244.426	-19.63
244.643	82.77
244.86	45.91
245.078	99.16
245.295	-52.39
245.512	33.62
245.729	-29.87
245.946	31.57
246.163	31.57
246.38	9.05
246.597	4.95
246.814	50
247.031	13.14
247.248	66.39
247.464	11.09
247.681	-15.53
247.898	-3.24
248.115	25.43
248.332	-38.06
248.549	41.81
248.766	95.06
248.983	72.53
249.2	47.96
249.417	-9.39
249.633	43.86
249.85	15.19
250.067	-27.82
250.284	31.57
250.501	-1.19
250.717	50
250.934	-7.34
251.151	15.19
251.368	9.05
251.585	-15.53
251.801	-11.43
252.018	-1.19
252.235	25.43
252.451	2.9
252.668	-29.87
252.885	-15.53
253.102	37.72
253.318	-17.58
253.535	-31.91
253.752	19.29
253.968	-9.39
254.185	45.91
254.401	13.14
254.618	54.1
254.835	70.48
255.051	37.72
255.268	50
255.484	50
255.701	17.24
255.917	101.2
256.134	-11.43
256.351	62.29
256.567	19.29
256.784	-44.2
257	70.48
257.217	70.48
257.433	93.01
257.65	19.29
257.866	33.62
258.082	-11.43
258.299	29.52
258.515	-58.54
258.732	11.09
258.948	19.29
259.165	23.38
259.381	62.29
259.597	78.68
259.814	21.33
260.03	0.85
260.246	66.39
260.463	15.19
260.679	72.53
260.895	54.1
261.112	37.72
261.328	52.05
261.544	39.76
261.761	25.43
261.977	70.48
262.193	62.29
262.409	60.24
262.626	-46.25
262.842	2.9
263.058	-83.11
263.274	-15.53
263.49	-7.34
263.707	43.86
263.923	17.24
264.139	21.33
264.355	-19.63
264.571	2.9
264.787	43.86
265.004	68.44
265.22	47.96
265.436	80.72
265.652	-1.19
265.868	-23.72
266.084	-3.24
266.3	-50.35
266.516	45.91
266.732	66.39
266.948	-9.39
267.164	31.57
267.38	56.15
267.596	-23.72
267.812	90.96
268.028	4.95
268.244	66.39
268.46	43.86
268.676	13.14
268.892	2.9
269.108	-1.19
269.324	27.48
269.54	-13.48
269.756	62.29
269.972	82.77
270.188	45.91
270.403	56.15
270.619	-9.39
270.835	39.76
271.051	29.52
271.267	-9.39
271.483	7
271.698	-15.53
271.914	-19.63
272.13	19.29
272.346	15.19
272.562	-44.2
272.777	33.62
272.993	101.2
273.209	-40.11
273.425	-23.72
273.64	-25.77
273.856	86.87
274.072	-60.59
274.287	54.1
274.503	23.38
274.719	66.39
274.934	17.24
275.15	19.29
275.366	19.29
275.581	66.39
275.797	-7.34
276.012	58.2
276.228	52.05
276.444	19.29
276.659	146.26
276.875	-44.2
277.09	9.05
277.306	-7.34
277.521	74.58
277.737	54.1
277.952	-3.24
278.168	39.76
278.383	41.81
278.599	58.2
278.814	2.9
279.03	-23.72
279.245	41.81
279.461	-15.53
279.676	23.38
279.892	-25.77
280.107	-13.48
280.322	15.19
280.538	-11.43
280.753	27.48
280.969	66.39
281.184	-9.39
281.399	52.05
281.615	62.29
281.83	78.68
282.045	78.68
282.26	2.9
282.476	37.72
282.691	54.1
282.906	119.64
283.122	47.96
283.337	43.86
283.552	60.24
283.767	-15.53
283.983	43.86
284.198	-58.54
284.413	23.38
284.628	-21.67
284.843	4.95
285.058	17.24
285.274	7
285.489	37.72
285.704	47.96
285.919	-81.07
286.134	52.05
286.349	13.14
286.564	37.72
286.779	4.95
286.995	31.57
287.21	80.72
287.425	-5.29
287.64	60.24
287.855	29.52
288.07	4.95
288.285	74.58
288.5	35.67
288.715	50
288.93	41.81
289.145	74.58
289.36	31.57
289.575	2.9
289.79	66.39
290.004	39.76
290.219	54.1
290.434	13.14
290.649	84.82
290.864	37.72
291.079	23.38
291.294	39.76
291.509	43.86
291.724	-19.63
291.938	45.91
292.153	0.85
292.368	-13.48
292.583	56.15
292.798	101.2
293.012	47.96
293.227	-19.63
293.442	45.91
293.657	29.52
293.871	13.14
294.086	-52.39
294.301	76.63
294.516	13.14
294.73	13.14
294.945	-21.67
295.16	58.2
295.374	9.05
295.589	45.91
295.804	17.24
296.018	-9.39
296.233	99.16
296.447	15.19
296.662	45.91
296.877	33.62
297.091	-15.53
297.306	41.81
297.52	-15.53
297.735	39.76
297.949	117.59
298.164	23.38
298.378	-1.19
298.593	45.91
298.807	-25.77
299.022	39.76
299.236	21.33
299.451	52.05
299.665	-29.87
299.88	52.05
300.094	80.72
300.309	-5.29
300.523	39.76
300.737	56.15
300.952	19.29
301.166	62.29
301.381	62.29
301.595	52.05
301.809	7
302.024	13.14
302.238	11.09
302.452	31.57
302.667	-25.77
302.881	37.72
303.095	47.96
303.309	13.14
303.524	33.62
303.738	56.15
303.952	11.09
304.166	70.48
304.381	-29.87
304.595	117.59
304.809	29.52
305.023	64.34
305.237	-1.19
305.452	74.58
305.666	25.43
305.88	66.39
306.094	-23.72
306.308	54.1
306.522	76.63
306.736	17.24
306.95	9.05
307.164	25.43
307.379	23.38
307.593	109.4
307.807	13.14
308.021	84.82
308.235	17.24
308.449	58.2
308.663	66.39
308.877	62.29
309.091	45.91
309.305	17.24
309.519	9.05
309.733	70.48
309.947	45.91
310.161	41.81
310.374	50
310.588	41.81
310.802	9.05
311.016	31.57
311.23	43.86
311.444	27.48
311.658	15.19
311.872	45.91
312.085	23.38
312.299	19.29
312.513	72.53
312.727	-62.63
312.941	15.19
313.154	-7.34
313.368	-15.53
313.582	31.57
313.796	4.95
314.009	2.9
314.223	-13.48
314.437	13.14
314.651	7
314.864	4.95
315.078	-9.39
315.292	80.72
315.505	37.72
315.719	21.33
315.933	19.29
316.146	43.86
316.36	-25.77
316.573	29.52
316.787	19.29
317.001	68.44
317.214	13.14
317.428	-44.2
317.641	-42.15
317.855	115.54
318.068	27.48
318.282	-40.11
318.495	62.29
318.709	76.63
318.922	11.09
319.136	90.96
319.349	76.63
319.563	27.48
319.776	11.09
319.99	11.09
320.203	17.24
320.417	58.2
320.63	45.91
320.843	31.57
321.057	86.87
321.27	2.9
321.483	27.48
321.697	64.34
321.91	54.1
322.124	-5.29
322.337	82.77
322.55	23.38
322.763	9.05
322.977	9.05
323.19	29.52
323.403	-5.29
323.617	21.33
323.83	2.9
324.043	50
324.256	70.48
324.469	-9.39
324.683	101.2
324.896	105.3
325.109	138.07
325.322	56.15
325.535	62.29
325.748	37.72
325.962	50
326.175	7
326.388	90.96
326.601	13.14
326.814	25.43
327.027	21.33
327.24	129.88
327.453	33.62
327.666	17.24
327.879	43.86
328.092	78.68
328.305	21.33
328.518	21.33
328.731	-29.87
328.944	58.2
329.157	74.58
329.37	90.96
329.583	17.24
329.796	93.01
330.009	-23.72
330.222	-46.25
330.435	70.48
330.648	-23.72
330.861	45.91
331.073	35.67
331.286	47.96
331.499	45.91
331.712	86.87
331.925	19.29
332.138	68.44
332.35	-66.73
332.563	21.33
332.776	-11.43
332.989	17.24
333.202	43.86
333.414	-23.72
333.627	41.81
333.84	-19.63
334.053	60.24
334.265	31.57
334.478	84.82
334.691	4.95
334.903	50
335.116	15.19
335.329	13.14
335.541	41.81
335.754	82.77
335.966	31.57
336.179	52.05
336.392	-17.58
336.604	123.73
336.817	101.2
337.029	140.12
337.242	21.33
337.454	-7.34
337.667	-33.96
337.88	103.25
338.092	-27.82
338.305	9.05
338.517	-7.34
338.729	35.67
338.942	2.9
339.154	97.11
339.367	-40.11
339.579	21.33
339.792	54.1
340.004	119.64
340.217	37.72
340.429	88.92
340.641	-31.91
340.854	31.57
341.066	82.77
341.278	107.35
341.491	21.33
341.703	-25.77
341.915	39.76
342.128	47.96
342.34	62.29
342.552	-7.34
342.764	0.85
342.977	60.24
343.189	13.14
343.401	13.14
343.613	54.1
343.826	9.05
344.038	-23.72
344.25	115.54
344.462	31.57
344.674	86.87
344.886	47.96
345.099	-11.43
345.311	4.95
345.523	33.62
345.735	-7.34
345.947	4.95
346.159	0.85
346.371	66.39
346.583	25.43
346.795	43.86
347.007	23.38
347.219	-13.48
347.431	-3.24
347.643	62.29
347.855	7
348.067	60.24
348.279	-11.43
348.491	74.58
348.703	-5.29
348.915	11.09
349.127	41.81
349.339	74.58
349.551	15.19
349.763	39.76
349.975	25.43
350.187	27.48
350.399	70.48
350.61	45.91
350.822	41.81
351.034	101.2
351.246	19.29
351.458	-33.96
351.669	33.62
351.881	23.38
352.093	111.44
352.305	123.73
352.517	107.35
352.728	15.19
352.94	97.11
353.152	25.43
353.363	9.05
353.575	33.62
353.787	-11.43
353.999	76.63
354.21	23.38
354.422	19.29
354.633	56.15
354.845	-13.48
355.057	-5.29
355.268	25.43
355.48	60.24
355.692	52.05
355.903	-9.39
356.115	-64.68
356.326	-62.63
356.538	39.76
356.749	43.86
356.961	125.78
357.172	29.52
357.384	95.06
357.595	99.16
357.807	58.2
358.018	35.67
358.23	45.91
358.441	50
358.653	60.24
358.864	23.38
359.075	15.19
359.287	68.44
359.498	17.24
359.709	19.29
359.921	127.83
360.132	41.81
360.344	31.57
360.555	25.43
360.766	54.1
360.977	72.53
361.189	76.63
361.4	-7.34
361.611	41.81
361.823	43.86
362.034	25.43
362.245	4.95
362.456	74.58
362.667	17.24
362.879	62.29
363.09	15.19
363.301	50
363.512	31.57
363.723	45.91
363.935	23.38
364.146	-44.2
364.357	-33.96
364.568	123.73
364.779	50
364.99	47.96
365.201	-17.58
365.412	0.85
365.623	25.43
365.834	76.63
366.045	-27.82
366.256	56.15
366.467	107.35
366.678	45.91
366.889	47.96
367.1	39.76
367.311	25.43
367.522	39.76
367.733	93.01
367.944	52.05
368.155	13.14
368.366	52.05
368.577	82.77
368.788	90.96
368.999	19.29
369.209	25.43
369.42	41.81
369.631	74.58
369.842	2.9
370.053	70.48
370.264	72.53
370.474	-5.29
370.685	37.72
370.896	25.43
371.107	97.11
371.317	66.39
371.528	-3.24
371.739	99.16
371.95	64.34
372.16	103.25
372.371	-23.72
372.582	72.53
372.792	37.72
373.003	-5.29
373.214	31.57
373.424	15.19
373.635	64.34
373.846	111.44
374.056	113.49
374.267	58.2
374.477	-15.53
374.688	76.63
374.898	95.06
375.109	41.81
375.319	52.05
375.53	80.72
375.74	-7.34
375.951	21.33
376.161	64.34
376.372	9.05
376.582	82.77
376.793	54.1
377.003	45.91
377.214	27.48
377.424	111.44
377.635	-13.48
377.845	-76.97
378.055	19.29
378.266	-33.96
378.476	47.96
378.686	82.77
378.897	11.09
379.107	109.4
379.317	17.24
379.528	-7.34
379.738	68.44
379.948	23.38
380.158	23.38
380.369	29.52
380.579	56.15
380.789	43.86
380.999	54.1
381.21	64.34
381.42	45.91
381.63	31.57
381.84	50
382.05	-5.29
382.261	25.43
382.471	68.44
382.681	82.77
382.891	88.92
383.101	54.1
383.311	66.39
383.521	17.24
383.731	39.76
383.941	123.73
384.151	41.81
384.361	4.95
384.571	15.19
384.781	35.67
384.991	66.39
385.201	80.72
385.411	-21.67
385.621	125.78
385.831	41.81
386.041	66.39
386.251	50
386.461	95.06
386.671	123.73
386.881	113.49
387.091	56.15
387.301	37.72
387.511	50
387.72	99.16
387.93	121.68
388.14	-40.11
388.35	-40.11
388.56	54.1
388.769	58.2
388.979	35.67
389.189	25.43
389.399	78.68
389.609	54.1
389.818	37.72
390.028	97.11
390.238	31.57
390.447	50
390.657	68.44
390.867	58.2
391.076	107.35
391.286	107.35
391.496	9.05
391.705	111.44
391.915	88.92
392.125	103.25
392.334	101.2
392.544	9.05
392.753	-11.43
392.963	9.05
393.172	101.2
393.382	17.24
393.591	80.72
393.801	160.59
394.01	109.4
394.22	60.24
394.429	58.2
394.639	66.39
394.848	95.06
395.058	15.19
395.267	54.1
395.477	29.52
395.686	82.77
395.895	76.63
396.105	103.25
396.314	7
396.524	80.72
396.733	97.11
396.942	133.97
397.152	88.92
397.361	121.68
397.57	80.72
397.78	131.92
397.989	113.49
398.198	103.25
398.407	-25.77
398.617	72.53
398.826	70.48
399.035	82.77
399.244	168.79
399.453	86.87
399.663	97.11
399.872	105.3
400.081	39.76
400.29	66.39
400.499	17.24
400.708	179.03
400.917	82.77
401.127	86.87
401.336	129.88
401.545	187.22
401.754	80.72
401.963	119.64
402.172	56.15
402.381	86.87
402.59	64.34
402.799	154.45
403.008	129.88
403.217	168.79
403.426	70.48
403.635	66.39
403.844	150.36
404.053	131.92
404.262	99.16
404.471	150.36
404.68	138.07
404.888	133.97
405.097	185.17
405.306	193.36
405.515	156.5
405.724	52.05
405.933	152.4
406.142	224.08
406.35	150.36
406.559	176.98
406.768	179.03
406.977	168.79
407.185	176.98
407.394	170.83
407.603	144.21
407.812	99.16
408.02	252.75
408.229	199.51
408.438	193.36
408.646	203.6
408.855	209.75
409.064	336.72
409.272	250.71
409.481	322.38
409.69	285.52
409.898	316.24
410.107	297.81
410.315	349.01
410.524	271.19
410.733	299.86
410.941	248.66
411.15	392.02
411.358	383.82
411.567	416.59
411.775	357.2
411.984	379.73
412.192	310.1
412.401	383.82
412.609	416.59
412.818	457.55
413.026	430.93
413.234	582.48
413.443	467.79
413.651	594.76
413.86	508.75
414.068	537.42
414.276	609.1
414.485	570.19
414.693	510.8
414.901	662.35
415.11	668.49
415.318	629.58
415.526	641.87
415.734	752.46
415.943	791.37
416.151	824.14
416.359	768.84
416.567	781.13
416.776	822.09
416.984	822.09
417.192	873.29
417.4	838.47
417.608	889.67
417.817	942.92
418.025	1014.6
418.233	1076.04
418.441	1008.45
418.649	1057.61
418.857	1198.92
419.065	1231.68
419.273	1196.87
419.481	1223.49
419.689	1305.41
419.897	1356.61
420.105	1395.52
420.313	1424.19
420.521	1545.02
420.729	1581.89
420.937	1504.06
421.145	1620.8
421.353	1721.15
421.561	1770.3
421.769	1911.61
421.977	1913.66
422.185	1905.46
422.393	1868.6
422.601	2077.49
422.809	2085.69
423.017	2089.78
423.224	2210.61
423.432	2323.25
423.64	2396.98
423.848	2497.33
424.056	2601.77
424.263	2536.24
424.471	2597.68
424.679	2673.45
424.887	2794.28
425.094	2900.78
425.302	2911.02
425.51	3109.67
425.718	3105.57
425.925	3277.6
426.133	3302.18
426.341	3527.46
426.548	3717.92
426.756	3576.61
426.964	3568.41
427.171	3953.43
427.379	3955.48
427.586	4117.27
427.794	4102.93
428.001	4322.07
428.209	4610.83
428.417	4440.85
428.624	4807.44
428.832	4854.54
429.039	4789
429.247	4743.95
429.454	5237.51
429.662	5600
429.869	5184.26
430.076	5600
430.284	5399.3
430.491	5638.91
430.699	5903.1
430.906	5901.05
431.114	6173.43
431.321	6458.1
431.528	6472.43
431.736	6695.66
431.943	7156.46
432.15	6890.22
432.358	6974.19
432.565	7252.71
432.772	7410.4
432.979	7568.1
433.187	7650.02
433.394	8032.99
433.601	8346.33
433.808	8594.13
434.016	8534.74
434.223	8714.96
434.43	9370.31
434.637	9163.47
434.844	9700.03
435.052	9886.4
435.259	9933.5
435.466	9884.35
435.673	9831.1
435.88	10308.28
436.087	11147.95
436.294	10848.94
436.501	10850.99
436.708	10965.68
436.915	11475.62
437.122	11877.02
437.329	11901.6
437.537	12186.27
437.743	12444.31
437.95	12208.8
438.157	12810.9
438.364	13415.05
438.571	13441.67
438.778	13515.4
438.985	14867.06
439.192	14035.58
439.399	14529.14
439.606	14391.93
439.813	15061.62
440.02	16003.68
440.227	15589.99
440.433	15618.66
440.64	16185.95
440.847	15983.2
441.054	16247.39
441.261	17390.16
441.467	17244.75
441.674	17664.58
441.881	18213.44
442.088	18223.68
442.294	18344.51
442.501	18598.46
442.708	18940.47
442.914	19653.16
443.121	20509.21
443.328	20212.26
443.534	21510.67
443.741	20605.47
443.948	20179.49
444.154	21985.8
444.361	21838.34
444.568	22024.71
444.774	22247.94
444.981	22407.68
445.187	22821.37
445.394	23640.56
445.6	23511.53
445.807	26094.02
446.013	24715.74
446.22	24943.06
446.426	26188.23
446.633	26190.28
446.839	27003.32
447.046	26022.34
447.252	27730.35
447.459	27832.75
447.665	27656.62
447.871	28469.67
448.078	30099.85
448.284	28262.82
448.491	29118.87
448.697	30314.89
448.903	30847.36
449.11	30753.15
449.316	30290.31
449.522	30908.8
449.728	31707.51
449.935	31844.72
450.141	31832.43
450.347	32844.13
450.553	31748.46
450.76	32090.48
450.966	33118.56
451.172	32393.58
451.378	33362.26
451.584	32745.83
451.791	33601.88
451.997	33462.61
452.203	34111.82
452.409	34109.77
452.615	33999.18
452.821	32420.2
453.027	32330.09
453.233	33933.65
453.44	32809.31
453.646	32827.74
453.852	33665.36
454.058	33902.93
454.264	32471.4
454.47	32995.68
454.676	32514.41
454.882	33259.87
455.088	30497.16
455.294	30955.9
455.5	31496.56
455.705	31861.1
455.911	30484.87
456.117	29899.15
456.323	29049.24
456.529	27707.82
456.735	29309.33
456.941	28496.29
457.147	27904.43
457.352	27091.38
457.558	26939.83
457.764	26859.96
457.97	26548.67
458.176	25582.03
458.381	25797.07
458.587	24572.38
458.793	24553.95
458.999	23257.59
459.204	24543.71
459.41	23888.36
459.616	22641.15
459.821	22663.68
460.027	22530.56
460.233	22393.34
460.438	21006.87
460.644	21117.46
460.85	20412.96
461.055	20177.44
461.261	19788.33
461.466	18397.76
461.672	17939.01
461.878	19161.65
462.083	18027.07
462.289	17619.53
462.494	17375.82
462.7	16521.82
462.905	16151.13
463.111	17048.15
463.316	16761.43
463.522	16636.5
463.727	16489.05
463.932	16601.69
464.138	16231.01
464.343	16259.68
464.549	15704.68
464.754	16239.2
464.959	16464.47
465.165	16106.08
465.37	15598.18
465.575	15268.46
465.781	15725.16
465.986	15839.84
466.191	15217.26
466.397	15118.96
466.602	14187.13
466.807	14631.54
467.012	14744.18
467.218	14588.53
467.423	14422.65
467.628	14561.91
467.833	15442.54
468.038	14819.96
468.244	14256.76
468.449	14895.73
468.654	14584.44
468.859	14195.32
469.064	14432.89
469.269	13689.48
469.474	13824.64
469.679	14068.35
469.885	13531.78
470.09	13759.11
470.295	13591.17
470.5	13314.7
470.705	13320.84
470.91	13261.45
471.115	13132.43
471.32	13263.5
471.525	13384.33
471.73	12851.86
471.935	12790.42
472.139	12229.27
472.344	12550.81
472.549	12526.23
472.754	12389.02
472.959	11907.74
473.164	11604.64
473.369	11756.19
473.574	11985.57
473.778	11897.5
473.983	11938.46
474.188	11844.26
474.393	11145.9
474.598	11328.17
474.802	11240.11
475.007	11049.64
475.212	11270.83
475.417	10728.11
475.621	10885.81
475.826	10967.73
476.031	10511.03
476.235	10263.22
476.44	10625.72
476.645	10263.22
476.849	10506.93
477.054	10261.18
477.259	10078.91
477.463	10021.56
477.668	9728.7
477.872	9919.17
478.077	9777.86
478.282	9482.95
478.486	9573.06
478.691	9482.95
478.895	9493.19
479.1	9315.02
479.304	9384.65
479.509	9183.95
479.713	9370.31
479.918	9120.46
480.122	8946.38
480.326	9300.68
480.531	9005.77
480.735	9042.64
480.94	8825.55
481.144	9171.66
481.348	8635.09
481.553	8981.2
481.757	8739.54
481.961	8821.45
482.166	8714.96
482.37	8829.65
482.574	8667.86
482.778	8612.56
482.983	8882.89
483.187	8880.85
483.391	8938.19
483.595	8807.12
483.8	8510.16
484.004	8700.62
484.208	9110.22
484.412	8712.91
484.616	8653.52
484.821	8739.54
485.025	8504.02
485.229	8854.22
485.433	8659.67
485.637	8671.95
485.841	8479.44
486.045	8551.12
486.249	8731.34
486.453	8592.08
486.657	8694.48
486.861	8895.18
487.065	8524.5
487.269	8688.34
487.473	8571.6
487.677	8749.78
487.881	8628.95
488.085	8721.1
488.289	8760.02
488.493	8530.64
488.697	8915.66
488.901	8733.39
489.105	8696.53
489.309	8696.53
489.512	8788.69
489.716	8823.5
489.92	8938.19
490.124	8848.08
490.328	8973
490.531	8897.23
490.735	9024.2
490.939	8964.81
491.143	8925.9
491.346	8823.5
491.55	8868.56
491.754	9063.12
491.958	9177.8
492.161	9142.99
492.365	9202.38
492.569	9294.54
492.772	9179.85
492.976	9552.58
493.18	9325.26
493.383	9427.65
493.587	9675.46
493.79	9726.66
493.994	9351.88
494.197	9724.61
494.401	9929.41
494.605	9810.62
494.808	9847.49
495.012	10017.47
495.215	9820.86
495.419	10109.63
495.622	9943.74
495.825	10085.05
496.029	10361.53
496.232	10529.46
496.436	10386.1
496.639	10799.79
496.843	10566.32
497.046	10535.6
497.249	10814.13
497.453	11018.93
497.656	10928.81
497.859	10920.62
498.063	11170.47
498.266	11317.93
498.469	11274.92
498.673	11461.29
498.876	11684.52
499.079	11752.1
499.282	11864.74
499.485	12040.86
499.689	12090.01
499.892	12206.75
500.095	12515.99
500.298	12731.03
500.501	12585.62
500.705	13066.89
500.908	12853.91
501.111	13136.52
501.314	13316.75
501.517	13451.91
501.72	13486.73
501.923	13433.48
502.126	13863.55
502.329	14144.13
502.532	14011.01
502.735	14453.37
502.938	14492.28
503.141	14611.06
503.344	14752.37
503.547	14805.62
503.75	15049.33
503.953	15475.31
504.156	15528.55
504.359	15542.89
504.562	15647.33
504.765	16073.31
504.968	15925.86
505.17	16323.16
505.373	16253.53
505.576	16894.55
505.779	16835.16
505.982	16990.8
506.185	17347.15
506.387	17453.64
506.59	17482.31
506.793	17736.26
506.996	17531.47
507.198	18254.4
507.401	18231.87
507.604	18539.07
507.807	18848.31
508.009	18825.78
508.212	18870.84
508.415	19286.58
508.617	19626.54
508.82	19511.85
509.022	19227.18
509.225	19960.36
509.428	19989.03
509.63	20027.94
509.833	20460.06
510.035	20990.49
510.238	20765.21
510.44	21111.32
510.643	21553.68
510.845	21686.79
511.048	21588.49
511.25	22108.68
511.453	22178.31
511.655	22936.06
511.858	22307.33
512.06	22696.44
512.262	22903.29
512.465	23144.95
512.667	23443.95
512.87	23583.21
513.072	23593.45
513.274	24248.8
513.477	24365.54
513.679	24807.9
513.881	24912.35
514.084	25205.2
514.286	25137.62
514.488	25487.82
514.69	26243.52
514.893	26214.85
515.095	26431.94
515.297	26978.75
515.499	26892.73
515.701	27075
515.904	27208.12
516.106	27476.4
516.308	27982.25
516.51	28334.5
516.712	27904.43
516.914	28694.94
517.116	29221.27
517.318	29249.94
517.52	29131.16
517.722	29532.56
517.925	29876.62
518.127	30237.06
518.329	30435.72
518.531	30216.58
518.733	30882.17
518.935	31383.93
519.136	31279.48
519.338	31623.54
519.54	31451.51
519.742	31928.69
519.944	32426.34
520.146	32332.14
520.348	32860.51
520.55	32919.9
520.752	33378.65
520.954	33878.35
521.155	33923.41
521.357	34572.61
521.559	34601.29
521.761	34617.67
521.963	34976.06
522.164	35422.52
522.366	35322.17
522.568	35899.7
522.77	35715.38
522.971	36383.02
523.173	35768.63
523.375	36774.18
523.576	36755.75
523.778	36641.06
523.98	37249.31
524.181	37427.48
524.383	37466.39
524.584	37660.95
524.786	37959.95
524.988	37857.56
525.189	38660.36
525.391	38705.41
525.592	38945.03
525.794	39022.85
525.995	39241.98
526.197	39258.37
526.398	39393.53
526.6	39837.94
526.801	39944.44
527.003	40413.42
527.204	40366.32
527.406	40548.59
527.607	40392.94
527.808	40630.51
528.01	39987.44
528.211	40538.35
528.412	41302.24
528.614	41050.34
528.815	41072.87
529.016	41828.57
529.218	41304.29
529.419	41681.11
529.62	41781.46
529.822	41539.8
530.023	41801.94
530.224	41820.38
530.425	41912.53
530.626	41556.19
530.828	41556.19
531.029	42672.33
531.23	41949.4
531.431	42256.59
531.632	42840.26
531.833	42549.45
532.035	42694.86
532.236	42690.76
532.437	42746.06
532.638	42524.88
532.839	42705.1
533.04	42950.85
533.241	42125.52
533.442	43487.42
533.643	42987.72
533.844	43055.3
534.045	42797.26
534.246	42643.66
534.447	43499.71
534.648	42789.06
534.849	42989.77
535.05	42657.99
535.251	43073.73
535.451	42866.89
535.652	43147.46
535.853	43493.57
536.054	43309.25
536.255	43460.8
536.456	42987.72
536.657	43835.58
536.857	43139.27
537.058	43147.46
537.259	43253.95
537.46	43559.1
537.66	43557.05
537.861	43440.32
538.062	43227.33
538.263	43481.28
538.463	43149.51
538.664	43272.39
538.865	43378.88
539.065	43464.89
539.266	43253.95
539.466	43765.95
539.667	42963.14
539.868	43954.36
540.068	43196.61
540.269	43174.08
540.469	43684.03
540.67	43505.85
540.87	43354.3
541.071	43292.86
541.271	43462.85
541.472	43505.85
541.672	43362.5
541.873	43180.23
542.073	42746.06
542.274	43886.78
542.474	43071.68
542.675	43075.78
542.875	43497.66
543.075	43075.78
543.276	42641.61
543.476	43245.76
543.676	42832.07
543.877	43475.13
544.077	43491.52
544.277	43210.95
544.478	43538.62
544.678	43344.06
544.878	43073.73
545.078	43296.96
545.279	42875.08
545.479	43501.76
545.679	43589.82
545.879	43661.5
546.079	42893.51
546.28	43100.36
546.48	42475.73
546.68	43636.92
546.88	43073.73
547.08	42924.23
547.28	43178.18
547.48	42807.5
547.68	42936.52
547.88	43094.21
548.081	43239.62
548.281	43034.82
548.481	43018.44
548.681	43466.94
548.881	43346.11
549.081	42940.61
549.28	42774.73
549.48	43262.15
549.68	42977.48
549.88	43737.27
550.08	42940.61
550.28	43425.98
550.48	42588.36
550.68	43434.17
550.88	42961.09
551.08	42688.71
551.279	42862.79
551.479	42842.31
551.679	43219.14
551.879	43108.55
552.079	43292.86
552.278	42787.02
552.478	43120.84
552.678	43014.34
552.878	43223.23
553.077	42758.34
553.277	42862.79
553.477	43393.22
553.676	42961.09
553.876	42787.02
554.076	42588.36
554.275	42514.64
554.475	42528.97
554.674	42590.41
554.874	42668.23
555.074	42522.83
555.273	42508.49
555.473	42727.63
555.672	42612.94
555.872	42232.02
556.071	42578.12
556.271	42813.64
556.47	42375.37
556.67	41961.69
556.869	42328.27
557.068	42344.66
557.268	41781.46
557.467	42426.57
557.667	42170.58
557.866	42494.16
558.065	41926.87
558.265	41687.26
558.464	41969.88
558.663	42492.11
558.863	41330.91
559.062	42033.36
559.261	41183.46
559.461	41814.23
559.66	41330.91
559.859	41687.26
560.058	41388.25
560.258	41660.63
560.457	40954.08
560.656	41967.83
560.855	41359.58
561.054	41443.55
561.253	41181.41
561.453	41003.24
561.652	40984.8
561.851	41105.63
562.05	40790.25
562.249	40782.06
562.448	40982.76
562.647	40851.69
562.846	40642.79
563.045	40773.86
563.244	39973.11
563.443	41019.62
563.642	40091.89
563.841	40567.02
564.04	40272.11
564.239	40425.71
564.438	40079.6
564.637	40098.03
564.836	39975.16
565.035	39538.94
565.234	39633.14
565.432	39954.68
565.631	39649.53
565.83	40102.13
566.029	39651.58
566.228	39072
566.427	39688.44
566.625	39321.85
566.824	39037.19
567.023	39526.65
567.222	38467.85
567.42	39266.56
567.619	38912.26
567.818	38654.22
568.016	39141.63
568.215	38977.79
568.414	38455.56
568.612	38791.43
568.811	38375.69
569.01	38164.75
569.208	38297.87
569.407	38410.51
569.605	37759.25
569.804	38181.13
570.002	37652.76
570.201	37980.43
570.4	37484.83
570.598	37732.63
570.797	37390.62
570.995	37837.08
571.193	36895.01
571.392	37237.02
571.59	37046.56
571.789	36952.35
571.987	36895.01
572.186	37081.38
572.384	36798.76
572.582	36526.38
572.781	36970.79
572.979	36096.3
573.177	36327.72
573.376	36444.46
573.574	36389.16
573.772	36454.7
573.971	36604.2
574.169	35823.92
574.367	35594.55
574.565	35815.73
574.763	35672.37
574.962	35256.64
575.16	35561.78
575.358	35715.38
575.556	34912.58
575.754	35979.57
575.952	35115.33
576.151	35189.05
576.349	34773.31
576.547	35295.55
576.745	35146.05
576.943	34847.04
577.141	35008.83
577.339	34910.53
577.537	34445.64
577.735	34691.4
577.933	34369.86
578.131	34478.41
578.329	34341.19
578.527	34238.79
578.725	34173.26
578.923	34550.09
579.121	33763.67
579.319	33638.74
579.516	33849.68
579.714	33583.44
579.912	33587.54
580.11	33339.74
580.308	33833.3
580.506	33595.73
580.704	33046.88
580.901	33208.67
581.099	33319.26
581.297	32618.85
581.495	32702.82
581.692	32954.72
581.89	32530.79
582.088	32668
582.285	32358.76
582.483	32758.11
582.681	32463.21
582.878	32668
583.076	31904.11
583.274	32371.05
583.471	31775.09
583.669	31969.65
583.866	31816.05
584.064	31861.1
584.262	31517.04
584.459	31928.69
584.657	31455.61
584.854	31859.06
585.052	30796.16
585.249	31500.66
585.447	31056.25
585.644	30968.19
585.841	30978.43
586.039	31412.6
586.236	30839.17
586.434	30728.58
586.631	30679.43
586.828	30646.66
587.026	30777.73
587.223	30597.51
587.42	30499.2
587.618	30495.11
587.815	30384.52
588.012	30261.64
588.21	30120.33
588.407	30339.46
588.604	29884.81
588.801	30067.08
588.999	29630.87
589.196	29950.35
589.393	29878.67
589.59	29524.37
589.787	29550.99
589.984	29170.07
590.182	29120.92
590.379	29165.98
590.576	29282.71
590.773	29133.21
590.97	29018.52
591.167	28750.24
591.364	28498.34
591.561	28979.61
591.758	28641.7
591.955	28711.33
592.152	28846.49
592.349	28322.21
592.546	28412.32
592.743	28303.78
592.94	27955.63
593.137	28189.1
593.334	28338.6
593.531	27666.86
593.727	28393.89
593.924	28090.79
594.121	27632.05
594.318	27867.56
594.515	27630
594.712	27664.82
594.908	27322.8
595.105	27142.58
595.302	27095.48
595.499	27298.23
595.696	27292.08
595.892	27005.37
596.089	27101.62
596.286	26997.18
596.482	26909.11
596.679	26800.57
596.876	26868.16
597.072	26544.58
597.269	26718.65
597.466	26243.52
597.662	25946.57
597.859	26184.13
598.055	26563.01
598.252	26059.21
598.448	25893.32
598.645	26106.31
598.841	25614.8
599.038	26030.54
599.234	25981.38
599.431	25504.21
599.627	25354.71
599.824	25709.01
600.02	25440.72
600.217	25289.17
600.413	25512.4
600.609	25379.28
600.806	25358.8
601.002	25203.16
601.198	24828.38
601.395	24859.1
601.591	24547.81
601.787	24930.78
601.984	24863.19
602.18	24943.06
602.376	24463.84
602.572	24506.85
602.769	24455.65
602.965	24242.66
603.161	24349.15
603.357	24039.91
603.553	24351.2
603.75	24310.24
603.946	23847.4
604.142	24422.88
604.338	23534.06
604.534	23955.94
604.73	23613.93
604.926	23818.73
605.122	23755.24
605.318	23722.48
605.514	23452.14
605.71	23394.8
605.906	23407.09
606.102	23345.65
606.298	22925.82
606.494	23325.17
606.69	22993.4
606.886	23190
607.082	22610.43
607.278	23028.21
607.474	22669.82
607.67	22807.03
607.866	22632.96
608.062	22786.55
608.257	22485.5
608.453	22884.86
608.649	22970.87
608.845	22239.75
609.041	22450.69
609.236	22385.15
609.432	22512.13
609.628	22618.62
609.824	22381.06
610.019	22178.31
610.215	22092.29
610.411	22280.71
610.606	21897.74
610.802	21844.49
610.998	21938.69
611.193	22225.41
611.389	21754.38
611.584	21991.94
611.78	21858.82
611.976	21703.18
612.171	21965.32
612.367	21551.63
612.562	21758.47
612.758	21299.73
612.953	21498.38
613.149	21664.27
613.344	21312.02
613.539	21658.12
613.735	21578.25
613.93	21383.7
614.126	21305.87
614.321	21119.51
614.517	21238.29
614.712	21070.36
614.907	21189.14
615.103	21090.84
615.298	20937.24
615.493	21234.19
615.688	20843.03
615.884	21289.49
616.079	20916.76
616.274	21115.41
616.47	20642.33
616.665	20681.24
616.86	20818.46
617.055	20408.86
617.25	20611.61
617.445	20754.97
617.641	20380.19
617.836	20421.15
618.031	20353.57
618.226	20742.68
618.421	20359.71
618.616	20445.73
618.811	19935.78
619.006	20353.57
619.201	19956.26
619.396	20304.42
619.591	19687.98
619.786	20236.83
619.981	19483.18
620.176	19882.53
620.371	19405.36
620.566	19794.47
620.761	19411.5
620.956	19722.79
621.151	19210.8
621.346	19503.66
621.541	19208.75
621.735	19403.31
621.93	18618.94
622.125	19065.39
622.32	18682.42
622.515	19077.68
622.709	18686.52
622.904	18479.68
623.099	18504.25
623.294	18477.63
623.488	17998.4
623.683	18459.2
623.878	18031.17
624.072	18094.66
624.267	17934.92
624.462	17896
624.656	17683.02
624.851	17861.19
625.046	17662.54
625.24	17566.28
625.435	17359.44
625.629	17451.6
625.824	17207.89
626.018	17381.96
626.213	16990.8
626.407	17363.53
626.602	16620.12
626.796	16693.85
626.991	16726.61
627.185	16530.01
627.38	16704.09
627.574	16380.51
627.768	15993.44
627.963	16276.06
628.157	16091.74
628.352	16089.7
628.546	15821.41
628.74	16194.14
628.935	15911.52
629.129	15714.92
629.323	15639.14
629.517	15778.4
629.712	15563.37
629.906	15413.87
630.1	15436.39
630.294	15405.67
630.489	15317.61
630.683	15211.12
630.877	15147.63
631.071	14977.65
631.265	14901.87
631.459	14942.83
631.653	14592.63
631.848	14842.48
632.042	14320.25
632.236	14563.96
632.43	14387.83
632.624	14398.07
632.818	14111.36
633.012	14322.3
633.206	14238.33
633.4	14123.65
633.594	13787.78
633.788	14111.36
633.982	13968
634.176	13730.44
634.369	13783.68
634.563	14121.6
634.757	13494.92
634.951	13656.71
635.145	13732.48
635.339	13607.56
635.533	13267.59
635.726	13355.66
635.92	13222.54
636.114	13165.2
636.308	13025.93
636.501	13273.74
636.695	12954.26
636.889	12968.59
637.083	12731.03
637.276	12841.62
637.47	12786.32
637.664	12591.77
637.857	12718.74
638.051	12544.66
638.244	12501.65
638.438	12415.64
638.632	12272.28
638.825	12055.2
639.019	12192.41
639.212	11922.08
639.406	12100.25
639.599	11721.38
639.793	12106.4
639.986	11700.9
640.18	11895.46
640.373	11723.43
640.567	11610.79
640.76	11645.6
640.954	11715.23
641.147	11553.45
641.34	11555.49
641.534	11416.23
641.727	11502.25
641.92	11186.86
642.114	11279.02
642.307	11233.96
642.5	11156.14
642.694	10748.59
642.887	11029.17
643.08	10955.44
643.273	10963.63
643.467	10984.11
643.66	10719.92
643.853	10709.68
644.046	10535.6
644.239	10631.86
644.432	10285.75
644.626	10226.36
644.819	10416.82
645.012	10375.86
645.205	10394.29
645.398	10386.1
645.591	10173.11
645.784	10144.44
645.977	10054.33
646.17	10011.32
646.363	9943.74
646.556	10009.28
646.749	10003.13
646.942	9919.17
647.135	9849.54
647.328	9824.96
647.521	9652.93
647.714	9532.1
647.907	9581.25
648.099	9620.16
648.292	9601.73
648.485	9315.02
648.678	9333.45
648.871	9398.98
649.064	9257.67
649.256	9222.86
649.449	9159.37
649.642	9056.97
649.835	9097.93
650.027	9042.64
650.22	9093.83
650.413	9022.16
650.605	8940.24
650.798	9020.11
650.991	8776.4
651.183	8864.46
651.376	8655.57
651.568	8854.22
651.761	8577.75
651.954	8649.43
652.146	8653.52
652.339	8616.66
652.531	8778.45
652.724	8442.58
652.916	8428.24
653.109	8383.19
653.301	8319.7
653.494	8385.24
653.686	8151.77
653.879	8262.36
654.071	7938.78
654.263	8106.71
654.456	8184.54
654.648	8035.03
654.84	7887.58
655.033	7873.25
655.225	7934.68
655.417	7758.56
655.61	7830.24
655.802	7842.53
655.994	7746.27
656.186	7684.83
656.379	7609.06
656.571	7467.75
656.763	7572.19
656.955	7604.96
657.148	7643.87
657.34	7428.84
657.532	7467.75
657.724	7430.88
657.916	7430.88
658.108	7283.43
658.3	7250.66
658.492	7336.68
658.684	7295.72
658.876	7248.61
659.068	7084.78
659.26	7152.36
659.452	7082.73
659.644	7062.25
659.836	6892.27
660.028	7109.35
660.22	6890.22
660.412	6972.14
660.604	6783.73
660.796	6785.77
660.988	6810.35
661.18	6773.49
661.372	6857.45
661.563	6753.01
661.755	6679.28
661.947	6644.46
662.139	6560.5
662.331	6593.26
662.522	6662.9
662.714	6525.68
662.906	6447.86
663.097	6396.66
663.289	6525.68
663.481	6370.04
663.673	6425.33
663.864	6247.16
664.056	6226.68
664.247	6253.3
664.439	6206.2
664.631	6079.22
664.822	6189.81
665.014	6050.55
665.205	6161.14
665.397	6304.5
665.588	6093.56
665.78	6046.46
665.971	5956.35
666.163	5989.11
666.354	5917.44
666.546	6048.51
666.737	5864.19
666.929	5935.87
667.12	5714.69
667.311	5806.84
667.503	5757.69
667.694	5706.49
667.885	5638.91
668.077	5583.62
668.268	5538.56
668.459	5667.58
668.651	5571.33
668.842	5665.53
669.033	5585.66
669.224	5538.56
669.416	5468.93
669.607	5505.79
669.798	5528.32
669.989	5542.66
670.18	5364.48
670.371	5481.22
670.563	5305.09
670.754	5436.16
670.945	5202.69
671.136	5444.35
671.327	5430.02
671.518	5100.3
671.709	5309.19
671.9	5364.48
672.091	5243.65
672.282	5147.4
672.473	5159.69
672.664	5190.41
672.855	5051.14
673.046	5020.42
673.237	4985.61
673.428	5171.97
673.619	4938.51
673.809	4852.49
674	4930.31
674.191	4971.27
674.382	4825.87
674.573	4889.35
674.764	4868.88
674.954	5018.38
675.145	4821.77
675.336	4782.86
675.527	4793.1
675.717	4885.26
675.908	4868.88
676.099	4776.72
676.289	4795.15
676.48	4754.19
676.671	4682.51
676.861	4754.19
677.052	4727.57
677.243	4639.5
677.433	4700.94
677.624	4668.17
677.814	4580.11
678.005	4555.54
678.195	4567.82
678.386	4608.78
678.576	4530.96
678.767	4590.35
678.957	4555.54
679.148	4512.53
679.338	4473.62
679.529	4516.62
679.719	4567.82
679.909	4522.77
680.1	4623.12
680.29	4389.65
680.481	4342.55
680.671	4363.03
680.861	4416.27
681.052	4408.08
681.242	4369.17
681.432	4410.13
681.622	4420.37
681.813	4225.81
682.003	4301.59
682.193	4281.11
682.383	4328.21
682.573	4240.15
682.764	4414.23
682.954	4287.25
683.144	4317.97
683.334	4262.68
683.524	4234
683.714	4250.39
683.904	4260.63
684.094	4252.44
684.284	4102.93
684.474	4281.11
684.664	4127.51
684.854	4107.03
685.044	4160.28
685.234	4041.5
685.424	4203.29
685.614	4084.5
685.804	4016.92
685.994	4272.92
686.184	4064.02
686.374	4098.84
686.564	4039.45
686.753	4066.07
686.943	3924.76
687.133	3949.34
687.323	3945.24
687.513	4008.73
687.702	3961.62
687.892	3951.39
688.082	3978.01
688.272	4035.35
688.461	4012.82
688.651	3797.79
688.841	3812.12
689.03	3832.6
689.22	3857.18
689.41	3779.36
689.599	3728.16
689.789	3803.93
689.979	3652.38
690.168	3814.17
690.358	3775.26
690.547	3715.87
690.737	3674.91
690.926	3713.82
691.116	3646.24
691.305	3627.81
691.495	3646.24
691.684	3592.99
691.874	3664.67
692.063	3617.57
692.252	3627.81
692.442	3515.17
692.631	3498.78
692.82	3646.24
693.01	3578.65
693.199	3525.41
693.388	3588.89
693.578	3619.61
693.767	3498.78
693.956	3502.88
694.146	3595.04
694.335	3482.4
694.524	3468.06
694.713	3459.87
694.902	3461.92
695.092	3433.25
695.281	3392.29
695.47	3494.69
695.659	3365.67
695.848	3283.75
696.037	3498.78
696.226	3447.58
696.415	3281.7
696.604	3345.19
696.793	3562.27
696.982	3359.52
697.171	3296.04
697.36	3408.67
697.549	3371.81
697.738	3365.67
697.927	3308.32
698.116	3445.54
698.305	3459.87
698.494	3355.43
698.683	3373.86
698.872	3277.6
699.061	3296.04
699.25	3312.42
699.438	3263.27
699.627	3306.27
699.816	3269.41
700.005	3253.03
700.193	3359.52
700.382	3302.18
700.571	3187.49
700.76	3267.36
700.948	3240.74
701.137	3259.17
701.326	3343.14
701.514	3216.16
701.703	3232.55
701.892	3250.98
702.08	3398.43
702.269	3230.5
702.457	3212.07
702.646	3246.88
702.834	3136.29
703.023	3347.23
703.212	3253.03
703.4	3187.49
703.589	3201.83
703.777	3203.88
703.965	3283.75
704.154	3265.32
704.342	3117.86
704.531	3195.68
704.719	3138.34
704.907	3183.4
705.096	3220.26
705.284	3167.01
705.472	3226.4
705.661	3126.05
705.849	3341.09
706.037	3232.55
706.226	3175.2
706.414	3205.92
706.602	3224.36
706.79	3140.39
706.979	3109.67
707.167	3105.57
707.355	3105.57
707.543	3164.97
707.731	3091.24
707.919	3160.87
708.107	3150.63
708.296	3107.62
708.484	3107.62
708.672	3081
708.86	3046.18
709.048	2984.74
709.236	3142.44
709.424	3128.1
709.612	3117.86
709.8	3113.77
709.988	2970.41
710.176	3183.4
710.364	3152.68
710.551	3119.91
710.739	3089.19
710.927	3124.01
711.115	3044.13
711.303	3050.28
711.491	2970.41
711.679	3023.66
711.866	3007.27
712.054	3154.73
712.242	2992.94
712.43	3060.52
712.617	2982.7
712.805	2968.36
712.993	2984.74
713.181	2925.35
713.368	3205.92
713.556	2947.88
713.744	3033.9
713.931	3058.47
714.119	3015.46
714.306	2962.22
714.494	3005.22
714.682	2941.74
714.869	2890.54
715.057	3070.76
715.244	2929.45
715.432	2949.93
715.619	2958.12
715.807	2956.07
715.994	2917.16
716.182	2894.63
716.369	3017.51
716.556	2997.03
716.744	2915.11
716.931	2994.98
717.119	2919.21
717.306	2992.94
717.493	2997.03
717.681	2908.97
717.868	2861.87
718.055	2937.64
718.242	2968.36
718.43	2868.01
718.617	2853.67
718.804	2941.74
718.991	2810.67
719.179	2917.16
719.366	2818.86
719.553	2872.11
719.74	2968.36
719.927	2947.88
720.114	2890.54
720.301	2902.83
720.488	2849.58
720.676	2863.91
720.863	2806.57
721.05	2794.28
721.237	2915.11
721.424	2843.43
721.611	2913.06
721.798	2837.29
721.985	2884.39
722.172	2868.01
722.358	2779.95
722.545	2896.68
722.732	2761.52
722.919	3009.32
723.106	2851.63
723.293	2843.43
723.48	2855.72
723.667	2706.22
723.853	2806.57
724.04	2755.37
724.227	2738.99
724.414	2757.42
724.6	2702.12
724.787	2767.66
724.974	2720.56
725.161	2736.94
725.347	2730.8
725.534	2773.8
725.72	2714.41
725.907	2771.76
726.094	2700.08
726.28	2806.57
726.467	2708.27
726.653	2618.16
726.84	2689.84
727.027	2831.15
727.213	2695.98
727.4	2728.75
727.586	2730.8
727.773	2659.12
727.959	2743.08
728.145	2695.98
728.332	2689.84
728.518	2722.6
728.705	2784.04
728.891	2798.38
729.077	2755.37
729.264	2585.39
729.45	2593.58
729.636	2732.84
729.823	2693.93
730.009	2884.39
730.195	2675.5
730.382	2663.21
730.568	2751.28
730.754	2620.21
730.94	2587.44
731.126	2626.35
731.313	2792.23
731.499	2544.43
731.685	2607.92
731.871	2642.73
732.057	2638.64
732.243	2618.16
732.429	2597.68
732.615	2683.69
732.801	2548.53
732.987	2685.74
733.173	2687.79
733.359	2528.05
733.545	2550.57
733.731	2612.01
733.917	2589.49
734.103	2634.54
734.289	2603.82
734.475	2562.86
734.661	2632.49
734.847	2642.73
735.033	2622.25
735.219	2487.09
735.404	2712.36
735.59	2601.77
735.776	2536.24
735.962	2575.15
736.148	2663.21
736.333	2614.06
736.519	2521.9
736.705	2650.92
736.89	2528.05
737.076	2489.14
737.262	2497.33
737.447	2687.79
737.633	2538.29
737.819	2515.76
738.004	2462.51
738.19	2528.05
738.375	2437.94
738.561	2515.76
738.747	2515.76
738.932	2478.9
739.118	2573.1
739.303	2464.56
739.489	2437.94
739.674	2515.76
739.859	2448.18
740.045	2474.8
740.23	2388.78
740.416	2421.55
740.601	2366.26
740.786	2466.61
740.972	2364.21
741.157	2460.46
741.342	2370.35
741.528	2399.02
741.713	2450.22
741.898	2319.15
742.084	2335.54
742.269	2327.35
742.454	2245.43
742.639	2310.96
742.824	2321.2
743.01	2388.78
743.195	2265.91
743.38	2274.1
743.565	2247.48
743.75	2257.71
743.935	2255.67
744.12	2231.09
744.305	2167.6
744.49	2186.04
744.675	2239.28
744.86	2192.18
745.045	2267.95
745.23	2253.62
745.415	2165.56
745.6	2253.62
745.785	2188.08
745.97	2208.56
746.155	2167.6
746.34	2085.69
746.525	2177.84
746.71	2126.64
746.895	2165.56
747.079	2085.69
747.264	2120.5
747.449	2081.59
747.634	2102.07
747.819	2073.4
748.003	1971
748.188	2124.6
748.373	2011.96
748.557	1973.05
748.742	1921.85
748.927	2020.15
749.111	1887.03
749.296	1915.7
749.481	1817.4
749.665	1940.28
749.85	1997.62
750.034	1901.37
750.219	2001.72
750.404	1846.07
750.588	1798.97
750.773	1764.15
750.957	1827.64
751.141	1774.39
751.326	1805.11
751.51	1663.8
751.695	1841.98
751.879	1868.6
752.064	1811.26
752.248	1772.35
752.432	1786.68
752.617	1766.2
752.801	1739.58
752.985	1639.23
753.17	1735.48
753.354	1700.67
753.538	1606.46
753.722	1635.13
753.907	1583.93
754.091	1596.22
754.275	1622.84
754.459	1567.55
754.643	1559.36
754.828	1594.17
755.012	1631.04
755.196	1504.06
755.38	1571.65
755.564	1545.02
755.748	1549.12
755.932	1565.5
756.116	1495.87
756.3	1567.55
756.484	1463.1
756.668	1469.25
756.852	1387.33
757.036	1456.96
757.22	1475.39
757.404	1332.03
757.588	1340.22
757.772	1420.1
757.956	1336.13
758.14	1413.95
758.323	1362.75
758.507	1418.05
758.691	1323.84
758.875	1354.56
759.059	1338.18
759.242	1381.18
759.426	1401.66
759.61	1282.88
759.794	1387.33
759.977	1411.9
760.161	1280.83
760.345	1237.83
760.528	1325.89
760.712	1192.77
760.895	1334.08
761.079	1293.12
761.263	1203.01
761.446	1258.31
761.63	1094.47
761.813	1239.87
761.997	1262.4
762.18	1248.07
762.364	1133.38
762.547	1241.92
762.731	1227.59
762.914	1200.96
763.098	1182.53
763.281	1274.69
763.464	1190.72
763.648	1151.81
763.831	1178.44
764.015	1123.14
764.198	1125.19
764.381	1143.62
764.564	1151.81
764.748	1194.82
764.931	1209.15
765.114	1198.92
765.297	1090.37
765.481	1147.72
765.664	1184.58
765.847	1110.85
766.03	1178.44
766.213	979.78
766.397	996.17
766.58	1014.6
766.763	1080.13
766.946	1162.05
767.129	1073.99
767.312	1180.48
767.495	1104.71
767.678	1059.65
767.861	983.88
768.044	1020.74
768.227	1022.79
768.41	1108.8
768.593	1065.8
768.776	979.78
768.959	1102.66
769.142	1065.8
769.324	1082.18
769.507	1012.55
769.69	1055.56
769.873	1010.5
770.056	1073.99
770.239	1004.36
770.421	1037.13
770.604	965.45
770.787	998.21
770.97	944.97
771.152	877.38
771.335	920.39
771.518	934.73
771.7	973.64
771.883	1041.22
772.066	975.69
772.248	928.58
772.431	922.44
772.613	959.3
772.796	895.82
772.978	985.93
773.161	906.06
773.343	940.87
773.526	830.28
773.708	906.06
773.891	832.33
774.073	822.09
774.256	881.48
774.438	899.91
774.621	873.29
774.803	844.62
774.985	711.5
775.168	861
775.35	977.73
775.532	815.94
775.715	863.05
775.897	840.52
776.079	844.62
776.261	744.27
776.444	840.52
776.626	842.57
776.808	832.33
776.99	760.65
777.173	727.88
777.355	758.6
777.537	764.75
777.719	723.79
777.901	744.27
778.083	762.7
778.265	660.3
778.447	815.94
778.629	658.25
778.811	684.87
778.993	777.03
779.175	621.39
779.357	691.02
779.539	764.75
779.721	688.97
779.903	748.36
780.085	631.63
780.267	633.68
780.449	639.82
780.631	615.24
780.812	684.87
780.994	770.89
781.176	656.2
781.358	658.25
781.54	705.35
781.721	633.68
781.903	588.62
782.085	625.48
782.267	564.04
782.448	553.8
782.63	586.57
782.812	566.09
782.993	602.96
783.175	672.59
783.357	607.05
783.538	617.29
783.72	617.29
783.901	615.24
784.083	504.65
784.264	529.23
784.446	469.84
784.627	609.1
784.809	486.22
784.99	539.47
785.172	562
785.353	566.09
785.535	533.33
785.716	486.22
785.897	488.27
786.079	578.38
786.26	435.02
786.441	516.94
786.623	478.03
786.804	484.17
786.985	447.31
787.167	547.66
787.348	432.97
787.529	473.93
787.71	529.23
787.891	492.37
788.073	457.55
788.254	504.65
788.435	478.03
788.616	430.93
788.797	437.07
788.978	410.45
789.159	428.88
789.34	428.88
789.522	447.31
789.703	449.36
789.884	351.06
790.065	385.87
790.246	449.36
790.427	330.58
790.607	443.21
790.788	443.21
790.969	418.64
791.15	318.29
791.331	455.5
791.512	473.93
791.693	400.21
791.874	338.77
792.054	410.45
792.235	412.5
792.416	320.34
792.597	326.48
792.778	439.12
792.958	346.96
793.139	430.93
793.32	406.35
793.5	406.35
793.681	455.5
793.862	328.53
794.042	349.01
794.223	346.96
794.404	332.62
794.584	355.15
794.765	385.87
794.945	299.86
795.126	363.34
795.306	287.57
795.487	398.16
795.667	336.72
795.848	258.9
796.028	281.43
796.209	336.72
796.389	369.49
796.57	310.1
796.75	365.39
796.93	306
797.111	303.95
797.291	283.47
797.471	443.21
797.652	252.75
797.832	291.66
798.012	322.38
798.192	326.48
798.373	299.86
798.553	303.95
798.733	361.3
798.913	242.51
799.093	303.95
799.274	314.19
799.454	293.71
799.634	330.58
799.814	267.09
799.994	238.42
800.174	269.14
800.354	265.04
800.534	262.99
800.714	320.34
800.894	269.14
801.074	265.04
801.254	236.37
801.434	289.62
801.614	303.95
801.794	224.08
801.974	660.3
802.154	258.9
802.334	338.77
802.514	242.51
802.693	260.95
802.873	303.95
803.053	238.42
803.233	238.42
803.413	256.85
803.592	275.28
803.772	306
803.952	189.27
804.131	215.89
804.311	238.42
804.491	269.14
804.67	238.42
804.85	234.32
805.03	203.6
805.209	287.57
805.389	265.04
805.568	267.09
805.748	185.17
805.928	222.03
806.107	283.47
806.287	176.98
806.466	213.84
806.646	308.05
806.825	277.33
807.004	176.98
807.184	246.61
807.363	265.04
807.543	197.46
807.722	168.79
807.901	275.28
808.081	275.28
808.26	101.2
808.439	199.51
808.619	197.46
808.798	168.79
808.977	193.36
809.156	226.13
809.336	211.79
809.515	148.31
809.694	133.97
809.873	201.55
810.052	267.09
810.231	267.09
810.411	183.12
810.59	166.74
810.769	244.56
810.948	238.42
811.127	133.97
811.306	219.99
811.485	166.74
811.664	224.08
811.843	131.92
812.022	191.31
812.201	183.12
812.38	160.59
812.559	160.59
812.737	156.5
812.916	181.07
813.095	146.26
813.274	211.79
813.453	166.74
813.632	101.2
813.811	150.36
813.989	160.59
814.168	123.73
814.347	154.45
814.526	189.27
814.704	174.93
814.883	144.21
815.062	168.79
815.24	133.97
815.419	105.3
815.598	162.64
815.776	119.64
815.955	152.4
816.133	140.12
816.312	162.64
816.49	125.78
816.669	197.46
816.847	195.41
817.026	133.97
817.204	103.25
817.383	150.36
817.561	131.92
817.74	146.26
817.918	187.22
818.097	105.3
818.275	82.77
818.453	152.4
818.632	156.5
818.81	174.93
818.988	187.22
819.167	176.98
819.345	66.39
819.523	162.64
819.701	168.79
819.879	99.16
820.058	160.59
820.236	140.12
820.414	152.4
820.592	162.64
820.77	140.12
820.948	146.26
821.127	113.49
821.305	109.4
821.483	140.12
821.661	152.4
821.839	142.16
822.017	187.22
822.195	129.88
822.373	101.2
822.551	101.2
822.729	148.31
822.907	80.72
823.085	185.17
823.262	125.78
823.44	129.88
823.618	90.96
823.796	107.35
823.974	84.82
824.152	80.72
824.329	127.83
824.507	74.58
824.685	72.53
824.863	105.3
825.04	97.11
825.218	17.24
825.396	113.49
825.574	78.68
825.751	76.63
825.929	119.64
826.107	103.25
826.284	103.25
826.462	150.36
826.639	47.96
826.817	56.15
826.994	179.03
827.172	66.39
827.349	129.88
827.527	123.73
827.704	127.83
827.882	90.96
828.059	78.68
828.237	56.15
828.414	86.87
828.591	64.34
828.769	86.87
828.946	66.39
829.124	84.82
829.301	191.31
829.478	97.11
829.655	105.3
829.833	121.68
830.01	50
830.187	117.59
830.364	58.2
830.542	70.48
830.719	21.33
830.896	142.16
831.073	144.21
831.25	107.35
831.427	78.68
831.604	125.78
831.782	64.34
831.959	107.35
832.136	54.1
832.313	150.36
832.49	136.02
832.667	93.01
832.844	105.3
833.021	76.63
833.198	78.68
833.374	70.48
833.551	144.21
833.728	101.2
833.905	144.21
834.082	60.24
834.259	66.39
834.436	21.33
834.612	99.16
834.789	115.54
834.966	105.3
835.143	148.31
835.319	80.72
835.496	121.68
835.673	56.15
835.85	54.1
836.026	117.59
836.203	121.68
836.38	50
836.556	101.2
836.733	66.39
836.909	144.21
837.086	9.05
837.262	37.72
837.439	60.24
837.616	15.19
837.792	109.4
837.968	68.44
838.145	39.76
838.321	152.4
838.498	117.59
838.674	90.96
838.851	76.63
839.027	66.39
839.203	66.39
839.38	72.53
839.556	72.53
839.732	109.4
839.909	82.77
840.085	52.05
840.261	21.33
840.437	76.63
840.614	68.44
840.79	41.81
840.966	93.01
841.142	15.19
841.318	72.53
841.494	54.1
841.671	68.44
841.847	58.2
842.023	131.92
842.199	84.82
842.375	90.96
842.551	43.86
842.727	13.14
842.903	80.72
843.079	56.15
843.255	115.54
843.431	56.15
843.607	62.29
843.783	105.3
843.959	107.35
844.134	45.91
844.31	62.29
844.486	66.39
844.662	74.58
844.838	-1.19
845.013	29.52
845.189	45.91
845.365	35.67
845.541	107.35
845.716	54.1
845.892	35.67
846.068	9.05
846.244	82.77
846.419	21.33
846.595	17.24
846.77	31.57
846.946	37.72
847.122	27.48
847.297	-44.2
847.473	105.3
847.648	31.57
847.824	80.72
847.999	39.76
848.175	-11.43
848.35	0.85
848.526	103.25
848.701	19.29
848.876	21.33
849.052	86.87
849.227	9.05
849.403	17.24
849.578	76.63
849.753	80.72
849.929	90.96
850.104	21.33
850.279	35.67
850.454	4.95
850.63	170.83
850.805	41.81
850.98	70.48
851.155	97.11
851.33	101.2
851.505	70.48
851.681	62.29
851.856	-1.19
852.031	25.43
852.206	-11.43
852.381	-50.35
852.556	-27.82
852.731	99.16
852.906	99.16
853.081	17.24
853.256	97.11
853.431	13.14
853.606	119.64
853.781	11.09
853.956	-11.43
854.131	68.44
854.305	-25.77
854.48	11.09
854.655	41.81
854.83	27.48
855.005	29.52
855.18	-7.34
855.354	4.95
855.529	45.91
855.704	11.09
855.879	43.86
856.053	2.9
856.228	52.05
856.403	-54.44
856.577	72.53
856.752	39.76
856.926	99.16
857.101	39.76
857.276	56.15
857.45	-68.78
857.625	27.48
857.799	35.67
857.974	97.11
858.148	76.63
858.323	41.81
858.497	37.72
858.672	11.09
858.846	-3.24
859.02	56.15
859.195	-1.19
859.369	0.85
859.543	80.72
859.718	56.15
859.892	60.24
860.066	-21.67
860.241	31.57
860.415	-21.67
860.589	33.62
860.763	82.77
860.938	56.15
861.112	19.29
861.286	-3.24
861.46	-27.82
861.634	4.95
861.808	41.81
861.982	41.81
862.157	13.14
862.331	-29.87
862.505	-33.96
862.679	52.05
862.853	64.34
863.027	72.53
863.201	56.15
863.375	7
863.549	68.44
863.722	41.81
863.896	33.62
864.07	35.67
864.244	9.05
864.418	45.91
864.592	21.33
864.766	35.67
864.939	58.2
865.113	-36.01
865.287	52.05
865.461	-17.58
865.634	-7.34
865.808	-44.2
865.982	54.1
866.156	-15.53
866.329	-7.34
866.503	-21.67
866.676	58.2
866.85	95.06
867.024	11.09
867.197	21.33
867.371	13.14
867.544	68.44
867.718	2.9
867.891	0.85
868.065	41.81
868.238	54.1
868.412	84.82
868.585	-89.26
868.759	-19.63
868.932	-42.15
869.105	15.19
869.279	54.1
869.452	37.72
869.625	47.96
869.799	7
869.972	19.29
870.145	13.14
870.319	21.33
870.492	35.67
870.665	35.67
870.838	15.19
871.011	-76.97
871.185	9.05
871.358	-29.87
871.531	35.67
871.704	15.19
871.877	-36.01
872.05	19.29
872.223	29.52
872.396	23.38
872.569	21.33
872.742	-3.24
872.915	33.62
873.088	-36.01
873.261	41.81
873.434	2.9
873.607	54.1
873.78	93.01
873.953	23.38
874.126	29.52
874.299	15.19
874.471	21.33
874.644	41.81
874.817	27.48
874.99	45.91
875.163	19.29
875.335	-46.25
875.508	-13.48
875.681	74.58
875.853	25.43
876.026	41.81
876.199	-1.19
876.371	86.87
876.544	115.54
876.717	-3.24
876.889	-3.24
877.062	39.76
877.234	-33.96
877.407	-21.67
877.579	-17.58
877.752	64.34
877.924	-19.63
878.097	21.33
878.269	4.95
878.442	41.81
878.614	7
878.786	50
878.959	-21.67
879.131	35.67
879.303	-11.43
879.476	99.16
879.648	52.05
879.82	101.2
879.993	35.67
880.165	50
880.337	-9.39
880.509	109.4
880.681	-44.2
880.854	47.96
881.026	-44.2
881.198	23.38
881.37	-44.2
881.542	-7.34
881.714	7
881.886	-1.19
882.058	-19.63
882.23	-9.39
882.402	-7.34
882.574	21.33
882.746	-38.06
882.918	-36.01
883.09	4.95
883.262	43.86
883.434	0.85
883.606	13.14
883.778	52.05
883.95	31.57
884.122	4.95
884.293	43.86
884.465	7
884.637	25.43
884.809	-36.01
884.98	4.95
885.152	33.62
885.324	35.67
885.496	37.72
885.667	45.91
885.839	-7.34
886.011	52.05
886.182	-1.19
886.354	17.24
886.525	29.52
886.697	-17.58
886.869	2.9
887.04	-19.63
887.212	50
887.383	31.57
887.555	-38.06
887.726	-15.53
887.897	13.14
888.069	-44.2
888.24	-17.58
888.412	33.62
888.583	-31.91
888.754	58.2
888.926	17.24
889.097	-25.77
889.268	-13.48
889.44	-17.58
889.611	54.1
889.782	21.33
889.953	-48.3
890.125	47.96
890.296	62.29
890.467	-9.39
890.638	-19.63
890.809	31.57
890.98	-58.54
891.151	29.52
891.323	-68.78
891.494	31.57
891.665	37.72
891.836	-9.39
892.007	-17.58
892.178	52.05
892.349	-1.19
892.52	-23.72
892.691	43.86
892.862	41.81
893.032	-5.29
893.203	-7.34
893.374	37.72
893.545	103.25
893.716	11.09
893.887	11.09
894.057	62.29
894.228	-5.29
894.399	-15.53
894.57	2.9
894.74	-46.25
894.911	-25.77
895.082	-21.67
895.253	-5.29
895.423	41.81
895.594	29.52
895.764	-70.83
895.935	-1.19
896.106	19.29
896.276	-56.49
896.447	4.95
896.617	-13.48
896.788	62.29
896.958	19.29
897.129	-46.25
897.299	11.09
897.47	90.96
897.64	-36.01
897.81	-3.24
897.981	-27.82
898.151	-56.49
898.322	76.63
898.492	-5.29
898.662	-33.96
898.832	-19.63
899.003	0.85
899.173	23.38
899.343	23.38
899.513	-29.87
