Data from USB4F104151__283__11-12-54-501.txt Node

Date: Wed Mar 12 11:12:54 EDT 2025
User: louis
Spectrometer: USB4F10415
Trigger mode: 4
Integration Time (sec): 2.000000E-2
Scans to average: 1
Electric dark correction enabled: true
Nonlinearity correction enabled: false
Boxcar width: 0
XAxis mode: Wavelengths
Number of Pixels in Spectrum: 3648
>>>>>Begin Spectral Data<<<<<
178.204	-187.9
178.424	-187.9
178.644	-187.9
178.864	-73.21
179.084	-65.02
179.304	-24.06
179.524	2.56
179.744	-9.73
179.964	25.09
180.184	23.04
180.404	86.53
180.624	31.23
180.844	20.99
181.064	-56.83
181.283	-58.88
181.503	-58.88
181.723	18.94
181.943	-44.54
182.163	-30.21
182.383	78.33
182.602	82.43
182.822	53.76
183.042	0.51
183.262	-5.63
183.482	10.75
183.701	14.85
183.921	18.94
184.141	55.81
184.361	8.7
184.58	12.8
184.8	84.48
185.02	-32.26
185.239	31.23
185.459	-46.59
185.679	10.75
185.898	0.51
186.118	39.42
186.338	-19.97
186.557	20.99
186.777	-1.54
186.997	-36.35
187.216	-3.58
187.436	4.61
187.655	0.51
187.875	14.85
188.095	33.28
188.314	-7.68
188.534	-52.74
188.753	12.8
188.973	25.09
189.192	68.09
189.412	31.23
189.631	-1.54
189.851	33.28
190.07	59.9
190.29	55.81
190.509	-7.68
190.729	57.86
190.948	55.81
191.168	100.86
191.387	27.14
191.607	-36.35
191.826	6.66
192.045	45.57
192.265	86.53
192.484	-5.63
192.704	-24.06
192.923	8.7
193.142	41.47
193.362	16.9
193.581	14.85
193.8	18.94
194.02	-5.63
194.239	37.38
194.458	47.62
194.678	59.9
194.897	-1.54
195.116	-11.78
195.335	37.38
195.555	-1.54
195.774	29.18
195.993	-11.78
196.212	47.62
196.432	10.75
196.651	14.85
196.87	31.23
197.089	33.28
197.308	31.23
197.528	49.66
197.747	55.81
197.966	-17.92
198.185	37.38
198.404	-34.3
198.623	16.9
198.842	-13.82
199.062	41.47
199.281	88.57
199.5	12.8
199.719	10.75
199.938	14.85
200.157	8.7
200.376	18.94
200.595	84.48
200.814	74.24
201.033	37.38
201.252	-24.06
201.471	-19.97
201.69	74.24
201.909	-3.58
202.128	-42.5
202.347	-19.97
202.566	-11.78
202.785	53.76
203.004	57.86
203.223	45.57
203.442	2.56
203.661	18.94
203.879	41.47
204.098	35.33
204.317	29.18
204.536	-36.35
204.755	29.18
204.974	57.86
205.193	139.77
205.411	29.18
205.63	-19.97
205.849	100.86
206.068	23.04
206.287	39.42
206.505	39.42
206.724	-65.02
206.943	49.66
207.162	-34.3
207.381	-9.73
207.599	6.66
207.818	-3.58
208.037	-50.69
208.255	53.76
208.474	35.33
208.693	25.09
208.911	12.8
209.13	-17.92
209.349	18.94
209.567	107.01
209.786	45.57
210.005	33.28
210.223	53.76
210.442	-44.54
210.661	41.47
210.879	14.85
211.098	-32.26
211.316	39.42
211.535	86.53
211.753	-28.16
211.972	-38.4
212.191	88.57
212.409	25.09
212.628	0.51
212.846	20.99
213.065	-26.11
213.283	64
213.502	-1.54
213.72	37.38
213.938	68.09
214.157	-15.87
214.375	-13.82
214.594	14.85
214.812	6.66
215.031	90.62
215.249	14.85
215.467	33.28
215.686	-24.06
215.904	41.47
216.122	45.57
216.341	96.77
216.559	12.8
216.778	68.09
216.996	33.28
217.214	-13.82
217.432	27.14
217.651	-81.41
217.869	39.42
218.087	16.9
218.306	-19.97
218.524	61.95
218.742	47.62
218.96	29.18
219.179	20.99
219.397	39.42
219.615	-1.54
219.833	-19.97
220.051	8.7
220.27	72.19
220.488	-28.16
220.706	-5.63
220.924	-9.73
221.142	39.42
221.36	-46.59
221.578	-13.82
221.796	-5.63
222.015	-34.3
222.233	-22.02
222.451	64
222.669	14.85
222.887	98.81
223.105	12.8
223.323	78.33
223.541	25.09
223.759	23.04
223.977	-7.68
224.195	98.81
224.413	27.14
224.631	43.52
224.849	-40.45
225.067	100.86
225.285	0.51
225.503	-17.92
225.721	47.62
225.939	-30.21
226.157	53.76
226.375	137.73
226.592	-28.16
226.81	-11.78
227.028	86.53
227.246	10.75
227.464	33.28
227.682	70.14
227.9	-69.12
228.117	96.77
228.335	12.8
228.553	25.09
228.771	-1.54
228.989	-52.74
229.206	-46.59
229.424	31.23
229.642	23.04
229.86	10.75
230.077	33.28
230.295	51.71
230.513	37.38
230.731	-17.92
230.948	31.23
231.166	37.38
231.384	-32.26
231.601	55.81
231.819	-7.68
232.037	43.52
232.254	31.23
232.472	59.9
232.689	29.18
232.907	33.28
233.125	57.86
233.342	119.29
233.56	-5.63
233.777	12.8
233.995	23.04
234.213	-62.98
234.43	76.29
234.648	14.85
234.865	41.47
235.083	-28.16
235.3	-44.54
235.518	16.9
235.735	23.04
235.953	88.57
236.17	0.51
236.388	27.14
236.605	-19.97
236.822	16.9
237.04	-77.31
237.257	16.9
237.475	66.05
237.692	49.66
237.909	31.23
238.127	-7.68
238.344	-50.69
238.562	-22.02
238.779	-3.58
238.996	-7.68
239.214	-36.35
239.431	12.8
239.648	12.8
239.865	29.18
240.083	-42.5
240.3	-19.97
240.517	61.95
240.735	-24.06
240.952	-9.73
241.169	94.72
241.386	0.51
241.603	31.23
241.821	-62.98
242.038	8.7
242.255	-22.02
242.472	80.38
242.689	-32.26
242.907	51.71
243.124	41.47
243.341	0.51
243.558	37.38
243.775	39.42
243.992	-17.92
244.209	66.05
244.426	-11.78
244.643	117.25
244.86	-7.68
245.078	-22.02
245.295	-15.87
245.512	-11.78
245.729	2.56
245.946	55.81
246.163	49.66
246.38	12.8
246.597	-1.54
246.814	-11.78
247.031	-19.97
247.248	43.52
247.464	59.9
247.681	55.81
247.898	53.76
248.115	-26.11
248.332	35.33
248.549	16.9
248.766	-15.87
248.983	39.42
249.2	41.47
249.417	88.57
249.633	-40.45
249.85	-15.87
250.067	57.86
250.284	47.62
250.501	82.43
250.717	27.14
250.934	-11.78
251.151	-40.45
251.368	8.7
251.585	-28.16
251.801	37.38
252.018	23.04
252.235	33.28
252.451	-34.3
252.668	-71.17
252.885	-22.02
253.102	-24.06
253.318	-5.63
253.535	-77.31
253.752	-13.82
253.968	-5.63
254.185	-9.73
254.401	14.85
254.618	94.72
254.835	37.38
255.051	59.9
255.268	-17.92
255.484	18.94
255.701	33.28
255.917	129.53
256.134	70.14
256.351	12.8
256.567	55.81
256.784	119.29
257	0.51
257.217	74.24
257.433	25.09
257.65	31.23
257.866	18.94
258.082	55.81
258.299	31.23
258.515	70.14
258.732	-65.02
258.948	-3.58
259.165	29.18
259.381	-73.21
259.597	86.53
259.814	-32.26
260.03	23.04
260.246	37.38
260.463	104.96
260.679	35.33
260.895	68.09
261.112	-5.63
261.328	33.28
261.544	-1.54
261.761	123.39
261.977	20.99
262.193	20.99
262.409	64
262.626	31.23
262.842	6.66
263.058	-22.02
263.274	-15.87
263.49	33.28
263.707	33.28
263.923	-7.68
264.139	-11.78
264.355	-7.68
264.571	-13.82
264.787	133.63
265.004	45.57
265.22	68.09
265.436	47.62
265.652	-26.11
265.868	41.47
266.084	6.66
266.3	16.9
266.516	-50.69
266.732	33.28
266.948	72.19
267.164	-17.92
267.38	-11.78
267.596	-7.68
267.812	33.28
268.028	10.75
268.244	12.8
268.46	23.04
268.676	-3.58
268.892	102.91
269.108	0.51
269.324	16.9
269.54	12.8
269.756	-1.54
269.972	4.61
270.188	-22.02
270.403	14.85
270.619	47.62
270.835	-7.68
271.051	41.47
271.267	66.05
271.483	35.33
271.698	78.33
271.914	29.18
272.13	49.66
272.346	16.9
272.562	18.94
272.777	-3.58
272.993	45.57
273.209	14.85
273.425	57.86
273.64	47.62
273.856	45.57
274.072	-32.26
274.287	-22.02
274.503	70.14
274.719	35.33
274.934	0.51
275.15	72.19
275.366	-34.3
275.581	23.04
275.797	23.04
276.012	18.94
276.228	35.33
276.444	-75.26
276.659	31.23
276.875	53.76
277.09	61.95
277.306	-50.69
277.521	16.9
277.737	-7.68
277.952	90.62
278.168	68.09
278.383	20.99
278.599	84.48
278.814	47.62
279.03	10.75
279.245	-17.92
279.461	6.66
279.676	10.75
279.892	-3.58
280.107	-36.35
280.322	6.66
280.538	31.23
280.753	27.14
280.969	27.14
281.184	-40.45
281.399	100.86
281.615	-26.11
281.83	16.9
282.045	10.75
282.26	-15.87
282.476	82.43
282.691	100.86
282.906	55.81
283.122	0.51
283.337	66.05
283.552	78.33
283.767	-15.87
283.983	2.56
284.198	10.75
284.413	20.99
284.628	-54.78
284.843	18.94
285.058	-1.54
285.274	-15.87
285.489	10.75
285.704	41.47
285.919	10.75
286.134	82.43
286.349	78.33
286.564	39.42
286.779	16.9
286.995	53.76
287.21	27.14
287.425	78.33
287.64	33.28
287.855	12.8
288.07	-1.54
288.285	43.52
288.5	74.24
288.715	20.99
288.93	0.51
289.145	74.24
289.36	59.9
289.575	29.18
289.79	49.66
290.004	0.51
290.219	-24.06
290.434	-1.54
290.649	6.66
290.864	-9.73
291.079	35.33
291.294	47.62
291.509	31.23
291.724	-13.82
291.938	59.9
292.153	43.52
292.368	25.09
292.583	68.09
292.798	16.9
293.012	57.86
293.227	59.9
293.442	39.42
293.657	-9.73
293.871	10.75
294.086	-40.45
294.301	-28.16
294.516	88.57
294.73	23.04
294.945	-17.92
295.16	49.66
295.374	4.61
295.589	41.47
295.804	-15.87
296.018	47.62
296.233	-3.58
296.447	-13.82
296.662	47.62
296.877	16.9
297.091	66.05
297.306	31.23
297.52	51.71
297.735	66.05
297.949	117.25
298.164	41.47
298.378	-5.63
298.593	-36.35
298.807	2.56
299.022	2.56
299.236	12.8
299.451	53.76
299.665	8.7
299.88	23.04
300.094	25.09
300.309	68.09
300.523	59.9
300.737	0.51
300.952	23.04
301.166	45.57
301.381	43.52
301.595	16.9
301.809	20.99
302.024	53.76
302.238	-7.68
302.452	74.24
302.667	8.7
302.881	82.43
303.095	10.75
303.309	41.47
303.524	-9.73
303.738	-28.16
303.952	43.52
304.166	6.66
304.381	53.76
304.595	20.99
304.809	47.62
305.023	82.43
305.237	45.57
305.452	-13.82
305.666	6.66
305.88	66.05
306.094	74.24
306.308	20.99
306.522	45.57
306.736	-11.78
306.95	20.99
307.164	43.52
307.379	29.18
307.593	70.14
307.807	66.05
308.021	27.14
308.235	-36.35
308.449	14.85
308.663	-71.17
308.877	57.86
309.091	41.47
309.305	-7.68
309.519	6.66
309.733	31.23
309.947	55.81
310.161	2.56
310.374	8.7
310.588	31.23
310.802	-26.11
311.016	33.28
311.23	82.43
311.444	-69.12
311.658	33.28
311.872	78.33
312.085	35.33
312.299	61.95
312.513	20.99
312.727	8.7
312.941	18.94
313.154	4.61
313.368	100.86
313.582	55.81
313.796	78.33
314.009	66.05
314.223	84.48
314.437	35.33
314.651	12.8
314.864	51.71
315.078	-11.78
315.292	-9.73
315.505	76.29
315.719	14.85
315.933	86.53
316.146	12.8
316.36	-28.16
316.573	27.14
316.787	14.85
317.001	66.05
317.214	-7.68
317.428	-9.73
317.641	-7.68
317.855	70.14
318.068	6.66
318.282	92.67
318.495	43.52
318.709	20.99
318.922	74.24
319.136	72.19
319.349	70.14
319.563	20.99
319.776	33.28
319.99	-24.06
320.203	49.66
320.417	12.8
320.63	23.04
320.843	121.34
321.057	82.43
321.27	14.85
321.483	49.66
321.697	-5.63
321.91	70.14
322.124	49.66
322.337	-22.02
322.55	35.33
322.763	59.9
322.977	-15.87
323.19	-28.16
323.403	-1.54
323.617	-7.68
323.83	49.66
324.043	41.47
324.256	18.94
324.469	80.38
324.683	51.71
324.896	-5.63
325.109	59.9
325.322	-9.73
325.535	39.42
325.748	12.8
325.962	35.33
326.175	31.23
326.388	35.33
326.601	66.05
326.814	68.09
327.027	117.25
327.24	-1.54
327.453	-30.21
327.666	76.29
327.879	143.87
328.092	70.14
328.305	-15.87
328.518	82.43
328.731	10.75
328.944	23.04
329.157	80.38
329.37	41.47
329.583	98.81
329.796	94.72
330.009	20.99
330.222	47.62
330.435	8.7
330.648	43.52
330.861	10.75
331.073	-3.58
331.286	33.28
331.499	59.9
331.712	-28.16
331.925	41.47
332.138	47.62
332.35	49.66
332.563	20.99
332.776	16.9
332.989	23.04
333.202	45.57
333.414	88.57
333.627	29.18
333.84	29.18
334.053	53.76
334.265	41.47
334.478	20.99
334.691	-34.3
334.903	16.9
335.116	12.8
335.329	68.09
335.541	45.57
335.754	31.23
335.966	27.14
336.179	0.51
336.392	14.85
336.604	6.66
336.817	98.81
337.029	49.66
337.242	18.94
337.454	64
337.667	16.9
337.88	61.95
338.092	-15.87
338.305	-17.92
338.517	0.51
338.729	100.86
338.942	35.33
339.154	23.04
339.367	39.42
339.579	20.99
339.792	12.8
340.004	66.05
340.217	68.09
340.429	-1.54
340.641	55.81
340.854	33.28
341.066	-44.54
341.278	135.68
341.491	96.77
341.703	47.62
341.915	53.76
342.128	37.38
342.34	76.29
342.552	35.33
342.764	-22.02
342.977	51.71
343.189	-28.16
343.401	33.28
343.613	-32.26
343.826	14.85
344.038	35.33
344.25	66.05
344.462	-11.78
344.674	-1.54
344.886	10.75
345.099	-36.35
345.311	-5.63
345.523	14.85
345.735	35.33
345.947	33.28
346.159	-9.73
346.371	31.23
346.583	64
346.795	98.81
347.007	8.7
347.219	74.24
347.431	45.57
347.643	113.15
347.855	10.75
348.067	123.39
348.279	20.99
348.491	45.57
348.703	-15.87
348.915	23.04
349.127	100.86
349.339	37.38
349.551	-46.59
349.763	51.71
349.975	16.9
350.187	92.67
350.399	86.53
350.61	98.81
350.822	57.86
351.034	111.1
351.246	53.76
351.458	14.85
351.669	41.47
351.881	82.43
352.093	25.09
352.305	0.51
352.517	90.62
352.728	4.61
352.94	12.8
353.152	45.57
353.363	25.09
353.575	6.66
353.787	55.81
353.999	-19.97
354.21	76.29
354.422	51.71
354.633	84.48
354.845	-9.73
355.057	-13.82
355.268	8.7
355.48	16.9
355.692	109.05
355.903	29.18
356.115	23.04
356.326	-26.11
356.538	88.57
356.749	98.81
356.961	35.33
357.172	43.52
357.384	100.86
357.595	94.72
357.807	-28.16
358.018	37.38
358.23	74.24
358.441	47.62
358.653	47.62
358.864	33.28
359.075	53.76
359.287	20.99
359.498	90.62
359.709	-3.58
359.921	86.53
360.132	57.86
360.344	47.62
360.555	-19.97
360.766	8.7
360.977	0.51
361.189	27.14
361.4	37.38
361.611	61.95
361.823	12.8
362.034	35.33
362.245	14.85
362.456	59.9
362.667	29.18
362.879	51.71
363.09	109.05
363.301	16.9
363.512	74.24
363.723	-13.82
363.935	74.24
364.146	41.47
364.357	6.66
364.568	16.9
364.779	2.56
364.99	51.71
365.201	27.14
365.412	82.43
365.623	74.24
365.834	119.29
366.045	41.47
366.256	39.42
366.467	8.7
366.678	35.33
366.889	25.09
367.1	35.33
367.311	98.81
367.522	-24.06
367.733	88.57
367.944	45.57
368.155	6.66
368.366	115.2
368.577	86.53
368.788	127.49
368.999	6.66
369.209	-15.87
369.42	117.25
369.631	150.01
369.842	74.24
370.053	4.61
370.264	80.38
370.474	12.8
370.685	25.09
370.896	82.43
371.107	74.24
371.317	129.53
371.528	16.9
371.739	51.71
371.95	-9.73
372.16	47.62
372.371	-15.87
372.582	68.09
372.792	80.38
373.003	4.61
373.214	82.43
373.424	23.04
373.635	61.95
373.846	86.53
374.056	35.33
374.267	68.09
374.477	16.9
374.688	135.68
374.898	49.66
375.109	-3.58
375.319	76.29
375.53	64
375.74	-1.54
375.951	33.28
376.161	41.47
376.372	70.14
376.582	49.66
376.793	107.01
377.003	-19.97
377.214	64
377.424	-32.26
377.635	53.76
377.845	64
378.055	57.86
378.266	70.14
378.476	115.2
378.686	53.76
378.897	55.81
379.107	25.09
379.317	10.75
379.528	-7.68
379.738	41.47
379.948	47.62
380.158	-17.92
380.369	41.47
380.579	-1.54
380.789	-9.73
380.999	68.09
381.21	25.09
381.42	59.9
381.63	12.8
381.84	41.47
382.05	45.57
382.261	10.75
382.471	51.71
382.681	51.71
382.891	41.47
383.101	90.62
383.311	55.81
383.521	51.71
383.731	12.8
383.941	20.99
384.151	23.04
384.361	33.28
384.571	64
384.781	86.53
384.991	139.77
385.201	-26.11
385.411	84.48
385.621	45.57
385.831	92.67
386.041	39.42
386.251	64
386.461	160.25
386.671	23.04
386.881	78.33
387.091	27.14
387.301	76.29
387.511	86.53
387.72	70.14
387.93	59.9
388.14	72.19
388.35	14.85
388.56	41.47
388.769	31.23
388.979	66.05
389.189	59.9
389.399	-5.63
389.609	76.29
389.818	57.86
390.028	64
390.238	104.96
390.447	6.66
390.657	78.33
390.867	55.81
391.076	4.61
391.286	66.05
391.496	45.57
391.705	25.09
391.915	88.57
392.125	70.14
392.334	115.2
392.544	94.72
392.753	98.81
392.963	25.09
393.172	47.62
393.382	37.38
393.591	57.86
393.801	41.47
394.01	111.1
394.22	61.95
394.429	51.71
394.639	20.99
394.848	94.72
395.058	76.29
395.267	41.47
395.477	76.29
395.686	74.24
395.895	80.38
396.105	152.06
396.314	115.2
396.524	109.05
396.733	29.18
396.942	139.77
397.152	125.44
397.361	184.83
397.57	92.67
397.78	131.58
397.989	92.67
398.198	109.05
398.407	80.38
398.617	139.77
398.826	33.28
399.035	135.68
399.244	115.2
399.453	92.67
399.663	117.25
399.872	147.97
400.081	53.76
400.29	84.48
400.499	14.85
400.708	180.73
400.917	80.38
401.127	133.63
401.336	111.1
401.545	127.49
401.754	121.34
401.963	147.97
402.172	86.53
402.381	49.66
402.59	49.66
402.799	119.29
403.008	86.53
403.217	119.29
403.426	115.2
403.635	129.53
403.844	111.1
404.053	137.73
404.262	76.29
404.471	160.25
404.68	135.68
404.888	131.58
405.097	88.57
405.306	150.01
405.515	88.57
405.724	129.53
405.933	147.97
406.142	203.26
406.35	121.34
406.559	174.59
406.768	164.35
406.977	215.55
407.185	199.16
407.394	168.45
407.603	164.35
407.812	127.49
408.02	274.94
408.229	250.36
408.438	223.74
408.646	242.17
408.855	287.23
409.064	338.43
409.272	322.04
409.481	289.28
409.69	301.56
409.898	256.51
410.107	295.42
410.315	377.34
410.524	236.03
410.733	248.32
410.941	352.76
411.15	397.82
411.358	424.44
411.567	465.4
411.775	381.43
411.984	496.12
412.192	526.84
412.401	432.63
412.609	528.89
412.818	541.18
413.026	492.02
413.234	498.17
413.443	442.87
413.651	610.81
413.86	567.8
414.068	584.18
414.276	664.05
414.485	614.9
414.693	682.49
414.901	713.21
415.11	733.68
415.318	733.68
415.526	715.25
415.734	829.94
415.943	793.08
416.151	825.84
416.359	696.82
416.567	930.29
416.776	813.56
416.984	952.82
417.192	1049.07
417.4	1010.16
417.608	1053.17
417.817	961.01
418.025	1104.37
418.233	1212.91
418.441	1223.15
418.649	1262.06
418.857	1368.56
419.065	1380.84
419.273	1335.79
419.481	1356.27
419.689	1481.19
419.897	1483.24
420.105	1556.97
420.313	1614.31
420.521	1661.41
420.729	1671.65
420.937	1796.58
421.145	1868.26
421.353	1878.5
421.561	2089.44
421.769	1962.47
421.977	2019.81
422.185	2173.41
422.393	2212.32
422.601	2296.28
422.809	2421.21
423.017	2318.81
423.224	2445.79
423.432	2539.99
423.64	2501.08
423.848	2886.1
424.056	2738.65
424.263	2918.87
424.471	3019.22
424.679	3025.36
424.887	3187.15
425.094	3248.59
425.302	3338.7
425.51	3396.04
425.718	3457.48
425.925	3635.66
426.133	3563.98
426.341	3934.66
426.548	4004.29
426.756	4118.98
426.964	4182.46
427.171	4260.29
427.379	4446.65
427.586	4536.76
427.794	4504
428.001	4790.71
428.209	5022.13
428.417	4940.21
428.624	5556.65
428.832	5304.75
429.039	5243.31
429.247	5323.18
429.454	5765.54
429.662	6185.38
429.869	5605.8
430.076	6302.11
430.284	6058.4
430.491	6484.38
430.699	6601.12
430.906	6607.26
431.114	6773.14
431.321	7059.86
431.528	7278.99
431.736	7563.66
431.943	7938.44
432.15	7682.44
432.358	7926.15
432.565	8206.72
432.772	8223.11
432.979	8544.64
433.187	8796.54
433.394	8927.61
433.601	9421.17
433.808	9267.57
434.016	9406.83
434.223	9853.29
434.43	10504.54
434.637	10164.58
434.844	10936.67
435.052	11112.79
435.259	11133.27
435.466	11127.13
435.673	11006.3
435.88	11927.88
436.087	12175.69
436.294	12566.85
436.501	12288.32
436.708	12169.54
436.915	12431.68
437.122	13326.64
437.329	13261.11
437.537	13601.07
437.743	13726
437.95	13949.23
438.157	14364.96
438.364	14858.53
438.571	14848.29
438.778	14862.62
438.985	16384.26
439.192	15728.91
439.399	16136.46
439.606	15884.56
439.813	16822.53
440.02	17801.46
440.227	17496.31
440.433	17344.76
440.64	17821.94
440.847	17850.61
441.054	18061.55
441.261	19390.68
441.467	19376.34
441.674	19527.89
441.881	20156.62
442.088	20289.74
442.294	19855.57
442.501	20535.49
442.708	20791.49
442.914	21846.19
443.121	22507.69
443.328	22020.27
443.534	23478.43
443.741	23175.33
443.948	22638.76
444.154	24357
444.361	24027.28
444.568	24273.04
444.774	24307.85
444.981	24666.25
445.187	25229.44
445.394	26302.57
445.6	25847.93
445.807	28461.13
446.013	27410.53
446.22	27783.26
446.426	28549.2
446.633	29042.76
446.839	30076.98
447.046	28678.22
447.252	30523.44
447.459	30418.99
447.665	30011.45
447.871	31662.11
448.078	32849.93
448.284	31528.99
448.491	32376.85
448.697	33376.26
448.903	34158.58
449.11	34156.53
449.316	33423.36
449.522	34467.83
449.728	34973.67
449.935	35479.52
450.141	34904.04
450.347	36083.67
450.553	35129.32
450.76	35385.32
450.966	36427.73
451.172	36022.23
451.378	37152.71
451.584	36159.45
451.791	36759.5
451.997	37208.01
452.203	37461.96
452.409	37341.13
452.615	37314.5
452.821	35827.68
453.027	35688.42
453.233	37296.07
453.44	35751.9
453.646	36110.3
453.852	36628.43
454.058	37205.96
454.264	35743.71
454.47	36917.2
454.676	35725.28
454.882	36800.46
455.088	33554.43
455.294	34260.98
455.5	34891.76
455.705	35370.98
455.911	33624.06
456.117	33073.16
456.323	32618.51
456.529	30695.47
456.735	32114.71
456.941	31289.38
457.147	30718
457.352	29931.58
457.558	29554.75
457.764	29440.06
457.97	29093.96
458.176	28442.7
458.381	28407.89
458.587	26990.69
458.793	26912.87
458.999	25524.35
459.204	27590.75
459.41	26726.5
459.616	24946.82
459.821	25172.1
460.027	24678.54
460.233	24565.9
460.438	23236.77
460.644	23580.82
460.85	22331.56
461.055	21848.24
461.261	21997.74
461.466	20173
461.672	19747.03
461.878	21190.84
462.083	19544.28
462.289	19634.39
462.494	19513.56
462.7	18516.2
462.905	18026.73
463.111	18469.09
463.316	18522.34
463.522	18292.97
463.727	18034.92
463.932	18381.03
464.138	17973.49
464.343	18266.35
464.549	17449.21
464.754	18215.15
464.959	18012.4
465.165	17783.02
465.37	17170.68
465.575	16441.61
465.781	17189.11
465.986	17488.12
466.191	16818.43
466.397	16652.55
466.602	15966.48
466.807	16335.11
467.012	16290.06
467.218	16437.51
467.423	16083.21
467.628	15972.62
467.833	16965.89
468.038	16148.75
468.244	15819.02
468.449	16339.21
468.654	15855.89
468.859	15575.31
469.064	15501.59
469.269	15178.01
469.474	15384.85
469.679	15466.77
469.885	14727.46
470.09	15270.17
470.295	15204.63
470.5	14885.15
470.705	14893.34
470.91	14381.35
471.115	14334.25
471.32	14467.36
471.525	14379.3
471.73	14172.46
471.935	13969.71
472.139	13676.85
472.344	13779.25
472.549	13615.41
472.754	13582.64
472.959	13193.53
473.164	13082.94
473.369	12933.43
473.574	13158.71
473.778	13095.22
473.983	12869.95
474.188	13021.5
474.393	12390.72
474.598	12437.83
474.802	12218.69
475.007	11958.6
475.212	12061
475.417	11880.78
475.621	11702.61
475.826	11696.46
476.031	11630.93
476.235	11368.79
476.44	11497.81
476.645	11391.31
476.849	11524.43
477.054	11170.13
477.259	10948.95
477.463	11143.51
477.668	10703.2
477.872	10910.04
478.077	10637.66
478.282	10506.59
478.486	10359.14
478.691	10400.1
478.895	10379.62
479.1	10152.29
479.304	10213.73
479.509	9900.39
479.713	9937.26
479.918	9789.8
480.122	9865.58
480.326	9957.74
480.531	9832.81
480.735	9927.02
480.94	9779.56
481.144	10041.7
481.348	9621.87
481.553	9558.38
481.757	9324.91
481.961	9793.9
482.166	9552.24
482.37	9517.42
482.574	9505.13
482.778	9619.82
482.983	9752.94
483.187	9578.86
483.391	9394.54
483.595	9605.49
483.8	9156.98
484.004	9666.92
484.208	9574.77
484.412	9611.63
484.616	9636.2
484.821	9654.64
485.025	9455.98
485.229	9425.26
485.433	9347.44
485.637	9634.16
485.841	9335.15
486.045	9308.53
486.249	9505.13
486.453	9398.64
486.657	9455.98
486.861	9752.94
487.065	9353.59
487.269	9556.33
487.473	9333.11
487.677	9597.29
487.881	9630.06
488.085	9320.82
488.289	9607.53
488.493	9435.5
488.697	9402.74
488.901	9564.53
489.105	9585.01
489.309	9580.91
489.512	9648.49
489.716	9494.9
489.92	9574.77
490.124	9515.37
490.328	9873.77
490.531	9732.46
490.735	9718.12
490.939	9714.03
491.143	9668.97
491.346	9847.15
491.55	9949.54
491.754	9908.58
491.958	9890.15
492.161	9787.75
492.365	9943.4
492.569	10080.61
492.772	9980.26
492.976	10195.3
493.18	10269.03
493.383	10234.21
493.587	10303.84
493.79	10502.5
493.994	10367.33
494.197	10463.58
494.401	10518.88
494.605	10514.78
494.808	10668.38
495.012	10717.53
495.215	10645.85
495.419	10887.51
495.622	10686.81
495.825	11071.83
496.029	11018.58
496.232	11295.06
496.436	11108.69
496.639	11632.97
496.843	11522.38
497.046	11641.17
497.249	11845.96
497.453	12089.67
497.656	11931.98
497.859	11999.56
498.063	12104.01
498.266	12493.12
498.469	12374.34
498.673	12384.58
498.876	12669.25
499.079	12781.88
499.282	12683.58
499.485	13095.22
499.689	13228.34
499.892	13291.83
500.095	13482.29
500.298	13693.23
500.501	13513.01
500.705	13936.94
500.908	14168.36
501.111	14201.13
501.314	14272.81
501.517	14541.09
501.72	14670.11
501.923	14788.89
502.126	14909.72
502.329	15401.24
502.532	15169.82
502.735	15237.4
502.938	15603.99
503.141	15565.07
503.344	15851.79
503.547	15974.67
503.75	16003.34
503.953	16318.73
504.156	16587.01
504.359	16838.91
504.562	16900.35
504.765	17152.25
504.968	17414.39
505.17	17672.43
505.373	17314.04
505.576	17930.48
505.779	18190.57
505.982	18192.62
506.185	18360.55
506.387	18563.3
506.59	18856.16
506.793	19116.25
506.996	18831.58
507.198	19480.79
507.401	19423.45
507.604	19931.34
507.807	19929.3
508.009	20426.95
508.212	20125.9
508.415	20414.66
508.617	20814.02
508.82	20940.99
509.022	20934.85
509.225	21332.15
509.428	21450.94
509.63	21721.27
509.833	21893.3
510.035	22388.91
510.238	22122.67
510.44	22581.42
510.643	22622.37
510.845	22671.53
511.048	22818.98
511.25	23179.42
511.453	23431.32
511.655	24180.88
511.858	23961.75
512.06	24342.67
512.262	24615.05
512.465	24490.12
512.667	24733.83
512.87	24942.72
513.072	25174.14
513.274	25720.95
513.477	25759.86
513.679	25921.65
513.881	26290.29
514.084	26349.68
514.286	26554.47
514.488	26540.14
514.69	27539.55
514.893	27494.49
515.095	27527.26
515.297	27899.99
515.499	27926.61
515.701	28098.64
515.904	28674.12
516.106	28956.74
516.308	28893.26
516.51	29308.99
516.712	29220.93
516.914	29708.35
517.116	30203.96
517.318	30421.04
517.52	30361.65
517.722	30148.66
517.925	30752.81
518.127	31287.33
518.329	31705.12
518.531	31090.73
518.733	31754.27
518.935	31950.87
519.136	32213.01
519.338	32426
519.54	32903.18
519.742	33089.54
519.944	33011.72
520.146	33601.54
520.348	33789.95
520.55	34002.94
520.752	33726.46
520.954	34568.18
521.155	34392.05
521.357	35082.22
521.559	35350.5
521.761	35319.78
521.963	35266.53
522.164	35790.81
522.366	35674.08
522.568	36034.52
522.77	36327.38
522.971	36562.9
523.173	36831.18
523.375	36911.05
523.576	36958.16
523.778	36800.46
523.98	37808.06
524.181	37386.18
524.383	37584.83
524.584	38586.29
524.786	38348.73
524.988	38027.2
525.189	38406.07
525.391	38852.53
525.592	38918.06
525.794	39073.71
525.995	38987.69
526.197	39235.5
526.398	39227.31
526.6	39389.09
526.801	39929.76
527.003	39843.74
527.204	39747.49
527.406	40107.93
527.607	40044.44
527.808	40406.94
528.01	39935.9
528.211	39755.68
528.412	40920.98
528.614	40652.69
528.815	40775.57
529.016	41453.45
529.218	40454.04
529.419	41113.48
529.62	40892.3
529.822	41029.52
530.023	40849.3
530.224	40953.74
530.425	41158.54
530.626	40630.16
530.828	40933.26
531.029	41832.32
531.23	41355.14
531.431	41375.62
531.632	41652.1
531.833	41731.97
532.035	41662.34
532.236	41799.55
532.437	41871.23
532.638	41885.57
532.839	42092.41
533.04	41965.44
533.241	41062.29
533.442	42635.13
533.643	42088.32
533.844	41809.79
534.045	41805.7
534.246	41592.71
534.447	42231.68
534.648	41645.96
534.849	41969.54
535.05	42035.07
535.251	41691.01
535.451	41834.37
535.652	42205.05
535.853	42151.8
536.054	41992.06
536.255	42237.82
536.456	41826.18
536.657	42559.35
536.857	41643.91
537.058	41686.92
537.259	42643.32
537.46	42229.63
537.66	41623.43
537.861	41977.73
538.062	42078.08
538.263	42260.35
538.463	42024.83
538.664	41953.15
538.865	42248.06
539.065	41930.62
539.266	41648
539.466	42129.28
539.667	41502.6
539.868	42100.61
540.068	42243.96
540.269	41709.44
540.469	42409.85
540.67	42008.45
540.87	41709.44
541.071	42145.66
541.271	41959.3
541.472	42010.49
541.672	41574.28
541.873	41652.1
542.073	41473.93
542.274	42084.22
542.474	41789.31
542.675	41688.96
542.875	41605
543.075	41934.72
543.276	41402.25
543.476	42106.75
543.676	41791.36
543.877	42092.41
544.077	41539.46
544.277	41867.14
544.478	41559.94
544.678	41756.55
544.878	41453.45
545.078	42002.3
545.279	41531.27
545.479	41351.05
545.679	41564.04
545.879	41545.61
546.079	41375.62
546.28	41463.69
546.48	41502.6
546.68	41701.25
546.88	42069.89
547.08	41320.33
547.28	41383.82
547.48	41088.91
547.68	41207.69
547.88	41084.81
548.081	41703.3
548.281	41461.64
548.481	41172.88
548.681	41768.83
548.881	41682.82
549.081	41312.14
549.28	41174.92
549.48	41633.67
549.68	41312.14
549.88	41942.91
550.08	41109.39
550.28	41387.91
550.48	41187.21
550.68	41787.27
550.88	41426.82
551.08	41478.02
551.279	41801.6
551.479	41238.41
551.679	41394.06
551.879	41185.16
552.079	41478.02
552.278	41187.21
552.478	41260.94
552.678	41240.46
552.878	41908.1
553.077	41228.17
553.277	40849.3
553.477	41674.63
553.676	41295.75
553.876	40744.85
554.076	41133.96
554.275	40986.51
554.475	40413.08
554.674	41019.28
554.874	40859.54
555.074	41060.24
555.273	40855.44
555.473	41246.6
555.672	40429.46
555.872	41150.35
556.071	40925.07
556.271	41400.2
556.47	40429.46
556.67	40511.38
556.869	41013.13
557.068	40568.72
557.268	40599.44
557.467	40406.94
557.667	40415.13
557.866	40658.84
558.065	40501.14
558.265	40130.46
558.464	40030.11
558.663	40695.7
558.863	39688.1
559.062	40519.57
559.261	39743.39
559.461	40949.65
559.66	39724.96
559.859	39636.9
560.058	39765.92
560.258	40150.94
560.457	39978.91
560.656	40161.18
560.855	39958.43
561.054	39956.38
561.253	39438.25
561.453	39673.76
561.652	39888.8
561.851	39997.34
562.05	39507.88
562.249	39503.78
562.448	39677.86
562.647	39409.57
562.846	39534.5
563.045	39516.07
563.244	38862.77
563.443	39653.28
563.642	39042.99
563.841	39229.35
564.04	39122.86
564.239	39176.11
564.438	38881.2
564.637	39030.7
564.836	39251.88
565.035	38784.94
565.234	39016.36
565.432	38690.74
565.631	38881.2
565.83	38344.63
566.029	38651.83
566.228	38752.18
566.427	38264.76
566.625	38326.2
566.824	37715.9
567.023	38559.67
567.222	37676.99
567.42	38258.62
567.619	38045.63
567.818	38213.56
568.016	38150.07
568.215	38197.18
568.414	37517.25
568.612	38303.67
568.811	37650.37
569.01	37820.35
569.208	36980.68
569.407	37650.37
569.605	37072.84
569.804	37431.24
570.002	37130.19
570.201	37461.96
570.4	37021.64
570.598	37502.92
570.797	36544.47
570.995	36866
571.193	36493.27
571.392	37261.26
571.59	36366.29
571.789	36540.37
571.987	36868.05
572.186	36624.34
572.384	36429.78
572.582	36210.65
572.781	36177.88
572.979	35903.45
573.177	36138.97
573.376	36335.57
573.574	35680.22
573.772	36018.14
573.971	35887.07
574.169	35532.77
574.367	35532.77
574.565	35842.01
574.763	35340.26
574.962	35620.83
575.16	34850.8
575.358	35227.62
575.556	34899.95
575.754	35504.1
575.952	34557.94
576.151	35004.39
576.349	34891.76
576.547	35178.47
576.745	34996.2
576.943	34748.4
577.141	34709.49
577.339	34910.19
577.537	34478.07
577.735	34324.47
577.933	34105.34
578.131	34662.38
578.329	34131.96
578.527	34086.9
578.725	34347
578.923	34390
579.121	33818.62
579.319	33781.76
579.516	34033.66
579.714	34078.71
579.912	33755.13
580.11	33730.56
580.308	33710.08
580.506	33472.51
580.704	33245.19
580.901	33523.71
581.099	33488.9
581.297	32417.81
581.495	32743.44
581.692	32962.57
581.89	32436.24
582.088	33210.37
582.285	32348.18
582.483	32972.81
582.681	32669.71
582.878	32376.85
583.076	32120.85
583.274	32475.15
583.471	32139.29
583.669	32450.58
583.866	32043.03
584.064	32522.26
584.262	31615.01
584.459	31979.54
584.657	31887.39
584.854	32229.4
585.052	31526.94
585.249	31633.44
585.447	31516.7
585.644	31279.14
585.841	31666.2
586.039	32104.47
586.236	31176.74
586.434	31023.14
586.631	31225.89
586.828	31154.21
587.026	30976.04
587.223	30724.14
587.42	30664.75
587.618	30834.73
587.815	30369.84
588.012	30443.57
588.21	30347.31
588.407	30662.7
588.604	30396.46
588.801	30163
588.999	29870.14
589.196	30117.94
589.393	30226.48
589.59	29816.89
589.787	29892.66
589.984	29829.18
590.182	29433.92
590.379	29683.77
590.576	29507.65
590.773	29378.62
590.97	29358.14
591.167	29372.48
591.364	29130.82
591.561	29278.27
591.758	29034.56
591.955	29108.29
592.152	29196.35
592.349	29050.95
592.546	29081.67
592.743	28837.96
592.94	28317.78
593.137	28489.81
593.334	28469.33
593.531	28225.62
593.727	28524.62
593.924	28168.27
594.121	28233.81
594.318	28293.2
594.515	27687
594.712	28219.47
594.908	27635.8
595.105	28074.07
595.302	27680.86
595.499	27547.74
595.696	27570.27
595.892	27271.26
596.089	27680.86
596.286	27574.36
596.482	27371.61
596.679	27301.98
596.876	27326.56
597.072	26986.6
597.269	27023.46
597.466	26622.06
597.662	26841.19
597.859	27019.36
598.055	26728.55
598.252	26622.06
598.448	26763.37
598.645	26443.88
598.841	26204.27
599.038	26263.66
599.234	26376.3
599.431	25987.19
599.627	25956.47
599.824	25966.71
600.02	26157.17
600.217	26232.94
600.413	25911.41
600.609	25565.31
600.806	25651.32
601.002	25630.84
601.198	25714.81
601.395	25303.17
601.591	25378.94
601.787	25237.63
601.984	25233.53
602.18	25411.71
602.376	24989.83
602.572	24995.97
602.769	25145.47
602.965	24832.13
603.161	25131.14
603.357	24524.94
603.553	24707.21
603.75	24776.84
603.946	24615.05
604.142	24621.19
604.338	24051.86
604.534	24553.61
604.73	24129.68
604.926	23949.46
605.122	24064.14
605.318	24004.75
605.514	23824.53
605.71	23728.28
605.906	24014.99
606.102	23851.16
606.298	23715.99
606.494	23675.03
606.69	23777.43
606.886	23924.88
607.082	23535.77
607.278	23660.69
607.474	23117.98
607.67	23650.46
607.866	23367.84
608.062	23500.95
608.257	23218.33
608.453	23468.19
608.649	23419.03
608.845	23003.3
609.041	22872.23
609.236	22972.58
609.432	23183.52
609.628	23081.12
609.824	22978.72
610.019	22943.91
610.215	22790.31
610.411	23009.44
610.606	22472.87
610.802	22751.4
610.998	22747.3
611.193	22716.58
611.389	22526.12
611.584	22429.87
611.78	22288.56
611.976	22470.83
612.171	22276.27
612.367	22321.32
612.562	22214.83
612.758	21944.5
612.953	21776.56
613.149	22374.57
613.344	22026.42
613.539	22354.09
613.735	21969.07
613.93	21924.02
614.126	22067.38
614.321	21973.17
614.517	21747.89
614.712	21776.56
614.907	21883.06
615.103	21760.18
615.298	21526.71
615.493	21993.65
615.688	21344.44
615.884	22016.18
616.079	21319.87
616.274	21696.69
616.47	21717.17
616.665	21553.34
616.86	21711.03
617.055	21225.66
617.25	21336.25
617.445	21633.21
617.641	20748.48
617.836	21211.32
618.031	21174.46
618.226	20973.76
618.421	21070.01
618.616	21256.38
618.811	20986.05
619.006	21391.55
619.201	20656.32
619.396	20805.83
619.591	20463.82
619.786	20701.38
619.981	20334.79
620.176	20510.92
620.371	20238.54
620.566	20447.43
620.761	20037.84
620.956	20234.44
621.151	19847.38
621.346	19941.58
621.541	19763.41
621.735	19886.29
621.93	19548.37
622.125	19736.79
622.32	19298.52
622.515	19523.8
622.709	19251.42
622.904	19071.2
623.099	19142.88
623.294	19138.78
623.488	18708.71
623.683	18759.91
623.878	18614.5
624.072	18634.98
624.267	18686.18
624.462	18481.38
624.656	18223.34
624.851	18499.81
625.046	17953.01
625.24	18118.89
625.435	17924.33
625.629	17897.71
625.824	17778.93
626.018	17869.04
626.213	17197.31
626.407	17701.11
626.602	17379.57
626.796	17395.96
626.991	17336.57
627.185	17197.31
627.38	16838.91
627.574	17103.1
627.768	16724.22
627.963	16550.15
628.157	16656.64
628.352	16859.39
628.546	16320.77
628.74	16429.32
628.935	16294.15
629.129	16193.8
629.323	15968.52
629.517	15946
629.712	15915.28
629.906	16056.59
630.1	15810.83
630.294	15722.77
630.489	15608.08
630.683	15859.98
630.877	15343.89
631.071	15341.85
631.265	15358.23
631.459	15096.09
631.653	15210.78
631.848	15292.69
632.042	15083.8
632.236	15135
632.43	14805.28
632.624	15024.41
632.818	14772.51
633.012	14868.77
633.206	14666.02
633.4	14567.71
633.594	14352.68
633.788	14315.81
633.982	14358.82
634.176	14201.13
634.369	14111.02
634.563	14176.55
634.757	13859.12
634.951	14037.29
635.145	14252.33
635.339	13824.3
635.533	13580.59
635.726	13797.68
635.92	13422.9
636.114	13607.22
636.308	13521.2
636.501	13414.71
636.695	13711.66
636.889	13351.22
637.083	12978.49
637.276	12788.03
637.47	13001.02
637.664	12988.73
637.857	12919.1
638.051	13123.9
638.244	12767.55
638.438	12587.33
638.632	12532.03
638.825	12521.79
639.019	12546.37
639.212	12472.64
639.406	12482.88
639.599	12362.05
639.793	12474.69
639.986	12046.66
640.18	12140.87
640.373	12054.86
640.567	11821.39
640.76	11985.23
640.954	11788.62
641.147	11716.94
641.34	11866.44
641.534	11858.25
641.727	11841.87
641.92	11731.28
642.114	11712.85
642.307	11604.3
642.5	11432.27
642.694	11262.29
642.887	11424.08
643.08	11479.38
643.273	11262.29
643.467	11123.03
643.66	10901.85
643.853	11149.65
644.046	10864.99
644.239	10793.31
644.432	10752.35
644.626	10803.55
644.819	10862.94
645.012	10789.21
645.205	10877.27
645.398	10633.57
645.591	10400.1
645.784	10307.94
645.977	10199.4
646.17	10402.15
646.363	10549.6
646.556	10137.96
646.749	10205.54
646.942	10314.08
647.135	10045.8
647.328	9974.12
647.521	9802.09
647.714	10164.58
647.907	9927.02
648.099	9955.69
648.292	9908.58
648.485	9746.8
648.678	9675.12
648.871	9630.06
649.064	9619.82
649.256	9455.98
649.449	9466.22
649.642	9634.16
649.835	9488.75
650.027	9214.32
650.22	9245.04
650.413	9173.36
650.605	9130.36
650.798	9064.82
650.991	9140.6
651.183	9062.77
651.376	9081.21
651.568	9034.1
651.761	8884.6
651.954	9066.87
652.146	8806.78
652.339	8737.15
652.531	8894.84
652.724	8915.32
652.916	8571.26
653.109	8681.85
653.301	8554.88
653.494	8599.93
653.686	8393.09
653.879	8534.4
654.071	8165.76
654.263	8454.53
654.456	8255.87
654.648	8475.01
654.84	8345.98
655.033	8169.86
655.225	8104.32
655.417	8118.66
655.61	8155.52
655.802	8083.84
655.994	8001.93
656.186	8139.14
656.379	7965.06
656.571	7823.75
656.763	7782.79
656.955	7547.28
657.148	7764.36
657.34	7659.92
657.532	7584.14
657.724	7549.32
657.916	7651.72
658.108	7543.18
658.3	7598.48
658.492	7512.46
658.684	7395.73
658.876	7459.21
659.068	7397.78
659.26	7334.29
659.452	7266.71
659.644	7217.55
659.836	7066
660.028	7215.51
660.22	6975.89
660.412	7082.39
660.604	7008.66
660.796	7078.29
660.988	7057.81
661.18	7084.44
661.372	6820.25
661.563	6963.61
661.755	6955.41
661.947	6838.68
662.139	6883.73
662.331	6631.83
662.522	6832.54
662.714	6738.33
662.906	6617.5
663.097	6566.3
663.289	6537.63
663.481	6580.64
663.673	6588.83
663.864	6486.43
664.056	6523.29
664.247	6529.44
664.439	6242.72
664.631	6535.58
664.822	6207.91
665.014	6234.53
665.205	6265.25
665.397	6279.58
665.588	6146.47
665.78	6125.99
665.971	6111.65
666.163	5982.63
666.354	6097.31
666.546	5872.04
666.737	6070.69
666.929	6128.03
667.12	6101.41
667.311	5892.52
667.503	5749.16
667.694	5980.58
667.885	5800.36
668.077	5970.34
668.268	5773.74
668.459	5564.84
668.651	5749.16
668.842	5673.39
669.033	5718.44
669.224	5714.34
669.416	5624.23
669.607	5550.51
669.798	5700.01
669.989	5583.27
670.18	5570.99
670.371	5648.81
670.563	5503.4
670.754	5419.44
670.945	5351.85
671.136	5517.74
671.327	5323.18
671.518	5302.7
671.709	5323.18
671.9	5380.53
672.091	5347.76
672.282	5372.33
672.473	5261.74
672.664	5360.05
672.855	5140.91
673.046	5224.88
673.237	5347.76
673.428	5058.99
673.619	5018.04
673.809	5075.38
674	5063.09
674.191	5149.11
674.382	4964.79
674.573	5161.39
674.764	5058.99
674.954	5095.86
675.145	4876.73
675.336	4817.33
675.527	4774.33
675.717	4907.45
675.908	4936.12
676.099	4946.36
676.289	4846.01
676.48	4848.05
676.671	4901.3
676.861	4852.15
677.052	4702.65
677.243	4780.47
677.433	4956.6
677.624	4719.03
677.814	4774.33
678.005	4684.22
678.195	4606.39
678.386	4856.25
678.576	4577.72
678.767	4725.18
678.957	4547
679.148	4669.88
679.338	4579.77
679.529	4504
679.719	4610.49
679.909	4739.51
680.1	4542.91
680.29	4606.39
680.481	4587.96
680.671	4600.25
680.861	4415.93
681.052	4547
681.242	4456.89
681.432	4520.38
681.622	4450.75
681.813	4374.97
682.003	4489.66
682.193	4489.66
682.383	4422.08
682.573	4532.67
682.764	4336.06
682.954	4372.93
683.144	4377.02
683.334	4348.35
683.524	4280.77
683.714	4331.97
683.904	4237.76
684.094	4315.58
684.284	4311.49
684.474	4325.82
684.664	4196.8
684.854	4303.29
685.044	4217.28
685.234	4088.26
685.424	4116.93
685.614	4114.88
685.804	4032.96
685.994	4030.91
686.184	4106.69
686.374	4229.57
686.564	4098.5
686.753	4073.92
686.943	3875.27
687.133	4000.19
687.323	3883.46
687.513	4088.26
687.702	3989.96
687.892	3969.48
688.082	3887.56
688.272	3912.13
688.461	3924.42
688.651	3860.93
688.841	3813.83
689.03	3756.49
689.22	3793.35
689.41	3819.97
689.599	3838.41
689.789	3787.21
689.979	3678.66
690.168	3756.49
690.358	3797.45
690.547	3668.42
690.737	3799.49
690.926	3604.94
691.116	3580.36
691.305	3690.95
691.495	3568.07
691.684	3596.75
691.874	3566.03
692.063	3606.98
692.252	3604.94
692.442	3502.54
692.631	3488.2
692.82	3598.79
693.01	3566.03
693.199	3533.26
693.388	3324.37
693.578	3498.44
693.767	3314.13
693.956	3338.7
694.146	3357.13
694.335	3303.89
694.524	3256.78
694.713	3326.41
694.902	3338.7
695.092	3406.28
695.281	3387.85
695.47	3211.73
695.659	3213.77
695.848	3097.04
696.037	3205.58
696.226	3230.16
696.415	3217.87
696.604	3127.76
696.793	3281.36
696.982	3264.97
697.171	3203.54
697.36	3131.86
697.549	2990.55
697.738	3068.37
697.927	3181.01
698.116	3148.24
698.305	2965.97
698.494	3031.51
698.683	3072.47
698.872	3129.81
699.061	3156.43
699.25	3029.46
699.438	2947.54
699.627	3064.27
699.816	3029.46
700.005	2974.16
700.193	2904.53
700.382	2994.64
700.571	2820.56
700.76	3000.79
700.948	3142.1
701.137	3066.32
701.326	2968.02
701.514	2939.35
701.703	2918.87
701.892	2947.54
702.08	2953.68
702.269	2894.29
702.457	2945.49
702.646	2908.63
702.834	2832.85
703.023	2859.48
703.212	3011.03
703.4	2873.81
703.589	2793.94
703.777	2882
703.965	2687.45
704.154	2841.04
704.342	2748.89
704.531	2808.28
704.719	2812.37
704.907	2843.09
705.096	2863.57
705.284	2767.32
705.472	2763.22
705.661	2679.26
705.849	2779.61
706.037	2648.54
706.226	2718.17
706.414	2693.59
706.602	2675.16
706.79	2666.97
706.979	2685.4
707.167	2636.25
707.355	2619.86
707.543	2705.88
707.731	2798.04
707.919	2722.26
708.107	2681.3
708.296	2750.93
708.484	2757.08
708.672	2734.55
708.86	2642.39
709.048	2669.02
709.236	2695.64
709.424	2644.44
709.612	2515.42
709.8	2615.77
709.988	2587.1
710.176	2673.11
710.364	2533.85
710.551	2707.93
710.739	2535.9
710.927	2675.16
711.115	2640.34
711.303	2699.73
711.491	2611.67
711.679	2572.76
711.866	2617.82
712.054	2652.63
712.242	2580.95
712.43	2746.84
712.617	2640.34
712.805	2478.55
712.993	2554.33
713.181	2566.62
713.368	2548.19
713.556	2611.67
713.744	2568.66
713.931	2691.54
714.119	2439.64
714.306	2666.97
714.494	2574.81
714.682	2552.28
714.869	2513.37
715.057	2638.3
715.244	2521.56
715.432	2621.91
715.619	2492.89
715.807	2580.95
715.994	2546.14
716.182	2623.96
716.369	2621.91
716.556	2472.41
716.744	2435.55
716.931	2570.71
717.119	2505.18
717.306	2587.1
717.493	2511.32
717.681	2542.04
717.868	2496.99
718.055	2515.42
718.242	2511.32
718.43	2533.85
718.617	2441.69
718.804	2505.18
718.991	2496.99
719.179	2486.75
719.366	2519.51
719.553	2556.38
719.74	2453.98
719.927	2599.38
720.114	2511.32
720.301	2605.53
720.488	2539.99
720.676	2531.8
720.863	2535.9
721.05	2556.38
721.237	2546.14
721.424	2456.03
721.611	2523.61
721.798	2476.51
721.985	2443.74
722.172	2486.75
722.358	2433.5
722.545	2451.93
722.732	2460.12
722.919	2568.66
723.106	2505.18
723.293	2437.59
723.48	2345.44
723.667	2453.98
723.853	2429.4
724.04	2474.46
724.227	2513.37
724.414	2492.89
724.6	2447.83
724.787	2421.21
724.974	2408.92
725.161	2601.43
725.347	2419.16
725.534	2456.03
725.72	2466.27
725.907	2578.9
726.094	2527.71
726.28	2359.77
726.467	2394.59
726.653	2439.64
726.84	2515.42
727.027	2525.66
727.213	2417.12
727.4	2521.56
727.586	2494.94
727.773	2370.01
727.959	2453.98
728.145	2474.46
728.332	2417.12
728.518	2539.99
728.705	2570.71
728.891	2474.46
729.077	2492.89
729.264	2515.42
729.45	2525.66
729.636	2496.99
729.823	2460.12
730.009	2554.33
730.195	2439.64
730.382	2511.32
730.568	2474.46
730.754	2476.51
730.94	2525.66
731.126	2451.93
731.313	2572.76
731.499	2480.6
731.685	2513.37
731.871	2503.13
732.057	2550.23
732.243	2429.4
732.429	2472.41
732.615	2488.79
732.801	2437.59
732.987	2486.75
733.173	2435.55
733.359	2429.4
733.545	2486.75
733.731	2482.65
733.917	2556.38
734.103	2472.41
734.289	2521.56
734.475	2456.03
734.661	2415.07
734.847	2537.95
735.033	2496.99
735.219	2525.66
735.404	2513.37
735.59	2556.38
735.776	2535.9
735.962	2458.07
736.148	2431.45
736.333	2587.1
736.519	2415.07
736.705	2476.51
736.89	2494.94
737.076	2437.59
737.262	2511.32
737.447	2490.84
737.633	2517.47
737.819	2537.95
738.004	2472.41
738.19	2443.74
738.375	2363.87
738.561	2564.57
738.747	2527.71
738.932	2468.31
739.118	2437.59
739.303	2505.18
739.489	2552.28
739.674	2421.21
739.859	2437.59
740.045	2441.69
740.23	2519.51
740.416	2396.64
740.601	2408.92
740.786	2556.38
740.972	2408.92
741.157	2453.98
741.342	2382.3
741.528	2339.29
741.713	2353.63
741.898	2380.25
742.084	2372.06
742.269	2400.73
742.454	2384.35
742.639	2269.66
742.824	2349.53
743.01	2372.06
743.195	2390.49
743.38	2404.83
743.565	2279.9
743.75	2240.99
743.935	2210.27
744.12	2367.96
744.305	2322.91
744.49	2279.9
744.675	2372.06
744.86	2138.59
745.045	2284
745.23	2275.81
745.415	2314.72
745.6	2202.08
745.785	2154.98
745.97	2193.89
746.155	2150.88
746.34	2210.27
746.525	2105.82
746.71	2312.67
746.895	2179.55
747.079	2202.08
747.264	2030.05
747.449	2099.68
747.634	2083.3
747.819	2068.96
748.003	2103.78
748.188	2130.4
748.373	2107.87
748.557	2093.54
748.742	2095.58
748.927	2011.62
749.111	2175.45
749.296	2009.57
749.481	2034.14
749.665	1925.6
749.85	1950.18
750.034	1898.98
750.219	1898.98
750.404	1972.71
750.588	1884.64
750.773	2009.57
750.957	1804.77
751.141	1890.79
751.326	1884.64
751.51	1907.17
751.695	1905.12
751.879	1776.1
752.064	1776.1
752.248	1825.25
752.432	1819.11
752.617	1794.53
752.801	1759.72
752.985	1757.67
753.17	1743.33
753.354	1657.32
753.538	1747.43
753.722	1759.72
753.907	1677.8
754.091	1659.37
754.275	1634.79
754.459	1626.6
754.643	1700.33
754.828	1571.3
755.012	1704.42
755.196	1640.93
755.38	1700.33
755.564	1552.87
755.748	1622.5
755.932	1571.3
756.116	1616.36
756.3	1532.39
756.484	1591.78
756.668	1700.33
756.852	1532.39
757.036	1636.84
757.22	1475.05
757.404	1599.98
757.588	1483.24
757.772	1429.99
757.956	1479.15
758.14	1473
758.323	1468.91
758.507	1468.91
758.691	1479.15
758.875	1411.56
759.059	1440.23
759.242	1444.33
759.426	1462.76
759.61	1380.84
759.794	1229.29
759.977	1380.84
760.161	1497.58
760.345	1362.41
760.528	1303.02
760.712	1423.85
760.895	1309.16
761.079	1415.66
761.263	1386.99
761.446	1378.79
761.63	1409.51
761.813	1315.31
761.997	1368.56
762.18	1305.07
762.364	1303.02
762.547	1282.54
762.731	1282.54
762.914	1446.38
763.098	1290.73
763.281	1268.2
763.464	1206.77
763.648	1161.71
763.831	1212.91
764.015	1186.29
764.198	1233.39
764.381	1219.05
764.564	1243.63
764.748	1282.54
764.931	1202.67
765.114	1210.86
765.297	1268.2
765.481	1096.18
765.664	1122.8
765.847	1208.81
766.03	1208.81
766.213	1135.09
766.397	1180.14
766.58	1174
766.763	1227.25
766.946	1069.55
767.129	1092.08
767.312	1143.28
767.495	1096.18
767.678	1112.56
767.861	1229.29
768.044	1120.75
768.227	1167.85
768.41	1180.14
768.593	1036.78
768.776	1163.76
768.959	1118.7
769.142	1122.8
769.324	1047.02
769.507	1067.5
769.69	1061.36
769.873	1141.23
770.056	1100.27
770.239	1161.71
770.421	1079.79
770.604	1001.97
770.787	1061.36
770.97	1063.41
771.152	989.68
771.335	1057.26
771.518	981.49
771.7	997.87
771.883	1026.54
772.066	1010.16
772.248	1008.11
772.431	993.78
772.613	1106.42
772.796	979.44
772.978	995.82
773.161	961.01
773.343	1028.59
773.526	915.95
773.708	1018.35
773.891	958.96
774.073	934.39
774.256	952.82
774.438	985.58
774.621	905.71
774.803	934.39
774.985	858.61
775.168	971.25
775.35	885.23
775.532	911.86
775.715	776.69
775.897	883.19
776.079	862.71
776.261	836.08
776.444	907.76
776.626	815.6
776.808	829.94
776.99	856.56
777.173	909.81
777.355	836.08
777.537	750.07
777.719	831.99
777.901	854.51
778.083	817.65
778.265	831.99
778.447	805.36
778.629	760.31
778.811	825.84
778.993	829.94
779.175	766.45
779.357	692.73
779.539	657.91
779.721	762.36
779.903	764.4
780.085	731.64
780.267	786.93
780.449	756.21
780.631	702.97
780.812	692.73
780.994	754.16
781.176	758.26
781.358	702.97
781.54	795.12
781.721	715.25
781.903	686.58
782.085	762.36
782.267	758.26
782.448	688.63
782.63	680.44
782.812	645.62
782.993	600.57
783.175	643.57
783.357	610.81
783.538	616.95
783.72	621.05
783.901	627.19
784.083	651.77
784.264	514.55
784.446	662.01
784.627	549.37
784.809	604.66
784.99	526.84
785.172	590.33
785.353	535.03
785.535	567.8
785.716	567.8
785.897	586.23
786.079	500.22
786.26	504.31
786.441	535.03
786.623	541.18
786.804	569.85
786.985	473.59
787.167	553.46
787.348	444.92
787.529	578.04
787.71	494.07
787.891	520.7
788.073	522.74
788.254	465.4
788.435	539.13
788.616	479.74
788.797	524.79
788.978	385.53
789.159	528.89
789.34	494.07
789.522	485.88
789.703	385.53
789.884	459.26
790.065	475.64
790.246	483.83
790.427	418.3
790.607	381.43
790.788	418.3
790.969	387.58
791.15	461.3
791.331	412.15
791.512	367.1
791.693	385.53
791.874	416.25
792.054	455.16
792.235	522.74
792.416	449.02
792.597	371.19
792.778	440.83
792.958	389.63
793.139	424.44
793.32	430.59
793.5	426.49
793.681	367.1
793.862	399.87
794.042	397.82
794.223	369.15
794.404	285.18
794.584	322.04
794.765	438.78
794.945	360.95
795.126	426.49
795.306	322.04
795.487	403.96
795.667	352.76
795.848	406.01
796.028	336.38
796.209	399.87
796.389	248.32
796.57	365.05
796.75	336.38
796.93	317.95
797.111	363
797.291	338.43
797.471	332.28
797.652	369.15
797.832	342.52
798.012	334.33
798.192	330.23
798.373	303.61
798.553	322.04
798.733	338.43
798.913	373.24
799.093	270.84
799.274	330.23
799.454	309.76
799.634	305.66
799.814	358.91
799.994	309.76
800.174	379.39
800.354	332.28
800.534	264.7
800.714	268.8
800.894	346.62
801.074	295.42
801.254	336.38
801.434	283.13
801.614	309.76
801.794	283.13
801.974	668.15
802.154	295.42
802.334	270.84
802.514	229.88
802.693	297.47
802.873	213.5
803.053	330.23
803.233	209.4
803.413	236.03
803.592	295.42
803.772	305.66
803.952	252.41
804.131	197.12
804.311	229.88
804.491	387.58
804.67	246.27
804.85	305.66
805.03	223.74
805.209	317.95
805.389	270.84
805.568	295.42
805.748	213.5
805.928	233.98
806.107	274.94
806.287	272.89
806.466	330.23
806.646	262.65
806.825	223.74
807.004	199.16
807.184	279.04
807.363	229.88
807.543	225.79
807.722	250.36
807.901	262.65
808.081	223.74
808.26	205.31
808.439	236.03
808.619	236.03
808.798	260.6
808.977	233.98
809.156	258.56
809.336	274.94
809.515	295.42
809.694	178.69
809.873	256.51
810.052	260.6
810.231	248.32
810.411	150.01
810.59	301.56
810.769	211.45
810.948	186.88
811.127	190.97
811.306	242.17
811.485	174.59
811.664	258.56
811.843	172.54
812.022	244.22
812.201	209.4
812.38	197.12
812.559	182.78
812.737	186.88
812.916	174.59
813.095	221.69
813.274	133.63
813.453	190.97
813.632	246.27
813.811	203.26
813.989	219.64
814.168	180.73
814.347	158.21
814.526	205.31
814.704	139.77
814.883	164.35
815.062	164.35
815.24	195.07
815.419	143.87
815.598	109.05
815.776	152.06
815.955	143.87
816.133	150.01
816.312	229.88
816.49	123.39
816.669	201.21
816.847	180.73
817.026	233.98
817.204	135.68
817.383	197.12
817.561	186.88
817.74	195.07
817.918	90.62
818.097	184.83
818.275	158.21
818.453	94.72
818.632	133.63
818.81	145.92
818.988	96.77
819.167	147.97
819.345	156.16
819.523	197.12
819.701	104.96
819.879	152.06
820.058	147.97
820.236	166.4
820.414	178.69
820.592	145.92
820.77	86.53
820.948	137.73
821.127	150.01
821.305	139.77
821.483	195.07
821.661	225.79
821.839	154.11
822.017	207.36
822.195	176.64
822.373	213.5
822.551	152.06
822.729	172.54
822.907	152.06
823.085	125.44
823.262	55.81
823.44	121.34
823.618	82.43
823.796	127.49
823.974	176.64
824.152	117.25
824.329	186.88
824.507	102.91
824.685	203.26
824.863	88.57
825.04	139.77
825.218	129.53
825.396	125.44
825.574	145.92
825.751	141.82
825.929	107.01
826.107	100.86
826.284	137.73
826.462	115.2
826.639	111.1
826.817	139.77
826.994	98.81
827.172	59.9
827.349	102.91
827.527	154.11
827.704	160.25
827.882	64
828.059	86.53
828.237	61.95
828.414	117.25
828.591	53.76
828.769	141.82
828.946	154.11
829.124	127.49
829.301	107.01
829.478	129.53
829.655	145.92
829.833	127.49
830.01	150.01
830.187	86.53
830.364	147.97
830.542	88.57
830.719	147.97
830.896	111.1
831.073	119.29
831.25	160.25
831.427	88.57
831.604	90.62
831.782	115.2
831.959	139.77
832.136	113.15
832.313	117.25
832.49	96.77
832.667	47.62
832.844	64
833.021	137.73
833.198	90.62
833.374	86.53
833.551	100.86
833.728	33.28
833.905	53.76
834.082	84.48
834.259	82.43
834.436	78.33
834.612	78.33
834.789	49.66
834.966	172.54
835.143	129.53
835.319	64
835.496	76.29
835.673	117.25
835.85	82.43
836.026	109.05
836.203	113.15
836.38	70.14
836.556	131.58
836.733	25.09
836.909	119.29
837.086	61.95
837.262	33.28
837.439	41.47
837.616	70.14
837.792	70.14
837.968	8.7
838.145	127.49
838.321	35.33
838.498	64
838.674	115.2
838.851	70.14
839.027	51.71
839.203	86.53
839.38	49.66
839.556	88.57
839.732	35.33
839.909	139.77
840.085	23.04
840.261	31.23
840.437	74.24
840.614	53.76
840.79	78.33
840.966	53.76
841.142	31.23
841.318	90.62
841.494	82.43
841.671	72.19
841.847	64
842.023	49.66
842.199	109.05
842.375	78.33
842.551	39.42
842.727	84.48
842.903	135.68
843.079	127.49
843.255	47.62
843.431	37.38
843.607	78.33
843.783	49.66
843.959	41.47
844.134	59.9
844.31	143.87
844.486	25.09
844.662	76.29
844.838	107.01
845.013	45.57
845.189	-9.73
845.365	61.95
845.541	8.7
845.716	33.28
845.892	41.47
846.068	6.66
846.244	6.66
846.419	70.14
846.595	-36.35
846.77	-5.63
846.946	82.43
847.122	70.14
847.297	14.85
847.473	98.81
847.648	10.75
847.824	74.24
847.999	31.23
848.175	117.25
848.35	86.53
848.526	35.33
848.701	104.96
848.876	-22.02
849.052	57.86
849.227	53.76
849.403	78.33
849.578	23.04
849.753	59.9
849.929	92.67
850.104	37.38
850.279	61.95
850.454	88.57
850.63	16.9
850.805	82.43
850.98	68.09
851.155	57.86
851.33	6.66
851.505	57.86
851.681	37.38
851.856	49.66
852.031	45.57
852.206	57.86
852.381	57.86
852.556	-40.45
852.731	41.47
852.906	51.71
853.081	27.14
853.256	66.05
853.431	45.57
853.606	59.9
853.781	-11.78
853.956	-32.26
854.131	23.04
854.305	16.9
854.48	45.57
854.655	14.85
854.83	-3.58
855.005	-30.21
855.18	29.18
855.354	8.7
855.529	31.23
855.704	2.56
855.879	53.76
856.053	-26.11
856.228	-22.02
856.403	23.04
856.577	16.9
856.752	39.42
856.926	6.66
857.101	6.66
857.276	16.9
857.45	14.85
857.625	49.66
857.799	64
857.974	84.48
858.148	6.66
858.323	-15.87
858.497	31.23
858.672	57.86
858.846	84.48
859.02	-3.58
859.195	-34.3
859.369	100.86
859.543	8.7
859.718	76.29
859.892	-38.4
860.066	43.52
860.241	-7.68
860.415	-24.06
860.589	12.8
860.763	33.28
860.938	-22.02
861.112	45.57
861.286	39.42
861.46	-13.82
861.634	35.33
861.808	100.86
861.982	70.14
862.157	-32.26
862.331	70.14
862.505	12.8
862.679	55.81
862.853	61.95
863.027	18.94
863.201	64
863.375	49.66
863.549	12.8
863.722	33.28
863.896	68.09
864.07	-7.68
864.244	-15.87
864.418	-40.45
864.592	20.99
864.766	-19.97
864.939	80.38
865.113	61.95
865.287	123.39
865.461	37.38
865.634	31.23
865.808	2.56
865.982	107.01
866.156	-11.78
866.329	23.04
866.503	-5.63
866.676	82.43
866.85	20.99
867.024	-52.74
867.197	45.57
867.371	61.95
867.544	-17.92
867.718	41.47
867.891	-17.92
868.065	2.56
868.238	18.94
868.412	55.81
868.585	107.01
868.759	2.56
868.932	-1.54
869.105	-15.87
869.279	33.28
869.452	6.66
869.625	49.66
869.799	43.52
869.972	23.04
870.145	39.42
870.319	61.95
870.492	64
870.665	37.38
870.838	78.33
871.011	-11.78
871.185	31.23
871.358	29.18
871.531	66.05
871.704	33.28
871.877	-13.82
872.05	129.53
872.223	-40.45
872.396	4.61
872.569	49.66
872.742	16.9
872.915	37.38
873.088	68.09
873.261	49.66
873.434	-71.17
873.607	-40.45
873.78	16.9
873.953	-48.64
874.126	-7.68
874.299	61.95
874.471	-62.98
874.644	61.95
874.817	29.18
874.99	90.62
875.163	27.14
875.335	66.05
875.508	74.24
875.681	-11.78
875.853	12.8
876.026	-77.31
876.199	-7.68
876.371	0.51
876.544	25.09
876.717	51.71
876.889	-60.93
877.062	12.8
877.234	4.61
877.407	37.38
877.579	-44.54
877.752	-34.3
877.924	-7.68
878.097	98.81
878.269	53.76
878.442	80.38
878.614	-36.35
878.786	53.76
878.959	-9.73
879.131	-11.78
879.303	-26.11
879.476	80.38
879.648	57.86
879.82	-32.26
879.993	-15.87
880.165	-1.54
880.337	-56.83
880.509	-28.16
880.681	-1.54
880.854	27.14
881.026	0.51
881.198	-7.68
881.37	-32.26
881.542	29.18
881.714	-11.78
881.886	18.94
882.058	0.51
882.23	57.86
882.402	16.9
882.574	0.51
882.746	16.9
882.918	107.01
883.09	-62.98
883.262	-34.3
883.434	23.04
883.606	-11.78
883.778	-11.78
883.95	125.44
884.122	-50.69
884.293	55.81
884.465	59.9
884.637	-13.82
884.809	-71.17
884.98	57.86
885.152	-36.35
885.324	33.28
885.496	10.75
885.667	10.75
885.839	4.61
886.011	-15.87
886.182	16.9
886.354	-11.78
886.525	14.85
886.697	0.51
886.869	20.99
887.04	-36.35
887.212	14.85
887.383	43.52
887.555	33.28
887.726	31.23
887.897	14.85
888.069	-22.02
888.24	-17.92
888.412	-36.35
888.583	-50.69
888.754	-9.73
888.926	-75.26
889.097	16.9
889.268	-15.87
889.44	25.09
889.611	12.8
889.782	18.94
889.953	-34.3
890.125	4.61
890.296	-3.58
890.467	25.09
890.638	78.33
890.809	39.42
890.98	-17.92
891.151	88.57
891.323	33.28
891.494	0.51
891.665	-56.83
891.836	-9.73
892.007	16.9
892.178	27.14
892.349	-28.16
892.52	-44.54
892.691	-11.78
892.862	-32.26
893.032	27.14
893.203	-17.92
893.374	-40.45
893.545	45.57
893.716	-44.54
893.887	-9.73
894.057	18.94
894.228	12.8
894.399	-58.88
894.57	27.14
894.74	31.23
894.911	-13.82
895.082	64
895.253	-52.74
895.423	66.05
895.594	20.99
895.764	-7.68
895.935	45.57
896.106	20.99
896.276	10.75
896.447	-30.21
896.617	-19.97
896.788	-3.58
896.958	4.61
897.129	57.86
897.299	-56.83
897.47	-3.58
897.64	4.61
897.81	18.94
897.981	25.09
898.151	-71.17
898.322	-1.54
898.492	-40.45
898.662	29.18
898.832	-99.84
899.003	10.75
899.173	59.9
899.343	2.56
899.513	-24.06
