Data from USB4F104151__174__11-09-23-524.txt Node

Date: Wed Mar 12 11:09:23 EDT 2025
User: louis
Spectrometer: USB4F10415
Trigger mode: 4
Integration Time (sec): 2.000000E-2
Scans to average: 1
Electric dark correction enabled: true
Nonlinearity correction enabled: false
Boxcar width: 0
XAxis mode: Wavelengths
Number of Pixels in Spectrum: 3648
>>>>>Begin Spectral Data<<<<<
178.204	-84.65
178.424	-84.65
178.644	-84.65
178.864	-105.13
179.084	-101.03
179.304	-0.68
179.524	-43.69
179.744	52.56
179.964	21.85
180.184	19.8
180.404	44.37
180.624	7.51
180.844	-37.55
181.064	-27.31
181.283	-2.73
181.503	-41.64
181.723	7.51
181.943	25.94
182.163	-15.02
182.383	-0.68
182.602	-8.87
182.822	60.76
183.042	-17.07
183.262	-17.07
183.482	36.18
183.701	32.08
183.921	11.61
184.141	-35.5
184.361	-58.03
184.58	19.8
184.8	13.65
185.02	77.14
185.239	19.8
185.459	23.89
185.679	64.85
185.898	21.85
186.118	56.66
186.338	17.75
186.557	38.23
186.777	-6.83
186.997	25.94
187.216	36.18
187.436	30.04
187.655	-21.16
187.875	25.94
188.095	-0.68
188.314	89.43
188.534	58.71
188.753	42.32
188.973	-8.87
189.192	36.18
189.412	5.46
189.631	21.85
189.851	-8.87
190.07	116.05
190.29	13.65
190.509	-31.4
190.729	-29.35
190.948	60.76
191.168	120.15
191.387	-12.97
191.607	-0.68
191.826	-2.73
192.045	36.18
192.265	73.04
192.484	-10.92
192.704	40.28
192.923	-55.98
193.142	36.18
193.362	7.51
193.581	-33.45
193.8	21.85
194.02	89.43
194.239	15.7
194.458	42.32
194.678	27.99
194.897	-8.87
195.116	-39.59
195.335	-6.83
195.555	93.52
195.774	-21.16
195.993	25.94
196.212	-2.73
196.432	21.85
196.651	75.09
196.87	-17.07
197.089	36.18
197.308	-76.46
197.528	71
197.747	36.18
197.966	1.37
198.185	42.32
198.404	62.8
198.623	5.46
198.842	25.94
199.062	7.51
199.281	54.61
199.5	52.56
199.719	23.89
199.938	38.23
200.157	36.18
200.376	-4.78
200.595	60.76
200.814	30.04
201.033	34.13
201.252	73.04
201.471	116.05
201.69	-19.11
201.909	38.23
202.128	48.47
202.347	40.28
202.566	-31.4
202.785	11.61
203.004	19.8
203.223	120.15
203.442	75.09
203.661	15.7
203.879	36.18
204.098	17.75
204.317	1.37
204.536	77.14
204.755	23.89
204.974	-4.78
205.193	-10.92
205.411	91.48
205.63	34.13
205.849	-47.79
206.068	62.8
206.287	-21.16
206.505	-33.45
206.724	-60.07
206.943	-19.11
207.162	13.65
207.381	42.32
207.599	85.33
207.818	66.9
208.037	15.7
208.255	11.61
208.474	-33.45
208.693	13.65
208.911	-4.78
209.13	40.28
209.349	13.65
209.567	54.61
209.786	11.61
210.005	5.46
210.223	-19.11
210.442	-2.73
210.661	-2.73
210.879	-47.79
211.098	-27.31
211.316	11.61
211.535	30.04
211.753	19.8
211.972	-10.92
212.191	40.28
212.409	36.18
212.628	15.7
212.846	1.37
213.065	64.85
213.283	83.28
213.502	-10.92
213.72	21.85
213.938	-35.5
214.157	9.56
214.375	7.51
214.594	54.61
214.812	-25.26
215.031	25.94
215.249	40.28
215.467	27.99
215.686	-6.83
215.904	27.99
216.122	40.28
216.341	79.19
216.559	-43.69
216.778	42.32
216.996	116.05
217.214	75.09
217.432	21.85
217.651	3.41
217.869	56.66
218.087	38.23
218.306	1.37
218.524	58.71
218.742	13.65
218.96	105.81
219.179	75.09
219.397	60.76
219.615	62.8
219.833	-55.98
220.051	48.47
220.27	-8.87
220.488	-17.07
220.706	48.47
220.924	19.8
221.142	-8.87
221.36	11.61
221.578	34.13
221.796	13.65
222.015	11.61
222.233	-43.69
222.451	1.37
222.669	-33.45
222.887	13.65
223.105	-0.68
223.323	-49.83
223.541	68.95
223.759	5.46
223.977	-53.93
224.195	-43.69
224.413	66.9
224.631	38.23
224.849	58.71
225.067	75.09
225.285	5.46
225.503	-6.83
225.721	-68.27
225.939	71
226.157	91.48
226.375	62.8
226.592	-55.98
226.81	-51.88
227.028	-0.68
227.246	44.37
227.464	-37.55
227.682	27.99
227.9	54.61
228.117	3.41
228.335	42.32
228.553	-2.73
228.771	9.56
228.989	-72.36
229.206	1.37
229.424	-33.45
229.642	-29.35
229.86	34.13
230.077	27.99
230.295	5.46
230.513	46.42
230.731	40.28
230.948	54.61
231.166	79.19
231.384	-55.98
231.601	111.96
231.819	25.94
232.037	38.23
232.254	-2.73
232.472	58.71
232.689	19.8
232.907	56.66
233.125	34.13
233.342	54.61
233.56	21.85
233.777	79.19
233.995	7.51
234.213	-29.35
234.43	34.13
234.648	30.04
234.865	21.85
235.083	23.89
235.3	73.04
235.518	9.56
235.735	15.7
235.953	9.56
236.17	60.76
236.388	11.61
236.605	42.32
236.822	93.52
237.04	50.52
237.257	77.14
237.475	15.7
237.692	13.65
237.909	-29.35
238.127	-45.74
238.344	48.47
238.562	-2.73
238.779	11.61
238.996	11.61
239.214	62.8
239.431	42.32
239.648	23.89
239.865	-12.97
240.083	46.42
240.3	23.89
240.517	3.41
240.735	-12.97
240.952	7.51
241.169	23.89
241.386	68.95
241.603	38.23
241.821	-10.92
242.038	36.18
242.255	-19.11
242.472	15.7
242.689	-6.83
242.907	79.19
243.124	1.37
243.341	154.96
243.558	-55.98
243.775	17.75
243.992	60.76
244.209	-2.73
244.426	50.52
244.643	50.52
244.86	-70.31
245.078	11.61
245.295	-25.26
245.512	38.23
245.729	25.94
245.946	13.65
246.163	11.61
246.38	81.24
246.597	3.41
246.814	73.04
247.031	81.24
247.248	62.8
247.464	-33.45
247.681	48.47
247.898	-2.73
248.115	85.33
248.332	38.23
248.549	30.04
248.766	105.81
248.983	42.32
249.2	-6.83
249.417	-2.73
249.633	9.56
249.85	36.18
250.067	77.14
250.284	81.24
250.501	34.13
250.717	83.28
250.934	23.89
251.151	-8.87
251.368	48.47
251.585	73.04
251.801	46.42
252.018	-27.31
252.235	116.05
252.451	32.08
252.668	-15.02
252.885	34.13
253.102	-29.35
253.318	-10.92
253.535	15.7
253.752	40.28
253.968	-35.5
254.185	-4.78
254.401	81.24
254.618	-2.73
254.835	-2.73
255.051	79.19
255.268	27.99
255.484	91.48
255.701	56.66
255.917	-8.87
256.134	34.13
256.351	91.48
256.567	34.13
256.784	30.04
257	19.8
257.217	87.38
257.433	-19.11
257.65	21.85
257.866	71
258.082	-23.21
258.299	27.99
258.515	17.75
258.732	15.7
258.948	-47.79
259.165	46.42
259.381	42.32
259.597	-12.97
259.814	73.04
260.03	27.99
260.246	32.08
260.463	36.18
260.679	52.56
260.895	-33.45
261.112	30.04
261.328	3.41
261.544	3.41
261.761	9.56
261.977	17.75
262.193	-2.73
262.409	60.76
262.626	1.37
262.842	40.28
263.058	36.18
263.274	58.71
263.49	7.51
263.707	34.13
263.923	-0.68
264.139	7.51
264.355	-17.07
264.571	34.13
264.787	44.37
265.004	-8.87
265.22	7.51
265.436	27.99
265.652	-10.92
265.868	30.04
266.084	19.8
266.3	34.13
266.516	17.75
266.732	42.32
266.948	64.85
267.164	19.8
267.38	46.42
267.596	-25.26
267.812	60.76
268.028	99.67
268.244	-29.35
268.46	64.85
268.676	9.56
268.892	32.08
269.108	66.9
269.324	42.32
269.54	25.94
269.756	-8.87
269.972	54.61
270.188	-25.26
270.403	-6.83
270.619	64.85
270.835	52.56
271.051	-8.87
271.267	79.19
271.483	27.99
271.698	19.8
271.914	-23.21
272.13	9.56
272.346	77.14
272.562	30.04
272.777	105.81
272.993	-47.79
273.209	19.8
273.425	5.46
273.64	30.04
273.856	52.56
274.072	54.61
274.287	15.7
274.503	56.66
274.719	34.13
274.934	75.09
275.15	-12.97
275.366	40.28
275.581	23.89
275.797	75.09
276.012	60.76
276.228	3.41
276.444	81.24
276.659	-0.68
276.875	-8.87
277.09	40.28
277.306	5.46
277.521	13.65
277.737	71
277.952	-6.83
278.168	-6.83
278.383	79.19
278.599	19.8
278.814	11.61
279.03	17.75
279.245	36.18
279.461	52.56
279.676	1.37
279.892	5.46
280.107	48.47
280.322	34.13
280.538	40.28
280.753	91.48
280.969	48.47
281.184	34.13
281.399	15.7
281.615	27.99
281.83	-47.79
282.045	-21.16
282.26	-2.73
282.476	34.13
282.691	75.09
282.906	46.42
283.122	52.56
283.337	27.99
283.552	30.04
283.767	44.37
283.983	64.85
284.198	34.13
284.413	62.8
284.628	17.75
284.843	1.37
285.058	7.51
285.274	38.23
285.489	5.46
285.704	5.46
285.919	-2.73
286.134	-4.78
286.349	7.51
286.564	32.08
286.779	-0.68
286.995	103.76
287.21	52.56
287.425	52.56
287.64	81.24
287.855	75.09
288.07	-2.73
288.285	44.37
288.5	50.52
288.715	25.94
288.93	-6.83
289.145	9.56
289.36	75.09
289.575	-12.97
289.79	9.56
290.004	27.99
290.219	64.85
290.434	46.42
290.649	7.51
290.864	13.65
291.079	101.72
291.294	54.61
291.509	75.09
291.724	34.13
291.938	66.9
292.153	-49.83
292.368	-2.73
292.583	-19.11
292.798	-4.78
293.012	-2.73
293.227	54.61
293.442	27.99
293.657	13.65
293.871	-6.83
294.086	30.04
294.301	105.81
294.516	56.66
294.73	38.23
294.945	-23.21
295.16	58.71
295.374	99.67
295.589	87.38
295.804	34.13
296.018	9.56
296.233	9.56
296.447	-17.07
296.662	21.85
296.877	46.42
297.091	-0.68
297.306	13.65
297.52	-31.4
297.735	64.85
297.949	-17.07
298.164	91.48
298.378	27.99
298.593	68.95
298.807	1.37
299.022	30.04
299.236	50.52
299.451	-2.73
299.665	48.47
299.88	-21.16
300.094	81.24
300.309	79.19
300.523	48.47
300.737	25.94
300.952	5.46
301.166	1.37
301.381	64.85
301.595	23.89
301.809	23.89
302.024	7.51
302.238	17.75
302.452	87.38
302.667	48.47
302.881	58.71
303.095	17.75
303.309	79.19
303.524	-0.68
303.738	3.41
303.952	50.52
304.166	5.46
304.381	-0.68
304.595	46.42
304.809	-45.74
305.023	56.66
305.237	30.04
305.452	-47.79
305.666	114
305.88	30.04
306.094	27.99
306.308	46.42
306.522	44.37
306.736	-33.45
306.95	13.65
307.164	-10.92
307.379	30.04
307.593	9.56
307.807	-4.78
308.021	66.9
308.235	75.09
308.449	-19.11
308.663	27.99
308.877	95.57
309.091	48.47
309.305	-21.16
309.519	48.47
309.733	30.04
309.947	73.04
310.161	-25.26
310.374	40.28
310.588	1.37
310.802	1.37
311.016	68.95
311.23	-15.02
311.444	73.04
311.658	32.08
311.872	25.94
312.085	13.65
312.299	21.85
312.513	-2.73
312.727	30.04
312.941	66.9
313.154	58.71
313.368	-0.68
313.582	-0.68
313.796	44.37
314.009	62.8
314.223	19.8
314.437	30.04
314.651	-19.11
314.864	52.56
315.078	-58.03
315.292	-0.68
315.505	-55.98
315.719	42.32
315.933	1.37
316.146	25.94
316.36	44.37
316.573	25.94
316.787	52.56
317.001	-19.11
317.214	60.76
317.428	-39.59
317.641	-19.11
317.855	-15.02
318.068	-47.79
318.282	-43.69
318.495	60.76
318.709	-8.87
318.922	17.75
319.136	1.37
319.349	40.28
319.563	-23.21
319.776	5.46
319.99	25.94
320.203	66.9
320.417	77.14
320.63	34.13
320.843	56.66
321.057	38.23
321.27	38.23
321.483	95.57
321.697	75.09
321.91	32.08
322.124	48.47
322.337	38.23
322.55	-23.21
322.763	25.94
322.977	-12.97
323.19	83.28
323.403	79.19
323.617	34.13
323.83	17.75
324.043	54.61
324.256	36.18
324.469	15.7
324.683	21.85
324.896	-15.02
325.109	25.94
325.322	-19.11
325.535	-19.11
325.748	46.42
325.962	7.51
326.175	75.09
326.388	11.61
326.601	15.7
326.814	9.56
327.027	-25.26
327.24	5.46
327.453	5.46
327.666	17.75
327.879	5.46
328.092	7.51
328.305	44.37
328.518	-35.5
328.731	7.51
328.944	81.24
329.157	-4.78
329.37	58.71
329.583	81.24
329.796	25.94
330.009	13.65
330.222	-4.78
330.435	5.46
330.648	60.76
330.861	1.37
331.073	13.65
331.286	111.96
331.499	17.75
331.712	-35.5
331.925	75.09
332.138	54.61
332.35	19.8
332.563	23.89
332.776	42.32
332.989	19.8
333.202	52.56
333.414	-2.73
333.627	38.23
333.84	-33.45
334.053	64.85
334.265	-23.21
334.478	-2.73
334.691	114
334.903	25.94
335.116	75.09
335.329	5.46
335.541	42.32
335.754	34.13
335.966	1.37
336.179	25.94
336.392	7.51
336.604	-21.16
336.817	27.99
337.029	34.13
337.242	9.56
337.454	36.18
337.667	50.52
337.88	101.72
338.092	44.37
338.305	34.13
338.517	-49.83
338.729	60.76
338.942	-12.97
339.154	17.75
339.367	73.04
339.579	-27.31
339.792	13.65
340.004	38.23
340.217	-12.97
340.429	-17.07
340.641	-0.68
340.854	23.89
341.066	32.08
341.278	111.96
341.491	54.61
341.703	21.85
341.915	87.38
342.128	23.89
342.34	71
342.552	-41.64
342.764	17.75
342.977	52.56
343.189	79.19
343.401	7.51
343.613	15.7
343.826	89.43
344.038	9.56
344.25	44.37
344.462	21.85
344.674	56.66
344.886	19.8
345.099	40.28
345.311	46.42
345.523	-8.87
345.735	48.47
345.947	89.43
346.159	62.8
346.371	11.61
346.583	25.94
346.795	-17.07
347.007	52.56
347.219	44.37
347.431	30.04
347.643	58.71
347.855	58.71
348.067	99.67
348.279	19.8
348.491	30.04
348.703	-31.4
348.915	36.18
349.127	-27.31
349.339	-45.74
349.551	38.23
349.763	30.04
349.975	71
350.187	52.56
350.399	-4.78
350.61	73.04
350.822	15.7
351.034	-37.55
351.246	36.18
351.458	-6.83
351.669	44.37
351.881	44.37
352.093	83.28
352.305	21.85
352.517	42.32
352.728	95.57
352.94	81.24
353.152	44.37
353.363	-49.83
353.575	68.95
353.787	58.71
353.999	64.85
354.21	60.76
354.422	50.52
354.633	9.56
354.845	40.28
355.057	21.85
355.268	93.52
355.48	62.8
355.692	-0.68
355.903	-6.83
356.115	42.32
356.326	60.76
356.538	126.29
356.749	-4.78
356.961	81.24
357.172	42.32
357.384	-62.12
357.595	21.85
357.807	60.76
358.018	-19.11
358.23	73.04
358.441	42.32
358.653	5.46
358.864	23.89
359.075	34.13
359.287	-0.68
359.498	48.47
359.709	44.37
359.921	27.99
360.132	-39.59
360.344	1.37
360.555	3.41
360.766	-19.11
360.977	52.56
361.189	62.8
361.4	40.28
361.611	44.37
361.823	34.13
362.034	23.89
362.245	3.41
362.456	-35.5
362.667	126.29
362.879	91.48
363.09	-2.73
363.301	38.23
363.512	-0.68
363.723	5.46
363.935	-25.26
364.146	40.28
364.357	48.47
364.568	97.62
364.779	-6.83
364.99	68.95
365.201	-53.93
365.412	87.38
365.623	34.13
365.834	36.18
366.045	-21.16
366.256	11.61
366.467	60.76
366.678	44.37
366.889	68.95
367.1	44.37
367.311	-2.73
367.522	-10.92
367.733	-41.64
367.944	50.52
368.155	-23.21
368.366	75.09
368.577	13.65
368.788	23.89
368.999	58.71
369.209	56.66
369.42	91.48
369.631	99.67
369.842	30.04
370.053	64.85
370.264	-8.87
370.474	21.85
370.685	23.89
370.896	42.32
371.107	46.42
371.317	75.09
371.528	17.75
371.739	99.67
371.95	-37.55
372.16	23.89
372.371	9.56
372.582	-6.83
372.792	68.95
373.003	32.08
373.214	11.61
373.424	13.65
373.635	85.33
373.846	48.47
374.056	38.23
374.267	62.8
374.477	17.75
374.688	13.65
374.898	19.8
375.109	46.42
375.319	64.85
375.53	-6.83
375.74	66.9
375.951	-2.73
376.161	56.66
376.372	40.28
376.582	75.09
376.793	-25.26
377.003	30.04
377.214	30.04
377.424	89.43
377.635	58.71
377.845	-12.97
378.055	-21.16
378.266	-12.97
378.476	91.48
378.686	19.8
378.897	-6.83
379.107	54.61
379.317	68.95
379.528	34.13
379.738	95.57
379.948	13.65
380.158	21.85
380.369	46.42
380.579	17.75
380.789	25.94
380.999	71
381.21	42.32
381.42	36.18
381.63	9.56
381.84	107.86
382.05	25.94
382.261	34.13
382.471	109.91
382.681	71
382.891	120.15
383.101	52.56
383.311	32.08
383.521	-12.97
383.731	-6.83
383.941	50.52
384.151	85.33
384.361	89.43
384.571	52.56
384.781	-0.68
384.991	21.85
385.201	60.76
385.411	7.51
385.621	-72.36
385.831	-68.27
386.041	38.23
386.251	54.61
386.461	46.42
386.671	32.08
386.881	-2.73
387.091	27.99
387.301	83.28
387.511	32.08
387.72	-27.31
387.93	73.04
388.14	46.42
388.35	38.23
388.56	77.14
388.769	21.85
388.979	103.76
389.189	-37.55
389.399	142.68
389.609	58.71
389.818	62.8
390.028	77.14
390.238	25.94
390.447	44.37
390.657	50.52
390.867	-31.4
391.076	21.85
391.286	11.61
391.496	-6.83
391.705	36.18
391.915	87.38
392.125	73.04
392.334	3.41
392.544	32.08
392.753	79.19
392.963	23.89
393.172	91.48
393.382	36.18
393.591	68.95
393.801	60.76
394.01	36.18
394.22	140.63
394.429	34.13
394.639	83.28
394.848	124.24
395.058	89.43
395.267	15.7
395.477	36.18
395.686	101.72
395.895	81.24
396.105	118.1
396.314	66.9
396.524	27.99
396.733	95.57
396.942	140.63
397.152	83.28
397.361	64.85
397.57	23.89
397.78	81.24
397.989	87.38
398.198	177.49
398.407	77.14
398.617	87.38
398.826	68.95
399.035	85.33
399.244	136.53
399.453	130.39
399.663	79.19
399.872	128.34
400.081	71
400.29	118.1
400.499	97.62
400.708	111.96
400.917	148.82
401.127	157.01
401.336	130.39
401.545	136.53
401.754	111.96
401.963	58.71
402.172	97.62
402.381	25.94
402.59	111.96
402.799	120.15
403.008	163.15
403.217	175.44
403.426	124.24
403.635	52.56
403.844	73.04
404.053	161.11
404.262	134.48
404.471	120.15
404.68	130.39
404.888	99.67
405.097	105.81
405.306	148.82
405.515	87.38
405.724	99.67
405.933	118.1
406.142	118.1
406.35	140.63
406.559	101.72
406.768	136.53
406.977	165.2
407.185	148.82
407.394	204.11
407.603	161.11
407.812	210.26
408.02	171.35
408.229	173.39
408.438	132.44
408.646	165.2
408.855	224.59
409.064	128.34
409.272	132.44
409.481	183.63
409.69	243.03
409.898	300.37
410.107	232.79
410.315	283.99
410.524	204.11
410.733	245.07
410.941	210.26
411.15	308.56
411.358	367.95
411.567	341.33
411.775	298.32
411.984	288.08
412.192	243.03
412.401	353.62
412.609	386.38
412.818	365.9
413.026	441.68
413.234	394.58
413.443	415.06
413.651	376.14
413.86	396.62
414.068	490.83
414.276	507.21
414.485	472.4
414.693	496.97
414.901	542.03
415.11	474.45
415.318	589.13
415.526	564.56
415.734	576.84
415.943	558.41
416.151	628.04
416.359	574.8
416.567	630.09
416.776	703.82
416.984	779.59
417.192	748.87
417.4	716.11
417.608	732.49
417.817	771.4
418.025	836.94
418.233	822.6
418.441	857.42
418.649	906.57
418.857	836.94
419.065	1029.45
419.273	931.14
419.481	1004.87
419.689	1074.5
419.897	1131.84
420.105	1236.29
420.313	1162.56
420.521	1271.11
420.729	1232.19
420.937	1273.15
421.145	1328.45
421.353	1367.36
421.561	1447.23
421.769	1500.48
421.977	1529.15
422.185	1529.15
422.393	1586.49
422.601	1658.17
422.809	1615.16
423.017	1805.63
423.224	1733.95
423.432	1811.77
423.64	1824.06
423.848	1965.37
424.056	1985.85
424.263	2121.01
424.471	2202.93
424.679	2157.88
424.887	2348.34
425.094	2417.97
425.302	2350.39
425.51	2446.64
425.718	2475.31
425.925	2520.37
426.133	2706.73
426.341	2807.08
426.548	2944.3
426.756	2880.81
426.964	2850.09
427.171	3265.83
427.379	3181.86
427.586	3310.88
427.794	3423.52
428.001	3513.63
428.209	3708.19
428.417	3593.5
428.624	3714.33
428.832	3872.03
429.039	3781.92
429.247	3833.11
429.454	4214.04
429.662	4510.99
429.869	4183.32
430.076	4549.9
430.284	4404.5
430.491	4527.38
430.699	4693.26
430.906	4771.08
431.114	4943.11
431.321	5074.18
431.528	5063.94
431.736	5448.96
431.943	5745.92
432.15	5557.5
432.358	5678.33
432.565	5836.03
432.772	5905.66
432.979	6227.19
433.187	6415.6
433.394	6317.3
433.601	6720.75
433.808	6804.72
434.016	6704.37
434.223	7011.56
434.43	7511.27
434.637	7288.04
434.844	7769.31
435.052	7908.57
435.259	7779.55
435.466	8086.75
435.673	7783.65
435.88	8623.31
436.087	8989.9
436.294	8793.3
436.501	8862.93
436.708	8721.62
436.915	9198.79
437.122	9432.26
437.329	9522.37
437.537	9665.73
437.743	9874.62
437.95	9774.27
438.157	10183.87
438.364	10896.56
438.571	10785.97
438.778	10519.73
438.985	11928.74
439.192	11228.33
439.399	11570.34
439.606	11310.25
439.813	11996.32
440.02	12680.34
440.227	12516.5
440.433	12455.06
440.64	13196.43
440.847	12729.49
441.054	13198.48
441.261	13984.9
441.467	13520.01
441.674	14234.75
441.881	14443.64
442.088	14255.23
442.294	14271.61
442.501	15066.22
442.708	14842.99
442.914	15520.87
443.121	16323.68
443.328	15873.12
443.534	17077.33
443.741	16256.09
443.948	16311.39
444.154	17493.07
444.361	17144.91
444.568	17445.96
444.774	17480.78
444.981	17669.19
445.187	17962.05
445.394	18832.44
445.6	18783.29
445.807	20388.89
446.013	19416.11
446.22	19985.44
446.426	20753.43
446.633	21031.96
446.839	21722.12
447.046	20792.34
447.252	21847.05
447.459	21959.69
447.665	21791.75
447.871	22787.07
448.078	23358.45
448.284	22459.39
448.491	22998.01
448.697	24069.09
448.903	24400.86
449.11	24423.39
449.316	24212.45
449.522	24769.5
449.728	25170.9
449.935	25170.9
450.141	25279.44
450.347	25930.7
450.553	25185.24
450.76	25189.33
450.966	25996.23
451.172	25738.19
451.378	26495.94
451.584	26256.32
451.791	26555.33
451.997	26536.9
452.203	26985.4
452.409	27026.36
452.615	26962.87
452.821	25904.07
453.027	25672.65
453.233	27157.43
453.44	25750.48
453.646	26188.74
453.852	26409.92
454.058	26528.7
454.264	25940.94
454.47	26352.58
454.676	25844.68
454.882	26715.07
455.088	24269.79
455.294	24787.93
455.5	25369.55
455.705	25250.77
455.911	24402.91
456.117	23763.95
456.323	23510
456.529	22101
456.735	23350.26
456.941	22668.28
457.147	22453.25
457.352	21312.53
457.558	21388.3
457.764	21160.98
457.97	21128.21
458.176	20427.81
458.381	20448.29
458.587	19432.49
458.793	19614.76
458.999	18605.11
459.204	19782.7
459.41	19385.39
459.616	17822.79
459.821	18021.44
460.027	18056.26
460.233	17452.11
460.438	16520.28
460.644	16639.06
460.85	15996
461.055	15799.4
461.261	15889.51
461.466	14503.03
461.672	14337.15
461.878	15486.06
462.083	14130.3
462.289	13941.89
462.494	13628.55
462.7	13276.3
462.905	12895.38
463.111	13452.42
463.316	13544.58
463.522	13053.07
463.727	13091.98
463.932	13061.26
464.138	12766.35
464.343	12872.85
464.549	12651.67
464.754	13016.21
464.959	12893.33
465.165	12633.24
465.37	12362.9
465.575	11836.58
465.781	12659.86
465.986	12573.85
466.191	11816.1
466.397	11709.6
466.602	11439.27
466.807	11629.73
467.012	11711.65
467.218	11543.72
467.423	11400.36
467.628	11599.01
467.833	11883.68
468.038	11492.52
468.244	11277.48
468.449	11605.16
468.654	11320.49
468.859	11445.41
469.064	11064.49
469.269	10683.57
469.474	10699.95
469.679	10935.47
469.885	10669.23
470.09	10734.77
470.295	10679.47
470.5	10484.92
470.705	10464.44
470.91	10206.39
471.115	10226.87
471.32	10452.15
471.525	10280.12
471.73	10028.22
471.935	10095.8
472.139	9608.39
472.344	9850.05
472.549	9532.61
472.754	9516.23
472.959	9303.24
473.164	9151.69
473.369	9127.11
473.574	9501.89
473.778	9383.11
473.983	9403.59
474.188	9127.11
474.393	8748.24
474.598	8768.72
474.802	8690.9
475.007	8617.17
475.212	8684.75
475.417	8404.18
475.621	8449.24
475.826	8281.3
476.031	8207.58
476.235	8013.02
476.44	8142.04
476.645	8015.07
476.849	7933.15
477.054	8021.21
477.259	7810.27
477.463	7873.76
477.668	7783.65
477.872	7730.4
478.077	7558.37
478.282	7423.2
478.486	7464.16
478.691	7425.25
478.895	7376.1
479.1	7224.55
479.304	7396.58
479.509	7093.48
479.713	7107.82
479.918	7062.76
480.122	7023.85
480.326	7128.3
480.531	7128.3
480.735	7070.95
480.94	6821.1
481.144	7038.19
481.348	6690.03
481.553	6960.36
481.757	6745.33
481.961	6589.68
482.166	6886.64
482.37	6894.83
482.574	6759.66
482.778	6616.3
482.983	6835.44
483.187	6726.89
483.391	6597.87
483.595	6726.89
483.8	6704.37
484.004	6759.66
484.208	6769.9
484.412	6796.53
484.616	6872.3
484.821	6872.3
485.025	6589.68
485.229	6720.75
485.433	6735.09
485.637	6771.95
485.841	6833.39
486.045	6595.82
486.249	6687.98
486.453	6626.54
486.657	6821.1
486.861	6714.61
487.065	6497.52
487.269	6708.46
487.473	6739.18
487.677	6489.33
487.881	6722.8
488.085	6647.02
488.289	6872.3
488.493	6634.74
488.697	6743.28
488.901	6905.07
489.105	6716.65
489.309	6894.83
489.512	6878.44
489.716	6833.39
489.92	6796.53
490.124	6739.18
490.328	6989.03
490.531	6878.44
490.735	6986.99
490.939	6976.75
491.143	6870.25
491.346	6806.77
491.55	7011.56
491.754	6911.21
491.958	6972.65
492.161	7062.76
492.365	7105.77
492.569	6896.88
492.772	6997.23
492.976	7238.89
493.18	7222.5
493.383	7195.88
493.587	7423.2
493.79	7394.53
493.994	7324.9
494.197	7406.82
494.401	7447.78
494.605	7498.98
494.808	7537.89
495.012	7660.77
495.215	7613.67
495.419	7718.11
495.622	7732.45
495.825	7890.14
496.029	7668.96
496.232	7775.45
496.436	7800.03
496.639	8172.76
496.843	7972.06
497.046	8176.86
497.249	8244.44
497.453	8402.13
497.656	8537.3
497.859	8428.76
498.063	8588.5
498.266	8735.95
498.469	8787.15
498.673	8563.92
498.876	8879.31
499.079	8975.56
499.282	9176.27
499.485	9182.41
499.689	9239.75
499.892	9411.78
500.095	9391.3
500.298	9598.15
500.501	9626.82
500.705	9870.53
500.908	10017.98
501.111	10005.69
501.314	10013.88
501.517	10104
501.72	10314.94
501.923	10366.14
502.126	10478.77
502.329	10876.08
502.532	10710.19
502.735	10794.16
502.938	11050.16
503.141	11021.49
503.344	11095.21
503.547	11142.32
503.75	11451.56
503.953	11648.16
504.156	11795.62
504.359	11656.36
504.562	12070.05
504.765	12088.48
504.968	12192.92
505.17	12446.87
505.373	12223.64
505.576	12565.65
505.779	12706.96
505.982	12848.27
506.185	13108.37
506.387	12917.9
506.59	13130.89
506.793	13413.51
506.996	13454.47
507.198	14007.42
507.401	13399.18
507.604	13751.43
507.807	14042.24
508.009	14120.06
508.212	14435.45
508.415	14578.81
508.617	14933.11
508.82	14818.42
509.022	14822.52
509.225	15117.42
509.428	15244.4
509.63	15170.67
509.833	15242.35
510.035	15940.71
510.238	15518.82
510.44	15993.95
510.643	16276.57
510.845	16338.01
511.048	16485.47
511.25	16725.08
511.453	16645.21
511.655	17331.28
511.858	17237.07
512.06	17183.82
512.262	17400.91
512.465	17534.03
512.667	17935.43
512.87	17722.44
513.072	17968.2
513.274	18490.43
513.477	18420.8
513.679	18652.22
513.881	18664.5
514.084	18922.55
514.286	18820.15
514.488	19156.02
514.69	19737.64
514.893	19477.55
515.095	19934.25
515.297	20151.33
515.499	19942.44
515.701	20046.88
515.904	20698.14
516.106	20749.34
516.308	21154.83
516.51	21425.17
516.712	21376.02
516.914	21400.59
517.116	21849.1
517.318	21902.34
517.52	22158.34
517.722	22170.63
517.925	22565.88
518.127	22696.95
518.329	22727.67
518.531	22633.47
518.733	23491.57
518.935	23290.87
519.136	23514.09
519.338	23849.96
519.54	24054.76
519.742	24095.72
519.944	24108.01
520.146	24675.29
520.348	24789.98
520.55	24908.76
520.752	24839.13
520.954	25709.52
521.155	25195.48
521.357	25308.12
521.559	25879.5
521.761	25969.61
521.963	26104.77
522.164	26725.31
522.366	26479.55
522.568	27077.56
522.77	26772.41
522.971	27204.53
523.173	27216.82
523.375	27298.74
523.576	27315.12
523.778	27446.19
523.98	27855.79
524.181	27921.32
524.383	27927.47
524.584	28283.81
524.786	28330.92
524.988	28285.86
525.189	28744.61
525.391	28867.48
525.592	29066.14
525.794	29002.65
525.995	29395.86
526.197	29365.14
526.398	28916.64
526.6	29285.27
526.801	29705.1
527.003	29997.96
527.204	30124.94
527.406	30094.22
527.607	30098.31
527.808	30546.82
528.01	30235.53
528.211	30163.85
528.412	31150.97
528.614	30710.66
528.815	30509.96
529.016	31441.78
529.218	30593.92
529.419	31257.46
529.62	31040.38
529.822	31226.74
530.023	31179.64
530.224	31120.25
530.425	31247.22
530.626	30989.18
530.828	31003.52
531.029	31632.24
531.23	31443.83
531.431	31654.77
531.632	31822.7
531.833	31546.23
532.035	31732.59
532.236	31503.22
532.437	31591.28
532.638	31681.39
532.839	31703.92
533.04	31849.33
533.241	31730.55
533.442	32189.29
533.643	31914.86
533.844	31990.64
534.045	32205.67
534.246	32099.18
534.447	32025.45
534.648	31861.62
534.849	32013.16
535.05	31929.2
535.251	32408.42
535.451	32154.47
535.652	31953.77
535.853	32152.43
536.054	32197.48
536.255	32277.35
536.456	31787.89
536.657	32459.62
536.857	32191.34
537.058	31986.54
537.259	32574.31
537.46	32447.33
537.66	32293.74
537.861	32201.58
538.062	32179.05
538.263	32011.12
538.463	31746.93
538.664	32332.65
538.865	32238.44
539.065	32426.85
539.266	32129.9
539.466	32328.55
539.667	31970.16
539.868	32779.11
540.068	32170.86
540.269	32095.08
540.469	32152.43
540.67	32080.75
540.87	32246.63
541.071	31998.83
541.271	32164.71
541.472	32242.54
541.672	31851.38
541.873	31763.31
542.073	32047.98
542.274	32344.94
542.474	31859.57
542.675	32072.56
542.875	32314.22
543.075	31769.46
543.276	31456.12
543.476	32463.72
543.676	31875.95
543.877	31982.45
544.077	32115.56
544.277	31777.65
544.478	31679.35
544.678	32387.94
544.878	32209.77
545.078	32021.36
545.279	31724.4
545.479	31681.39
545.679	32039.79
545.879	32287.59
546.079	32066.41
546.28	31679.35
546.48	31658.87
546.68	32031.6
546.88	32060.27
547.08	31779.7
547.28	31947.63
547.48	32160.62
547.68	32174.95
547.88	31419.25
548.081	31898.48
548.281	31986.54
548.481	31685.49
548.681	32107.37
548.881	31699.83
549.081	31873.9
549.28	31398.77
549.48	32033.64
549.68	31849.33
549.88	31992.69
550.08	31511.41
550.28	31947.63
550.48	31572.85
550.68	31888.24
550.88	31544.18
551.08	31519.6
551.279	31708.02
551.479	31693.68
551.679	31832.94
551.879	31601.52
552.079	32074.6
552.278	31337.34
552.478	31452.02
552.678	31513.46
552.878	31929.2
553.077	31161.21
553.277	31187.83
553.477	32015.21
553.676	31423.35
553.876	31327.1
554.076	31607.67
554.275	31441.78
554.475	30993.28
554.674	31099.77
554.874	31492.98
555.074	31271.8
555.273	31349.62
555.473	31345.53
555.672	31054.72
555.872	31030.14
556.071	31140.73
556.271	31411.06
556.47	31028.09
556.67	30759.81
556.869	31095.67
557.068	31263.61
557.268	31110.01
557.467	30796.67
557.667	30987.13
557.866	30817.15
558.065	30940.03
558.265	30647.17
558.464	30438.28
558.663	30950.27
558.863	30299.01
559.062	31107.96
559.261	30172.04
559.461	30645.12
559.66	30239.62
559.859	30491.52
560.058	30155.66
560.258	30346.12
560.457	30143.37
560.656	30184.33
560.855	30149.51
561.054	30307.21
561.253	29834.13
561.453	29752.21
561.652	30151.56
561.851	30049.16
562.05	29819.79
562.249	29715.34
562.448	30200.71
562.647	29713.3
562.846	29571.99
563.045	29559.7
563.244	29549.46
563.443	29596.56
563.642	28861.34
563.841	29500.31
564.04	29311.89
564.239	29445.01
564.438	28965.79
564.637	29270.93
564.836	28902.3
565.035	28810.14
565.234	28935.07
565.432	28736.41
565.631	29137.82
565.83	29139.86
566.029	28795.81
566.228	28464.03
566.427	28765.09
566.625	28277.67
566.824	28007.34
567.023	28625.82
567.222	28220.33
567.42	28564.39
567.619	28099.5
567.818	27949.99
568.016	27747.25
568.215	28302.25
568.414	27849.64
568.612	28158.89
568.811	27788.21
569.01	28205.99
569.208	27366.32
569.407	27767.73
569.605	27476.91
569.804	27673.52
570.002	26907.58
570.201	27374.52
570.4	27294.64
570.598	26899.39
570.797	26962.87
570.995	27335.6
571.193	26579.9
571.392	27118.52
571.59	26776.51
571.789	26837.95
571.987	27018.17
572.186	26717.12
572.384	26532.8
572.582	26565.57
572.781	26819.52
572.979	26047.43
573.177	26092.49
573.376	26620.86
573.574	25992.14
573.772	26092.49
573.971	26121.16
574.169	25715.66
574.367	25975.75
574.565	25703.37
574.763	25918.41
574.962	26057.67
575.16	25240.53
575.358	25512.91
575.556	25361.36
575.754	25947.08
575.952	24957.91
576.151	25500.62
576.349	25213.91
576.547	25375.7
576.745	25035.74
576.943	25076.69
577.141	24867.8
577.339	24916.95
577.537	24832.99
577.735	24937.43
577.933	24265.7
578.131	24667.1
578.329	24452.06
578.527	24239.08
578.725	24478.69
578.923	24237.03
579.121	23886.82
579.319	24144.87
579.516	24239.08
579.714	24118.25
579.912	24085.48
580.11	24099.81
580.308	24093.67
580.506	23989.22
580.704	23219.19
580.901	23913.45
581.099	23827.43
581.297	23618.54
581.495	23458.8
581.692	23745.51
581.89	23522.29
582.088	23501.81
582.285	23362.54
582.483	23403.5
582.681	23380.98
582.878	22854.65
583.076	23122.93
583.274	22709.24
583.471	22735.87
583.669	22821.88
583.866	22752.25
584.064	22834.17
584.262	22273.03
584.459	22807.55
584.657	22635.52
584.854	22455.29
585.052	22144
585.249	22346.75
585.447	22512.64
585.644	22367.23
585.841	22387.71
586.039	22154.24
586.236	22019.08
586.434	21675.02
586.631	21621.77
586.828	21937.16
587.026	22014.98
587.223	22000.65
587.42	21449.74
587.618	21513.23
587.815	21437.45
588.012	21300.24
588.21	21320.72
588.407	21619.72
588.604	21081.11
588.801	21216.27
588.999	21240.85
589.196	21187.6
589.393	20935.7
589.59	21140.5
589.787	20984.85
589.984	20638.75
590.182	20640.79
590.379	20878.36
590.576	20677.66
590.773	20642.84
590.97	20657.18
591.167	20554.78
591.364	20317.22
591.561	20585.5
591.758	20354.08
591.955	20196.39
592.152	20210.72
592.349	20053.03
592.546	20118.56
592.743	20159.52
592.94	19692.58
593.137	19967.01
593.334	19870.76
593.531	19827.75
593.727	20020.26
593.924	19835.94
594.121	19547.18
594.318	19749.93
594.515	19555.37
594.712	19821.61
594.908	19336.24
595.105	19403.82
595.302	19344.43
595.499	19444.78
595.696	19098.67
595.892	19026.99
596.089	19336.24
596.286	18932.79
596.482	18791.48
596.679	18807.86
596.876	18971.7
597.072	18844.73
597.269	18916.4
597.466	18441.28
597.662	18478.14
597.859	18543.67
598.055	18480.19
598.252	18433.08
598.448	18326.59
598.645	18254.91
598.841	18115.65
599.038	18123.84
599.234	18381.88
599.431	18189.38
599.627	17845.32
599.824	18086.98
600.02	17937.48
600.217	17919.04
600.413	17722.44
600.609	17931.33
600.806	17773.64
601.002	17781.83
601.198	17626.18
601.395	17706.06
601.591	17400.91
601.787	17505.35
601.984	17572.94
602.18	17640.52
602.376	17204.3
602.572	17269.84
602.769	17284.17
602.965	17292.37
603.161	17069.14
603.357	17022.03
603.553	17110.1
603.75	17126.48
603.946	16620.63
604.142	16964.69
604.338	16751.7
604.534	16905.3
604.73	16755.8
604.926	16655.45
605.122	16575.58
605.318	16424.03
605.514	16362.59
605.71	16186.46
605.906	16553.05
606.102	16491.61
606.298	16514.14
606.494	16256.09
606.69	16333.92
606.886	16262.24
607.082	16137.31
607.278	16227.42
607.474	15955.04
607.67	16223.33
607.866	15969.38
608.062	15981.67
608.257	15934.56
608.453	15936.61
608.649	16016.48
608.845	15785.06
609.041	15578.22
609.236	15985.76
609.432	15830.12
609.628	15502.44
609.824	15764.58
610.019	15473.77
610.215	15377.51
610.411	15713.38
610.606	15328.36
610.802	15412.33
610.998	15475.82
611.193	15383.66
611.389	15307.88
611.584	15236.2
611.78	15412.33
611.976	15391.85
612.171	15096.94
612.367	15281.26
612.562	15074.42
612.758	15017.07
612.953	15019.12
613.149	14918.77
613.344	14820.47
613.539	14945.39
613.735	14924.91
613.93	14931.06
614.126	14898.29
614.321	14998.64
614.517	14830.71
614.712	14875.76
614.907	14457.98
615.103	14769.27
615.298	14709.88
615.493	14785.65
615.688	14642.29
615.884	14681.21
616.079	14310.52
616.274	14656.63
616.47	14400.63
616.665	14523.51
616.86	14347.39
617.055	14554.23
617.25	14556.28
617.445	14648.44
617.641	14136.45
617.836	14320.76
618.031	14331
618.226	14503.03
618.421	14107.77
618.616	14326.91
618.811	14081.15
619.006	14134.4
619.201	13894.79
619.396	13988.99
619.591	13638.79
619.786	13991.04
619.981	13608.07
620.176	13804.67
620.371	13534.34
620.566	13554.82
620.761	13395.08
620.956	13409.42
621.151	13317.26
621.346	13542.53
621.541	13104.27
621.735	13390.98
621.93	13096.08
622.125	13124.75
622.32	12901.52
622.515	13221
622.709	12969.1
622.904	12764.31
623.099	12762.26
623.294	12850.32
623.488	12782.74
623.683	12835.99
623.878	12758.16
624.072	12473.49
624.267	12446.87
624.462	12557.46
624.656	12131.48
624.851	12334.23
625.046	12201.12
625.24	12252.31
625.435	11986.08
625.629	12233.88
625.824	11877.54
626.018	11902.11
626.213	11898.02
626.407	11795.62
626.602	11599.01
626.796	11625.64
626.991	11625.64
627.185	11537.57
627.38	11410.6
627.574	11429.03
627.768	11205.8
627.963	11160.75
628.157	11195.56
628.352	11074.73
628.546	10751.15
628.74	11003.05
628.935	10914.99
629.129	11082.92
629.323	10667.19
629.517	10697.91
629.712	10890.42
629.906	10730.67
630.1	10560.69
630.294	10876.08
630.489	10390.71
630.683	10478.77
630.877	10282.17
631.071	10282.17
631.265	10349.75
631.459	10288.31
631.653	10044.6
631.848	10110.14
632.042	9938.11
632.236	10136.76
632.43	9942.21
632.624	10026.17
632.818	9952.45
633.012	9663.68
633.206	9923.77
633.4	9659.59
633.594	9366.73
633.788	9581.76
633.982	9499.84
634.176	9481.41
634.369	9458.89
634.563	9483.46
634.757	9428.17
634.951	9417.93
635.145	9264.33
635.339	9206.98
635.533	9211.08
635.726	9188.55
635.92	8871.12
636.114	8998.09
636.308	8934.6
636.501	9116.87
636.695	9139.4
636.889	8850.64
637.083	8768.72
637.276	8715.47
637.47	8772.82
637.664	8604.88
637.857	8836.3
638.051	8729.81
638.244	8504.53
638.438	8479.96
638.632	8426.71
638.825	8367.32
639.019	8346.84
639.212	8191.19
639.406	8172.76
639.599	8107.23
639.793	8185.05
639.986	7965.92
640.18	8113.37
640.373	8053.98
640.567	7884
640.76	7890.14
640.954	7681.25
641.147	7765.21
641.34	7869.66
641.534	7763.17
641.727	7763.17
641.92	7705.82
642.114	7695.58
642.307	7521.51
642.5	7498.98
642.694	7521.51
642.887	7415.01
643.08	7501.03
643.273	7546.08
643.467	7357.67
643.66	7367.91
643.853	7195.88
644.046	7175.4
644.239	7109.86
644.432	7191.78
644.626	7210.22
644.819	7181.54
645.012	7103.72
645.205	7101.67
645.398	7042.28
645.591	6960.36
645.784	6919.4
645.977	6814.96
646.17	6839.53
646.363	6651.12
646.556	6640.88
646.749	6612.21
646.942	6726.89
647.135	6776.05
647.328	6501.62
647.521	6618.35
647.714	6468.85
647.907	6485.23
648.099	6538.48
648.292	6599.92
648.485	6339.83
648.678	6341.88
648.871	6247.67
649.064	6206.71
649.256	6151.42
649.449	6167.8
649.642	6210.81
649.835	6255.86
650.027	5963
650.22	6079.74
650.413	6036.73
650.605	6120.7
650.798	6026.49
650.991	5889.28
651.183	5862.65
651.376	5889.28
651.568	5948.67
651.761	5833.98
651.954	5856.51
652.146	5899.52
652.339	5764.35
652.531	5788.93
652.724	5600.51
652.916	5627.14
653.109	5686.53
653.301	5707.01
653.494	5637.38
653.686	5524.74
653.879	5653.76
654.071	5494.02
654.263	5385.48
654.456	5403.91
654.648	5461.25
654.84	5383.43
655.033	5344.52
655.225	5420.29
655.417	5215.49
655.61	5309.7
655.802	5256.45
655.994	5213.45
656.186	5285.12
656.379	4984.07
656.571	5117.19
656.763	4994.31
656.955	5033.22
657.148	5160.2
657.34	5031.18
657.532	4885.77
657.724	4838.67
657.916	4900.11
658.108	4926.73
658.3	4975.88
658.492	4926.73
658.684	4787.47
658.876	4748.56
659.068	4783.37
659.26	4683.02
659.452	4822.28
659.644	4711.69
659.836	4726.03
660.028	4730.13
660.22	4523.28
660.412	4662.54
660.604	4504.85
660.796	4603.15
660.988	4349.2
661.18	4402.45
661.372	4502.8
661.563	4605.2
661.755	4465.94
661.947	4375.83
662.139	4424.98
662.331	4437.27
662.522	4441.36
662.714	4318.48
662.906	4236.56
663.097	4312.34
663.289	4218.13
663.481	4187.41
663.673	4152.6
663.864	4185.37
664.056	4115.73
664.247	4091.16
664.439	4042.01
664.631	4103.45
664.822	4062.49
665.014	4130.07
665.205	4162.84
665.397	3982.62
665.588	4068.63
665.78	3982.62
665.971	3900.7
666.163	3890.46
666.354	4060.44
666.546	3972.38
666.737	3841.31
666.929	3757.34
667.12	3786.01
667.311	3892.51
667.503	3732.76
667.694	3712.28
667.885	3609.89
668.077	3722.52
668.268	3786.01
668.459	3687.71
668.651	3790.11
668.842	3671.33
669.033	3505.44
669.224	3597.6
669.416	3554.59
669.607	3628.32
669.798	3513.63
669.989	3613.98
670.18	3487.01
670.371	3530.02
670.563	3519.78
670.754	3489.06
670.945	3409.19
671.136	3540.26
671.327	3585.31
671.518	3458.34
671.709	3478.82
671.9	3568.93
672.091	3409.19
672.282	3323.17
672.473	3431.71
672.664	3245.35
672.855	3323.17
673.046	3278.12
673.237	3347.75
673.428	3396.9
673.619	3188
673.809	3212.58
674	3188
674.191	3278.12
674.382	3269.92
674.573	3204.39
674.764	3181.86
674.954	3331.36
675.145	3165.48
675.336	3108.13
675.527	3056.93
675.717	3173.67
675.908	3228.96
676.099	3112.23
676.289	3159.33
676.48	3153.19
676.671	3071.27
676.861	3087.65
677.052	2966.82
677.243	3073.32
677.433	2985.26
677.624	3040.55
677.814	2897.19
678.005	2874.67
678.195	2938.15
678.386	2889
678.576	2972.97
678.767	2952.49
678.957	2872.62
679.148	3036.45
679.338	2893.1
679.529	2811.18
679.719	2942.25
679.909	2921.77
680.1	2905.39
680.29	2950.44
680.481	2778.41
680.671	2807.08
680.861	2839.85
681.052	2823.47
681.242	2764.08
681.432	2823.47
681.622	2782.51
681.813	2753.84
682.003	2852.14
682.193	2796.84
682.383	2774.32
682.573	2725.16
682.764	2780.46
682.954	2729.26
683.144	2716.97
683.334	2733.36
683.524	2723.12
683.714	2659.63
683.904	2741.55
684.094	2796.84
684.284	2639.15
684.474	2729.26
684.664	2673.96
684.854	2688.3
685.044	2661.68
685.234	2665.77
685.424	2684.2
685.614	2465.07
685.804	2628.91
685.994	2600.24
686.184	2614.57
686.374	2606.38
686.564	2512.18
686.753	2585.9
686.943	2581.81
687.133	2530.61
687.323	2495.79
687.513	2544.94
687.702	2553.13
687.892	2475.31
688.082	2393.39
688.272	2428.21
688.461	2387.25
688.651	2587.95
688.841	2471.22
689.03	2538.8
689.22	2495.79
689.41	2385.2
689.599	2454.83
689.789	2426.16
689.979	2338.1
690.168	2293.04
690.358	2354.48
690.547	2415.92
690.737	2336.05
690.926	2260.27
691.116	2401.58
691.305	2311.47
691.495	2309.43
691.684	2327.86
691.874	2297.14
692.063	2217.27
692.252	2319.67
692.442	2186.55
692.631	2290.99
692.82	2280.75
693.01	2340.15
693.199	2155.83
693.388	2303.28
693.578	2272.56
693.767	2245.94
693.956	2200.88
694.146	2213.17
694.335	2213.17
694.524	2190.64
694.713	2168.12
694.902	2131.25
695.092	2088.25
695.281	2194.74
695.47	2104.63
695.659	2096.44
695.848	2186.55
696.037	2100.53
696.226	2145.59
696.415	2098.49
696.604	2293.04
696.793	2256.18
696.982	2260.27
697.171	2098.49
697.36	2143.54
697.549	2090.29
697.738	2106.68
697.927	2016.57
698.116	2051.38
698.305	2041.14
698.494	2180.4
698.683	2067.77
698.872	2090.29
699.061	2161.97
699.25	2151.73
699.438	2196.79
699.627	2096.44
699.816	2180.4
700.005	2069.81
700.193	1983.8
700.382	1996.09
700.571	2139.44
700.76	2170.16
700.948	2127.16
701.137	2176.31
701.326	2094.39
701.514	2018.61
701.703	2053.43
701.892	2118.97
702.08	2030.9
702.269	2075.96
702.457	2078.01
702.646	2094.39
702.834	2049.33
703.023	2006.33
703.212	2096.44
703.4	2125.11
703.589	1969.46
703.777	1973.56
703.965	2039.09
704.154	2071.86
704.342	2225.46
704.531	1987.9
704.719	1948.98
704.907	1987.9
705.096	1979.7
705.284	2067.77
705.472	2075.96
705.661	2000.18
705.849	2092.34
706.037	2219.32
706.226	1996.09
706.414	1985.85
706.602	2035
706.79	1965.37
706.979	1948.98
707.167	2024.76
707.355	1991.99
707.543	2067.77
707.731	2145.59
707.919	2129.2
708.107	2020.66
708.296	2067.77
708.484	2028.85
708.672	2125.11
708.86	2032.95
709.048	2004.28
709.236	2045.24
709.424	2075.96
709.612	1994.04
709.8	1936.7
709.988	2141.49
710.176	2055.48
710.364	2121.01
710.551	2020.66
710.739	2037.05
710.927	2057.53
711.115	2022.71
711.303	1985.85
711.491	1883.45
711.679	2084.15
711.866	2069.81
712.054	1948.98
712.242	2061.62
712.43	2071.86
712.617	1969.46
712.805	2008.37
712.993	1977.66
713.181	1928.5
713.368	1983.8
713.556	1959.22
713.744	1955.13
713.931	2078.01
714.119	1987.9
714.306	1959.22
714.494	1908.02
714.682	1912.12
714.869	1981.75
715.057	2008.37
715.244	1994.04
715.432	2084.15
715.619	1891.64
715.807	1955.13
715.994	2047.29
716.182	2014.52
716.369	2049.33
716.556	1963.32
716.744	1901.88
716.931	1959.22
717.119	2039.09
717.306	2035
717.493	2032.95
717.681	1979.7
717.868	1912.12
718.055	1850.68
718.242	1858.87
718.43	1910.07
718.617	1979.7
718.804	2008.37
718.991	1975.61
719.179	1981.75
719.366	1991.99
719.553	1895.74
719.74	1983.8
719.927	2000.18
720.114	1994.04
720.301	2006.33
720.488	1832.25
720.676	1934.65
720.863	1877.3
721.05	1951.03
721.237	1840.44
721.424	1938.74
721.611	1965.37
721.798	1932.6
721.985	1828.15
722.172	1891.64
722.358	1875.26
722.545	1953.08
722.732	1910.07
722.919	1858.87
723.106	1903.93
723.293	1951.03
723.48	1932.6
723.667	2004.28
723.853	1930.55
724.04	1953.08
724.227	1852.73
724.414	1914.17
724.6	1979.7
724.787	1961.27
724.974	1940.79
725.161	1977.66
725.347	1822.01
725.534	1795.39
725.72	1920.31
725.907	1869.11
726.094	1893.69
726.28	1871.16
726.467	1854.78
726.653	1858.87
726.84	1803.58
727.027	1899.83
727.213	1897.78
727.4	1987.9
727.586	1815.87
727.773	1819.96
727.959	1883.45
728.145	1809.72
728.332	1801.53
728.518	1811.77
728.705	1887.54
728.891	1817.91
729.077	1756.47
729.264	1932.6
729.45	1819.96
729.636	1951.03
729.823	1836.35
730.009	1930.55
730.195	1805.63
730.382	1908.02
730.568	1865.02
730.754	1834.3
730.94	1910.07
731.126	1860.92
731.313	1912.12
731.499	1901.88
731.685	1924.41
731.871	1772.86
732.057	1912.12
732.243	1865.02
732.429	1799.48
732.615	1779
732.801	1836.35
732.987	1785.15
733.173	1844.54
733.359	1770.81
733.545	1830.2
733.731	1801.53
733.917	1854.78
734.103	1850.68
734.289	1819.96
734.475	1692.99
734.661	1811.77
734.847	1895.74
735.033	1838.39
735.219	1781.05
735.404	1893.69
735.59	1713.47
735.776	1791.29
735.962	1725.75
736.148	1772.86
736.333	1860.92
736.519	1916.22
736.705	1824.06
736.89	1756.47
737.076	1801.53
737.262	1783.1
737.447	1735.99
737.633	1738.04
737.819	1815.87
738.004	1731.9
738.19	1717.56
738.375	1805.63
738.561	1731.9
738.747	1617.21
738.932	1719.61
739.118	1770.81
739.303	1725.75
739.489	1756.47
739.674	1588.54
739.859	1707.32
740.045	1684.8
740.23	1559.87
740.416	1779
740.601	1729.85
740.786	1746.23
740.972	1699.13
741.157	1733.95
741.342	1643.84
741.528	1611.07
741.713	1592.64
741.898	1527.1
742.084	1684.8
742.269	1568.06
742.454	1697.08
742.639	1600.83
742.824	1514.81
743.01	1609.02
743.195	1600.83
743.38	1588.54
743.565	1543.49
743.75	1615.16
743.935	1539.39
744.12	1502.53
744.305	1516.86
744.49	1592.64
744.675	1557.82
744.86	1518.91
745.045	1647.93
745.23	1574.21
745.415	1471.81
745.6	1512.77
745.785	1441.09
745.97	1561.92
746.155	1484.09
746.34	1432.9
746.525	1443.14
746.71	1537.34
746.895	1504.57
747.079	1457.47
747.264	1404.22
747.449	1441.09
747.634	1506.62
747.819	1443.14
748.003	1443.14
748.188	1398.08
748.373	1449.28
748.557	1426.75
748.742	1418.56
748.927	1379.65
749.111	1436.99
749.296	1406.27
749.481	1377.6
749.665	1418.56
749.85	1271.11
750.034	1275.2
750.219	1350.98
750.404	1320.26
750.588	1334.59
750.773	1322.31
750.957	1350.98
751.141	1307.97
751.326	1316.16
751.51	1248.58
751.695	1236.29
751.879	1307.97
752.064	1254.72
752.248	1312.07
752.432	1287.49
752.617	1291.59
752.801	1224
752.985	1135.94
753.17	1181
753.354	1279.3
753.538	1197.38
753.722	1107.27
753.907	1131.84
754.091	1045.83
754.275	1213.76
754.459	998.73
754.643	1144.13
754.828	1101.12
755.012	1183.04
755.196	1152.32
755.38	1135.94
755.564	965.96
755.748	1078.6
755.932	1054.02
756.116	1166.66
756.3	1060.17
756.484	1045.83
756.668	1025.35
756.852	986.44
757.036	1070.4
757.22	1047.88
757.404	1011.01
757.588	1033.54
757.772	951.62
757.956	1004.87
758.14	1004.87
758.323	1054.02
758.507	931.14
758.691	959.81
758.875	1025.35
759.059	1027.4
759.242	963.91
759.426	972.1
759.61	965.96
759.794	896.33
759.977	912.71
760.161	1070.4
760.345	836.94
760.528	955.72
760.712	957.77
760.895	955.72
761.079	890.18
761.263	884.04
761.446	859.46
761.63	861.51
761.813	861.51
761.997	929.1
762.18	877.9
762.364	894.28
762.547	890.18
762.731	802.12
762.914	886.09
763.098	834.89
763.281	892.23
763.464	863.56
763.648	820.55
763.831	759.11
764.015	793.93
764.198	898.38
764.381	779.59
764.564	789.83
764.748	857.42
764.931	793.93
765.114	793.93
765.297	789.83
765.481	853.32
765.664	779.59
765.847	806.22
766.03	775.5
766.213	857.42
766.397	798.03
766.58	812.36
766.763	771.4
766.946	752.97
767.129	693.58
767.312	689.48
767.495	789.83
767.678	703.82
767.861	781.64
768.044	795.98
768.227	791.88
768.41	714.06
768.593	806.22
768.776	828.74
768.959	730.44
769.142	748.87
769.324	748.87
769.507	714.06
769.69	716.11
769.873	732.49
770.056	814.41
770.239	716.11
770.421	703.82
770.604	816.46
770.787	722.25
770.97	699.72
771.152	701.77
771.335	709.96
771.518	722.25
771.7	716.11
771.883	666.96
772.066	675.15
772.248	722.25
772.431	759.11
772.613	673.1
772.796	720.2
772.978	697.67
773.161	777.55
773.343	664.91
773.526	664.91
773.708	666.96
773.891	646.48
774.073	642.38
774.256	699.72
774.438	613.71
774.621	660.81
774.803	582.99
774.985	537.93
775.168	599.37
775.35	650.57
775.532	673.1
775.715	564.56
775.897	652.62
776.079	589.13
776.261	531.79
776.444	595.28
776.626	603.47
776.808	636.24
776.99	501.07
777.173	513.36
777.355	585.04
777.537	535.89
777.719	683.34
777.901	544.08
778.083	613.71
778.265	552.27
778.447	537.93
778.629	554.32
778.811	451.92
778.993	591.18
779.175	564.56
779.357	525.65
779.539	427.34
779.721	462.16
779.903	466.25
780.085	558.41
780.267	521.55
780.449	484.69
780.631	478.54
780.812	470.35
780.994	490.83
781.176	476.49
781.358	503.12
781.54	558.41
781.721	482.64
781.903	468.3
782.085	480.59
782.267	460.11
782.448	431.44
782.63	392.53
782.812	472.4
782.993	490.83
783.175	445.77
783.357	429.39
783.538	431.44
783.72	408.91
783.901	425.29
784.083	357.71
784.264	453.97
784.446	429.39
784.627	382.29
784.809	404.82
784.99	372.05
785.172	367.95
785.353	390.48
785.535	394.58
785.716	402.77
785.897	421.2
786.079	429.39
786.26	312.66
786.441	406.86
786.623	343.38
786.804	431.44
786.985	357.71
787.167	402.77
787.348	386.38
787.529	318.8
787.71	398.67
787.891	413.01
788.073	367.95
788.254	300.37
788.435	347.47
788.616	378.19
788.797	353.62
788.978	341.33
789.159	374.1
789.34	378.19
789.522	320.85
789.703	306.51
789.884	337.23
790.065	324.94
790.246	283.99
790.427	310.61
790.607	281.94
790.788	351.57
790.969	300.37
791.15	359.76
791.331	240.98
791.512	267.6
791.693	392.53
791.874	304.46
792.054	324.94
792.235	279.89
792.416	267.6
792.597	247.12
792.778	310.61
792.958	347.47
793.139	345.42
793.32	263.51
793.5	347.47
793.681	257.36
793.862	294.22
794.042	230.74
794.223	226.64
794.404	247.12
794.584	269.65
794.765	173.39
794.945	318.8
795.126	308.56
795.306	263.51
795.487	236.88
795.667	222.55
795.848	281.94
796.028	200.02
796.209	259.41
796.389	173.39
796.57	255.31
796.75	310.61
796.93	195.92
797.111	224.59
797.291	230.74
797.471	281.94
797.652	197.97
797.832	183.63
798.012	288.08
798.192	249.17
798.373	290.13
798.553	228.69
798.733	277.84
798.913	138.58
799.093	279.89
799.274	232.79
799.454	197.97
799.634	247.12
799.814	224.59
799.994	224.59
800.174	247.12
800.354	169.3
800.534	191.83
800.714	165.2
800.894	148.82
801.074	183.63
801.254	157.01
801.434	279.89
801.614	236.88
801.794	138.58
801.974	482.64
802.154	195.92
802.334	167.25
802.514	171.35
802.693	165.2
802.873	224.59
803.053	189.78
803.233	232.79
803.413	175.44
803.592	142.68
803.772	187.73
803.952	146.77
804.131	210.26
804.311	181.59
804.491	208.21
804.67	124.24
804.85	222.55
805.03	238.93
805.209	236.88
805.389	191.83
805.568	245.07
805.748	85.33
805.928	193.87
806.107	177.49
806.287	249.17
806.466	195.92
806.646	214.35
806.825	159.06
807.004	197.97
807.184	144.72
807.363	181.59
807.543	171.35
807.722	191.83
807.901	183.63
808.081	238.93
808.26	111.96
808.439	165.2
808.619	175.44
808.798	216.4
808.977	128.34
809.156	109.91
809.336	179.54
809.515	159.06
809.694	93.52
809.873	165.2
810.052	189.78
810.231	167.25
810.411	157.01
810.59	222.55
810.769	191.83
810.948	220.5
811.127	200.02
811.306	48.47
811.485	228.69
811.664	114
811.843	40.28
812.022	185.68
812.201	163.15
812.38	173.39
812.559	124.24
812.737	128.34
812.916	95.57
813.095	97.62
813.274	136.53
813.453	93.52
813.632	109.91
813.811	111.96
813.989	118.1
814.168	89.43
814.347	105.81
814.526	126.29
814.704	136.53
814.883	163.15
815.062	181.59
815.24	132.44
815.419	75.09
815.598	44.37
815.776	101.72
815.955	185.68
816.133	111.96
816.312	52.56
816.49	95.57
816.669	148.82
816.847	116.05
817.026	103.76
817.204	105.81
817.383	85.33
817.561	124.24
817.74	171.35
817.918	85.33
818.097	152.92
818.275	136.53
818.453	183.63
818.632	138.58
818.81	142.68
818.988	66.9
819.167	120.15
819.345	130.39
819.523	68.95
819.701	183.63
819.879	177.49
820.058	64.85
820.236	77.14
820.414	132.44
820.592	83.28
820.77	206.16
820.948	17.75
821.127	91.48
821.305	87.38
821.483	109.91
821.661	142.68
821.839	91.48
822.017	71
822.195	91.48
822.373	122.2
822.551	107.86
822.729	130.39
822.907	99.67
823.085	46.42
823.262	36.18
823.44	85.33
823.618	85.33
823.796	101.72
823.974	13.65
824.152	138.58
824.329	66.9
824.507	9.56
824.685	126.29
824.863	128.34
825.04	54.61
825.218	132.44
825.396	-10.92
825.574	-10.92
825.751	87.38
825.929	132.44
826.107	105.81
826.284	58.71
826.462	136.53
826.639	5.46
826.817	66.9
826.994	77.14
827.172	48.47
827.349	54.61
827.527	50.52
827.704	11.61
827.882	105.81
828.059	79.19
828.237	87.38
828.414	116.05
828.591	36.18
828.769	7.51
828.946	9.56
829.124	50.52
829.301	79.19
829.478	36.18
829.655	44.37
829.833	25.94
830.01	73.04
830.187	105.81
830.364	81.24
830.542	34.13
830.719	75.09
830.896	58.71
831.073	146.77
831.25	56.66
831.427	116.05
831.604	73.04
831.782	-6.83
831.959	19.8
832.136	54.61
832.313	17.75
832.49	91.48
832.667	103.76
832.844	1.37
833.021	105.81
833.198	71
833.374	79.19
833.551	91.48
833.728	60.76
833.905	44.37
834.082	58.71
834.259	118.1
834.436	66.9
834.612	64.85
834.789	64.85
834.966	83.28
835.143	91.48
835.319	73.04
835.496	85.33
835.673	58.71
835.85	36.18
836.026	50.52
836.203	-12.97
836.38	146.77
836.556	75.09
836.733	5.46
836.909	15.7
837.086	105.81
837.262	68.95
837.439	42.32
837.616	42.32
837.792	56.66
837.968	66.9
838.145	83.28
838.321	105.81
838.498	99.67
838.674	42.32
838.851	50.52
839.027	89.43
839.203	44.37
839.38	21.85
839.556	34.13
839.732	75.09
839.909	101.72
840.085	60.76
840.261	21.85
840.437	73.04
840.614	73.04
840.79	99.67
840.966	71
841.142	-6.83
841.318	-23.21
841.494	17.75
841.671	99.67
841.847	15.7
842.023	23.89
842.199	34.13
842.375	118.1
842.551	5.46
842.727	-6.83
842.903	83.28
843.079	42.32
843.255	107.86
843.431	103.76
843.607	25.94
843.783	81.24
843.959	75.09
844.134	-25.26
844.31	75.09
844.486	9.56
844.662	3.41
844.838	34.13
845.013	71
845.189	25.94
845.365	11.61
845.541	75.09
845.716	46.42
845.892	87.38
846.068	-27.31
846.244	-2.73
846.419	5.46
846.595	5.46
846.77	30.04
846.946	34.13
847.122	42.32
847.297	30.04
847.473	62.8
847.648	56.66
847.824	30.04
847.999	19.8
848.175	36.18
848.35	75.09
848.526	81.24
848.701	50.52
848.876	79.19
849.052	42.32
849.227	23.89
849.403	54.61
849.578	23.89
849.753	27.99
849.929	60.76
850.104	-19.11
850.279	71
850.454	89.43
850.63	34.13
850.805	118.1
850.98	71
851.155	58.71
851.33	38.23
851.505	38.23
851.681	-0.68
851.856	-10.92
852.031	54.61
852.206	13.65
852.381	30.04
852.556	-21.16
852.731	89.43
852.906	38.23
853.081	46.42
853.256	50.52
853.431	23.89
853.606	-29.35
853.781	32.08
853.956	-62.12
854.131	-29.35
854.305	-62.12
854.48	91.48
854.655	-47.79
854.83	50.52
855.005	-23.21
855.18	32.08
855.354	64.85
855.529	66.9
855.704	44.37
855.879	83.28
856.053	50.52
856.228	58.71
856.403	15.7
856.577	58.71
856.752	-37.55
856.926	36.18
857.101	5.46
857.276	13.65
857.45	3.41
857.625	83.28
857.799	36.18
857.974	120.15
858.148	7.51
858.323	42.32
858.497	25.94
858.672	-4.78
858.846	27.99
859.02	-12.97
859.195	23.89
859.369	54.61
859.543	-2.73
859.718	30.04
859.892	103.76
860.066	-0.68
860.241	21.85
860.415	-37.55
860.589	15.7
860.763	30.04
860.938	46.42
861.112	15.7
861.286	27.99
861.46	13.65
861.634	103.76
861.808	95.57
861.982	44.37
862.157	-0.68
862.331	-35.5
862.505	-10.92
862.679	-6.83
862.853	-2.73
863.027	21.85
863.201	95.57
863.375	23.89
863.549	-0.68
863.722	19.8
863.896	27.99
864.07	-29.35
864.244	-49.83
864.418	-15.02
864.592	-66.22
864.766	64.85
864.939	-12.97
865.113	25.94
865.287	50.52
865.461	5.46
865.634	95.57
865.808	40.28
865.982	93.52
866.156	25.94
866.329	-8.87
866.503	-25.26
866.676	44.37
866.85	9.56
867.024	11.61
867.197	-47.79
867.371	3.41
867.544	17.75
867.718	5.46
867.891	19.8
868.065	-35.5
868.238	17.75
868.412	73.04
868.585	-2.73
868.759	-23.21
868.932	-2.73
869.105	46.42
869.279	-37.55
869.452	-74.41
869.625	27.99
869.799	27.99
869.972	-58.03
870.145	50.52
870.319	89.43
870.492	-47.79
870.665	32.08
870.838	56.66
871.011	-23.21
871.185	91.48
871.358	-27.31
871.531	103.76
871.704	-39.59
871.877	73.04
872.05	1.37
872.223	-35.5
872.396	9.56
872.569	38.23
872.742	13.65
872.915	-80.55
873.088	-0.68
873.261	73.04
873.434	-60.07
873.607	-6.83
873.78	48.47
873.953	23.89
874.126	-55.98
874.299	25.94
874.471	-17.07
874.644	-62.12
874.817	1.37
874.99	46.42
875.163	-25.26
875.335	50.52
875.508	97.62
875.681	-17.07
875.853	9.56
876.026	46.42
876.199	34.13
876.371	23.89
876.544	-60.07
876.717	34.13
876.889	9.56
877.062	38.23
877.234	-17.07
877.407	50.52
877.579	19.8
877.752	38.23
877.924	11.61
878.097	75.09
878.269	58.71
878.442	23.89
878.614	56.66
878.786	-55.98
878.959	50.52
879.131	32.08
879.303	-6.83
879.476	19.8
879.648	23.89
879.82	23.89
879.993	21.85
880.165	-17.07
880.337	-72.36
880.509	93.52
880.681	-2.73
880.854	-17.07
881.026	34.13
881.198	-6.83
881.37	1.37
881.542	79.19
881.714	-6.83
881.886	-2.73
882.058	-72.36
882.23	21.85
882.402	7.51
882.574	40.28
882.746	32.08
882.918	-37.55
883.09	40.28
883.262	32.08
883.434	-6.83
883.606	32.08
883.778	-2.73
883.95	-4.78
884.122	-2.73
884.293	1.37
884.465	93.52
884.637	21.85
884.809	7.51
884.98	-27.31
885.152	-2.73
885.324	58.71
885.496	-12.97
885.667	17.75
885.839	19.8
886.011	1.37
886.182	19.8
886.354	17.75
886.525	11.61
886.697	75.09
886.869	27.99
887.04	64.85
887.212	42.32
887.383	50.52
887.555	56.66
887.726	-62.12
887.897	3.41
888.069	79.19
888.24	-39.59
888.412	-23.21
888.583	-47.79
888.754	13.65
888.926	-21.16
889.097	36.18
889.268	-33.45
889.44	25.94
889.611	-29.35
889.782	19.8
889.953	7.51
890.125	27.99
890.296	27.99
890.467	-0.68
890.638	1.37
890.809	1.37
890.98	36.18
891.151	-8.87
891.323	42.32
891.494	34.13
891.665	-27.31
891.836	46.42
892.007	17.75
892.178	58.71
892.349	-58.03
892.52	7.51
892.691	-27.31
892.862	42.32
893.032	-58.03
893.203	3.41
893.374	-29.35
893.545	7.51
893.716	17.75
893.887	-6.83
894.057	38.23
894.228	56.66
894.399	-12.97
894.57	62.8
894.74	-10.92
894.911	-2.73
895.082	46.42
895.253	-0.68
895.423	15.7
895.594	109.91
895.764	-15.02
895.935	-4.78
896.106	-33.45
896.276	-0.68
896.447	-58.03
896.617	21.85
896.788	64.85
896.958	-49.83
897.129	44.37
897.299	46.42
897.47	21.85
897.64	1.37
897.81	-8.87
897.981	40.28
898.151	30.04
898.322	36.18
898.492	54.61
898.662	-23.21
898.832	1.37
899.003	15.7
899.173	-29.35
899.343	-8.87
899.513	-15.02
