Data from USB4F104151__226__11-10-54-134.txt Node

Date: Wed Mar 12 11:10:54 EDT 2025
User: louis
Spectrometer: USB4F10415
Trigger mode: 4
Integration Time (sec): 2.000000E-2
Scans to average: 1
Electric dark correction enabled: true
Nonlinearity correction enabled: false
Boxcar width: 0
XAxis mode: Wavelengths
Number of Pixels in Spectrum: 3648
>>>>>Begin Spectral Data<<<<<
178.204	-120.49
178.424	-120.49
178.644	-120.49
178.864	-40.62
179.084	-106.15
179.304	43.35
179.524	-7.85
179.744	-9.9
179.964	24.92
180.184	-24.23
180.404	-40.62
180.624	16.73
180.844	0.34
181.064	-57
181.283	-30.38
181.503	35.16
181.723	49.49
181.943	-59.05
182.163	33.11
182.383	35.16
182.602	33.11
182.822	-5.8
183.042	94.55
183.262	2.39
183.482	53.59
183.701	-5.8
183.921	35.16
184.141	12.63
184.361	-28.33
184.58	10.58
184.8	22.87
185.02	84.31
185.239	35.16
185.459	43.35
185.679	37.2
185.898	10.58
186.118	49.49
186.338	72.02
186.557	35.16
186.777	-46.76
186.997	141.65
187.216	18.77
187.436	26.96
187.655	33.11
187.875	-1.71
188.095	69.97
188.314	-7.85
188.534	8.53
188.753	24.92
188.973	24.92
189.192	69.97
189.412	37.2
189.631	39.25
189.851	22.87
190.07	121.17
190.29	43.35
190.509	0.34
190.729	51.54
190.948	-20.14
191.168	78.16
191.387	2.39
191.607	-28.33
191.826	-11.95
192.045	98.64
192.265	-22.19
192.484	-3.75
192.704	0.34
192.923	24.92
193.142	96.6
193.362	41.3
193.581	59.73
193.8	-26.28
194.02	4.44
194.239	133.46
194.458	12.63
194.678	14.68
194.897	55.64
195.116	-16.04
195.335	12.63
195.555	-32.43
195.774	18.77
195.993	33.11
196.212	39.25
196.432	-38.57
196.651	63.83
196.87	39.25
197.089	119.12
197.308	-24.23
197.528	-16.04
197.747	-11.95
197.966	-13.99
198.185	119.12
198.404	72.02
198.623	8.53
198.842	20.82
199.062	55.64
199.281	14.68
199.5	-28.33
199.719	41.3
199.938	-46.76
200.157	31.06
200.376	31.06
200.595	18.77
200.814	-16.04
201.033	-18.09
201.252	35.16
201.471	6.49
201.69	80.21
201.909	61.78
202.128	31.06
202.347	125.27
202.566	10.58
202.785	6.49
203.004	35.16
203.223	65.88
203.442	35.16
203.661	84.31
203.879	-7.85
204.098	10.58
204.317	33.11
204.536	20.82
204.755	-9.9
204.974	-24.23
205.193	57.68
205.411	67.92
205.63	37.2
205.849	43.35
206.068	-18.09
206.287	84.31
206.505	45.4
206.724	69.97
206.943	-30.38
207.162	24.92
207.381	72.02
207.599	-42.67
207.818	59.73
208.037	-40.62
208.255	26.96
208.474	0.34
208.693	-11.95
208.911	35.16
209.13	61.78
209.349	-50.86
209.567	-1.71
209.786	-32.43
210.005	47.44
210.223	41.3
210.442	37.2
210.661	49.49
210.879	4.44
211.098	76.12
211.316	-11.95
211.535	29.01
211.753	47.44
211.972	-3.75
212.191	45.4
212.409	61.78
212.628	-32.43
212.846	10.58
213.065	4.44
213.283	61.78
213.502	41.3
213.72	43.35
213.938	-32.43
214.157	67.92
214.375	12.63
214.594	47.44
214.812	16.73
215.031	-40.62
215.249	84.31
215.467	-9.9
215.686	-38.57
215.904	39.25
216.122	33.11
216.341	76.12
216.559	2.39
216.778	108.88
216.996	-20.14
217.214	20.82
217.432	22.87
217.651	65.88
217.869	-24.23
218.087	26.96
218.306	49.49
218.524	63.83
218.742	31.06
218.96	59.73
219.179	0.34
219.397	57.68
219.615	12.63
219.833	76.12
220.051	33.11
220.27	0.34
220.488	-7.85
220.706	53.59
220.924	-3.75
221.142	-22.19
221.36	4.44
221.578	-3.75
221.796	-9.9
222.015	8.53
222.233	-20.14
222.451	57.68
222.669	14.68
222.887	33.11
223.105	-11.95
223.323	6.49
223.541	35.16
223.759	4.44
223.977	39.25
224.195	69.97
224.413	-1.71
224.631	35.16
224.849	-30.38
225.067	98.64
225.285	-75.43
225.503	88.4
225.721	33.11
225.939	51.54
226.157	14.68
226.375	123.22
226.592	29.01
226.81	16.73
227.028	80.21
227.246	37.2
227.464	53.59
227.682	37.2
227.9	29.01
228.117	69.97
228.335	61.78
228.553	35.16
228.771	16.73
228.989	47.44
229.206	10.58
229.424	12.63
229.642	61.78
229.86	2.39
230.077	102.74
230.295	84.31
230.513	92.5
230.731	110.93
230.948	69.97
231.166	-28.33
231.384	4.44
231.601	-24.23
231.819	55.64
232.037	-1.71
232.254	45.4
232.472	16.73
232.689	-16.04
232.907	57.68
233.125	61.78
233.342	-7.85
233.56	41.3
233.777	57.68
233.995	-73.39
234.213	76.12
234.43	67.92
234.648	47.44
234.865	-28.33
235.083	-28.33
235.3	72.02
235.518	35.16
235.735	-20.14
235.953	74.07
236.17	41.3
236.388	53.59
236.605	31.06
236.822	69.97
237.04	-40.62
237.257	31.06
237.475	-34.47
237.692	-20.14
237.909	39.25
238.127	-20.14
238.344	84.31
238.562	-67.24
238.779	-13.99
238.996	6.49
239.214	-7.85
239.431	65.88
239.648	41.3
239.865	2.39
240.083	8.53
240.3	80.21
240.517	0.34
240.735	16.73
240.952	41.3
241.169	43.35
241.386	49.49
241.603	41.3
241.821	33.11
242.038	131.41
242.255	55.64
242.472	-9.9
242.689	37.2
242.907	31.06
243.124	31.06
243.341	10.58
243.558	45.4
243.775	37.2
243.992	4.44
244.209	29.01
244.426	2.39
244.643	-9.9
244.86	-20.14
245.078	22.87
245.295	-1.71
245.512	-16.04
245.729	57.68
245.946	4.44
246.163	37.2
246.38	43.35
246.597	-9.9
246.814	14.68
247.031	41.3
247.248	121.17
247.464	47.44
247.681	4.44
247.898	-46.76
248.115	47.44
248.332	-46.76
248.549	108.88
248.766	78.16
248.983	41.3
249.2	-3.75
249.417	16.73
249.633	0.34
249.85	43.35
250.067	-24.23
250.284	80.21
250.501	-50.86
250.717	37.2
250.934	53.59
251.151	-32.43
251.368	-1.71
251.585	39.25
251.801	29.01
252.018	-24.23
252.235	29.01
252.451	37.2
252.668	-77.48
252.885	22.87
253.102	-32.43
253.318	8.53
253.535	-5.8
253.752	65.88
253.968	110.93
254.185	4.44
254.401	-24.23
254.618	29.01
254.835	-48.81
255.051	24.92
255.268	35.16
255.484	4.44
255.701	-20.14
255.917	51.54
256.134	6.49
256.351	8.53
256.567	14.68
256.784	18.77
257	-30.38
257.217	53.59
257.433	-13.99
257.65	69.97
257.866	35.16
258.082	-32.43
258.299	4.44
258.515	110.93
258.732	-11.95
258.948	10.58
259.165	10.58
259.381	-57
259.597	-50.86
259.814	53.59
260.03	29.01
260.246	-24.23
260.463	43.35
260.679	59.73
260.895	6.49
261.112	22.87
261.328	33.11
261.544	45.4
261.761	41.3
261.977	16.73
262.193	-20.14
262.409	24.92
262.626	-5.8
262.842	53.59
263.058	53.59
263.274	10.58
263.49	74.07
263.707	65.88
263.923	69.97
264.139	-9.9
264.355	33.11
264.571	47.44
264.787	31.06
265.004	22.87
265.22	29.01
265.436	67.92
265.652	12.63
265.868	24.92
266.084	12.63
266.3	-7.85
266.516	63.83
266.732	-18.09
266.948	4.44
267.164	16.73
267.38	29.01
267.596	43.35
267.812	57.68
268.028	47.44
268.244	-38.57
268.46	8.53
268.676	53.59
268.892	57.68
269.108	-36.52
269.324	37.2
269.54	78.16
269.756	43.35
269.972	20.82
270.188	69.97
270.403	-46.76
270.619	29.01
270.835	33.11
271.051	20.82
271.267	6.49
271.483	106.84
271.698	45.4
271.914	24.92
272.13	29.01
272.346	14.68
272.562	53.59
272.777	63.83
272.993	-22.19
273.209	65.88
273.425	92.5
273.64	-7.85
273.856	59.73
274.072	-24.23
274.287	20.82
274.503	41.3
274.719	14.68
274.934	12.63
275.15	61.78
275.366	41.3
275.581	-13.99
275.797	92.5
276.012	53.59
276.228	-67.24
276.444	22.87
276.659	72.02
276.875	63.83
277.09	33.11
277.306	74.07
277.521	-24.23
277.737	-13.99
277.952	2.39
278.168	-42.67
278.383	24.92
278.599	53.59
278.814	-52.91
279.03	24.92
279.245	102.74
279.461	20.82
279.676	69.97
279.892	26.96
280.107	53.59
280.322	51.54
280.538	125.27
280.753	-77.48
280.969	51.54
281.184	26.96
281.399	26.96
281.615	-3.75
281.83	14.68
282.045	55.64
282.26	-48.81
282.476	-3.75
282.691	49.49
282.906	37.2
283.122	55.64
283.337	74.07
283.552	-9.9
283.767	20.82
283.983	63.83
284.198	4.44
284.413	-26.28
284.628	-5.8
284.843	57.68
285.058	-40.62
285.274	14.68
285.489	33.11
285.704	59.73
285.919	-59.05
286.134	4.44
286.349	78.16
286.564	0.34
286.779	-18.09
286.995	16.73
287.21	-18.09
287.425	65.88
287.64	51.54
287.855	45.4
288.07	4.44
288.285	47.44
288.5	59.73
288.715	33.11
288.93	8.53
289.145	6.49
289.36	-28.33
289.575	65.88
289.79	45.4
290.004	-32.43
290.219	55.64
290.434	-24.23
290.649	-7.85
290.864	10.58
291.079	29.01
291.294	53.59
291.509	-16.04
291.724	4.44
291.938	6.49
292.153	45.4
292.368	6.49
292.583	16.73
292.798	41.3
293.012	4.44
293.227	14.68
293.442	-28.33
293.657	41.3
293.871	59.73
294.086	67.92
294.301	45.4
294.516	65.88
294.73	35.16
294.945	-22.19
295.16	16.73
295.374	22.87
295.589	43.35
295.804	-1.71
296.018	-16.04
296.233	57.68
296.447	4.44
296.662	43.35
296.877	10.58
297.091	92.5
297.306	131.41
297.52	45.4
297.735	45.4
297.949	8.53
298.164	-13.99
298.378	0.34
298.593	22.87
298.807	33.11
299.022	74.07
299.236	37.2
299.451	4.44
299.665	45.4
299.88	-32.43
300.094	82.26
300.309	76.12
300.523	45.4
300.737	20.82
300.952	16.73
301.166	16.73
301.381	65.88
301.595	-9.9
301.809	-18.09
302.024	-44.71
302.238	22.87
302.452	63.83
302.667	-1.71
302.881	86.36
303.095	53.59
303.309	43.35
303.524	14.68
303.738	61.78
303.952	43.35
304.166	24.92
304.381	-79.53
304.595	67.92
304.809	-13.99
305.023	41.3
305.237	-52.91
305.452	4.44
305.666	-52.91
305.88	129.36
306.094	0.34
306.308	94.55
306.522	-34.47
306.736	-11.95
306.95	-20.14
307.164	86.36
307.379	12.63
307.593	86.36
307.807	53.59
308.021	12.63
308.235	57.68
308.449	24.92
308.663	-38.57
308.877	33.11
309.091	14.68
309.305	43.35
309.519	10.58
309.733	98.64
309.947	-36.52
310.161	24.92
310.374	41.3
310.588	16.73
310.802	-40.62
311.016	24.92
311.23	-26.28
311.444	18.77
311.658	-5.8
311.872	80.21
312.085	-3.75
312.299	63.83
312.513	47.44
312.727	129.36
312.941	-24.23
313.154	84.31
313.368	82.26
313.582	12.63
313.796	16.73
314.009	-13.99
314.223	-5.8
314.437	33.11
314.651	72.02
314.864	-28.33
315.078	-28.33
315.292	-61.1
315.505	-36.52
315.719	51.54
315.933	29.01
316.146	14.68
316.36	26.96
316.573	106.84
316.787	16.73
317.001	-20.14
317.214	76.12
317.428	12.63
317.641	-9.9
317.855	8.53
318.068	88.4
318.282	-20.14
318.495	119.12
318.709	-30.38
318.922	37.2
319.136	65.88
319.349	78.16
319.563	-1.71
319.776	37.2
319.99	49.49
320.203	49.49
320.417	-30.38
320.63	98.64
320.843	94.55
321.057	-79.53
321.27	51.54
321.483	39.25
321.697	166.23
321.91	0.34
322.124	88.4
322.337	57.68
322.55	20.82
322.763	20.82
322.977	-24.23
323.19	-28.33
323.403	35.16
323.617	31.06
323.83	69.97
324.043	-11.95
324.256	92.5
324.469	16.73
324.683	110.93
324.896	-7.85
325.109	67.92
325.322	39.25
325.535	47.44
325.748	110.93
325.962	86.36
326.175	-3.75
326.388	33.11
326.601	78.16
326.814	-26.28
327.027	57.68
327.24	14.68
327.453	12.63
327.666	6.49
327.879	90.45
328.092	72.02
328.305	80.21
328.518	90.45
328.731	69.97
328.944	119.12
329.157	16.73
329.37	-5.8
329.583	76.12
329.796	63.83
330.009	-3.75
330.222	104.79
330.435	43.35
330.648	69.97
330.861	4.44
331.073	65.88
331.286	41.3
331.499	16.73
331.712	29.01
331.925	43.35
332.138	29.01
332.35	86.36
332.563	90.45
332.776	47.44
332.989	26.96
333.202	31.06
333.414	26.96
333.627	84.31
333.84	45.4
334.053	61.78
334.265	78.16
334.478	63.83
334.691	6.49
334.903	37.2
335.116	-32.43
335.329	6.49
335.541	-24.23
335.754	-24.23
335.966	-18.09
336.179	45.4
336.392	-7.85
336.604	59.73
336.817	104.79
337.029	12.63
337.242	86.36
337.454	53.59
337.667	14.68
337.88	22.87
338.092	98.64
338.305	100.69
338.517	-24.23
338.729	33.11
338.942	31.06
339.154	-34.47
339.367	-24.23
339.579	16.73
339.792	-32.43
340.004	78.16
340.217	49.49
340.429	82.26
340.641	-34.47
340.854	49.49
341.066	41.3
341.278	6.49
341.491	-24.23
341.703	49.49
341.915	-5.8
342.128	20.82
342.34	45.4
342.552	82.26
342.764	-26.28
342.977	33.11
343.189	90.45
343.401	26.96
343.613	-16.04
343.826	72.02
344.038	31.06
344.25	82.26
344.462	-7.85
344.674	12.63
344.886	-18.09
345.099	49.49
345.311	92.5
345.523	72.02
345.735	108.88
345.947	65.88
346.159	26.96
346.371	0.34
346.583	-83.63
346.795	-77.48
347.007	57.68
347.219	-3.75
347.431	18.77
347.643	72.02
347.855	-18.09
348.067	6.49
348.279	-22.19
348.491	-3.75
348.703	31.06
348.915	-36.52
349.127	61.78
349.339	43.35
349.551	24.92
349.763	-11.95
349.975	35.16
350.187	29.01
350.399	80.21
350.61	37.2
350.822	88.4
351.034	6.49
351.246	16.73
351.458	94.55
351.669	55.64
351.881	-20.14
352.093	43.35
352.305	26.96
352.517	80.21
352.728	76.12
352.94	43.35
353.152	100.69
353.363	24.92
353.575	33.11
353.787	121.17
353.999	57.68
354.21	43.35
354.422	49.49
354.633	-32.43
354.845	6.49
355.057	88.4
355.268	51.54
355.48	-20.14
355.692	-9.9
355.903	14.68
356.115	-16.04
356.326	-50.86
356.538	67.92
356.749	20.82
356.961	78.16
357.172	88.4
357.384	35.16
357.595	59.73
357.807	18.77
358.018	69.97
358.23	29.01
358.441	55.64
358.653	0.34
358.864	43.35
359.075	-9.9
359.287	6.49
359.498	26.96
359.709	100.69
359.921	-22.19
360.132	65.88
360.344	20.82
360.555	78.16
360.766	63.83
360.977	84.31
361.189	47.44
361.4	72.02
361.611	26.96
361.823	37.2
362.034	-7.85
362.245	33.11
362.456	14.68
362.667	88.4
362.879	-83.63
363.09	78.16
363.301	33.11
363.512	61.78
363.723	6.49
363.935	84.31
364.146	55.64
364.357	57.68
364.568	45.4
364.779	47.44
364.99	8.53
365.201	-5.8
365.412	61.78
365.623	24.92
365.834	-1.71
366.045	45.4
366.256	37.2
366.467	69.97
366.678	61.78
366.889	8.53
367.1	51.54
367.311	29.01
367.522	37.2
367.733	24.92
367.944	49.49
368.155	33.11
368.366	-50.86
368.577	47.44
368.788	-7.85
368.999	-18.09
369.209	69.97
369.42	24.92
369.631	78.16
369.842	-32.43
370.053	-3.75
370.264	72.02
370.474	45.4
370.685	33.11
370.896	78.16
371.107	45.4
371.317	69.97
371.528	39.25
371.739	86.36
371.95	41.3
372.16	55.64
372.371	-54.95
372.582	31.06
372.792	29.01
373.003	-3.75
373.214	22.87
373.424	72.02
373.635	49.49
373.846	51.54
374.056	106.84
374.267	22.87
374.477	123.22
374.688	51.54
374.898	4.44
375.109	18.77
375.319	45.4
375.53	86.36
375.74	63.83
375.951	12.63
376.161	-18.09
376.372	-26.28
376.582	0.34
376.793	22.87
377.003	6.49
377.214	26.96
377.424	49.49
377.635	20.82
377.845	88.4
378.055	18.77
378.266	129.36
378.476	59.73
378.686	10.58
378.897	53.59
379.107	43.35
379.317	51.54
379.528	51.54
379.738	33.11
379.948	53.59
380.158	96.6
380.369	49.49
380.579	2.39
380.789	12.63
380.999	26.96
381.21	20.82
381.42	61.78
381.63	55.64
381.84	45.4
382.05	-20.14
382.261	-7.85
382.471	69.97
382.681	47.44
382.891	14.68
383.101	39.25
383.311	26.96
383.521	-34.47
383.731	69.97
383.941	20.82
384.151	37.2
384.361	57.68
384.571	41.3
384.781	33.11
384.991	80.21
385.201	104.79
385.411	16.73
385.621	59.73
385.831	80.21
386.041	-48.81
386.251	18.77
386.461	59.73
386.671	12.63
386.881	72.02
387.091	-30.38
387.301	69.97
387.511	43.35
387.72	94.55
387.93	110.93
388.14	47.44
388.35	98.64
388.56	63.83
388.769	-28.33
388.979	-5.8
389.189	0.34
389.399	31.06
389.609	39.25
389.818	82.26
390.028	10.58
390.238	96.6
390.447	24.92
390.657	137.56
390.867	20.82
391.076	20.82
391.286	33.11
391.496	37.2
391.705	117.08
391.915	63.83
392.125	22.87
392.334	63.83
392.544	61.78
392.753	78.16
392.963	-52.91
393.172	92.5
393.382	82.26
393.591	65.88
393.801	106.84
394.01	37.2
394.22	98.64
394.429	24.92
394.639	76.12
394.848	-32.43
395.058	108.88
395.267	14.68
395.477	59.73
395.686	86.36
395.895	78.16
396.105	145.75
396.314	82.26
396.524	20.82
396.733	39.25
396.942	184.66
397.152	33.11
397.361	112.98
397.57	65.88
397.78	74.07
397.989	72.02
398.198	106.84
398.407	65.88
398.617	84.31
398.826	82.26
399.035	69.97
399.244	90.45
399.453	33.11
399.663	80.21
399.872	135.51
400.081	63.83
400.29	61.78
400.499	67.92
400.708	-7.85
400.917	147.8
401.127	117.08
401.336	59.73
401.545	96.6
401.754	145.75
401.963	35.16
402.172	96.6
402.381	53.59
402.59	127.32
402.799	98.64
403.008	90.45
403.217	123.22
403.426	76.12
403.635	90.45
403.844	125.27
404.053	45.4
404.262	45.4
404.471	112.98
404.68	92.5
404.888	115.03
405.097	84.31
405.306	168.27
405.515	96.6
405.724	67.92
405.933	209.23
406.142	121.17
406.35	155.99
406.559	59.73
406.768	112.98
406.977	102.74
407.185	190.8
407.394	190.8
407.603	149.84
407.812	147.8
408.02	176.47
408.229	256.34
408.438	123.22
408.646	186.71
408.855	170.32
409.064	231.76
409.272	229.71
409.481	205.14
409.69	160.08
409.898	244.05
410.107	305.49
410.315	266.58
410.524	254.29
410.733	291.15
410.941	258.39
411.15	235.86
411.358	260.43
411.567	303.44
411.775	342.35
411.984	299.34
412.192	381.26
412.401	366.93
412.609	393.55
412.818	401.74
413.026	411.98
413.234	356.69
413.443	420.17
413.651	377.17
413.86	407.89
414.068	471.37
414.276	457.04
414.485	493.9
414.693	452.94
414.901	543.05
415.11	506.19
415.318	532.81
415.526	489.81
415.734	452.94
415.943	631.12
416.151	586.06
416.359	588.11
416.567	624.97
416.776	700.75
416.984	641.36
417.192	756.04
417.4	751.95
417.608	706.89
417.817	741.71
418.025	831.82
418.233	784.71
418.441	835.91
418.649	919.88
418.857	926.02
419.065	954.69
419.273	911.69
419.481	1012.04
419.689	1038.66
419.897	1130.82
420.105	1147.2
420.313	1122.63
420.521	1190.21
420.729	1194.31
420.937	1225.03
421.145	1335.62
421.353	1327.43
421.561	1405.25
421.769	1421.63
421.977	1532.22
422.185	1507.65
422.393	1614.14
422.601	1732.92
422.809	1712.44
423.017	1648.96
423.224	1788.22
423.432	1831.23
423.64	1870.14
423.848	1986.87
424.056	1966.39
424.263	2091.32
424.471	2122.04
424.679	2138.42
424.887	2191.67
425.094	2408.75
425.302	2300.21
425.51	2500.91
425.718	2498.86
425.925	2478.38
426.133	2668.84
426.341	2758.96
426.548	2834.73
426.756	2812.2
426.964	2912.55
427.171	3076.39
427.379	3160.36
427.586	3305.76
427.794	3297.57
428.001	3531.04
428.209	3615.01
428.417	3578.14
428.624	3922.2
428.832	3719.45
429.039	3633.44
429.247	3815.71
429.454	4026.65
429.662	4382.99
429.869	4071.7
430.076	4428.05
430.284	4313.36
430.491	4505.87
430.699	4741.39
430.906	4860.17
431.114	4823.31
431.321	5042.44
431.528	5277.96
431.736	5476.61
431.943	5619.97
432.15	5570.82
432.358	5605.63
432.565	5828.86
432.772	5888.25
432.979	6119.67
433.187	6041.85
433.394	6213.88
433.601	6623.47
433.808	6658.29
434.016	6625.52
434.223	6795.5
434.43	7297.25
434.637	7114.98
434.844	7684.32
435.052	7956.7
435.259	7887.07
435.466	7866.59
435.673	7696.61
435.88	8333.53
436.087	8702.16
436.294	8630.48
436.501	8362.2
436.708	8675.54
436.915	8927.44
437.122	9359.56
437.329	9210.06
437.537	9623.75
437.743	9629.89
437.95	9740.48
438.157	10078.4
438.364	10703.03
438.571	10379.45
438.778	10461.37
438.985	11436.2
439.192	11180.2
439.399	11444.39
439.606	11122.86
439.813	11784.35
440.02	12441.75
440.227	12484.76
440.433	11968.67
440.64	12671.12
440.847	12431.51
441.054	12779.67
441.261	13514.89
441.467	13424.78
441.674	13881.47
441.881	14006.4
442.088	14274.68
442.294	14284.92
442.501	14370.94
442.708	14778.48
442.914	15433.83
443.121	15923.3
443.328	15347.82
443.534	16640.09
443.741	16191.58
443.948	15738.98
444.154	17109.07
444.361	16975.95
444.568	17049.68
444.774	17039.44
444.981	17467.47
445.187	17834.05
445.394	18403.39
445.6	18194.5
445.807	20019.24
446.013	19050.55
446.22	19630.12
446.426	19974.18
446.633	20490.27
446.839	21334.03
447.046	19927.08
447.252	21389.33
447.459	21272.59
447.665	21379.09
447.871	22001.67
448.078	22913.02
448.284	21866.5
448.491	22605.82
448.697	23216.12
448.903	23703.53
449.11	23681
449.316	23367.66
449.522	23629.8
449.728	24584.16
449.935	24674.27
450.141	24424.42
450.347	25321.43
450.553	24416.22
450.76	24952.79
450.966	25419.73
451.172	25135.06
451.378	25642.96
451.584	25329.62
451.791	25655.25
451.997	25792.46
452.203	26253.25
452.409	26070.98
452.615	25751.5
452.821	25227.22
453.027	24838.11
453.233	26109.89
453.44	24911.83
453.646	25167.83
453.852	25589.71
454.058	26019.78
454.264	24920.03
454.47	25618.38
454.676	24850.39
454.882	25720.78
455.088	23291.89
455.294	23824.36
455.5	23848.94
455.705	24377.31
455.911	23386.1
456.117	22880.25
456.323	22640.64
456.529	21250.07
456.735	22503.42
456.941	21835.78
457.147	21409.81
457.352	20733.98
457.558	20238.37
457.764	20344.86
457.97	20400.16
458.176	19609.64
458.381	19253.3
458.587	18913.33
458.793	18522.17
458.999	17639.5
459.204	18933.81
459.41	18561.08
459.616	17256.53
459.821	17098.83
460.027	17068.11
460.233	17023.06
460.438	15865.96
460.644	16134.24
460.85	15282.28
461.055	15216.75
461.261	15108.21
461.466	14096.51
461.672	13613.19
461.878	14645.37
462.083	13303.95
462.289	13191.31
462.494	13389.96
462.7	12755.09
462.905	12255.39
463.111	12904.59
463.316	12757.14
463.522	12394.65
463.727	12558.49
463.932	12443.8
464.138	12288.15
464.343	12322.97
464.549	11944.1
464.754	12445.85
464.959	12472.47
465.165	12112.03
465.37	11649.19
465.575	11399.34
465.781	11749.54
465.986	11890.85
466.191	11399.34
466.397	11180.2
466.602	10780.85
466.807	11016.37
467.012	11024.56
467.218	11075.76
467.423	10956.97
467.628	11063.47
467.833	11501.73
468.038	11184.3
468.244	10938.54
468.449	11366.57
468.654	11120.81
468.859	10541.24
469.064	10676.4
469.269	10291.38
469.474	10434.74
469.679	10623.16
469.885	10156.22
470.09	10229.95
470.295	10248.38
470.5	9853.12
470.705	10057.92
470.91	9875.65
471.115	9937.09
471.32	9986.24
471.525	9908.41
471.73	9625.79
471.935	9466.05
472.139	9255.11
472.344	9222.34
472.549	9351.37
472.754	9212.1
472.959	8997.07
473.164	8734.93
473.369	8589.52
473.574	8966.35
473.778	9115.85
473.983	8790.22
474.188	8868.05
474.393	8569.04
474.598	8671.44
474.802	8401.11
475.007	8345.81
475.212	8423.64
475.417	7856.35
475.621	8198.36
475.826	8091.87
476.031	7960.8
476.235	7876.83
476.44	8003.8
476.645	7751.9
476.849	7768.29
477.054	7540.96
477.259	7588.07
477.463	7461.09
477.668	7373.03
477.872	7461.09
478.077	7254.25
478.282	7143.66
478.486	6988.01
478.691	7026.92
478.895	6959.34
479.1	6983.91
479.304	7059.69
479.509	6818.03
479.713	7008.49
479.918	6654.19
480.122	6764.78
480.326	6883.56
480.531	6824.17
480.735	6506.74
480.94	6539.51
481.144	6899.95
481.348	6451.44
481.553	6373.62
481.757	6383.86
481.961	6521.07
482.166	6762.73
482.37	6613.23
482.574	6344.95
482.778	6531.31
482.983	6580.46
483.187	6322.42
483.391	6424.82
483.595	6445.3
483.8	6314.23
484.004	6207.73
484.208	6549.75
484.412	6326.52
484.616	6301.94
484.821	6381.81
485.025	6359.28
485.229	6377.72
485.433	6349.04
485.637	6414.58
485.841	6293.75
486.045	6445.3
486.249	6363.38
486.453	6398.2
486.657	6451.44
486.861	6547.7
487.065	6240.5
487.269	6347
487.473	6369.52
487.677	6455.54
487.881	6320.37
488.085	6170.87
488.289	6445.3
488.493	6449.39
488.697	6422.77
488.901	6410.48
489.105	6308.09
489.309	6451.44
489.512	6439.16
489.716	6572.27
489.92	6519.03
490.124	6484.21
490.328	6631.66
490.531	6600.94
490.735	6484.21
490.939	6578.42
491.143	6392.05
491.346	6592.75
491.55	6734.06
491.754	6660.34
491.958	6654.19
492.161	6719.73
492.365	6734.06
492.569	6777.07
492.772	6705.39
492.976	6877.42
493.18	6809.84
493.383	7045.35
493.587	6961.39
493.79	7139.56
493.994	6861.04
494.197	7008.49
494.401	7016.68
494.605	7002.35
494.808	7221.48
495.012	7215.34
495.215	7549.15
495.419	7401.7
495.622	7395.56
495.825	7518.43
496.029	7452.9
496.232	7667.94
496.436	7676.13
496.639	7827.68
496.843	7792.86
497.046	7936.22
497.249	7960.8
497.453	8073.43
497.656	8202.46
497.859	8190.17
498.063	8194.26
498.266	8126.68
498.469	8564.95
498.673	8421.59
498.876	8448.21
499.079	8749.26
499.282	8691.92
499.485	8782.03
499.689	8866
499.892	9017.55
500.095	8986.83
500.298	9185.48
500.501	9169.1
500.705	9294.02
500.908	9539.78
501.111	9627.84
501.314	9482.44
501.517	9607.36
501.72	9820.35
501.923	9988.28
502.126	10109.12
502.329	10002.62
502.532	10248.38
502.735	10266.81
502.938	10582.2
503.141	10485.94
503.344	10748.08
503.547	10678.45
503.75	10866.86
503.953	11102.38
504.156	11118.76
504.359	11368.62
504.562	11253.93
504.765	11817.12
504.968	11614.37
505.17	11772.07
505.373	11968.67
505.576	12052.64
505.779	12413.08
505.982	12159.13
506.185	12427.42
506.387	12445.85
506.59	12664.98
506.793	12898.45
506.996	13025.42
507.198	13058.19
507.401	13052.05
507.604	13205.64
507.807	13535.37
508.009	13611.14
508.212	13645.96
508.415	13838.47
508.617	14176.38
508.82	13955.2
509.022	13981.82
509.225	14526.58
509.428	14669.94
509.63	14768.24
509.833	14796.92
510.035	14995.57
510.238	14905.46
510.44	15267.95
510.643	15251.56
510.845	15677.54
511.048	15439.98
511.25	16035.94
511.453	15951.97
511.655	16533.59
511.858	16033.89
512.06	16402.52
512.262	16693.33
512.465	16599.13
512.667	16908.37
512.87	16816.21
513.072	17324.11
513.274	17403.98
513.477	17674.31
513.679	18010.18
513.881	17956.93
514.084	18282.56
514.286	18135.1
514.488	18090.05
514.69	18823.22
514.893	18987.06
515.095	18948.15
515.297	19013.68
515.499	19300.4
515.701	19591.21
515.904	19675.18
516.106	19853.35
516.308	19986.47
516.51	20228.13
516.712	20221.98
516.914	20471.84
517.116	20752.41
517.318	20625.43
517.52	20918.29
517.722	21080.08
517.925	21202.96
518.127	21514.25
518.329	21432.33
518.531	21723.15
518.733	22202.37
518.935	22255.62
519.136	22446.08
519.338	22763.51
519.54	22589.44
519.742	22927.35
519.944	23080.95
520.146	23578.61
520.348	23347.19
520.55	23535.6
520.752	23717.87
520.954	24324.07
521.155	24182.76
521.357	24520.67
521.559	24598.49
521.761	24805.34
521.963	24639.45
522.164	24942.55
522.366	25159.64
522.568	25337.81
522.77	25374.67
522.971	26191.81
523.173	25655.25
523.375	26230.73
523.576	26144.71
523.778	26046.41
523.98	26677.18
524.181	26499.01
524.383	26783.68
524.584	26795.96
524.786	26832.83
524.988	27072.44
525.189	27375.54
525.391	27664.3
525.592	27522.99
525.794	27631.54
525.995	27688.88
526.197	27774.89
526.398	28002.22
526.6	28164.01
526.801	28360.61
527.003	28653.47
527.204	28430.24
527.406	28821.41
527.607	28903.32
527.808	28907.42
528.01	28772.25
528.211	28759.97
528.412	29503.38
528.614	29257.62
528.815	29042.59
529.016	29427.6
529.218	29274.01
529.419	29364.12
529.62	29718.42
529.822	29618.07
530.023	29480.85
530.224	29720.46
530.425	29855.63
530.626	29702.03
530.828	29607.83
531.029	30533.51
531.23	30011.28
531.431	30050.19
531.632	30250.89
531.833	30144.39
532.035	30316.42
532.236	30021.52
532.437	30672.77
532.638	30238.6
532.839	30652.29
533.04	30689.15
533.241	30439.3
533.442	30852.99
533.643	30637.95
533.844	30652.29
534.045	30578.56
534.246	30478.21
534.447	30881.66
534.648	30470.02
534.849	30384.01
535.05	30502.79
535.251	30533.51
535.451	30652.29
535.652	30570.37
535.853	30564.23
536.054	30560.13
536.255	30666.63
536.456	30306.18
536.657	30973.82
536.857	30668.67
537.058	30658.43
537.259	30619.52
537.46	30449.54
537.66	30629.76
537.861	31203.19
538.062	30400.39
538.263	30869.37
538.463	30826.37
538.664	30939.01
538.865	30959.48
539.065	31045.5
539.266	30332.81
539.466	30865.28
539.667	30662.53
539.868	30812.03
540.068	30244.74
540.269	30932.86
540.469	30971.77
540.67	30668.67
540.87	30816.13
541.071	30615.43
541.271	30701.44
541.472	30910.33
541.672	30476.16
541.873	30758.78
542.073	30242.7
542.274	30873.47
542.474	30455.68
542.675	30338.95
542.875	31065.98
543.075	30873.47
543.276	30312.33
543.476	31223.67
543.676	30644.1
543.877	30898.05
544.077	30365.57
544.277	30660.48
544.478	30496.64
544.678	30707.58
544.878	30621.57
545.078	30463.88
545.279	30605.19
545.479	30324.61
545.679	30635.91
545.879	30605.19
546.079	30379.91
546.28	30220.17
546.48	30211.98
546.68	30599.04
546.88	30379.91
547.08	30433.16
547.28	30341
547.48	30195.59
547.68	30291.85
547.88	30171.02
548.081	30502.79
548.281	30111.63
548.481	30199.69
548.681	30371.72
548.881	30527.36
549.081	30521.22
549.28	30392.2
549.48	30703.49
549.68	30300.04
549.88	30635.91
550.08	30459.78
550.28	30257.03
550.48	30091.15
550.68	30504.84
550.88	29935.5
551.08	30039.95
551.279	30427.01
551.479	29783.95
551.679	30551.94
551.879	30361.48
552.079	30412.68
552.278	30111.63
552.478	30183.3
552.678	30293.9
552.878	30191.5
553.077	30179.21
553.277	30097.29
553.477	29890.45
553.676	29763.47
553.876	30367.62
554.076	29820.81
554.275	29800.33
554.475	29679.5
554.674	29906.83
554.874	29958.03
555.074	30019.47
555.273	30099.34
555.473	29953.93
555.672	30070.67
555.872	29933.45
556.071	29947.79
556.271	29642.64
556.47	29788.05
556.67	29396.88
556.869	29474.71
557.068	29587.35
557.268	29732.75
557.467	29347.73
557.667	29573.01
557.866	29487
558.065	29226.9
558.265	29325.21
558.464	28956.57
558.663	29581.2
558.863	29120.41
559.062	29196.18
559.261	29075.35
559.461	29362.07
559.66	28551.07
559.859	28878.75
560.058	28905.37
560.258	28987.29
560.457	28557.22
560.656	29018.01
560.855	28526.5
561.054	28960.67
561.253	28575.65
561.453	28411.81
561.652	28659.62
561.851	28845.98
562.05	28368.8
562.249	28307.37
562.448	28688.29
562.647	28301.22
562.846	28299.17
563.045	28290.98
563.244	27785.13
563.443	28544.93
563.642	28184.49
563.841	27922.35
564.04	27807.66
564.239	28211.11
564.438	27549.62
564.637	27645.87
564.836	27942.83
565.035	27299.76
565.234	27760.56
565.432	27414.45
565.631	27142.07
565.83	27416.5
566.029	27430.83
566.228	26998.71
566.427	27158.45
566.625	27412.4
566.824	26861.5
567.023	27058.1
567.222	26513.34
567.42	27170.74
567.619	26777.53
567.818	26644.41
568.016	26283.97
568.215	26949.56
568.414	26513.34
568.612	26701.76
568.811	26142.66
569.01	26288.07
569.208	26103.75
569.407	26214.34
569.605	25913.29
569.804	26441.67
570.002	25683.92
570.201	26255.3
570.4	25728.97
570.598	25583.57
570.797	25462.74
570.995	25616.33
571.193	25362.39
571.392	25493.46
571.59	25382.87
571.789	25444.31
571.987	25481.17
572.186	25286.61
572.384	25372.63
572.582	25421.78
572.781	25307.09
572.979	24686.56
573.177	24950.74
573.376	25034.71
573.574	24522.72
573.772	25071.57
573.971	24707.04
574.169	24678.36
574.367	24424.42
574.565	24817.63
574.763	24365.03
574.962	24090.6
575.16	23881.7
575.358	24113.13
575.556	23850.99
575.754	24166.37
575.952	24010.73
576.151	24438.75
576.349	23400.43
576.547	23746.54
576.745	23797.74
576.943	24080.36
577.141	23687.15
577.339	23717.87
577.537	23486.45
577.735	23388.14
577.933	23298.03
578.131	23562.22
578.329	23369.71
578.527	23134.2
578.725	22870.01
578.923	23404.53
579.121	23074.81
579.319	22800.38
579.516	23009.27
579.714	22902.78
579.912	22444.03
580.11	22771.71
580.308	22597.63
580.506	22654.97
580.704	22167.56
580.901	22689.79
581.099	22575.1
581.297	22276.1
581.495	21975.05
581.692	22382.59
581.89	22345.73
582.088	22185.99
582.285	21600.27
582.483	21843.98
582.681	22073.35
582.878	21616.65
583.076	21692.43
583.274	22083.59
583.471	21504.01
583.669	21643.28
583.866	21594.12
584.064	21665.8
584.262	21266.45
584.459	21405.71
584.657	20987.93
584.854	21166.1
585.052	20908.05
585.249	21252.11
585.447	21217.3
585.644	20836.38
585.841	20918.29
586.039	20983.83
586.236	20650.01
586.434	20817.94
586.631	20994.07
586.828	20865.05
587.026	20447.26
587.223	20422.69
587.42	20596.76
587.618	20531.23
587.815	19988.52
588.012	20109.35
588.21	20219.94
588.407	20629.53
588.604	20060.2
588.801	20082.72
588.999	20150.31
589.196	19890.21
589.393	19814.44
589.59	20031.52
589.787	19488.81
589.984	19560.49
590.182	19615.79
590.379	19320.88
590.576	19394.61
590.773	19259.44
590.97	19324.97
591.167	19257.39
591.364	19011.64
591.561	19515.44
591.758	19034.16
591.955	19013.68
592.152	18954.29
592.349	18948.15
592.546	19042.35
592.743	19009.59
592.94	18677.82
593.137	18880.57
593.334	18880.57
593.531	18493.5
593.727	18800.69
593.924	18675.77
594.121	18100.29
594.318	18423.87
594.515	18221.12
594.712	18481.21
594.908	18153.54
595.105	18309.18
595.302	17975.36
595.499	18354.24
595.696	17915.97
595.892	17946.69
596.089	17995.84
596.286	17700.94
596.482	17975.36
596.679	17840.2
596.876	17956.93
597.072	17909.83
597.269	17631.3
597.466	17571.91
597.662	17619.02
597.859	17608.78
598.055	17403.98
598.252	17240.14
598.448	17360.97
598.645	17449.04
598.841	17154.13
599.038	17307.73
599.234	17211.47
599.431	17104.98
599.627	17254.48
599.824	16984.15
600.02	16926.8
600.217	17119.31
600.413	17057.87
600.609	16695.38
600.806	16822.36
601.002	16738.39
601.198	16582.74
601.395	16521.31
601.591	16566.36
601.787	16547.93
601.984	16320.6
602.18	16461.91
602.376	16171.1
602.572	16029.79
602.769	16341.08
602.965	16146.53
603.161	16322.65
603.357	16105.57
603.553	16124
603.75	15951.97
603.946	16070.75
604.142	15804.52
604.338	15605.86
604.534	15704.17
604.73	15759.46
604.926	15622.25
605.122	15689.83
605.318	15401.07
605.514	15663.21
605.71	15720.55
605.906	15204.46
606.102	15192.17
606.298	15319.15
606.494	15032.43
606.69	15302.76
606.886	15138.93
607.082	15239.28
607.278	15063.15
607.474	14706.8
607.67	15106.16
607.866	15007.86
608.062	15161.45
608.257	14899.31
608.453	14815.35
608.649	14887.03
608.845	14639.22
609.041	14682.23
609.236	14948.47
609.432	14805.11
609.628	14495.86
609.824	14516.34
610.019	14499.96
610.215	14332.03
610.411	14600.31
610.606	14463.1
610.802	14545.02
610.998	14276.73
611.193	14483.58
611.389	14364.79
611.584	14327.93
611.78	14135.42
611.976	14086.27
612.171	14129.28
612.367	14186.62
612.562	13998.21
612.758	14035.07
612.953	13910.15
613.149	14321.79
613.344	14020.74
613.539	14168.19
613.735	14092.41
613.93	14098.56
614.126	13965.44
614.321	14184.57
614.517	13830.27
614.712	14022.78
614.907	13697.16
615.103	13926.53
615.298	13699.2
615.493	13783.17
615.688	13633.67
615.884	13650.05
616.079	13398.15
616.274	13484.17
616.47	13385.87
616.665	13619.33
616.86	13455.5
617.055	13447.3
617.25	13338.76
617.445	13512.84
617.641	13269.13
617.836	13482.12
618.031	13084.81
618.226	13320.33
618.421	13389.96
618.616	13394.06
618.811	13035.66
619.006	13238.41
619.201	12636.31
619.396	13045.9
619.591	13047.95
619.786	13299.85
619.981	12642.45
620.176	12882.06
620.371	12750.99
620.566	12787.86
620.761	12538.01
620.956	12703.89
621.151	12365.98
621.346	12542.1
621.541	12386.46
621.735	12632.21
621.93	12267.67
622.125	12372.12
622.32	11950.24
622.515	12210.33
622.709	12243.1
622.904	12249.24
623.099	11839.65
623.294	11929.76
623.488	11886.75
623.683	11876.51
623.878	11518.12
624.072	11616.42
624.267	11772.07
624.462	11649.19
624.656	11407.53
624.851	11440.29
625.046	11380.9
625.24	11298.98
625.435	11296.94
625.629	11075.76
625.824	10963.12
626.018	11073.71
626.213	10852.53
626.407	10887.34
626.602	10725.55
626.796	10678.45
626.991	10821.81
627.185	10733.75
627.38	10604.72
627.574	10672.31
627.768	10496.18
627.963	10533.04
628.157	10389.69
628.352	10432.69
628.546	10404.02
628.74	10586.29
628.935	10092.73
629.129	10238.14
629.323	9881.79
629.517	9998.52
629.712	9941.18
629.906	9961.66
630.1	9660.61
630.294	9590.98
630.489	9797.82
630.683	9623.75
630.877	9685.19
631.071	9525.44
631.265	9574.6
631.459	9449.67
631.653	9633.99
631.848	9375.94
632.042	9298.12
632.236	9435.33
632.43	9216.2
632.624	9291.98
632.818	9265.35
633.012	9113.8
633.206	9097.42
633.4	9044.17
633.594	8822.99
633.788	8822.99
633.982	8712.4
634.176	8919.25
634.369	8872.14
634.563	8661.2
634.757	8833.23
634.951	8665.3
635.145	8642.77
635.339	8622.29
635.533	8696.02
635.726	8564.95
635.92	8249.56
636.114	8347.86
636.308	8515.8
636.501	8489.17
636.695	8376.53
636.889	8239.32
637.083	8192.22
637.276	8143.07
637.47	8022.23
637.664	7889.12
637.857	8061.15
638.051	8120.54
638.244	7719.14
638.438	7997.66
638.632	7872.73
638.825	7659.74
639.019	7467.24
639.212	7696.61
639.406	7753.95
639.599	7844.06
639.793	7565.54
639.986	7520.48
640.18	7483.62
640.373	7491.81
640.567	7528.67
640.76	7354.6
640.954	7467.24
641.147	7164.14
641.34	7227.62
641.534	7237.86
641.727	7313.64
641.92	7155.94
642.114	6920.43
642.307	7112.94
642.5	6895.85
642.694	6959.34
642.887	7117.03
643.08	6932.72
643.273	6979.82
643.467	6961.39
643.66	6801.65
643.853	6889.71
644.046	6709.49
644.239	6635.76
644.432	6682.86
644.626	6625.52
644.819	6519.03
645.012	6562.03
645.205	6820.08
645.398	6484.21
645.591	6490.35
645.784	6437.11
645.977	6312.18
646.17	6291.7
646.363	6394.1
646.556	6254.84
646.749	6252.79
646.942	6340.85
647.135	6285.56
647.328	6205.69
647.521	6078.71
647.714	6035.71
647.907	6074.62
648.099	6070.52
648.292	6093.05
648.485	5759.23
648.678	5851.39
648.871	5734.65
649.064	5865.72
649.256	5832.96
649.449	5761.28
649.642	5724.41
649.835	5763.33
650.027	5753.09
650.22	5796.09
650.413	5677.31
650.605	5564.67
650.798	5562.62
650.991	5460.23
651.183	5638.4
651.376	5382.4
651.568	5591.3
651.761	5390.6
651.954	5441.79
652.146	5474.56
652.339	5347.59
652.531	5411.07
652.724	5169.41
652.916	5269.76
653.109	5271.81
653.301	5284.1
653.494	5316.87
653.686	5089.54
653.879	5189.89
654.071	5196.04
654.263	5097.74
654.456	5191.94
654.648	5009.67
654.84	4923.66
655.033	4849.93
655.225	4944.14
655.417	4784.4
655.61	5024.01
655.802	4890.89
655.994	4919.56
656.186	4778.25
656.379	4860.17
656.571	4835.6
656.763	4952.33
656.955	4737.29
657.148	4757.77
657.34	4763.92
657.532	4647.18
657.724	4585.74
657.916	4604.18
658.108	4630.8
658.3	4653.33
658.492	4446.48
658.684	4561.17
658.876	4581.65
659.068	4423.95
659.26	4296.98
659.452	4487.44
659.644	4389.14
659.836	4346.13
660.028	4387.09
660.22	4309.27
660.412	4237.59
660.604	4323.6
660.796	4215.06
660.988	4360.47
661.18	4127
661.372	4204.82
661.563	4202.77
661.755	4002.07
661.947	4227.35
662.139	4114.71
662.331	4024.6
662.522	3973.4
662.714	4206.87
662.906	4043.03
663.097	3928.35
663.289	4098.33
663.481	3860.76
663.673	3850.52
663.864	3987.74
664.056	3782.94
664.247	3832.09
664.439	3887.39
664.631	3856.67
664.822	3852.57
665.014	3741.98
665.205	3838.23
665.397	3725.6
665.588	3795.23
665.78	3676.45
665.971	3621.15
666.163	3711.26
666.354	3655.97
666.546	3795.23
666.737	3594.53
666.929	3715.36
667.12	3588.38
667.311	3596.57
667.503	3504.42
667.694	3723.55
667.885	3539.23
668.077	3549.47
668.268	3504.42
668.459	3387.68
668.651	3506.46
668.842	3510.56
669.033	3457.31
669.224	3369.25
669.416	3428.64
669.607	3416.35
669.798	3332.39
669.989	3389.73
670.18	3363.11
670.371	3281.19
670.563	3375.39
670.754	3385.63
670.945	3381.54
671.136	3264.8
671.327	3270.95
671.518	3166.5
671.709	3191.08
671.9	3348.77
672.091	3209.51
672.282	3109.16
672.473	3162.41
672.664	3238.18
672.855	3219.75
673.046	3141.93
673.237	3199.27
673.428	3131.69
673.619	3291.43
673.809	3041.57
674	3105.06
674.191	3057.96
674.382	3096.87
674.573	3115.3
674.764	2988.33
674.954	3109.16
675.145	3152.17
675.336	3113.25
675.527	2971.94
675.717	3049.77
675.908	2953.51
676.099	3002.66
676.289	2955.56
676.48	2937.13
676.671	2996.52
676.861	3029.29
677.052	2853.16
677.243	2935.08
677.433	2873.64
677.624	2988.33
677.814	2779.43
678.005	2906.41
678.195	2806.06
678.386	2906.41
678.576	2875.69
678.767	2957.61
678.957	2785.58
679.148	2863.4
679.338	2832.68
679.529	2898.22
679.719	2775.34
679.909	2783.53
680.1	2812.2
680.29	2812.2
680.481	2736.43
680.671	2672.94
680.861	2898.22
681.052	2625.84
681.242	2830.63
681.432	2822.44
681.622	2715.95
681.813	2836.78
682.003	2625.84
682.193	2773.29
682.383	2818.35
682.573	2654.51
682.764	2771.24
682.954	2740.52
683.144	2730.28
683.334	2586.93
683.524	2705.71
683.714	2605.36
683.904	2666.8
684.094	2799.91
684.284	2644.27
684.474	2715.95
684.664	2634.03
684.854	2597.17
685.044	2599.21
685.234	2541.87
685.424	2582.83
685.614	2468.14
685.804	2595.12
685.994	2584.88
686.184	2566.45
686.374	2517.29
686.564	2496.82
686.753	2500.91
686.943	2492.72
687.133	2451.76
687.323	2404.66
687.513	2576.69
687.702	2466.1
687.892	2445.62
688.082	2394.42
688.272	2468.14
688.461	2509.1
688.651	2525.49
688.841	2490.67
689.03	2345.27
689.22	2392.37
689.41	2296.11
689.599	2414.9
689.789	2271.54
689.979	2218.29
690.168	2271.54
690.358	2300.21
690.547	2240.82
690.737	2375.99
690.926	2310.45
691.116	2216.24
691.305	2347.31
691.495	2261.3
691.684	2185.52
691.874	2283.83
692.063	2150.71
692.252	2294.07
692.442	2277.68
692.631	2181.43
692.82	2302.26
693.01	2251.06
693.199	2320.69
693.388	2154.8
693.578	2109.75
693.767	2144.56
693.956	2228.53
694.146	2111.8
694.335	2300.21
694.524	2163
694.713	2244.92
694.902	2199.86
695.092	2160.95
695.281	2048.31
695.47	2109.75
695.659	2101.56
695.848	2068.79
696.037	2167.09
696.226	2183.48
696.415	2087.22
696.604	2122.04
696.793	2031.93
696.982	2050.36
697.171	2140.47
697.36	2126.13
697.549	2064.69
697.738	2066.74
697.927	2152.76
698.116	2068.79
698.305	1964.34
698.494	2083.13
698.683	1986.87
698.872	2011.45
699.061	1962.3
699.25	1958.2
699.438	2081.08
699.627	1954.1
699.816	1988.92
700.005	2081.08
700.193	2056.5
700.382	2005.3
700.571	2058.55
700.76	2101.56
700.948	2062.65
701.137	1988.92
701.326	2070.84
701.514	1937.72
701.703	2052.41
701.892	2021.69
702.08	2097.46
702.269	1986.87
702.457	2009.4
702.646	1995.06
702.834	1970.49
703.023	2064.69
703.212	2013.49
703.4	2048.31
703.589	2023.73
703.777	1976.63
703.965	1882.42
704.154	2076.98
704.342	1915.19
704.531	1925.43
704.719	1978.68
704.907	1947.96
705.096	2009.4
705.284	1882.42
705.472	2015.54
705.661	1861.94
705.849	1945.91
706.037	1970.49
706.226	2038.07
706.414	2036.02
706.602	2015.54
706.79	2005.3
706.979	2087.22
707.167	2089.27
707.355	2025.78
707.543	1909.05
707.731	1966.39
707.919	1980.73
708.107	1937.72
708.296	1974.58
708.484	1907
708.672	2017.59
708.86	1997.11
709.048	2017.59
709.236	1999.16
709.424	1964.34
709.612	2058.55
709.8	2017.59
709.988	1941.82
710.176	1945.91
710.364	1997.11
710.551	2040.12
710.739	1880.38
710.927	1878.33
711.115	1960.25
711.303	2023.73
711.491	1917.24
711.679	1947.96
711.866	1990.97
712.054	2038.07
712.242	1884.47
712.43	1976.63
712.617	1851.71
712.805	2048.31
712.993	1966.39
713.181	1843.51
713.368	1898.81
713.556	1950.01
713.744	1970.49
713.931	1933.62
714.119	1933.62
714.306	1941.82
714.494	1988.92
714.682	2007.35
714.869	1915.19
715.057	2019.64
715.244	1904.95
715.432	2038.07
715.619	1874.23
715.807	1917.24
715.994	2009.4
716.182	1966.39
716.369	1843.51
716.556	1943.86
716.744	1941.82
716.931	1833.27
717.119	2021.69
717.306	1902.9
717.493	2033.97
717.681	1825.08
717.868	1945.91
718.055	1921.34
718.242	1941.82
718.43	2062.65
718.617	1911.1
718.804	1872.18
718.991	2001.21
719.179	1937.72
719.366	1911.1
719.553	1956.15
719.74	1923.38
719.927	1958.2
720.114	1882.42
720.301	1980.73
720.488	1913.14
720.676	1931.58
720.863	1939.77
721.05	1935.67
721.237	1978.68
721.424	1982.78
721.611	1980.73
721.798	1976.63
721.985	1974.58
722.172	1894.71
722.358	1857.85
722.545	1900.86
722.732	1915.19
722.919	1976.63
723.106	1999.16
723.293	1884.47
723.48	1884.47
723.667	1841.47
723.853	1978.68
724.04	1997.11
724.227	2044.21
724.414	1935.67
724.6	1861.94
724.787	2007.35
724.974	2007.35
725.161	1999.16
725.347	1866.04
725.534	1980.73
725.72	1970.49
725.907	1853.75
726.094	1847.61
726.28	2052.41
726.467	1898.81
726.653	1978.68
726.84	1937.72
727.027	1962.3
727.213	1904.95
727.4	1841.47
727.586	1999.16
727.773	2005.3
727.959	1929.53
728.145	1962.3
728.332	1863.99
728.518	1882.42
728.705	1970.49
728.891	2019.64
729.077	1988.92
729.264	2001.21
729.45	1935.67
729.636	1915.19
729.823	1913.14
730.009	1974.58
730.195	2064.69
730.382	1812.79
730.568	1880.38
730.754	1956.15
730.94	1937.72
731.126	1904.95
731.313	1861.94
731.499	1892.66
731.685	1925.43
731.871	1943.86
732.057	1913.14
732.243	1935.67
732.429	1986.87
732.615	1898.81
732.801	1884.47
732.987	1904.95
733.173	1925.43
733.359	2001.21
733.545	1876.28
733.731	1937.72
733.917	1972.54
734.103	1784.12
734.289	1982.78
734.475	1886.52
734.661	1921.34
734.847	1933.62
735.033	1839.42
735.219	1898.81
735.404	1808.7
735.59	1939.77
735.776	1878.33
735.962	1966.39
736.148	1907
736.333	1913.14
736.519	1863.99
736.705	1857.85
736.89	1892.66
737.076	1970.49
737.262	1847.61
737.447	1913.14
737.633	1890.62
737.819	1786.17
738.004	1915.19
738.19	1814.84
738.375	1818.94
738.561	1853.75
738.747	1810.75
738.932	1751.35
739.118	1917.24
739.303	1818.94
739.489	1911.1
739.674	1808.7
739.859	1802.55
740.045	1837.37
740.23	1820.99
740.416	1751.35
740.601	1786.17
740.786	1716.54
740.972	1868.09
741.157	1798.46
741.342	1737.02
741.528	1767.74
741.713	1794.36
741.898	1777.98
742.084	1794.36
742.269	1835.32
742.454	1759.55
742.639	1782.07
742.824	1655.1
743.01	1724.73
743.195	1712.44
743.38	1722.68
743.565	1825.08
743.75	1603.9
743.935	1653.05
744.12	1665.34
744.305	1655.1
744.49	1642.81
744.675	1646.91
744.86	1648.96
745.045	1653.05
745.23	1677.63
745.415	1587.52
745.6	1653.05
745.785	1581.37
745.97	1726.78
746.155	1640.76
746.34	1694.01
746.525	1556.8
746.71	1614.14
746.895	1663.29
747.079	1618.24
747.264	1571.13
747.449	1534.27
747.634	1569.09
747.819	1581.37
748.003	1605.95
748.188	1446.21
748.373	1591.61
748.557	1562.94
748.742	1511.74
748.927	1503.55
749.111	1497.41
749.296	1521.98
749.481	1476.93
749.665	1501.5
749.85	1347.9
750.034	1478.97
750.219	1399.1
750.404	1440.06
750.588	1503.55
750.773	1366.34
750.957	1429.82
751.141	1364.29
751.326	1386.82
751.51	1392.96
751.695	1374.53
751.879	1356.1
752.064	1347.9
752.248	1321.28
752.432	1454.4
752.617	1366.34
752.801	1306.95
752.985	1294.66
753.17	1282.37
753.354	1304.9
753.538	1247.55
753.722	1190.21
753.907	1278.27
754.091	1157.44
754.275	1237.31
754.459	1261.89
754.643	1263.94
754.828	1241.41
755.012	1255.75
755.196	1259.84
755.38	1235.27
755.564	1118.53
755.748	1225.03
755.932	1249.6
756.116	1114.44
756.3	1208.64
756.484	1087.81
756.668	1179.97
756.852	1098.05
757.036	1163.59
757.22	1042.76
757.404	1132.87
757.588	1024.33
757.772	1032.52
757.956	1020.23
758.14	1048.9
758.323	1093.96
758.507	1091.91
758.691	1073.48
758.875	1036.61
759.059	1038.66
759.242	1069.38
759.426	1030.47
759.61	1009.99
759.794	1014.09
759.977	1040.71
760.161	1077.57
760.345	969.03
760.528	1007.94
760.712	1022.28
760.895	1005.89
761.079	1014.09
761.263	934.22
761.446	1020.23
761.63	1001.8
761.813	956.74
761.997	975.17
762.18	958.79
762.364	883.02
762.547	815.43
762.731	950.6
762.914	891.21
763.098	897.35
763.281	907.59
763.464	901.45
763.648	917.83
763.831	850.25
764.015	893.26
764.198	850.25
764.381	893.26
764.564	909.64
764.748	907.59
764.931	917.83
765.114	856.39
765.297	883.02
765.481	909.64
765.664	809.29
765.847	887.11
766.03	874.82
766.213	813.38
766.397	880.97
766.58	876.87
766.763	893.26
766.946	772.43
767.129	880.97
767.312	817.48
767.495	784.71
767.678	833.86
767.861	794.95
768.044	823.62
768.227	803.15
768.41	823.62
768.593	850.25
768.776	766.28
768.959	819.53
769.142	788.81
769.324	706.89
769.507	842.06
769.69	747.85
769.873	809.29
770.056	840.01
770.239	860.49
770.421	805.19
770.604	727.37
770.787	842.06
770.97	774.47
771.152	756.04
771.335	760.14
771.518	727.37
771.7	799.05
771.883	758.09
772.066	700.75
772.248	741.71
772.431	688.46
772.613	719.18
772.796	739.66
772.978	758.09
773.161	768.33
773.343	655.69
773.526	735.56
773.708	661.84
773.891	653.64
774.073	659.79
774.256	676.17
774.438	710.99
774.621	608.59
774.803	727.37
774.985	643.4
775.168	663.88
775.35	684.36
775.532	727.37
775.715	667.98
775.897	610.64
776.079	708.94
776.261	667.98
776.444	627.02
776.626	606.54
776.808	608.59
776.99	612.68
777.173	534.86
777.355	530.77
777.537	598.35
777.719	532.81
777.901	549.2
778.083	551.24
778.265	520.53
778.447	577.87
778.629	661.84
778.811	645.45
778.993	592.2
779.175	557.39
779.357	551.24
779.539	532.81
779.721	508.24
779.903	594.25
780.085	565.58
780.267	536.91
780.449	536.91
780.631	594.25
780.812	504.14
780.994	491.85
781.176	534.86
781.358	573.77
781.54	506.19
781.721	508.24
781.903	516.43
782.085	485.71
782.267	530.77
782.448	528.72
782.63	432.46
782.812	414.03
782.993	473.42
783.175	467.28
783.357	389.46
783.538	362.83
783.72	379.22
783.901	500.05
784.083	459.09
784.264	409.94
784.446	399.7
784.627	426.32
784.809	354.64
784.99	457.04
785.172	426.32
785.353	434.51
785.535	487.76
785.716	395.6
785.897	366.93
786.079	366.93
786.26	350.54
786.441	373.07
786.623	442.7
786.804	338.26
786.985	407.89
787.167	444.75
787.348	360.78
787.529	428.37
787.71	393.55
787.891	454.99
788.073	307.54
788.254	323.92
788.435	309.58
788.616	360.78
788.797	368.98
788.978	278.87
789.159	313.68
789.34	311.63
789.522	352.59
789.703	340.3
789.884	262.48
790.065	420.17
790.246	356.69
790.427	344.4
790.607	399.7
790.788	313.68
790.969	266.58
791.15	266.58
791.331	252.24
791.512	360.78
791.693	319.82
791.874	297.3
792.054	297.3
792.235	371.02
792.416	299.34
792.597	301.39
792.778	246.1
792.958	266.58
793.139	264.53
793.32	293.2
793.5	264.53
793.681	276.82
793.862	285.01
794.042	317.78
794.223	305.49
794.404	237.91
794.584	258.39
794.765	319.82
794.945	256.34
795.126	346.45
795.306	315.73
795.487	264.53
795.667	297.3
795.848	303.44
796.028	313.68
796.209	317.78
796.389	266.58
796.57	270.67
796.75	219.47
796.93	260.43
797.111	235.86
797.291	270.67
797.471	299.34
797.652	268.63
797.832	336.21
798.012	321.87
798.192	323.92
798.373	151.89
798.553	217.43
798.733	242
798.913	168.27
799.093	223.57
799.274	311.63
799.454	244.05
799.634	184.66
799.814	237.91
799.994	239.95
800.174	270.67
800.354	125.27
800.534	268.63
800.714	291.15
800.894	254.29
801.074	190.8
801.254	237.91
801.434	250.19
801.614	270.67
801.794	217.43
801.974	588.11
802.154	168.27
802.334	237.91
802.514	231.76
802.693	137.56
802.873	196.95
803.053	207.19
803.233	229.71
803.413	196.95
803.592	256.34
803.772	192.85
803.952	258.39
804.131	176.47
804.311	242
804.491	215.38
804.67	135.51
804.85	201.04
805.03	135.51
805.209	215.38
805.389	182.61
805.568	237.91
805.748	158.03
805.928	186.71
806.107	137.56
806.287	151.89
806.466	106.84
806.646	213.33
806.825	201.04
807.004	186.71
807.184	192.85
807.363	133.46
807.543	172.37
807.722	166.23
807.901	172.37
808.081	176.47
808.26	184.66
808.439	86.36
808.619	174.42
808.798	170.32
808.977	106.84
809.156	205.14
809.336	137.56
809.515	125.27
809.694	190.8
809.873	82.26
810.052	110.93
810.231	141.65
810.411	166.23
810.59	186.71
810.769	131.41
810.948	133.46
811.127	119.12
811.306	110.93
811.485	92.5
811.664	196.95
811.843	258.39
812.022	188.75
812.201	33.11
812.38	131.41
812.559	119.12
812.737	137.56
812.916	63.83
813.095	149.84
813.274	186.71
813.453	74.07
813.632	100.69
813.811	147.8
813.989	174.42
814.168	174.42
814.347	129.36
814.526	112.98
814.704	135.51
814.883	164.18
815.062	84.31
815.24	131.41
815.419	188.75
815.598	160.08
815.776	117.08
815.955	88.4
816.133	74.07
816.312	223.57
816.49	90.45
816.669	106.84
816.847	139.6
817.026	143.7
817.204	137.56
817.383	100.69
817.561	155.99
817.74	137.56
817.918	69.97
818.097	82.26
818.275	174.42
818.453	131.41
818.632	47.44
818.81	119.12
818.988	115.03
819.167	92.5
819.345	84.31
819.523	88.4
819.701	129.36
819.879	137.56
820.058	80.21
820.236	100.69
820.414	94.55
820.592	94.55
820.77	88.4
820.948	131.41
821.127	158.03
821.305	141.65
821.483	80.21
821.661	139.6
821.839	94.55
822.017	143.7
822.195	86.36
822.373	170.32
822.551	115.03
822.729	158.03
822.907	88.4
823.085	12.63
823.262	96.6
823.44	100.69
823.618	69.97
823.796	92.5
823.974	94.55
824.152	145.75
824.329	67.92
824.507	90.45
824.685	92.5
824.863	55.64
825.04	29.01
825.218	63.83
825.396	96.6
825.574	55.64
825.751	-1.71
825.929	115.03
826.107	57.68
826.284	102.74
826.462	-26.28
826.639	76.12
826.817	76.12
826.994	57.68
827.172	104.79
827.349	135.51
827.527	35.16
827.704	65.88
827.882	88.4
828.059	121.17
828.237	47.44
828.414	96.6
828.591	180.56
828.769	51.54
828.946	123.22
829.124	149.84
829.301	39.25
829.478	24.92
829.655	131.41
829.833	72.02
830.01	76.12
830.187	92.5
830.364	59.73
830.542	108.88
830.719	137.56
830.896	45.4
831.073	14.68
831.25	92.5
831.427	90.45
831.604	127.32
831.782	43.35
831.959	119.12
832.136	-26.28
832.313	112.98
832.49	112.98
832.667	67.92
832.844	76.12
833.021	65.88
833.198	78.16
833.374	61.78
833.551	100.69
833.728	-5.8
833.905	102.74
834.082	88.4
834.259	96.6
834.436	121.17
834.612	12.63
834.789	47.44
834.966	41.3
835.143	139.6
835.319	37.2
835.496	98.64
835.673	49.49
835.85	90.45
836.026	-11.95
836.203	119.12
836.38	59.73
836.556	51.54
836.733	49.49
836.909	22.87
837.086	49.49
837.262	69.97
837.439	94.55
837.616	143.7
837.792	53.59
837.968	80.21
838.145	51.54
838.321	39.25
838.498	92.5
838.674	65.88
838.851	78.16
839.027	67.92
839.203	78.16
839.38	98.64
839.556	31.06
839.732	117.08
839.909	67.92
840.085	39.25
840.261	37.2
840.437	86.36
840.614	37.2
840.79	61.78
840.966	-28.33
841.142	41.3
841.318	76.12
841.494	86.36
841.671	41.3
841.847	12.63
842.023	41.3
842.199	115.03
842.375	22.87
842.551	63.83
842.727	90.45
842.903	110.93
843.079	-11.95
843.255	65.88
843.431	104.79
843.607	104.79
843.783	108.88
843.959	92.5
844.134	63.83
844.31	88.4
844.486	20.82
844.662	92.5
844.838	-3.75
845.013	39.25
845.189	74.07
845.365	123.22
845.541	18.77
845.716	90.45
845.892	10.58
846.068	8.53
846.244	78.16
846.419	69.97
846.595	10.58
846.77	20.82
846.946	55.64
847.122	6.49
847.297	115.03
847.473	80.21
847.648	78.16
847.824	47.44
847.999	-5.8
848.175	84.31
848.35	115.03
848.526	4.44
848.701	104.79
848.876	22.87
849.052	160.08
849.227	59.73
849.403	80.21
849.578	100.69
849.753	39.25
849.929	55.64
850.104	-48.81
850.279	37.2
850.454	20.82
850.63	94.55
850.805	-24.23
850.98	33.11
851.155	-3.75
851.33	0.34
851.505	-3.75
851.681	127.32
851.856	22.87
852.031	80.21
852.206	47.44
852.381	47.44
852.556	53.59
852.731	53.59
852.906	10.58
853.081	35.16
853.256	61.78
853.431	-11.95
853.606	26.96
853.781	57.68
853.956	0.34
854.131	20.82
854.305	59.73
854.48	22.87
854.655	67.92
854.83	86.36
855.005	-16.04
855.18	41.3
855.354	29.01
855.529	41.3
855.704	0.34
855.879	86.36
856.053	133.46
856.228	12.63
856.403	51.54
856.577	59.73
856.752	0.34
856.926	-28.33
857.101	18.77
857.276	31.06
857.45	29.01
857.625	-16.04
857.799	65.88
857.974	47.44
858.148	47.44
858.323	41.3
858.497	86.36
858.672	67.92
858.846	41.3
859.02	61.78
859.195	18.77
859.369	10.58
859.543	10.58
859.718	57.68
859.892	-34.47
860.066	16.73
860.241	4.44
860.415	53.59
860.589	55.64
860.763	74.07
860.938	33.11
861.112	35.16
861.286	53.59
861.46	76.12
861.634	-11.95
861.808	117.08
861.982	80.21
862.157	-24.23
862.331	76.12
862.505	8.53
862.679	-16.04
862.853	61.78
863.027	6.49
863.201	94.55
863.375	-5.8
863.549	31.06
863.722	-48.81
863.896	117.08
864.07	-16.04
864.244	24.92
864.418	74.07
864.592	82.26
864.766	57.68
864.939	-30.38
865.113	86.36
865.287	80.21
865.461	49.49
865.634	26.96
865.808	137.56
865.982	78.16
866.156	0.34
866.329	37.2
866.503	35.16
866.676	49.49
866.85	74.07
867.024	67.92
867.197	37.2
867.371	29.01
867.544	33.11
867.718	-20.14
867.891	-46.76
868.065	0.34
868.238	8.53
868.412	61.78
868.585	90.45
868.759	-28.33
868.932	-9.9
869.105	33.11
869.279	12.63
869.452	35.16
869.625	65.88
869.799	37.2
869.972	31.06
870.145	65.88
870.319	86.36
870.492	61.78
870.665	-11.95
870.838	31.06
871.011	-38.57
871.185	-11.95
871.358	-65.19
871.531	-7.85
871.704	-7.85
871.877	61.78
872.05	-40.62
872.223	6.49
872.396	16.73
872.569	41.3
872.742	10.58
872.915	-20.14
873.088	104.79
873.261	55.64
873.434	41.3
873.607	51.54
873.78	-24.23
873.953	-9.9
874.126	74.07
874.299	67.92
874.471	26.96
874.644	-11.95
874.817	-24.23
874.99	45.4
875.163	8.53
875.335	-32.43
875.508	-48.81
875.681	106.84
875.853	18.77
876.026	-3.75
876.199	33.11
876.371	22.87
876.544	-22.19
876.717	0.34
876.889	35.16
877.062	43.35
877.234	-122.54
877.407	22.87
877.579	-61.1
877.752	-44.71
877.924	26.96
878.097	24.92
878.269	26.96
878.442	31.06
878.614	53.59
878.786	43.35
878.959	18.77
879.131	41.3
879.303	-7.85
879.476	-16.04
879.648	24.92
879.82	22.87
879.993	-3.75
880.165	35.16
880.337	-69.29
880.509	53.59
880.681	10.58
880.854	-16.04
881.026	0.34
881.198	22.87
881.37	-32.43
881.542	20.82
881.714	33.11
881.886	33.11
882.058	22.87
882.23	2.39
882.402	51.54
882.574	0.34
882.746	-7.85
882.918	10.58
883.09	20.82
883.262	33.11
883.434	20.82
883.606	-65.19
883.778	2.39
883.95	35.16
884.122	20.82
884.293	61.78
884.465	57.68
884.637	-16.04
884.809	-30.38
884.98	20.82
885.152	39.25
885.324	43.35
885.496	-13.99
885.667	45.4
885.839	-38.57
886.011	33.11
886.182	-44.71
886.354	-59.05
886.525	12.63
886.697	61.78
886.869	18.77
887.04	18.77
887.212	90.45
887.383	8.53
887.555	35.16
887.726	45.4
887.897	-32.43
888.069	39.25
888.24	-75.43
888.412	82.26
888.583	4.44
888.754	84.31
888.926	-46.76
889.097	2.39
889.268	26.96
889.44	-3.75
889.611	-83.63
889.782	-22.19
889.953	-26.28
890.125	-26.28
890.296	-5.8
890.467	-32.43
890.638	18.77
890.809	47.44
890.98	2.39
891.151	55.64
891.323	78.16
891.494	6.49
891.665	20.82
891.836	-3.75
892.007	43.35
892.178	-7.85
892.349	-3.75
892.52	-7.85
892.691	-22.19
892.862	6.49
893.032	-57
893.203	14.68
893.374	59.73
893.545	-50.86
893.716	-32.43
893.887	67.92
894.057	6.49
894.228	35.16
894.399	16.73
894.57	51.54
894.74	-5.8
894.911	84.31
895.082	-11.95
895.253	-5.8
895.423	-59.05
895.594	16.73
895.764	43.35
895.935	10.58
896.106	-32.43
896.276	-5.8
896.447	39.25
896.617	-18.09
896.788	80.21
896.958	39.25
897.129	51.54
897.299	94.55
897.47	18.77
897.64	-20.14
897.81	4.44
897.981	8.53
898.151	43.35
898.322	-34.47
898.492	20.82
898.662	20.82
898.832	57.68
899.003	-5.8
899.173	-7.85
899.343	69.97
899.513	16.73
