Data from USB4F104151__3__11-04-30-256.txt Node

Date: Wed Mar 12 11:04:30 EDT 2025
User: louis
Spectrometer: USB4F10415
Trigger mode: 4
Integration Time (sec): 2.000000E-2
Scans to average: 1
Electric dark correction enabled: true
Nonlinearity correction enabled: false
Boxcar width: 0
XAxis mode: Wavelengths
Number of Pixels in Spectrum: 3648
>>>>>Begin Spectral Data<<<<<
178.204	-108.88
178.424	-108.88
178.644	-108.88
178.864	-69.97
179.084	-72.02
179.304	-102.74
179.524	16.04
179.744	-18.77
179.964	57
180.184	-14.68
180.404	20.14
180.624	71.34
180.844	-10.58
181.064	-6.49
181.283	18.09
181.503	-26.96
181.723	-2.39
181.943	-16.73
182.163	46.76
182.383	-2.39
182.602	50.86
182.822	32.43
183.042	100.01
183.262	34.47
183.482	26.28
183.701	24.23
183.921	104.11
184.141	-45.4
184.361	-39.25
184.58	22.19
184.8	61.1
185.02	48.81
185.239	-29.01
185.459	-26.96
185.679	28.33
185.898	28.33
186.118	30.38
186.338	52.91
186.557	122.54
186.777	-12.63
186.997	67.24
187.216	-24.92
187.436	28.33
187.655	57
187.875	16.04
188.095	-49.49
188.314	9.9
188.534	-26.96
188.753	16.04
188.973	1.71
189.192	73.39
189.412	97.96
189.631	-45.4
189.851	65.19
190.07	32.43
190.29	-35.16
190.509	26.28
190.729	-0.34
190.948	22.19
191.168	134.82
191.387	95.91
191.607	-37.2
191.826	93.87
192.045	-8.53
192.265	20.14
192.484	38.57
192.704	3.75
192.923	-2.39
193.142	91.82
193.362	112.3
193.581	26.28
193.8	42.67
194.02	54.95
194.239	18.09
194.458	42.67
194.678	93.87
194.897	1.71
195.116	-22.87
195.335	44.71
195.555	52.91
195.774	28.33
195.993	52.91
196.212	54.95
196.432	81.58
196.651	-12.63
196.87	9.9
197.089	22.19
197.308	5.8
197.528	36.52
197.747	52.91
197.966	-41.3
198.185	63.15
198.404	5.8
198.623	-8.53
198.842	63.15
199.062	-26.96
199.281	28.33
199.5	36.52
199.719	32.43
199.938	7.85
200.157	81.58
200.376	65.19
200.595	34.47
200.814	52.91
201.033	-43.35
201.252	95.91
201.471	-35.16
201.69	42.67
201.909	-41.3
202.128	30.38
202.347	61.1
202.566	40.62
202.785	46.76
203.004	26.28
203.223	112.3
203.442	-8.53
203.661	3.75
203.879	42.67
204.098	77.48
204.317	61.1
204.536	50.86
204.755	42.67
204.974	83.63
205.193	32.43
205.411	91.82
205.63	-8.53
205.849	-2.39
206.068	61.1
206.287	-43.35
206.505	16.04
206.724	95.91
206.943	24.23
207.162	-6.49
207.381	11.95
207.599	13.99
207.818	13.99
208.037	89.77
208.255	-31.06
208.474	1.71
208.693	83.63
208.911	-45.4
209.13	69.29
209.349	44.71
209.567	50.86
209.786	48.81
210.005	71.34
210.223	40.62
210.442	-20.82
210.661	-22.87
210.879	52.91
211.098	13.99
211.316	52.91
211.535	106.15
211.753	11.95
211.972	57
212.191	13.99
212.409	67.24
212.628	67.24
212.846	9.9
213.065	61.1
213.283	79.53
213.502	83.63
213.72	57
213.938	28.33
214.157	18.09
214.375	40.62
214.594	69.29
214.812	36.52
215.031	-18.77
215.249	54.95
215.467	16.04
215.686	24.23
215.904	79.53
216.122	69.29
216.341	75.43
216.559	67.24
216.778	22.19
216.996	26.28
217.214	73.39
217.432	-6.49
217.651	-22.87
217.869	87.72
218.087	-6.49
218.306	-41.3
218.524	75.43
218.742	52.91
218.96	44.71
219.179	-2.39
219.397	69.29
219.615	100.01
219.833	46.76
220.051	38.57
220.27	34.47
220.488	22.19
220.706	1.71
220.924	61.1
221.142	3.75
221.36	77.48
221.578	83.63
221.796	32.43
222.015	73.39
222.233	16.04
222.451	24.23
222.669	-39.25
222.887	20.14
223.105	36.52
223.323	38.57
223.541	20.14
223.759	44.71
223.977	44.71
224.195	104.11
224.413	5.8
224.631	11.95
224.849	-4.44
225.067	130.73
225.285	-6.49
225.503	61.1
225.721	24.23
225.939	73.39
226.157	81.58
226.375	20.14
226.592	-16.73
226.81	46.76
227.028	59.05
227.246	81.58
227.464	59.05
227.682	22.19
227.9	112.3
228.117	-29.01
228.335	46.76
228.553	-22.87
228.771	-41.3
228.989	69.29
229.206	87.72
229.424	9.9
229.642	-37.2
229.86	61.1
230.077	32.43
230.295	-45.4
230.513	28.33
230.731	-16.73
230.948	61.1
231.166	77.48
231.384	26.28
231.601	69.29
231.819	38.57
232.037	-43.35
232.254	-24.92
232.472	59.05
232.689	30.38
232.907	79.53
233.125	50.86
233.342	30.38
233.56	57
233.777	-2.39
233.995	85.67
234.213	36.52
234.43	61.1
234.648	69.29
234.865	-4.44
235.083	38.57
235.3	-8.53
235.518	44.71
235.735	32.43
235.953	89.77
236.17	85.67
236.388	59.05
236.605	-10.58
236.822	67.24
237.04	-24.92
237.257	52.91
237.475	-4.44
237.692	104.11
237.909	7.85
238.127	65.19
238.344	93.87
238.562	61.1
238.779	-0.34
238.996	122.54
239.214	67.24
239.431	50.86
239.648	9.9
239.865	-6.49
240.083	1.71
240.3	110.25
240.517	16.04
240.735	100.01
240.952	7.85
241.169	79.53
241.386	106.15
241.603	42.67
241.821	18.09
242.038	71.34
242.255	-14.68
242.472	-16.73
242.689	-20.82
242.907	87.72
243.124	52.91
243.341	16.04
243.558	34.47
243.775	16.04
243.992	-14.68
244.209	71.34
244.426	-6.49
244.643	28.33
244.86	50.86
245.078	46.76
245.295	79.53
245.512	59.05
245.729	-10.58
245.946	59.05
246.163	-29.01
246.38	36.52
246.597	7.85
246.814	114.34
247.031	-12.63
247.248	46.76
247.464	46.76
247.681	-6.49
247.898	38.57
248.115	34.47
248.332	71.34
248.549	-16.73
248.766	83.63
248.983	59.05
249.2	-18.77
249.417	106.15
249.633	16.04
249.85	18.09
250.067	-6.49
250.284	44.71
250.501	54.95
250.717	81.58
250.934	-35.16
251.151	22.19
251.368	67.24
251.585	77.48
251.801	34.47
252.018	-35.16
252.235	54.95
252.451	79.53
252.668	11.95
252.885	83.63
253.102	30.38
253.318	46.76
253.535	-26.96
253.752	-2.39
253.968	32.43
254.185	18.09
254.401	24.23
254.618	122.54
254.835	9.9
255.051	71.34
255.268	85.67
255.484	69.29
255.701	24.23
255.917	42.67
256.134	-37.2
256.351	-18.77
256.567	-69.97
256.784	71.34
257	30.38
257.217	36.52
257.433	63.15
257.65	73.39
257.866	97.96
258.082	16.04
258.299	36.52
258.515	34.47
258.732	38.57
258.948	42.67
259.165	3.75
259.381	85.67
259.597	65.19
259.814	26.28
260.03	24.23
260.246	104.11
260.463	24.23
260.679	16.04
260.895	-6.49
261.112	71.34
261.328	44.71
261.544	7.85
261.761	52.91
261.977	50.86
262.193	-0.34
262.409	67.24
262.626	100.01
262.842	24.23
263.058	-22.87
263.274	87.72
263.49	26.28
263.707	18.09
263.923	57
264.139	16.04
264.355	44.71
264.571	120.49
264.787	77.48
265.004	75.43
265.22	-20.82
265.436	-22.87
265.652	44.71
265.868	97.96
266.084	46.76
266.3	-16.73
266.516	18.09
266.732	26.28
266.948	36.52
267.164	38.57
267.38	42.67
267.596	102.06
267.812	91.82
268.028	5.8
268.244	5.8
268.46	52.91
268.676	52.91
268.892	7.85
269.108	-10.58
269.324	13.99
269.54	69.29
269.756	54.95
269.972	89.77
270.188	61.1
270.403	-29.01
270.619	13.99
270.835	-26.96
271.051	110.25
271.267	54.95
271.483	38.57
271.698	83.63
271.914	36.52
272.13	16.04
272.346	38.57
272.562	22.19
272.777	30.38
272.993	57
273.209	9.9
273.425	38.57
273.64	-8.53
273.856	-0.34
274.072	-29.01
274.287	28.33
274.503	-2.39
274.719	-0.34
274.934	46.76
275.15	9.9
275.366	71.34
275.581	32.43
275.797	16.04
276.012	59.05
276.228	73.39
276.444	28.33
276.659	69.29
276.875	-6.49
277.09	1.71
277.306	1.71
277.521	24.23
277.737	32.43
277.952	28.33
278.168	20.14
278.383	71.34
278.599	22.19
278.814	89.77
279.03	13.99
279.245	116.39
279.461	-4.44
279.676	104.11
279.892	11.95
280.107	9.9
280.322	-37.2
280.538	59.05
280.753	40.62
280.969	102.06
281.184	104.11
281.399	110.25
281.615	24.23
281.83	16.04
282.045	46.76
282.26	-8.53
282.476	93.87
282.691	-0.34
282.906	61.1
283.122	83.63
283.337	34.47
283.552	81.58
283.767	20.14
283.983	59.05
284.198	61.1
284.413	59.05
284.628	5.8
284.843	46.76
285.058	30.38
285.274	87.72
285.489	24.23
285.704	65.19
285.919	-22.87
286.134	24.23
286.349	36.52
286.564	9.9
286.779	30.38
286.995	-10.58
287.21	16.04
287.425	38.57
287.64	9.9
287.855	11.95
288.07	50.86
288.285	61.1
288.5	30.38
288.715	124.58
288.93	-16.73
289.145	71.34
289.36	38.57
289.575	67.24
289.79	-12.63
290.004	-6.49
290.219	79.53
290.434	50.86
290.649	-35.16
290.864	20.14
291.079	-78.16
291.294	61.1
291.509	-31.06
291.724	-8.53
291.938	67.24
292.153	67.24
292.368	30.38
292.583	57
292.798	52.91
293.012	57
293.227	59.05
293.442	-18.77
293.657	42.67
293.871	81.58
294.086	3.75
294.301	114.34
294.516	83.63
294.73	3.75
294.945	112.3
295.16	7.85
295.374	-10.58
295.589	24.23
295.804	85.67
296.018	24.23
296.233	36.52
296.447	11.95
296.662	85.67
296.877	85.67
297.091	7.85
297.306	77.48
297.52	54.95
297.735	-26.96
297.949	-10.58
298.164	81.58
298.378	54.95
298.593	36.52
298.807	-12.63
299.022	1.71
299.236	61.1
299.451	16.04
299.665	44.71
299.88	112.3
300.094	13.99
300.309	147.11
300.523	32.43
300.737	-22.87
300.952	61.1
301.166	126.63
301.381	-4.44
301.595	16.04
301.809	63.15
302.024	52.91
302.238	-31.06
302.452	24.23
302.667	38.57
302.881	87.72
303.095	143.02
303.309	77.48
303.524	30.38
303.738	20.14
303.952	42.67
304.166	116.39
304.381	24.23
304.595	26.28
304.809	36.52
305.023	50.86
305.237	79.53
305.452	36.52
305.666	69.29
305.88	77.48
306.094	59.05
306.308	106.15
306.522	42.67
306.736	24.23
306.95	69.29
307.164	36.52
307.379	1.71
307.593	89.77
307.807	151.21
308.021	-2.39
308.235	136.87
308.449	38.57
308.663	50.86
308.877	67.24
309.091	-39.25
309.305	34.47
309.519	-41.3
309.733	73.39
309.947	46.76
310.161	67.24
310.374	97.96
310.588	52.91
310.802	22.19
311.016	71.34
311.23	3.75
311.444	59.05
311.658	36.52
311.872	59.05
312.085	63.15
312.299	50.86
312.513	61.1
312.727	-4.44
312.941	20.14
313.154	32.43
313.368	16.04
313.582	87.72
313.796	16.04
314.009	-18.77
314.223	-2.39
314.437	75.43
314.651	22.19
314.864	-20.82
315.078	26.28
315.292	-35.16
315.505	65.19
315.719	32.43
315.933	75.43
316.146	79.53
316.36	24.23
316.573	138.92
316.787	26.28
317.001	79.53
317.214	-0.34
317.428	89.77
317.641	36.52
317.855	85.67
318.068	42.67
318.282	44.71
318.495	79.53
318.709	71.34
318.922	20.14
319.136	63.15
319.349	63.15
319.563	-18.77
319.776	32.43
319.99	-12.63
320.203	63.15
320.417	-59.73
320.63	34.47
320.843	24.23
321.057	24.23
321.27	73.39
321.483	-29.01
321.697	93.87
321.91	61.1
322.124	30.38
322.337	81.58
322.55	83.63
322.763	65.19
322.977	36.52
323.19	108.2
323.403	52.91
323.617	28.33
323.83	69.29
324.043	75.43
324.256	11.95
324.469	44.71
324.683	95.91
324.896	-49.49
325.109	3.75
325.322	22.19
325.535	34.47
325.748	69.29
325.962	61.1
326.175	65.19
326.388	22.19
326.601	-4.44
326.814	91.82
327.027	32.43
327.24	67.24
327.453	-14.68
327.666	32.43
327.879	75.43
328.092	65.19
328.305	63.15
328.518	89.77
328.731	54.95
328.944	-2.39
329.157	42.67
329.37	95.91
329.583	63.15
329.796	69.29
330.009	77.48
330.222	-10.58
330.435	11.95
330.648	46.76
330.861	50.86
331.073	30.38
331.286	28.33
331.499	40.62
331.712	5.8
331.925	40.62
332.138	16.04
332.35	3.75
332.563	-2.39
332.776	57
332.989	7.85
333.202	5.8
333.414	50.86
333.627	91.82
333.84	7.85
334.053	42.67
334.265	52.91
334.478	54.95
334.691	116.39
334.903	34.47
335.116	116.39
335.329	26.28
335.541	16.04
335.754	63.15
335.966	32.43
336.179	22.19
336.392	50.86
336.604	40.62
336.817	16.04
337.029	9.9
337.242	26.28
337.454	89.77
337.667	30.38
337.88	28.33
338.092	46.76
338.305	67.24
338.517	1.71
338.729	104.11
338.942	34.47
339.154	52.91
339.367	-12.63
339.579	1.71
339.792	7.85
340.004	46.76
340.217	34.47
340.429	44.71
340.641	28.33
340.854	30.38
341.066	32.43
341.278	32.43
341.491	59.05
341.703	48.81
341.915	36.52
342.128	102.06
342.34	3.75
342.552	69.29
342.764	46.76
342.977	-18.77
343.189	87.72
343.401	69.29
343.613	63.15
343.826	71.34
344.038	-6.49
344.25	81.58
344.462	-12.63
344.674	34.47
344.886	18.09
345.099	34.47
345.311	9.9
345.523	108.2
345.735	46.76
345.947	-12.63
346.159	85.67
346.371	38.57
346.583	36.52
346.795	57
347.007	11.95
347.219	89.77
347.431	32.43
347.643	118.44
347.855	73.39
348.067	26.28
348.279	81.58
348.491	48.81
348.703	91.82
348.915	59.05
349.127	32.43
349.339	24.23
349.551	18.09
349.763	153.26
349.975	40.62
350.187	132.78
350.399	171.69
350.61	77.48
350.822	-14.68
351.034	67.24
351.246	-22.87
351.458	28.33
351.669	30.38
351.881	93.87
352.093	-12.63
352.305	52.91
352.517	87.72
352.728	50.86
352.94	32.43
353.152	44.71
353.363	7.85
353.575	77.48
353.787	73.39
353.999	44.71
354.21	91.82
354.422	67.24
354.633	32.43
354.845	69.29
355.057	50.86
355.268	61.1
355.48	-31.06
355.692	36.52
355.903	13.99
356.115	91.82
356.326	40.62
356.538	77.48
356.749	75.43
356.961	38.57
357.172	42.67
357.384	87.72
357.595	89.77
357.807	69.29
358.018	40.62
358.23	65.19
358.441	26.28
358.653	87.72
358.864	81.58
359.075	63.15
359.287	73.39
359.498	83.63
359.709	22.19
359.921	71.34
360.132	44.71
360.344	114.34
360.555	67.24
360.766	28.33
360.977	97.96
361.189	38.57
361.4	112.3
361.611	87.72
361.823	16.04
362.034	28.33
362.245	-20.82
362.456	63.15
362.667	24.23
362.879	63.15
363.09	73.39
363.301	75.43
363.512	75.43
363.723	73.39
363.935	110.25
364.146	48.81
364.357	46.76
364.568	83.63
364.779	7.85
364.99	112.3
365.201	-53.59
365.412	100.01
365.623	59.05
365.834	110.25
366.045	61.1
366.256	77.48
366.467	118.44
366.678	57
366.889	67.24
367.1	-16.73
367.311	48.81
367.522	1.71
367.733	52.91
367.944	95.91
368.155	50.86
368.366	26.28
368.577	20.14
368.788	38.57
368.999	85.67
369.209	83.63
369.42	79.53
369.631	77.48
369.842	13.99
370.053	-37.2
370.264	38.57
370.474	69.29
370.685	-2.39
370.896	-2.39
371.107	87.72
371.317	108.2
371.528	143.02
371.739	67.24
371.95	79.53
372.16	83.63
372.371	40.62
372.582	38.57
372.792	110.25
373.003	5.8
373.214	-8.53
373.424	36.52
373.635	18.09
373.846	95.91
374.056	85.67
374.267	16.04
374.477	-45.4
374.688	100.01
374.898	93.87
375.109	36.52
375.319	75.43
375.53	194.22
375.74	116.39
375.951	30.38
376.161	59.05
376.372	106.15
376.582	30.38
376.793	22.19
377.003	11.95
377.214	73.39
377.424	75.43
377.635	1.71
377.845	112.3
378.055	79.53
378.266	46.76
378.476	38.57
378.686	9.9
378.897	57
379.107	77.48
379.317	73.39
379.528	11.95
379.738	130.73
379.948	100.01
380.158	20.14
380.369	57
380.579	38.57
380.789	57
380.999	128.68
381.21	65.19
381.42	95.91
381.63	110.25
381.84	81.58
382.05	77.48
382.261	73.39
382.471	54.95
382.681	42.67
382.891	116.39
383.101	102.06
383.311	77.48
383.521	67.24
383.731	73.39
383.941	46.76
384.151	71.34
384.361	145.06
384.571	30.38
384.781	140.97
384.991	93.87
385.201	77.48
385.411	65.19
385.621	38.57
385.831	30.38
386.041	89.77
386.251	44.71
386.461	18.09
386.671	108.2
386.881	59.05
387.091	38.57
387.301	81.58
387.511	57
387.72	61.1
387.93	100.01
388.14	28.33
388.35	69.29
388.56	32.43
388.769	83.63
388.979	73.39
389.189	30.38
389.399	3.75
389.609	102.06
389.818	110.25
390.028	63.15
390.238	87.72
390.447	95.91
390.657	40.62
390.867	67.24
391.076	102.06
391.286	69.29
391.496	13.99
391.705	1.71
391.915	83.63
392.125	79.53
392.334	116.39
392.544	155.3
392.753	102.06
392.963	54.95
393.172	114.34
393.382	36.52
393.591	114.34
393.801	116.39
394.01	122.54
394.22	136.87
394.429	63.15
394.639	63.15
394.848	50.86
395.058	42.67
395.267	106.15
395.477	157.35
395.686	112.3
395.895	93.87
396.105	122.54
396.314	67.24
396.524	102.06
396.733	79.53
396.942	77.48
397.152	52.91
397.361	130.73
397.57	97.96
397.78	93.87
397.989	124.58
398.198	122.54
398.407	147.11
398.617	102.06
398.826	81.58
399.035	138.92
399.244	124.58
399.453	79.53
399.663	69.29
399.872	130.73
400.081	134.82
400.29	198.31
400.499	108.2
400.708	126.63
400.917	136.87
401.127	108.2
401.336	116.39
401.545	138.92
401.754	153.26
401.963	97.96
402.172	97.96
402.381	165.54
402.59	177.83
402.799	122.54
403.008	100.01
403.217	102.06
403.426	173.74
403.635	91.82
403.844	102.06
404.053	95.91
404.262	134.82
404.471	140.97
404.68	208.55
404.888	186.02
405.097	177.83
405.306	192.17
405.515	161.45
405.724	134.82
405.933	167.59
406.142	177.83
406.35	128.68
406.559	208.55
406.768	130.73
406.977	190.12
407.185	167.59
407.394	255.65
407.603	126.63
407.812	216.74
408.02	241.32
408.229	251.56
408.438	294.57
408.646	204.46
408.855	292.52
409.064	272.04
409.272	282.28
409.481	288.42
409.69	239.27
409.898	261.8
410.107	313
410.315	368.29
410.524	313
410.733	323.24
410.941	331.43
411.15	435.88
411.358	392.87
411.567	374.44
411.775	444.07
411.984	337.57
412.192	405.16
412.401	472.74
412.609	552.61
412.818	562.85
413.026	507.55
413.234	556.71
413.443	556.71
413.651	558.75
413.86	624.29
414.068	646.82
414.276	736.93
414.485	577.19
414.693	667.3
414.901	751.26
415.11	745.12
415.318	730.78
415.526	820.89
415.734	868
415.943	888.48
416.151	954.01
416.359	868
416.567	876.19
416.776	933.53
416.984	1058.46
417.192	1042.07
417.4	1060.51
417.608	1019.55
417.817	1154.71
418.025	1183.38
418.233	1222.3
418.441	1222.3
418.649	1267.35
418.857	1355.41
419.065	1324.69
419.273	1314.45
419.481	1490.58
419.689	1646.23
419.897	1492.63
420.105	1658.51
420.313	1660.56
420.521	1711.76
420.729	1777.3
420.937	1834.64
421.145	1887.89
421.353	2051.72
421.561	1990.28
421.769	2154.12
421.977	2250.38
422.185	2133.64
422.393	2264.71
422.601	2387.59
422.809	2426.5
423.017	2428.55
423.224	2598.53
423.432	2688.64
423.64	2606.72
423.848	3108.48
424.056	2915.97
424.263	3075.71
424.471	3106.43
424.679	3063.42
424.887	3309.18
425.094	3346.04
425.302	3481.21
425.51	3561.08
425.718	3645.04
425.925	3765.87
426.133	3815.02
426.341	4017.77
426.548	4161.13
426.756	4281.96
426.964	4279.91
427.171	4619.88
427.379	4660.84
427.586	4681.32
427.794	4800.1
428.001	5148.25
428.209	5361.24
428.417	5250.65
428.624	5553.75
428.832	5604.95
429.039	5529.17
429.247	5604.95
429.454	6078.03
429.662	6479.43
429.869	6225.48
430.076	6643.27
430.284	6409.8
430.491	6708.8
430.699	7097.92
430.906	7214.65
431.114	7171.65
431.321	7347.77
431.528	7609.91
431.736	8203.82
431.943	8511.02
432.15	8183.34
432.358	8246.83
432.565	8711.72
432.772	8664.61
432.979	8984.1
433.187	9430.55
433.394	9283.1
433.601	9895.44
433.808	9960.98
434.016	9987.6
434.223	10319.37
434.43	10995.2
434.637	10798.6
434.844	11351.55
435.052	11857.4
435.259	11585.02
435.466	11658.74
435.673	11548.15
435.88	12469.74
436.087	12772.84
436.294	13358.56
436.501	12754.41
436.708	13082.08
436.915	13389.28
437.122	14067.16
437.329	14136.79
437.537	14478.8
437.743	14638.54
437.95	14446.03
438.157	15459.77
438.364	15726.01
438.571	15887.8
438.778	15969.72
438.985	17618.33
439.192	16698.8
439.399	17481.12
439.606	17008.04
439.813	17876.38
440.02	19019.14
440.227	18396.56
440.433	18257.3
440.64	19027.34
440.847	18998.66
441.054	19613.06
441.261	20700.53
441.467	20747.63
441.674	20833.64
441.881	21687.65
442.088	21857.63
442.294	21466.47
442.501	22125.91
442.708	22555.99
442.914	23655.75
443.121	24341.82
443.328	23590.21
443.534	25453.86
443.741	24399.16
443.948	24386.87
444.154	26324.25
444.361	25924.9
444.568	26238.23
444.774	26367.26
444.981	26518.81
445.187	27483.4
445.394	28681.46
445.6	27950.34
445.807	30590.17
446.013	29500.65
446.22	29943.01
446.426	31184.08
446.633	31018.19
446.839	32498.87
447.046	31057.1
447.252	32812.21
447.459	32824.5
447.665	32367.8
447.871	33760.42
448.078	35292.3
448.284	33719.46
448.491	34727.06
448.697	36250.75
448.903	36463.74
449.11	36430.97
449.316	35902.6
449.522	36824.18
449.728	37688.43
449.935	37737.58
450.141	37717.1
450.347	38626.4
450.553	37495.92
450.76	38089.83
450.966	38976.6
451.172	38761.56
451.378	39793.74
451.584	38521.95
451.791	39736.4
451.997	39461.97
452.203	40260.68
452.409	39902.28
452.615	39820.36
452.821	38237.28
453.027	37448.82
453.233	39746.64
453.44	37893.22
453.646	38351.97
453.852	38724.7
454.058	39117.91
454.264	37493.87
454.47	38356.07
454.676	37745.77
454.882	38659.16
455.088	35468.43
455.294	35832.97
455.5	36492.41
455.705	36410.5
455.911	35456.14
456.117	34385.05
456.323	34075.81
456.529	32138.43
456.735	33195.18
456.941	32539.83
457.147	32046.27
457.352	31245.52
457.558	30203.1
457.764	30420.19
457.97	29857
458.176	29603.05
458.381	29125.87
458.587	27950.34
458.793	27661.57
458.999	26334.49
459.204	28329.21
459.41	27268.36
459.616	25623.84
459.821	25685.28
460.027	25656.61
460.233	24837.42
460.438	23813.44
460.644	23835.97
460.85	22881.61
461.055	22584.66
461.261	22377.81
461.466	20817.26
461.672	20223.35
461.878	21591.39
462.083	20282.74
462.289	19789.18
462.494	19651.97
462.7	18877.83
462.905	18093.46
463.111	19062.15
463.316	19191.17
463.522	18689.42
463.727	18822.54
463.932	18609.55
464.138	18441.62
464.343	18750.86
464.549	17915.29
464.754	18683.28
464.959	18509.2
465.165	18124.18
465.37	17892.76
465.575	17253.8
465.781	17778.08
465.986	17862.04
466.191	17376.67
466.397	16997.8
466.602	16295.35
466.807	16629.16
467.012	16500.14
467.218	16604.59
467.423	16543.15
467.628	16414.13
467.833	17397.15
468.038	16612.78
468.244	15990.2
468.449	16762.28
468.654	16197.04
468.859	16160.18
469.064	15996.34
469.269	15322.56
469.474	15486.4
469.679	15812.03
469.885	15314.37
470.09	15363.52
470.295	15472.06
470.5	14939.59
470.705	15011.27
470.91	14720.46
471.115	14462.41
471.32	14896.58
471.525	14638.54
471.73	14472.65
471.935	14501.33
472.139	13712.86
472.344	14077.4
472.549	13870.55
472.754	13913.56
472.959	13352.41
473.164	13094.37
473.369	13082.08
473.574	13450.72
473.778	13223.39
473.983	13190.63
474.188	13063.65
474.393	12750.31
474.598	12662.25
474.802	12490.22
475.007	12383.73
475.212	12391.92
475.417	11898.36
475.621	11863.54
475.826	11941.36
476.031	11548.15
476.235	11400.7
476.44	11542.01
476.645	11501.05
476.849	11568.63
477.054	11298.3
477.259	11126.27
477.463	11464.19
477.668	10950.15
477.872	11062.79
478.077	10706.44
478.282	10534.41
478.486	10610.18
478.691	10298.89
478.895	10348.04
479.1	10450.44
479.304	10116.62
479.509	9903.64
479.713	10532.36
479.918	9991.7
480.122	9967.12
480.326	10108.43
480.531	9813.52
480.735	9821.72
480.94	9920.02
481.144	10249.74
481.348	9637.4
481.553	9754.13
481.757	9399.84
481.961	9608.73
482.166	9811.48
482.37	9561.62
482.574	9578.01
482.778	9580.06
482.983	9645.59
483.187	9698.84
483.391	9633.3
483.595	9772.57
483.8	9653.78
484.004	9805.33
484.208	9715.22
484.412	9578.01
484.616	9580.06
484.821	9629.21
485.025	9483.8
485.229	9801.24
485.433	9526.81
485.637	9686.55
485.841	9580.06
486.045	9555.48
486.249	9852.44
486.453	9508.38
486.657	9711.13
486.861	9680.41
487.065	9395.74
487.269	9735.7
487.473	9375.26
487.677	9729.56
487.881	9741.85
488.085	9494.04
488.289	9768.47
488.493	9735.7
488.697	9672.22
488.901	9721.37
489.105	9643.54
489.309	9809.43
489.512	9825.81
489.716	9834
489.92	9840.15
490.124	9684.5
490.328	10176.02
490.531	9844.24
490.735	9811.48
490.939	10083.86
491.143	10014.23
491.346	9774.61
491.55	10046.99
491.754	10026.51
491.958	10032.66
492.161	10010.13
492.365	10178.06
492.569	10278.41
492.772	10290.7
492.976	10206.73
493.18	10395.15
493.383	10456.59
493.587	10571.27
493.79	10708.49
493.994	10747.4
494.197	10751.49
494.401	10784.26
494.605	10972.68
494.808	10995.2
495.012	10937.86
495.215	11134.46
495.419	11286.01
495.622	11073.03
495.825	11218.43
496.029	11138.56
496.232	11720.18
496.436	11402.75
496.639	11877.88
496.843	11892.21
497.046	11927.03
497.249	12170.74
497.453	11965.94
497.656	12047.86
497.859	12475.88
498.063	12148.21
498.266	12742.12
498.469	12506.6
498.673	12791.27
498.876	13010.4
499.079	13127.14
499.282	13004.26
499.485	13493.72
499.689	13530.59
499.892	13594.08
500.095	13737.43
500.298	14388.69
500.501	13716.95
500.705	14548.43
500.908	14319.06
501.111	14718.41
501.314	14843.34
501.517	14915.02
501.72	15080.9
501.923	15140.29
502.126	15494.59
502.329	15650.24
502.532	15719.87
502.735	15750.59
502.938	16143.8
503.141	16184.76
503.344	16285.11
503.547	16514.48
503.75	17042.85
503.953	16942.5
504.156	17079.72
504.359	17040.81
504.562	17364.39
504.765	17722.78
504.968	17843.61
505.17	18142.61
505.373	18392.47
505.576	18482.58
505.779	18578.83
505.982	18695.57
506.185	19285.38
506.387	19434.88
506.59	19524.99
506.793	19643.77
506.996	19721.6
507.198	20190.58
507.401	20034.94
507.604	20266.36
507.807	20911.47
508.009	21243.24
508.212	21179.75
508.415	21128.55
508.617	21411.17
508.82	21534.05
509.022	21738.85
509.225	22277.46
509.428	22287.7
509.63	22531.41
509.833	22617.43
510.035	23088.46
510.238	22963.53
510.44	23637.31
510.643	23833.92
510.845	24016.19
511.048	23813.44
511.25	24372.53
511.453	24159.55
511.655	25144.62
511.858	24870.19
512.06	25124.14
512.262	25578.79
512.465	25580.84
512.667	26113.31
512.87	26357.02
513.072	26160.41
513.274	26926.35
513.477	26895.63
513.679	27366.67
513.881	27763.97
514.084	27706.63
514.286	27825.41
514.488	28159.23
514.69	28878.07
514.893	28908.79
515.095	28822.77
515.297	29330.67
515.499	29428.97
515.701	29963.49
515.904	30231.77
516.106	30100.7
516.308	30592.22
516.51	30962.9
516.712	30784.72
516.914	31327.44
517.116	31874.24
517.318	32179.39
517.52	31708.36
517.722	32273.6
517.925	32658.62
518.127	33363.12
518.329	33162.42
518.531	33404.08
518.733	34264.22
518.935	34278.56
519.136	34327.71
519.338	34856.09
519.54	34884.76
519.742	35548.3
519.944	35710.09
520.146	35918.98
520.348	36465.79
520.55	36586.62
520.752	36652.16
520.954	36967.54
521.155	36779.13
521.357	37600.36
521.559	37930.09
521.761	38425.7
521.963	38181.99
522.164	38521.95
522.366	38978.65
522.568	39496.78
522.77	39539.79
522.971	39724.11
523.173	39345.23
523.375	40010.82
523.576	39609.42
523.778	40123.46
523.98	40449.09
524.181	40709.18
524.383	40895.55
524.584	41501.75
524.786	41331.76
524.988	41499.7
525.189	41608.24
525.391	41878.57
525.592	42183.72
525.794	42574.88
525.995	42832.93
526.197	42521.63
526.398	42945.56
526.6	43097.11
526.801	43574.29
527.003	43596.82
527.204	43527.19
527.406	43781.13
527.607	44637.19
527.808	44356.61
528.01	43578.39
528.211	43815.95
528.412	44940.28
528.614	44884.99
528.815	44782.59
529.016	45140.99
529.218	44864.51
529.419	45165.56
529.62	44956.67
529.822	44889.09
530.023	45288.44
530.224	45536.24
530.425	45235.19
530.626	44981.24
530.828	45249.53
531.029	46326.76
531.23	45638.64
531.431	45577.2
531.632	45663.22
531.833	45935.6
532.035	45970.41
532.236	46119.91
532.437	46101.48
532.638	45974.51
532.839	46531.56
533.04	46328.81
533.241	46265.32
533.442	47293.4
533.643	46726.11
533.844	46586.85
534.045	46943.2
534.246	46222.31
534.447	46973.92
534.648	46382.05
534.849	46463.97
535.05	46212.07
535.251	46949.34
535.451	46412.77
535.652	46619.62
535.853	46840.8
536.054	46703.59
536.255	46912.48
536.456	46494.69
536.657	47584.21
536.857	46371.82
537.058	46695.39
537.259	46664.67
537.46	46951.39
537.66	46515.17
537.861	46975.97
538.062	46539.75
538.263	46758.88
538.463	46437.35
538.664	46511.08
538.865	46853.09
539.065	46975.97
539.266	46431.21
539.466	46822.37
539.667	46038
539.868	47307.74
540.068	46117.87
540.269	46474.21
540.469	47072.22
540.67	46767.07
540.87	46429.16
541.071	46609.38
541.271	46541.8
541.472	46734.31
541.672	46887.9
541.873	46836.7
542.073	45837.3
542.274	46642.15
542.474	46494.69
542.675	46175.21
542.875	46828.51
543.075	46676.96
543.276	45908.97
543.476	46961.63
543.676	46398.44
543.877	46543.84
544.077	46801.89
544.277	46568.42
544.478	46349.29
544.678	46556.13
544.878	46468.07
545.078	46560.23
545.279	46197.74
545.479	45896.69
545.679	46328.81
545.879	45933.55
546.079	46187.5
546.28	46861.28
546.48	45841.39
546.68	46308.33
546.88	46365.67
547.08	46314.47
547.28	46115.82
547.48	45999.08
547.68	46265.32
547.88	45777.9
548.081	46357.48
548.281	46109.68
548.481	46150.63
548.681	46724.07
548.881	45954.03
549.081	46031.85
549.28	46011.37
549.48	46306.28
549.68	45839.34
549.88	46636
550.08	45921.26
550.28	45853.68
550.48	45663.22
550.68	46478.31
550.88	45530.1
551.08	45638.64
551.279	46093.29
551.479	45808.62
551.679	46011.37
551.879	46003.18
552.079	46324.71
552.278	45904.88
552.478	45913.07
552.678	45880.3
552.878	46220.27
553.077	45452.28
553.277	45534.2
553.477	45839.34
553.676	45761.52
553.876	46031.85
554.076	45407.22
554.275	45370.36
554.475	44897.28
554.674	45616.11
554.874	45575.16
555.074	45339.64
555.273	45106.17
555.473	45202.42
555.672	45003.77
555.872	44991.48
556.071	45179.9
556.271	45509.62
556.47	44934.14
556.67	44618.75
556.869	44837.89
557.068	45218.81
557.268	44958.72
557.467	45157.37
557.667	44923.9
557.866	45134.84
558.065	44852.22
558.265	44743.68
558.464	44155.91
558.663	44903.42
558.863	44096.52
559.062	44594.18
559.261	43998.22
559.461	44592.13
559.66	43719.7
559.859	44014.6
560.058	43820.05
560.258	44016.65
560.457	43760.65
560.656	44299.27
560.855	43914.25
561.054	44090.38
561.253	43148.31
561.453	43394.07
561.652	44033.03
561.851	43815.95
562.05	43717.65
562.249	43254.81
562.448	43541.52
562.647	43574.29
562.846	42964
563.045	43138.07
563.244	42400.8
563.443	43596.82
563.642	42486.82
563.841	42365.99
564.04	42531.87
564.239	42914.84
564.438	42517.54
564.637	42972.19
564.836	42439.72
565.035	42222.63
565.234	42335.27
565.432	41823.28
565.631	41849.9
565.83	42069.03
566.029	41604.14
566.228	41229.37
566.427	41704.49
566.625	41634.86
566.824	41151.54
567.023	41546.8
567.222	40490.05
567.42	41671.73
567.619	40985.66
567.818	40952.89
568.016	41022.52
568.215	41088.06
568.414	40571.97
568.612	40811.58
568.811	40866.88
569.01	40477.76
569.208	39765.07
569.407	40756.28
569.605	39775.31
569.804	40217.67
570.002	39777.36
570.201	39996.49
570.4	39588.94
570.598	39238.74
570.797	39191.64
570.995	39478.35
571.193	39140.44
571.392	39500.88
571.59	38949.98
571.789	39158.87
571.987	38812.76
572.186	38990.94
572.384	38487.14
572.582	38911.06
572.781	38591.58
572.979	37932.14
573.177	38511.71
573.376	38782.04
573.574	38192.23
573.772	38650.97
573.971	38061.16
574.169	37672.04
574.367	37612.65
574.565	37833.83
574.763	37389.42
574.962	37616.75
575.16	37084.28
575.358	37430.38
575.556	36914.3
575.754	37803.11
575.952	36433.02
576.151	37317.75
576.349	36754.55
576.547	36420.73
576.745	36795.51
576.943	36660.35
577.141	36527.23
577.339	36117.64
577.537	36283.52
577.735	36226.18
577.933	36353.15
578.131	36338.82
578.329	35683.47
578.527	35656.84
578.725	35871.88
578.923	35787.91
579.121	35490.96
579.319	35413.13
579.516	35626.12
579.714	35107.99
579.912	35540.11
580.11	34862.23
580.308	34866.33
580.506	34682.01
580.704	34575.52
580.901	34935.96
581.099	35165.33
581.297	34612.38
581.495	34153.63
581.692	34587.8
581.89	34041
582.088	34333.85
582.285	34280.61
582.483	34325.66
582.681	34225.31
582.878	34124.96
583.076	33653.93
583.274	33879.21
583.471	33416.36
583.669	33336.49
583.866	33301.68
584.064	33604.78
584.262	32892.08
584.459	33397.93
584.657	33010.87
584.854	33135.79
585.052	32380.09
585.249	32758.97
585.447	32830.65
585.644	32558.27
585.841	32408.76
586.039	32668.86
586.236	32142.53
586.434	31798.47
586.631	32126.14
586.828	31997.12
587.026	32187.58
587.223	32036.03
587.42	31544.52
587.618	31823.05
587.815	31509.71
588.012	31278.29
588.21	31530.19
588.407	31700.17
588.604	31554.76
588.801	30911.7
588.999	31014.1
589.196	31233.23
589.393	30774.49
589.59	30852.31
589.787	30887.12
589.984	30498.01
590.182	30299.36
590.379	30702.81
590.576	30151.9
590.773	30414.04
590.97	30004.45
591.167	30184.67
591.364	29701.35
591.561	29910.24
591.758	29836.52
591.955	29615.33
592.152	30104.8
592.349	29533.42
592.546	29725.93
592.743	29865.19
592.94	29140.21
593.137	29742.31
593.334	29089.01
593.531	28994.8
593.727	29553.9
593.924	28996.85
594.121	28607.73
594.318	29156.59
594.515	28587.25
594.712	28873.97
594.908	28382.46
595.105	28579.06
595.302	28275.96
595.499	28214.52
595.696	28288.25
595.892	28091.65
596.089	28134.65
596.286	28329.21
596.482	27901.18
596.679	28067.07
596.876	27960.58
597.072	27866.37
597.269	27663.62
597.466	27129.1
597.662	27125
597.859	26961.17
598.055	27536.65
598.252	26869.01
598.448	27434.25
598.645	27122.96
598.841	26682.64
599.038	27034.89
599.234	26801.43
599.431	26633.49
599.627	26490.13
599.824	26791.19
600.02	26123.55
600.217	26481.94
600.413	26219.8
600.609	26240.28
600.806	26211.61
601.002	26367.26
601.198	25990.43
601.395	25533.73
601.591	26141.98
601.787	26058.01
601.984	25814.3
602.18	25693.47
602.376	25468.2
602.572	25361.7
602.769	25300.26
602.965	25363.75
603.161	25062.7
603.357	25314.6
603.553	25351.46
603.75	24966.45
603.946	24732.98
604.142	24841.52
604.338	24311.1
604.534	24794.42
604.73	24642.87
604.926	24812.85
605.122	24677.68
605.318	24317.24
605.514	24220.99
605.71	23967.04
605.906	24241.46
606.102	24053.05
606.298	24214.84
606.494	24083.77
606.69	24020.28
606.886	24069.44
607.082	23627.07
607.278	23997.76
607.474	23522.63
607.67	23788.86
607.866	23465.28
608.062	23762.24
608.257	23397.7
608.453	23391.56
608.649	23346.5
608.845	23340.36
609.041	23600.45
609.236	23297.35
609.432	23233.86
609.628	23024.97
609.824	22859.09
610.019	23106.89
610.215	22814.03
610.411	23260.49
610.606	22541.65
610.802	22963.53
610.998	22775.12
611.193	22877.52
611.389	22771.02
611.584	22605.14
611.78	22715.73
611.976	22582.61
612.171	22486.36
612.367	22379.86
612.562	22213.98
612.758	22039.9
612.953	22111.58
613.149	22582.61
613.344	22050.14
613.539	22492.5
613.735	22031.71
613.93	22187.35
614.126	21613.92
614.321	22252.89
614.517	21790.05
614.712	21648.74
614.907	22039.9
615.103	21540.19
615.298	21816.67
615.493	22005.08
615.688	21413.22
615.884	21726.56
616.079	21308.77
616.274	21820.77
616.47	21546.34
616.665	21783.9
616.86	21087.59
617.055	21337.45
617.25	20993.39
617.445	21665.12
617.641	20940.14
617.836	21192.04
618.031	21079.4
618.226	21245.29
618.421	20823.4
618.616	21116.26
618.811	20970.86
619.006	21259.62
619.201	20276.6
619.396	20565.36
619.591	20227.45
619.786	20286.84
619.981	20036.98
620.176	20454.77
620.371	19998.07
620.566	20073.85
620.761	19852.67
620.956	20120.95
621.151	19944.83
621.346	19809.66
621.541	19455.36
621.735	19502.47
621.93	19412.35
622.125	19510.66
622.32	18765.2
622.515	19289.48
622.709	18972.04
622.904	18867.59
623.099	18822.54
623.294	18969.99
623.488	18589.07
623.683	18904.46
623.878	18546.06
624.072	18288.02
624.267	18435.47
624.462	18206.1
624.656	18310.55
624.851	18263.44
625.046	17989.02
625.24	17687.96
625.435	17849.75
625.629	17751.45
625.824	17642.91
626.018	17468.83
626.213	17051.05
626.407	17397.15
626.602	16864.68
626.796	17018.28
626.991	17216.93
627.185	16782.76
627.38	17135.01
627.574	16852.39
627.768	16352.69
627.963	16743.85
628.157	16618.93
628.352	16539.05
628.546	16070.07
628.74	16407.98
628.935	16178.61
629.129	16178.61
629.323	15875.51
629.517	15613.37
629.712	16039.35
629.906	15609.28
630.1	15508.93
630.294	15676.86
630.489	15566.27
630.683	15687.1
630.877	15314.37
631.071	14947.78
631.265	15414.72
631.459	15062.47
631.653	15068.61
631.848	15056.32
632.042	14722.51
632.236	14708.17
632.43	14867.91
632.624	14642.64
632.818	14628.3
633.012	14476.75
633.206	14452.17
633.4	14413.26
633.594	14196.18
633.788	14140.88
633.982	14515.66
634.176	13991.38
634.369	13903.32
634.563	13993.43
634.757	13819.35
634.951	13733.34
635.145	13755.86
635.339	13854.17
635.533	13600.22
635.726	13700.57
635.92	13460.96
636.114	13401.57
636.308	13385.18
636.501	13346.27
636.695	13235.68
636.889	13174.24
637.083	13049.32
637.276	13127.14
637.47	12881.38
637.664	12832.23
637.857	12750.31
638.051	12764.65
638.244	12623.34
638.438	12496.36
638.632	12631.53
638.825	12283.38
639.019	12365.29
639.212	12131.83
639.406	12228.08
639.599	11900.41
639.793	12297.71
639.986	12008.95
640.18	11953.65
640.373	11695.61
640.567	11802.1
640.76	11853.3
640.954	11716.09
641.147	11451.9
641.34	11587.07
641.534	11607.55
641.727	11542.01
641.92	11369.98
642.114	11460.09
642.307	11247.1
642.5	11116.03
642.694	11042.31
642.887	10978.82
643.08	11212.29
643.273	10927.62
643.467	10901
643.66	10776.07
643.853	10712.58
644.046	10573.32
644.239	10759.69
644.432	10731.01
644.626	10546.7
644.819	10616.33
645.012	10450.44
645.205	10501.64
645.398	10296.85
645.591	10462.73
645.784	10386.96
645.977	10051.09
646.17	10167.82
646.363	9883.16
646.556	9985.55
646.749	9932.31
646.942	10133.01
647.135	9786.9
647.328	9768.47
647.521	9850.39
647.714	9666.07
647.907	9700.89
648.099	9770.52
648.292	9743.89
648.485	9639.45
648.678	9395.74
648.871	9299.48
649.064	9281.05
649.256	9352.73
649.449	9436.7
649.642	9115.17
649.835	9330.2
650.027	9307.68
650.22	9147.94
650.413	9086.5
650.605	9041.44
650.798	8998.43
650.991	8996.39
651.183	8930.85
651.376	8717.86
651.568	8775.2
651.761	8713.77
651.954	8461.87
652.146	8662.57
652.339	8560.17
652.531	8601.13
652.724	8351.28
652.916	8242.73
653.109	8246.83
653.301	8306.22
653.494	8459.82
653.686	8295.98
653.879	8365.61
654.071	8238.64
654.263	8138.29
654.456	8085.04
654.648	8226.35
654.84	8082.99
655.033	7896.63
655.225	7876.15
655.417	7937.59
655.61	7949.87
655.802	7753.27
655.994	7489.08
656.186	7820.85
656.379	7601.72
656.571	7681.59
656.763	7587.38
656.955	7466.55
657.148	7687.73
657.34	7456.31
657.532	7468.6
657.724	7587.38
657.916	7497.27
658.108	7257.66
658.3	7167.55
658.492	7251.52
658.684	7038.53
658.876	7200.32
659.068	7177.79
659.26	7190.08
659.452	7099.97
659.644	7161.41
659.836	6932.03
660.028	6993.47
660.22	6813.25
660.412	7147.07
660.604	6850.11
660.796	6864.45
660.988	6803.01
661.18	6782.53
661.372	6925.89
661.563	6559.3
661.755	6540.87
661.947	6493.77
662.139	6549.06
662.331	6415.94
662.522	6467.14
662.714	6518.34
662.906	6569.54
663.097	6385.23
663.289	6360.65
663.481	6372.94
663.673	6164.04
663.864	6241.87
664.056	6295.11
664.247	6262.35
664.439	6010.45
664.631	6143.56
664.822	6123.09
665.014	6223.44
665.205	6108.75
665.397	5992.02
665.588	6145.61
665.78	5959.25
665.971	5998.16
666.163	5922.38
666.354	5922.38
666.546	5799.51
666.737	5662.29
666.929	5764.69
667.12	5992.02
667.311	5588.57
667.503	5787.22
667.694	5705.3
667.885	5641.81
668.077	5666.39
668.268	5695.06
668.459	5797.46
668.651	5658.2
668.842	5527.13
669.033	5535.32
669.224	5492.31
669.416	5535.32
669.607	5383.77
669.798	5455.45
669.989	5500.5
670.18	5498.45
670.371	5320.28
670.563	5371.48
670.754	5307.99
670.945	5207.64
671.136	5404.25
671.327	5232.22
671.518	5340.76
671.709	5226.07
671.9	5320.28
672.091	5221.98
672.282	5191.26
672.473	5217.88
672.664	5099.1
672.855	5090.91
673.046	4988.51
673.237	5049.95
673.428	5070.43
673.619	5060.19
673.809	5011.04
674	5039.71
674.191	5002.85
674.382	4945.5
674.573	4785.76
674.764	4896.35
674.954	4910.69
675.145	4828.77
675.336	4916.83
675.527	4886.11
675.717	4904.54
675.908	4916.83
676.099	4812.39
676.289	4724.32
676.48	4841.06
676.671	4675.17
676.861	4734.56
677.052	4664.93
677.243	4679.27
677.433	4648.55
677.624	4648.55
677.814	4798.05
678.005	4673.12
678.195	4574.82
678.386	4701.79
678.576	4658.79
678.767	4486.76
678.957	4613.73
679.148	4462.18
679.338	4593.25
679.529	4558.44
679.719	4474.47
679.909	4589.16
680.1	4331.11
680.29	4601.44
680.481	4628.07
680.671	4415.08
680.861	4497
681.052	4482.66
681.242	4492.9
681.432	4689.51
681.622	4437.61
681.813	4453.99
682.003	4474.47
682.193	4161.13
682.383	4357.74
682.573	4284.01
682.764	4404.84
682.954	4402.79
683.144	4226.67
683.334	4257.39
683.524	4247.15
683.714	4392.55
683.904	4148.84
684.094	4337.26
684.284	4183.66
684.474	4228.71
684.664	4324.97
684.854	4114.03
685.044	4185.71
685.234	4269.67
685.424	4281.96
685.614	4177.51
685.804	4279.91
685.994	4148.84
686.184	4128.36
686.374	4144.75
686.564	4040.3
686.753	4089.45
686.943	4005.49
687.133	4064.88
687.323	3921.52
687.513	3958.38
687.702	4062.83
687.892	3966.57
688.082	3968.62
688.272	4040.3
688.461	4013.68
688.651	4005.49
688.841	4034.16
689.03	3923.57
689.22	3935.85
689.41	3837.55
689.599	3853.94
689.789	3923.57
689.979	3749.49
690.168	3858.03
690.358	3712.63
690.547	3608.18
690.737	3759.73
690.926	3837.55
691.116	3786.35
691.305	3841.65
691.495	3737.2
691.684	3640.95
691.874	3632.76
692.063	3749.49
692.252	3587.7
692.442	3679.86
692.631	3602.04
692.82	3583.6
693.01	3528.31
693.199	3589.75
693.388	3419.77
693.578	3466.87
693.767	3542.64
693.956	3458.68
694.146	3507.83
694.335	3653.23
694.524	3419.77
694.713	3380.86
694.902	3528.31
695.092	3438.2
695.281	3376.76
695.47	3479.16
695.659	3417.72
695.848	3466.87
696.037	3413.62
696.226	3434.1
696.415	3370.62
696.604	3481.21
696.793	3395.19
696.982	3337.85
697.171	3458.68
697.36	3378.81
697.549	3434.1
697.738	3294.84
697.927	3264.12
698.116	3315.32
698.305	3300.98
698.494	3350.14
698.683	3339.9
698.872	3364.47
699.061	3378.81
699.25	3321.46
699.438	3309.18
699.627	3448.44
699.816	3387
700.005	3167.87
700.193	3274.36
700.382	3321.46
700.571	3110.52
700.76	3354.23
700.948	3270.26
701.137	3245.69
701.326	3247.74
701.514	3239.55
701.703	3239.55
701.892	3278.46
702.08	3286.65
702.269	3313.27
702.457	3071.61
702.646	3165.82
702.834	3174.01
703.023	3401.33
703.212	3212.92
703.4	3239.55
703.589	3141.24
703.777	3245.69
703.965	3253.88
704.154	3171.96
704.342	3233.4
704.531	3225.21
704.719	3128.95
704.907	3270.26
705.096	3333.75
705.284	3161.72
705.472	3122.81
705.661	3264.12
705.849	3247.74
706.037	3321.46
706.226	3266.17
706.414	3270.26
706.602	3174.01
706.79	3288.7
706.979	3253.88
707.167	3233.4
707.355	3163.77
707.543	3055.23
707.731	3272.31
707.919	3112.57
708.107	3047.04
708.296	3245.69
708.484	3126.91
708.672	3212.92
708.86	3280.5
709.048	3104.38
709.236	3118.72
709.424	3245.69
709.612	3155.58
709.8	3018.36
709.988	3030.65
710.176	3182.2
710.364	2997.88
710.551	2942.59
710.739	2981.5
710.927	3124.86
711.115	3190.39
711.303	3051.13
711.491	3114.62
711.679	3057.28
711.866	3077.76
712.054	3090.04
712.242	3112.57
712.43	3124.86
712.617	2961.02
712.805	3141.24
712.993	3098.24
713.181	3014.27
713.368	3155.58
713.556	3063.42
713.744	2940.54
713.931	3085.95
714.119	3026.56
714.306	3163.77
714.494	3153.53
714.682	3151.48
714.869	2991.74
715.057	2948.73
715.244	3083.9
715.432	3071.61
715.619	3012.22
715.807	3018.36
715.994	3014.27
716.182	3102.33
716.369	3026.56
716.556	2999.93
716.744	3026.56
716.931	3116.67
717.119	3092.09
717.306	3032.7
717.493	2987.65
717.681	2997.88
717.868	2936.45
718.055	2969.21
718.242	2997.88
718.43	2891.39
718.617	3014.27
718.804	2993.79
718.991	3006.08
719.179	3010.17
719.366	3090.04
719.553	2905.73
719.74	3063.42
719.927	3008.12
720.114	2969.21
720.301	2995.84
720.488	2854.53
720.676	3049.08
720.863	2954.88
721.05	2958.97
721.237	3004.03
721.424	2965.12
721.611	2952.83
721.798	2797.18
721.985	2866.81
722.172	2875.01
722.358	3004.03
722.545	2934.4
722.732	2897.53
722.919	2891.39
723.106	2899.58
723.293	2928.25
723.48	2961.02
723.667	3006.08
723.853	2891.39
724.04	2799.23
724.227	2932.35
724.414	2932.35
724.6	2860.67
724.787	2825.86
724.974	3020.41
725.161	2825.86
725.347	2907.77
725.534	2899.58
725.72	2899.58
725.907	2903.68
726.094	2987.65
726.28	2838.14
726.467	2842.24
726.653	2967.17
726.84	2848.38
727.027	2946.69
727.213	2967.17
727.4	2860.67
727.586	2799.23
727.773	2881.15
727.959	2823.81
728.145	2858.62
728.332	2864.77
728.518	2895.49
728.705	2858.62
728.891	2811.52
729.077	2899.58
729.264	2946.69
729.45	2698.88
729.636	2948.73
729.823	2911.87
730.009	2977.41
730.195	2872.96
730.382	2829.95
730.568	2836.1
730.754	2801.28
730.94	2872.96
731.126	2901.63
731.313	2731.65
731.499	2815.62
731.685	2780.8
731.871	2838.14
732.057	2838.14
732.243	2821.76
732.429	2819.71
732.615	2780.8
732.801	2856.58
732.987	2750.08
733.173	2821.76
733.359	2748.03
733.545	2813.57
733.731	2743.94
733.917	2821.76
734.103	2827.9
734.289	2848.38
734.475	2780.8
734.661	2817.66
734.847	2840.19
735.033	2782.85
735.219	2805.38
735.404	2774.66
735.59	2825.86
735.776	2811.52
735.962	2838.14
736.148	2690.69
736.333	2702.98
736.519	2627.2
736.705	2791.04
736.89	2834.05
737.076	2672.26
737.262	2616.96
737.447	2752.13
737.633	2666.11
737.819	2668.16
738.004	2684.55
738.19	2651.78
738.375	2735.74
738.561	2745.98
738.747	2692.74
738.932	2735.74
739.118	2610.82
739.303	2657.92
739.489	2659.97
739.674	2580.1
739.859	2623.11
740.045	2702.98
740.23	2678.4
740.416	2551.43
740.601	2608.77
740.786	2627.2
740.972	2553.48
741.157	2530.95
741.342	2508.42
741.528	2578.05
741.713	2541.19
741.898	2637.44
742.084	2514.56
742.269	2530.95
742.454	2471.56
742.639	2614.91
742.824	2496.13
743.01	2567.81
743.195	2489.99
743.38	2498.18
743.565	2414.21
743.75	2510.47
743.935	2369.16
744.12	2543.24
744.305	2463.37
744.49	2377.35
744.675	2399.88
744.86	2371.21
745.045	2363.01
745.23	2305.67
745.415	2293.38
745.6	2277
745.785	2365.06
745.97	2254.47
746.155	2346.63
746.34	2342.53
746.525	2176.65
746.71	2326.15
746.895	2150.03
747.079	2188.94
747.264	2209.42
747.449	2385.54
747.634	2139.79
747.819	2272.9
748.003	2145.93
748.188	2121.35
748.373	2231.94
748.557	2115.21
748.742	2113.16
748.927	2174.6
749.111	2150.03
749.296	2018.96
749.481	2080.39
749.665	2047.63
749.85	2098.83
750.034	2033.29
750.219	1949.32
750.404	2070.16
750.588	1883.79
750.773	1830.54
750.957	1883.79
751.141	1867.41
751.326	1963.66
751.51	1832.59
751.695	1926.8
751.879	1859.21
752.064	2049.68
752.248	1816.21
752.432	1918.61
752.617	1920.65
752.801	1814.16
752.985	1867.41
753.17	1789.58
753.354	1736.34
753.538	1795.73
753.722	1783.44
753.907	1732.24
754.091	1754.77
754.275	1814.16
754.459	1730.19
754.643	1676.95
754.828	1640.08
755.012	1713.81
755.196	1588.88
755.38	1681.04
755.564	1668.75
755.748	1586.83
755.932	1691.28
756.116	1642.13
756.3	1613.46
756.484	1584.79
756.668	1656.47
756.852	1574.55
757.036	1552.02
757.22	1580.69
757.404	1631.89
757.588	1586.83
757.772	1552.02
757.956	1511.06
758.14	1545.88
758.323	1509.01
758.507	1384.09
758.691	1449.62
758.875	1457.81
759.059	1494.68
759.242	1492.63
759.426	1447.57
759.61	1355.41
759.794	1375.89
759.977	1347.22
760.161	1463.96
760.345	1406.61
760.528	1431.19
760.712	1349.27
760.895	1390.23
761.079	1330.84
761.263	1361.56
761.446	1308.31
761.63	1363.61
761.813	1293.97
761.997	1406.61
762.18	1375.89
762.364	1228.44
762.547	1304.21
762.731	1244.82
762.914	1210.01
763.098	1193.62
763.281	1244.82
763.464	1257.11
763.648	1191.58
763.831	1273.5
764.015	1265.3
764.198	1281.69
764.381	1363.61
764.564	1248.92
764.748	1300.12
764.931	1244.82
765.114	1154.71
765.297	1271.45
765.481	1179.29
765.664	1128.09
765.847	1175.19
766.03	1263.26
766.213	1191.58
766.397	1224.34
766.58	1199.77
766.763	1199.77
766.946	1050.27
767.129	1167
767.312	1199.77
767.495	1187.48
767.678	1255.06
767.861	1152.67
768.044	1115.8
768.227	1146.52
768.41	1220.25
768.593	1093.27
768.776	1115.8
768.959	1197.72
769.142	1224.34
769.324	1076.89
769.507	1105.56
769.69	1083.03
769.873	1027.74
770.056	1085.08
770.239	1109.66
770.421	1035.93
770.604	1066.65
770.787	1103.51
770.97	1031.83
771.152	966.3
771.335	1056.41
771.518	1060.51
771.7	1052.31
771.883	1121.95
772.066	1042.07
772.248	1015.45
772.431	958.11
772.613	1005.21
772.796	1029.79
772.978	1054.36
773.161	1023.64
773.343	984.73
773.526	970.4
773.708	1033.88
773.891	941.72
774.073	972.44
774.256	976.54
774.438	968.35
774.621	964.25
774.803	820.89
774.985	943.77
775.168	839.33
775.35	863.9
775.532	902.81
775.715	853.66
775.897	884.38
776.079	865.95
776.261	945.82
776.444	970.4
776.626	792.22
776.808	898.72
776.99	835.23
777.173	734.88
777.355	843.42
777.537	804.51
777.719	872.09
777.901	839.33
778.083	800.41
778.265	861.85
778.447	820.89
778.629	788.13
778.811	796.32
778.993	794.27
779.175	829.09
779.357	779.93
779.539	755.36
779.721	771.74
779.903	765.6
780.085	751.26
780.267	771.74
780.449	718.5
780.631	722.59
780.812	753.31
780.994	743.07
781.176	738.98
781.358	675.49
781.54	659.1
781.721	665.25
781.903	632.48
782.085	700.06
782.267	640.67
782.448	667.3
782.63	556.71
782.812	638.62
782.993	685.73
783.175	673.44
783.357	640.67
783.538	605.86
783.72	599.71
783.901	593.57
784.083	646.82
784.264	517.79
784.446	599.71
784.627	509.6
784.809	568.99
784.99	585.38
785.172	538.27
785.353	505.51
785.535	575.14
785.716	554.66
785.897	499.36
786.079	454.31
786.26	474.79
786.441	585.38
786.623	577.19
786.804	521.89
786.985	542.37
787.167	655.01
787.348	562.85
787.529	452.26
787.71	577.19
787.891	562.85
788.073	525.99
788.254	495.27
788.435	519.84
788.616	505.51
788.797	413.35
788.978	433.83
789.159	478.88
789.34	495.27
789.522	419.49
789.703	419.49
789.884	509.6
790.065	485.03
790.246	417.44
790.427	462.5
790.607	411.3
790.788	499.36
790.969	360.1
791.15	491.17
791.331	382.63
791.512	417.44
791.693	419.49
791.874	378.53
792.054	478.88
792.235	378.53
792.416	407.2
792.597	366.25
792.778	382.63
792.958	513.7
793.139	376.48
793.32	437.92
793.5	360.1
793.681	427.68
793.862	429.73
794.042	450.21
794.223	308.9
794.404	396.96
794.584	376.48
794.765	362.15
794.945	368.29
795.126	390.82
795.306	493.22
795.487	315.05
795.667	319.14
795.848	335.53
796.028	347.81
796.209	372.39
796.389	353.96
796.57	327.33
796.75	399.01
796.93	370.34
797.111	419.49
797.291	280.23
797.471	396.96
797.652	313
797.832	298.66
798.012	358.05
798.192	300.71
798.373	249.51
798.553	319.14
798.733	378.53
798.913	331.43
799.093	276.13
799.274	278.18
799.454	327.33
799.634	327.33
799.814	339.62
799.994	298.66
800.174	339.62
800.354	300.71
800.534	317.09
800.714	323.24
800.894	319.14
801.074	306.85
801.254	317.09
801.434	300.71
801.614	235.18
801.794	353.96
801.974	616.1
802.154	315.05
802.334	282.28
802.514	319.14
802.693	286.37
802.873	317.09
803.053	306.85
803.233	329.38
803.413	218.79
803.592	245.41
803.772	282.28
803.952	247.46
804.131	229.03
804.311	323.24
804.491	286.37
804.67	267.94
804.85	294.57
805.03	206.5
805.209	308.9
805.389	257.7
805.568	224.94
805.748	247.46
805.928	304.81
806.107	212.65
806.287	249.51
806.466	272.04
806.646	243.37
806.825	265.89
807.004	257.7
807.184	284.33
807.363	282.28
807.543	276.13
807.722	188.07
807.901	171.69
808.081	259.75
808.26	200.36
808.439	247.46
808.619	269.99
808.798	229.03
808.977	247.46
809.156	226.98
809.336	175.78
809.515	249.51
809.694	167.59
809.873	210.6
810.052	198.31
810.231	298.66
810.411	290.47
810.59	243.37
810.769	261.8
810.948	253.61
811.127	263.85
811.306	196.26
811.485	241.32
811.664	220.84
811.843	231.08
812.022	214.7
812.201	280.23
812.38	245.41
812.559	145.06
812.737	171.69
812.916	216.74
813.095	179.88
813.274	235.18
813.453	181.93
813.632	202.41
813.811	224.94
813.989	192.17
814.168	179.88
814.347	151.21
814.526	177.83
814.704	183.98
814.883	169.64
815.062	198.31
815.24	183.98
815.419	159.4
815.598	204.46
815.776	222.89
815.955	167.59
816.133	190.12
816.312	161.45
816.49	171.69
816.669	151.21
816.847	89.77
817.026	130.73
817.204	206.5
817.383	179.88
817.561	136.87
817.74	194.22
817.918	265.89
818.097	65.19
818.275	102.06
818.453	183.98
818.632	128.68
818.81	149.16
818.988	198.31
819.167	126.63
819.345	155.3
819.523	175.78
819.701	159.4
819.879	186.02
820.058	118.44
820.236	157.35
820.414	136.87
820.592	138.92
820.77	118.44
820.948	95.91
821.127	181.93
821.305	179.88
821.483	159.4
821.661	175.78
821.839	75.43
822.017	157.35
822.195	167.59
822.373	183.98
822.551	149.16
822.729	147.11
822.907	167.59
823.085	173.74
823.262	147.11
823.44	143.02
823.618	157.35
823.796	177.83
823.974	126.63
824.152	73.39
824.329	175.78
824.507	114.34
824.685	196.26
824.863	186.02
825.04	186.02
825.218	200.36
825.396	183.98
825.574	100.01
825.751	136.87
825.929	85.67
826.107	83.63
826.284	138.92
826.462	132.78
826.639	126.63
826.817	67.24
826.994	147.11
827.172	124.58
827.349	175.78
827.527	143.02
827.704	54.95
827.882	151.21
828.059	93.87
828.237	175.78
828.414	97.96
828.591	-0.34
828.769	194.22
828.946	44.71
829.124	106.15
829.301	175.78
829.478	59.05
829.655	93.87
829.833	116.39
830.01	57
830.187	102.06
830.364	85.67
830.542	91.82
830.719	81.58
830.896	108.2
831.073	106.15
831.25	95.91
831.427	52.91
831.604	122.54
831.782	110.25
831.959	183.98
832.136	132.78
832.313	97.96
832.49	61.1
832.667	118.44
832.844	100.01
833.021	114.34
833.198	114.34
833.374	77.48
833.551	95.91
833.728	138.92
833.905	40.62
834.082	126.63
834.259	95.91
834.436	122.54
834.612	57
834.789	73.39
834.966	104.11
835.143	61.1
835.319	36.52
835.496	136.87
835.673	38.57
835.85	167.59
836.026	32.43
836.203	63.15
836.38	83.63
836.556	95.91
836.733	61.1
836.909	140.97
837.086	73.39
837.262	79.53
837.439	67.24
837.616	36.52
837.792	126.63
837.968	44.71
838.145	73.39
838.321	24.23
838.498	9.9
838.674	42.67
838.851	71.34
839.027	79.53
839.203	91.82
839.38	57
839.556	-12.63
839.732	140.97
839.909	87.72
840.085	108.2
840.261	44.71
840.437	40.62
840.614	69.29
840.79	54.95
840.966	104.11
841.142	155.3
841.318	28.33
841.494	79.53
841.671	59.05
841.847	63.15
842.023	95.91
842.199	65.19
842.375	87.72
842.551	95.91
842.727	75.43
842.903	89.77
843.079	81.58
843.255	85.67
843.431	81.58
843.607	110.25
843.783	57
843.959	110.25
844.134	34.47
844.31	32.43
844.486	52.91
844.662	87.72
844.838	93.87
845.013	134.82
845.189	151.21
845.365	-16.73
845.541	75.43
845.716	95.91
845.892	46.76
846.068	7.85
846.244	87.72
846.419	63.15
846.595	16.04
846.77	91.82
846.946	13.99
847.122	104.11
847.297	50.86
847.473	52.91
847.648	34.47
847.824	83.63
847.999	26.28
848.175	40.62
848.35	89.77
848.526	22.19
848.701	63.15
848.876	77.48
849.052	65.19
849.227	3.75
849.403	75.43
849.578	75.43
849.753	36.52
849.929	36.52
850.104	32.43
850.279	22.19
850.454	59.05
850.63	71.34
850.805	22.19
850.98	22.19
851.155	24.23
851.33	24.23
851.505	9.9
851.681	175.78
851.856	32.43
852.031	106.15
852.206	52.91
852.381	16.04
852.556	89.77
852.731	114.34
852.906	44.71
853.081	46.76
853.256	44.71
853.431	71.34
853.606	52.91
853.781	75.43
853.956	-37.2
854.131	57
854.305	97.96
854.48	81.58
854.655	18.09
854.83	11.95
855.005	26.28
855.18	36.52
855.354	40.62
855.529	128.68
855.704	-12.63
855.879	-14.68
856.053	-0.34
856.228	20.14
856.403	38.57
856.577	83.63
856.752	77.48
856.926	42.67
857.101	34.47
857.276	65.19
857.45	85.67
857.625	-16.73
857.799	77.48
857.974	9.9
858.148	73.39
858.323	-12.63
858.497	42.67
858.672	-29.01
858.846	28.33
859.02	30.38
859.195	18.09
859.369	116.39
859.543	83.63
859.718	22.19
859.892	77.48
860.066	1.71
860.241	13.99
860.415	20.14
860.589	-20.82
860.763	-8.53
860.938	69.29
861.112	5.8
861.286	5.8
861.46	34.47
861.634	67.24
861.808	26.28
861.982	28.33
862.157	36.52
862.331	11.95
862.505	36.52
862.679	50.86
862.853	83.63
863.027	38.57
863.201	52.91
863.375	59.05
863.549	16.04
863.722	112.3
863.896	22.19
864.07	11.95
864.244	22.19
864.418	73.39
864.592	79.53
864.766	18.09
864.939	-26.96
865.113	-39.25
865.287	28.33
865.461	-20.82
865.634	-29.01
865.808	44.71
865.982	73.39
866.156	18.09
866.329	-29.01
866.503	40.62
866.676	73.39
866.85	48.81
867.024	30.38
867.197	9.9
867.371	73.39
867.544	44.71
867.718	50.86
867.891	75.43
868.065	9.9
868.238	-45.4
868.412	-12.63
868.585	-12.63
868.759	46.76
868.932	38.57
869.105	42.67
869.279	59.05
869.452	42.67
869.625	32.43
869.799	20.14
869.972	-14.68
870.145	20.14
870.319	-0.34
870.492	48.81
870.665	50.86
870.838	16.04
871.011	-37.2
871.185	108.2
871.358	16.04
871.531	-0.34
871.704	79.53
871.877	24.23
872.05	5.8
872.223	30.38
872.396	1.71
872.569	22.19
872.742	50.86
872.915	40.62
873.088	87.72
873.261	9.9
873.434	59.05
873.607	-2.39
873.78	73.39
873.953	34.47
874.126	77.48
874.299	1.71
874.471	28.33
874.644	7.85
874.817	-24.92
874.99	32.43
875.163	57
875.335	85.67
875.508	-20.82
875.681	77.48
875.853	48.81
876.026	-0.34
876.199	54.95
876.371	22.19
876.544	18.09
876.717	30.38
876.889	5.8
877.062	73.39
877.234	75.43
877.407	-4.44
877.579	-33.11
877.752	102.06
877.924	67.24
878.097	11.95
878.269	24.23
878.442	54.95
878.614	54.95
878.786	50.86
878.959	24.23
879.131	57
879.303	-12.63
879.476	77.48
879.648	73.39
879.82	104.11
879.993	-8.53
880.165	13.99
880.337	1.71
880.509	13.99
880.681	-20.82
880.854	11.95
881.026	75.43
881.198	42.67
881.37	18.09
881.542	-20.82
881.714	13.99
881.886	75.43
882.058	22.19
882.23	112.3
882.402	-2.39
882.574	61.1
882.746	-4.44
882.918	114.34
883.09	67.24
883.262	42.67
883.434	-33.11
883.606	-29.01
883.778	1.71
883.95	46.76
884.122	13.99
884.293	32.43
884.465	13.99
884.637	11.95
884.809	34.47
884.98	46.76
885.152	32.43
885.324	24.23
885.496	44.71
885.667	40.62
885.839	44.71
886.011	5.8
886.182	44.71
886.354	77.48
886.525	7.85
886.697	-20.82
886.869	-22.87
887.04	18.09
887.212	100.01
887.383	38.57
887.555	50.86
887.726	-8.53
887.897	59.05
888.069	5.8
888.24	5.8
888.412	42.67
888.583	77.48
888.754	40.62
888.926	-26.96
889.097	16.04
889.268	40.62
889.44	61.1
889.611	-16.73
889.782	32.43
889.953	61.1
890.125	54.95
890.296	57
890.467	77.48
890.638	13.99
890.809	40.62
890.98	-78.16
891.151	-16.73
891.323	7.85
891.494	36.52
891.665	42.67
891.836	7.85
892.007	57
892.178	24.23
892.349	-37.2
892.52	20.14
892.691	-8.53
892.862	5.8
893.032	5.8
893.203	40.62
893.374	-45.4
893.545	30.38
893.716	-12.63
893.887	-39.25
894.057	36.52
894.228	-4.44
894.399	32.43
894.57	65.19
894.74	-16.73
894.911	85.67
895.082	-14.68
895.253	9.9
895.423	42.67
895.594	44.71
895.764	65.19
895.935	-12.63
896.106	3.75
896.276	-35.16
896.447	-4.44
896.617	32.43
896.788	18.09
896.958	24.23
897.129	-14.68
897.299	22.19
897.47	48.81
897.64	16.04
897.81	-2.39
897.981	57
898.151	-4.44
898.322	-33.11
898.492	5.8
898.662	59.05
898.832	52.91
899.003	7.85
899.173	65.19
899.343	20.14
899.513	-12.63
