Data from USB4F104151__249__11-11-42-488.txt Node

Date: Wed Mar 12 11:11:42 EDT 2025
User: louis
Spectrometer: USB4F10415
Trigger mode: 4
Integration Time (sec): 2.000000E-2
Scans to average: 1
Electric dark correction enabled: true
Nonlinearity correction enabled: false
Boxcar width: 0
XAxis mode: Wavelengths
Number of Pixels in Spectrum: 3648
>>>>>Begin Spectral Data<<<<<
178.204	-71.17
178.424	-71.17
178.644	-71.17
178.864	-114.17
179.084	-85.5
179.304	18.94
179.524	31.23
179.744	-50.69
179.964	-24.06
180.184	-22.02
180.404	35.33
180.624	37.38
180.844	8.7
181.064	47.62
181.283	-50.69
181.503	-15.87
181.723	-15.87
181.943	-9.73
182.163	20.99
182.383	47.62
182.602	43.52
182.822	68.09
183.042	53.76
183.262	35.33
183.482	12.8
183.701	10.75
183.921	76.29
184.141	18.94
184.361	47.62
184.58	25.09
184.8	51.71
185.02	66.05
185.239	6.66
185.459	45.57
185.679	-7.68
185.898	41.47
186.118	113.15
186.338	-3.58
186.557	-48.64
186.777	-7.68
186.997	117.25
187.216	41.47
187.436	-1.54
187.655	-28.16
187.875	2.56
188.095	8.7
188.314	55.81
188.534	70.14
188.753	-17.92
188.973	41.47
189.192	113.15
189.412	31.23
189.631	0.51
189.851	-13.82
190.07	27.14
190.29	45.57
190.509	12.8
190.729	23.04
190.948	76.29
191.168	90.62
191.387	72.19
191.607	-15.87
191.826	18.94
192.045	72.19
192.265	80.38
192.484	86.53
192.704	-36.35
192.923	0.51
193.142	29.18
193.362	41.47
193.581	57.86
193.8	-5.63
194.02	20.99
194.239	64
194.458	86.53
194.678	74.24
194.897	43.52
195.116	53.76
195.335	49.66
195.555	16.9
195.774	51.71
195.993	0.51
196.212	-26.11
196.432	-15.87
196.651	25.09
196.87	-9.73
197.089	33.28
197.308	51.71
197.528	41.47
197.747	51.71
197.966	74.24
198.185	45.57
198.404	119.29
198.623	88.57
198.842	64
199.062	20.99
199.281	102.91
199.5	51.71
199.719	76.29
199.938	-17.92
200.157	70.14
200.376	18.94
200.595	70.14
200.814	66.05
201.033	39.42
201.252	16.9
201.471	8.7
201.69	49.66
201.909	20.99
202.128	76.29
202.347	27.14
202.566	102.91
202.785	-19.97
203.004	-26.11
203.223	86.53
203.442	-17.92
203.661	-15.87
203.879	107.01
204.098	78.33
204.317	16.9
204.536	31.23
204.755	94.72
204.974	27.14
205.193	88.57
205.411	80.38
205.63	45.57
205.849	33.28
206.068	51.71
206.287	84.48
206.505	18.94
206.724	-36.35
206.943	-15.87
207.162	4.61
207.381	-26.11
207.599	-32.26
207.818	29.18
208.037	57.86
208.255	-9.73
208.474	25.09
208.693	64
208.911	-5.63
209.13	33.28
209.349	55.81
209.567	53.76
209.786	39.42
210.005	55.81
210.223	57.86
210.442	-1.54
210.661	35.33
210.879	12.8
211.098	-42.5
211.316	29.18
211.535	94.72
211.753	0.51
211.972	0.51
212.191	41.47
212.409	-3.58
212.628	49.66
212.846	-19.97
213.065	90.62
213.283	59.9
213.502	20.99
213.72	23.04
213.938	6.66
214.157	57.86
214.375	6.66
214.594	16.9
214.812	94.72
215.031	-7.68
215.249	-5.63
215.467	33.28
215.686	31.23
215.904	94.72
216.122	-1.54
216.341	59.9
216.559	41.47
216.778	10.75
216.996	-40.45
217.214	-11.78
217.432	41.47
217.651	41.47
217.869	74.24
218.087	86.53
218.306	82.43
218.524	96.77
218.742	-93.69
218.96	49.66
219.179	4.61
219.397	37.38
219.615	88.57
219.833	76.29
220.051	-1.54
220.27	78.33
220.488	-1.54
220.706	98.81
220.924	0.51
221.142	18.94
221.36	57.86
221.578	-13.82
221.796	8.7
222.015	72.19
222.233	43.52
222.451	94.72
222.669	31.23
222.887	86.53
223.105	72.19
223.323	37.38
223.541	-11.78
223.759	107.01
223.977	109.05
224.195	-50.69
224.413	86.53
224.631	39.42
224.849	102.91
225.067	84.48
225.285	92.67
225.503	16.9
225.721	55.81
225.939	35.33
226.157	4.61
226.375	86.53
226.592	64
226.81	102.91
227.028	113.15
227.246	76.29
227.464	-5.63
227.682	33.28
227.9	27.14
228.117	70.14
228.335	29.18
228.553	82.43
228.771	-9.73
228.989	45.57
229.206	41.47
229.424	86.53
229.642	14.85
229.86	12.8
230.077	43.52
230.295	37.38
230.513	2.56
230.731	47.62
230.948	72.19
231.166	104.96
231.384	-7.68
231.601	20.99
231.819	51.71
232.037	-19.97
232.254	23.04
232.472	86.53
232.689	31.23
232.907	37.38
233.125	0.51
233.342	-3.58
233.56	37.38
233.777	10.75
233.995	49.66
234.213	47.62
234.43	43.52
234.648	41.47
234.865	14.85
235.083	20.99
235.3	-15.87
235.518	18.94
235.735	72.19
235.953	25.09
236.17	-30.21
236.388	78.33
236.605	100.86
236.822	82.43
237.04	92.67
237.257	90.62
237.475	18.94
237.692	37.38
237.909	25.09
238.127	25.09
238.344	90.62
238.562	51.71
238.779	0.51
238.996	-5.63
239.214	2.56
239.431	6.66
239.648	47.62
239.865	100.86
240.083	33.28
240.3	37.38
240.517	33.28
240.735	-46.59
240.952	18.94
241.169	72.19
241.386	82.43
241.603	-28.16
241.821	20.99
242.038	84.48
242.255	41.47
242.472	29.18
242.689	72.19
242.907	90.62
243.124	45.57
243.341	23.04
243.558	107.01
243.775	64
243.992	64
244.209	59.9
244.426	57.86
244.643	12.8
244.86	20.99
245.078	10.75
245.295	82.43
245.512	68.09
245.729	41.47
245.946	53.76
246.163	37.38
246.38	102.91
246.597	25.09
246.814	55.81
247.031	16.9
247.248	27.14
247.464	47.62
247.681	74.24
247.898	20.99
248.115	64
248.332	14.85
248.549	55.81
248.766	74.24
248.983	20.99
249.2	39.42
249.417	82.43
249.633	-71.17
249.85	45.57
250.067	16.9
250.284	-5.63
250.501	119.29
250.717	6.66
250.934	-28.16
251.151	2.56
251.368	-22.02
251.585	66.05
251.801	64
252.018	29.18
252.235	12.8
252.451	-17.92
252.668	6.66
252.885	61.95
253.102	-65.02
253.318	49.66
253.535	33.28
253.752	20.99
253.968	0.51
254.185	2.56
254.401	51.71
254.618	74.24
254.835	-17.92
255.051	27.14
255.268	66.05
255.484	-5.63
255.701	2.56
255.917	113.15
256.134	0.51
256.351	23.04
256.567	14.85
256.784	4.61
257	-56.83
257.217	94.72
257.433	33.28
257.65	53.76
257.866	51.71
258.082	41.47
258.299	8.7
258.515	104.96
258.732	29.18
258.948	72.19
259.165	90.62
259.381	16.9
259.597	74.24
259.814	-26.11
260.03	25.09
260.246	57.86
260.463	129.53
260.679	100.86
260.895	10.75
261.112	37.38
261.328	57.86
261.544	-7.68
261.761	39.42
261.977	61.95
262.193	47.62
262.409	-9.73
262.626	41.47
262.842	66.05
263.058	25.09
263.274	47.62
263.49	72.19
263.707	102.91
263.923	8.7
264.139	-30.21
264.355	23.04
264.571	70.14
264.787	27.14
265.004	20.99
265.22	-32.26
265.436	53.76
265.652	16.9
265.868	49.66
266.084	35.33
266.3	35.33
266.516	2.56
266.732	43.52
266.948	-26.11
267.164	102.91
267.38	66.05
267.596	14.85
267.812	29.18
268.028	-48.64
268.244	61.95
268.46	78.33
268.676	8.7
268.892	-48.64
269.108	68.09
269.324	4.61
269.54	-9.73
269.756	41.47
269.972	6.66
270.188	41.47
270.403	-17.92
270.619	6.66
270.835	82.43
271.051	-7.68
271.267	57.86
271.483	23.04
271.698	29.18
271.914	47.62
272.13	78.33
272.346	88.57
272.562	92.67
272.777	64
272.993	86.53
273.209	-13.82
273.425	90.62
273.64	64
273.856	74.24
274.072	109.05
274.287	57.86
274.503	57.86
274.719	115.2
274.934	-1.54
275.15	-50.69
275.366	4.61
275.581	20.99
275.797	68.09
276.012	70.14
276.228	64
276.444	31.23
276.659	57.86
276.875	-56.83
277.09	47.62
277.306	70.14
277.521	6.66
277.737	49.66
277.952	84.48
278.168	16.9
278.383	33.28
278.599	-3.58
278.814	107.01
279.03	80.38
279.245	80.38
279.461	-7.68
279.676	92.67
279.892	74.24
280.107	2.56
280.322	25.09
280.538	113.15
280.753	33.28
280.969	-3.58
281.184	37.38
281.399	61.95
281.615	98.81
281.83	47.62
282.045	6.66
282.26	53.76
282.476	31.23
282.691	39.42
282.906	6.66
283.122	41.47
283.337	43.52
283.552	51.71
283.767	-5.63
283.983	98.81
284.198	-1.54
284.413	66.05
284.628	127.49
284.843	18.94
285.058	37.38
285.274	39.42
285.489	-5.63
285.704	86.53
285.919	23.04
286.134	10.75
286.349	39.42
286.564	37.38
286.779	104.96
286.995	57.86
287.21	47.62
287.425	39.42
287.64	37.38
287.855	10.75
288.07	8.7
288.285	39.42
288.5	41.47
288.715	61.95
288.93	-22.02
289.145	-15.87
289.36	6.66
289.575	29.18
289.79	35.33
290.004	45.57
290.219	-38.4
290.434	18.94
290.649	59.9
290.864	45.57
291.079	41.47
291.294	51.71
291.509	78.33
291.724	72.19
291.938	20.99
292.153	33.28
292.368	98.81
292.583	59.9
292.798	41.47
293.012	74.24
293.227	74.24
293.442	27.14
293.657	37.38
293.871	98.81
294.086	33.28
294.301	74.24
294.516	64
294.73	76.29
294.945	35.33
295.16	12.8
295.374	45.57
295.589	51.71
295.804	51.71
296.018	27.14
296.233	25.09
296.447	31.23
296.662	47.62
296.877	59.9
297.091	18.94
297.306	66.05
297.52	31.23
297.735	55.81
297.949	68.09
298.164	14.85
298.378	-13.82
298.593	68.09
298.807	-34.3
299.022	45.57
299.236	51.71
299.451	55.81
299.665	25.09
299.88	-36.35
300.094	92.67
300.309	47.62
300.523	20.99
300.737	39.42
300.952	86.53
301.166	121.34
301.381	45.57
301.595	33.28
301.809	68.09
302.024	41.47
302.238	66.05
302.452	154.11
302.667	27.14
302.881	6.66
303.095	115.2
303.309	64
303.524	35.33
303.738	31.23
303.952	76.29
304.166	90.62
304.381	-34.3
304.595	84.48
304.809	47.62
305.023	-30.21
305.237	20.99
305.452	80.38
305.666	66.05
305.88	92.67
306.094	92.67
306.308	74.24
306.522	61.95
306.736	96.77
306.95	84.48
307.164	20.99
307.379	82.43
307.593	88.57
307.807	74.24
308.021	68.09
308.235	39.42
308.449	20.99
308.663	45.57
308.877	131.58
309.091	27.14
309.305	117.25
309.519	35.33
309.733	37.38
309.947	45.57
310.161	12.8
310.374	90.62
310.588	33.28
310.802	14.85
311.016	-40.45
311.23	107.01
311.444	33.28
311.658	47.62
311.872	64
312.085	119.29
312.299	31.23
312.513	55.81
312.727	37.38
312.941	41.47
313.154	0.51
313.368	-40.45
313.582	66.05
313.796	55.81
314.009	53.76
314.223	25.09
314.437	39.42
314.651	88.57
314.864	53.76
315.078	53.76
315.292	39.42
315.505	94.72
315.719	61.95
315.933	-32.26
316.146	117.25
316.36	111.1
316.573	82.43
316.787	47.62
317.001	53.76
317.214	4.61
317.428	45.57
317.641	20.99
317.855	35.33
318.068	4.61
318.282	64
318.495	98.81
318.709	43.52
318.922	51.71
319.136	127.49
319.349	37.38
319.563	49.66
319.776	61.95
319.99	29.18
320.203	-42.5
320.417	12.8
320.63	-5.63
320.843	43.52
321.057	2.56
321.27	31.23
321.483	8.7
321.697	143.87
321.91	35.33
322.124	-1.54
322.337	6.66
322.55	70.14
322.763	43.52
322.977	45.57
323.19	25.09
323.403	-3.58
323.617	80.38
323.83	14.85
324.043	66.05
324.256	107.01
324.469	31.23
324.683	107.01
324.896	51.71
325.109	6.66
325.322	37.38
325.535	121.34
325.748	121.34
325.962	45.57
326.175	45.57
326.388	43.52
326.601	57.86
326.814	53.76
327.027	66.05
327.24	86.53
327.453	47.62
327.666	49.66
327.879	88.57
328.092	86.53
328.305	64
328.518	57.86
328.731	45.57
328.944	102.91
329.157	16.9
329.37	25.09
329.583	119.29
329.796	41.47
330.009	20.99
330.222	66.05
330.435	76.29
330.648	59.9
330.861	35.33
331.073	14.85
331.286	47.62
331.499	20.99
331.712	10.75
331.925	45.57
332.138	80.38
332.35	82.43
332.563	4.61
332.776	25.09
332.989	45.57
333.202	-1.54
333.414	64
333.627	49.66
333.84	35.33
334.053	109.05
334.265	66.05
334.478	8.7
334.691	53.76
334.903	94.72
335.116	90.62
335.329	80.38
335.541	70.14
335.754	68.09
335.966	27.14
336.179	12.8
336.392	0.51
336.604	59.9
336.817	45.57
337.029	20.99
337.242	25.09
337.454	16.9
337.667	-22.02
337.88	47.62
338.092	14.85
338.305	160.25
338.517	82.43
338.729	80.38
338.942	80.38
339.154	18.94
339.367	-3.58
339.579	64
339.792	37.38
340.004	51.71
340.217	14.85
340.429	14.85
340.641	53.76
340.854	-1.54
341.066	23.04
341.278	102.91
341.491	107.01
341.703	64
341.915	92.67
342.128	53.76
342.34	49.66
342.552	78.33
342.764	68.09
342.977	33.28
343.189	23.04
343.401	29.18
343.613	14.85
343.826	78.33
344.038	35.33
344.25	16.9
344.462	29.18
344.674	53.76
344.886	76.29
345.099	-26.11
345.311	25.09
345.523	86.53
345.735	16.9
345.947	6.66
346.159	14.85
346.371	14.85
346.583	10.75
346.795	170.49
347.007	-3.58
347.219	66.05
347.431	10.75
347.643	31.23
347.855	12.8
348.067	76.29
348.279	43.52
348.491	70.14
348.703	12.8
348.915	119.29
349.127	90.62
349.339	90.62
349.551	47.62
349.763	4.61
349.975	29.18
350.187	39.42
350.399	51.71
350.61	53.76
350.822	57.86
351.034	70.14
351.246	143.87
351.458	107.01
351.669	4.61
351.881	20.99
352.093	47.62
352.305	61.95
352.517	70.14
352.728	66.05
352.94	49.66
353.152	12.8
353.363	72.19
353.575	164.35
353.787	98.81
353.999	-38.4
354.21	43.52
354.422	16.9
354.633	47.62
354.845	64
355.057	57.86
355.268	66.05
355.48	72.19
355.692	76.29
355.903	82.43
356.115	100.86
356.326	43.52
356.538	102.91
356.749	139.77
356.961	94.72
357.172	29.18
357.384	72.19
357.595	45.57
357.807	74.24
358.018	57.86
358.23	16.9
358.441	123.39
358.653	115.2
358.864	43.52
359.075	113.15
359.287	78.33
359.498	119.29
359.709	64
359.921	41.47
360.132	18.94
360.344	82.43
360.555	-11.78
360.766	107.01
360.977	-1.54
361.189	115.2
361.4	59.9
361.611	59.9
361.823	86.53
362.034	104.96
362.245	25.09
362.456	55.81
362.667	-5.63
362.879	23.04
363.09	16.9
363.301	123.39
363.512	61.95
363.723	-22.02
363.935	37.38
364.146	102.91
364.357	4.61
364.568	33.28
364.779	78.33
364.99	43.52
365.201	51.71
365.412	104.96
365.623	109.05
365.834	47.62
366.045	66.05
366.256	72.19
366.467	37.38
366.678	180.73
366.889	64
367.1	96.77
367.311	143.87
367.522	12.8
367.733	68.09
367.944	90.62
368.155	29.18
368.366	12.8
368.577	90.62
368.788	39.42
368.999	-24.06
369.209	74.24
369.42	100.86
369.631	98.81
369.842	57.86
370.053	72.19
370.264	141.82
370.474	-19.97
370.685	166.4
370.896	10.75
371.107	119.29
371.317	49.66
371.528	25.09
371.739	86.53
371.95	115.2
372.16	64
372.371	-22.02
372.582	121.34
372.792	14.85
373.003	100.86
373.214	123.39
373.424	82.43
373.635	25.09
373.846	66.05
374.056	98.81
374.267	70.14
374.477	59.9
374.688	76.29
374.898	31.23
375.109	49.66
375.319	74.24
375.53	123.39
375.74	125.44
375.951	41.47
376.161	70.14
376.372	88.57
376.582	64
376.793	70.14
377.003	70.14
377.214	53.76
377.424	145.92
377.635	66.05
377.845	25.09
378.055	66.05
378.266	68.09
378.476	170.49
378.686	59.9
378.897	59.9
379.107	76.29
379.317	47.62
379.528	49.66
379.738	84.48
379.948	37.38
380.158	12.8
380.369	64
380.579	35.33
380.789	0.51
380.999	68.09
381.21	55.81
381.42	104.96
381.63	74.24
381.84	127.49
382.05	86.53
382.261	27.14
382.471	74.24
382.681	25.09
382.891	27.14
383.101	104.96
383.311	68.09
383.521	4.61
383.731	-1.54
383.941	66.05
384.151	66.05
384.361	129.53
384.571	68.09
384.781	96.77
384.991	84.48
385.201	90.62
385.411	102.91
385.621	94.72
385.831	43.52
386.041	145.92
386.251	55.81
386.461	45.57
386.671	-1.54
386.881	61.95
387.091	57.86
387.301	37.38
387.511	25.09
387.72	94.72
387.93	57.86
388.14	109.05
388.35	104.96
388.56	31.23
388.769	86.53
388.979	98.81
389.189	70.14
389.399	18.94
389.609	74.24
389.818	102.91
390.028	41.47
390.238	129.53
390.447	-22.02
390.657	90.62
390.867	59.9
391.076	98.81
391.286	74.24
391.496	86.53
391.705	86.53
391.915	61.95
392.125	145.92
392.334	70.14
392.544	123.39
392.753	64
392.963	94.72
393.172	100.86
393.382	92.67
393.591	94.72
393.801	113.15
394.01	147.97
394.22	98.81
394.429	68.09
394.639	125.44
394.848	47.62
395.058	109.05
395.267	64
395.477	115.2
395.686	86.53
395.895	160.25
396.105	135.68
396.314	111.1
396.524	49.66
396.733	109.05
396.942	147.97
397.152	84.48
397.361	154.11
397.57	113.15
397.78	180.73
397.989	121.34
398.198	133.63
398.407	98.81
398.617	98.81
398.826	90.62
399.035	74.24
399.244	109.05
399.453	92.67
399.663	180.73
399.872	127.49
400.081	115.2
400.29	182.78
400.499	127.49
400.708	143.87
400.917	35.33
401.127	172.54
401.336	113.15
401.545	178.69
401.754	107.01
401.963	193.02
402.172	145.92
402.381	201.21
402.59	188.93
402.799	137.73
403.008	199.16
403.217	178.69
403.426	150.01
403.635	102.91
403.844	133.63
404.053	152.06
404.262	215.55
404.471	125.44
404.68	182.78
404.888	102.91
405.097	238.08
405.306	246.27
405.515	233.98
405.724	242.17
405.933	182.78
406.142	215.55
406.35	147.97
406.559	213.5
406.768	205.31
406.977	236.03
407.185	270.84
407.394	258.56
407.603	248.32
407.812	311.8
408.02	283.13
408.229	260.6
408.438	215.55
408.646	233.98
408.855	260.6
409.064	246.27
409.272	256.51
409.481	430.59
409.69	369.15
409.898	354.81
410.107	444.92
410.315	455.16
410.524	358.91
410.733	496.12
410.941	430.59
411.15	393.72
411.358	387.58
411.567	471.54
411.775	416.25
411.984	543.22
412.192	565.75
412.401	416.25
412.609	553.46
412.818	518.65
413.026	504.31
413.234	555.51
413.443	602.61
413.651	563.7
413.86	655.86
414.068	633.33
414.276	682.49
414.485	625.14
414.693	786.93
414.901	819.7
415.11	813.56
415.318	762.36
415.526	817.65
415.734	897.52
415.943	932.34
416.151	930.29
416.359	942.58
416.567	1047.02
416.776	1016.3
416.984	1153.52
417.192	1102.32
417.4	1208.81
417.608	1139.18
417.817	1102.32
418.025	1282.54
418.233	1362.41
418.441	1350.12
418.649	1432.04
418.857	1520.1
419.065	1473
419.273	1546.73
419.481	1593.83
419.689	1589.74
419.897	1681.89
420.105	1884.64
420.313	1866.21
420.521	1815.01
420.729	1917.41
420.937	1939.94
421.145	1888.74
421.353	2093.54
421.561	2361.82
421.769	2191.84
421.977	2263.52
422.185	2333.15
422.393	2701.78
422.601	2595.29
422.809	2707.93
423.017	2574.81
423.224	2767.32
423.432	2906.58
423.64	2750.93
423.848	3105.23
424.056	3115.47
424.263	3303.89
424.471	3363.28
424.679	3281.36
424.887	3488.2
425.094	3619.27
425.302	3766.73
425.51	3877.32
425.718	3842.5
425.925	3987.91
426.133	4200.9
426.341	4327.87
426.548	4712.89
426.756	4489.66
426.964	4532.67
427.171	4909.49
427.379	4999.6
427.586	5013.94
427.794	5210.54
428.001	5403.05
428.209	5743.02
428.417	5540.27
428.624	5931.43
428.832	6064.55
429.039	5984.68
429.247	6070.69
429.454	6592.92
429.662	7006.61
429.869	6674.84
430.076	7018.9
430.284	6824.34
430.491	7063.96
430.699	7590.28
430.906	7383.44
431.114	7518.61
431.321	7776.65
431.528	8020.36
431.736	8262.02
431.943	9025.91
432.15	8755.58
432.358	8847.74
432.565	9240.95
432.772	9179.51
432.979	9775.47
433.187	9920.87
433.394	9902.44
433.601	10445.15
433.808	10703.2
434.016	10522.98
434.223	10778.97
434.43	11667.79
434.637	11348.31
434.844	12040.52
435.052	12413.25
435.259	12325.19
435.466	12202.31
435.673	12110.15
435.88	13123.9
436.087	13744.43
436.294	13877.55
436.501	13553.97
436.708	13793.58
436.915	14119.21
437.122	14715.17
437.329	14731.55
437.537	15114.52
437.743	15487.25
437.95	15094.04
438.157	16115.98
438.364	16937.21
438.571	16503.04
438.778	16716.03
438.985	18274.54
439.192	17301.75
439.399	18100.46
439.606	17678.58
439.813	18737.38
440.02	19800.27
440.227	19433.69
440.433	19237.08
440.64	20232.4
440.847	19716.31
441.054	20242.64
441.261	21668.02
441.467	21452.98
441.674	21817.52
441.881	22528.17
442.088	22423.72
442.294	22282.41
442.501	22769.83
442.708	23531.67
442.914	24469.64
443.121	25522.3
443.328	24782.98
443.534	26808.42
443.741	25583.74
443.948	25364.6
444.154	27142.24
444.361	26880.1
444.568	27099.23
444.774	27246.69
444.981	27283.55
445.187	28069.97
445.394	29382.72
445.6	28983.37
445.807	31827.99
446.013	30584.88
446.22	30859.31
446.426	32069.65
446.633	32055.32
446.839	33472.51
447.046	31993.88
447.252	33660.93
447.459	34027.51
447.665	33615.87
447.871	34940.91
448.078	36456.4
448.284	34772.97
448.491	35803.1
448.697	37482.44
448.903	38000.57
449.11	37652.42
449.316	36726.74
449.522	38029.24
449.728	38649.78
449.935	38954.93
450.141	38717.36
450.347	39718.82
450.553	38623.15
450.76	39389.09
450.966	40454.04
451.172	40114.08
451.378	40675.22
451.584	40470.42
451.791	41166.73
451.997	40634.26
452.203	41510.79
452.409	41375.62
452.615	41037.71
452.821	39423.91
453.027	39233.45
453.233	41322.38
453.44	39749.54
453.646	39839.65
453.852	40247.19
454.058	40822.67
454.264	39290.79
454.47	40363.93
454.676	39268.26
454.882	40802.19
455.088	37103.56
455.294	37726.14
455.5	38100.92
455.705	38418.36
455.911	37103.56
456.117	36413.4
456.323	35731.42
456.529	34004.99
456.735	35293.16
456.941	34377.72
457.147	33961.98
457.352	32851.98
457.558	32421.91
457.764	32559.12
457.97	31971.35
458.176	31012.9
458.381	31221.8
458.587	29382.72
458.793	29718.59
458.999	28174.42
459.204	29911.1
459.41	29204.55
459.616	27297.89
459.821	27666.52
460.027	27275.36
460.233	26613.87
460.438	25548.92
460.644	25690.23
460.85	24524.94
461.055	23988.37
461.261	23842.96
461.466	22333.61
461.672	21495.99
461.878	22993.06
462.083	21770.42
462.289	21309.63
462.494	21037.25
462.7	20027.6
462.905	19531.99
463.111	20275.4
463.316	20332.75
463.522	19996.88
463.727	20211.92
463.932	19841.23
464.138	19679.44
464.343	19802.32
464.549	19235.03
464.754	19982.54
464.959	19720.4
465.165	19742.93
465.37	18950.37
465.575	18551.01
465.781	18923.74
465.986	19321.05
466.191	18497.77
466.397	18086.12
466.602	17144.06
466.807	18133.23
467.012	18041.07
467.218	17545.46
467.423	17465.59
467.628	17582.32
467.833	18358.5
468.038	17834.22
468.244	17246.46
468.449	17905.9
468.654	17094.91
468.859	17170.68
469.064	17060.09
469.269	16349.45
469.474	16470.28
469.679	16931.07
469.885	15986.96
470.09	16654.59
470.295	16353.54
470.5	16044.3
470.705	16144.65
470.91	15718.67
471.115	15665.42
471.32	15919.37
471.525	15706.38
471.73	15382.81
471.935	15300.89
472.139	14661.92
472.344	14917.92
472.549	14817.57
472.754	14766.37
472.959	14633.25
473.164	13812.01
473.369	13910.32
473.574	14256.42
473.778	14258.47
473.983	14121.26
474.188	14010.67
474.393	13375.8
474.598	13588.78
474.802	13203.77
475.007	13402.42
475.212	13242.68
475.417	12661.05
475.621	12745.02
475.826	12865.85
476.031	12538.18
476.235	12362.05
476.44	12525.89
476.645	12310.85
476.849	12374.34
477.054	12017.99
477.259	11862.35
477.463	12040.52
477.668	11553.1
477.872	11852.11
478.077	11667.79
478.282	11381.07
478.486	11219.28
478.691	11051.35
478.895	11217.24
479.1	11129.17
479.304	11032.92
479.509	10625.37
479.713	11002.2
479.918	10713.44
480.122	10565.98
480.326	10568.03
480.531	10627.42
480.735	10635.61
480.94	10600.8
481.144	10819.93
481.348	10391.91
481.553	10418.53
481.757	10199.4
481.961	10221.92
482.166	10404.19
482.37	10457.44
482.574	10135.91
482.778	10287.46
482.983	10494.3
483.187	10320.23
483.391	10389.86
483.595	10338.66
483.8	10205.54
484.004	10262.88
484.208	10234.21
484.412	10207.59
484.616	10207.59
484.821	10457.44
485.025	10152.29
485.229	10178.92
485.433	10140.01
485.637	10199.4
485.841	10021.22
486.045	10113.38
486.249	10295.65
486.453	10246.5
486.657	10019.18
486.861	10168.68
487.065	9773.42
487.269	10031.46
487.473	10076.52
487.677	10332.51
487.881	10340.71
488.085	10228.07
488.289	10348.9
488.493	9992.55
488.697	10355.04
488.901	10285.41
489.105	10127.72
489.309	10254.69
489.512	10383.71
489.716	10287.46
489.92	10226.02
490.124	10348.9
490.328	10541.41
490.531	10404.19
490.735	10285.41
490.939	10482.02
491.143	10402.15
491.346	10234.21
491.55	10580.32
491.754	10637.66
491.958	10781.02
492.161	10666.33
492.365	10703.2
492.569	10752.35
492.772	10735.96
492.976	10944.86
493.18	10746.2
493.383	10824.03
493.587	11168.09
493.79	11190.61
493.994	10910.04
494.197	11123.03
494.401	11546.96
494.605	11207
494.808	11565.39
495.012	11462.99
495.215	11583.82
495.419	11518.29
495.622	11823.44
495.825	11817.29
496.029	11805
496.232	11917.64
496.436	11893.07
496.639	12220.74
496.843	12245.32
497.046	12337.48
497.249	12403.01
497.453	12480.83
497.656	12654.91
497.859	12757.31
498.063	12978.49
498.266	13117.75
498.469	13316.4
498.673	13205.81
498.876	13513.01
499.079	13553.97
499.282	13435.19
499.485	13596.98
499.689	13959.47
499.892	13977.9
500.095	14020.91
500.298	14459.17
500.501	14412.07
500.705	14995.74
500.908	15081.75
501.111	15208.73
501.314	15053.08
501.517	15278.36
501.72	15347.99
501.923	15440.15
502.126	15681.81
502.329	16099.59
502.532	16249.1
502.735	16120.07
502.938	16488.71
503.141	16732.42
503.344	16775.42
503.547	16814.34
503.75	17012.99
503.953	17459.45
504.156	17563.89
504.359	17705.2
504.562	17764.59
504.765	17989.87
504.968	18280.68
505.17	18522.34
505.373	18647.27
505.576	18753.76
505.779	19239.13
505.982	19067.1
506.185	19353.82
506.387	19316.95
506.59	19466.45
506.793	20076.75
506.996	19904.72
507.198	20654.28
507.401	20691.14
507.604	20699.33
507.807	21178.56
508.009	21098.69
508.212	21340.35
508.415	21424.31
508.617	21706.93
508.82	22380.71
509.022	21719.22
509.225	22059.18
509.428	22741.16
509.63	22649
509.833	22612.13
510.035	23275.68
510.238	23619.74
510.44	23632.02
510.643	23789.72
510.845	24178.83
511.048	24092.82
511.25	24127.63
511.453	24492.17
511.655	25057.41
511.858	24942.72
512.06	25084.03
512.262	25135.23
512.465	25565.31
512.667	26138.74
512.87	26038.39
513.072	26226.8
513.274	26720.36
513.477	27023.46
513.679	27248.74
513.881	27476.06
514.084	27770.97
514.286	28026.96
514.488	27820.12
514.69	28575.82
514.893	29100.1
515.095	28938.31
515.297	29378.62
515.499	29218.88
515.701	29392.96
515.904	29958.2
516.106	30181.43
516.308	30533.68
516.51	30793.77
516.712	30773.29
516.914	31244.32
517.116	31244.32
517.318	31371.3
517.52	31746.08
517.722	31621.15
517.925	32356.37
518.127	32759.82
518.329	32958.47
518.531	33005.58
518.733	33046.54
518.935	33755.13
519.136	33638.4
519.338	34392.05
519.54	34598.9
519.742	34523.12
519.944	34734.06
520.146	35354.6
520.348	35131.37
520.55	35323.88
520.752	35567.59
520.954	36128.73
521.155	35938.27
521.357	36591.57
521.559	36730.83
521.761	36673.49
521.963	36995.02
522.164	37203.91
522.366	37328.84
522.568	38203.32
522.77	38373.3
522.971	38410.17
523.173	38062.01
523.375	38504.37
523.576	38426.55
523.778	38815.66
523.98	39360.42
524.181	39270.31
524.383	39450.53
524.584	39853.98
524.786	39923.61
524.988	40347.54
525.189	40486.81
525.391	40327.06
525.592	41279.37
525.794	40902.54
525.995	40900.5
526.197	41183.12
526.398	40871.82
526.6	41494.41
526.801	41498.5
527.003	41600.9
527.204	41566.09
527.406	42235.77
527.607	42186.62
527.808	42616.69
528.01	41705.35
528.211	42221.44
528.412	42977.14
528.614	42712.95
528.815	42796.91
529.016	43325.29
529.218	42520.44
529.419	42887.03
529.62	43345.77
529.822	43192.17
530.023	42737.52
530.224	43065.2
530.425	43200.36
530.626	43186.03
530.828	42919.79
531.029	44062.56
531.23	43476.84
531.431	43556.71
531.632	43857.76
531.833	43779.94
532.035	43353.96
532.236	43607.91
532.437	43843.43
532.638	43493.22
532.839	43767.65
533.04	44097.38
533.241	43456.36
533.442	44355.42
533.643	44134.24
533.844	44027.74
534.045	43861.86
534.246	43861.86
534.447	44312.41
534.648	44013.41
534.849	44074.85
535.05	43575.14
535.251	44156.77
535.451	44160.86
535.652	44207.97
535.853	44207.97
536.054	44373.85
536.255	44250.97
536.456	43755.36
536.657	44580.7
536.857	43743.08
537.058	43837.28
537.259	44396.38
537.46	44568.41
537.66	43956.07
537.861	44095.33
538.062	44195.68
538.263	44124
538.463	43667.3
538.664	44009.31
538.865	44189.53
539.065	44394.33
539.266	43734.88
539.466	44554.07
539.667	43112.3
539.868	44431.19
540.068	44021.6
540.269	43837.28
540.469	44619.61
540.67	43876.19
540.87	44037.98
541.071	43999.07
541.271	44257.12
541.472	43984.74
541.672	43974.5
541.873	43612.01
542.073	43468.65
542.274	44076.9
542.474	43665.25
542.675	43587.43
542.875	44134.24
543.075	43788.13
543.276	43343.72
543.476	44312.41
543.676	43566.95
543.877	43923.3
544.077	43960.16
544.277	43761.51
544.478	43456.36
544.678	43890.53
544.878	43356.01
545.078	43790.18
545.279	43628.39
545.479	43487.08
545.679	43747.17
545.879	43595.62
546.079	43880.29
546.28	43663.21
546.48	43319.15
546.68	43747.17
546.88	43577.19
547.08	43689.83
547.28	43403.11
547.48	43345.77
547.68	43366.25
547.88	43100.01
548.081	43712.36
548.281	43575.14
548.481	43165.55
548.681	43546.47
548.881	43632.49
549.081	43495.27
549.28	43057.01
549.48	43870.05
549.68	43419.5
549.88	43505.51
550.08	42811.25
550.28	43702.12
550.48	43274.09
550.68	43384.68
550.88	42999.66
551.08	43036.53
551.279	43341.67
551.479	42717.04
551.679	43249.52
551.879	42936.18
552.079	43116.4
552.278	43190.12
552.478	42788.72
552.678	42858.35
552.878	42997.62
553.077	42747.76
553.277	42735.48
553.477	43100.01
553.676	42844.02
553.876	42784.63
554.076	42760.05
554.275	42884.98
554.475	42121.09
554.674	42665.84
554.874	42739.57
555.074	42512.25
555.273	43118.45
555.473	43071.34
555.672	42098.56
555.872	42776.44
556.071	42362.75
556.271	42645.37
556.47	42182.52
556.67	42057.6
556.869	42368.89
557.068	42624.89
557.268	42215.29
557.467	41871.23
557.667	42368.89
557.866	42215.29
558.065	42164.09
558.265	41750.4
558.464	41705.35
558.663	42346.36
558.863	41426.82
559.062	42258.3
559.261	41518.98
559.461	41965.44
559.66	41136.01
559.859	41498.5
560.058	40910.74
560.258	41209.74
560.457	41047.95
560.656	41219.98
560.855	41342.86
561.054	41318.28
561.253	40931.22
561.453	41015.18
561.652	40916.88
561.851	41168.78
562.05	40826.77
562.249	40712.08
562.448	40955.79
562.647	40458.13
562.846	40390.55
563.045	40810.39
563.244	40073.12
563.443	41009.04
563.642	39866.27
563.841	40644.5
564.04	40017.82
564.239	40329.11
564.438	39643.04
564.637	39999.39
564.836	40212.38
565.035	39724.96
565.234	39985.05
565.432	39665.57
565.631	39694.24
565.83	39550.88
566.029	39464.87
566.228	39243.69
566.427	39167.91
566.625	38928.3
566.824	38768.56
567.023	39032.75
567.222	38408.12
567.42	39145.39
567.619	38823.86
567.818	38651.83
568.016	38234.04
568.215	39024.56
568.414	38619.06
568.612	38870.96
568.811	38444.98
569.01	38551.48
569.208	37894.08
569.407	38369.21
569.605	37898.17
569.804	37836.73
570.002	37941.18
570.201	38213.56
570.4	37816.25
570.598	37998.52
570.797	37466.05
570.995	37582.79
571.193	37189.58
571.392	37877.69
571.59	37187.53
571.789	37070.79
571.987	36925.39
572.186	37011.4
572.384	36886.48
572.582	37263.3
572.781	36767.69
572.979	36593.62
573.177	36659.15
573.376	36794.32
573.574	35940.32
573.772	36696.02
573.971	35909.6
574.169	36067.29
574.367	36014.04
574.565	36282.33
574.763	36071.39
574.962	35770.33
575.16	35377.12
575.358	35651.55
575.556	34969.58
575.754	35723.23
575.952	35268.58
576.151	35545.06
576.349	35047.4
576.547	35024.87
576.745	35035.11
576.943	35078.12
577.141	34832.36
577.339	35172.33
577.537	34347
577.735	34551.79
577.933	34621.42
578.131	34674.67
578.329	34347
578.527	34140.15
578.725	33982.46
578.923	34109.43
579.121	34084.86
579.319	33916.92
579.516	34207.73
579.714	34156.53
579.912	33798.14
580.11	33744.89
580.308	33368.07
580.506	33785.85
580.704	33161.22
580.901	33378.31
581.099	33581.06
581.297	32999.43
581.495	32888.84
581.692	33349.64
581.89	32770.06
582.088	33140.74
582.285	33052.68
582.483	33032.2
582.681	32755.72
582.878	32337.94
583.076	32083.99
583.274	32620.56
583.471	31950.87
583.669	32170.01
583.866	31969.3
584.064	32679.95
584.262	31918.1
584.459	31993.88
584.657	31592.48
584.854	32110.61
585.052	31471.65
585.249	31537.18
585.447	31629.34
585.644	31510.56
585.841	31383.59
586.039	31506.46
586.236	30984.23
586.434	30996.52
586.631	30801.96
586.828	31072.29
587.026	30804.01
587.223	30625.84
587.42	30691.37
587.618	31205.41
587.815	30242.87
588.012	30167.09
588.21	30187.57
588.407	30656.56
588.604	30015.54
588.801	30027.83
588.999	29911.1
589.196	29728.83
589.393	29810.75
589.59	29978.68
589.787	29640.76
589.984	29405.25
590.182	29376.58
590.379	29618.24
590.576	29319.23
590.773	29272.13
590.97	29206.59
591.167	29384.77
591.364	28801.1
591.561	29012.04
591.758	28733.51
591.955	29083.72
592.152	28702.79
592.349	28567.63
592.546	28651.59
592.743	28899.4
592.94	28219.47
593.137	28209.23
593.334	28598.35
593.531	27824.22
593.727	28258.38
593.924	27838.55
594.121	27998.29
594.318	28072.02
594.515	27824.22
594.712	27797.59
594.908	27443.29
595.105	27758.68
595.302	27269.22
595.499	27496.54
595.696	26628.2
595.892	26873.96
596.089	27187.3
596.286	27074.66
596.482	27185.25
596.679	26929.25
596.876	27193.44
597.072	26787.94
597.269	26296.43
597.466	26683.5
597.662	26601.58
597.859	26583.15
598.055	26300.53
598.252	26046.58
598.448	26159.22
598.645	26386.54
598.841	25716.86
599.038	25847.93
599.234	25931.89
599.431	25770.1
599.627	25516.15
599.824	25679.99
600.02	25067.65
600.217	25620.6
600.413	25436.28
600.609	25170.05
600.806	25344.13
601.002	25192.58
601.198	24981.63
601.395	25114.75
601.591	25006.21
601.787	24610.95
601.984	24739.97
602.18	25288.83
602.376	24463.5
602.572	24283.28
602.769	24672.39
602.965	24584.33
603.161	24346.76
603.357	24518.79
603.553	24164.5
603.75	23951.51
603.946	24103.06
604.142	24101.01
604.338	23570.58
604.534	24058
604.73	23613.59
604.926	23476.38
605.122	23734.42
605.318	23705.75
605.514	23201.95
605.71	23275.68
605.906	23142.56
606.102	23509.15
606.298	23314.59
606.494	23204
606.69	23148.7
606.886	23283.87
607.082	22671.53
607.278	23048.35
607.474	22720.68
607.67	23095.46
607.866	22634.66
608.062	23074.98
608.257	22618.28
608.453	22997.15
608.649	22628.52
608.845	22388.91
609.041	22409.39
609.236	22532.26
609.432	22466.73
609.628	22417.58
609.824	22192.3
610.019	22106.29
610.215	22028.46
610.411	22251.69
610.606	22126.77
610.802	21983.41
610.998	22208.69
611.193	22159.53
611.389	21997.74
611.584	21682.36
611.78	21694.64
611.976	22108.33
612.171	21862.58
612.367	21993.65
612.562	21555.38
612.758	21379.26
612.953	21479.61
613.149	21940.4
613.344	21434.55
613.539	21840.05
613.735	21536.95
613.93	21475.51
614.126	21293.24
614.321	21600.44
614.517	21385.4
614.712	21244.09
614.907	21205.18
615.103	21301.43
615.298	21170.36
615.493	21432.5
615.688	20742.34
615.884	21592.25
616.079	20523.21
616.274	21096.64
616.47	20621.51
616.665	20836.55
616.86	20666.56
617.055	20730.05
617.25	20867.27
617.445	20848.83
617.641	20281.55
617.836	20781.25
618.031	20390.09
618.226	20646.08
618.421	20134.09
618.616	20537.54
618.811	19886.29
619.006	20252.87
619.201	20140.24
619.396	20048.08
619.591	19939.54
619.786	20000.97
619.981	19828.95
620.176	20091.09
620.371	19591.38
620.566	19896.53
620.761	19456.22
620.956	19876.05
621.151	19163.36
621.346	19458.26
621.541	19020
621.735	19169.5
621.93	18843.87
622.125	19079.39
622.32	18782.43
622.515	19067.1
622.709	18661.6
622.904	18825.44
623.099	18497.77
623.294	18526.44
623.488	18094.32
623.683	18577.64
623.878	17903.85
624.072	18186.47
624.267	18057.45
624.462	17893.61
624.656	17770.74
624.851	17611
625.046	17527.03
625.24	17611
625.435	17203.45
625.629	17176.83
625.824	17201.4
626.018	17293.56
626.213	16861.44
626.407	16787.71
626.602	16918.78
626.796	16742.66
626.991	16664.83
627.185	16744.7
627.38	16439.56
627.574	16324.87
627.768	16115.98
627.963	16298.25
628.157	16048.4
628.352	16009.48
628.546	15497.49
628.74	15913.23
628.935	15477.01
629.129	15946
629.323	15141.14
629.517	15438.1
629.712	15464.72
629.906	15407.38
630.1	15003.93
630.294	15382.81
630.489	15153.43
630.683	15139.1
630.877	14962.97
631.071	14809.37
631.265	14790.94
631.459	14700.83
631.653	14936.35
631.848	14686.5
632.042	14481.7
632.236	14559.52
632.43	14289.19
632.624	14453.03
632.818	14387.49
633.012	14160.17
633.206	14182.7
633.4	14149.93
633.594	13773.1
633.788	14108.97
633.982	13857.07
634.176	13943.08
634.369	13639.98
634.563	13556.02
634.757	13330.74
634.951	13470
635.145	13443.38
635.339	13259.06
635.533	13457.71
635.726	13373.75
635.92	12937.53
636.114	12867.9
636.308	12890.43
636.501	13021.5
636.695	12812.6
636.889	12900.67
637.083	12577.09
637.276	12720.45
637.47	12577.09
637.664	12548.42
637.857	12437.83
638.051	12288.32
638.244	12476.74
638.438	12017.99
638.632	12357.96
638.825	12147.01
639.019	11934.03
639.212	11931.98
639.406	11987.27
639.599	11974.99
639.793	11747.66
639.986	11968.84
640.18	11927.88
640.373	11671.89
640.567	11401.55
640.76	11559.25
640.954	11350.35
641.147	11315.54
641.34	11336.02
641.534	11368.79
641.727	11319.64
641.92	11366.74
642.114	10891.61
642.307	11059.54
642.5	11057.5
642.694	10744.16
642.887	11071.83
643.08	10846.55
643.273	10668.38
643.467	10979.67
643.66	10961.24
643.853	10631.52
644.046	10369.38
644.239	10518.88
644.432	10326.37
644.626	10461.54
644.819	10307.94
645.012	10203.49
645.205	10129.77
645.398	10324.32
645.591	9976.17
645.784	10178.92
645.977	10010.98
646.17	10023.27
646.363	9718.12
646.556	9771.37
646.749	9922.92
646.942	9720.17
647.135	9662.83
647.328	9585.01
647.521	9714.03
647.714	9474.42
647.907	9490.8
648.099	9646.44
648.292	9470.32
648.485	9253.23
648.678	9365.87
648.871	9464.18
649.064	9195.89
649.256	9185.65
649.449	9277.81
649.642	9150.84
649.835	8948.09
650.027	8894.84
650.22	8765.82
650.413	8851.83
650.605	8671.61
650.798	8855.93
650.991	8610.17
651.183	8913.27
651.376	8649.08
651.568	8661.37
651.761	8618.36
651.954	8409.47
652.146	8393.09
652.339	8438.14
652.531	8227.2
652.724	8395.14
652.916	8278.4
653.109	8282.5
653.301	8315.27
653.494	8200.58
653.686	8075.65
653.879	8016.26
654.071	7963.01
654.263	7973.25
654.456	7979.4
654.648	8073.6
654.84	7661.96
655.033	7831.94
655.225	7733.64
655.417	7661.96
655.61	7743.88
655.802	7711.11
655.994	7594.38
656.186	7750.03
656.379	7580.04
656.571	7604.62
656.763	7309.71
656.955	7326.1
657.148	7532.94
657.34	7565.71
657.532	7291.28
657.724	7258.51
657.916	7139.73
658.108	7119.25
658.3	7278.99
658.492	7297.42
658.684	7023
658.876	6879.64
659.068	7119.25
659.26	6791.58
659.452	6959.51
659.644	6865.3
659.836	6846.87
660.028	6812.06
660.22	6748.57
660.412	6756.76
660.604	6738.33
660.796	6644.12
660.988	6629.79
661.18	6656.41
661.372	6562.2
661.563	6527.39
661.755	6566.3
661.947	6750.62
662.139	6513.05
662.331	6482.33
662.522	6234.53
662.714	6273.44
662.906	6381.98
663.097	6355.36
663.289	6222.24
663.481	6152.61
663.673	6222.24
663.864	6103.46
664.056	6162.85
664.247	6263.2
664.439	6025.64
664.631	6091.17
664.822	6099.36
665.014	6044.07
665.205	6001.06
665.397	5988.77
665.588	5753.26
665.78	5839.27
665.971	5765.54
666.163	5833.13
666.354	5919.14
666.546	5738.92
666.737	5749.16
666.929	5759.4
667.12	5624.23
667.311	5747.11
667.503	5599.66
667.694	5562.8
667.885	5456.3
668.077	5341.61
668.268	5429.68
668.459	5478.83
668.651	5312.94
668.842	5382.57
669.033	5372.33
669.224	5173.68
669.416	5314.99
669.607	5327.28
669.798	5228.98
669.989	5274.03
670.18	5261.74
670.371	5167.54
670.563	5220.78
670.754	5157.3
670.945	5165.49
671.136	5081.52
671.327	5308.85
671.518	5122.48
671.709	5104.05
671.9	5050.8
672.091	5011.89
672.282	4981.17
672.473	4917.68
672.664	4833.72
672.855	4923.83
673.046	4972.98
673.237	5011.89
673.428	4866.49
673.619	4905.4
673.809	4854.2
674	4727.22
674.191	4774.33
674.382	4649.4
674.573	4862.39
674.764	4719.03
674.954	4737.46
675.145	4544.95
675.336	4735.42
675.527	4714.94
675.717	4622.78
675.908	4692.41
676.099	4610.49
676.289	4536.76
676.48	4467.13
676.671	4323.77
676.861	4544.95
677.052	4512.19
677.243	4334.01
677.433	4657.59
677.624	4440.51
677.814	4403.64
678.005	4393.4
678.195	4428.22
678.386	4307.39
678.576	4383.17
678.767	4327.87
678.957	4272.57
679.148	4401.6
679.338	4350.4
679.529	4264.38
679.719	4334.01
679.909	4254.14
680.1	4239.81
680.29	4276.67
680.481	4211.14
680.671	4071.87
680.861	4176.32
681.052	4241.86
681.242	4239.81
681.432	4319.68
681.622	4250.05
681.813	4131.26
682.003	4141.5
682.193	4106.69
682.383	4176.32
682.573	4172.22
682.764	4170.18
682.954	3996.1
683.144	4166.08
683.334	4180.42
683.524	4045.25
683.714	4086.21
683.904	3989.96
684.094	4041.15
684.284	4032.96
684.474	4100.55
684.664	3865.03
684.854	3940.8
685.044	3916.23
685.234	3899.84
685.424	3850.69
685.614	3795.4
685.804	3889.6
685.994	3875.27
686.184	3848.65
686.374	3877.32
686.564	3736.01
686.753	3783.11
686.943	3680.71
687.133	3766.73
687.323	3799.49
687.513	3674.57
687.702	3721.67
687.892	3670.47
688.082	3707.34
688.272	3672.52
688.461	3559.88
688.651	3611.08
688.841	3606.98
689.03	3586.51
689.22	3510.73
689.41	3531.21
689.599	3643.85
689.789	3537.35
689.979	3486.15
690.168	3586.51
690.358	3471.82
690.547	3453.39
690.737	3477.96
690.926	3510.73
691.116	3420.62
691.305	3549.64
691.495	3336.65
691.684	3422.67
691.874	3404.24
692.063	3246.54
692.252	3350.99
692.442	3371.47
692.631	3213.77
692.82	3187.15
693.01	3129.81
693.199	3283.41
693.388	3289.55
693.578	3228.11
693.767	3285.45
693.956	3176.91
694.146	3291.6
694.335	3307.98
694.524	3105.23
694.713	3176.91
694.902	3097.04
695.092	3162.58
695.281	3039.7
695.47	3037.65
695.659	3039.7
695.848	3035.6
696.037	3015.12
696.226	3056.08
696.415	2963.92
696.604	3051.99
696.793	3047.89
696.982	3119.57
697.171	2992.59
697.36	2992.59
697.549	2965.97
697.738	2990.55
697.927	2978.26
698.116	2869.72
698.305	2980.31
698.494	2859.48
698.683	3023.31
698.872	2859.48
699.061	2867.67
699.25	2888.15
699.438	2943.44
699.627	2810.33
699.816	2990.55
700.005	2965.97
700.193	2861.52
700.382	2916.82
700.571	2877.91
700.76	2965.97
700.948	2906.58
701.137	2822.61
701.326	2802.13
701.514	2828.76
701.703	2841.04
701.892	2865.62
702.08	2947.54
702.269	2861.52
702.457	2795.99
702.646	2818.52
702.834	2755.03
703.023	2812.37
703.212	2761.17
703.4	2847.19
703.589	2714.07
703.777	2834.9
703.965	2679.26
704.154	2716.12
704.342	2863.57
704.531	2695.64
704.719	2808.28
704.907	2875.86
705.096	2789.85
705.284	2712.02
705.472	2699.73
705.661	2703.83
705.849	2820.56
706.037	2822.61
706.226	2826.71
706.414	2879.96
706.602	2697.69
706.79	2830.8
706.979	2759.13
707.167	2724.31
707.355	2695.64
707.543	2808.28
707.731	2701.78
707.919	2707.93
708.107	2759.13
708.296	2683.35
708.484	2669.02
708.672	2630.1
708.86	2648.54
709.048	2714.07
709.236	2623.96
709.424	2638.3
709.612	2671.06
709.8	2712.02
709.988	2576.86
710.176	2601.43
710.364	2673.11
710.551	2720.21
710.739	2648.54
710.927	2613.72
711.115	2501.08
711.303	2722.26
711.491	2556.38
711.679	2583
711.866	2691.54
712.054	2662.87
712.242	2544.09
712.43	2675.16
712.617	2628.06
712.805	2605.53
712.993	2542.04
713.181	2503.13
713.368	2664.92
713.556	2552.28
713.744	2574.81
713.931	2709.97
714.119	2474.46
714.306	2654.68
714.494	2677.21
714.682	2623.96
714.869	2460.12
715.057	2589.14
715.244	2529.75
715.432	2630.1
715.619	2474.46
715.807	2603.48
715.994	2591.19
716.182	2453.98
716.369	2544.09
716.556	2578.9
716.744	2453.98
716.931	2499.03
717.119	2589.14
717.306	2531.8
717.493	2566.62
717.681	2474.46
717.868	2544.09
718.055	2601.43
718.242	2595.29
718.43	2615.77
718.617	2519.51
718.804	2572.76
718.991	2591.19
719.179	2464.22
719.366	2628.06
719.553	2474.46
719.74	2462.17
719.927	2537.95
720.114	2482.65
720.301	2453.98
720.488	2466.27
720.676	2515.42
720.863	2566.62
721.05	2591.19
721.237	2544.09
721.424	2458.07
721.611	2652.63
721.798	2490.84
721.985	2456.03
722.172	2519.51
722.358	2511.32
722.545	2623.96
722.732	2365.92
722.919	2433.5
723.106	2564.57
723.293	2482.65
723.48	2449.88
723.667	2443.74
723.853	2511.32
724.04	2357.72
724.227	2527.71
724.414	2503.13
724.6	2453.98
724.787	2531.8
724.974	2427.35
725.161	2431.45
725.347	2626.01
725.534	2396.64
725.72	2499.03
725.907	2519.51
726.094	2511.32
726.28	2531.8
726.467	2466.27
726.653	2460.12
726.84	2435.55
727.027	2492.89
727.213	2451.93
727.4	2447.83
727.586	2376.16
727.773	2550.23
727.959	2445.79
728.145	2374.11
728.332	2519.51
728.518	2425.31
728.705	2525.66
728.891	2419.16
729.077	2456.03
729.264	2324.96
729.45	2388.44
729.636	2445.79
729.823	2593.24
730.009	2429.4
730.195	2443.74
730.382	2372.06
730.568	2408.92
730.754	2343.39
730.94	2353.63
731.126	2372.06
731.313	2388.44
731.499	2423.26
731.685	2415.07
731.871	2417.12
732.057	2628.06
732.243	2499.03
732.429	2439.64
732.615	2402.78
732.801	2370.01
732.987	2410.97
733.173	2396.64
733.359	2408.92
733.545	2382.3
733.731	2480.6
733.917	2449.88
734.103	2355.68
734.289	2357.72
734.475	2347.48
734.661	2580.95
734.847	2316.76
735.033	2515.42
735.219	2290.14
735.404	2308.57
735.59	2415.07
735.776	2406.88
735.962	2480.6
736.148	2451.93
736.333	2322.91
736.519	2337.24
736.705	2324.96
736.89	2349.53
737.076	2269.66
737.262	2429.4
737.447	2347.48
737.633	2349.53
737.819	2327
738.004	2363.87
738.19	2382.3
738.375	2378.2
738.561	2306.52
738.747	2396.64
738.932	2214.37
739.118	2374.11
739.303	2331.1
739.489	2331.1
739.674	2193.89
739.859	2347.48
740.045	2238.94
740.23	2261.47
740.416	2161.12
740.601	2318.81
740.786	2140.64
740.972	2224.61
741.157	2335.2
741.342	2159.07
741.528	2195.93
741.713	2140.64
741.898	2259.42
742.084	2204.13
742.269	2183.65
742.454	2154.98
742.639	2175.45
742.824	2236.89
743.01	2183.65
743.195	2148.83
743.38	2122.21
743.565	2028
743.75	2163.17
743.935	2085.34
744.12	2181.6
744.305	2054.62
744.49	2075.1
744.675	2132.45
744.86	2023.91
745.045	2111.97
745.23	2073.06
745.415	2003.43
745.6	2021.86
745.785	1997.28
745.97	1999.33
746.155	1976.8
746.34	1944.03
746.525	1978.85
746.71	2081.25
746.895	1843.68
747.079	1841.64
747.264	1962.47
747.449	1901.03
747.634	1982.95
747.819	1997.28
748.003	1776.1
748.188	1868.26
748.373	1896.93
748.557	1821.16
748.742	1847.78
748.927	1812.96
749.111	1800.68
749.296	1870.31
749.481	1855.97
749.665	1835.49
749.85	1849.83
750.034	1712.61
750.219	1692.13
750.404	1751.53
750.588	1767.91
750.773	1772
750.957	1726.95
751.141	1673.7
751.326	1694.18
751.51	1642.98
751.695	1647.08
751.879	1642.98
752.064	1657.32
752.248	1579.5
752.432	1542.63
752.617	1685.99
752.801	1561.06
752.985	1585.64
753.17	1571.3
753.354	1544.68
753.538	1647.08
753.722	1548.78
753.907	1638.89
754.091	1487.34
754.275	1561.06
754.459	1511.91
754.643	1532.39
754.828	1448.43
755.012	1450.47
755.196	1495.53
755.38	1434.09
755.564	1591.78
755.748	1382.89
755.932	1493.48
756.116	1448.43
756.3	1397.23
756.484	1335.79
756.668	1452.52
756.852	1397.23
757.036	1380.84
757.22	1399.27
757.404	1368.56
757.588	1366.51
757.772	1329.64
757.956	1339.88
758.14	1415.66
758.323	1239.53
758.507	1352.17
758.691	1270.25
758.875	1300.97
759.059	1341.93
759.242	1274.35
759.426	1296.88
759.61	1243.63
759.794	1260.01
759.977	1229.29
760.161	1370.6
760.345	1346.03
760.528	1184.24
760.712	1116.65
760.895	1198.57
761.079	1243.63
761.263	1108.46
761.446	1262.06
761.63	1137.13
761.813	1141.23
761.997	1221.1
762.18	1106.42
762.364	1214.96
762.547	1214.96
762.731	1202.67
762.914	1130.99
763.098	1188.33
763.281	1122.8
763.464	1100.27
763.648	1110.51
763.831	1016.3
764.015	1217.01
764.198	1208.81
764.381	1061.36
764.564	1116.65
764.748	1126.89
764.931	1090.03
765.114	1096.18
765.297	1135.09
765.481	1075.7
765.664	1024.5
765.847	1016.3
766.03	1047.02
766.213	1012.21
766.397	958.96
766.58	1055.22
766.763	1055.22
766.946	1024.5
767.129	1032.69
767.312	1038.83
767.495	999.92
767.678	956.91
767.861	1053.17
768.044	1098.22
768.227	950.77
768.41	1032.69
768.593	1067.5
768.776	999.92
768.959	1040.88
769.142	954.87
769.324	977.39
769.507	952.82
769.69	1012.21
769.873	952.82
770.056	1026.54
770.239	926.19
770.421	934.39
770.604	963.06
770.787	879.09
770.97	1001.97
771.152	911.86
771.335	887.28
771.518	963.06
771.7	944.63
771.883	993.78
772.066	870.9
772.248	819.7
772.431	877.04
772.613	1036.78
772.796	868.85
772.978	840.18
773.161	928.24
773.343	961.01
773.526	868.85
773.708	897.52
773.891	791.03
774.073	885.23
774.256	893.43
774.438	856.56
774.621	868.85
774.803	846.32
774.985	866.8
775.168	805.36
775.35	911.86
775.532	877.04
775.715	819.7
775.897	836.08
776.079	778.74
776.261	745.97
776.444	799.22
776.626	809.46
776.808	735.73
776.99	653.81
777.173	743.92
777.355	641.53
777.537	772.6
777.719	819.7
777.901	657.91
778.083	719.35
778.265	696.82
778.447	741.88
778.629	741.88
778.811	725.49
778.993	692.73
779.175	719.35
779.357	659.96
779.539	690.68
779.721	715.25
779.903	653.81
780.085	725.49
780.267	713.21
780.449	662.01
780.631	678.39
780.812	700.92
780.994	639.48
781.176	598.52
781.358	629.24
781.54	551.42
781.721	619
781.903	635.38
782.085	555.51
782.267	557.56
782.448	664.05
782.63	584.18
782.812	532.98
782.993	541.18
783.175	543.22
783.357	629.24
783.538	580.09
783.72	573.94
783.901	489.98
784.083	549.37
784.264	561.66
784.446	492.02
784.627	510.46
784.809	498.17
784.99	487.93
785.172	487.93
785.353	528.89
785.535	494.07
785.716	559.61
785.897	502.26
786.079	512.5
786.26	457.21
786.441	463.35
786.623	520.7
786.804	436.73
786.985	393.72
787.167	479.74
787.348	485.88
787.529	467.45
787.71	530.94
787.891	549.37
788.073	422.39
788.254	436.73
788.435	477.69
788.616	481.78
788.797	369.15
788.978	465.4
789.159	463.35
789.34	483.83
789.522	416.25
789.703	401.91
789.884	469.5
790.065	397.82
790.246	381.43
790.427	438.78
790.607	436.73
790.788	479.74
790.969	391.67
791.15	420.35
791.331	375.29
791.512	412.15
791.693	463.35
791.874	414.2
792.054	416.25
792.235	434.68
792.416	336.38
792.597	297.47
792.778	356.86
792.958	467.45
793.139	363
793.32	348.67
793.5	328.19
793.681	326.14
793.862	311.8
794.042	373.24
794.223	365.05
794.404	369.15
794.584	320
794.765	397.82
794.945	348.67
795.126	315.9
795.306	338.43
795.487	317.95
795.667	326.14
795.848	356.86
796.028	356.86
796.209	350.71
796.389	328.19
796.57	283.13
796.75	287.23
796.93	375.29
797.111	281.08
797.291	342.52
797.471	371.19
797.652	377.34
797.832	315.9
798.012	389.63
798.192	223.74
798.373	309.76
798.553	254.46
798.733	274.94
798.913	279.04
799.093	328.19
799.274	291.32
799.454	276.99
799.634	250.36
799.814	324.09
799.994	195.07
800.174	367.1
800.354	238.08
800.534	281.08
800.714	260.6
800.894	268.8
801.074	262.65
801.254	254.46
801.434	354.81
801.614	264.7
801.794	272.89
801.974	631.29
802.154	262.65
802.334	383.48
802.514	334.33
802.693	276.99
802.873	279.04
803.053	248.32
803.233	274.94
803.413	270.84
803.592	240.12
803.772	199.16
803.952	260.6
804.131	178.69
804.311	293.37
804.491	276.99
804.67	233.98
804.85	143.87
805.03	205.31
805.209	258.56
805.389	262.65
805.568	197.12
805.748	213.5
805.928	311.8
806.107	291.32
806.287	170.49
806.466	221.69
806.646	240.12
806.825	205.31
807.004	231.93
807.184	279.04
807.363	301.56
807.543	184.83
807.722	156.16
807.901	188.93
808.081	274.94
808.26	104.96
808.439	156.16
808.619	172.54
808.798	279.04
808.977	176.64
809.156	180.73
809.336	193.02
809.515	184.83
809.694	135.68
809.873	203.26
810.052	254.46
810.231	180.73
810.411	262.65
810.59	233.98
810.769	227.84
810.948	254.46
811.127	227.84
811.306	231.93
811.485	166.4
811.664	242.17
811.843	197.12
812.022	168.45
812.201	233.98
812.38	195.07
812.559	190.97
812.737	190.97
812.916	172.54
813.095	231.93
813.274	211.45
813.453	160.25
813.632	252.41
813.811	209.4
813.989	178.69
814.168	145.92
814.347	160.25
814.526	176.64
814.704	150.01
814.883	221.69
815.062	131.58
815.24	180.73
815.419	131.58
815.598	188.93
815.776	217.6
815.955	170.49
816.133	193.02
816.312	86.53
816.49	160.25
816.669	141.82
816.847	127.49
817.026	113.15
817.204	168.45
817.383	143.87
817.561	162.3
817.74	145.92
817.918	125.44
818.097	154.11
818.275	78.33
818.453	188.93
818.632	100.86
818.81	152.06
818.988	145.92
819.167	166.4
819.345	127.49
819.523	147.97
819.701	221.69
819.879	156.16
820.058	162.3
820.236	129.53
820.414	94.72
820.592	127.49
820.77	135.68
820.948	168.45
821.127	119.29
821.305	188.93
821.483	98.81
821.661	143.87
821.839	195.07
822.017	166.4
822.195	162.3
822.373	207.36
822.551	39.42
822.729	154.11
822.907	104.96
823.085	121.34
823.262	100.86
823.44	117.25
823.618	111.1
823.796	147.97
823.974	180.73
824.152	143.87
824.329	64
824.507	92.67
824.685	174.59
824.863	109.05
825.04	158.21
825.218	102.91
825.396	143.87
825.574	160.25
825.751	82.43
825.929	121.34
826.107	96.77
826.284	193.02
826.462	152.06
826.639	98.81
826.817	100.86
826.994	33.28
827.172	102.91
827.349	64
827.527	90.62
827.704	94.72
827.882	92.67
828.059	100.86
828.237	74.24
828.414	88.57
828.591	143.87
828.769	113.15
828.946	45.57
829.124	186.88
829.301	53.76
829.478	123.39
829.655	104.96
829.833	123.39
830.01	119.29
830.187	82.43
830.364	66.05
830.542	119.29
830.719	115.2
830.896	113.15
831.073	100.86
831.25	115.2
831.427	47.62
831.604	35.33
831.782	170.49
831.959	94.72
832.136	100.86
832.313	74.24
832.49	61.95
832.667	59.9
832.844	143.87
833.021	147.97
833.198	127.49
833.374	156.16
833.551	96.77
833.728	104.96
833.905	74.24
834.082	59.9
834.259	66.05
834.436	197.12
834.612	35.33
834.789	96.77
834.966	115.2
835.143	88.57
835.319	131.58
835.496	137.73
835.673	57.86
835.85	70.14
836.026	78.33
836.203	64
836.38	33.28
836.556	64
836.733	31.23
836.909	119.29
837.086	68.09
837.262	86.53
837.439	33.28
837.616	98.81
837.792	109.05
837.968	57.86
838.145	76.29
838.321	84.48
838.498	66.05
838.674	115.2
838.851	49.66
839.027	160.25
839.203	43.52
839.38	76.29
839.556	47.62
839.732	72.19
839.909	-3.58
840.085	82.43
840.261	68.09
840.437	88.57
840.614	10.75
840.79	61.95
840.966	59.9
841.142	156.16
841.318	90.62
841.494	61.95
841.671	96.77
841.847	92.67
842.023	31.23
842.199	57.86
842.375	121.34
842.551	37.38
842.727	10.75
842.903	86.53
843.079	102.91
843.255	96.77
843.431	4.61
843.607	92.67
843.783	6.66
843.959	80.38
844.134	59.9
844.31	131.58
844.486	49.66
844.662	14.85
844.838	72.19
845.013	76.29
845.189	43.52
845.365	86.53
845.541	72.19
845.716	51.71
845.892	18.94
846.068	27.14
846.244	74.24
846.419	100.86
846.595	72.19
846.77	-7.68
846.946	33.28
847.122	49.66
847.297	35.33
847.473	152.06
847.648	4.61
847.824	-24.06
847.999	53.76
848.175	41.47
848.35	4.61
848.526	111.1
848.701	72.19
848.876	47.62
849.052	70.14
849.227	14.85
849.403	29.18
849.578	20.99
849.753	25.09
849.929	49.66
850.104	29.18
850.279	76.29
850.454	104.96
850.63	111.1
850.805	25.09
850.98	41.47
851.155	82.43
851.33	33.28
851.505	43.52
851.681	98.81
851.856	23.04
852.031	90.62
852.206	53.76
852.381	29.18
852.556	53.76
852.731	86.53
852.906	4.61
853.081	59.9
853.256	39.42
853.431	41.47
853.606	47.62
853.781	57.86
853.956	45.57
854.131	102.91
854.305	27.14
854.48	45.57
854.655	10.75
854.83	16.9
855.005	-1.54
855.18	-9.73
855.354	78.33
855.529	29.18
855.704	53.76
855.879	98.81
856.053	0.51
856.228	107.01
856.403	-3.58
856.577	10.75
856.752	51.71
856.926	23.04
857.101	45.57
857.276	37.38
857.45	37.38
857.625	31.23
857.799	82.43
857.974	74.24
858.148	-5.63
858.323	-11.78
858.497	94.72
858.672	27.14
858.846	-13.82
859.02	25.09
859.195	-15.87
859.369	82.43
859.543	84.48
859.718	10.75
859.892	59.9
860.066	119.29
860.241	31.23
860.415	86.53
860.589	20.99
860.763	-11.78
860.938	64
861.112	2.56
861.286	-1.54
861.46	20.99
861.634	12.8
861.808	59.9
861.982	14.85
862.157	-40.45
862.331	45.57
862.505	-15.87
862.679	16.9
862.853	18.94
863.027	57.86
863.201	158.21
863.375	-1.54
863.549	59.9
863.722	12.8
863.896	33.28
864.07	-19.97
864.244	59.9
864.418	59.9
864.592	76.29
864.766	49.66
864.939	66.05
865.113	14.85
865.287	119.29
865.461	-7.68
865.634	14.85
865.808	18.94
865.982	27.14
866.156	-36.35
866.329	35.33
866.503	31.23
866.676	2.56
866.85	27.14
867.024	37.38
867.197	33.28
867.371	70.14
867.544	47.62
867.718	41.47
867.891	59.9
868.065	18.94
868.238	14.85
868.412	-5.63
868.585	57.86
868.759	43.52
868.932	27.14
869.105	51.71
869.279	-42.5
869.452	53.76
869.625	57.86
869.799	-24.06
869.972	27.14
870.145	-13.82
870.319	37.38
870.492	72.19
870.665	74.24
870.838	31.23
871.011	8.7
871.185	47.62
871.358	-24.06
871.531	-30.21
871.704	-69.12
871.877	37.38
872.05	43.52
872.223	-1.54
872.396	45.57
872.569	49.66
872.742	96.77
872.915	49.66
873.088	-13.82
873.261	70.14
873.434	20.99
873.607	47.62
873.78	61.95
873.953	4.61
874.126	37.38
874.299	23.04
874.471	51.71
874.644	-11.78
874.817	27.14
874.99	98.81
875.163	-42.5
875.335	102.91
875.508	-24.06
875.681	33.28
875.853	33.28
876.026	64
876.199	57.86
876.371	-3.58
876.544	-34.3
876.717	-13.82
876.889	49.66
877.062	-15.87
877.234	-48.64
877.407	53.76
877.579	27.14
877.752	98.81
877.924	-3.58
878.097	41.47
878.269	98.81
878.442	-22.02
878.614	98.81
878.786	2.56
878.959	-13.82
879.131	29.18
879.303	-22.02
879.476	16.9
879.648	57.86
879.82	20.99
879.993	-15.87
880.165	-1.54
880.337	41.47
880.509	33.28
880.681	-17.92
880.854	-1.54
881.026	18.94
881.198	78.33
881.37	59.9
881.542	12.8
881.714	49.66
881.886	-7.68
882.058	51.71
882.23	8.7
882.402	23.04
882.574	49.66
882.746	-58.88
882.918	14.85
883.09	45.57
883.262	41.47
883.434	29.18
883.606	29.18
883.778	70.14
883.95	70.14
884.122	4.61
884.293	41.47
884.465	6.66
884.637	80.38
884.809	33.28
884.98	27.14
885.152	-56.83
885.324	47.62
885.496	8.7
885.667	90.62
885.839	23.04
886.011	43.52
886.182	14.85
886.354	76.29
886.525	8.7
886.697	41.47
886.869	37.38
887.04	-15.87
887.212	70.14
887.383	86.53
887.555	-9.73
887.726	57.86
887.897	18.94
888.069	-5.63
888.24	-36.35
888.412	14.85
888.583	10.75
888.754	4.61
888.926	80.38
889.097	55.81
889.268	14.85
889.44	59.9
889.611	4.61
889.782	37.38
889.953	-15.87
890.125	53.76
890.296	18.94
890.467	47.62
890.638	53.76
890.809	45.57
890.98	16.9
891.151	-34.3
891.323	31.23
891.494	88.57
891.665	0.51
891.836	-22.02
892.007	27.14
892.178	18.94
892.349	10.75
892.52	66.05
892.691	20.99
892.862	27.14
893.032	31.23
893.203	33.28
893.374	-46.59
893.545	0.51
893.716	2.56
893.887	23.04
894.057	-17.92
894.228	49.66
894.399	-11.78
894.57	49.66
894.74	29.18
894.911	59.9
895.082	-81.41
895.253	0.51
895.423	-7.68
895.594	43.52
895.764	-22.02
895.935	6.66
896.106	102.91
896.276	2.56
896.447	45.57
896.617	35.33
896.788	35.33
896.958	14.85
897.129	-17.92
897.299	33.28
897.47	-26.11
897.64	55.81
897.81	14.85
897.981	8.7
898.151	70.14
898.322	14.85
898.492	8.7
898.662	-36.35
898.832	0.51
899.003	-52.74
899.173	53.76
899.343	-22.02
899.513	-50.69
