Data from USB4F104151__67__11-06-08-785.txt Node

Date: Wed Mar 12 11:06:08 EDT 2025
User: louis
Spectrometer: USB4F10415
Trigger mode: 4
Integration Time (sec): 2.000000E-2
Scans to average: 1
Electric dark correction enabled: true
Nonlinearity correction enabled: false
Boxcar width: 0
XAxis mode: Wavelengths
Number of Pixels in Spectrum: 3648
>>>>>Begin Spectral Data<<<<<
178.204	-82.6
178.424	-82.6
178.644	-82.6
178.864	-68.27
179.084	-72.36
179.304	-31.4
179.524	-72.36
179.744	30.04
179.964	34.13
180.184	5.46
180.404	7.51
180.624	-19.11
180.844	44.37
181.064	-4.78
181.283	30.04
181.503	-43.69
181.723	19.8
181.943	34.13
182.163	17.75
182.383	66.9
182.602	75.09
182.822	89.43
183.042	75.09
183.262	-15.02
183.482	23.89
183.701	38.23
183.921	48.47
184.141	-2.73
184.361	58.71
184.58	9.56
184.8	-37.55
185.02	-37.55
185.239	15.7
185.459	-17.07
185.679	79.19
185.898	5.46
186.118	13.65
186.338	15.7
186.557	1.37
186.777	-35.5
186.997	-107.18
187.216	105.81
187.436	83.28
187.655	-53.93
187.875	30.04
188.095	21.84
188.314	27.99
188.534	21.84
188.753	64.85
188.973	-0.68
189.192	30.04
189.412	-23.21
189.631	-35.5
189.851	-15.02
190.07	83.28
190.29	1.37
190.509	79.19
190.729	13.65
190.948	73.04
191.168	73.04
191.387	71
191.607	-15.02
191.826	-58.03
192.045	-25.26
192.265	40.28
192.484	75.09
192.704	87.38
192.923	5.46
193.142	87.38
193.362	27.99
193.581	9.56
193.8	11.61
194.02	93.52
194.239	32.08
194.458	-19.11
194.678	7.51
194.897	-2.73
195.116	60.76
195.335	-33.45
195.555	58.71
195.774	21.84
195.993	46.42
196.212	42.32
196.432	5.46
196.651	-25.26
196.87	-10.92
197.089	42.32
197.308	44.37
197.528	-8.87
197.747	-90.79
197.966	27.99
198.185	30.04
198.404	44.37
198.623	-68.27
198.842	46.42
199.062	111.96
199.281	128.34
199.5	13.65
199.719	-19.11
199.938	25.94
200.157	62.8
200.376	30.04
200.595	30.04
200.814	-58.03
201.033	-49.83
201.252	93.52
201.471	60.76
201.69	58.71
201.909	15.7
202.128	118.1
202.347	-39.59
202.566	25.94
202.785	-23.21
203.004	-2.73
203.223	40.28
203.442	34.13
203.661	36.18
203.879	3.41
204.098	60.76
204.317	-39.59
204.536	38.23
204.755	-10.92
204.974	56.66
205.193	9.56
205.411	62.8
205.63	56.66
205.849	-35.5
206.068	25.94
206.287	19.8
206.505	60.76
206.724	5.46
206.943	-51.88
207.162	9.56
207.381	23.89
207.599	73.04
207.818	87.38
208.037	-15.02
208.255	-0.68
208.474	46.42
208.693	11.61
208.911	36.18
209.13	50.52
209.349	-47.79
209.567	50.52
209.786	66.9
210.005	11.61
210.223	-31.4
210.442	50.52
210.661	-33.45
210.879	38.23
211.098	5.46
211.316	30.04
211.535	34.13
211.753	-4.78
211.972	46.42
212.191	-0.68
212.409	5.46
212.628	-6.83
212.846	-33.45
213.065	75.09
213.283	56.66
213.502	-15.02
213.72	-35.5
213.938	73.04
214.157	7.51
214.375	66.9
214.594	25.94
214.812	-23.21
215.031	-6.83
215.249	118.1
215.467	15.7
215.686	9.56
215.904	66.9
216.122	-6.83
216.341	34.13
216.559	38.23
216.778	17.75
216.996	30.04
217.214	13.65
217.432	-8.87
217.651	-27.31
217.869	-4.78
218.087	7.51
218.306	21.84
218.524	19.8
218.742	54.61
218.96	75.09
219.179	-17.07
219.397	64.85
219.615	52.56
219.833	105.81
220.051	58.71
220.27	30.04
220.488	-10.92
220.706	25.94
220.924	71
221.142	46.42
221.36	-21.16
221.578	-43.69
221.796	21.84
222.015	25.94
222.233	71
222.451	52.56
222.669	15.7
222.887	150.87
223.105	44.37
223.323	21.84
223.541	17.75
223.759	7.51
223.977	36.18
224.195	30.04
224.413	5.46
224.631	1.37
224.849	66.9
225.067	36.18
225.285	-19.11
225.503	40.28
225.721	-31.4
225.939	1.37
226.157	46.42
226.375	60.76
226.592	60.76
226.81	-12.97
227.028	38.23
227.246	91.48
227.464	-19.11
227.682	30.04
227.9	46.42
228.117	46.42
228.335	15.7
228.553	42.32
228.771	-17.07
228.989	75.09
229.206	44.37
229.424	25.94
229.642	50.52
229.86	-0.68
230.077	-10.92
230.295	-0.68
230.513	62.8
230.731	-27.31
230.948	126.29
231.166	30.04
231.384	30.04
231.601	36.18
231.819	71
232.037	30.04
232.254	9.56
232.472	50.52
232.689	46.42
232.907	52.56
233.125	52.56
233.342	38.23
233.56	-4.78
233.777	-12.97
233.995	44.37
234.213	1.37
234.43	34.13
234.648	68.95
234.865	3.41
235.083	-27.31
235.3	30.04
235.518	-0.68
235.735	68.95
235.953	68.95
236.17	62.8
236.388	25.94
236.605	42.32
236.822	116.05
237.04	1.37
237.257	-23.21
237.475	15.7
237.692	-0.68
237.909	85.33
238.127	-31.4
238.344	73.04
238.562	91.48
238.779	40.28
238.996	-4.78
239.214	40.28
239.431	17.75
239.648	5.46
239.865	68.95
240.083	42.32
240.3	-23.21
240.517	71
240.735	21.84
240.952	23.89
241.169	-8.87
241.386	62.8
241.603	11.61
241.821	13.65
242.038	71
242.255	64.85
242.472	-4.78
242.689	99.67
242.907	34.13
243.124	23.89
243.341	7.51
243.558	34.13
243.775	-0.68
243.992	27.99
244.209	79.19
244.426	-15.02
244.643	71
244.86	1.37
245.078	62.8
245.295	25.94
245.512	44.37
245.729	-35.5
245.946	66.9
246.163	-43.69
246.38	44.37
246.597	7.51
246.814	-0.68
247.031	23.89
247.248	42.32
247.464	93.52
247.681	89.43
247.898	27.99
248.115	34.13
248.332	-4.78
248.549	50.52
248.766	36.18
248.983	73.04
249.2	-12.97
249.417	19.8
249.633	52.56
249.85	-15.02
250.067	9.56
250.284	50.52
250.501	11.61
250.717	36.18
250.934	42.32
251.151	23.89
251.368	9.56
251.585	79.19
251.801	25.94
252.018	-6.83
252.235	75.09
252.451	-0.68
252.668	68.95
252.885	42.32
253.102	5.46
253.318	-0.68
253.535	15.7
253.752	73.04
253.968	50.52
254.185	79.19
254.401	36.18
254.618	38.23
254.835	58.71
255.051	48.47
255.268	11.61
255.484	27.99
255.701	32.08
255.917	-31.4
256.134	-19.11
256.351	58.71
256.567	-29.35
256.784	36.18
257	3.41
257.217	7.51
257.433	101.72
257.65	60.76
257.866	34.13
258.082	-6.83
258.299	60.76
258.515	7.51
258.732	1.37
258.948	-15.02
259.165	5.46
259.381	42.32
259.597	54.61
259.814	34.13
260.03	79.19
260.246	60.76
260.463	34.13
260.679	30.04
260.895	54.61
261.112	40.28
261.328	9.56
261.544	-23.21
261.761	36.18
261.977	46.42
262.193	30.04
262.409	9.56
262.626	73.04
262.842	13.65
263.058	66.9
263.274	114
263.49	36.18
263.707	77.14
263.923	-23.21
264.139	87.38
264.355	25.94
264.571	111.96
264.787	118.1
265.004	64.85
265.22	-6.83
265.436	-2.73
265.652	130.39
265.868	15.7
266.084	7.51
266.3	25.94
266.516	5.46
266.732	95.57
266.948	52.56
267.164	-47.79
267.38	62.8
267.596	-39.59
267.812	130.39
268.028	71
268.244	38.23
268.46	9.56
268.676	19.8
268.892	25.94
269.108	1.37
269.324	60.76
269.54	75.09
269.756	81.24
269.972	-27.31
270.188	56.66
270.403	46.42
270.619	42.32
270.835	-41.64
271.051	25.94
271.267	1.37
271.483	46.42
271.698	3.41
271.914	54.61
272.13	73.04
272.346	19.8
272.562	52.56
272.777	-4.78
272.993	-35.5
273.209	66.9
273.425	71
273.64	38.23
273.856	9.56
274.072	50.52
274.287	54.61
274.503	27.99
274.719	81.24
274.934	34.13
275.15	3.41
275.366	50.52
275.581	-6.83
275.797	58.71
276.012	-35.5
276.228	27.99
276.444	79.19
276.659	-23.21
276.875	34.13
277.09	75.09
277.306	66.9
277.521	1.37
277.737	36.18
277.952	58.71
278.168	5.46
278.383	3.41
278.599	27.99
278.814	83.28
279.03	48.47
279.245	40.28
279.461	34.13
279.676	114
279.892	68.95
280.107	46.42
280.322	7.51
280.538	71
280.753	66.9
280.969	-41.64
281.184	11.61
281.399	101.72
281.615	50.52
281.83	48.47
282.045	44.37
282.26	17.75
282.476	46.42
282.691	48.47
282.906	124.24
283.122	34.13
283.337	38.23
283.552	64.85
283.767	5.46
283.983	79.19
284.198	79.19
284.413	77.14
284.628	-19.11
284.843	111.96
285.058	91.48
285.274	62.8
285.489	52.56
285.704	42.32
285.919	-8.87
286.134	17.75
286.349	17.75
286.564	19.8
286.779	52.56
286.995	101.72
287.21	-33.45
287.425	40.28
287.64	52.56
287.855	34.13
288.07	54.61
288.285	62.8
288.5	50.52
288.715	79.19
288.93	42.32
289.145	60.76
289.36	97.62
289.575	36.18
289.79	75.09
290.004	50.52
290.219	60.76
290.434	-0.68
290.649	66.9
290.864	21.84
291.079	3.41
291.294	21.84
291.509	60.76
291.724	99.67
291.938	-0.68
292.153	58.71
292.368	42.32
292.583	13.65
292.798	11.61
293.012	-33.45
293.227	44.37
293.442	-21.16
293.657	66.9
293.871	52.56
294.086	11.61
294.301	66.9
294.516	75.09
294.73	-92.84
294.945	-39.59
295.16	109.91
295.374	42.32
295.589	58.71
295.804	15.7
296.018	73.04
296.233	77.14
296.447	40.28
296.662	111.96
296.877	19.8
297.091	25.94
297.306	48.47
297.52	21.84
297.735	25.94
297.949	60.76
298.164	60.76
298.378	118.1
298.593	118.1
298.807	46.42
299.022	-17.07
299.236	64.85
299.451	50.52
299.665	34.13
299.88	34.13
300.094	109.91
300.309	-37.55
300.523	25.94
300.737	1.37
300.952	21.84
301.166	46.42
301.381	13.65
301.595	73.04
301.809	-43.69
302.024	34.13
302.238	23.89
302.452	11.61
302.667	81.24
302.881	42.32
303.095	40.28
303.309	66.9
303.524	50.52
303.738	38.23
303.952	54.61
304.166	81.24
304.381	-29.35
304.595	99.67
304.809	13.65
305.023	75.09
305.237	46.42
305.452	23.89
305.666	40.28
305.88	81.24
306.094	-12.97
306.308	50.52
306.522	93.52
306.736	54.61
306.95	83.28
307.164	52.56
307.379	48.47
307.593	68.95
307.807	85.33
308.021	68.95
308.235	5.46
308.449	23.89
308.663	34.13
308.877	73.04
309.091	93.52
309.305	-6.83
309.519	-6.83
309.733	25.94
309.947	44.37
310.161	27.99
310.374	52.56
310.588	109.91
310.802	38.23
311.016	101.72
311.23	13.65
311.444	-15.02
311.658	17.75
311.872	25.94
312.085	36.18
312.299	146.77
312.513	40.28
312.727	89.43
312.941	-17.07
313.154	46.42
313.368	1.37
313.582	48.47
313.796	44.37
314.009	66.9
314.223	1.37
314.437	50.52
314.651	32.08
314.864	60.76
315.078	40.28
315.292	44.37
315.505	60.76
315.719	83.28
315.933	38.23
316.146	40.28
316.36	75.09
316.573	38.23
316.787	21.84
317.001	40.28
317.214	124.24
317.428	81.24
317.641	68.95
317.855	30.04
318.068	56.66
318.282	118.1
318.495	107.86
318.709	93.52
318.922	3.41
319.136	105.81
319.349	25.94
319.563	17.75
319.776	60.76
319.99	-15.02
320.203	75.09
320.417	30.04
320.63	21.84
320.843	34.13
321.057	60.76
321.27	9.56
321.483	54.61
321.697	30.04
321.91	95.57
322.124	17.75
322.337	83.28
322.55	79.19
322.763	1.37
322.977	99.67
323.19	9.56
323.403	62.8
323.617	-2.73
323.83	50.52
324.043	83.28
324.256	30.04
324.469	42.32
324.683	99.67
324.896	62.8
325.109	17.75
325.322	-37.55
325.535	89.43
325.748	73.04
325.962	17.75
326.175	50.52
326.388	107.86
326.601	62.8
326.814	13.65
327.027	62.8
327.24	89.43
327.453	25.94
327.666	30.04
327.879	38.23
328.092	81.24
328.305	13.65
328.518	97.62
328.731	107.86
328.944	7.51
329.157	23.89
329.37	83.28
329.583	19.8
329.796	23.89
330.009	11.61
330.222	95.57
330.435	77.14
330.648	36.18
330.861	103.76
331.073	23.89
331.286	27.99
331.499	85.33
331.712	75.09
331.925	9.56
332.138	79.19
332.35	134.48
332.563	34.13
332.776	111.96
332.989	71
333.202	34.13
333.414	56.66
333.627	3.41
333.84	99.67
334.053	120.15
334.265	97.62
334.478	11.61
334.691	48.47
334.903	71
335.116	54.61
335.329	52.56
335.541	52.56
335.754	68.95
335.966	27.99
336.179	30.04
336.392	56.66
336.604	17.75
336.817	50.52
337.029	103.76
337.242	34.13
337.454	23.89
337.667	83.28
337.88	146.77
338.092	66.9
338.305	154.96
338.517	99.67
338.729	44.37
338.942	9.56
339.154	79.19
339.367	27.99
339.579	46.42
339.792	11.61
340.004	36.18
340.217	5.46
340.429	-15.02
340.641	-17.07
340.854	60.76
341.066	-2.73
341.278	134.48
341.491	36.18
341.703	46.42
341.915	44.37
342.128	38.23
342.34	34.13
342.552	-19.11
342.764	23.89
342.977	-12.97
343.189	50.52
343.401	60.76
343.613	1.37
343.826	13.65
344.038	77.14
344.25	3.41
344.462	87.38
344.674	109.91
344.886	99.67
345.099	17.75
345.311	-6.83
345.523	38.23
345.735	38.23
345.947	9.56
346.159	66.9
346.371	46.42
346.583	-2.73
346.795	99.67
347.007	56.66
347.219	109.91
347.431	71
347.643	89.43
347.855	38.23
348.067	68.95
348.279	-35.5
348.491	13.65
348.703	27.99
348.915	5.46
349.127	-25.26
349.339	34.13
349.551	46.42
349.763	38.23
349.975	30.04
350.187	46.42
350.399	34.13
350.61	46.42
350.822	-6.83
351.034	50.52
351.246	75.09
351.458	46.42
351.669	46.42
351.881	109.91
352.093	58.71
352.305	42.32
352.517	73.04
352.728	81.24
352.94	34.13
353.152	54.61
353.363	38.23
353.575	68.95
353.787	38.23
353.999	17.75
354.21	97.62
354.422	71
354.633	25.94
354.845	99.67
355.057	23.89
355.268	66.9
355.48	93.52
355.692	21.84
355.903	9.56
356.115	77.14
356.326	-0.68
356.538	107.86
356.749	9.56
356.961	107.86
357.172	32.08
357.384	11.61
357.595	11.61
357.807	89.43
358.018	46.42
358.23	40.28
358.441	83.28
358.653	87.38
358.864	79.19
359.075	52.56
359.287	118.1
359.498	91.48
359.709	66.9
359.921	107.86
360.132	60.76
360.344	85.33
360.555	25.94
360.766	54.61
360.977	161.11
361.189	105.81
361.4	50.52
361.611	40.28
361.823	40.28
362.034	60.76
362.245	-31.4
362.456	36.18
362.667	79.19
362.879	95.57
363.09	64.85
363.301	75.09
363.512	17.75
363.723	40.28
363.935	54.61
364.146	73.04
364.357	11.61
364.568	9.56
364.779	46.42
364.99	66.9
365.201	32.08
365.412	52.56
365.623	30.04
365.834	62.8
366.045	19.8
366.256	83.28
366.467	107.86
366.678	107.86
366.889	32.08
367.1	19.8
367.311	71
367.522	87.38
367.733	85.33
367.944	126.29
368.155	44.37
368.366	50.52
368.577	126.29
368.788	52.56
368.999	54.61
369.209	56.66
369.42	111.96
369.631	99.67
369.842	101.72
370.053	77.14
370.264	48.47
370.474	75.09
370.685	87.38
370.896	138.58
371.107	44.37
371.317	169.3
371.528	50.52
371.739	109.91
371.95	97.62
372.16	32.08
372.371	126.29
372.582	21.84
372.792	40.28
373.003	89.43
373.214	62.8
373.424	71
373.635	54.61
373.846	140.63
374.056	107.86
374.267	85.33
374.477	62.8
374.688	-10.92
374.898	7.51
375.109	-0.68
375.319	42.32
375.53	105.81
375.74	60.76
375.951	21.84
376.161	46.42
376.372	103.76
376.582	68.95
376.793	17.75
377.003	30.04
377.214	89.43
377.424	50.52
377.635	32.08
377.845	30.04
378.055	52.56
378.266	46.42
378.476	58.71
378.686	128.34
378.897	62.8
379.107	120.15
379.317	73.04
379.528	83.28
379.738	83.28
379.948	83.28
380.158	97.62
380.369	52.56
380.579	83.28
380.789	103.76
380.999	73.04
381.21	66.9
381.42	56.66
381.63	46.42
381.84	52.56
382.05	85.33
382.261	85.33
382.471	77.14
382.681	136.53
382.891	138.58
383.101	60.76
383.311	34.13
383.521	95.57
383.731	54.61
383.941	99.67
384.151	71
384.361	68.95
384.571	128.34
384.781	77.14
384.991	128.34
385.201	138.58
385.411	52.56
385.621	32.08
385.831	91.48
386.041	79.19
386.251	30.04
386.461	132.44
386.671	30.04
386.881	-12.97
387.091	159.06
387.301	81.24
387.511	25.94
387.72	134.48
387.93	-29.35
388.14	21.84
388.35	107.86
388.56	91.48
388.769	95.57
388.979	36.18
389.189	60.76
389.399	107.86
389.609	132.44
389.818	140.63
390.028	75.09
390.238	85.33
390.447	56.66
390.657	103.76
390.867	44.37
391.076	81.24
391.286	101.72
391.496	75.09
391.705	58.71
391.915	177.49
392.125	97.62
392.334	122.2
392.544	68.95
392.753	62.8
392.963	36.18
393.172	148.82
393.382	120.15
393.591	107.86
393.801	85.33
394.01	71
394.22	116.05
394.429	126.29
394.639	95.57
394.848	46.42
395.058	75.09
395.267	177.49
395.477	64.85
395.686	75.09
395.895	73.04
396.105	189.78
396.314	87.38
396.524	83.28
396.733	111.96
396.942	75.09
397.152	56.66
397.361	146.77
397.57	126.29
397.78	30.04
397.989	152.91
398.198	183.63
398.407	200.02
398.617	159.06
398.826	126.29
399.035	171.35
399.244	87.38
399.453	17.75
399.663	83.28
399.872	165.2
400.081	142.68
400.29	116.05
400.499	181.59
400.708	204.11
400.917	58.71
401.127	224.59
401.336	130.39
401.545	159.06
401.754	171.35
401.963	167.25
402.172	126.29
402.381	144.72
402.59	105.81
402.799	195.92
403.008	185.68
403.217	118.1
403.426	181.59
403.635	136.53
403.844	175.44
404.053	152.91
404.262	146.77
404.471	212.31
404.68	152.91
404.888	165.2
405.097	161.11
405.306	58.71
405.515	206.16
405.724	171.35
405.933	202.07
406.142	230.74
406.35	232.79
406.559	224.59
406.768	224.59
406.977	251.22
407.185	214.35
407.394	195.92
407.603	218.45
407.812	210.26
408.02	267.6
408.229	230.74
408.438	212.31
408.646	251.22
408.855	279.89
409.064	353.62
409.272	259.41
409.481	273.75
409.69	359.76
409.898	355.66
410.107	433.49
410.315	392.53
410.524	277.84
410.733	355.66
410.941	445.77
411.15	408.91
411.358	333.14
411.567	400.72
411.775	441.68
411.984	435.53
412.192	445.77
412.401	517.45
412.609	447.82
412.818	572.75
413.026	521.55
413.234	593.23
413.443	558.41
413.651	636.24
413.86	699.72
414.068	705.87
414.276	673.1
414.485	720.2
414.693	752.97
414.901	822.6
415.11	759.11
415.318	875.85
415.526	914.76
415.734	845.13
415.943	871.75
416.151	845.13
416.359	998.73
416.567	978.25
416.776	1013.06
416.984	1054.02
417.192	1103.17
417.4	1193.28
417.608	1033.54
417.817	1152.32
418.025	1273.15
418.233	1297.73
418.441	1383.74
418.649	1373.5
418.857	1508.67
419.065	1447.23
419.273	1588.54
419.481	1672.51
419.689	1717.56
419.897	1719.61
420.105	1652.03
420.313	1836.35
420.521	1836.35
420.729	1885.5
420.937	1938.74
421.145	2045.24
421.353	2100.53
421.561	2227.51
421.769	2188.6
421.977	2288.95
422.185	2346.29
422.393	2567.47
422.601	2723.12
422.809	2725.16
423.017	2628.91
423.224	2747.69
423.432	2811.18
423.64	2964.78
423.848	3099.94
424.056	3140.9
424.263	3349.79
424.471	3161.38
424.679	3306.79
424.887	3568.93
425.094	3786.01
425.302	3634.46
425.51	3896.6
425.718	3841.31
425.925	3863.83
426.133	4226.32
426.341	4367.63
426.548	4654.35
426.756	4576.53
426.964	4535.57
427.171	4969.74
427.379	5076.23
427.586	5215.49
427.794	5201.16
428.001	5543.17
428.209	5786.88
428.417	5586.18
428.624	6018.3
428.832	6100.22
429.039	6087.93
429.247	6128.89
429.454	6526.19
429.662	7021.8
429.869	6622.45
430.076	7032.04
430.284	6679.79
430.491	7136.49
430.699	7632.1
430.906	7656.67
431.114	7519.46
431.321	7931.1
431.528	8246.49
431.736	8576.21
431.943	8946.89
432.15	8717.52
432.358	9110.73
432.565	9542.85
432.772	9364.68
432.979	9825.47
433.187	10073.28
433.394	10077.37
433.601	10708.15
433.808	10773.68
434.016	10636.47
434.223	11170.99
434.43	11850.91
434.637	11576.48
434.844	12231.83
435.052	12461.21
435.259	12395.67
435.466	12455.06
435.673	12514.45
435.88	13132.94
436.087	14124.16
436.294	13927.55
436.501	13532.29
436.708	14214.27
436.915	14234.75
437.122	14752.88
437.329	15219.82
437.537	15441
437.743	15707.24
437.95	15766.63
438.157	16559.19
438.364	17103.95
438.571	17091.66
438.778	17417.29
438.985	18742.33
439.192	17994.82
439.399	18474.04
439.606	18170.94
439.813	19231.79
440.02	20458.53
440.227	19899.43
440.433	19600.43
440.64	20528.16
440.847	20374.56
441.054	20841.5
441.261	22084.61
441.467	21994.5
441.674	22402.05
441.881	23256.05
442.088	23466.99
442.294	22907.9
442.501	23608.3
442.708	24173.54
442.914	25320.4
443.121	26102.73
443.328	25156.57
443.534	27370.42
443.741	26360.77
443.948	25879.5
444.154	27884.46
444.361	27511.73
444.568	28183.46
444.774	28099.5
444.981	28402.6
445.187	29143.96
445.394	30362.5
445.6	29918.09
445.807	32885.6
446.013	31732.59
446.22	32029.55
446.426	32928.61
446.633	33370.97
446.839	34421.58
447.046	32772.96
447.252	34939.71
447.459	35429.18
447.665	34886.46
447.871	36123.44
448.078	37624.6
448.284	36258.6
448.491	37100.32
448.697	38402.83
448.903	39045.89
449.11	38976.26
449.316	38486.79
449.522	39279.36
449.728	40422.12
449.935	40878.82
450.141	40196.85
450.347	41620.19
450.553	39897.84
450.76	40893.16
450.966	42052.31
451.172	41462.49
451.378	42408.65
451.584	41728.73
451.791	42629.83
451.997	42433.23
452.203	42883.78
452.409	43322.05
452.615	42644.17
452.821	41319.13
453.027	41292.51
453.233	42924.74
453.44	41272.03
453.646	41454.3
453.852	41548.51
454.058	42629.83
454.264	41063.14
454.47	41913.05
454.676	40739.56
454.882	42072.79
455.088	38734.6
455.294	39152.38
455.5	39101.18
455.705	39979.76
455.911	38304.52
456.117	37659.41
456.323	37274.4
456.529	35117.89
456.735	36617
456.941	35662.65
457.147	35337.02
457.352	34122.57
457.558	33635.16
457.764	33973.07
457.97	33000.29
458.176	32373.61
458.381	32373.61
458.587	30655.36
458.793	30888.83
458.999	29309.85
459.204	31247.22
459.41	30571.39
459.616	28285.86
459.821	28494.75
460.027	28453.8
460.233	27890.6
460.438	26289.09
460.644	26729.41
460.85	25709.52
461.055	25088.98
461.261	24703.96
461.466	23344.11
461.672	22690.81
461.878	24177.64
462.083	22422.53
462.289	22084.61
462.494	22203.39
462.7	21107.73
462.905	20423.71
463.111	21146.64
463.316	21158.93
463.522	20771.86
463.727	20775.96
463.932	20786.2
464.138	20755.48
464.343	20773.91
464.549	20169.76
464.754	20888.6
464.959	20462.62
465.165	20331.55
465.37	19385.39
465.575	19117.11
465.781	19817.51
465.986	20112.42
466.191	19268.66
466.397	19024.95
466.602	18197.57
466.807	18828.34
467.012	18662.46
467.218	18398.27
467.423	18275.39
467.628	18562.11
467.833	19278.9
468.038	18592.83
468.244	17935.43
468.449	18969.65
468.654	18138.18
468.859	18183.23
469.064	17693.77
469.269	17413.2
469.474	17298.51
469.679	17642.57
469.885	17376.33
470.09	17382.48
470.295	17495.11
470.5	16989.27
470.705	16757.85
470.91	16913.49
471.115	16387.16
471.32	16778.33
471.525	16391.26
471.73	16088.16
471.935	16252
472.139	15441
472.344	16127.07
472.549	15539.3
472.754	15414.38
472.959	15060.08
473.164	14922.87
473.369	14730.36
473.574	15168.62
473.778	15074.42
473.983	14814.32
474.188	14562.42
474.393	14152.83
474.598	14361.72
474.802	14007.42
475.007	14056.57
475.212	14220.41
475.417	13515.91
475.621	13491.34
475.826	13407.37
476.031	13286.54
476.235	12989.58
476.44	13302.92
476.645	12913.81
476.849	13057.17
477.054	12823.7
477.259	12835.99
477.463	12651.67
477.668	12496.02
477.872	12586.13
478.077	12022.94
478.282	11957.41
478.486	11814.05
478.691	11709.6
478.895	11918.5
479.1	11885.73
479.304	11793.57
479.509	11281.58
479.713	11635.88
479.918	11408.55
480.122	11353.26
480.326	11478.18
480.531	11527.33
480.735	11111.6
480.94	11050.16
481.144	11631.78
481.348	11062.44
481.553	11222.19
481.757	11017.39
481.961	11173.03
482.166	11478.18
482.37	11156.65
482.574	11007.15
482.778	10785.97
482.983	11359.4
483.187	10978.48
483.391	11170.99
483.595	11170.99
483.8	11037.87
484.004	10874.03
484.208	11148.46
484.412	11084.97
484.616	11076.78
484.821	11076.78
485.025	10691.76
485.229	11322.54
485.433	10962.09
485.637	10814.64
485.841	10943.66
486.045	10980.53
486.249	11134.12
486.453	10929.33
486.657	11209.9
486.861	11052.2
487.065	10802.35
487.269	10970.29
487.473	10908.85
487.677	11054.25
487.881	11097.26
488.085	11152.56
488.289	11109.55
488.493	11207.85
488.697	10953.9
488.901	10904.75
489.105	11127.98
489.309	11334.82
489.512	11300.01
489.716	11379.88
489.92	11160.75
490.124	11285.67
490.328	11453.61
490.531	11345.06
490.735	11265.19
490.939	11609.25
491.143	11461.8
491.346	11588.77
491.55	11523.24
491.754	11510.95
491.958	11824.29
492.161	11490.47
492.365	11822.24
492.569	11748.51
492.772	11809.95
492.976	11719.84
493.18	12076.19
493.383	11908.26
493.587	12309.66
493.79	12237.98
493.994	12278.94
494.197	12174.49
494.401	12262.55
494.605	12657.81
494.808	12604.57
495.012	12649.62
495.215	12821.65
495.419	12616.85
495.622	12739.73
495.825	12860.56
496.029	12874.9
496.232	13198.48
496.436	13321.35
496.639	13493.38
496.843	13325.45
497.046	13743.24
497.249	13986.94
497.453	13986.94
497.656	14029.95
497.859	14173.31
498.063	14482.55
498.266	14548.09
498.469	14736.5
498.673	14892.15
498.876	14806.13
499.079	15062.13
499.282	15223.92
499.485	15412.33
499.689	15584.36
499.892	15715.43
500.095	15709.29
500.298	16184.41
500.501	15996
500.705	16548.95
500.908	16841.81
501.111	17003.6
501.314	16966.74
501.517	17263.69
501.72	17249.36
501.923	17476.68
502.126	17679.43
502.329	18076.74
502.532	18070.59
502.735	18377.79
502.938	18594.87
503.141	18328.64
503.344	19065.91
503.547	19160.11
503.75	19487.79
503.953	19491.88
504.156	19782.7
504.359	19817.51
504.562	20014.12
504.765	20640.79
504.968	20544.54
505.17	20706.33
505.373	20864.02
505.576	21433.36
505.779	21470.22
505.982	21318.67
506.185	22191.11
506.387	22201.35
506.59	22293.51
506.793	22862.84
506.996	22574.08
507.198	23401.46
507.401	23249.91
507.604	23475.18
507.807	23935.98
508.009	24034.28
508.212	24163.3
508.415	24669.15
508.617	24628.19
508.82	25160.66
509.022	24951.77
509.225	25799.63
509.428	25725.9
509.63	26328
509.833	26344.39
510.035	26782.65
510.238	26569.66
510.44	26930.11
510.643	27335.6
510.845	27648.94
511.048	27685.81
511.25	28023.72
511.453	28363.68
511.655	29256.6
511.858	28500.9
512.06	29410.2
512.262	29402
512.465	29494.16
512.667	30245.77
512.87	30698.37
513.072	30276.49
513.274	30917.5
513.477	31562.61
513.679	31538.04
513.881	31783.79
514.084	32148.33
514.286	32222.06
514.488	32783.2
514.69	33317.72
514.893	33348.44
515.095	33340.25
515.297	33921.87
515.499	34016.08
515.701	34435.91
515.904	34589.51
516.106	35224.38
516.308	35388.22
516.51	35351.35
516.712	35765.04
516.914	36326.19
517.116	37034.78
517.318	37059.36
517.52	37169.95
517.722	37206.81
517.925	38089.49
518.127	38501.13
518.329	38370.06
518.531	38718.21
518.733	39107.33
518.935	39592.7
519.136	39752.44
519.338	40418.03
519.54	40217.33
519.742	40624.87
519.944	40698.6
520.146	41683.67
520.348	41958.1
520.55	41499.36
520.752	41974.48
520.954	42654.41
521.155	42619.59
521.357	42939.08
521.559	43418.3
521.761	43836.09
521.963	43821.75
522.164	44516.01
522.366	44300.98
522.568	45054.63
522.77	44686
522.971	45636.25
523.173	44964.52
523.375	45646.49
523.576	45605.53
523.778	46031.51
523.98	46903.95
524.181	47051.4
524.383	46920.33
524.584	47295.11
524.786	47334.02
524.988	47258.24
525.189	47721.09
525.391	48450.16
525.592	48806.51
525.794	48507.51
525.995	48720.49
526.197	48751.21
526.398	48808.56
526.6	49336.93
526.801	49461.86
527.003	50184.79
527.204	50051.67
527.406	50289.24
527.607	50166.36
527.808	50621.01
528.01	50221.65
528.211	50166.36
528.412	51657.28
528.614	51329.61
528.815	51024.46
529.016	51716.67
529.218	51276.36
529.419	51446.34
529.62	51499.59
529.822	51561.03
530.023	51710.53
530.224	51552.83
530.425	52275.77
530.626	51792.45
530.828	51857.98
531.029	52775.47
531.23	52038.2
531.431	52056.63
531.632	52216.38
531.833	52558.39
532.035	52771.38
532.236	52562.48
532.437	52886.06
532.638	52783.66
532.839	52499
533.04	53348.9
533.241	52820.53
533.442	53695.01
533.643	53389.86
533.844	52681.27
534.045	53211.69
534.246	52484.66
534.447	52992.56
534.648	52730.42
534.849	53563.94
535.05	52795.95
535.251	53408.29
535.451	53264.94
535.652	53215.79
535.853	53197.35
536.054	53535.27
536.255	53312.04
536.456	53000.75
536.657	54116.89
536.857	53129.77
537.058	53183.02
537.259	53811.74
537.46	53148.2
537.66	53455.4
537.861	53531.17
538.062	53701.15
538.263	53877.28
538.463	53246.5
538.664	52918.83
538.865	53674.53
539.065	53484.07
539.266	52701.75
539.466	53803.55
539.667	53201.45
539.868	53846.56
540.068	53652
540.269	53348.9
540.469	53455.4
540.67	53205.55
540.87	53406.25
541.071	53418.53
541.271	53692.96
541.472	53385.77
541.672	53295.66
541.873	53004.84
542.073	52492.85
542.274	53869.09
542.474	53332.52
542.675	53156.39
542.875	53824.03
543.075	53600.8
543.276	52894.25
543.476	53750.31
543.676	52959.79
543.877	53238.31
544.077	53008.94
544.277	52976.17
544.478	53025.32
544.678	53348.9
544.878	53328.42
545.078	53475.88
545.279	53148.2
545.479	53617.19
545.679	53461.54
545.879	53541.41
546.079	53393.96
546.28	53041.71
546.48	53269.03
546.68	53484.07
546.88	53301.8
547.08	53086.76
547.28	53291.56
547.48	52570.68
547.68	52967.98
547.88	53209.64
548.081	53406.25
548.281	53353
548.481	52513.33
548.681	53533.22
548.881	52996.65
549.081	53117.48
549.28	52636.21
549.48	53041.71
549.68	52699.7
549.88	53695.01
550.08	52886.06
550.28	53000.75
550.48	53033.52
550.68	52943.41
550.88	52617.78
551.08	53109.29
551.279	53180.97
551.479	52621.87
551.679	53029.42
551.879	52902.45
552.079	53058.09
552.278	52748.85
552.478	52920.88
552.678	52738.61
552.878	53226.03
553.077	52920.88
553.277	52439.61
553.477	53418.53
553.676	52746.8
553.876	52851.25
554.076	52439.61
554.275	52249.14
554.475	52322.87
554.674	53035.56
554.874	52261.43
555.074	52189.75
555.273	52300.34
555.473	52372.02
555.672	52273.72
555.872	52238.9
556.071	52052.54
556.271	52689.46
556.47	52116.03
556.67	51841.6
556.869	52163.13
557.068	52417.08
557.268	52257.34
557.467	51690.05
557.667	52017.72
557.866	52167.23
558.065	51911.23
558.265	51313.22
558.464	51538.5
558.663	52257.34
558.863	50979.4
559.062	51946.04
559.261	51012.17
559.461	51819.07
559.66	50928.2
559.859	51470.92
560.058	51122.76
560.258	51659.33
560.457	50850.38
560.656	51075.66
560.855	50805.33
561.054	50956.88
561.253	50545.23
561.453	51028.55
561.652	50838.09
561.851	50709.07
562.05	50678.35
562.249	50627.15
562.448	50768.46
562.647	50623.06
562.846	50256.47
563.045	50305.62
563.244	49742.43
563.443	50578
563.642	49805.92
563.841	49994.33
564.04	49734.24
564.239	49576.54
564.438	49470.05
564.637	49830.49
564.836	49846.88
565.035	49425
565.234	49359.46
565.432	49115.75
565.631	49171.05
565.83	49381.99
566.029	48962.15
566.228	48679.53
566.427	48913
566.625	48697.97
566.824	48042.62
567.023	48523.89
567.222	47972.99
567.42	49150.57
567.619	48388.72
567.818	48276.08
568.016	48056.95
568.215	48624.24
568.414	47991.42
568.612	48476.79
568.811	47667.84
569.01	47673.98
569.208	47463.04
569.407	47768.19
569.605	47176.33
569.804	47712.89
570.002	47139.46
570.201	47213.19
570.4	46981.77
570.598	47051.4
570.797	46733.96
570.995	46901.9
571.193	46133.91
571.392	46742.16
571.59	46275.22
571.789	46426.77
571.987	46363.28
572.186	45963.93
572.384	46209.68
572.582	46289.55
572.781	46430.86
572.979	45439.65
573.177	45976.22
573.376	45793.95
573.574	44882.6
573.772	45404.83
573.971	45425.31
574.169	45386.4
574.367	45064.87
574.565	45187.75
574.763	44915.37
574.962	45116.07
575.16	44436.14
575.358	44944.04
575.556	44436.14
575.754	44776.11
575.952	44139.19
576.151	44282.55
576.349	43891.38
576.547	43770.55
576.745	44026.55
576.943	44638.89
577.141	43895.48
577.339	43784.89
577.537	43754.17
577.735	43535.04
577.933	42875.59
578.131	43287.23
578.329	43250.37
578.527	42801.86
578.725	42932.93
578.923	43465.41
579.121	42881.73
579.319	42848.97
579.516	42760.9
579.714	42396.37
579.912	42775.24
580.11	42476.24
580.308	42513.1
580.506	42013.4
580.704	41296.61
580.901	41984.72
581.099	42369.74
581.297	42123.99
581.495	41394.91
581.692	41661.15
581.89	41237.22
582.088	41417.44
582.285	41226.98
582.483	41437.92
582.681	41349.85
582.878	41171.68
583.076	40694.5
583.274	40839.91
583.471	40366.83
583.669	40379.12
583.866	40313.58
584.064	40856.29
584.262	39969.52
584.459	40579.82
584.657	39961.33
584.854	40336.11
585.052	39883.51
585.249	40073.97
585.447	40141.55
585.644	39430.91
585.841	39334.65
586.039	39815.93
586.236	39092.99
586.434	39459.58
586.631	39320.32
586.828	38828.8
587.026	39043.84
587.223	39002.88
587.42	38800.13
587.618	38673.16
587.815	38421.26
588.012	38427.4
588.21	37944.08
588.407	38759.17
588.604	38378.25
588.801	38054.67
588.999	38329.1
589.196	37856.02
589.393	38079.25
589.59	37770
589.787	37454.62
589.984	37649.17
590.182	37645.08
590.379	37370.65
590.576	36926.24
590.773	36889.38
590.97	36922.15
591.167	37067.55
591.364	36684.58
591.561	36901.67
591.758	36748.07
591.955	36645.67
592.152	37036.83
592.349	36205.36
592.546	36612.9
592.743	36397.87
592.94	36014.9
593.137	35896.11
593.334	35951.41
593.531	35443.51
593.727	36002.61
593.924	35763
594.121	35554.1
594.318	35756.85
594.515	35234.62
594.712	35494.71
594.908	35500.86
595.105	35341.11
595.302	34849.6
595.499	35093.31
595.696	34952
595.892	34685.76
596.089	34853.7
596.286	35021.63
596.482	34325.32
596.679	34255.69
596.876	34626.37
597.072	34235.21
597.269	34165.58
597.466	33805.14
597.662	33909.58
597.859	34003.79
598.055	33786.71
598.252	33874.77
598.448	33655.64
598.645	33172.32
598.841	33262.43
599.038	33516.37
599.234	33467.22
599.431	33049.44
599.627	32871.26
599.824	33100.64
600.02	33037.15
600.217	32918.37
600.413	32883.55
600.609	32787.3
600.806	32379.75
601.002	32512.87
601.198	32293.74
601.395	32414.57
601.591	32234.35
601.787	32725.86
601.984	31511.41
602.18	32070.51
602.376	32019.31
602.572	31955.82
602.769	31294.33
602.965	31437.69
603.161	31759.22
603.357	31042.43
603.553	31302.52
603.75	31253.37
603.946	31140.73
604.142	31318.9
604.338	31028.09
604.534	31198.07
604.73	30770.05
604.926	30536.58
605.122	30520.2
605.318	30620.55
605.514	30495.62
605.71	30567.3
605.906	30227.34
606.102	30231.43
606.298	30438.28
606.494	30086.03
606.69	30012.3
606.886	30348.17
607.082	29660.05
607.278	30153.61
607.474	29658
607.67	29680.53
607.866	29383.57
608.062	29979.53
608.257	29696.91
608.453	29670.29
608.649	29553.55
608.845	29402
609.041	29516.69
609.236	29604.75
609.432	29094.81
609.628	29019.03
609.824	29084.57
610.019	29252.5
610.215	28945.31
610.411	29340.57
610.606	28599.2
610.802	28814.24
610.998	28654.5
611.193	28804
611.389	28595.1
611.584	28640.16
611.78	28367.78
611.976	28398.5
612.171	28748.7
612.367	28722.08
612.562	28275.62
612.758	28253.09
612.953	28232.61
613.149	28312.49
613.344	27694
613.539	28697.5
613.735	28310.44
613.93	28474.27
614.126	27859.88
614.321	28345.25
614.517	28175.27
614.712	27777.97
614.907	27726.77
615.103	28015.53
615.298	27780.01
615.493	28095.4
615.688	27331.51
615.884	28046.25
616.079	27536.31
616.274	27683.76
616.47	27773.87
616.665	27646.9
616.86	27534.26
617.055	27237.3
617.25	27325.36
617.445	27687.85
617.641	26911.67
617.836	27241.4
618.031	26872.76
618.226	27118.52
618.421	27184.05
618.616	27460.53
618.811	26536.9
619.006	27395
619.201	26106.82
619.396	26528.7
619.591	26332.1
619.786	26379.2
619.981	25805.77
620.176	26545.09
620.371	25807.82
620.566	25846.73
620.761	25906.12
620.956	26219.46
621.151	25791.44
621.346	25770.96
621.541	25261.01
621.735	25406.42
621.93	25109.46
622.125	25281.49
622.32	24771.55
622.515	25238.48
622.709	24607.71
622.904	24761.31
623.099	24433.63
623.294	24685.53
623.488	24261.6
623.683	24603.61
623.878	23727.08
624.072	23915.5
624.267	23938.02
624.462	23718.89
624.656	23643.12
624.851	23735.28
625.046	23481.33
625.24	23387.12
625.435	23178.23
625.629	23124.98
625.824	22952.95
626.018	22965.24
626.213	22477.82
626.407	22823.93
626.602	21994.5
626.796	22285.31
626.991	22680.57
627.185	22334.46
627.38	22174.72
627.574	21937.16
627.768	21679.11
627.963	22006.79
628.157	21482.51
628.352	21562.38
628.546	21316.62
628.74	21603.34
628.935	20993.04
629.129	21189.65
629.323	20597.79
629.517	20720.67
629.712	20677.66
629.906	20704.28
630.1	20225.06
630.294	20530.2
630.489	20163.62
630.683	20304.93
630.877	19878.95
631.071	20044.84
631.265	20104.23
631.459	19717.16
631.653	19694.63
631.848	19926.05
632.042	19528.75
632.236	19797.03
632.43	19352.62
632.624	19647.53
632.818	19108.91
633.012	19061.81
633.206	18764.85
633.4	19004.47
633.594	18926.64
633.788	18744.38
633.982	18762.81
634.176	18697.27
634.369	18527.29
634.563	18381.88
634.757	18281.53
634.951	18463.8
635.145	18017.35
635.339	18414.65
635.533	18123.84
635.726	17685.58
635.92	18183.23
636.114	17978.43
636.308	17740.87
636.501	17708.1
636.695	17486.92
636.889	17253.45
637.083	17288.27
637.276	17214.54
637.47	17040.47
637.664	17036.37
637.857	16929.87
638.051	17153.1
638.244	16602.2
638.438	16852.05
638.632	16641.11
638.825	16436.31
639.019	16147.55
639.212	16321.63
639.406	16211.04
639.599	15889.51
639.793	16139.36
639.986	15768.68
640.18	16008.29
640.373	15637.61
640.567	15647.85
640.76	15778.92
640.954	15711.33
641.147	15834.21
641.34	15271.02
641.534	15502.44
641.727	15283.31
641.92	15258.73
642.114	15072.37
642.307	15105.13
642.5	14900.34
642.694	14785.65
642.887	14738.55
643.08	14992.5
643.273	14773.36
643.467	14460.02
643.66	14570.61
643.853	14619.77
644.046	14210.17
644.239	14627.96
644.432	14091.39
644.626	14240.89
644.819	14269.56
645.012	14058.62
645.205	13876.35
645.398	14011.52
645.591	13716.61
645.784	13679.75
645.977	13667.46
646.17	13606.02
646.363	13532.29
646.556	13390.99
646.749	13491.34
646.942	13700.23
647.135	13214.86
647.328	13415.56
647.521	13184.14
647.714	13188.24
647.907	12788.88
648.099	13034.64
648.292	13018.25
648.485	12735.64
648.678	12842.13
648.871	12530.84
649.064	12672.15
649.256	12547.22
649.449	12547.22
649.642	12598.42
649.835	12266.65
650.027	12416.15
650.22	12106.91
650.413	12168.35
650.605	12149.92
650.798	11990.17
650.991	11844.77
651.183	12078.24
651.376	11637.92
651.568	11893.92
651.761	11768.99
651.954	11764.9
652.146	11855.01
652.339	11545.77
652.531	11556
652.724	11373.74
652.916	11386.02
653.109	11287.72
653.301	11445.41
653.494	11379.88
653.686	11109.55
653.879	11320.49
654.071	11191.47
654.263	10986.67
654.456	11007.15
654.648	11089.07
654.84	10706.1
655.033	10702
655.225	10843.31
655.417	10728.63
655.61	10663.09
655.802	10638.51
655.994	10435.77
656.186	10474.68
656.379	10435.77
656.571	10583.22
656.763	10345.66
656.955	10292.41
657.148	10210.49
657.34	10304.7
657.532	10181.82
657.724	9909.44
657.916	10255.54
658.108	9950.4
658.3	9766.08
658.492	9907.39
658.684	9675.97
658.876	9874.62
659.068	9843.9
659.26	9518.28
659.452	9569.48
659.644	9559.24
659.836	9596.1
660.028	9501.89
660.22	9268.42
660.412	9546.95
660.604	9417.93
660.796	9389.25
660.988	9249.99
661.18	9211.08
661.372	9202.89
661.563	9327.82
661.755	9143.5
661.947	8740.05
662.139	9041.1
662.331	9014.48
662.522	8867.02
662.714	9002.19
662.906	8981.71
663.097	8713.42
663.289	8631.51
663.481	8723.66
663.673	8740.05
663.864	8668.37
664.056	8459.48
664.247	8410.33
664.439	8355.03
664.631	8545.49
664.822	8508.63
665.014	8363.22
665.205	8207.58
665.397	8076.51
665.588	8178.9
665.78	8119.51
665.971	8240.34
666.163	8187.1
666.354	8103.13
666.546	8051.93
666.737	7988.44
666.929	7986.4
667.12	7830.75
667.311	7783.65
667.503	7668.96
667.694	7795.93
667.885	7615.71
668.077	7779.55
668.268	7646.43
668.459	7795.93
668.651	7675.1
668.842	7515.36
669.033	7439.59
669.224	7455.97
669.416	7484.64
669.607	7492.84
669.798	7402.72
669.989	7351.53
670.18	7484.64
670.371	7187.69
670.563	7425.25
670.754	7394.53
670.945	7120.1
671.136	7118.06
671.327	7003.37
671.518	6980.84
671.709	7163.11
671.9	7265.51
672.091	7036.14
672.282	6886.64
672.473	6927.6
672.664	6927.6
672.855	6886.64
673.046	6849.77
673.237	7046.38
673.428	6851.82
673.619	6759.66
673.809	6763.76
674	6524.15
674.191	6587.63
674.382	6651.12
674.573	6728.94
674.764	6575.34
674.954	6702.32
675.145	6604.02
675.336	6513.91
675.527	6669.55
675.717	6491.38
675.908	6280.44
676.099	6452.47
676.289	6329.59
676.48	6386.93
676.671	6255.86
676.861	6388.98
677.052	6294.77
677.243	6124.79
677.433	6354.16
677.624	6219
677.814	6175.99
678.005	6309.11
678.195	6210.81
678.386	6083.83
678.576	6163.7
678.767	6026.49
678.957	6092.02
679.148	6157.56
679.338	5872.89
679.529	5893.37
679.719	5876.99
679.909	6016.25
680.1	6081.78
680.29	5747.97
680.481	6044.92
680.671	5893.37
680.861	5747.97
681.052	5907.71
681.242	5768.45
681.432	5956.86
681.622	5711.1
681.813	5862.65
682.003	5811.45
682.193	5641.47
682.383	5649.66
682.573	5668.09
682.764	5618.94
682.954	5690.62
683.144	5516.55
683.334	5637.38
683.524	5508.35
683.714	5512.45
683.904	5428.48
684.094	5575.94
684.284	5608.7
684.474	5573.89
684.664	5491.97
684.854	5469.44
685.044	5594.37
685.234	5453.06
685.424	5477.63
685.614	5514.5
685.804	5289.22
685.994	5397.76
686.184	5272.84
686.374	5268.74
686.564	5195.01
686.753	5309.7
686.943	5133.57
687.133	5313.8
687.323	5201.16
687.513	5170.44
687.702	5031.18
687.892	5113.1
688.082	5109
688.272	5037.32
688.461	4979.98
688.651	5100.81
688.841	5002.5
689.03	4965.64
689.22	4934.92
689.41	4893.96
689.599	4910.35
689.789	5145.86
689.979	4943.11
690.168	5027.08
690.358	4805.9
690.547	4762.89
690.737	4912.39
690.926	4726.03
691.116	4556.05
691.305	4797.71
691.495	4801.8
691.684	4650.25
691.874	4779.28
692.063	4680.97
692.252	4627.73
692.442	4623.63
692.631	4574.48
692.82	4547.86
693.01	4640.01
693.199	4523.28
693.388	4582.67
693.578	4623.63
693.767	4498.7
693.956	4510.99
694.146	4424.98
694.335	4508.94
694.524	4394.26
694.713	4470.03
694.902	4599.06
695.092	4470.03
695.281	4455.7
695.47	4480.27
695.659	4443.41
695.848	4320.53
696.037	4427.03
696.226	4314.39
696.415	4343.06
696.604	4273.43
696.793	4220.18
696.982	4326.68
697.171	4216.08
697.36	4298
697.549	4187.41
697.738	4117.78
697.927	4164.89
698.116	4312.34
698.305	4267.28
698.494	4281.62
698.683	4392.21
698.872	4179.22
699.061	4244.76
699.25	4162.84
699.438	4216.08
699.627	4097.3
699.816	4058.39
700.005	4154.65
700.193	4171.03
700.382	4125.97
700.571	4072.73
700.76	4064.54
700.948	4087.06
701.137	4132.12
701.326	4103.45
701.514	4054.3
701.703	4103.45
701.892	4007.19
702.08	4054.3
702.269	4119.83
702.457	4078.87
702.646	4195.61
702.834	3904.79
703.023	4072.73
703.212	3941.66
703.4	4058.39
703.589	3859.74
703.777	3999
703.965	4017.43
704.154	3935.51
704.342	3921.18
704.531	3826.97
704.719	3927.32
704.907	4095.25
705.096	3876.12
705.284	4013.34
705.472	3994.9
705.661	3894.55
705.849	3990.81
706.037	3845.4
706.226	3906.84
706.414	3900.7
706.602	3884.31
706.79	3859.74
706.979	3910.94
707.167	3894.55
707.355	3693.85
707.543	3800.35
707.731	3880.22
707.919	3831.07
708.107	3728.67
708.296	3689.76
708.484	3759.39
708.672	3867.93
708.86	3808.54
709.048	3835.16
709.236	3792.16
709.424	3630.37
709.612	3720.48
709.8	3775.77
709.988	3769.63
710.176	3640.61
710.364	3700
710.551	3753.24
710.739	3693.85
710.927	3826.97
711.115	3677.47
711.303	3738.91
711.491	3630.37
711.679	3628.32
711.866	3679.52
712.054	3724.57
712.242	3599.65
712.43	3659.04
712.617	3669.28
712.805	3654.94
712.993	3714.33
713.181	3675.42
713.368	3618.08
713.556	3519.78
713.744	3562.78
713.931	3556.64
714.119	3626.27
714.306	3667.23
714.494	3538.21
714.682	3589.41
714.869	3448.1
715.057	3589.41
715.244	3566.88
715.432	3552.54
715.619	3525.92
715.807	3595.55
715.994	3425.57
716.182	3435.81
716.369	3501.34
716.556	3550.5
716.744	3507.49
716.931	3484.96
717.119	3462.43
717.306	3597.6
717.493	3497.25
717.681	3456.29
717.868	3456.29
718.055	3511.58
718.242	3472.67
718.43	3382.56
718.617	3323.17
718.804	3323.17
718.991	3480.86
719.179	3521.82
719.366	3532.06
719.553	3403.04
719.74	3351.84
719.927	3429.66
720.114	3312.93
720.301	3200.29
720.488	3337.51
720.676	3290.4
720.863	3314.98
721.05	3372.32
721.237	3339.55
721.424	3290.4
721.611	3294.5
721.798	3251.49
721.985	3362.08
722.172	3251.49
722.358	3267.88
722.545	3343.65
722.732	3185.96
722.919	3255.59
723.106	3278.12
723.293	3235.11
723.48	3206.44
723.667	3317.03
723.853	3173.67
724.04	3312.93
724.227	3173.67
724.414	3208.48
724.6	3093.8
724.787	3179.81
724.974	3085.61
725.161	3177.76
725.347	3233.06
725.534	3173.67
725.72	3118.37
725.907	3108.13
726.094	3188
726.28	3124.52
726.467	3077.41
726.653	3155.24
726.84	3147.05
727.027	3110.18
727.213	3126.57
727.4	3079.46
727.586	3138.85
727.773	3228.96
727.959	3052.84
728.145	3001.64
728.332	2958.63
728.518	3153.19
728.705	3077.41
728.891	2968.87
729.077	2983.21
729.264	3087.65
729.45	2960.68
729.636	3138.85
729.823	2987.3
730.009	2958.63
730.195	3048.74
730.382	2979.11
730.568	3097.89
730.754	3011.88
730.94	2966.82
731.126	2983.21
731.313	2911.53
731.499	2954.54
731.685	2911.53
731.871	2886.95
732.057	2977.06
732.243	2966.82
732.429	2921.77
732.615	3044.65
732.801	2999.59
732.987	2927.91
733.173	3026.22
733.359	3005.74
733.545	3011.88
733.731	2891.05
733.917	2874.67
734.103	2987.3
734.289	2839.85
734.475	2913.58
734.661	2807.08
734.847	2927.91
735.033	2919.72
735.219	2899.24
735.404	2891.05
735.59	2889
735.776	2835.75
735.962	2893.1
736.148	2907.43
736.333	2780.46
736.519	2770.22
736.705	2833.71
736.89	2741.55
737.076	2817.32
737.262	2839.85
737.447	2780.46
737.633	2841.9
737.819	2860.33
738.004	2796.84
738.19	2708.78
738.375	2688.3
738.561	2778.41
738.747	2755.88
738.932	2786.6
739.118	2751.79
739.303	2868.52
739.489	2712.88
739.674	2643.24
739.859	2655.53
740.045	2723.12
740.23	2630.96
740.416	2501.94
740.601	2618.67
740.786	2694.44
740.972	2690.35
741.157	2637.1
741.342	2497.84
741.528	2657.58
741.713	2602.29
741.898	2610.48
742.084	2542.89
742.269	2522.41
742.454	2571.57
742.639	2610.48
742.824	2553.13
743.01	2497.84
743.195	2536.75
743.38	2440.5
743.565	2485.55
743.75	2538.8
743.935	2436.4
744.12	2618.67
744.305	2450.74
744.49	2526.51
744.675	2422.06
744.86	2430.26
745.045	2354.48
745.23	2409.78
745.415	2442.54
745.6	2403.63
745.785	2356.53
745.97	2340.15
746.155	2344.24
746.34	2317.62
746.525	2379.06
746.71	2270.51
746.895	2297.14
747.079	2268.47
747.264	2266.42
747.449	2221.36
747.634	2227.51
747.819	2243.89
748.003	2233.65
748.188	2190.64
748.373	2143.54
748.557	2243.89
748.742	2172.21
748.927	2143.54
749.111	2104.63
749.296	2084.15
749.481	2153.78
749.665	2131.25
749.85	2086.2
750.034	2141.49
750.219	1979.7
750.404	1914.17
750.588	2063.67
750.773	1932.6
750.957	1977.66
751.141	1983.8
751.326	1867.06
751.51	1879.35
751.695	1895.74
751.879	1930.55
752.064	1967.42
752.248	1887.54
752.432	1836.35
752.617	1908.02
752.801	1885.5
752.985	1838.39
753.17	1836.35
753.354	1809.72
753.538	1848.63
753.722	1811.77
753.907	1793.34
754.091	1815.87
754.275	1781.05
754.459	1719.61
754.643	1758.52
754.828	1715.52
755.012	1627.45
755.196	1631.55
755.38	1680.7
755.564	1735.99
755.748	1717.56
755.932	1680.7
756.116	1582.4
756.3	1502.53
756.484	1635.64
756.668	1586.49
756.852	1529.15
757.036	1541.44
757.22	1453.38
757.404	1606.97
757.588	1506.62
757.772	1512.77
757.956	1594.68
758.14	1584.45
758.323	1471.81
758.507	1508.67
758.691	1467.71
758.875	1436.99
759.059	1649.98
759.242	1588.54
759.426	1510.72
759.61	1477.95
759.794	1422.66
759.977	1414.46
760.161	1523.01
760.345	1408.32
760.528	1447.23
760.712	1471.81
760.895	1393.98
761.079	1328.45
761.263	1406.27
761.446	1445.18
761.63	1312.07
761.813	1330.5
761.997	1353.02
762.18	1361.22
762.364	1373.5
762.547	1344.83
762.731	1301.83
762.914	1279.3
763.098	1303.87
763.281	1305.92
763.464	1385.79
763.648	1295.68
763.831	1393.98
764.015	1168.71
764.198	1307.97
764.381	1283.39
764.564	1269.06
764.748	1291.59
764.931	1338.69
765.114	1133.89
765.297	1254.72
765.481	1154.37
765.664	1187.14
765.847	1193.28
766.03	1295.68
766.213	1193.28
766.397	1203.52
766.58	1226.05
766.763	1164.61
766.946	1146.18
767.129	1121.6
767.312	1185.09
767.495	1123.65
767.678	1197.38
767.861	1076.55
768.044	1101.12
768.227	1283.39
768.41	1172.8
768.593	1078.6
768.776	1105.22
768.959	1086.79
769.142	1142.08
769.324	1148.23
769.507	1011.01
769.69	1158.47
769.873	1142.08
770.056	1158.47
770.239	1156.42
770.421	1023.3
770.604	1191.24
770.787	1115.46
770.97	1121.6
771.152	945.48
771.335	1027.4
771.518	1080.64
771.7	1094.98
771.883	1152.32
772.066	992.58
772.248	1060.17
772.431	1051.97
772.613	1056.07
772.796	1060.17
772.978	1015.11
773.161	1033.54
773.343	996.68
773.526	1011.01
773.708	1011.01
773.891	937.29
774.073	939.33
774.256	1011.01
774.438	1074.5
774.621	925
774.803	920.9
774.985	943.43
775.168	1011.01
775.35	892.23
775.532	838.98
775.715	855.37
775.897	920.9
776.079	900.42
776.261	918.86
776.444	845.13
776.626	963.91
776.808	838.98
776.99	849.22
777.173	830.79
777.355	841.03
777.537	785.74
777.719	920.9
777.901	900.42
778.083	798.03
778.265	771.4
778.447	798.03
778.629	828.74
778.811	857.42
778.993	736.59
779.175	838.98
779.357	726.35
779.539	777.55
779.721	814.41
779.903	750.92
780.085	791.88
780.267	777.55
780.449	816.46
780.631	832.84
780.812	750.92
780.994	734.54
781.176	740.68
781.358	699.72
781.54	802.12
781.721	775.5
781.903	720.2
782.085	695.63
782.267	658.76
782.448	736.59
782.63	732.49
782.812	679.24
782.993	650.57
783.175	703.82
783.357	707.91
783.538	621.9
783.72	626
783.901	669
784.083	662.86
784.264	591.18
784.446	623.95
784.627	585.04
784.809	599.37
784.99	630.09
785.172	562.51
785.353	566.6
785.535	525.65
785.716	564.56
785.897	658.76
786.079	669
786.26	550.22
786.441	636.24
786.623	621.9
786.804	552.27
786.985	505.17
787.167	572.75
787.348	515.41
787.529	521.55
787.71	652.62
787.891	531.79
788.073	648.52
788.254	486.73
788.435	486.73
788.616	539.98
788.797	517.45
788.978	503.12
789.159	494.93
789.34	490.83
789.522	554.32
789.703	523.6
789.884	525.65
790.065	542.03
790.246	525.65
790.427	527.69
790.607	572.75
790.788	517.45
790.969	472.4
791.15	488.78
791.331	453.97
791.512	427.34
791.693	421.2
791.874	451.92
792.054	505.17
792.235	474.45
792.416	392.53
792.597	560.46
792.778	429.39
792.958	478.54
793.139	462.16
793.32	398.67
793.5	404.82
793.681	499.02
793.862	384.34
794.042	345.42
794.223	349.52
794.404	333.14
794.584	355.66
794.765	324.94
794.945	376.14
795.126	404.82
795.306	380.24
795.487	353.62
795.667	308.56
795.848	394.58
796.028	349.52
796.209	372.05
796.389	380.24
796.57	425.29
796.75	365.9
796.93	320.85
797.111	353.62
797.291	314.7
797.471	367.95
797.652	337.23
797.832	357.71
798.012	400.72
798.192	304.46
798.373	288.08
798.553	357.71
798.733	406.86
798.913	275.79
799.093	339.28
799.274	331.09
799.454	359.76
799.634	329.04
799.814	415.05
799.994	333.14
800.174	318.8
800.354	351.57
800.534	365.9
800.714	353.62
800.894	249.17
801.074	281.94
801.254	277.84
801.434	275.79
801.614	396.62
801.794	273.75
801.974	734.54
802.154	226.64
802.334	288.08
802.514	322.9
802.693	259.41
802.873	339.28
803.053	259.41
803.233	300.37
803.413	333.14
803.592	372.05
803.772	259.41
803.952	238.93
804.131	277.84
804.311	267.6
804.491	245.07
804.67	220.5
804.85	324.94
805.03	294.22
805.209	326.99
805.389	267.6
805.568	222.55
805.748	300.37
805.928	212.31
806.107	283.98
806.287	306.51
806.466	249.17
806.646	228.69
806.825	200.02
807.004	314.7
807.184	312.66
807.363	265.55
807.543	175.44
807.722	257.36
807.901	251.22
808.081	271.7
808.26	204.11
808.439	222.55
808.619	234.83
808.798	208.21
808.977	249.17
809.156	191.83
809.336	263.51
809.515	251.22
809.694	234.83
809.873	169.3
810.052	226.64
810.231	304.46
810.411	251.22
810.59	312.66
810.769	245.07
810.948	206.16
811.127	138.58
811.306	214.35
811.485	267.6
811.664	255.31
811.843	255.31
812.022	288.08
812.201	271.7
812.38	298.32
812.559	228.69
812.737	283.98
812.916	163.15
813.095	220.5
813.274	204.11
813.453	163.15
813.632	226.64
813.811	214.35
813.989	175.44
814.168	159.06
814.347	220.5
814.526	197.97
814.704	136.53
814.883	165.2
815.062	171.35
815.24	208.21
815.419	185.68
815.598	245.07
815.776	218.45
815.955	206.16
816.133	185.68
816.312	230.74
816.49	171.35
816.669	181.59
816.847	193.87
817.026	111.96
817.204	187.73
817.383	73.04
817.561	167.25
817.74	157.01
817.918	208.21
818.097	171.35
818.275	179.54
818.453	243.03
818.632	79.19
818.81	146.77
818.988	161.11
819.167	195.92
819.345	183.63
819.523	185.68
819.701	236.88
819.879	179.54
820.058	189.78
820.236	185.68
820.414	89.43
820.592	154.96
820.77	167.25
820.948	169.3
821.127	95.57
821.305	146.77
821.483	111.96
821.661	234.83
821.839	173.39
822.017	71
822.195	150.87
822.373	124.24
822.551	99.67
822.729	171.35
822.907	193.87
823.085	173.39
823.262	130.39
823.44	93.52
823.618	95.57
823.796	179.54
823.974	81.24
824.152	99.67
824.329	93.52
824.507	171.35
824.685	148.82
824.863	126.29
825.04	148.82
825.218	114
825.396	173.39
825.574	134.48
825.751	126.29
825.929	122.2
826.107	124.24
826.284	140.63
826.462	163.15
826.639	109.91
826.817	103.76
826.994	136.53
827.172	79.19
827.349	202.07
827.527	111.96
827.704	68.95
827.882	109.91
828.059	107.86
828.237	222.55
828.414	236.88
828.591	118.1
828.769	140.63
828.946	126.29
829.124	154.96
829.301	152.91
829.478	52.56
829.655	126.29
829.833	122.2
830.01	111.96
830.187	171.35
830.364	111.96
830.542	114
830.719	99.67
830.896	148.82
831.073	134.48
831.25	118.1
831.427	52.56
831.604	138.58
831.782	138.58
831.959	148.82
832.136	161.11
832.313	95.57
832.49	152.91
832.667	89.43
832.844	66.9
833.021	157.01
833.198	11.61
833.374	101.72
833.551	58.71
833.728	66.9
833.905	124.24
834.082	40.28
834.259	107.86
834.436	75.09
834.612	36.18
834.789	75.09
834.966	165.2
835.143	91.48
835.319	32.08
835.496	95.57
835.673	165.2
835.85	122.2
836.026	68.95
836.203	159.06
836.38	73.04
836.556	23.89
836.733	97.62
836.909	50.52
837.086	99.67
837.262	40.28
837.439	146.77
837.616	107.86
837.792	116.05
837.968	107.86
838.145	91.48
838.321	73.04
838.498	116.05
838.674	152.91
838.851	73.04
839.027	103.76
839.203	116.05
839.38	83.28
839.556	85.33
839.732	81.24
839.909	89.43
840.085	89.43
840.261	34.13
840.437	144.72
840.614	85.33
840.79	107.86
840.966	103.76
841.142	36.18
841.318	66.9
841.494	134.48
841.671	46.42
841.847	58.71
842.023	-0.68
842.199	114
842.375	44.37
842.551	81.24
842.727	68.95
842.903	93.52
843.079	32.08
843.255	114
843.431	122.2
843.607	116.05
843.783	111.96
843.959	-8.87
844.134	9.56
844.31	85.33
844.486	44.37
844.662	66.9
844.838	38.23
845.013	56.66
845.189	40.28
845.365	159.06
845.541	99.67
845.716	40.28
845.892	48.47
846.068	50.52
846.244	-4.78
846.419	101.72
846.595	83.28
846.77	142.68
846.946	27.99
847.122	54.61
847.297	85.33
847.473	87.38
847.648	87.38
847.824	152.91
847.999	1.37
848.175	32.08
848.35	58.71
848.526	122.2
848.701	154.96
848.876	77.14
849.052	38.23
849.227	56.66
849.403	52.56
849.578	58.71
849.753	-27.31
849.929	58.71
850.104	56.66
850.279	62.8
850.454	-25.26
850.63	83.28
850.805	27.99
850.98	19.8
851.155	81.24
851.33	23.89
851.505	109.91
851.681	81.24
851.856	68.95
852.031	9.56
852.206	73.04
852.381	87.38
852.556	79.19
852.731	89.43
852.906	95.57
853.081	62.8
853.256	44.37
853.431	46.42
853.606	25.94
853.781	93.52
853.956	116.05
854.131	79.19
854.305	-8.87
854.48	68.95
854.655	-31.4
854.83	52.56
855.005	11.61
855.18	9.56
855.354	-51.88
855.529	85.33
855.704	5.46
855.879	17.75
856.053	36.18
856.228	42.32
856.403	-10.92
856.577	-12.97
856.752	36.18
856.926	3.41
857.101	56.66
857.276	-2.73
857.45	142.68
857.625	111.96
857.799	23.89
857.974	46.42
858.148	60.76
858.323	60.76
858.497	23.89
858.672	5.46
858.846	64.85
859.02	89.43
859.195	9.56
859.369	19.8
859.543	75.09
859.718	64.85
859.892	13.65
860.066	34.13
860.241	-23.21
860.415	17.75
860.589	-49.83
860.763	81.24
860.938	-27.31
861.112	38.23
861.286	36.18
861.46	83.28
861.634	17.75
861.808	152.91
861.982	38.23
862.157	11.61
862.331	-15.02
862.505	62.8
862.679	-49.83
862.853	36.18
863.027	77.14
863.201	19.8
863.375	-0.68
863.549	95.57
863.722	36.18
863.896	38.23
864.07	-15.02
864.244	34.13
864.418	23.89
864.592	-82.6
864.766	23.89
864.939	58.71
865.113	7.51
865.287	46.42
865.461	1.37
865.634	93.52
865.808	-25.26
865.982	17.75
866.156	-43.69
866.329	23.89
866.503	89.43
866.676	17.75
866.85	73.04
867.024	87.38
867.197	-4.78
867.371	32.08
867.544	-10.92
867.718	23.89
867.891	-39.59
868.065	17.75
868.238	-8.87
868.412	21.84
868.585	40.28
868.759	75.09
868.932	32.08
869.105	34.13
869.279	21.84
869.452	-8.87
869.625	-6.83
869.799	40.28
869.972	32.08
870.145	30.04
870.319	19.8
870.492	-58.03
870.665	9.56
870.838	46.42
871.011	1.37
871.185	54.61
871.358	58.71
871.531	-12.97
871.704	3.41
871.877	-10.92
872.05	21.84
872.223	21.84
872.396	9.56
872.569	42.32
872.742	36.18
872.915	56.66
873.088	11.61
873.261	13.65
873.434	11.61
873.607	75.09
873.78	7.51
873.953	17.75
874.126	-10.92
874.299	79.19
874.471	34.13
874.644	83.28
874.817	-92.84
874.99	54.61
875.163	-15.02
875.335	36.18
875.508	34.13
875.681	52.56
875.853	58.71
876.026	-8.87
876.199	-0.68
876.371	87.38
876.544	23.89
876.717	50.52
876.889	13.65
877.062	25.94
877.234	-8.87
877.407	15.7
877.579	-19.11
877.752	50.52
877.924	75.09
878.097	50.52
878.269	-4.78
878.442	-58.03
878.614	25.94
878.786	79.19
878.959	-39.59
879.131	54.61
879.303	15.7
879.476	-0.68
879.648	38.23
879.82	-15.02
879.993	-51.88
880.165	9.56
880.337	11.61
880.509	21.84
880.681	13.65
880.854	19.8
881.026	-6.83
881.198	42.32
881.37	7.51
881.542	48.47
881.714	-12.97
881.886	-12.97
882.058	13.65
882.23	46.42
882.402	17.75
882.574	30.04
882.746	-10.92
882.918	77.14
883.09	-45.74
883.262	-35.5
883.434	54.61
883.606	-4.78
883.778	32.08
883.95	62.8
884.122	30.04
884.293	-0.68
884.465	-15.02
884.637	-12.97
884.809	27.99
884.98	-23.21
885.152	48.47
885.324	62.8
885.496	23.89
885.667	-21.16
885.839	-4.78
886.011	-4.78
886.182	-19.11
886.354	81.24
886.525	17.75
886.697	87.38
886.869	81.24
887.04	-19.11
887.212	68.95
887.383	60.76
887.555	17.75
887.726	1.37
887.897	27.99
888.069	3.41
888.24	40.28
888.412	40.28
888.583	-27.31
888.754	52.56
888.926	-88.75
889.097	21.84
889.268	56.66
889.44	46.42
889.611	23.89
889.782	15.7
889.953	11.61
890.125	17.75
890.296	5.46
890.467	50.52
890.638	27.99
890.809	23.89
890.98	-78.51
891.151	77.14
891.323	-0.68
891.494	15.7
891.665	1.37
891.836	36.18
892.007	15.7
892.178	71
892.349	-19.11
892.52	19.8
892.691	-12.97
892.862	-33.45
893.032	-35.5
893.203	-37.55
893.374	36.18
893.545	42.32
893.716	19.8
893.887	40.28
894.057	-2.73
894.228	-2.73
894.399	27.99
894.57	48.47
894.74	62.8
894.911	27.99
895.082	1.37
895.253	-17.07
895.423	21.84
895.594	87.38
895.764	-10.92
895.935	46.42
896.106	62.8
896.276	25.94
896.447	-60.07
896.617	-66.22
896.788	3.41
896.958	46.42
897.129	5.46
897.299	60.76
897.47	-35.5
897.64	44.37
897.81	-15.02
897.981	-43.69
898.151	-0.68
898.322	56.66
898.492	-43.69
898.662	32.08
898.832	-33.45
899.003	-86.7
899.173	13.65
899.343	7.51
899.513	-12.97
