Data from USB4F104151__244__11-11-35-370.txt Node

Date: Wed Mar 12 11:11:35 EDT 2025
User: louis
Spectrometer: USB4F10415
Trigger mode: 4
Integration Time (sec): 2.000000E-2
Scans to average: 1
Electric dark correction enabled: true
Nonlinearity correction enabled: false
Boxcar width: 0
XAxis mode: Wavelengths
Number of Pixels in Spectrum: 3648
>>>>>Begin Spectral Data<<<<<
178.204	-48.13
178.424	-48.13
178.644	-48.13
178.864	-119.81
179.084	-70.65
179.304	-39.94
179.524	-19.46
179.744	-44.03
179.964	62.46
180.184	68.61
180.404	50.18
180.624	37.89
180.844	-3.07
181.064	-33.79
181.283	-54.27
181.503	-37.89
181.723	13.31
181.943	-76.8
182.163	17.41
182.383	95.23
182.602	29.7
182.822	31.74
183.042	-11.26
183.262	-1.02
183.482	27.65
183.701	23.55
183.921	66.56
184.141	15.36
184.361	91.13
184.58	-52.22
184.8	44.03
185.02	27.65
185.239	-25.6
185.459	56.32
185.679	1.02
185.898	-37.89
186.118	-23.55
186.338	-11.26
186.557	48.13
186.777	-7.17
186.997	-23.55
187.216	-1.02
187.436	-5.12
187.655	15.36
187.875	50.18
188.095	-11.26
188.314	-35.84
188.534	74.75
188.753	35.84
188.973	78.85
189.192	17.41
189.412	-13.31
189.631	50.18
189.851	39.94
190.07	66.56
190.29	-29.7
190.509	48.13
190.729	-3.07
190.948	101.37
191.168	82.94
191.387	56.32
191.607	17.41
191.826	35.84
192.045	15.36
192.265	107.52
192.484	-58.37
192.704	3.07
192.923	33.79
193.142	115.71
193.362	54.27
193.581	-19.46
193.8	99.33
194.02	48.13
194.239	-37.89
194.458	-9.22
194.678	11.26
194.897	-31.74
195.116	62.46
195.335	99.33
195.555	17.41
195.774	-23.55
195.993	25.6
196.212	76.8
196.432	-64.51
196.651	52.22
196.87	35.84
197.089	76.8
197.308	25.6
197.528	66.56
197.747	-50.18
197.966	19.46
198.185	19.46
198.404	66.56
198.623	41.98
198.842	-33.79
199.062	31.74
199.281	54.27
199.5	-3.07
199.719	56.32
199.938	50.18
200.157	5.12
200.376	64.51
200.595	66.56
200.814	-3.07
201.033	111.61
201.252	15.36
201.471	62.46
201.69	41.98
201.909	11.26
202.128	33.79
202.347	60.42
202.566	9.22
202.785	60.42
203.004	-25.6
203.223	78.85
203.442	7.17
203.661	50.18
203.879	21.5
204.098	27.65
204.317	-21.5
204.536	82.94
204.755	29.7
204.974	70.65
205.193	66.56
205.411	-23.55
205.63	-3.07
205.849	-13.31
206.068	62.46
206.287	23.55
206.505	31.74
206.724	13.31
206.943	-62.46
207.162	70.65
207.381	-25.6
207.599	87.04
207.818	60.42
208.037	-3.07
208.255	39.94
208.474	48.13
208.693	-35.84
208.911	-7.17
209.13	62.46
209.349	23.55
209.567	78.85
209.786	50.18
210.005	54.27
210.223	-11.26
210.442	-46.08
210.661	44.03
210.879	74.75
211.098	68.61
211.316	-17.41
211.535	82.94
211.753	17.41
211.972	-1.02
212.191	37.89
212.409	105.47
212.628	19.46
212.846	7.17
213.065	31.74
213.283	82.94
213.502	-13.31
213.72	33.79
213.938	29.7
214.157	11.26
214.375	74.75
214.594	-27.65
214.812	48.13
215.031	95.23
215.249	39.94
215.467	66.56
215.686	48.13
215.904	50.18
216.122	37.89
216.341	48.13
216.559	7.17
216.778	37.89
216.996	56.32
217.214	68.61
217.432	-15.36
217.651	29.7
217.869	11.26
218.087	-23.55
218.306	35.84
218.524	17.41
218.742	-15.36
218.96	41.98
219.179	64.51
219.397	27.65
219.615	62.46
219.833	-13.31
220.051	15.36
220.27	37.89
220.488	-33.79
220.706	37.89
220.924	27.65
221.142	-25.6
221.36	31.74
221.578	54.27
221.796	13.31
222.015	60.42
222.233	-19.46
222.451	72.7
222.669	-3.07
222.887	46.08
223.105	41.98
223.323	58.37
223.541	31.74
223.759	29.7
223.977	48.13
224.195	27.65
224.413	17.41
224.631	72.7
224.849	115.71
225.067	52.22
225.285	29.7
225.503	25.6
225.721	-35.84
225.939	93.18
226.157	60.42
226.375	70.65
226.592	-7.17
226.81	27.65
227.028	48.13
227.246	64.51
227.464	19.46
227.682	29.7
227.9	-5.12
228.117	138.24
228.335	48.13
228.553	29.7
228.771	64.51
228.989	-78.85
229.206	58.37
229.424	46.08
229.642	15.36
229.86	25.6
230.077	50.18
230.295	-56.32
230.513	64.51
230.731	29.7
230.948	23.55
231.166	21.5
231.384	50.18
231.601	-3.07
231.819	29.7
232.037	7.17
232.254	5.12
232.472	35.84
232.689	-15.36
232.907	101.37
233.125	27.65
233.342	35.84
233.56	50.18
233.777	1.02
233.995	23.55
234.213	25.6
234.43	-7.17
234.648	-5.12
234.865	48.13
235.083	48.13
235.3	-5.12
235.518	5.12
235.735	54.27
235.953	-11.26
236.17	9.22
236.388	62.46
236.605	-29.7
236.822	25.6
237.04	64.51
237.257	62.46
237.475	37.89
237.692	-17.41
237.909	72.7
238.127	78.85
238.344	27.65
238.562	82.94
238.779	-3.07
238.996	27.65
239.214	-27.65
239.431	46.08
239.648	-9.22
239.865	50.18
240.083	54.27
240.3	5.12
240.517	21.5
240.735	72.7
240.952	17.41
241.169	76.8
241.386	50.18
241.603	23.55
241.821	-27.65
242.038	66.56
242.255	27.65
242.472	21.5
242.689	25.6
242.907	121.85
243.124	-31.74
243.341	27.65
243.558	56.32
243.775	109.57
243.992	-15.36
244.209	35.84
244.426	48.13
244.643	95.23
244.86	72.7
245.078	41.98
245.295	99.33
245.512	29.7
245.729	29.7
245.946	-19.46
246.163	21.5
246.38	48.13
246.597	21.5
246.814	68.61
247.031	33.79
247.248	56.32
247.464	-23.55
247.681	11.26
247.898	35.84
248.115	76.8
248.332	52.22
248.549	13.31
248.766	48.13
248.983	41.98
249.2	39.94
249.417	-15.36
249.633	-31.74
249.85	80.89
250.067	27.65
250.284	62.46
250.501	19.46
250.717	103.42
250.934	-39.94
251.151	9.22
251.368	95.23
251.585	62.46
251.801	-11.26
252.018	-11.26
252.235	33.79
252.451	-1.02
252.668	46.08
252.885	-23.55
253.102	1.02
253.318	39.94
253.535	52.22
253.752	13.31
253.968	9.22
254.185	-11.26
254.401	-17.41
254.618	72.7
254.835	25.6
255.051	70.65
255.268	15.36
255.484	15.36
255.701	-31.74
255.917	17.41
256.134	56.32
256.351	-7.17
256.567	52.22
256.784	44.03
257	9.22
257.217	1.02
257.433	-33.79
257.65	76.8
257.866	41.98
258.082	27.65
258.299	-7.17
258.515	13.31
258.732	-27.65
258.948	-3.07
259.165	72.7
259.381	-9.22
259.597	-80.89
259.814	39.94
260.03	72.7
260.246	33.79
260.463	-7.17
260.679	62.46
260.895	68.61
261.112	33.79
261.328	-9.22
261.544	97.28
261.761	37.89
261.977	19.46
262.193	62.46
262.409	99.33
262.626	107.52
262.842	54.27
263.058	58.37
263.274	11.26
263.49	64.51
263.707	107.52
263.923	62.46
264.139	-15.36
264.355	44.03
264.571	68.61
264.787	39.94
265.004	68.61
265.22	-15.36
265.436	66.56
265.652	46.08
265.868	33.79
266.084	17.41
266.3	13.31
266.516	-3.07
266.732	62.46
266.948	9.22
267.164	74.75
267.38	66.56
267.596	-7.17
267.812	62.46
268.028	84.99
268.244	7.17
268.46	64.51
268.676	9.22
268.892	25.6
269.108	56.32
269.324	-9.22
269.54	-23.55
269.756	50.18
269.972	17.41
270.188	60.42
270.403	-3.07
270.619	-9.22
270.835	9.22
271.051	19.46
271.267	25.6
271.483	107.52
271.698	78.85
271.914	78.85
272.13	23.55
272.346	78.85
272.562	7.17
272.777	35.84
272.993	52.22
273.209	33.79
273.425	74.75
273.64	13.31
273.856	37.89
274.072	-5.12
274.287	46.08
274.503	62.46
274.719	21.5
274.934	25.6
275.15	39.94
275.366	89.09
275.581	35.84
275.797	-33.79
276.012	74.75
276.228	44.03
276.444	46.08
276.659	70.65
276.875	17.41
277.09	72.7
277.306	9.22
277.521	41.98
277.737	58.37
277.952	-9.22
278.168	80.89
278.383	46.08
278.599	74.75
278.814	35.84
279.03	21.5
279.245	130.05
279.461	50.18
279.676	3.07
279.892	50.18
280.107	-9.22
280.322	21.5
280.538	84.99
280.753	7.17
280.969	-5.12
281.184	56.32
281.399	78.85
281.615	5.12
281.83	-23.55
282.045	9.22
282.26	33.79
282.476	35.84
282.691	46.08
282.906	70.65
283.122	5.12
283.337	-21.5
283.552	68.61
283.767	-7.17
283.983	80.89
284.198	-3.07
284.413	33.79
284.628	-37.89
284.843	13.31
285.058	-19.46
285.274	132.09
285.489	25.6
285.704	37.89
285.919	50.18
286.134	29.7
286.349	91.13
286.564	3.07
286.779	9.22
286.995	54.27
287.21	7.17
287.425	52.22
287.64	1.02
287.855	56.32
288.07	11.26
288.285	95.23
288.5	31.74
288.715	-29.7
288.93	17.41
289.145	9.22
289.36	87.04
289.575	56.32
289.79	44.03
290.004	3.07
290.219	17.41
290.434	9.22
290.649	76.8
290.864	121.85
291.079	5.12
291.294	9.22
291.509	25.6
291.724	11.26
291.938	29.7
292.153	-7.17
292.368	25.6
292.583	13.31
292.798	7.17
293.012	9.22
293.227	-3.07
293.442	60.42
293.657	9.22
293.871	19.46
294.086	39.94
294.301	54.27
294.516	29.7
294.73	99.33
294.945	25.6
295.16	25.6
295.374	70.65
295.589	15.36
295.804	17.41
296.018	89.09
296.233	19.46
296.447	-46.08
296.662	23.55
296.877	25.6
297.091	7.17
297.306	29.7
297.52	50.18
297.735	87.04
297.949	15.36
298.164	74.75
298.378	17.41
298.593	25.6
298.807	23.55
299.022	103.42
299.236	80.89
299.451	-41.98
299.665	62.46
299.88	23.55
300.094	11.26
300.309	13.31
300.523	50.18
300.737	50.18
300.952	68.61
301.166	46.08
301.381	11.26
301.595	76.8
301.809	72.7
302.024	93.18
302.238	66.56
302.452	17.41
302.667	72.7
302.881	97.28
303.095	58.37
303.309	15.36
303.524	-39.94
303.738	-3.07
303.952	-7.17
304.166	74.75
304.381	-19.46
304.595	101.37
304.809	60.42
305.023	7.17
305.237	23.55
305.452	93.18
305.666	64.51
305.88	37.89
306.094	70.65
306.308	64.51
306.522	21.5
306.736	13.31
306.95	62.46
307.164	70.65
307.379	91.13
307.593	54.27
307.807	56.32
308.021	109.57
308.235	1.02
308.449	44.03
308.663	64.51
308.877	39.94
309.091	52.22
309.305	9.22
309.519	7.17
309.733	109.57
309.947	21.5
310.161	15.36
310.374	-7.17
310.588	95.23
310.802	-33.79
311.016	48.13
311.23	-7.17
311.444	62.46
311.658	11.26
311.872	-37.89
312.085	58.37
312.299	25.6
312.513	95.23
312.727	80.89
312.941	35.84
313.154	-35.84
313.368	25.6
313.582	27.65
313.796	107.52
314.009	27.65
314.223	66.56
314.437	35.84
314.651	89.09
314.864	13.31
315.078	-3.07
315.292	46.08
315.505	-23.55
315.719	39.94
315.933	-41.98
316.146	29.7
316.36	41.98
316.573	60.42
316.787	9.22
317.001	17.41
317.214	39.94
317.428	23.55
317.641	-39.94
317.855	3.07
318.068	-9.22
318.282	17.41
318.495	99.33
318.709	70.65
318.922	27.65
319.136	50.18
319.349	54.27
319.563	70.65
319.776	39.94
319.99	-35.84
320.203	87.04
320.417	48.13
320.63	84.99
320.843	46.08
321.057	33.79
321.27	13.31
321.483	95.23
321.697	52.22
321.91	48.13
322.124	3.07
322.337	35.84
322.55	-9.22
322.763	66.56
322.977	15.36
323.19	7.17
323.403	91.13
323.617	50.18
323.83	89.09
324.043	-3.07
324.256	-29.7
324.469	39.94
324.683	74.75
324.896	3.07
325.109	82.94
325.322	-3.07
325.535	33.79
325.748	15.36
325.962	76.8
326.175	54.27
326.388	17.41
326.601	56.32
326.814	72.7
327.027	39.94
327.24	64.51
327.453	62.46
327.666	64.51
327.879	31.74
328.092	66.56
328.305	-15.36
328.518	-1.02
328.731	9.22
328.944	-19.46
329.157	52.22
329.37	-25.6
329.583	56.32
329.796	111.61
330.009	23.55
330.222	76.8
330.435	25.6
330.648	107.52
330.861	76.8
331.073	58.37
331.286	3.07
331.499	35.84
331.712	-39.94
331.925	95.23
332.138	54.27
332.35	35.84
332.563	37.89
332.776	115.71
332.989	39.94
333.202	25.6
333.414	-17.41
333.627	19.46
333.84	3.07
334.053	87.04
334.265	15.36
334.478	27.65
334.691	3.07
334.903	37.89
335.116	50.18
335.329	39.94
335.541	39.94
335.754	76.8
335.966	-15.36
336.179	87.04
336.392	-27.65
336.604	78.85
336.817	66.56
337.029	25.6
337.242	56.32
337.454	41.98
337.667	21.5
337.88	105.47
338.092	58.37
338.305	70.65
338.517	52.22
338.729	29.7
338.942	46.08
339.154	66.56
339.367	-46.08
339.579	7.17
339.792	-9.22
340.004	44.03
340.217	-23.55
340.429	-31.74
340.641	-15.36
340.854	9.22
341.066	33.79
341.278	50.18
341.491	107.52
341.703	46.08
341.915	15.36
342.128	52.22
342.34	107.52
342.552	76.8
342.764	7.17
342.977	15.36
343.189	101.37
343.401	46.08
343.613	-19.46
343.826	78.85
344.038	17.41
344.25	35.84
344.462	5.12
344.674	99.33
344.886	46.08
345.099	46.08
345.311	117.76
345.523	27.65
345.735	33.79
345.947	89.09
346.159	58.37
346.371	50.18
346.583	78.85
346.795	95.23
347.007	62.46
347.219	46.08
347.431	41.98
347.643	56.32
347.855	-5.12
348.067	105.47
348.279	-7.17
348.491	48.13
348.703	89.09
348.915	-27.65
349.127	31.74
349.339	95.23
349.551	123.9
349.763	13.31
349.975	-31.74
350.187	66.56
350.399	31.74
350.61	48.13
350.822	17.41
351.034	58.37
351.246	-3.07
351.458	-66.56
351.669	19.46
351.881	64.51
352.093	105.47
352.305	54.27
352.517	58.37
352.728	37.89
352.94	9.22
353.152	84.99
353.363	29.7
353.575	74.75
353.787	125.95
353.999	66.56
354.21	66.56
354.422	39.94
354.633	74.75
354.845	37.89
355.057	-13.31
355.268	64.51
355.48	52.22
355.692	41.98
355.903	41.98
356.115	66.56
356.326	89.09
356.538	91.13
356.749	9.22
356.961	19.46
357.172	60.42
357.384	39.94
357.595	56.32
357.807	29.7
358.018	-27.65
358.23	46.08
358.441	-19.46
358.653	66.56
358.864	115.71
359.075	68.61
359.287	41.98
359.498	107.52
359.709	5.12
359.921	46.08
360.132	41.98
360.344	48.13
360.555	1.02
360.766	123.9
360.977	15.36
361.189	-7.17
361.4	132.09
361.611	50.18
361.823	23.55
362.034	97.28
362.245	-39.94
362.456	41.98
362.667	35.84
362.879	29.7
363.09	44.03
363.301	29.7
363.512	35.84
363.723	103.42
363.935	48.13
364.146	109.57
364.357	50.18
364.568	-11.26
364.779	-46.08
364.99	27.65
365.201	23.55
365.412	70.65
365.623	58.37
365.834	46.08
366.045	44.03
366.256	109.57
366.467	29.7
366.678	123.9
366.889	35.84
367.1	87.04
367.311	19.46
367.522	89.09
367.733	78.85
367.944	44.03
368.155	-23.55
368.366	107.52
368.577	89.09
368.788	37.89
368.999	1.02
369.209	-1.02
369.42	70.65
369.631	76.8
369.842	37.89
370.053	62.46
370.264	35.84
370.474	78.85
370.685	58.37
370.896	25.6
371.107	23.55
371.317	56.32
371.528	130.05
371.739	68.61
371.95	76.8
372.16	109.57
372.371	80.89
372.582	3.07
372.792	50.18
373.003	123.9
373.214	7.17
373.424	89.09
373.635	23.55
373.846	27.65
374.056	35.84
374.267	25.6
374.477	72.7
374.688	15.36
374.898	50.18
375.109	35.84
375.319	123.9
375.53	89.09
375.74	46.08
375.951	105.47
376.161	56.32
376.372	82.94
376.582	41.98
376.793	13.31
377.003	-7.17
377.214	13.31
377.424	95.23
377.635	74.75
377.845	-35.84
378.055	76.8
378.266	58.37
378.476	9.22
378.686	107.52
378.897	95.23
379.107	91.13
379.317	93.18
379.528	101.37
379.738	105.47
379.948	35.84
380.158	-13.31
380.369	37.89
380.579	105.47
380.789	15.36
380.999	105.47
381.21	78.85
381.42	117.76
381.63	72.7
381.84	89.09
382.05	91.13
382.261	33.79
382.471	132.09
382.681	25.6
382.891	46.08
383.101	70.65
383.311	-27.65
383.521	31.74
383.731	17.41
383.941	23.55
384.151	89.09
384.361	62.46
384.571	54.27
384.781	74.75
384.991	56.32
385.201	99.33
385.411	89.09
385.621	68.61
385.831	103.42
386.041	68.61
386.251	-5.12
386.461	76.8
386.671	23.55
386.881	80.89
387.091	15.36
387.301	-29.7
387.511	78.85
387.72	48.13
387.93	72.7
388.14	144.38
388.35	97.28
388.56	109.57
388.769	35.84
388.979	64.51
389.189	21.5
389.399	72.7
389.609	37.89
389.818	31.74
390.028	46.08
390.238	44.03
390.447	41.98
390.657	87.04
390.867	111.61
391.076	58.37
391.286	107.52
391.496	70.65
391.705	46.08
391.915	9.22
392.125	19.46
392.334	23.55
392.544	74.75
392.753	66.56
392.963	17.41
393.172	117.76
393.382	87.04
393.591	113.66
393.801	39.94
394.01	78.85
394.22	123.9
394.429	60.42
394.639	97.28
394.848	50.18
395.058	97.28
395.267	91.13
395.477	52.22
395.686	162.81
395.895	125.95
396.105	185.34
396.314	115.71
396.524	93.18
396.733	89.09
396.942	140.29
397.152	152.57
397.361	136.19
397.57	125.95
397.78	64.51
397.989	117.76
398.198	125.95
398.407	35.84
398.617	119.81
398.826	74.75
399.035	64.51
399.244	111.61
399.453	-9.22
399.663	123.9
399.872	72.7
400.081	113.66
400.29	89.09
400.499	109.57
400.708	76.8
400.917	132.09
401.127	195.58
401.336	175.1
401.545	166.91
401.754	125.95
401.963	197.63
402.172	164.86
402.381	60.42
402.59	60.42
402.799	187.39
403.008	119.81
403.217	166.91
403.426	164.86
403.635	128
403.844	203.77
404.053	187.39
404.262	160.77
404.471	246.78
404.68	181.25
404.888	115.71
405.097	95.23
405.306	171.01
405.515	201.72
405.724	160.77
405.933	193.53
406.142	179.2
406.35	216.06
406.559	267.26
406.768	232.44
406.977	242.68
407.185	197.63
407.394	230.4
407.603	164.86
407.812	191.49
408.02	281.6
408.229	224.25
408.438	246.78
408.646	238.59
408.855	273.4
409.064	369.66
409.272	259.07
409.481	297.98
409.69	287.74
409.898	334.84
410.107	365.56
410.315	355.32
410.524	283.64
410.733	347.13
410.941	310.27
411.15	416.76
411.358	427
411.567	427
411.775	408.57
411.984	457.72
412.192	508.92
412.401	463.86
412.609	476.15
412.818	543.74
413.026	592.89
413.234	558.07
413.443	576.5
413.651	586.74
413.86	596.98
414.068	672.76
414.276	742.39
414.485	670.71
414.693	697.33
414.901	797.68
415.11	742.39
415.318	771.06
415.526	766.96
415.734	701.43
415.943	850.93
416.151	906.23
416.359	875.51
416.567	928.75
416.776	1022.96
416.984	1010.67
417.192	1025.01
417.4	1127.41
417.608	1082.35
417.817	1139.69
418.025	1166.32
418.233	1260.52
418.441	1262.57
418.649	1375.21
418.857	1405.93
419.065	1414.12
419.273	1467.37
419.481	1469.42
419.689	1504.23
419.897	1631.21
420.105	1661.93
420.313	1831.91
420.521	1672.17
420.729	1799.14
420.937	1786.85
421.145	1975.27
421.353	1899.49
421.561	2059.23
421.769	2221.02
421.977	2104.29
422.185	2184.16
422.393	2327.52
422.601	2388.96
422.809	2317.28
423.017	2524.12
423.224	2626.52
423.432	2718.68
423.64	2780.12
423.848	2937.81
424.056	2956.24
424.263	3087.31
424.471	3197.9
424.679	3107.79
424.887	3308.49
425.094	3447.76
425.302	3408.84
425.51	3646.41
425.718	3834.82
425.925	3732.42
426.133	3922.88
426.341	4021.19
426.548	4172.74
426.756	4254.66
426.964	4271.04
427.171	4498.36
427.379	4789.17
427.586	4860.85
427.794	4965.3
428.001	5096.37
428.209	5239.73
428.417	5094.32
428.624	5745.58
428.832	5618.6
429.039	5725.1
429.247	5493.68
429.454	6251.42
429.662	6689.69
429.869	6032.29
430.076	6628.25
430.284	6480.8
430.491	6751.13
430.699	7056.28
430.906	6845.34
431.114	7084.95
431.321	7420.81
431.528	7564.17
431.736	7926.66
431.943	8541.05
432.15	8072.07
432.358	8414.08
432.565	8557.44
432.772	8524.67
432.979	9038.71
433.187	9274.23
433.394	9298.8
433.601	10023.78
433.808	10058.6
434.016	9890.67
434.223	10240.87
434.43	10814.3
434.637	10662.75
434.844	11451.22
435.052	11535.18
435.259	11647.82
435.466	11518.8
435.673	11592.53
435.88	12237.64
436.087	12712.77
436.294	12479.3
436.501	12745.53
436.708	12780.35
436.915	13247.29
437.122	13708.08
437.329	13488.95
437.537	14228.26
437.743	14345
437.95	14510.88
438.157	15250.2
438.364	15620.88
438.571	15600.4
438.778	15569.68
438.985	17201.91
439.192	16415.49
439.399	17015.55
439.606	16653.06
439.813	17660.66
440.02	18625.25
440.227	18186.99
440.433	17920.75
440.64	18713.31
440.847	18643.68
441.054	19161.82
441.261	20372.17
441.467	20054.73
441.674	20386.5
441.881	21287.61
442.088	21248.7
442.294	20961.98
442.501	21678.77
442.708	21840.56
442.914	22682.28
443.121	23718.55
443.328	23194.27
443.534	24590.98
443.741	24066.7
443.948	24038.03
444.154	25571.96
444.361	25057.92
444.568	25506.43
444.774	25672.31
444.981	25711.22
445.187	26389.1
445.394	27372.13
445.6	27232.86
445.807	29946.42
446.013	28729.93
446.22	29157.96
446.426	30450.22
446.633	30546.48
446.839	31287.84
447.046	30018.1
447.252	31578.65
447.459	31494.69
447.665	31760.92
447.871	33032.71
448.078	34445.81
448.284	32705.04
448.491	33708.54
448.697	34965.99
448.903	35588.58
449.11	35469.79
449.316	34908.65
449.522	35461.6
449.728	36805.07
449.935	36407.76
450.141	36737.49
450.347	37618.11
450.553	36348.37
450.76	36768.21
450.966	38136.25
451.172	37675.46
451.378	38441.4
451.584	37851.58
451.791	38810.03
451.997	38533.56
452.203	39037.36
452.409	39160.23
452.615	39123.37
452.821	37194.18
453.027	37079.5
453.233	38812.08
453.44	37278.15
453.646	37761.47
453.852	37865.92
454.058	38734.26
454.264	37188.04
454.47	38572.47
454.676	36915.66
454.882	38408.63
455.088	34710
455.294	35533.28
455.5	36020.7
455.705	36262.36
455.911	34828.78
456.117	34146.81
456.323	33837.56
456.529	31932.95
456.735	33196.55
456.941	32520.72
457.147	31924.76
457.352	30784.04
457.558	30706.22
457.764	30781.99
457.97	29927.99
458.176	29647.42
458.381	29196.87
458.587	28033.62
458.793	28187.22
458.999	26444.4
459.204	28293.71
459.41	27552.35
459.616	26335.85
459.821	25979.51
460.027	25723.51
460.233	25406.08
460.438	24070.8
460.644	24201.87
460.85	23249.57
461.055	23020.19
461.261	22811.3
461.466	21351.1
461.672	20413.13
461.878	22117.04
462.083	20550.34
462.289	20081.36
462.494	19966.67
462.7	18891.49
462.905	18621.16
463.111	18871.01
463.316	19327.71
463.522	18600.68
463.727	18813.66
463.932	18811.62
464.138	18531.05
464.343	18741.99
464.549	18244.33
464.754	18766.56
464.959	18543.33
465.165	18592.48
465.37	17814.26
465.575	16995.07
465.781	17734.39
465.986	17900.27
466.191	17554.16
466.397	17017.6
466.602	15962.89
466.807	16767.74
467.012	16943.87
467.218	16575.24
467.423	16229.13
467.628	16587.52
467.833	17122.04
468.038	16546.56
468.244	16134.92
468.449	16843.52
468.654	16243.46
468.859	16167.69
469.064	16208.65
469.269	15457.04
469.474	15489.81
469.679	15848.21
469.885	15680.27
470.09	15620.88
470.295	15565.59
470.5	15094.55
470.705	15545.11
470.91	14992.16
471.115	14750.49
471.32	14959.39
471.525	15026.97
471.73	14580.51
471.935	14353.19
472.139	13990.7
472.344	14236.45
472.549	13968.17
472.754	13814.57
472.959	13691.7
473.164	13265.72
473.369	13007.67
473.574	13632.3
473.778	13560.63
473.983	13474.61
474.188	13466.42
474.393	12694.33
474.598	12772.16
474.802	12657.47
475.007	12636.99
475.212	12630.85
475.417	12172.1
475.621	12290.88
475.826	12122.95
476.031	11754.32
476.235	11574.1
476.44	11869
476.645	11557.71
476.849	11535.18
477.054	11563.86
477.259	11230.04
477.463	11443.03
477.668	11193.17
477.872	11365.2
478.077	11010.9
478.282	10625.89
478.486	10613.6
478.691	10548.06
478.895	10685.28
479.1	10498.91
479.304	10574.69
479.509	10064.74
479.713	10384.23
479.918	10158.95
480.122	10066.79
480.326	10124.13
480.531	10201.96
480.735	10132.33
480.94	9933.67
481.144	10052.45
481.348	9663.34
481.553	9876.33
481.757	9845.61
481.961	9810.79
482.166	9841.51
482.37	9902.95
482.574	9634.67
482.778	9640.81
482.983	9976.68
483.187	9769.83
483.391	9833.32
483.595	9702.25
483.8	9651.05
484.004	9679.72
484.208	9671.53
484.412	9763.69
484.616	9556.85
484.821	9661.29
485.025	9603.95
485.229	9741.16
485.433	9556.85
485.637	9720.68
485.841	9614.19
486.045	9495.41
486.249	9718.64
486.453	9526.13
486.657	9847.66
486.861	9855.85
487.065	9388.91
487.269	9653.1
487.473	9364.34
487.677	9837.42
487.881	9724.78
488.085	9562.99
488.289	9894.76
488.493	9671.53
488.697	9737.07
488.901	9868.14
489.105	9945.96
489.309	9841.51
489.512	9716.59
489.716	9784.17
489.92	9651.05
490.124	9751.4
490.328	9993.06
490.531	9780.07
490.735	10089.32
490.939	9886.57
491.143	9984.87
491.346	9982.82
491.55	10150.76
491.754	10052.45
491.958	10105.7
492.161	10314.59
492.365	10369.89
492.569	10165.09
492.772	10154.85
492.976	10341.22
493.18	10292.07
493.383	10357.6
493.587	10492.77
493.79	10584.93
493.994	10632.03
494.197	10720.09
494.401	10675.04
494.605	10890.07
494.808	10971.99
495.012	10836.83
495.215	10996.57
495.419	11334.48
495.622	11135.83
495.825	11158.36
496.029	11232.08
496.232	11365.2
496.436	11490.13
496.639	11846.48
496.843	11524.94
497.046	12065.61
497.249	12047.18
497.453	12077.9
497.656	12086.09
497.859	12018.5
498.063	12063.56
498.266	12614.46
498.469	12540.74
498.673	12655.42
498.876	12772.16
499.079	13009.72
499.282	12790.59
499.485	13364.02
499.689	13167.42
499.892	13644.59
500.095	13534
500.298	13894.44
500.501	13863.72
500.705	14134.06
500.908	14388
501.111	14342.95
501.314	14644
501.517	14574.37
501.72	14820.13
501.923	14758.69
502.126	15176.47
502.329	15336.21
502.532	15424.28
502.735	15639.31
502.938	15762.19
503.141	15946.51
503.344	16153.35
503.547	16341.77
503.75	16534.28
503.953	17007.36
504.156	16984.83
504.359	16714.5
504.562	16995.07
504.765	17144.57
504.968	17490.68
505.17	17904.37
505.373	17863.41
505.576	17992.43
505.779	18178.79
505.982	18309.86
506.185	18666.21
506.387	18756.32
506.59	19008.22
506.793	18989.79
506.996	19387.1
507.198	19831.51
507.401	19514.07
507.604	19897.04
507.807	20298.44
508.009	20499.14
508.212	20183.76
508.415	20763.33
508.617	21269.18
508.82	20982.46
509.022	21000.9
509.225	21547.7
509.428	21791.41
509.63	21727.92
509.833	21908.15
510.035	22250.16
510.238	22450.86
510.44	22743.72
510.643	22907.55
510.845	23055.01
511.048	23212.7
511.25	23661.21
511.453	23620.25
511.655	24468.11
511.858	24220.3
512.06	24359.56
512.262	24541.83
512.465	24429.2
512.667	25154.18
512.87	25389.69
513.072	25508.47
513.274	25518.71
513.477	26108.53
513.679	26423.92
513.881	26774.12
514.084	26602.09
514.286	26813.03
514.488	26933.86
514.69	27726.42
514.893	27941.46
515.095	27832.92
515.297	28203.6
515.499	28521.04
515.701	28797.51
515.904	28805.7
516.106	29061.7
516.308	29270.59
516.51	29995.57
516.712	29669.95
516.914	29927.99
517.116	30460.46
517.318	30726.7
517.52	30806.57
517.722	30943.78
517.925	31230.5
518.127	31672.86
518.329	31840.79
518.531	31625.76
518.733	32287.25
518.935	32594.45
519.136	32623.12
519.338	33147.4
519.54	33247.75
519.742	33118.73
519.944	33604.1
520.146	34122.23
520.348	34163.19
520.55	34499.06
520.752	34728.43
520.954	34939.37
521.155	34734.57
521.357	35744.22
521.559	35916.25
521.761	36127.19
521.963	35686.88
522.164	36186.58
522.366	36475.35
522.568	36956.62
522.77	37155.27
522.971	37243.34
523.173	37300.68
523.375	37687.74
523.576	37693.89
523.778	37763.52
523.98	38060.48
524.181	38150.59
524.383	38468.02
524.584	38832.56
524.786	38980.01
524.988	38758.83
525.189	39057.84
525.391	39397.8
525.592	39397.8
525.794	39811.49
525.995	40135.07
526.197	39893.41
526.398	40178.07
526.6	40278.43
526.801	40278.43
527.003	40513.94
527.204	40712.59
527.406	41011.6
527.607	40923.54
527.808	41578.89
528.01	40554.9
528.211	41200.01
528.412	42039.68
528.614	41539.97
528.815	41759.11
529.016	42396.03
529.218	41720.2
529.419	41896.32
529.62	42338.68
529.822	42000.77
530.023	42267
530.224	42088.83
530.425	42539.38
530.626	41705.86
530.828	41806.21
531.029	42717.56
531.23	42336.63
531.431	42340.73
531.632	42453.37
531.833	42750.32
532.035	42305.91
532.236	42428.79
532.437	43145.58
532.638	43006.32
532.839	42963.31
533.04	43080.05
533.241	42598.77
533.442	43252.08
533.643	43039.09
533.844	42824.05
534.045	42844.53
534.246	42674.55
534.447	43059.57
534.648	42707.32
534.849	42953.07
535.05	43024.75
535.251	42846.58
535.451	42928.5
535.652	43366.76
535.853	43043.18
536.054	42963.31
536.255	43168.11
536.456	42703.22
536.657	43696.49
536.857	43125.1
537.058	42971.5
537.259	43387.24
537.46	43104.62
537.66	43004.27
537.861	43526.5
538.062	42848.63
538.263	43381.1
538.463	42908.02
538.664	43051.38
538.865	43225.45
539.065	43467.11
539.266	42922.35
539.466	43659.62
539.667	43204.97
539.868	43245.93
540.068	43071.85
540.269	43139.44
540.469	43188.59
540.67	43170.16
540.87	43129.2
541.071	42981.74
541.271	43028.85
541.472	43247.98
541.672	42785.14
541.873	43000.18
542.073	42682.74
542.274	43583.85
542.474	42912.11
542.675	42617.21
542.875	42822
543.075	43108.72
543.276	42473.85
543.476	43182.45
543.676	42557.81
543.877	42916.21
544.077	43149.68
544.277	42910.07
544.478	42934.64
544.678	43116.91
544.878	42596.73
545.078	42885.49
545.279	42490.23
545.479	42830.19
545.679	42934.64
545.879	42715.51
546.079	42858.87
546.28	42951.02
546.48	42115.45
546.68	42621.3
546.88	42776.95
547.08	42408.31
547.28	42418.55
547.48	42637.69
547.68	42637.69
547.88	42518.9
548.081	42817.91
548.281	42705.27
548.481	42451.32
548.681	42682.74
548.881	42463.61
549.081	42563.96
549.28	42303.87
549.48	42559.86
549.68	42639.73
549.88	42948.98
550.08	42219.9
550.28	42367.35
550.48	42379.64
550.68	43039.09
550.88	41896.32
551.08	42527.1
551.279	42303.87
551.479	41953.66
551.679	42072.45
551.879	42400.12
552.079	42027.39
552.278	42088.83
552.478	42391.93
552.678	42551.67
552.878	42402.17
553.077	42027.39
553.277	41603.46
553.477	42641.78
553.676	42088.83
553.876	42031.49
554.076	41894.27
554.275	42019.2
554.475	41652.61
554.674	42353.02
554.874	41605.51
555.074	41802.11
555.273	41777.54
555.473	42125.69
555.672	41562.5
555.872	41918.85
556.071	41724.29
556.271	42004.86
556.47	41587.08
556.67	41415.05
556.869	41331.08
557.068	41423.24
557.268	41101.71
557.467	41279.88
557.667	41316.75
557.866	40929.68
558.065	41318.79
558.265	41367.94
558.464	40808.85
558.663	41363.85
558.863	40640.92
559.062	41326.99
559.261	40411.54
559.461	41263.5
559.66	40468.89
559.859	40860.05
560.058	40528.28
560.258	40817.04
560.457	40532.37
560.656	40792.47
560.855	40530.33
561.054	40298.91
561.253	40235.42
561.453	40548.76
561.652	40481.17
561.851	39979.42
562.05	39887.26
562.249	39803.3
562.448	40018.33
562.647	39815.58
562.846	39817.63
563.045	40102.3
563.244	39793.06
563.443	40210.84
563.642	39573.92
563.841	39676.32
564.04	39492.01
564.239	39674.27
564.438	39418.28
564.637	39643.56
564.836	39451.05
565.035	38861.23
565.234	39115.18
565.432	38914.48
565.631	39315.88
565.83	38603.19
566.029	38621.62
566.228	38595
566.427	38498.74
566.625	38527.41
566.824	38226.36
567.023	38525.36
567.222	37927.36
567.42	38728.11
567.619	38140.35
567.818	38472.12
568.016	38035.9
568.215	38191.55
568.414	37872.06
568.612	38396.34
568.811	37646.79
569.01	37747.14
569.208	37550.53
569.407	37874.11
569.605	36886.99
569.804	37650.88
570.002	37136.84
570.201	37204.42
570.4	37308.87
570.598	36905.42
570.797	36856.27
570.995	36854.22
571.193	36518.35
571.392	36876.75
571.59	36104.67
571.789	36395.48
571.987	36413.91
572.186	36428.24
572.384	36352.47
572.582	36354.52
572.781	36428.24
572.979	35793.37
573.177	36278.74
573.376	35748.32
573.574	35537.38
573.772	35891.68
573.971	35592.67
574.169	35314.15
574.367	35371.49
574.565	35348.96
574.763	35297.77
574.962	35080.68
575.16	35154.41
575.358	35037.67
575.556	34634.22
575.754	35185.13
575.952	34378.23
576.151	35131.88
576.349	34191.86
576.547	34208.25
576.745	34611.7
576.943	34712.05
577.141	34130.42
577.339	34533.87
577.537	34189.81
577.735	34302.45
577.933	33593.86
578.131	33796.6
578.329	33559.04
578.527	33208.84
578.725	33380.87
578.923	33747.45
579.121	33382.91
579.319	33354.24
579.516	33595.9
579.714	33356.29
579.912	33120.77
580.11	33116.68
580.308	32850.44
580.506	32688.65
580.704	32492.05
580.901	32764.43
581.099	32872.97
581.297	32258.58
581.495	32037.4
581.692	32350.74
581.89	32059.93
582.088	32565.78
582.285	32145.94
582.483	32150.04
582.681	32154.13
582.878	32115.22
583.076	31971.86
583.274	32360.98
583.471	31414.82
583.669	31789.59
583.866	31046.18
584.064	31662.62
584.262	31074.85
584.459	31717.92
584.657	31257.12
584.854	31410.72
585.052	30749.23
585.249	31015.46
585.447	30972.46
585.644	30630.44
585.841	30857.77
586.039	31007.27
586.236	30241.33
586.434	30323.25
586.631	30464.56
586.828	30130.74
587.026	30409.26
587.223	30450.22
587.42	29919.8
587.618	29946.42
587.815	29708.86
588.012	29784.63
588.21	29735.48
588.407	29860.41
588.604	29731.39
588.801	29346.37
588.999	29317.7
589.196	29375.04
589.393	29540.93
589.59	29160
589.787	29207.11
589.984	29155.91
590.182	28512.84
590.379	28981.83
590.576	28734.03
590.773	28633.68
590.97	28238.42
591.167	29051.46
591.364	28617.29
591.561	28475.98
591.758	28160.59
591.955	28187.22
592.152	28324.43
592.349	28082.77
592.546	28283.47
592.743	28183.12
592.94	27499.1
593.137	27740.76
593.334	27775.58
593.531	27353.69
593.727	27347.55
593.924	27581.02
594.121	27241.06
594.318	27583.07
594.515	27406.94
594.712	27429.47
594.908	26741.35
595.105	27120.23
595.302	26681.96
595.499	26837.61
595.696	26792.55
595.892	26700.39
596.089	26458.73
596.286	26688.1
596.482	26493.55
596.679	26604.14
596.876	26462.83
597.072	26032.75
597.269	26247.79
597.466	26108.53
597.662	26190.45
597.859	25911.92
598.055	25995.89
598.252	25688.7
598.448	25832.05
598.645	25365.12
598.841	25385.6
599.038	25379.45
599.234	25717.37
599.431	24959.62
599.627	25209.47
599.824	25178.75
600.02	25033.35
600.217	24992.39
600.413	24853.12
600.609	24916.61
600.806	24707.72
601.002	25053.83
601.198	24302.22
601.395	24638.09
601.591	24482.44
601.787	24427.15
601.984	24322.7
602.18	24480.39
602.376	24337.04
602.572	24332.94
602.769	24140.43
602.965	23687.83
603.161	24052.37
603.357	23872.15
603.553	23782.04
603.75	23734.93
603.946	23741.08
604.142	23923.35
604.338	23378.59
604.534	23634.58
604.73	23417.5
604.926	22968.99
605.122	23339.68
605.318	22995.62
605.514	22991.52
605.71	22985.38
605.906	22731.43
606.102	22803.11
606.298	22753.96
606.494	22897.31
606.69	22739.62
606.886	22848.16
607.082	22514.34
607.278	22713
607.474	22000.3
607.67	22514.34
607.866	22540.97
608.062	22624.93
608.257	22289.07
608.453	22176.43
608.649	22162.09
608.845	21985.97
609.041	22182.57
609.236	22037.17
609.432	21969.58
609.628	21875.38
609.824	21973.68
610.019	21734.07
610.215	21961.39
610.411	21789.36
610.606	21764.79
610.802	21779.12
610.998	21912.24
611.193	21693.11
611.389	21441.21
611.584	21318.33
611.78	21156.54
611.976	21643.96
612.171	21512.89
612.367	21615.29
612.562	21285.56
612.758	20935.36
612.953	21199.55
613.149	21357.24
613.344	21045.95
613.539	21363.39
613.735	21158.59
613.93	21041.85
614.126	20617.93
614.321	21359.29
614.517	21041.85
614.712	20929.22
614.907	20595.4
615.103	21052.09
615.298	20681.41
615.493	20966.08
615.688	20265.67
615.884	20751.04
616.079	20476.62
616.274	20787.91
616.47	20394.7
616.665	20966.08
616.86	20277.96
617.055	20419.27
617.25	20433.61
617.445	20585.16
617.641	20079.31
617.836	20411.08
618.031	20009.68
618.226	20136.65
618.421	19925.71
618.616	19804.88
618.811	19835.6
619.006	20011.73
619.201	19186.4
619.396	19829.46
619.591	19284.7
619.786	19522.26
619.981	19188.44
620.176	19604.18
620.371	19161.82
620.566	19063.52
620.761	19133.15
620.956	19335.9
621.151	18713.31
621.346	19069.66
621.541	18387.69
621.735	18985.69
621.93	18498.28
622.125	18574.05
622.32	18191.08
622.515	18330.34
622.709	18297.58
622.904	18219.75
623.099	18361.06
623.294	18201.32
623.488	18000.62
623.683	17928.94
623.878	17662.71
624.072	17478.39
624.267	17658.61
624.462	17328.89
624.656	17310.46
624.851	17394.42
625.046	17050.36
625.24	17232.63
625.435	16843.52
625.629	17091.32
625.824	16771.84
626.018	16763.65
626.213	16343.81
626.407	16814.85
626.602	16233.22
626.796	16413.45
626.991	16200.46
627.185	16145.16
627.38	16020.24
627.574	16044.81
627.768	15840.01
627.963	16010
628.157	15614.74
628.352	15897.36
628.546	15569.68
628.74	15710.99
628.935	15360.79
629.129	15493.91
629.323	15115.03
629.517	15135.51
629.712	15084.31
629.906	15061.79
630.1	14715.68
630.294	14816.03
630.489	14740.26
630.683	14859.04
630.877	14555.94
631.071	14306.09
631.265	14818.08
631.459	14299.94
631.653	14244.65
631.848	14324.52
632.042	13876.01
632.236	14236.45
632.43	13675.31
632.624	13773.61
632.818	13933.36
633.012	13937.45
633.206	13620.02
633.4	13802.29
633.594	13411.12
633.788	13636.4
633.982	13620.02
634.176	13597.49
634.369	13114.17
634.563	13478.71
634.757	13374.26
634.951	13259.57
635.145	13101.88
635.339	13148.98
635.533	12755.77
635.726	13013.82
635.92	12579.65
636.114	12731.2
636.308	12811.07
636.501	12630.85
636.695	12716.86
636.889	12407.62
637.083	12493.63
637.276	12499.78
637.47	12151.62
637.664	12407.62
637.857	12301.12
638.051	12004.17
638.244	11991.88
638.438	12065.61
638.632	11944.78
638.825	11739.98
639.019	11826
639.212	11686.73
639.406	11844.43
639.599	11871.05
639.793	11719.5
639.986	11148.12
640.18	11504.46
640.373	11498.32
640.567	11248.47
640.76	11318.1
640.954	11078.49
641.147	11191.13
641.34	11017.05
641.534	11062.1
641.727	11146.07
641.92	10992.47
642.114	10978.14
642.307	10861.4
642.5	10646.37
642.694	10685.28
642.887	10615.65
643.08	10580.83
643.273	10578.78
643.467	10333.03
643.66	10500.96
643.853	10273.64
644.046	10185.57
644.239	10279.78
644.432	10175.33
644.626	10167.14
644.819	10052.45
645.012	10175.33
645.205	9993.06
645.398	9845.61
645.591	9792.36
645.784	9794.41
645.977	9888.62
646.17	9622.38
646.363	9612.14
646.556	9585.52
646.749	9614.19
646.942	9552.75
647.135	9341.81
647.328	9423.73
647.521	9306.99
647.714	9401.2
647.907	9180.02
648.099	9229.17
648.292	9317.23
648.485	9171.83
648.678	9042.81
648.871	9061.24
649.064	8975.22
649.256	9083.77
649.449	8950.65
649.642	8788.86
649.835	8786.81
650.027	8764.28
650.22	8704.89
650.413	8651.64
650.605	8510.33
650.798	8715.13
650.991	8459.13
651.183	8645.5
651.376	8498.05
651.568	8422.27
651.761	8461.18
651.954	8207.23
652.146	8383.36
652.339	8326.02
652.531	8289.15
652.724	8094.6
652.916	8055.69
653.109	7984.01
653.301	8084.36
653.494	8029.06
653.686	7897.99
653.879	8055.69
654.071	7885.7
654.263	7715.72
654.456	7871.37
654.648	7760.78
654.84	7605.13
655.033	7740.3
655.225	7738.25
655.417	7555.98
655.61	7564.17
655.802	7553.93
655.994	7406.48
656.186	7357.33
656.379	7394.19
656.571	7545.74
656.763	7299.98
656.955	7195.54
657.148	7230.35
657.34	7287.7
657.532	7115.67
657.724	7023.51
657.916	7035.8
658.108	7156.63
658.3	7150.48
658.492	6980.5
658.684	7013.27
658.876	6837.14
659.068	6888.34
659.26	6642.59
659.452	6894.49
659.644	6648.73
659.836	6687.64
660.028	6683.55
660.22	6650.78
660.412	6796.18
660.604	6609.82
660.796	6587.29
660.988	6634.39
661.18	6587.29
661.372	6466.46
661.563	6460.32
661.755	6380.45
661.947	6441.89
662.139	6222.75
662.331	6413.21
662.522	6235.04
662.714	6169.51
662.906	6075.3
663.097	6060.96
663.289	6101.92
663.481	6232.99
663.673	6165.41
663.864	6013.86
664.056	5819.3
664.247	6011.81
664.439	5888.93
664.631	5809.06
664.822	5868.45
665.014	5680.04
665.205	5786.54
665.397	5755.82
665.588	5790.63
665.78	5882.79
665.971	5786.54
666.163	5606.31
666.354	5690.28
666.546	5706.66
666.737	5460.91
666.929	5602.22
667.12	5514.16
667.311	5573.55
667.503	5311.41
667.694	5317.55
667.885	5397.42
668.077	5401.52
668.268	5387.18
668.459	5444.52
668.651	5299.12
668.842	5301.17
669.033	5383.09
669.224	5110.71
669.416	5325.74
669.607	5256.11
669.798	5305.26
669.989	5268.4
670.18	5071.79
670.371	5153.71
670.563	5114.8
670.754	5010.36
670.945	4996.02
671.136	4987.83
671.327	5131.19
671.518	4936.63
671.709	5014.45
671.9	4860.85
672.091	4983.73
672.282	4871.09
672.473	4752.31
672.664	4799.41
672.855	4912.05
673.046	4760.5
673.237	4785.08
673.428	4883.38
673.619	4785.08
673.809	4809.65
674	4699.06
674.191	4674.49
674.382	4576.19
674.573	4692.92
674.764	4705.21
674.954	4680.63
675.145	4602.81
675.336	4633.53
675.527	4690.87
675.717	4654.01
675.908	4686.78
676.099	4531.13
676.289	4420.54
676.48	4645.82
676.671	4434.88
676.861	4522.94
677.052	4490.17
677.243	4336.57
677.433	4451.26
677.624	4500.41
677.814	4395.96
678.005	4383.68
678.195	4379.58
678.386	4185.02
678.576	4090.82
678.767	4506.56
678.957	4352.96
679.148	4234.18
679.338	4293.57
679.529	4207.55
679.719	4086.72
679.909	4273.09
680.1	4244.42
680.29	4211.65
680.481	4219.84
680.671	4135.87
680.861	4180.93
681.052	4135.87
681.242	4035.52
681.432	4246.46
681.622	4125.63
681.813	4017.09
682.003	3935.17
682.193	4191.17
682.383	4228.03
682.573	4115.39
682.764	3912.64
682.954	4056
683.144	4015.04
683.334	3929.03
683.524	3986.37
683.714	4133.82
683.904	4047.81
684.094	3974.08
684.284	3961.8
684.474	3939.27
684.664	3912.64
684.854	3929.03
685.044	3886.02
685.234	3836.87
685.424	3900.36
685.614	3818.44
685.804	3869.64
685.994	3840.97
686.184	3861.45
686.374	3795.91
686.564	3765.19
686.753	3906.5
686.943	3668.94
687.133	3767.24
687.323	3793.86
687.513	3777.48
687.702	3697.61
687.892	3675.08
688.082	3627.98
688.272	3734.47
688.461	3750.85
688.651	3668.94
688.841	3433.42
689.03	3519.43
689.22	3564.49
689.41	3478.47
689.599	3451.85
689.789	3472.33
689.979	3490.76
690.168	3503.05
690.358	3519.43
690.547	3427.28
690.737	3617.74
690.926	3380.17
691.116	3304.4
691.305	3472.33
691.495	3470.28
691.684	3378.12
691.874	3331.02
692.063	3331.02
692.252	3388.36
692.442	3175.38
692.631	3376.08
692.82	3304.4
693.01	3251.15
693.199	3322.83
693.388	3146.7
693.578	3230.67
693.767	3181.52
693.956	3191.76
694.146	3140.56
694.335	3089.36
694.524	3150.8
694.713	3062.74
694.902	3013.59
695.092	3072.98
695.281	3062.74
695.47	3064.79
695.659	2999.25
695.848	3017.68
696.037	3091.41
696.226	3048.4
696.415	3060.69
696.604	3040.21
696.793	2851.8
696.982	3046.35
697.171	3075.03
697.36	2894.8
697.549	2986.96
697.738	2929.62
697.927	2886.61
698.116	2980.82
698.305	2939.86
698.494	3015.63
698.683	3023.83
698.872	2837.46
699.061	2884.56
699.25	2876.37
699.438	2853.84
699.627	2915.28
699.816	2974.67
700.005	2948.05
700.193	2853.84
700.382	2827.22
700.571	2843.6
700.76	2888.66
700.948	2829.27
701.137	2812.89
701.326	2868.18
701.514	2720.73
701.703	2798.55
701.892	2769.88
702.08	2800.6
702.269	2765.78
702.457	2814.93
702.646	2847.7
702.834	2825.17
703.023	2704.34
703.212	2704.34
703.4	2872.28
703.589	2814.93
703.777	2765.78
703.965	2814.93
704.154	2853.84
704.342	2679.77
704.531	2741.21
704.719	2771.93
704.907	2808.79
705.096	2700.25
705.284	2687.96
705.472	2794.45
705.661	2749.4
705.849	2737.11
706.037	2663.38
706.226	2718.68
706.414	2728.92
706.602	2751.45
706.79	2765.78
706.979	2636.76
707.167	2755.54
707.355	2644.95
707.543	2603.99
707.731	2827.22
707.919	2644.95
708.107	2667.48
708.296	2626.52
708.484	2778.07
708.672	2606.04
708.86	2747.35
709.048	2802.65
709.236	2589.66
709.424	2739.16
709.612	2726.87
709.8	2743.25
709.988	2716.63
710.176	2663.38
710.364	2651.1
710.551	2663.38
710.739	2556.89
710.927	2667.48
711.115	2618.33
711.303	2673.62
711.491	2687.96
711.679	2569.18
711.866	2661.34
712.054	2597.85
712.242	2565.08
712.43	2702.29
712.617	2589.66
712.805	2667.48
712.993	2640.86
713.181	2591.7
713.368	2462.68
713.556	2614.23
713.744	2626.52
713.931	2565.08
714.119	2614.23
714.306	2681.82
714.494	2599.9
714.682	2487.26
714.869	2622.42
715.057	2546.65
715.244	2655.19
715.432	2606.04
715.619	2597.85
715.807	2544.6
715.994	2591.7
716.182	2552.79
716.369	2569.18
716.556	2669.53
716.744	2520.03
716.931	2569.18
717.119	2667.48
717.306	2532.31
717.493	2679.77
717.681	2536.41
717.868	2626.52
718.055	2538.46
718.242	2442.2
718.43	2591.7
718.617	2540.51
718.804	2522.07
718.991	2597.85
719.179	2601.94
719.366	2458.59
719.553	2548.7
719.74	2438.11
719.927	2417.63
720.114	2481.11
720.301	2573.27
720.488	2419.68
720.676	2495.45
720.863	2567.13
721.05	2585.56
721.237	2612.18
721.424	2618.33
721.611	2483.16
721.798	2503.64
721.985	2567.13
722.172	2616.28
722.358	2395.1
722.545	2614.23
722.732	2503.64
722.919	2563.03
723.106	2405.34
723.293	2579.42
723.48	2560.98
723.667	2501.59
723.853	2466.78
724.04	2552.79
724.227	2569.18
724.414	2526.17
724.6	2552.79
724.787	2405.34
724.974	2536.41
725.161	2462.68
725.347	2421.72
725.534	2409.44
725.72	2507.74
725.907	2548.7
726.094	2487.26
726.28	2464.73
726.467	2487.26
726.653	2409.44
726.84	2556.89
727.027	2651.1
727.213	2456.54
727.4	2552.79
727.586	2540.51
727.773	2427.87
727.959	2534.36
728.145	2542.55
728.332	2366.43
728.518	2434.01
728.705	2360.28
728.891	2464.73
729.077	2491.35
729.264	2464.73
729.45	2352.09
729.636	2540.51
729.823	2403.29
730.009	2491.35
730.195	2436.06
730.382	2436.06
730.568	2534.36
730.754	2440.15
730.94	2399.2
731.126	2483.16
731.313	2438.11
731.499	2440.15
731.685	2456.54
731.871	2307.04
732.057	2468.83
732.243	2550.75
732.429	2364.38
732.615	2520.03
732.801	2485.21
732.987	2487.26
733.173	2401.24
733.359	2538.46
733.545	2368.48
733.731	2517.98
733.917	2468.83
734.103	2436.06
734.289	2556.89
734.475	2407.39
734.661	2520.03
734.847	2409.44
735.033	2393.05
735.219	2440.15
735.404	2421.72
735.59	2524.12
735.776	2372.57
735.962	2366.43
736.148	2391
736.333	2401.24
736.519	2503.64
736.705	2438.11
736.89	2460.63
737.076	2446.3
737.262	2429.91
737.447	2294.75
737.633	2352.09
737.819	2393.05
738.004	2364.38
738.19	2440.15
738.375	2294.75
738.561	2304.99
738.747	2384.86
738.932	2413.53
739.118	2307.04
739.303	2286.56
739.489	2321.37
739.674	2163.68
739.859	2282.46
740.045	2294.75
740.23	2284.51
740.416	2290.65
740.601	2239.45
740.786	2335.71
740.972	2225.12
741.157	2319.32
741.342	2153.44
741.528	2286.56
741.713	2272.22
741.898	2241.5
742.084	2374.62
742.269	2225.12
742.454	2235.36
742.639	2143.2
742.824	2274.27
743.01	2253.79
743.195	2163.68
743.38	2020.32
743.565	2106.34
743.75	2059.23
743.935	2182.11
744.12	2223.07
744.305	2178.01
744.49	2169.82
744.675	2092
744.86	2087.9
745.045	2200.54
745.23	2190.3
745.415	2096.1
745.6	2061.28
745.785	2051.04
745.97	2178.01
746.155	2016.23
746.34	2085.86
746.525	1999.84
746.71	2034.66
746.895	2085.86
747.079	2034.66
747.264	2005.99
747.449	2046.94
747.634	2014.18
747.819	2075.62
748.003	2053.09
748.188	1942.5
748.373	1993.7
748.557	2024.42
748.742	1911.78
748.927	1993.7
749.111	1831.91
749.296	1811.43
749.481	1922.02
749.665	1874.92
749.85	1836
750.034	1897.44
750.219	1778.66
750.404	1846.24
750.588	1840.1
750.773	1778.66
750.957	1776.61
751.141	1809.38
751.326	1809.38
751.51	1627.11
751.695	1784.8
751.879	1725.41
752.064	1690.6
752.248	1641.45
752.432	1623.02
752.617	1770.47
752.801	1682.41
752.985	1674.21
753.17	1635.3
753.354	1678.31
753.538	1672.17
753.722	1639.4
753.907	1455.08
754.091	1623.02
754.275	1608.68
754.459	1491.95
754.643	1438.7
754.828	1518.57
755.012	1467.37
755.196	1534.95
755.38	1530.86
755.564	1516.52
755.748	1475.56
755.932	1586.15
756.116	1463.27
756.3	1448.94
756.484	1455.08
756.668	1477.61
756.852	1352.68
757.036	1354.73
757.22	1393.64
757.404	1461.23
757.588	1350.64
757.772	1356.78
757.956	1326.06
758.14	1317.87
758.323	1367.02
758.507	1385.45
758.691	1336.3
758.875	1252.33
759.059	1291.24
759.242	1360.88
759.426	1436.65
759.61	1307.63
759.794	1248.24
759.977	1336.3
760.161	1336.3
760.345	1260.52
760.528	1242.09
760.712	1264.62
760.895	1272.81
761.079	1242.09
761.263	1364.97
761.446	1256.43
761.63	1242.09
761.813	1238
761.997	1192.94
762.18	1203.18
762.364	1240.05
762.547	1164.27
762.731	1217.52
762.914	1256.43
763.098	1086.45
763.281	1123.31
763.464	1084.4
763.648	1147.89
763.831	1104.88
764.015	1141.74
764.198	1252.33
764.381	1270.76
764.564	1156.08
764.748	1192.94
764.931	1092.59
765.114	1129.45
765.297	1182.7
765.481	1123.31
765.664	1012.72
765.847	1184.75
766.03	1106.93
766.213	1113.07
766.397	1072.11
766.58	1065.97
766.763	1037.3
766.946	1057.78
767.129	1082.35
767.312	1057.78
767.495	1090.54
767.678	990.19
767.861	1094.64
768.044	1035.25
768.227	1033.2
768.41	1102.83
768.593	1061.87
768.776	912.37
768.959	1031.15
769.142	1061.87
769.324	967.67
769.507	889.84
769.69	1082.35
769.873	967.67
770.056	967.67
770.239	1078.26
770.421	1037.3
770.604	1008.62
770.787	920.56
770.97	959.47
771.152	977.91
771.335	912.37
771.518	900.08
771.7	977.91
771.883	934.9
772.066	893.94
772.248	992.24
772.431	990.19
772.613	887.79
772.796	996.34
772.978	963.57
773.161	910.32
773.343	824.31
773.526	891.89
773.708	867.31
773.891	904.18
774.073	936.95
774.256	932.85
774.438	945.14
774.621	865.27
774.803	795.64
774.985	783.35
775.168	803.83
775.35	844.79
775.532	754.68
775.715	832.5
775.897	734.2
776.079	842.74
776.261	752.63
776.444	803.83
776.626	764.92
776.808	783.35
776.99	785.4
777.173	791.54
777.355	801.78
777.537	816.12
777.719	715.77
777.901	736.24
778.083	754.68
778.265	701.43
778.447	683
778.629	685.05
778.811	646.13
778.993	746.48
779.175	764.92
779.357	738.29
779.539	658.42
779.721	719.86
779.903	762.87
780.085	637.94
780.267	756.72
780.449	670.71
780.631	672.76
780.812	646.13
780.994	705.53
781.176	674.81
781.358	654.33
781.54	603.13
781.721	617.46
781.903	605.17
782.085	599.03
782.267	635.89
782.448	582.65
782.63	537.59
782.812	668.66
782.993	603.13
783.175	617.46
783.357	570.36
783.538	607.22
783.72	480.25
783.901	543.74
784.083	611.32
784.264	594.93
784.446	590.84
784.627	519.16
784.809	537.59
784.99	498.68
785.172	545.78
785.353	525.3
785.535	496.63
785.716	510.97
785.897	474.1
786.079	521.21
786.26	519.16
786.441	521.21
786.623	541.69
786.804	506.87
786.985	424.95
787.167	379.9
787.348	472.06
787.529	470.01
787.71	498.68
787.891	519.16
788.073	398.33
788.254	396.28
788.435	406.52
788.616	508.92
788.797	418.81
788.978	521.21
789.159	420.86
789.34	427
789.522	437.24
789.703	435.19
789.884	441.34
790.065	429.05
790.246	457.72
790.427	453.63
790.607	455.67
790.788	418.81
790.969	463.86
791.15	377.85
791.331	336.89
791.512	429.05
791.693	392.19
791.874	386.04
792.054	459.77
792.235	406.52
792.416	326.65
792.597	465.91
792.778	345.08
792.958	476.15
793.139	402.43
793.32	394.23
793.5	404.47
793.681	361.47
793.862	386.04
794.042	302.08
794.223	277.5
794.404	349.18
794.584	388.09
794.765	291.84
794.945	375.8
795.126	349.18
795.306	400.38
795.487	347.13
795.667	269.31
795.848	314.36
796.028	367.61
796.209	216.06
796.389	396.28
796.57	306.17
796.75	336.89
796.93	373.75
797.111	273.4
797.291	336.89
797.471	308.22
797.652	375.8
797.832	283.64
798.012	324.6
798.192	332.79
798.373	304.12
798.553	322.56
798.733	308.22
798.913	287.74
799.093	312.32
799.274	252.92
799.454	322.56
799.634	361.47
799.814	340.99
799.994	189.44
800.174	230.4
800.354	238.59
800.534	254.97
800.714	340.99
800.894	308.22
801.074	265.21
801.254	261.12
801.434	277.5
801.614	297.98
801.794	252.92
801.974	683
802.154	236.54
802.334	259.07
802.514	320.51
802.693	293.88
802.873	242.68
803.053	226.3
803.233	257.02
803.413	236.54
803.592	224.25
803.772	166.91
803.952	295.93
804.131	220.16
804.311	259.07
804.491	263.16
804.67	207.87
804.85	232.44
805.03	246.78
805.209	252.92
805.389	216.06
805.568	211.96
805.748	271.36
805.928	187.39
806.107	162.81
806.287	293.88
806.466	250.88
806.646	152.57
806.825	205.82
807.004	261.12
807.184	236.54
807.363	285.69
807.543	189.44
807.722	230.4
807.901	283.64
808.081	205.82
808.26	136.19
808.439	211.96
808.619	164.86
808.798	234.49
808.977	156.67
809.156	220.16
809.336	201.72
809.515	214.01
809.694	195.58
809.873	214.01
810.052	148.48
810.231	205.82
810.411	171.01
810.59	228.35
810.769	224.25
810.948	166.91
811.127	171.01
811.306	177.15
811.485	183.29
811.664	222.2
811.843	263.16
812.022	207.87
812.201	209.92
812.38	193.53
812.559	140.29
812.737	224.25
812.916	160.77
813.095	189.44
813.274	228.35
813.453	160.77
813.632	152.57
813.811	289.79
813.989	109.57
814.168	156.67
814.347	101.37
814.526	144.38
814.704	156.67
814.883	156.67
815.062	95.23
815.24	154.62
815.419	187.39
815.598	175.1
815.776	197.63
815.955	168.96
816.133	130.05
816.312	187.39
816.49	111.61
816.669	103.42
816.847	211.96
817.026	201.72
817.204	115.71
817.383	142.33
817.561	177.15
817.74	142.33
817.918	193.53
818.097	158.72
818.275	187.39
818.453	218.11
818.632	113.66
818.81	93.18
818.988	146.43
819.167	150.53
819.345	142.33
819.523	107.52
819.701	146.43
819.879	220.16
820.058	115.71
820.236	185.34
820.414	87.04
820.592	95.23
820.77	123.9
820.948	138.24
821.127	136.19
821.305	205.82
821.483	103.42
821.661	123.9
821.839	197.63
822.017	138.24
822.195	82.94
822.373	99.33
822.551	168.96
822.729	179.2
822.907	95.23
823.085	105.47
823.262	156.67
823.44	162.81
823.618	99.33
823.796	44.03
823.974	91.13
824.152	125.95
824.329	113.66
824.507	156.67
824.685	74.75
824.863	101.37
825.04	164.86
825.218	107.52
825.396	115.71
825.574	144.38
825.751	125.95
825.929	125.95
826.107	97.28
826.284	99.33
826.462	189.44
826.639	41.98
826.817	72.7
826.994	60.42
827.172	89.09
827.349	148.48
827.527	156.67
827.704	84.99
827.882	117.76
828.059	119.81
828.237	99.33
828.414	181.25
828.591	64.51
828.769	142.33
828.946	136.19
829.124	132.09
829.301	136.19
829.478	54.27
829.655	84.99
829.833	82.94
830.01	89.09
830.187	111.61
830.364	89.09
830.542	74.75
830.719	78.85
830.896	-9.22
831.073	138.24
831.25	80.89
831.427	119.81
831.604	166.91
831.782	48.13
831.959	123.9
832.136	58.37
832.313	23.55
832.49	117.76
832.667	44.03
832.844	60.42
833.021	37.89
833.198	156.67
833.374	101.37
833.551	74.75
833.728	62.46
833.905	105.47
834.082	74.75
834.259	142.33
834.436	160.77
834.612	-23.55
834.789	101.37
834.966	78.85
835.143	82.94
835.319	44.03
835.496	132.09
835.673	50.18
835.85	99.33
836.026	78.85
836.203	146.43
836.38	33.79
836.556	17.41
836.733	89.09
836.909	130.05
837.086	62.46
837.262	54.27
837.439	58.37
837.616	95.23
837.792	58.37
837.968	128
838.145	41.98
838.321	146.43
838.498	60.42
838.674	41.98
838.851	101.37
839.027	109.57
839.203	103.42
839.38	82.94
839.556	156.67
839.732	191.49
839.909	80.89
840.085	64.51
840.261	21.5
840.437	56.32
840.614	7.17
840.79	97.28
840.966	66.56
841.142	19.46
841.318	72.7
841.494	97.28
841.671	39.94
841.847	76.8
842.023	109.57
842.199	62.46
842.375	58.37
842.551	64.51
842.727	23.55
842.903	74.75
843.079	74.75
843.255	35.84
843.431	93.18
843.607	58.37
843.783	70.65
843.959	66.56
844.134	91.13
844.31	89.09
844.486	148.48
844.662	19.46
844.838	80.89
845.013	82.94
845.189	101.37
845.365	152.57
845.541	111.61
845.716	68.61
845.892	103.42
846.068	121.85
846.244	-19.46
846.419	160.77
846.595	7.17
846.77	56.32
846.946	64.51
847.122	103.42
847.297	9.22
847.473	107.52
847.648	44.03
847.824	56.32
847.999	111.61
848.175	99.33
848.35	13.31
848.526	5.12
848.701	46.08
848.876	87.04
849.052	33.79
849.227	95.23
849.403	13.31
849.578	68.61
849.753	44.03
849.929	64.51
850.104	64.51
850.279	146.43
850.454	68.61
850.63	68.61
850.805	76.8
850.98	35.84
851.155	-9.22
851.33	56.32
851.505	87.04
851.681	66.56
851.856	64.51
852.031	37.89
852.206	25.6
852.381	17.41
852.556	31.74
852.731	56.32
852.906	97.28
853.081	50.18
853.256	25.6
853.431	37.89
853.606	5.12
853.781	19.46
853.956	95.23
854.131	19.46
854.305	33.79
854.48	62.46
854.655	91.13
854.83	31.74
855.005	64.51
855.18	56.32
855.354	-3.07
855.529	27.65
855.704	7.17
855.879	68.61
856.053	80.89
856.228	17.41
856.403	5.12
856.577	33.79
856.752	72.7
856.926	9.22
857.101	25.6
857.276	107.52
857.45	111.61
857.625	70.65
857.799	33.79
857.974	48.13
858.148	13.31
858.323	107.52
858.497	-23.55
858.672	82.94
858.846	33.79
859.02	41.98
859.195	48.13
859.369	113.66
859.543	-48.13
859.718	72.7
859.892	9.22
860.066	58.37
860.241	91.13
860.415	-1.02
860.589	-1.02
860.763	52.22
860.938	-29.7
861.112	1.02
861.286	21.5
861.46	5.12
861.634	48.13
861.808	1.02
861.982	37.89
862.157	25.6
862.331	-58.37
862.505	80.89
862.679	17.41
862.853	78.85
863.027	-44.03
863.201	52.22
863.375	-21.5
863.549	5.12
863.722	78.85
863.896	-46.08
864.07	13.31
864.244	84.99
864.418	35.84
864.592	-37.89
864.766	72.7
864.939	54.27
865.113	58.37
865.287	17.41
865.461	-27.65
865.634	19.46
865.808	17.41
865.982	27.65
866.156	44.03
866.329	39.94
866.503	64.51
866.676	15.36
866.85	13.31
867.024	62.46
867.197	50.18
867.371	31.74
867.544	1.02
867.718	-29.7
867.891	-41.98
868.065	62.46
868.238	29.7
868.412	11.26
868.585	-23.55
868.759	37.89
868.932	-3.07
869.105	-25.6
869.279	60.42
869.452	76.8
869.625	-15.36
869.799	5.12
869.972	-19.46
870.145	-35.84
870.319	87.04
870.492	44.03
870.665	27.65
870.838	54.27
871.011	25.6
871.185	23.55
871.358	-25.6
871.531	46.08
871.704	52.22
871.877	15.36
872.05	9.22
872.223	-19.46
872.396	50.18
872.569	52.22
872.742	19.46
872.915	17.41
873.088	-1.02
873.261	60.42
873.434	3.07
873.607	39.94
873.78	-31.74
873.953	17.41
874.126	-11.26
874.299	15.36
874.471	39.94
874.644	29.7
874.817	29.7
874.99	74.75
875.163	9.22
875.335	58.37
875.508	48.13
875.681	82.94
875.853	13.31
876.026	-17.41
876.199	27.65
876.371	35.84
876.544	89.09
876.717	13.31
876.889	17.41
877.062	35.84
877.234	5.12
877.407	-44.03
877.579	-31.74
877.752	82.94
877.924	17.41
878.097	54.27
878.269	-101.37
878.442	74.75
878.614	-17.41
878.786	33.79
878.959	15.36
879.131	27.65
879.303	-17.41
879.476	3.07
879.648	7.17
879.82	-15.36
879.993	29.7
880.165	5.12
880.337	-13.31
880.509	39.94
880.681	9.22
880.854	-17.41
881.026	-29.7
881.198	52.22
881.37	56.32
881.542	44.03
881.714	64.51
881.886	13.31
882.058	50.18
882.23	39.94
882.402	-3.07
882.574	33.79
882.746	17.41
882.918	93.18
883.09	68.61
883.262	27.65
883.434	3.07
883.606	-41.98
883.778	35.84
883.95	72.7
884.122	-23.55
884.293	-15.36
884.465	25.6
884.637	9.22
884.809	11.26
884.98	44.03
885.152	25.6
885.324	-48.13
885.496	-23.55
885.667	44.03
885.839	52.22
886.011	84.99
886.182	44.03
886.354	84.99
886.525	33.79
886.697	25.6
886.869	23.55
887.04	58.37
887.212	11.26
887.383	-3.07
887.555	-11.26
887.726	21.5
887.897	62.46
888.069	27.65
888.24	-27.65
888.412	-9.22
888.583	35.84
888.754	-39.94
888.926	-84.99
889.097	1.02
889.268	21.5
889.44	-5.12
889.611	11.26
889.782	-62.46
889.953	54.27
890.125	74.75
890.296	-46.08
890.467	52.22
890.638	91.13
890.809	-66.56
890.98	-25.6
891.151	56.32
891.323	39.94
891.494	46.08
891.665	-39.94
891.836	-25.6
892.007	39.94
892.178	54.27
892.349	9.22
892.52	-56.32
892.691	17.41
892.862	-39.94
893.032	-54.27
893.203	-58.37
893.374	-66.56
893.545	-3.07
893.716	39.94
893.887	9.22
894.057	5.12
894.228	-1.02
894.399	-7.17
894.57	1.02
894.74	60.42
894.911	76.8
895.082	21.5
895.253	46.08
895.423	58.37
895.594	33.79
895.764	48.13
895.935	-9.22
896.106	19.46
896.276	25.6
896.447	95.23
896.617	-5.12
896.788	87.04
896.958	-13.31
897.129	-15.36
897.299	29.7
897.47	19.46
897.64	33.79
897.81	13.31
897.981	15.36
898.151	-35.84
898.322	39.94
898.492	-44.03
898.662	37.89
898.832	-39.94
899.003	48.13
899.173	29.7
899.343	23.55
899.513	64.51
