Data from USB4F104151__16__11-04-49-754.txt Node

Date: Wed Mar 12 11:04:49 EDT 2025
User: louis
Spectrometer: USB4F10415
Trigger mode: 4
Integration Time (sec): 2.000000E-2
Scans to average: 1
Electric dark correction enabled: true
Nonlinearity correction enabled: false
Boxcar width: 0
XAxis mode: Wavelengths
Number of Pixels in Spectrum: 3648
>>>>>Begin Spectral Data<<<<<
178.204	-137.04
178.424	-137.04
178.644	-137.04
178.864	-24.4
179.084	-94.04
179.304	12.46
179.524	-14.17
179.744	4.27
179.964	-22.36
180.184	-55.12
180.404	-10.07
180.624	47.27
180.844	-12.12
181.064	-44.88
181.283	14.51
181.503	12.46
181.723	67.75
181.943	-63.32
182.163	37.03
182.383	-48.98
182.602	-53.08
182.822	4.27
183.042	2.22
183.262	10.41
183.482	6.31
183.701	26.79
183.921	14.51
184.141	34.99
184.361	-18.26
184.58	-3.93
184.8	26.79
185.02	43.18
185.239	39.08
185.459	2.22
185.679	2.22
185.898	-79.7
186.118	-24.4
186.338	47.27
186.557	22.7
186.777	-32.6
186.997	-48.98
187.216	59.56
187.436	43.18
187.655	10.41
187.875	-16.21
188.095	12.46
188.314	37.03
188.534	43.18
188.753	-16.21
188.973	-3.93
189.192	30.89
189.412	14.51
189.631	-20.31
189.851	-24.4
190.07	71.85
190.29	-28.5
190.509	-24.4
190.729	0.17
190.948	-26.45
191.168	86.19
191.387	16.55
191.607	-16.21
191.826	24.75
192.045	20.65
192.265	45.23
192.484	75.95
192.704	-5.97
192.923	-22.36
193.142	6.31
193.362	8.36
193.581	100.52
193.8	10.41
194.02	26.79
194.239	-5.97
194.458	-3.93
194.678	8.36
194.897	57.51
195.116	22.7
195.335	-46.93
195.555	4.27
195.774	-12.12
195.993	-30.55
196.212	-18.26
196.432	-30.55
196.651	8.36
196.87	-5.97
197.089	45.23
197.308	-1.88
197.528	32.94
197.747	-40.79
197.966	16.55
198.185	-1.88
198.404	-1.88
198.623	2.22
198.842	45.23
199.062	-30.55
199.281	71.85
199.5	80.04
199.719	-18.26
199.938	26.79
200.157	6.31
200.376	10.41
200.595	24.75
200.814	14.51
201.033	4.27
201.252	51.37
201.471	-3.93
201.69	28.84
201.909	4.27
202.128	10.41
202.347	6.31
202.566	55.47
202.785	-14.17
203.004	53.42
203.223	37.03
203.442	-22.36
203.661	18.6
203.879	51.37
204.098	20.65
204.317	-26.45
204.536	12.46
204.755	-14.17
204.974	65.71
205.193	-1.88
205.411	61.61
205.63	-30.55
205.849	6.31
206.068	32.94
206.287	32.94
206.505	-3.93
206.724	61.61
206.943	-14.17
207.162	34.99
207.381	-8.02
207.599	-5.97
207.818	16.55
208.037	-16.21
208.255	65.71
208.474	0.17
208.693	18.6
208.911	45.23
209.13	24.75
209.349	-34.64
209.567	20.65
209.786	26.79
210.005	-10.07
210.223	-10.07
210.442	-42.84
210.661	94.38
210.879	26.79
211.098	18.6
211.316	-89.94
211.535	73.9
211.753	10.41
211.972	-5.97
212.191	-34.64
212.409	77.99
212.628	84.14
212.846	-46.93
213.065	28.84
213.283	53.42
213.502	32.94
213.72	-38.74
213.938	26.79
214.157	73.9
214.375	-3.93
214.594	39.08
214.812	61.61
215.031	20.65
215.249	4.27
215.467	16.55
215.686	6.31
215.904	-5.97
216.122	49.32
216.341	30.89
216.559	-34.64
216.778	22.7
216.996	-14.17
217.214	-73.56
217.432	-38.74
217.651	-5.97
217.869	24.75
218.087	43.18
218.306	-67.41
218.524	-1.88
218.742	34.99
218.96	28.84
219.179	-34.64
219.397	41.13
219.615	-32.6
219.833	73.9
220.051	12.46
220.27	-44.88
220.488	51.37
220.706	24.75
220.924	-28.5
221.142	-8.02
221.36	47.27
221.578	6.31
221.796	14.51
222.015	16.55
222.233	-59.22
222.451	20.65
222.669	-36.69
222.887	-1.88
223.105	32.94
223.323	-36.69
223.541	-5.97
223.759	94.38
223.977	20.65
224.195	34.99
224.413	-10.07
224.631	80.04
224.849	26.79
225.067	37.03
225.285	26.79
225.503	10.41
225.721	4.27
225.939	6.31
226.157	39.08
226.375	55.47
226.592	32.94
226.81	10.41
227.028	-5.97
227.246	10.41
227.464	10.41
227.682	59.56
227.9	-38.74
228.117	14.51
228.335	67.75
228.553	-20.31
228.771	53.42
228.989	-22.36
229.206	-8.02
229.424	-42.84
229.642	39.08
229.86	51.37
230.077	-26.45
230.295	34.99
230.513	39.08
230.731	18.6
230.948	6.31
231.166	-96.08
231.384	-22.36
231.601	104.62
231.819	49.32
232.037	75.95
232.254	-5.97
232.472	-3.93
232.689	2.22
232.907	-5.97
233.125	8.36
233.342	43.18
233.56	16.55
233.777	34.99
233.995	59.56
234.213	65.71
234.43	16.55
234.648	-48.98
234.865	43.18
235.083	10.41
235.3	63.66
235.518	6.31
235.735	30.89
235.953	-16.21
236.17	6.31
236.388	26.79
236.605	14.51
236.822	34.99
237.04	45.23
237.257	63.66
237.475	-34.64
237.692	43.18
237.909	24.75
238.127	39.08
238.344	-1.88
238.562	47.27
238.779	-51.03
238.996	18.6
239.214	67.75
239.431	24.75
239.648	-26.45
239.865	39.08
240.083	22.7
240.3	63.66
240.517	65.71
240.735	104.62
240.952	34.99
241.169	67.75
241.386	102.57
241.603	37.03
241.821	-124.76
242.038	-53.08
242.255	12.46
242.472	20.65
242.689	-8.02
242.907	6.31
243.124	8.36
243.341	53.42
243.558	-14.17
243.775	20.65
243.992	-1.88
244.209	6.31
244.426	90.28
244.643	-51.03
244.86	-20.31
245.078	67.75
245.295	65.71
245.512	18.6
245.729	-20.31
245.946	-28.5
246.163	67.75
246.38	63.66
246.597	-18.26
246.814	34.99
247.031	-14.17
247.248	51.37
247.464	10.41
247.681	84.14
247.898	-30.55
248.115	47.27
248.332	75.95
248.549	-3.93
248.766	98.47
248.983	73.9
249.2	-1.88
249.417	47.27
249.633	2.22
249.85	63.66
250.067	10.41
250.284	20.65
250.501	-1.88
250.717	49.32
250.934	-8.02
251.151	37.03
251.368	57.51
251.585	18.6
251.801	34.99
252.018	-42.84
252.235	45.23
252.451	-18.26
252.668	-63.32
252.885	106.67
253.102	-22.36
253.318	-8.02
253.535	-3.93
253.752	41.13
253.968	16.55
254.185	2.22
254.401	104.62
254.618	28.84
254.835	43.18
255.051	-8.02
255.268	51.37
255.484	-42.84
255.701	-3.93
255.917	-1.88
256.134	47.27
256.351	10.41
256.567	-16.21
256.784	-5.97
257	-71.51
257.217	-16.21
257.433	2.22
257.65	24.75
257.866	39.08
258.082	4.27
258.299	10.41
258.515	47.27
258.732	-40.79
258.948	-18.26
259.165	37.03
259.381	4.27
259.597	43.18
259.814	37.03
260.03	26.79
260.246	30.89
260.463	30.89
260.679	51.37
260.895	-14.17
261.112	106.67
261.328	-22.36
261.544	6.31
261.761	65.71
261.977	28.84
262.193	16.55
262.409	26.79
262.626	-67.41
262.842	32.94
263.058	-18.26
263.274	43.18
263.49	18.6
263.707	71.85
263.923	30.89
264.139	10.41
264.355	-46.93
264.571	-14.17
264.787	6.31
265.004	8.36
265.22	-42.84
265.436	43.18
265.652	-30.55
265.868	20.65
266.084	-14.17
266.3	-10.07
266.516	-26.45
266.732	59.56
266.948	108.71
267.164	53.42
267.38	26.79
267.596	10.41
267.812	32.94
268.028	-26.45
268.244	67.75
268.46	20.65
268.676	-42.84
268.892	90.28
269.108	14.51
269.324	108.71
269.54	0.17
269.756	-53.08
269.972	55.47
270.188	24.75
270.403	53.42
270.619	-22.36
270.835	-20.31
271.051	51.37
271.267	18.6
271.483	-28.5
271.698	57.51
271.914	24.75
272.13	-3.93
272.346	-30.55
272.562	-5.97
272.777	-1.88
272.993	-46.93
273.209	10.41
273.425	-38.74
273.64	30.89
273.856	75.95
274.072	32.94
274.287	26.79
274.503	-36.69
274.719	73.9
274.934	47.27
275.15	22.7
275.366	43.18
275.581	-46.93
275.797	4.27
276.012	26.79
276.228	24.75
276.444	65.71
276.659	20.65
276.875	10.41
277.09	116.9
277.306	49.32
277.521	-1.88
277.737	-44.88
277.952	26.79
278.168	-18.26
278.383	-5.97
278.599	-1.88
278.814	18.6
279.03	24.75
279.245	-12.12
279.461	-44.88
279.676	82.09
279.892	63.66
280.107	24.75
280.322	-16.21
280.538	-20.31
280.753	-14.17
280.969	57.51
281.184	22.7
281.399	43.18
281.615	-18.26
281.83	63.66
282.045	-53.08
282.26	6.31
282.476	-51.03
282.691	63.66
282.906	67.75
283.122	-18.26
283.337	-40.79
283.552	14.51
283.767	10.41
283.983	51.37
284.198	71.85
284.413	12.46
284.628	12.46
284.843	22.7
285.058	-16.21
285.274	-26.45
285.489	-36.69
285.704	47.27
285.919	-20.31
286.134	59.56
286.349	14.51
286.564	47.27
286.779	65.71
286.995	12.46
287.21	-26.45
287.425	63.66
287.64	-32.6
287.855	-20.31
288.07	34.99
288.285	6.31
288.5	-40.79
288.715	8.36
288.93	6.31
289.145	39.08
289.36	22.7
289.575	30.89
289.79	-3.93
290.004	-20.31
290.219	71.85
290.434	8.36
290.649	22.7
290.864	0.17
291.079	-20.31
291.294	34.99
291.509	45.23
291.724	82.09
291.938	43.18
292.153	-10.07
292.368	-28.5
292.583	-36.69
292.798	34.99
293.012	53.42
293.227	-12.12
293.442	26.79
293.657	2.22
293.871	82.09
294.086	-1.88
294.301	69.8
294.516	2.22
294.73	59.56
294.945	0.17
295.16	26.79
295.374	24.75
295.589	37.03
295.804	-36.69
296.018	2.22
296.233	69.8
296.447	18.6
296.662	-5.97
296.877	73.9
297.091	-22.36
297.306	47.27
297.52	30.89
297.735	80.04
297.949	-32.6
298.164	10.41
298.378	30.89
298.593	24.75
298.807	61.61
299.022	-3.93
299.236	28.84
299.451	39.08
299.665	28.84
299.88	75.95
300.094	-57.17
300.309	10.41
300.523	30.89
300.737	8.36
300.952	53.42
301.166	-28.5
301.381	-16.21
301.595	92.33
301.809	-5.97
302.024	32.94
302.238	47.27
302.452	-36.69
302.667	84.14
302.881	14.51
303.095	10.41
303.309	80.04
303.524	-42.84
303.738	8.36
303.952	-94.04
304.166	82.09
304.381	-34.64
304.595	34.99
304.809	18.6
305.023	41.13
305.237	37.03
305.452	24.75
305.666	24.75
305.88	61.61
306.094	-18.26
306.308	8.36
306.522	32.94
306.736	-42.84
306.95	57.51
307.164	30.89
307.379	-5.97
307.593	41.13
307.807	30.89
308.021	71.85
308.235	30.89
308.449	-42.84
308.663	39.08
308.877	94.38
309.091	22.7
309.305	49.32
309.519	6.31
309.733	57.51
309.947	-18.26
310.161	4.27
310.374	10.41
310.588	47.27
310.802	-8.02
311.016	-55.12
311.23	71.85
311.444	20.65
311.658	39.08
311.872	10.41
312.085	-14.17
312.299	59.56
312.513	51.37
312.727	65.71
312.941	22.7
313.154	10.41
313.368	-12.12
313.582	96.43
313.796	16.55
314.009	53.42
314.223	57.51
314.437	20.65
314.651	-38.74
314.864	26.79
315.078	26.79
315.292	-5.97
315.505	10.41
315.719	-1.88
315.933	-3.93
316.146	-10.07
316.36	-59.22
316.573	30.89
316.787	61.61
317.001	47.27
317.214	-20.31
317.428	-3.93
317.641	166.06
317.855	-30.55
318.068	8.36
318.282	-59.22
318.495	49.32
318.709	-36.69
318.922	34.99
319.136	71.85
319.349	-55.12
319.563	22.7
319.776	14.51
319.99	82.09
320.203	86.19
320.417	12.46
320.63	34.99
320.843	-44.88
321.057	26.79
321.27	63.66
321.483	-5.97
321.697	32.94
321.91	51.37
322.124	-5.97
322.337	18.6
322.55	39.08
322.763	51.37
322.977	-26.45
323.19	30.89
323.403	67.75
323.617	80.04
323.83	12.46
324.043	-46.93
324.256	16.55
324.469	43.18
324.683	59.56
324.896	47.27
325.109	67.75
325.322	-38.74
325.535	8.36
325.748	-20.31
325.962	53.42
326.175	49.32
326.388	71.85
326.601	0.17
326.814	12.46
327.027	-48.98
327.24	14.51
327.453	-10.07
327.666	133.29
327.879	75.95
328.092	45.23
328.305	-26.45
328.518	22.7
328.731	-18.26
328.944	20.65
329.157	-28.5
329.37	24.75
329.583	2.22
329.796	4.27
330.009	75.95
330.222	10.41
330.435	2.22
330.648	59.56
330.861	-10.07
331.073	37.03
331.286	8.36
331.499	63.66
331.712	-1.88
331.925	-3.93
332.138	67.75
332.35	61.61
332.563	14.51
332.776	45.23
332.989	-26.45
333.202	69.8
333.414	-1.88
333.627	28.84
333.84	84.14
334.053	49.32
334.265	26.79
334.478	98.47
334.691	55.47
334.903	57.51
335.116	24.75
335.329	37.03
335.541	30.89
335.754	22.7
335.966	-10.07
336.179	-40.79
336.392	-30.55
336.604	59.56
336.817	51.37
337.029	55.47
337.242	14.51
337.454	55.47
337.667	-26.45
337.88	100.52
338.092	-42.84
338.305	63.66
338.517	2.22
338.729	57.51
338.942	43.18
339.154	-53.08
339.367	-46.93
339.579	39.08
339.792	10.41
340.004	90.28
340.217	-28.5
340.429	57.51
340.641	2.22
340.854	55.47
341.066	45.23
341.278	53.42
341.491	118.95
341.703	-32.6
341.915	0.17
342.128	18.6
342.34	22.7
342.552	108.71
342.764	-24.4
342.977	0.17
343.189	65.71
343.401	86.19
343.613	32.94
343.826	-3.93
344.038	22.7
344.25	45.23
344.462	43.18
344.674	59.56
344.886	37.03
345.099	53.42
345.311	51.37
345.523	22.7
345.735	71.85
345.947	65.71
346.159	0.17
346.371	77.99
346.583	28.84
346.795	61.61
347.007	10.41
347.219	77.99
347.431	67.75
347.643	41.13
347.855	-3.93
348.067	32.94
348.279	45.23
348.491	10.41
348.703	55.47
348.915	18.6
349.127	0.17
349.339	80.04
349.551	22.7
349.763	106.67
349.975	32.94
350.187	65.71
350.399	4.27
350.61	135.34
350.822	34.99
351.034	24.75
351.246	-20.31
351.458	49.32
351.669	88.23
351.881	61.61
352.093	26.79
352.305	18.6
352.517	8.36
352.728	47.27
352.94	16.55
353.152	82.09
353.363	-22.36
353.575	47.27
353.787	2.22
353.999	77.99
354.21	18.6
354.422	100.52
354.633	-14.17
354.845	4.27
355.057	4.27
355.268	53.42
355.48	34.99
355.692	20.65
355.903	47.27
356.115	26.79
356.326	63.66
356.538	90.28
356.749	51.37
356.961	49.32
357.172	34.99
357.384	-12.12
357.595	-12.12
357.807	61.61
358.018	28.84
358.23	-30.55
358.441	49.32
358.653	16.55
358.864	20.65
359.075	-3.93
359.287	22.7
359.498	26.79
359.709	20.65
359.921	86.19
360.132	71.85
360.344	39.08
360.555	10.41
360.766	34.99
360.977	-46.93
361.189	94.38
361.4	18.6
361.611	37.03
361.823	67.75
362.034	0.17
362.245	47.27
362.456	26.79
362.667	26.79
362.879	47.27
363.09	49.32
363.301	6.31
363.512	6.31
363.723	-30.55
363.935	-38.74
364.146	0.17
364.357	8.36
364.568	2.22
364.779	-1.88
364.99	43.18
365.201	12.46
365.412	86.19
365.623	10.41
365.834	43.18
366.045	10.41
366.256	34.99
366.467	118.95
366.678	174.25
366.889	14.51
367.1	0.17
367.311	-26.45
367.522	18.6
367.733	22.7
367.944	57.51
368.155	49.32
368.366	-30.55
368.577	86.19
368.788	80.04
368.999	49.32
369.209	57.51
369.42	57.51
369.631	37.03
369.842	6.31
370.053	47.27
370.264	71.85
370.474	28.84
370.685	18.6
370.896	26.79
371.107	-22.36
371.317	114.86
371.528	10.41
371.739	30.89
371.95	26.79
372.16	32.94
372.371	30.89
372.582	47.27
372.792	2.22
373.003	4.27
373.214	18.6
373.424	84.14
373.635	32.94
373.846	-8.02
374.056	47.27
374.267	39.08
374.477	92.33
374.688	30.89
374.898	88.23
375.109	47.27
375.319	-3.93
375.53	34.99
375.74	41.13
375.951	8.36
376.161	28.84
376.372	32.94
376.582	53.42
376.793	8.36
377.003	-34.64
377.214	61.61
377.424	26.79
377.635	45.23
377.845	18.6
378.055	65.71
378.266	-8.02
378.476	14.51
378.686	28.84
378.897	57.51
379.107	47.27
379.317	-61.27
379.528	18.6
379.738	98.47
379.948	12.46
380.158	18.6
380.369	71.85
380.579	69.8
380.789	0.17
380.999	-8.02
381.21	28.84
381.42	100.52
381.63	12.46
381.84	55.47
382.05	-30.55
382.261	30.89
382.471	41.13
382.681	-44.88
382.891	123.05
383.101	102.57
383.311	45.23
383.521	26.79
383.731	-65.36
383.941	14.51
384.151	18.6
384.361	94.38
384.571	59.56
384.781	22.7
384.991	141.48
385.201	43.18
385.411	73.9
385.621	28.84
385.831	67.75
386.041	51.37
386.251	8.36
386.461	100.52
386.671	2.22
386.881	100.52
387.091	20.65
387.301	88.23
387.511	-20.31
387.72	51.37
387.93	41.13
388.14	24.75
388.35	4.27
388.56	157.86
388.769	43.18
388.979	82.09
389.189	-5.97
389.399	32.94
389.609	57.51
389.818	57.51
390.028	37.03
390.238	108.71
390.447	43.18
390.657	18.6
390.867	51.37
391.076	-38.74
391.286	69.8
391.496	53.42
391.705	41.13
391.915	133.29
392.125	108.71
392.334	51.37
392.544	73.9
392.753	51.37
392.963	34.99
393.172	125.1
393.382	59.56
393.591	26.79
393.801	63.66
394.01	43.18
394.22	49.32
394.429	104.62
394.639	57.51
394.848	43.18
395.058	88.23
395.267	59.56
395.477	30.89
395.686	14.51
395.895	82.09
396.105	80.04
396.314	43.18
396.524	112.81
396.733	30.89
396.942	96.43
397.152	63.66
397.361	131.24
397.57	37.03
397.78	137.38
397.989	28.84
398.198	90.28
398.407	80.04
398.617	73.9
398.826	-20.31
399.035	149.67
399.244	80.04
399.453	26.79
399.663	55.47
399.872	108.71
400.081	20.65
400.29	110.76
400.499	30.89
400.708	118.95
400.917	84.14
401.127	75.95
401.336	108.71
401.545	112.81
401.754	55.47
401.963	80.04
402.172	51.37
402.381	16.55
402.59	174.25
402.799	41.13
403.008	108.71
403.217	145.58
403.426	112.81
403.635	51.37
403.844	8.36
404.053	170.15
404.262	106.67
404.471	84.14
404.68	84.14
404.888	139.43
405.097	67.75
405.306	135.34
405.515	80.04
405.724	108.71
405.933	106.67
406.142	98.47
406.35	98.47
406.559	137.38
406.768	123.05
406.977	106.67
407.185	108.71
407.394	155.82
407.603	137.38
407.812	112.81
408.02	190.63
408.229	118.95
408.438	164.01
408.646	47.27
408.855	116.9
409.064	161.96
409.272	196.78
409.481	159.91
409.69	161.96
409.898	186.54
410.107	233.64
410.315	164.01
410.524	247.97
410.733	252.07
410.941	176.3
411.15	243.88
411.358	266.41
411.567	266.41
411.775	235.69
411.984	288.93
412.192	272.55
412.401	270.5
412.609	270.5
412.818	307.37
413.026	405.67
413.234	319.65
413.443	362.66
413.651	313.51
413.86	391.33
414.068	374.95
414.276	370.85
414.485	424.1
414.693	471.2
414.901	508.07
415.11	536.74
415.318	477.35
415.526	526.5
415.734	522.4
415.943	524.45
416.151	501.92
416.359	526.5
416.567	587.94
416.776	647.33
416.984	673.95
417.192	743.58
417.4	647.33
417.608	610.47
417.817	686.24
418.025	825.5
418.233	772.25
418.441	798.88
418.649	768.16
418.857	770.21
419.065	792.73
419.273	876.7
419.481	923.8
419.689	927.9
419.897	1011.87
420.105	1069.21
420.313	1116.31
420.521	1079.45
420.729	1108.12
420.937	1095.83
421.145	1163.42
421.353	1226.9
421.561	1335.45
421.769	1349.78
421.977	1392.79
422.185	1364.12
422.393	1441.94
422.601	1513.62
422.809	1532.05
423.017	1462.42
423.224	1566.87
423.432	1693.84
423.64	1661.07
423.848	1794.19
424.056	1767.57
424.263	1810.58
424.471	1904.78
424.679	2039.95
424.887	2007.18
425.094	2111.63
425.302	2181.26
425.51	2214.02
425.718	2218.12
425.925	2316.42
426.133	2465.93
426.341	2506.88
426.548	2490.5
426.756	2652.29
426.964	2732.16
427.171	2801.79
427.379	2777.22
427.586	2982.01
427.794	3029.12
428.001	3149.95
428.209	3315.83
428.417	3270.78
428.624	3573.88
428.832	3491.96
429.039	3582.07
429.247	3399.8
429.454	3833.97
429.662	4126.83
429.869	3784.82
430.076	4155.5
430.284	3889.26
430.491	4202.6
430.699	4337.77
430.906	4327.53
431.114	4354.15
431.321	4724.83
431.528	4655.2
431.736	4847.71
431.943	5296.22
432.15	5128.28
432.358	5288.03
432.565	5199.96
432.772	5429.34
432.979	5808.21
433.187	5800.02
433.394	5781.59
433.601	6295.63
433.808	6162.51
434.016	6113.36
434.223	6400.07
434.43	6844.48
434.637	6651.97
434.844	7075.9
435.052	7229.5
435.259	7198.78
435.466	7213.12
435.673	7223.36
435.88	7559.22
436.087	8216.62
436.294	7903.28
436.501	7665.72
436.708	8050.74
436.915	8210.48
437.122	8622.12
437.329	8603.69
437.537	8855.59
437.743	9050.14
437.95	8882.21
438.157	9652.25
438.364	9834.52
438.571	9562.14
438.778	9811.99
438.985	11020.29
439.192	10344.46
439.399	10821.64
439.606	10344.46
439.813	10997.76
440.02	11585.53
440.227	11569.15
440.433	11296.77
440.64	11773.94
440.847	11982.84
441.054	12027.89
441.261	12736.49
441.467	12722.15
441.674	12750.82
441.881	12939.24
442.088	13283.3
442.294	12949.48
442.501	13563.87
442.708	13762.52
442.914	14299.09
443.121	15007.69
443.328	14491.6
443.534	15544.25
443.741	15118.28
443.948	14743.5
444.154	16287.67
444.361	15953.85
444.568	16113.59
444.774	16248.75
444.981	16373.68
445.187	16857
445.394	17508.26
445.6	17207.2
445.807	18857.87
446.013	18143.13
446.22	18343.83
446.426	19093.38
446.633	19185.54
446.839	20076.41
447.046	19095.43
447.252	20209.53
447.459	20092.79
447.665	20254.58
447.871	20944.75
448.078	21772.13
448.284	20791.15
448.491	21313.38
448.697	22220.63
448.903	22771.54
449.11	22693.71
449.316	22380.37
449.522	22732.62
449.728	23070.54
449.935	23490.37
450.141	23476.04
450.347	24129.34
450.553	23019.34
450.76	23230.28
450.966	24004.41
451.172	23918.4
451.378	24221.5
451.584	23816
451.791	24520.5
451.997	24094.52
452.203	24743.73
452.409	24469.3
452.615	24532.79
452.821	23379.78
453.027	23265.1
453.233	24631.09
453.44	23785.28
453.646	23709.5
453.852	23674.69
454.058	24178.49
454.264	23349.06
454.47	23705.41
454.676	23189.32
454.882	24264.5
455.088	21995.36
455.294	22273.88
455.5	22253.4
455.705	22769.49
455.911	22019.93
456.117	21069.67
456.323	20774.77
456.529	19742.59
456.735	20799.34
456.941	20197.24
457.147	19961.72
457.352	19203.97
457.558	18845.58
457.764	18728.84
457.97	18536.34
458.176	18337.68
458.381	18198.42
458.587	17131.43
458.793	17307.55
458.999	16396.21
459.204	17444.77
459.41	17012.65
459.616	15828.92
459.821	15867.83
460.027	16005.05
460.233	15407.04
460.438	14514.13
460.644	14970.82
460.85	14313.42
461.055	13832.15
461.261	13938.65
461.466	12808.17
461.672	12464.11
461.878	13273.06
462.083	12554.22
462.289	12271.6
462.494	12093.43
462.7	11737.08
462.905	11360.25
463.111	11702.26
463.316	11853.81
463.522	11653.11
463.727	11542.52
463.932	11485.18
464.138	11390.97
464.343	11659.26
464.549	11012.1
464.754	11581.43
464.959	11372.54
465.165	11331.58
465.37	10919.94
465.575	10850.31
465.781	11118.59
465.986	11143.17
466.191	10903.56
466.397	10323.98
466.602	9934.87
466.807	10231.82
467.012	10270.73
467.218	10180.62
467.423	10139.66
467.628	10381.32
467.833	10655.75
468.038	10240.01
468.244	9906.2
468.449	10594.31
468.654	10176.53
468.859	9943.06
469.064	9934.87
469.269	9703.45
469.474	9621.53
469.679	9723.93
469.885	9291.8
470.09	9654.3
470.295	9676.82
470.5	9283.61
470.705	9328.67
470.91	9263.13
471.115	9173.02
471.32	9277.47
471.525	9269.28
471.73	8882.21
471.935	8828.96
472.139	8417.32
472.344	8630.31
472.549	8521.77
472.754	8435.75
472.959	8431.66
473.164	8128.56
473.369	7940.15
473.574	8200.24
473.778	8159.28
473.983	8146.99
474.188	8155.18
474.393	7682.1
474.598	7942.19
474.802	7694.39
475.007	7696.44
475.212	7800.88
475.417	7460.92
475.621	7548.98
475.826	7473.21
476.031	7335.99
476.235	7069.76
476.44	7387.19
476.645	7127.1
476.849	7159.87
477.054	6991.94
477.259	6963.26
477.463	7182.4
477.668	6869.06
477.872	6729.8
478.077	6637.64
478.282	6559.81
478.486	6660.17
478.691	6418.5
478.895	6539.33
479.1	6402.12
479.304	6443.08
479.509	6340.68
479.713	6451.27
479.918	6434.89
480.122	6195.28
480.326	6189.13
480.531	6195.28
480.735	6201.42
480.94	5994.58
481.144	6344.78
481.348	6010.96
481.553	6111.31
481.757	5955.66
481.961	6039.63
482.166	6189.13
482.37	6264.91
482.574	5965.9
482.778	5967.95
482.983	6109.26
483.187	6004.82
483.391	6053.97
483.595	5900.37
483.8	5972.05
484.004	5941.33
484.208	6047.82
484.412	6117.45
484.616	5963.86
484.821	6078.54
485.025	5947.47
485.229	6197.32
485.433	6062.16
485.637	6099.02
485.841	6056.01
486.045	6006.86
486.249	5996.62
486.453	5970
486.657	5937.23
486.861	6021.2
487.065	5853.27
487.269	6066.25
487.473	5744.72
487.677	6170.7
487.881	6125.65
488.085	6109.26
488.289	6096.97
488.493	6121.55
488.697	6105.17
488.901	6127.69
489.105	6025.29
489.309	6113.36
489.512	6205.52
489.716	6107.21
489.92	6182.99
490.124	6039.63
490.328	6383.69
490.531	6150.22
490.735	6273.1
490.939	6160.46
491.143	6027.34
491.346	6133.84
491.55	6307.91
491.754	6359.11
491.958	6240.33
492.161	6412.36
492.365	6438.98
492.569	6434.89
492.772	6367.31
492.976	6588.49
493.18	6619.21
493.383	6682.69
493.587	6598.73
493.79	6514.76
493.994	6492.23
494.197	6717.51
494.401	6811.71
494.605	6588.49
494.808	6930.5
495.012	6922.31
495.215	6993.98
495.419	6938.69
495.622	6787.14
495.825	7166.01
496.029	7008.32
496.232	7278.65
496.436	7073.85
496.639	7290.94
496.843	7411.77
497.046	7538.74
497.249	7673.91
497.453	7489.59
497.656	7497.78
497.859	7639.09
498.063	7843.89
498.266	8071.22
498.469	7847.99
498.673	8081.46
498.876	8300.59
499.079	8267.82
499.282	8200.24
499.485	8445.99
499.689	8458.28
499.892	8536.1
500.095	8853.54
500.298	8828.96
500.501	8652.84
500.705	8910.88
500.908	8857.64
501.111	9070.62
501.314	9310.24
501.517	9195.55
501.72	9373.72
501.923	9599
502.126	9703.45
502.329	9928.72
502.532	9908.24
502.735	9932.82
502.938	10055.7
503.141	10102.8
503.344	10432.52
503.547	10498.06
503.75	10467.34
503.953	10803.21
504.156	10649.61
504.359	10702.86
504.562	10866.69
504.765	11067.39
504.968	11112.45
505.17	11603.96
505.373	11364.35
505.576	11673.59
505.779	11718.65
505.982	11821.05
506.185	12169.2
506.387	12128.24
506.59	12410.86
506.793	12482.54
506.996	12247.02
507.198	12836.84
507.401	12701.67
507.604	12677.1
507.807	13131.75
508.009	12996.58
508.212	13170.66
508.415	13330.4
508.617	13643.74
508.82	13643.74
509.022	13514.72
509.225	13903.83
509.428	13987.8
509.63	14213.07
509.833	14151.63
510.035	14299.09
510.238	14594
510.44	14671.82
510.643	15083.46
510.845	15396.8
511.048	15054.79
511.25	15288.26
511.453	15665.08
511.655	16207.8
511.858	15763.39
512.06	16150.45
512.262	16388.02
512.465	16197.56
512.667	16531.37
512.87	16666.54
513.072	16727.98
513.274	16918.44
513.477	17131.43
513.679	17610.65
513.881	17534.88
514.084	17788.83
514.286	17747.87
514.488	17850.27
514.69	18331.54
514.893	18481.04
515.095	18255.76
515.297	18747.28
515.499	18749.32
515.701	19056.52
515.904	19249.03
516.106	19500.93
516.308	19498.88
516.51	20008.83
516.712	19799.93
516.914	20019.07
517.116	20526.96
517.318	20514.67
517.52	20875.12
517.722	20815.73
517.925	21532.51
518.127	21469.03
518.329	21489.51
518.531	21694.3
518.733	21985.12
518.935	22120.28
519.136	21966.68
519.338	22589.27
519.54	22576.98
519.742	22824.78
519.944	23103.31
520.146	23603.01
520.348	23631.68
520.55	23764.8
520.752	23629.63
520.954	24194.87
521.155	24063.8
521.357	24670
521.559	24532.79
521.761	24936.24
521.963	25151.27
522.164	25147.18
522.366	25521.96
522.568	25431.85
522.77	25554.72
522.971	26287.9
523.173	26146.59
523.375	26279.71
523.576	26193.69
523.778	26580.76
523.98	26781.46
524.181	26822.42
524.383	27072.27
524.584	27262.73
524.786	27055.89
524.988	27459.34
525.189	27721.48
525.391	27756.29
525.592	28086.01
525.794	28356.35
525.995	28499.7
526.197	28038.91
526.398	28561.14
526.6	28624.63
526.801	28739.32
527.003	29298.41
527.204	28661.49
527.406	29634.28
527.607	29286.12
527.808	29816.55
528.01	29171.44
528.211	29593.32
528.412	30195.42
528.614	30031.58
528.815	29966.05
529.016	30066.4
529.218	30328.54
529.419	30287.58
529.62	30156.51
529.822	30222.05
530.023	30492.38
530.224	30609.11
530.425	30217.95
530.626	30074.59
530.828	30625.5
531.029	31037.14
531.23	30961.36
531.431	31104.72
531.632	30637.78
531.833	31272.65
532.035	30883.54
532.236	31057.62
532.437	31160.02
532.638	30676.69
532.839	31479.5
533.04	31127.25
533.241	31002.32
533.442	31846.08
533.643	31463.11
533.844	31319.76
534.045	31465.16
534.246	31129.3
534.447	31571.66
534.648	31497.93
534.849	31530.7
535.05	31043.28
535.251	31397.58
535.451	31440.59
535.652	31583.94
535.853	31373
536.054	31647.43
536.255	31911.62
536.456	31504.07
536.657	31545.03
536.857	31557.32
537.058	31418.06
537.259	31966.91
537.46	31784.65
537.66	31516.36
537.861	31534.79
538.062	31708.87
538.263	31659.72
538.463	31508.17
538.664	31784.65
538.865	31817.41
539.065	32153.28
539.266	31618.76
539.466	31760.07
539.667	31286.99
539.868	32200.38
540.068	31575.75
540.269	31520.46
540.469	31942.34
540.67	31583.94
540.87	31473.35
541.071	31479.5
541.271	31723.21
541.472	31532.75
541.672	31469.26
541.873	31502.03
542.073	31319.76
542.274	31925.96
542.474	31547.08
542.675	31561.42
542.875	31833.8
543.075	32022.21
543.276	31026.9
543.476	32016.07
543.676	31473.35
543.877	31608.52
544.077	31108.82
544.277	31823.56
544.478	31710.92
544.678	31760.07
544.878	31289.04
545.078	31821.51
545.279	31135.44
545.479	31399.63
545.679	31377.1
545.879	31497.93
546.079	31342.28
546.28	31489.74
546.48	30957.27
546.68	31237.84
546.88	31442.63
547.08	31655.62
547.28	31426.25
547.48	31231.69
547.68	31598.28
547.88	30881.49
548.081	31377.1
548.281	31237.84
548.481	31330
548.681	31729.35
548.881	31434.44
549.081	31485.64
549.28	31037.14
549.48	31528.65
549.68	31209.17
549.88	31669.96
550.08	31403.72
550.28	31295.18
550.48	31198.93
550.68	31553.23
550.88	31153.87
551.08	31356.62
551.279	31231.69
551.479	30803.67
551.679	31284.94
551.879	31147.73
552.079	31338.19
552.278	31123.15
552.478	31346.38
552.678	31469.26
552.878	31205.07
553.077	31084.24
553.277	30871.25
553.477	31487.69
553.676	31178.45
553.876	30879.44
554.076	31313.61
554.275	31084.24
554.475	30643.93
554.674	30953.17
554.874	31063.76
555.074	30953.17
555.273	30611.16
555.473	31039.19
555.672	30715.61
555.872	31014.61
556.071	30936.79
556.271	30967.51
556.47	31000.27
556.67	30183.13
556.869	30600.92
557.068	30672.6
557.268	30349.02
557.467	30422.75
557.667	30539.48
557.866	30369.5
558.065	30330.59
558.265	30064.35
558.464	29634.28
558.663	30174.94
558.863	29662.95
559.062	30455.51
559.261	29767.4
559.461	30283.48
559.66	29738.72
559.859	29914.85
560.058	29521.64
560.258	29658.85
560.457	29658.85
560.656	30029.54
560.855	29644.52
561.054	29851.36
561.253	29617.89
561.453	29894.37
561.652	29423.34
561.851	29554.41
562.05	29275.88
562.249	29331.18
562.448	29531.88
562.647	29222.64
562.846	28917.49
563.045	29122.29
563.244	28991.22
563.443	29497.06
563.642	28714.74
563.841	29011.7
564.04	28497.66
564.239	29159.15
564.438	28561.14
564.637	28536.57
564.836	28577.53
565.035	28104.45
565.234	28452.6
565.432	28299
565.631	28284.67
565.83	28006.14
566.029	28020.48
566.228	27846.4
566.427	28000
566.625	27965.18
566.824	27451.14
567.023	27782.91
567.222	27127.56
567.42	27930.37
567.619	27285.26
567.818	27477.77
568.016	27492.1
568.215	27641.6
568.414	26937.1
568.612	27184.91
568.811	27064.08
569.01	27406.09
569.208	27004.69
569.407	27070.22
569.605	26916.62
569.804	26687.25
570.002	26576.66
570.201	26423.06
570.4	26382.1
570.598	26224.41
570.797	26122.01
570.995	26224.41
571.193	25734.95
571.392	26177.31
571.59	25636.64
571.789	25886.5
571.987	26009.37
572.186	25782.05
572.384	25687.84
572.582	25601.83
572.781	25440.04
572.979	25534.25
573.177	25644.84
573.376	25626.4
573.574	25093.93
573.772	25423.65
573.971	25202.47
574.169	24655.67
574.367	24696.63
574.565	25052.97
574.763	24801.07
574.962	24698.67
575.16	24573.75
575.358	24721.2
575.556	24555.32
575.754	24766.26
575.952	24360.76
576.151	24692.53
576.349	23816
576.547	24112.95
576.745	24119.1
576.943	24016.7
577.141	23684.93
577.339	24024.89
577.537	23844.67
577.735	23557.96
577.933	23664.45
578.131	23859.01
578.329	23541.57
578.527	23428.93
578.725	23367.49
578.923	23373.64
579.121	23277.38
579.319	22865.74
579.516	23402.31
579.714	23123.79
579.912	23146.31
580.11	22966.09
580.308	22853.45
580.506	22693.71
580.704	22431.57
580.901	22505.3
581.099	23021.39
581.297	22341.46
581.495	22720.34
581.692	22642.51
581.89	22333.27
582.088	22622.03
582.285	22212.44
582.483	22454.1
582.681	22253.4
582.878	22200.15
583.076	22009.69
583.274	22087.51
583.471	21618.53
583.669	21770.08
583.866	21663.58
584.064	21798.75
584.262	21512.03
584.459	21821.28
584.657	21526.37
584.854	21653.34
585.052	21129.06
585.249	21303.14
585.447	21462.88
585.644	21370.72
585.841	21065.58
586.039	21419.88
586.236	20774.77
586.434	20993.9
586.631	20649.84
586.828	20707.18
587.026	20758.38
587.223	20733.81
587.42	20541.3
587.618	20445.04
587.815	20621.17
588.012	20520.82
588.21	20316.02
588.407	20307.83
588.604	20270.97
588.801	19982.2
588.999	20207.48
589.196	20121.46
589.393	20021.11
589.59	19963.77
589.787	19863.42
589.984	19851.13
590.182	19756.93
590.379	19732.35
590.576	19746.69
590.773	19564.42
590.97	19447.68
591.167	19584.9
591.364	19443.59
591.561	19365.76
591.758	19222.41
591.955	19244.93
592.152	19320.71
592.349	19001.22
592.546	19285.89
592.743	18943.88
592.94	18550.67
593.137	18798.48
593.334	19058.57
593.531	18726.8
593.727	18798.48
593.924	18890.63
594.121	18364.31
594.318	18939.79
594.515	18182.04
594.712	18640.78
594.908	18591.63
595.105	18345.87
595.302	18145.17
595.499	18196.37
595.696	18401.17
595.892	18247.57
596.089	18149.27
596.286	18132.89
596.482	17825.69
596.679	18034.58
596.876	18032.54
597.072	17573.79
597.269	17817.5
597.466	17794.97
597.662	17608.61
597.859	17694.62
598.055	17637.28
598.252	17491.87
598.448	17358.75
598.645	17430.43
598.841	17219.49
599.038	17194.92
599.234	17469.34
599.431	17362.85
599.627	17184.68
599.824	17170.34
600.02	17196.96
600.217	17323.94
600.413	17186.72
600.609	16629.68
600.806	16742.32
601.002	16859.05
601.198	16639.92
601.395	16664.49
601.591	16406.45
601.787	16689.07
601.984	16449.46
602.18	16562.09
602.376	16242.61
602.572	16533.42
602.769	16408.5
602.965	16078.77
603.161	16365.49
603.357	16330.67
603.553	16015.29
603.75	16353.2
603.946	15814.59
604.142	15925.18
604.338	15843.26
604.534	15806.39
604.73	15966.14
604.926	15771.58
605.122	15845.3
605.318	15511.49
605.514	15630.27
605.71	15734.71
605.906	15585.21
606.102	15511.49
606.298	15552.45
606.494	15529.92
606.69	15585.21
606.886	15357.89
607.082	15028.17
607.278	15159.24
607.474	15478.72
607.67	15300.55
607.866	14806.98
608.062	15146.95
608.257	14907.34
608.453	15275.97
608.649	14860.23
608.845	14864.33
609.041	15114.18
609.236	14714.83
609.432	14733.26
609.628	14860.23
609.824	14624.72
610.019	14757.83
610.215	14575.56
610.411	14776.27
610.606	14358.48
610.802	14497.74
610.998	14567.37
611.193	14575.56
611.389	14464.97
611.584	14589.9
611.78	14397.39
611.976	14391.25
612.171	14489.55
612.367	14331.86
612.562	14311.38
612.758	14313.42
612.953	14192.59
613.149	14245.84
613.344	14022.61
613.539	14215.12
613.735	13973.46
613.93	14157.78
614.126	14137.3
614.321	14196.69
614.517	14301.14
614.712	13789.14
614.907	13729.75
615.103	13903.83
615.298	13844.44
615.493	13778.9
615.688	13567.96
615.884	13957.08
616.079	13686.75
616.274	13768.66
616.47	13696.99
616.665	13588.44
616.86	13580.25
617.055	13397.98
617.25	13553.63
617.445	13613.02
617.641	13234.14
617.836	13477.85
618.031	13090.79
618.226	13291.49
618.421	13164.51
618.616	13469.66
618.811	13201.38
619.006	13338.59
619.201	13141.99
619.396	12826.6
619.591	12908.52
619.786	13146.08
619.981	12664.81
620.176	12888.04
620.371	12736.49
620.566	12732.39
620.761	12613.61
620.956	12754.92
621.151	12775.4
621.346	12666.86
621.541	12244.98
621.735	12679.15
621.93	12249.07
622.125	12318.7
622.32	12142.58
622.515	12154.87
622.709	12064.75
622.904	11978.74
623.099	12257.26
623.294	12042.23
623.488	11732.98
623.683	11911.16
623.878	11773.94
624.072	11728.89
624.267	11683.83
624.462	11341.82
624.656	11481.08
624.851	11655.16
625.046	11290.62
625.24	11319.29
625.435	11290.62
625.629	11436.03
625.824	11204.61
626.018	11094.02
626.213	10725.38
626.407	10903.56
626.602	10702.86
626.796	10973.19
626.991	10586.12
627.185	10620.94
627.38	10690.57
627.574	10639.37
627.768	10348.56
627.963	10534.92
628.157	10147.86
628.352	10477.58
628.546	10051.6
628.74	10414.09
628.935	10242.06
629.129	10156.05
629.323	9994.26
629.517	9785.37
629.712	10041.36
629.906	10139.66
630.1	9891.86
630.294	10051.6
630.489	9738.26
630.683	9715.73
630.877	9734.17
631.071	9687.06
631.265	9601.05
631.459	9555.99
631.653	9572.38
631.848	9390.11
632.042	9230.37
632.236	9183.26
632.43	9336.86
632.624	9250.85
632.818	9150.5
633.012	8978.47
633.206	9130.02
633.4	9175.07
633.594	9007.14
633.788	8980.51
633.982	8853.54
634.176	8814.63
634.369	8790.05
634.563	8785.96
634.757	8742.95
634.951	8814.63
635.145	8716.33
635.339	8837.16
635.533	8448.04
635.726	8685.61
635.92	8392.75
636.114	8347.69
636.308	8349.74
636.501	8233.01
636.695	8562.73
636.889	8005.68
637.083	8103.98
637.276	8079.41
637.47	8194.09
637.664	8144.94
637.857	8093.74
638.051	7950.39
638.244	7923.76
638.438	8038.45
638.632	7786.55
638.825	7731.25
639.019	7880.75
639.212	7653.43
639.406	7718.96
639.599	7694.39
639.793	7696.44
639.986	7608.37
640.18	7608.37
640.373	7465.02
640.567	7299.13
640.76	7452.73
640.954	7303.23
641.147	7252.03
641.34	7163.97
641.534	7186.49
641.727	7350.33
641.92	7086.14
642.114	7268.41
642.307	7231.55
642.5	7047.23
642.694	7051.33
642.887	6944.83
643.08	6946.88
643.273	6948.93
643.467	6975.55
643.66	6729.8
643.853	6824
644.046	6711.36
644.239	6764.61
644.432	6828.1
644.626	6420.55
644.819	6506.57
645.012	6719.56
645.205	6625.35
645.398	6604.87
645.591	6561.86
645.784	6441.03
645.977	6279.24
646.17	6307.91
646.363	6242.38
646.556	6281.29
646.749	6326.35
646.942	6285.39
647.135	6191.18
647.328	6109.26
647.521	6039.63
647.714	6203.47
647.907	5978.19
648.099	6121.55
648.292	6015.05
648.485	6031.44
648.678	5908.56
648.871	6074.45
649.064	5671
649.256	5816.4
649.449	5752.91
649.642	5898.32
649.835	5804.11
650.027	5734.48
650.22	5605.46
650.413	5552.21
650.605	5654.61
650.798	5668.95
650.991	5388.38
651.183	5443.67
651.376	5484.63
651.568	5480.54
651.761	5296.22
651.954	5503.06
652.146	5433.43
652.339	5439.58
652.531	5453.91
652.724	5326.94
652.916	5267.55
653.109	5159
653.301	5148.76
653.494	5204.06
653.686	5169.24
653.879	5285.98
654.071	5113.95
654.263	5116
654.456	5128.28
654.648	5054.56
654.84	4851.81
655.033	5003.36
655.225	4722.79
655.417	4880.48
655.61	4821.09
655.802	4943.97
655.994	4798.56
656.186	4694.12
656.379	4804.71
656.571	4804.71
656.763	4663.4
656.955	4749.41
657.148	4632.68
657.34	4749.41
657.532	4661.35
657.724	4458.6
657.916	4577.38
658.108	4720.74
658.3	4575.33
658.492	4579.43
658.684	4540.52
658.876	4339.82
659.068	4366.44
659.26	4542.57
659.452	4575.33
659.644	4460.65
659.836	4368.49
660.028	4356.2
660.22	4255.85
660.412	4239.47
660.604	4116.59
660.796	4163.69
660.988	4245.61
661.18	4364.39
661.372	4284.52
661.563	4231.27
661.755	4122.73
661.947	4042.86
662.139	4100.2
662.331	4069.48
662.522	4051.05
662.714	3971.18
662.906	3977.33
663.097	3932.27
663.289	3930.22
663.481	3999.85
663.673	3868.78
663.864	3893.36
664.056	3858.54
664.247	3874.93
664.439	3721.33
664.631	3774.58
664.822	3876.98
665.014	3905.65
665.205	3801.2
665.397	3879.02
665.588	3874.93
665.78	3819.63
665.971	3727.47
666.163	3836.02
666.354	3692.66
666.546	3565.68
666.737	3696.75
666.929	3623.03
667.12	3561.59
667.311	3721.33
667.503	3600.5
667.694	3659.89
667.885	3567.73
668.077	3455.09
668.268	3461.24
668.459	3481.72
668.651	3518.58
668.842	3459.19
669.033	3514.49
669.224	3422.33
669.416	3410.04
669.607	3352.7
669.798	3313.78
669.989	3422.33
670.18	3309.69
670.371	3209.34
670.563	3354.74
670.754	3410.04
670.945	3266.68
671.136	3303.54
671.327	3303.54
671.518	3270.78
671.709	3301.5
671.9	3299.45
672.091	3233.91
672.282	3250.3
672.473	3186.81
672.664	3223.67
672.855	3176.57
673.046	3201.15
673.237	3336.31
673.428	3215.48
673.619	3078.27
673.809	3203.19
674	3086.46
674.191	3016.83
674.382	3061.88
674.573	3151.99
674.764	3088.51
674.954	3100.8
675.145	3070.08
675.336	3080.32
675.527	3143.8
675.717	3156.09
675.908	3031.16
676.099	3000.44
676.289	2971.77
676.48	2904.19
676.671	2906.24
676.861	2930.81
677.052	3100.8
677.243	3018.88
677.433	2939.01
677.624	3029.12
677.814	2930.81
678.005	2867.33
678.195	2918.53
678.386	3033.21
678.576	2908.29
678.767	2807.94
678.957	2930.81
679.148	2959.49
679.338	2916.48
679.529	2959.49
679.719	2838.66
679.909	2889.85
680.1	2889.85
680.29	2799.74
680.481	2762.88
680.671	2789.5
680.861	2826.37
681.052	2752.64
681.242	2785.41
681.432	2857.09
681.622	2809.98
681.813	2803.84
682.003	2891.9
682.193	2830.46
682.383	2736.26
682.573	2758.78
682.764	2693.25
682.954	2797.7
683.144	2928.77
683.334	2662.53
683.524	2676.87
683.714	2701.44
683.904	2769.02
684.094	2807.94
684.284	2766.98
684.474	2812.03
684.664	2711.68
684.854	2758.78
685.044	2726.02
685.234	2709.63
685.424	2699.39
685.614	2635.91
685.804	2783.36
685.994	2566.28
686.184	2570.37
686.374	2742.4
686.564	2703.49
686.753	2730.11
686.943	2601.09
687.133	2648.19
687.323	2631.81
687.513	2580.61
687.702	2592.9
687.892	2588.8
688.082	2447.49
688.272	2496.64
688.461	2537.6
688.651	2523.27
688.841	2603.14
689.03	2465.93
689.22	2529.41
689.41	2482.31
689.599	2447.49
689.789	2463.88
689.979	2384.01
690.168	2490.5
690.358	2447.49
690.547	2406.53
690.737	2424.97
690.926	2449.54
691.116	2418.82
691.305	2472.07
691.495	2355.33
691.684	2396.29
691.874	2371.72
692.063	2394.25
692.252	2367.62
692.442	2371.72
692.631	2386.05
692.82	2347.14
693.01	2369.67
693.199	2328.71
693.388	2345.09
693.578	2351.24
693.767	2328.71
693.956	2199.69
694.146	2263.18
694.335	2312.33
694.524	2398.34
694.713	2269.32
694.902	2232.46
695.092	2140.3
695.281	2273.42
695.47	2297.99
695.659	2175.11
695.848	2125.96
696.037	2308.23
696.226	2138.25
696.415	2216.07
696.604	2281.61
696.793	2281.61
696.982	2384.01
697.171	2281.61
697.36	2230.41
697.549	2297.99
697.738	2187.4
697.927	2060.43
698.116	2283.66
698.305	2209.93
698.494	2058.38
698.683	2297.99
698.872	2273.42
699.061	2187.4
699.25	2115.72
699.438	2128.01
699.627	2254.98
699.816	2291.85
700.005	2160.78
700.193	2179.21
700.382	2197.64
700.571	2220.17
700.76	2171.02
700.948	2252.94
701.137	2162.83
701.326	2248.84
701.514	2152.59
701.703	2205.83
701.892	2171.02
702.08	2234.5
702.269	2279.56
702.457	2201.74
702.646	2257.03
702.834	2236.55
703.023	2181.26
703.212	2193.55
703.4	2162.83
703.589	2175.11
703.777	2250.89
703.965	2142.35
704.154	2242.7
704.342	2078.86
704.531	2228.36
704.719	2168.97
704.907	2289.8
705.096	2226.31
705.284	2263.18
705.472	2300.04
705.661	2187.4
705.849	2287.75
706.037	2257.03
706.226	2203.79
706.414	2216.07
706.602	2238.6
706.79	2175.11
706.979	2246.79
707.167	2195.59
707.355	2244.74
707.543	2267.27
707.731	2271.37
707.919	2226.31
708.107	2259.08
708.296	2082.95
708.484	2146.44
708.672	2218.12
708.86	2226.31
709.048	2281.61
709.236	2242.7
709.424	2263.18
709.612	2222.22
709.8	2209.93
709.988	2187.4
710.176	2171.02
710.364	2285.7
710.551	2171.02
710.739	2242.7
710.927	2171.02
711.115	2228.36
711.303	2177.16
711.491	2216.07
711.679	2050.19
711.866	2316.42
712.054	2158.73
712.242	2177.16
712.43	2193.55
712.617	2214.02
712.805	2242.7
712.993	2244.74
713.181	2218.12
713.368	2142.35
713.556	2304.14
713.744	2177.16
713.931	2265.22
714.119	2078.86
714.306	2162.83
714.494	2138.25
714.682	2254.98
714.869	2150.54
715.057	2177.16
715.244	2164.87
715.432	2203.79
715.619	2228.36
715.807	2142.35
715.994	2193.55
716.182	2267.27
716.369	2179.21
716.556	2138.25
716.744	2160.78
716.931	2230.41
717.119	2142.35
717.306	2189.45
717.493	2091.15
717.681	2085
717.868	2162.83
718.055	2154.63
718.242	2205.83
718.43	2123.91
718.617	2207.88
718.804	2093.19
718.991	2119.82
719.179	2302.09
719.366	2199.69
719.553	2136.2
719.74	2181.26
719.927	2230.41
720.114	2177.16
720.301	2242.7
720.488	2177.16
720.676	2080.91
720.863	2222.22
721.05	2156.68
721.237	2093.19
721.424	2082.95
721.611	2197.64
721.798	2109.58
721.985	2140.3
722.172	2134.15
722.358	2146.44
722.545	2113.67
722.732	2054.28
722.919	2113.67
723.106	2189.45
723.293	2060.43
723.48	2119.82
723.667	2171.02
723.853	2246.79
724.04	2093.19
724.227	2103.43
724.414	2111.63
724.6	2091.15
724.787	2222.22
724.974	2058.38
725.161	2134.15
725.347	2211.98
725.534	2136.2
725.72	2046.09
725.907	2119.82
726.094	2082.95
726.28	2109.58
726.467	2111.63
726.653	2027.66
726.84	2095.24
727.027	2050.19
727.213	2025.61
727.4	2109.58
727.586	2078.86
727.773	2037.9
727.959	2076.81
728.145	2181.26
728.332	2168.97
728.518	2105.48
728.705	2111.63
728.891	2128.01
729.077	2142.35
729.264	2042
729.45	2111.63
729.636	2056.33
729.823	1980.56
730.009	2105.48
730.195	2072.72
730.382	2082.95
730.568	2125.96
730.754	2076.81
730.94	2076.81
731.126	2085
731.313	2037.9
731.499	2080.91
731.685	2109.58
731.871	2029.71
732.057	2029.71
732.243	2066.57
732.429	2078.86
732.615	2097.29
732.801	2050.19
732.987	2111.63
733.173	2027.66
733.359	2015.37
733.545	2113.67
733.731	2019.47
733.917	2121.87
734.103	2123.91
734.289	2078.86
734.475	1966.22
734.661	2074.76
734.847	2048.14
735.033	2152.59
735.219	1992.84
735.404	2111.63
735.59	1931.41
735.776	2064.52
735.962	2097.29
736.148	1933.45
736.333	1925.26
736.519	2007.18
736.705	1976.46
736.89	1945.74
737.076	2005.13
737.262	2031.76
737.447	1949.84
737.633	1964.17
737.819	2070.67
738.004	1949.84
738.19	1927.31
738.375	1964.17
738.561	1927.31
738.747	1935.5
738.932	1919.12
739.118	2046.09
739.303	2009.23
739.489	1980.56
739.674	1998.99
739.859	1837.2
740.045	1935.5
740.23	1861.77
740.416	1841.29
740.601	1927.31
740.786	1896.59
740.972	1843.34
741.157	1951.88
741.342	1841.29
741.528	1910.93
741.713	1798.29
741.898	1831.05
742.084	1818.77
742.269	1902.73
742.454	1925.26
742.639	1829.01
742.824	1796.24
743.01	1902.73
743.195	1851.53
743.38	1841.29
743.565	1808.53
743.75	1788.05
743.935	1732.75
744.12	1857.68
744.305	1714.32
744.49	1773.71
744.675	1726.61
744.86	1710.22
745.045	1773.71
745.23	1646.74
745.415	1738.9
745.6	1716.37
745.785	1603.73
745.97	1855.63
746.155	1611.92
746.34	1759.38
746.525	1710.22
746.71	1685.65
746.895	1605.78
747.079	1603.73
747.264	1710.22
747.449	1607.83
747.634	1589.39
747.819	1667.22
748.003	1722.51
748.188	1624.21
748.373	1624.21
748.557	1677.46
748.742	1532.05
748.927	1532.05
749.111	1534.1
749.296	1521.81
749.481	1480.85
749.665	1458.32
749.85	1587.35
750.034	1515.67
750.219	1554.58
750.404	1505.43
750.588	1530
750.773	1411.22
750.957	1480.85
751.141	1353.88
751.326	1505.43
751.51	1382.55
751.695	1468.56
751.879	1378.45
752.064	1417.37
752.248	1452.18
752.432	1407.13
752.617	1355.93
752.801	1470.61
752.985	1362.07
753.17	1329.3
753.354	1394.84
753.538	1343.64
753.722	1274.01
753.907	1231
754.091	1247.38
754.275	1251.48
754.459	1237.14
754.643	1261.72
754.828	1314.97
755.012	1237.14
755.196	1278.1
755.38	1220.76
755.564	1243.29
755.748	1151.13
755.932	1190.04
756.116	1208.47
756.3	1116.31
756.484	1030.3
756.668	1161.37
756.852	1136.79
757.036	1169.56
757.22	1134.75
757.404	1216.66
757.588	1044.63
757.772	1192.09
757.956	1206.42
758.14	1058.97
758.323	1079.45
758.507	1101.98
758.691	1030.3
758.875	1075.35
759.059	1013.92
759.242	946.33
759.426	985.24
759.61	1048.73
759.794	1048.73
759.977	1046.68
760.161	1138.84
760.345	1013.92
760.528	1018.01
760.712	1020.06
760.895	1050.78
761.079	1040.54
761.263	1013.92
761.446	952.48
761.63	997.53
761.813	1009.82
761.997	960.67
762.18	1069.21
762.364	954.52
762.547	845.98
762.731	981.15
762.914	927.9
763.098	964.76
763.281	964.76
763.464	942.24
763.648	911.52
763.831	1032.35
764.015	932
764.198	917.66
764.381	938.14
764.564	977.05
764.748	817.31
764.931	884.89
765.114	968.86
765.297	893.09
765.481	903.32
765.664	907.42
765.847	811.17
766.03	905.37
766.213	821.41
766.397	895.13
766.58	952.48
766.763	893.09
766.946	753.82
767.129	770.21
767.312	895.13
767.495	811.17
767.678	825.5
767.861	784.54
768.044	833.69
768.227	784.54
768.41	878.75
768.593	805.02
768.776	870.56
768.959	866.46
769.142	829.6
769.324	825.5
769.507	780.45
769.69	780.45
769.873	714.91
770.056	825.5
770.239	757.92
770.421	813.21
770.604	825.5
770.787	778.4
770.97	809.12
771.152	843.93
771.335	776.35
771.518	704.67
771.7	700.58
771.883	817.31
772.066	710.82
772.248	852.13
772.431	768.16
772.613	682.14
772.796	731.3
772.978	725.15
773.161	682.14
773.343	614.56
773.526	690.34
773.708	680.1
773.891	661.66
774.073	735.39
774.256	751.78
774.438	657.57
774.621	690.34
774.803	653.47
774.985	682.14
775.168	721.06
775.35	653.47
775.532	727.2
775.715	575.65
775.897	710.82
776.079	602.27
776.261	653.47
776.444	678.05
776.626	614.56
776.808	608.42
776.99	553.12
777.173	571.55
777.355	563.36
777.537	555.17
777.719	546.98
777.901	587.94
778.083	526.5
778.265	669.86
778.447	561.31
778.629	549.03
778.811	542.88
778.993	481.44
779.175	622.75
779.357	561.31
779.539	514.21
779.721	503.97
779.903	514.21
780.085	501.92
780.267	516.26
780.449	583.84
780.631	510.11
780.812	514.21
780.994	508.07
781.176	536.74
781.358	555.17
781.54	579.75
781.721	530.59
781.903	440.48
782.085	530.59
782.267	512.16
782.448	458.92
782.63	604.32
782.812	483.49
782.993	518.31
783.175	424.1
783.357	534.69
783.538	460.96
783.72	460.96
783.901	501.92
784.083	397.48
784.264	485.54
784.446	422.05
784.627	383.14
784.809	440.48
784.99	463.01
785.172	393.38
785.353	444.58
785.535	424.1
785.716	329.89
785.897	397.48
786.079	381.09
786.26	403.62
786.441	460.96
786.623	389.28
786.804	456.87
786.985	354.47
787.167	452.77
787.348	424.1
787.529	338.09
787.71	395.43
787.891	405.67
788.073	331.94
788.254	321.7
788.435	325.8
788.616	391.33
788.797	346.28
788.978	305.32
789.159	317.61
789.34	288.93
789.522	342.18
789.703	319.65
789.884	377
790.065	329.89
790.246	370.85
790.427	313.51
790.607	448.68
790.788	317.61
790.969	317.61
791.15	342.18
791.331	288.93
791.512	385.19
791.693	319.65
791.874	336.04
792.054	305.32
792.235	338.09
792.416	186.54
792.597	274.6
792.778	239.78
792.958	299.17
793.139	264.36
793.32	356.52
793.5	237.74
793.681	362.66
793.862	280.74
794.042	217.26
794.223	252.07
794.404	297.13
794.584	239.78
794.765	323.75
794.945	278.69
795.126	262.31
795.306	309.41
795.487	243.88
795.667	213.16
795.848	243.88
796.028	266.41
796.209	239.78
796.389	297.13
796.57	198.82
796.75	225.45
796.93	198.82
797.111	237.74
797.291	264.36
797.471	282.79
797.652	245.93
797.832	272.55
798.012	223.4
798.192	196.78
798.373	258.21
798.553	262.31
798.733	174.25
798.913	215.21
799.093	215.21
799.274	239.78
799.454	243.88
799.634	254.12
799.814	323.75
799.994	233.64
800.174	194.73
800.354	186.54
800.534	276.65
800.714	188.58
800.894	233.64
801.074	235.69
801.254	149.67
801.434	336.04
801.614	172.2
801.794	227.5
801.974	534.69
802.154	194.73
802.334	217.26
802.514	186.54
802.693	217.26
802.873	170.15
803.053	247.97
803.233	209.06
803.413	141.48
803.592	137.38
803.772	217.26
803.952	264.36
804.131	143.53
804.311	219.3
804.491	207.02
804.67	141.48
804.85	190.63
805.03	164.01
805.209	190.63
805.389	241.83
805.568	215.21
805.748	207.02
805.928	207.02
806.107	213.16
806.287	182.44
806.466	213.16
806.646	102.57
806.825	192.68
807.004	204.97
807.184	127.14
807.363	172.2
807.543	131.24
807.722	221.35
807.901	229.54
808.081	166.06
808.26	149.67
808.439	166.06
808.619	149.67
808.798	166.06
808.977	143.53
809.156	100.52
809.336	116.9
809.515	211.11
809.694	108.71
809.873	137.38
810.052	166.06
810.231	202.92
810.411	200.87
810.59	135.34
810.769	178.34
810.948	217.26
811.127	121
811.306	151.72
811.485	86.19
811.664	219.3
811.843	149.67
812.022	159.91
812.201	176.3
812.38	112.81
812.559	110.76
812.737	92.33
812.916	161.96
813.095	125.1
813.274	127.14
813.453	137.38
813.632	108.71
813.811	80.04
813.989	141.48
814.168	149.67
814.347	118.95
814.526	151.72
814.704	94.38
814.883	104.62
815.062	55.47
815.24	145.58
815.419	129.19
815.598	145.58
815.776	102.57
815.955	51.37
816.133	106.67
816.312	149.67
816.49	96.43
816.669	135.34
816.847	100.52
817.026	57.51
817.204	133.29
817.383	92.33
817.561	161.96
817.74	200.87
817.918	200.87
818.097	114.86
818.275	157.86
818.453	100.52
818.632	118.95
818.81	170.15
818.988	96.43
819.167	41.13
819.345	34.99
819.523	129.19
819.701	145.58
819.879	77.99
820.058	123.05
820.236	121
820.414	75.95
820.592	-1.88
820.77	104.62
820.948	75.95
821.127	98.47
821.305	100.52
821.483	121
821.661	63.66
821.839	133.29
822.017	75.95
822.195	139.43
822.373	133.29
822.551	43.18
822.729	90.28
822.907	106.67
823.085	86.19
823.262	39.08
823.44	104.62
823.618	121
823.796	90.28
823.974	57.51
824.152	51.37
824.329	16.55
824.507	80.04
824.685	63.66
824.863	137.38
825.04	92.33
825.218	137.38
825.396	116.9
825.574	47.27
825.751	34.99
825.929	116.9
826.107	32.94
826.284	49.32
826.462	69.8
826.639	151.72
826.817	86.19
826.994	26.79
827.172	47.27
827.349	112.81
827.527	104.62
827.704	188.58
827.882	106.67
828.059	96.43
828.237	43.18
828.414	22.7
828.591	84.14
828.769	49.32
828.946	67.75
829.124	94.38
829.301	80.04
829.478	73.9
829.655	108.71
829.833	106.67
830.01	73.9
830.187	114.86
830.364	57.51
830.542	59.56
830.719	116.9
830.896	12.46
831.073	51.37
831.25	155.82
831.427	39.08
831.604	123.05
831.782	45.23
831.959	30.89
832.136	108.71
832.313	18.6
832.49	26.79
832.667	57.51
832.844	30.89
833.021	106.67
833.198	43.18
833.374	37.03
833.551	90.28
833.728	8.36
833.905	-12.12
834.082	30.89
834.259	43.18
834.436	59.56
834.612	45.23
834.789	100.52
834.966	-10.07
835.143	55.47
835.319	34.99
835.496	94.38
835.673	90.28
835.85	82.09
836.026	8.36
836.203	47.27
836.38	4.27
836.556	30.89
836.733	47.27
836.909	145.58
837.086	106.67
837.262	55.47
837.439	73.9
837.616	6.31
837.792	43.18
837.968	26.79
838.145	90.28
838.321	57.51
838.498	30.89
838.674	63.66
838.851	37.03
839.027	26.79
839.203	98.47
839.38	96.43
839.556	57.51
839.732	149.67
839.909	45.23
840.085	104.62
840.261	55.47
840.437	63.66
840.614	53.42
840.79	82.09
840.966	131.24
841.142	-36.69
841.318	77.99
841.494	51.37
841.671	51.37
841.847	12.46
842.023	43.18
842.199	118.95
842.375	86.19
842.551	47.27
842.727	55.47
842.903	92.33
843.079	14.51
843.255	18.6
843.431	30.89
843.607	61.61
843.783	22.7
843.959	71.85
844.134	104.62
844.31	55.47
844.486	32.94
844.662	53.42
844.838	-38.74
845.013	41.13
845.189	71.85
845.365	30.89
845.541	57.51
845.716	14.51
845.892	14.51
846.068	10.41
846.244	-18.26
846.419	143.53
846.595	-44.88
846.77	39.08
846.946	28.84
847.122	22.7
847.297	12.46
847.473	55.47
847.648	-40.79
847.824	37.03
847.999	-83.8
848.175	8.36
848.35	32.94
848.526	47.27
848.701	34.99
848.876	26.79
849.052	51.37
849.227	53.42
849.403	47.27
849.578	-3.93
849.753	59.56
849.929	26.79
850.104	-26.45
850.279	57.51
850.454	37.03
850.63	129.19
850.805	73.9
850.98	43.18
851.155	45.23
851.33	-32.6
851.505	-18.26
851.681	0.17
851.856	37.03
852.031	86.19
852.206	8.36
852.381	57.51
852.556	8.36
852.731	37.03
852.906	0.17
853.081	96.43
853.256	16.55
853.431	24.75
853.606	4.27
853.781	24.75
853.956	-36.69
854.131	10.41
854.305	26.79
854.48	18.6
854.655	22.7
854.83	10.41
855.005	-12.12
855.18	-18.26
855.354	-55.12
855.529	26.79
855.704	-8.02
855.879	82.09
856.053	-8.02
856.228	14.51
856.403	8.36
856.577	53.42
856.752	-44.88
856.926	57.51
857.101	63.66
857.276	-12.12
857.45	10.41
857.625	104.62
857.799	4.27
857.974	-3.93
858.148	75.95
858.323	32.94
858.497	10.41
858.672	-8.02
858.846	39.08
859.02	14.51
859.195	16.55
859.369	-16.21
859.543	32.94
859.718	41.13
859.892	16.55
860.066	55.47
860.241	-46.93
860.415	-5.97
860.589	34.99
860.763	-42.84
860.938	34.99
861.112	57.51
861.286	2.22
861.46	24.75
861.634	-65.36
861.808	-20.31
861.982	43.18
862.157	22.7
862.331	-38.74
862.505	-3.93
862.679	-85.84
862.853	39.08
863.027	18.6
863.201	45.23
863.375	34.99
863.549	-3.93
863.722	39.08
863.896	-10.07
864.07	24.75
864.244	-14.17
864.418	37.03
864.592	47.27
864.766	12.46
864.939	37.03
865.113	-46.93
865.287	88.23
865.461	-42.84
865.634	94.38
865.808	0.17
865.982	20.65
866.156	32.94
866.329	4.27
866.503	39.08
866.676	84.14
866.85	0.17
867.024	49.32
867.197	32.94
867.371	-24.4
867.544	37.03
867.718	28.84
867.891	24.75
868.065	26.79
868.238	63.66
868.412	71.85
868.585	28.84
868.759	-34.64
868.932	-71.51
869.105	12.46
869.279	-10.07
869.452	37.03
869.625	4.27
869.799	30.89
869.972	-28.5
870.145	-26.45
870.319	-34.64
870.492	26.79
870.665	6.31
870.838	22.7
871.011	0.17
871.185	18.6
871.358	24.75
871.531	-30.55
871.704	20.65
871.877	67.75
872.05	26.79
872.223	-34.64
872.396	55.47
872.569	86.19
872.742	-51.03
872.915	12.46
873.088	-14.17
873.261	30.89
873.434	-8.02
873.607	-14.17
873.78	-10.07
873.953	-36.69
874.126	71.85
874.299	45.23
874.471	-22.36
874.644	49.32
874.817	32.94
874.99	55.47
875.163	2.22
875.335	55.47
875.508	14.51
875.681	45.23
875.853	30.89
876.026	-14.17
876.199	-32.6
876.371	-3.93
876.544	-51.03
876.717	71.85
876.889	-38.74
877.062	22.7
877.234	-22.36
877.407	20.65
877.579	18.6
877.752	34.99
877.924	41.13
878.097	69.8
878.269	30.89
878.442	94.38
878.614	12.46
878.786	-16.21
878.959	28.84
879.131	94.38
879.303	-28.5
879.476	75.95
879.648	14.51
879.82	-22.36
879.993	-26.45
880.165	0.17
880.337	-16.21
880.509	-38.74
880.681	-122.71
880.854	82.09
881.026	20.65
881.198	-1.88
881.37	53.42
881.542	37.03
881.714	-18.26
881.886	71.85
882.058	-42.84
882.23	14.51
882.402	24.75
882.574	-79.7
882.746	2.22
882.918	-8.02
883.09	39.08
883.262	34.99
883.434	26.79
883.606	51.37
883.778	-20.31
883.95	-18.26
884.122	-24.4
884.293	-51.03
884.465	-28.5
884.637	10.41
884.809	-51.03
884.98	20.65
885.152	-10.07
885.324	-20.31
885.496	-3.93
885.667	-14.17
885.839	-12.12
886.011	34.99
886.182	8.36
886.354	57.51
886.525	-65.36
886.697	-28.5
886.869	-18.26
887.04	-22.36
887.212	14.51
887.383	57.51
887.555	-18.26
887.726	-53.08
887.897	-1.88
888.069	24.75
888.24	-5.97
888.412	-18.26
888.583	-38.74
888.754	10.41
888.926	43.18
889.097	-55.12
889.268	20.65
889.44	24.75
889.611	10.41
889.782	59.56
889.953	-32.6
890.125	43.18
890.296	-48.98
890.467	-59.22
890.638	-1.88
890.809	-12.12
890.98	10.41
891.151	6.31
891.323	-75.6
891.494	-12.12
891.665	-28.5
891.836	12.46
892.007	2.22
892.178	57.51
892.349	-59.22
892.52	10.41
892.691	-3.93
892.862	53.42
893.032	34.99
893.203	51.37
893.374	-18.26
893.545	30.89
893.716	-20.31
893.887	-32.6
894.057	-18.26
894.228	22.7
894.399	-53.08
894.57	-22.36
894.74	24.75
894.911	55.47
895.082	-5.97
895.253	-38.74
895.423	-34.64
895.594	28.84
895.764	-26.45
895.935	-5.97
896.106	-14.17
896.276	-30.55
896.447	59.56
896.617	51.37
896.788	12.46
896.958	-16.21
897.129	-59.22
897.299	-14.17
897.47	12.46
897.64	-24.4
897.81	-14.17
897.981	14.51
898.151	14.51
898.322	80.04
898.492	2.22
898.662	-44.88
898.832	-10.07
899.003	-57.17
899.173	-61.27
899.343	-12.12
899.513	-94.04
