Data from USB4F104151__295__11-13-08-079.txt Node

Date: Wed Mar 12 11:13:08 EDT 2025
User: louis
Spectrometer: USB4F10415
Trigger mode: 4
Integration Time (sec): 2.000000E-2
Scans to average: 1
Electric dark correction enabled: true
Nonlinearity correction enabled: false
Boxcar width: 0
XAxis mode: Wavelengths
Number of Pixels in Spectrum: 3648
>>>>>Begin Spectral Data<<<<<
178.204	-48.3
178.424	-48.3
178.644	-48.3
178.864	-29.87
179.084	-15.53
179.304	-58.54
179.524	-3.24
179.744	-19.63
179.964	-36.01
180.184	68.44
180.404	50
180.624	43.86
180.844	-36.01
181.064	-15.53
181.283	-7.34
181.503	11.09
181.723	2.9
181.943	19.29
182.163	41.81
182.383	31.57
182.602	43.86
182.822	72.53
183.042	-5.29
183.262	4.95
183.482	54.1
183.701	41.81
183.921	47.96
184.141	-5.29
184.361	33.62
184.58	25.43
184.8	103.25
185.02	39.76
185.239	119.64
185.459	13.14
185.679	17.24
185.898	9.05
186.118	72.53
186.338	50
186.557	41.81
186.777	-15.53
186.997	45.91
187.216	4.95
187.436	82.77
187.655	74.58
187.875	103.25
188.095	80.72
188.314	4.95
188.534	25.43
188.753	-56.49
188.973	66.39
189.192	13.14
189.412	9.05
189.631	29.52
189.851	41.81
190.07	111.44
190.29	-11.43
190.509	-36.01
190.729	54.1
190.948	25.43
191.168	172.88
191.387	105.3
191.607	58.2
191.826	62.29
192.045	31.57
192.265	127.83
192.484	-11.43
192.704	-3.24
192.923	33.62
193.142	93.01
193.362	72.53
193.581	-11.43
193.8	2.9
194.02	72.53
194.239	23.38
194.458	-3.24
194.678	64.34
194.897	99.16
195.116	68.44
195.335	21.33
195.555	4.95
195.774	31.57
195.993	37.72
196.212	82.77
196.432	11.09
196.651	25.43
196.87	35.67
197.089	154.45
197.308	76.63
197.528	84.82
197.747	11.09
197.966	76.63
198.185	50
198.404	-23.72
198.623	60.24
198.842	37.72
199.062	82.77
199.281	107.35
199.5	47.96
199.719	78.68
199.938	15.19
200.157	-1.19
200.376	-13.48
200.595	107.35
200.814	60.24
201.033	33.62
201.252	80.72
201.471	-27.82
201.69	56.15
201.909	109.4
202.128	33.62
202.347	58.2
202.566	23.38
202.785	39.76
203.004	27.48
203.223	60.24
203.442	68.44
203.661	60.24
203.879	68.44
204.098	47.96
204.317	-52.39
204.536	56.15
204.755	13.14
204.974	74.58
205.193	50
205.411	82.77
205.63	70.48
205.849	41.81
206.068	31.57
206.287	41.81
206.505	21.33
206.724	136.02
206.943	23.38
207.162	50
207.381	0.85
207.599	9.05
207.818	-1.19
208.037	47.96
208.255	13.14
208.474	13.14
208.693	-48.3
208.911	-9.39
209.13	56.15
209.349	43.86
209.567	50
209.786	58.2
210.005	68.44
210.223	2.9
210.442	-25.77
210.661	-19.63
210.879	25.43
211.098	76.63
211.316	54.1
211.535	29.52
211.753	-56.49
211.972	39.76
212.191	17.24
212.409	101.2
212.628	39.76
212.846	68.44
213.065	47.96
213.283	-5.29
213.502	78.68
213.72	82.77
213.938	123.73
214.157	68.44
214.375	45.91
214.594	31.57
214.812	105.3
215.031	27.48
215.249	54.1
215.467	27.48
215.686	88.92
215.904	74.58
216.122	23.38
216.341	17.24
216.559	27.48
216.778	-11.43
216.996	21.33
217.214	2.9
217.432	93.01
217.651	-13.48
217.869	19.29
218.087	29.52
218.306	-21.67
218.524	62.29
218.742	76.63
218.96	123.73
219.179	125.78
219.397	58.2
219.615	21.33
219.833	21.33
220.051	54.1
220.27	37.72
220.488	21.33
220.706	60.24
220.924	56.15
221.142	15.19
221.36	45.91
221.578	37.72
221.796	47.96
222.015	25.43
222.233	-5.29
222.451	39.76
222.669	19.29
222.887	95.06
223.105	-44.2
223.323	7
223.541	78.68
223.759	47.96
223.977	-25.77
224.195	60.24
224.413	136.02
224.631	47.96
224.849	-50.35
225.067	66.39
225.285	74.58
225.503	74.58
225.721	21.33
225.939	0.85
226.157	37.72
226.375	70.48
226.592	45.91
226.81	76.63
227.028	11.09
227.246	27.48
227.464	84.82
227.682	15.19
227.9	58.2
228.117	-9.39
228.335	52.05
228.553	80.72
228.771	43.86
228.989	-29.87
229.206	-44.2
229.424	84.82
229.642	9.05
229.86	4.95
230.077	-31.91
230.295	33.62
230.513	-23.72
230.731	-15.53
230.948	47.96
231.166	74.58
231.384	19.29
231.601	-48.3
231.819	93.01
232.037	76.63
232.254	-97.45
232.472	-13.48
232.689	-11.43
232.907	64.34
233.125	37.72
233.342	29.52
233.56	-1.19
233.777	86.87
233.995	52.05
234.213	21.33
234.43	93.01
234.648	7
234.865	7
235.083	52.05
235.3	43.86
235.518	47.96
235.735	90.96
235.953	72.53
236.17	109.4
236.388	52.05
236.605	76.63
236.822	76.63
237.04	-5.29
237.257	35.67
237.475	19.29
237.692	33.62
237.909	-17.58
238.127	-19.63
238.344	68.44
238.562	41.81
238.779	54.1
238.996	47.96
239.214	27.48
239.431	43.86
239.648	-29.87
239.865	62.29
240.083	17.24
240.3	80.72
240.517	-9.39
240.735	-38.06
240.952	72.53
241.169	37.72
241.386	68.44
241.603	62.29
241.821	45.91
242.038	56.15
242.255	33.62
242.472	-31.91
242.689	62.29
242.907	50
243.124	33.62
243.341	-5.29
243.558	66.39
243.775	84.82
243.992	2.9
244.209	9.05
244.426	93.01
244.643	-9.39
244.86	39.76
245.078	-44.2
245.295	82.77
245.512	109.4
245.729	-9.39
245.946	60.24
246.163	11.09
246.38	60.24
246.597	72.53
246.814	105.3
247.031	25.43
247.248	60.24
247.464	4.95
247.681	19.29
247.898	15.19
248.115	105.3
248.332	9.05
248.549	88.92
248.766	56.15
248.983	86.87
249.2	11.09
249.417	74.58
249.633	95.06
249.85	9.05
250.067	90.96
250.284	17.24
250.501	-13.48
250.717	-1.19
250.934	21.33
251.151	-29.87
251.368	29.52
251.585	78.68
251.801	39.76
252.018	97.11
252.235	54.1
252.451	-58.54
252.668	27.48
252.885	60.24
253.102	74.58
253.318	41.81
253.535	-1.19
253.752	35.67
253.968	50
254.185	27.48
254.401	-11.43
254.618	52.05
254.835	-9.39
255.051	119.64
255.268	29.52
255.484	56.15
255.701	23.38
255.917	27.48
256.134	33.62
256.351	27.48
256.567	37.72
256.784	19.29
257	-19.63
257.217	185.17
257.433	-31.91
257.65	84.82
257.866	29.52
258.082	64.34
258.299	29.52
258.515	25.43
258.732	39.76
258.948	64.34
259.165	-23.72
259.381	70.48
259.597	56.15
259.814	9.05
260.03	17.24
260.246	37.72
260.463	35.67
260.679	41.81
260.895	66.39
261.112	62.29
261.328	-31.91
261.544	2.9
261.761	4.95
261.977	-9.39
262.193	54.1
262.409	74.58
262.626	4.95
262.842	72.53
263.058	-23.72
263.274	-5.29
263.49	17.24
263.707	33.62
263.923	31.57
264.139	58.2
264.355	66.39
264.571	103.25
264.787	15.19
265.004	-21.67
265.22	58.2
265.436	27.48
265.652	37.72
265.868	23.38
266.084	-1.19
266.3	19.29
266.516	43.86
266.732	82.77
266.948	52.05
267.164	29.52
267.38	70.48
267.596	2.9
267.812	62.29
268.028	50
268.244	64.34
268.46	-19.63
268.676	52.05
268.892	23.38
269.108	11.09
269.324	25.43
269.54	33.62
269.756	82.77
269.972	82.77
270.188	7
270.403	56.15
270.619	4.95
270.835	-23.72
271.051	56.15
271.267	41.81
271.483	23.38
271.698	-17.58
271.914	23.38
272.13	31.57
272.346	121.68
272.562	27.48
272.777	25.43
272.993	19.29
273.209	-21.67
273.425	-11.43
273.64	70.48
273.856	31.57
274.072	-13.48
274.287	43.86
274.503	70.48
274.719	82.77
274.934	50
275.15	4.95
275.366	74.58
275.581	66.39
275.797	-23.72
276.012	93.01
276.228	78.68
276.444	-1.19
276.659	25.43
276.875	-7.34
277.09	99.16
277.306	17.24
277.521	58.2
277.737	50
277.952	25.43
278.168	9.05
278.383	35.67
278.599	86.87
278.814	115.54
279.03	45.91
279.245	84.82
279.461	60.24
279.676	146.26
279.892	13.14
280.107	52.05
280.322	-33.96
280.538	74.58
280.753	41.81
280.969	47.96
281.184	33.62
281.399	62.29
281.615	-23.72
281.83	109.4
282.045	103.25
282.26	-42.15
282.476	70.48
282.691	80.72
282.906	31.57
283.122	84.82
283.337	4.95
283.552	25.43
283.767	99.16
283.983	60.24
284.198	-3.24
284.413	86.87
284.628	15.19
284.843	-11.43
285.058	15.19
285.274	47.96
285.489	-13.48
285.704	-17.58
285.919	41.81
286.134	-7.34
286.349	0.85
286.564	56.15
286.779	64.34
286.995	-29.87
287.21	7
287.425	-36.01
287.64	27.48
287.855	-68.78
288.07	39.76
288.285	33.62
288.5	82.77
288.715	62.29
288.93	-13.48
289.145	45.91
289.36	31.57
289.575	41.81
289.79	60.24
290.004	23.38
290.219	-27.82
290.434	103.25
290.649	17.24
290.864	19.29
291.079	19.29
291.294	-1.19
291.509	-3.24
291.724	70.48
291.938	-19.63
292.153	88.92
292.368	37.72
292.583	72.53
292.798	58.2
293.012	68.44
293.227	56.15
293.442	80.72
293.657	50
293.871	13.14
294.086	25.43
294.301	101.2
294.516	70.48
294.73	76.63
294.945	-52.39
295.16	82.77
295.374	21.33
295.589	88.92
295.804	72.53
296.018	27.48
296.233	13.14
296.447	86.87
296.662	4.95
296.877	66.39
297.091	35.67
297.306	45.91
297.52	70.48
297.735	54.1
297.949	33.62
298.164	119.64
298.378	93.01
298.593	-5.29
298.807	25.43
299.022	-9.39
299.236	-11.43
299.451	13.14
299.665	95.06
299.88	31.57
300.094	15.19
300.309	11.09
300.523	47.96
300.737	27.48
300.952	47.96
301.166	123.73
301.381	-17.58
301.595	56.15
301.809	35.67
302.024	2.9
302.238	0.85
302.452	-15.53
302.667	133.97
302.881	70.48
303.095	56.15
303.309	56.15
303.524	-11.43
303.738	60.24
303.952	78.68
304.166	47.96
304.381	-17.58
304.595	88.92
304.809	60.24
305.023	97.11
305.237	27.48
305.452	-13.48
305.666	-5.29
305.88	138.07
306.094	47.96
306.308	111.44
306.522	4.95
306.736	74.58
306.95	60.24
307.164	43.86
307.379	-1.19
307.593	7
307.807	35.67
308.021	11.09
308.235	0.85
308.449	25.43
308.663	35.67
308.877	103.25
309.091	60.24
309.305	131.92
309.519	39.76
309.733	76.63
309.947	25.43
310.161	74.58
310.374	9.05
310.588	144.21
310.802	-42.15
311.016	27.48
311.23	47.96
311.444	50
311.658	37.72
311.872	17.24
312.085	41.81
312.299	74.58
312.513	90.96
312.727	93.01
312.941	21.33
313.154	19.29
313.368	33.62
313.582	90.96
313.796	29.52
314.009	29.52
314.223	136.02
314.437	74.58
314.651	15.19
314.864	-9.39
315.078	107.35
315.292	11.09
315.505	-23.72
315.719	50
315.933	84.82
316.146	31.57
316.36	43.86
316.573	74.58
316.787	39.76
317.001	45.91
317.214	21.33
317.428	64.34
317.641	93.01
317.855	-21.67
318.068	-7.34
318.282	33.62
318.495	60.24
318.709	109.4
318.922	78.68
319.136	129.88
319.349	74.58
319.563	35.67
319.776	47.96
319.99	43.86
320.203	68.44
320.417	88.92
320.63	58.2
320.843	82.77
321.057	33.62
321.27	9.05
321.483	0.85
321.697	25.43
321.91	11.09
322.124	76.63
322.337	33.62
322.55	56.15
322.763	43.86
322.977	74.58
323.19	15.19
323.403	-15.53
323.617	-3.24
323.83	19.29
324.043	62.29
324.256	50
324.469	54.1
324.683	117.59
324.896	23.38
325.109	27.48
325.322	15.19
325.535	86.87
325.748	95.06
325.962	29.52
326.175	43.86
326.388	58.2
326.601	15.19
326.814	95.06
327.027	13.14
327.24	72.53
327.453	23.38
327.666	101.2
327.879	99.16
328.092	58.2
328.305	70.48
328.518	-1.19
328.731	47.96
328.944	19.29
329.157	-15.53
329.37	60.24
329.583	54.1
329.796	111.44
330.009	-23.72
330.222	54.1
330.435	105.3
330.648	103.25
330.861	2.9
331.073	27.48
331.286	115.54
331.499	45.91
331.712	-5.29
331.925	45.91
332.138	37.72
332.35	25.43
332.563	-23.72
332.776	58.2
332.989	23.38
333.202	39.76
333.414	82.77
333.627	17.24
333.84	-27.82
334.053	113.49
334.265	11.09
334.478	90.96
334.691	115.54
334.903	52.05
335.116	23.38
335.329	103.25
335.541	56.15
335.754	35.67
335.966	127.83
336.179	74.58
336.392	95.06
336.604	97.11
336.817	62.29
337.029	7
337.242	45.91
337.454	56.15
337.667	64.34
337.88	21.33
338.092	56.15
338.305	117.59
338.517	86.87
338.729	70.48
338.942	95.06
339.154	95.06
339.367	-21.67
339.579	156.5
339.792	-5.29
340.004	13.14
340.217	41.81
340.429	41.81
340.641	7
340.854	70.48
341.066	86.87
341.278	111.44
341.491	86.87
341.703	68.44
341.915	-27.82
342.128	-48.3
342.34	80.72
342.552	66.39
342.764	93.01
342.977	58.2
343.189	72.53
343.401	47.96
343.613	101.2
343.826	2.9
344.038	27.48
344.25	47.96
344.462	107.35
344.674	97.11
344.886	54.1
345.099	37.72
345.311	109.4
345.523	2.9
345.735	121.68
345.947	27.48
346.159	9.05
346.371	103.25
346.583	136.02
346.795	121.68
347.007	84.82
347.219	123.73
347.431	45.91
347.643	82.77
347.855	70.48
348.067	60.24
348.279	45.91
348.491	86.87
348.703	31.57
348.915	45.91
349.127	-3.24
349.339	111.44
349.551	0.85
349.763	13.14
349.975	27.48
350.187	37.72
350.399	37.72
350.61	76.63
350.822	27.48
351.034	78.68
351.246	76.63
351.458	19.29
351.669	15.19
351.881	140.12
352.093	50
352.305	84.82
352.517	39.76
352.728	86.87
352.94	90.96
353.152	97.11
353.363	35.67
353.575	-23.72
353.787	115.54
353.999	4.95
354.21	11.09
354.422	64.34
354.633	39.76
354.845	-33.96
355.057	70.48
355.268	41.81
355.48	43.86
355.692	35.67
355.903	43.86
356.115	-15.53
356.326	-1.19
356.538	70.48
356.749	31.57
356.961	84.82
357.172	50
357.384	84.82
357.595	121.68
357.807	86.87
358.018	86.87
358.23	2.9
358.441	82.77
358.653	129.88
358.864	4.95
359.075	-15.53
359.287	111.44
359.498	78.68
359.709	115.54
359.921	2.9
360.132	17.24
360.344	119.64
360.555	56.15
360.766	60.24
360.977	50
361.189	101.2
361.4	52.05
361.611	107.35
361.823	25.43
362.034	56.15
362.245	-3.24
362.456	15.19
362.667	86.87
362.879	-9.39
363.09	-36.01
363.301	35.67
363.512	129.88
363.723	103.25
363.935	60.24
364.146	97.11
364.357	13.14
364.568	64.34
364.779	60.24
364.99	142.16
365.201	-23.72
365.412	88.92
365.623	7
365.834	37.72
366.045	-38.06
366.256	78.68
366.467	21.33
366.678	29.52
366.889	99.16
367.1	66.39
367.311	74.58
367.522	56.15
367.733	97.11
367.944	37.72
368.155	99.16
368.366	140.12
368.577	43.86
368.788	115.54
368.999	-7.34
369.209	54.1
369.42	74.58
369.631	138.07
369.842	39.76
370.053	115.54
370.264	136.02
370.474	70.48
370.685	78.68
370.896	37.72
371.107	72.53
371.317	103.25
371.528	76.63
371.739	76.63
371.95	11.09
372.16	-15.53
372.371	86.87
372.582	95.06
372.792	2.9
373.003	88.92
373.214	103.25
373.424	58.2
373.635	76.63
373.846	131.92
374.056	-11.43
374.267	33.62
374.477	54.1
374.688	50
374.898	29.52
375.109	39.76
375.319	37.72
375.53	76.63
375.74	123.73
375.951	101.2
376.161	103.25
376.372	117.59
376.582	68.44
376.793	56.15
377.003	17.24
377.214	33.62
377.424	4.95
377.635	27.48
377.845	33.62
378.055	127.83
378.266	25.43
378.476	52.05
378.686	29.52
378.897	54.1
379.107	52.05
379.317	45.91
379.528	39.76
379.738	56.15
379.948	39.76
380.158	90.96
380.369	90.96
380.579	62.29
380.789	68.44
380.999	21.33
381.21	52.05
381.42	80.72
381.63	58.2
381.84	2.9
382.05	13.14
382.261	64.34
382.471	90.96
382.681	58.2
382.891	86.87
383.101	27.48
383.311	13.14
383.521	82.77
383.731	150.36
383.941	86.87
384.151	35.67
384.361	97.11
384.571	70.48
384.781	80.72
384.991	-5.29
385.201	47.96
385.411	60.24
385.621	31.57
385.831	45.91
386.041	19.29
386.251	154.45
386.461	88.92
386.671	2.9
386.881	99.16
387.091	82.77
387.301	95.06
387.511	29.52
387.72	74.58
387.93	17.24
388.14	107.35
388.35	17.24
388.56	41.81
388.769	86.87
388.979	117.59
389.189	93.01
389.399	-11.43
389.609	127.83
389.818	50
390.028	39.76
390.238	78.68
390.447	84.82
390.657	80.72
390.867	72.53
391.076	138.07
391.286	-3.24
391.496	82.77
391.705	41.81
391.915	80.72
392.125	60.24
392.334	21.33
392.544	23.38
392.753	25.43
392.963	123.73
393.172	82.77
393.382	58.2
393.591	146.26
393.801	78.68
394.01	70.48
394.22	78.68
394.429	88.92
394.639	64.34
394.848	58.2
395.058	50
395.267	107.35
395.477	121.68
395.686	119.64
395.895	158.55
396.105	97.11
396.314	33.62
396.524	127.83
396.733	131.92
396.942	111.44
397.152	45.91
397.361	76.63
397.57	45.91
397.78	144.21
397.989	80.72
398.198	138.07
398.407	113.49
398.617	84.82
398.826	58.2
399.035	113.49
399.244	86.87
399.453	52.05
399.663	86.87
399.872	78.68
400.081	47.96
400.29	150.36
400.499	152.4
400.708	70.48
400.917	152.4
401.127	154.45
401.336	62.29
401.545	195.41
401.754	144.21
401.963	111.44
402.172	99.16
402.381	119.64
402.59	133.97
402.799	82.77
403.008	170.83
403.217	138.07
403.426	74.58
403.635	115.54
403.844	125.78
404.053	138.07
404.262	125.78
404.471	166.74
404.68	181.07
404.888	58.2
405.097	179.03
405.306	142.16
405.515	156.5
405.724	185.17
405.933	187.22
406.142	230.23
406.35	107.35
406.559	211.79
406.768	144.21
406.977	213.84
407.185	236.37
407.394	207.7
407.603	193.36
407.812	179.03
408.02	252.75
408.229	240.47
408.438	267.09
408.646	140.12
408.855	215.89
409.064	248.66
409.272	262.99
409.481	275.28
409.69	273.23
409.898	244.56
410.107	193.36
410.315	254.8
410.524	260.95
410.733	342.86
410.941	265.04
411.15	394.06
411.358	318.29
411.567	338.77
411.775	342.86
411.984	398.16
412.192	422.73
412.401	357.2
412.609	430.93
412.818	465.74
413.026	523.09
413.234	428.88
413.443	543.57
413.651	459.6
413.86	516.94
414.068	557.9
414.276	594.76
414.485	590.67
414.693	643.92
414.901	613.2
415.11	676.68
415.318	629.58
415.526	627.53
415.734	641.87
415.943	746.31
416.151	772.94
416.359	781.13
416.567	809.8
416.776	883.53
416.984	887.62
417.192	934.73
417.4	881.48
417.608	822.09
417.817	959.3
418.025	1037.13
418.233	1094.47
418.441	1020.74
418.649	1104.71
418.857	1065.8
419.065	1235.78
419.273	1149.76
419.481	1329.99
419.689	1395.52
419.897	1407.81
420.105	1454.91
420.313	1446.72
420.521	1463.1
420.729	1545.02
420.937	1532.73
421.145	1489.73
421.353	1758.01
421.561	1721.15
421.769	1737.53
421.977	1913.66
422.185	1780.54
422.393	1956.66
422.601	2159.41
422.809	2163.51
423.017	2108.21
423.224	2179.89
423.432	2261.81
423.64	2339.63
423.848	2558.77
424.056	2401.07
424.263	2591.53
424.471	2642.73
424.679	2790.19
424.887	2786.09
425.094	2904.87
425.302	2827.05
425.51	2902.83
425.718	3128.1
425.925	3185.44
426.133	3169.06
426.341	3404.58
426.548	3513.12
426.756	3601.18
426.964	3646.24
427.171	3855.13
427.379	3994.39
427.586	4006.68
427.794	4334.36
428.001	4410.13
428.209	4399.89
428.417	4467.47
428.624	4815.63
428.832	4612.88
429.039	4829.96
429.247	4846.35
429.454	5169.93
429.662	5448.45
429.869	5190.41
430.076	5524.23
430.284	5288.71
430.491	5559.04
430.699	6032.12
430.906	5792.51
431.114	5960.44
431.321	6314.74
431.528	6394.61
431.736	6597.36
431.943	7135.98
432.15	7017.19
432.358	6961.9
432.565	7400.16
432.772	7213.8
432.979	7672.54
433.187	7885.53
433.394	7789.28
433.601	8458.96
433.808	8254.17
434.016	8331.99
434.223	8719.06
434.43	9265.86
434.637	9067.21
434.844	9487.04
435.052	9958.08
435.259	9669.31
435.466	9913.02
435.673	9753.28
435.88	10513.08
436.087	10945.2
436.294	10908.33
436.501	10543.8
436.708	10846.9
436.915	11336.36
437.122	11813.54
437.329	11629.22
437.537	12118.68
437.743	12274.33
437.95	12292.76
438.157	12794.51
438.364	13263.5
438.571	13263.5
438.778	13388.43
438.985	14525.05
439.192	14060.16
439.399	14494.33
439.606	14283.39
439.813	14932.59
440.02	15694.44
440.227	15510.12
440.433	15342.19
440.64	15934.05
440.847	15934.05
441.054	16073.31
441.261	17076.82
441.467	16845.4
441.674	17429.07
441.881	17900.1
442.088	18004.55
442.294	17828.42
442.501	18356.8
442.708	18801.21
442.914	19333.68
443.121	20255.26
443.328	20019.75
443.534	21015.06
443.741	20304.42
443.948	20255.26
444.154	21621.26
444.361	21506.57
444.568	21670.41
444.774	21875.21
444.981	22018.57
445.187	22766.07
445.394	23261.68
445.6	23032.31
445.807	25385.43
446.013	24408.54
446.22	24719.84
446.426	25598.41
446.633	25842.12
446.839	26573.25
447.046	25639.37
447.252	27097.53
447.459	27161.01
447.665	26767.8
447.871	28381.6
448.078	28989.85
448.284	27830.7
448.491	28543.39
448.697	29569.43
448.903	29944.2
449.11	30364.04
449.316	29630.87
449.522	30443.91
449.728	31234.42
449.935	31259
450.141	31480.18
450.347	31865.2
450.553	30998.91
450.76	31627.63
450.966	32678.24
451.172	32274.79
451.378	32862.56
451.584	32016.75
451.791	32952.67
451.997	33233.24
452.203	33325.4
452.409	33454.42
452.615	33102.17
452.821	31879.53
453.027	31701.36
453.233	33050.97
453.44	31926.64
453.646	32356.71
453.852	32635.24
454.058	33372.5
454.264	31961.45
454.47	32428.39
454.676	31844.72
454.882	32713.06
455.088	30181.77
455.294	30409.09
455.5	31091.07
455.705	31025.53
455.911	29856.14
456.117	29143.45
456.323	28866.97
456.529	27404.72
456.735	28486.05
456.941	27689.39
457.147	27333.04
457.352	26497.47
457.558	25960.91
457.764	26335.68
457.97	25629.13
458.176	25242.07
458.381	25156.05
458.587	23839.21
458.793	24242.66
458.999	22845.94
459.204	24564.19
459.41	24011.24
459.616	22163.97
459.821	22348.29
460.027	22059.52
460.233	21713.42
460.438	20505.12
460.644	20652.57
460.85	19923.49
461.055	19380.78
461.261	19315.25
461.466	18094.66
461.672	17629.77
461.878	18876.98
462.083	17424.97
462.289	17066.58
462.494	17109.58
462.7	16302.68
462.905	15927.91
463.111	16226.91
463.316	16499.29
463.522	16185.95
463.727	16239.2
463.932	16190.05
464.138	15729.25
464.343	16003.68
464.549	15575.66
464.754	16433.75
464.959	15911.52
465.165	15909.47
465.37	15266.41
465.575	15055.47
465.781	15297.13
465.986	15446.63
466.191	15106.67
466.397	14836.34
466.602	14068.35
466.807	14551.67
467.012	14269.05
467.218	14353.02
467.423	14215.8
467.628	14338.68
467.833	14799.48
468.038	14344.83
468.244	13986.43
468.449	14523
468.654	13888.13
468.859	14115.45
469.064	13771.4
469.269	13308.55
469.474	13691.52
469.679	13675.14
469.885	13224.59
470.09	13402.76
470.295	13279.88
470.5	13124.24
470.705	13099.66
470.91	12880.53
471.115	12526.23
471.32	12878.48
471.525	12776.08
471.73	12485.27
471.935	12448.41
472.139	12098.2
472.344	12145.31
472.549	12264.09
472.754	12130.97
472.959	11879.07
473.164	11449
473.369	11440.81
473.574	11745.95
473.778	11405.99
473.983	11627.17
474.188	11397.8
474.393	10904.24
474.598	11137.71
474.802	10916.53
475.007	11057.84
475.212	10900.14
475.417	10590.9
475.621	10349.24
475.826	10652.34
476.031	10132.15
476.235	10154.68
476.44	10158.78
476.645	10044.09
476.849	9945.79
477.054	9880.25
477.259	9853.63
477.463	9677.51
477.668	9718.47
477.872	9579.2
478.077	9605.83
478.282	9300.68
478.486	9097.93
478.691	9110.22
478.895	9306.82
479.1	8899.28
479.304	8997.58
479.509	8678.1
479.713	8850.13
479.918	8712.91
480.122	8749.78
480.326	8710.86
480.531	8960.72
480.735	8674
480.94	8585.94
481.144	8843.98
481.348	8506.07
481.553	8651.47
481.757	8250.07
481.961	8651.47
482.166	8653.52
482.37	8409.81
482.574	8331.99
482.778	8364.76
482.983	8504.02
483.187	8379.09
483.391	8286.93
483.595	8506.07
483.8	8323.8
484.004	8372.95
484.208	8534.74
484.412	8491.73
484.616	8444.63
484.821	8266.46
485.025	8174.3
485.229	8385.24
485.433	8467.16
485.637	8415.96
485.841	8323.8
486.045	8313.56
486.249	8411.86
486.453	8399.57
486.657	8391.38
486.861	8325.85
487.065	8336.09
487.269	8516.31
487.473	8092.38
487.677	8557.27
487.881	8467.16
488.085	8334.04
488.289	8362.71
488.493	8592.08
488.697	8399.57
488.901	8561.36
489.105	8387.29
489.309	8473.3
489.512	8415.96
489.716	8551.12
489.92	8600.27
490.124	8559.31
490.328	8712.91
490.531	8475.35
490.735	8682.19
490.939	8665.81
491.143	8520.4
491.346	8700.62
491.55	8800.98
491.754	8764.11
491.958	8889.04
492.161	9007.82
492.365	8915.66
492.569	8848.08
492.772	8757.97
492.976	9091.79
493.18	9071.31
493.383	8927.95
493.587	9026.25
493.79	9255.62
493.994	9110.22
494.197	9173.71
494.401	9183.95
494.605	9282.25
494.808	9536.2
495.012	9419.46
495.215	9429.7
495.419	9620.16
495.622	9573.06
495.825	9779.9
496.029	9763.52
496.232	10005.18
496.436	9773.76
496.639	10040
496.843	10017.47
497.046	10250.94
497.249	10326.71
497.453	10629.81
497.656	10590.9
497.859	10609.33
498.063	10695.35
498.266	11008.69
498.469	10926.77
498.673	11037.36
498.876	11264.68
499.079	11287.21
499.282	11481.77
499.485	11326.12
499.689	11637.41
499.892	11535.01
500.095	11633.32
500.298	12022.43
500.501	11958.94
500.705	12575.38
500.908	12714.64
501.111	12595.86
501.314	12765.84
501.517	12614.29
501.72	12907.15
501.923	12769.94
502.126	13249.16
502.329	13310.6
502.532	13544.07
502.735	13576.84
502.938	13841.03
503.141	14135.93
503.344	14133.89
503.547	14250.62
503.75	14318.2
503.953	14529.14
504.156	14744.18
504.359	14682.74
504.562	14789.24
504.765	15178.35
504.968	15250.03
505.17	15145.58
505.373	15532.65
505.576	15831.65
505.779	16048.74
505.982	16065.12
506.185	16538.2
506.387	16042.59
506.59	16527.96
506.793	16689.75
506.996	16689.75
507.198	17052.24
507.401	17144.4
507.604	17300.05
507.807	17752.65
508.009	17771.08
508.212	17773.13
508.415	17967.68
508.617	18457.15
508.82	18381.37
509.022	18254.4
509.225	18977.33
509.428	19212.85
509.63	19241.52
509.833	19065.39
510.035	19714.6
510.238	19554.86
510.44	19739.18
510.643	20050.47
510.845	20195.87
511.048	20257.31
511.25	20447.77
511.453	20818.46
511.655	21627.4
511.858	21135.89
512.06	21475.85
512.262	21529.1
512.465	21627.4
512.667	22049.28
512.87	21930.5
513.072	21985.8
513.274	22716.92
513.477	22929.91
513.679	22983.16
513.881	23261.68
514.084	23491.05
514.286	23478.77
514.488	23636.46
514.69	24314.34
514.893	24205.8
515.095	24330.72
515.297	24619.49
515.499	24857.05
515.701	25108.95
515.904	25655.76
516.106	25266.64
516.308	25530.83
516.51	26261.96
516.712	25893.32
516.914	26507.71
517.116	26612.16
517.318	26939.83
517.52	26900.92
517.722	26886.59
517.925	27703.73
518.127	27974.06
518.329	27718.06
518.531	28039.59
518.733	28664.22
518.935	28397.99
519.136	28584.35
519.338	29016.47
519.54	29018.52
519.742	29385.11
519.944	29725.07
520.146	29915.53
520.348	30310.79
520.55	30196.1
520.752	30542.21
520.954	30665.09
521.155	30738.82
521.357	31035.77
521.559	31029.63
521.761	31504.76
521.963	31746.42
522.164	31924.59
522.366	32020.84
522.568	32446.82
522.77	32280.94
522.971	33259.87
523.173	32614.76
523.375	32532.84
523.576	32729.44
523.778	33450.33
523.98	33818.96
524.181	33331.54
524.383	33755.47
524.584	33972.56
524.786	33995.09
524.988	34206.03
525.189	34687.3
525.391	34799.94
525.592	34828.61
525.794	34830.66
525.995	34705.73
526.197	35111.23
526.398	35230.01
526.6	35277.12
526.801	35275.07
527.003	35666.23
527.204	35821.87
527.406	36292.91
527.607	35674.42
527.808	36423.98
528.01	35879.22
528.211	36280.62
528.412	36608.29
528.614	36684.07
528.815	36706.6
529.016	36919.59
529.218	36620.58
529.419	36747.56
529.62	36655.4
529.822	36743.46
530.023	37112.1
530.224	37355.8
530.425	37052.7
530.626	36917.54
530.828	36741.41
531.029	37964.05
531.23	37185.82
531.431	37181.73
531.632	37407
531.833	37382.43
532.035	37243.17
532.236	37423.39
532.437	37863.7
532.638	37151.01
532.839	37564.7
533.04	38160.66
533.241	37148.96
533.442	37957.91
533.643	37472.54
533.844	37820.69
534.045	37681.43
534.246	37464.35
534.447	37521.69
534.648	37906.71
534.849	37626.14
535.05	37742.87
535.251	37703.96
535.451	37722.39
535.652	37685.53
535.853	37738.77
536.054	37839.12
536.255	38039.82
536.456	37570.84
536.657	38338.83
536.857	37689.62
537.058	37886.23
537.259	38478.09
537.46	38058.26
537.66	37888.28
537.861	37880.08
538.062	38011.15
538.263	37685.53
538.463	37484.83
538.664	37611.8
538.865	38002.96
539.065	38213.9
539.266	37679.38
539.466	38324.49
539.667	37566.74
539.868	38304.01
540.068	37964.05
540.269	37579.03
540.469	38207.76
540.67	37413.15
540.87	37593.37
541.071	37656.85
541.271	38304.01
541.472	37923.09
541.672	37474.59
541.873	38021.39
542.073	37177.63
542.274	37992.72
542.474	37867.8
542.675	37714.2
542.875	38287.63
543.075	37607.7
543.276	37550.36
543.476	37859.6
543.676	37886.23
543.877	37779.73
544.077	37576.98
544.277	37613.85
544.478	37527.83
544.678	37689.62
544.878	37847.32
545.078	37736.73
545.279	37482.78
545.479	37083.42
545.679	37673.24
545.879	37468.44
546.079	37480.73
546.28	37730.58
546.48	37619.99
546.68	37472.54
546.88	37693.72
547.08	37501.21
547.28	37253.4
547.48	37308.7
547.68	37359.9
547.88	36903.2
548.081	37622.04
548.281	37726.49
548.481	37392.67
548.681	37490.97
548.881	37646.61
549.081	37437.72
549.28	37185.82
549.48	37619.99
549.68	37331.23
549.88	37898.52
550.08	37280.03
550.28	37327.13
550.48	37011.74
550.68	37628.18
550.88	37220.64
551.08	37189.92
551.279	37312.8
551.479	37290.27
551.679	37570.84
551.879	37226.78
552.079	37251.36
552.278	37013.79
552.478	37224.73
552.678	36909.35
552.878	37499.16
553.077	37218.59
553.277	36694.31
553.477	37284.12
553.676	36763.94
553.876	37421.34
554.076	36788.52
554.275	37042.46
554.475	36596.01
554.674	36923.68
554.874	37226.78
555.074	36671.78
555.273	36653.35
555.473	36946.21
555.672	36604.2
555.872	37095.71
556.071	36946.21
556.271	37050.66
556.47	36520.23
556.67	36583.72
556.869	36598.05
557.068	36946.21
557.268	36602.15
557.467	36542.76
557.667	36509.99
557.866	36677.93
558.065	36067.63
558.265	36075.82
558.464	36084.01
558.663	36579.62
558.863	36067.63
559.062	36669.73
559.261	36127.02
559.461	36796.71
559.66	35813.68
559.859	36325.68
560.058	35903.79
560.258	36000.05
560.457	35375.42
560.656	35877.17
560.855	35615.03
561.054	35998
561.253	35742
561.453	35838.26
561.652	35934.51
561.851	35787.06
562.05	35436.86
562.249	35350.84
562.448	35326.27
562.647	35846.45
562.846	35264.83
563.045	35344.7
563.244	35100.99
563.443	35524.92
563.642	35213.63
563.841	35019.07
564.04	35129.66
564.239	35643.7
564.438	34840.9
564.637	35017.02
564.836	34859.33
565.035	34670.92
565.234	34765.12
565.432	34402.63
565.631	34605.38
565.83	34789.7
566.029	34386.25
566.228	34326.86
566.427	34429.26
566.625	34126.16
566.824	33562.97
567.023	34337.1
567.222	33714.51
567.42	34326.86
567.619	34234.7
567.818	34048.33
568.016	34130.25
568.215	33966.42
568.414	33814.87
568.612	34056.53
568.811	33790.29
569.01	33601.88
569.208	33132.89
569.407	33423.7
569.605	32883.04
569.804	33214.81
570.002	33237.34
570.201	33399.13
570.4	33038.69
570.598	32858.46
570.797	32688.48
570.995	33036.64
571.193	32622.95
571.392	32872.8
571.59	32493.93
571.789	32403.81
571.987	32559.46
572.186	32477.54
572.384	32041.32
572.582	32778.59
572.781	32919.9
572.979	31830.38
573.177	32203.11
573.376	32192.87
573.574	31717.75
573.772	32000.37
573.971	31594.87
574.169	31906.16
574.367	31099.26
574.565	31805.81
574.763	31408.5
574.962	31654.26
575.16	31207.8
575.358	31592.82
575.556	30945.66
575.754	31228.28
575.952	31013.24
576.151	31310.2
576.349	30892.41
576.547	30876.03
576.745	30910.85
576.943	30755.2
577.141	30740.86
577.339	30757.25
577.537	30425.48
577.735	30480.77
577.933	30402.95
578.131	30613.89
578.329	30005.64
578.527	30026.12
578.725	30095.75
578.923	30204.3
579.121	29938.06
579.319	30030.22
579.516	29962.64
579.714	29829.52
579.912	29647.25
580.11	29770.13
580.308	29823.37
580.506	29616.53
580.704	29163.93
580.901	29569.43
581.099	29313.43
581.297	29178.26
581.495	29071.77
581.692	29540.75
581.89	28916.12
582.088	28725.66
582.285	28903.84
582.483	29039
582.681	28846.49
582.878	28641.7
583.076	28434.85
583.274	28467.62
583.471	28238.25
583.669	28637.6
583.866	28383.65
584.064	28404.13
584.262	28076.46
584.459	28168.62
584.657	27808.17
584.854	28148.14
585.052	27896.24
585.249	27935.15
585.447	27978.15
585.644	27386.29
585.841	27845.04
586.039	27670.96
586.236	27343.28
586.434	27423.15
586.631	27492.79
586.828	27367.86
587.026	27179.45
587.223	27093.43
587.42	26923.45
587.618	27355.57
587.815	26509.76
588.012	26999.23
588.21	26446.27
588.407	27111.86
588.604	26427.84
588.801	26698.17
588.999	26646.97
589.196	26659.26
589.393	26227.14
589.59	26282.44
589.787	26184.13
589.984	26296.77
590.182	25885.13
590.379	26024.39
590.576	25762.25
590.773	26202.57
590.97	25622.99
591.167	26046.92
591.364	25541.07
591.561	25453.01
591.758	25348.56
591.955	25522.64
592.152	25410
592.349	25182.68
592.546	25344.47
592.743	25635.28
592.94	24988.12
593.137	24875.48
593.334	25086.42
593.531	24564.19
593.727	24938.97
593.924	24965.59
594.121	24646.11
594.318	24568.29
594.515	24457.7
594.712	24588.77
594.908	24254.95
595.105	24687.07
595.302	24379.87
595.499	24271.33
595.696	24349.15
595.892	23994.86
596.089	23992.81
596.286	24003.05
596.482	23820.78
596.679	23970.28
596.876	24132.07
597.072	23609.84
597.269	23761.39
597.466	23431.66
597.662	23499.25
597.859	23552.49
598.055	23542.25
598.252	23087.61
598.448	23423.47
598.645	23499.25
598.841	22927.86
599.038	23054.84
599.234	22966.77
599.431	23042.55
599.627	22741.5
599.824	22530.56
600.02	22999.54
600.217	22618.62
600.413	22430.21
600.609	22374.91
600.806	22215.17
601.002	22430.21
601.198	22282.75
601.395	22352.38
601.591	22166.02
601.787	22245.89
601.984	22178.31
602.18	22297.09
602.376	22034.95
602.572	21826.06
602.769	21799.43
602.965	21611.02
603.161	21860.87
603.357	21795.34
603.553	21625.36
603.75	21527.05
603.946	21590.54
604.142	21522.96
604.338	21400.08
604.534	21373.46
604.73	21142.03
604.926	21238.29
605.122	21107.22
605.318	20804.12
605.514	20797.98
605.71	20759.06
605.906	20806.17
606.102	20888.09
606.298	20652.57
606.494	20417.05
606.69	20726.3
606.886	20709.91
607.082	20705.82
607.278	20673.05
607.474	20175.39
607.67	20525.6
607.866	20236.83
608.062	20298.27
608.257	20144.67
608.453	20087.33
608.649	20105.76
608.845	19849.77
609.041	20029.99
609.236	20230.69
609.432	19767.85
609.628	19839.53
609.824	20062.76
610.019	19821.09
610.215	19909.16
610.411	19958.31
610.606	19661.35
610.802	19857.96
610.998	19849.77
611.193	19634.73
611.389	19528.24
611.584	19337.77
611.78	19266.1
611.976	19380.78
612.171	19401.26
612.367	19395.12
612.562	19022.39
612.758	19329.58
612.953	19200.56
613.149	19182.13
613.344	18995.76
613.539	19427.88
613.735	19157.55
613.93	19116.59
614.126	18975.28
614.321	19307.05
614.517	19163.7
614.712	19178.03
614.907	19010.1
615.103	19163.7
615.298	18967.09
615.493	18848.31
615.688	18649.66
615.884	19171.89
616.079	18831.93
616.274	18829.88
616.47	18823.73
616.665	18707
616.86	18381.37
617.055	18399.8
617.25	18344.51
617.445	18606.65
617.641	18244.16
617.836	18678.33
618.031	18033.22
618.226	18524.73
618.421	18143.81
618.616	18481.72
618.811	17916.48
619.006	18051.65
619.201	17869.38
619.396	18061.89
619.591	17861.19
619.786	17818.18
619.981	17695.3
620.176	17818.18
620.371	17644.1
620.566	17676.87
620.761	17500.75
620.956	17459.79
621.151	17242.7
621.346	17263.18
621.541	16925.27
621.735	17189.46
621.93	16929.36
622.125	16814.68
622.32	16816.72
622.515	16677.46
622.709	16726.61
622.904	16677.46
623.099	16409.18
623.294	16581.21
623.488	16032.35
623.683	16613.98
623.878	16267.87
624.072	16061.02
624.267	16200.29
624.462	15680.1
624.656	15884.9
624.851	15874.66
625.046	15620.71
625.24	15553.13
625.435	15639.14
625.629	15493.74
625.824	15334
626.018	15448.68
626.213	14889.59
626.407	15366.76
626.602	14975.6
626.796	15041.14
626.991	14899.83
627.185	14938.74
627.38	14670.45
627.574	14760.56
627.768	14803.57
627.963	14574.2
628.157	14543.48
628.352	14566.01
628.546	14129.79
628.74	14293.63
628.935	14213.76
629.129	14236.28
629.323	14054.01
629.517	13791.87
629.712	14031.49
629.906	13742.72
630.1	13630.09
630.294	13568.65
630.489	13456.01
630.683	13871.75
630.877	13298.31
631.071	13279.88
631.265	13361.8
631.459	13347.47
631.653	13179.53
631.848	13175.44
632.042	13214.35
632.236	13070.99
632.43	13103.76
632.624	13136.52
632.818	12755.6
633.012	12561.05
633.206	12432.02
633.4	12704.4
633.594	12214.94
633.788	12337.82
633.982	12534.42
634.176	12343.96
634.369	12114.59
634.563	12173.98
634.757	12096.16
634.951	12030.62
635.145	11971.23
635.339	12057.25
635.533	11895.46
635.726	11834.02
635.92	11791.01
636.114	11821.73
636.308	11661.99
636.501	11580.07
636.695	11496.1
636.889	11416.23
637.083	11412.14
637.276	11492.01
637.47	11344.55
637.664	11201.19
637.857	11115.18
638.051	11250.35
638.244	11494.05
638.438	10861.23
638.632	10965.68
638.825	10879.66
639.019	10842.8
639.212	10758.83
639.406	10824.37
639.599	10834.61
639.793	10646.19
639.986	10304.18
640.18	10580.66
640.373	10433.21
640.567	10175.16
640.76	10351.29
640.954	10470.07
641.147	10250.94
641.34	10183.35
641.534	10134.2
641.727	10060.48
641.92	10007.23
642.114	9902.78
642.307	9900.73
642.5	9898.69
642.694	9757.38
642.887	9591.49
643.08	9917.12
643.273	9810.62
643.467	9808.58
643.66	9566.92
643.853	9372.36
644.046	9407.17
644.239	9505.48
644.432	9280.2
644.626	9235.14
644.819	9155.27
645.012	9218.76
645.205	9308.87
645.398	9382.6
645.591	9145.03
645.784	9093.83
645.977	8901.33
646.17	8973
646.363	8819.41
646.556	9030.35
646.749	8796.88
646.942	8846.03
647.135	8704.72
647.328	8796.88
647.521	8635.09
647.714	8512.21
647.907	8608.47
648.099	8575.7
648.292	8413.91
648.485	8448.72
648.678	8336.09
648.871	8200.92
649.064	8301.27
649.256	8454.87
649.449	8385.24
649.642	8274.65
649.835	8131.29
650.027	7965.4
650.22	8166.1
650.413	7901.92
650.605	8110.81
650.798	7899.87
650.991	7805.66
651.183	7955.16
651.376	7670.5
651.568	7946.97
651.761	7768.8
651.954	7654.11
652.146	7799.52
652.339	7471.84
652.531	7613.15
652.724	7686.88
652.916	7281.38
653.109	7441.12
653.301	7412.45
653.494	7484.13
653.686	7135.98
653.879	7330.53
654.071	7355.11
654.263	7226.09
654.456	7314.15
654.648	7152.36
654.84	7027.43
655.033	7107.3
655.225	7019.24
655.417	7062.25
655.61	7142.12
655.802	6982.38
655.994	6818.54
656.186	6894.32
656.379	6757.1
656.571	6951.66
656.763	6912.75
656.955	6773.49
657.148	6757.1
657.34	6759.15
657.532	6707.95
657.724	6464.24
657.916	6619.89
658.108	6427.38
658.3	6447.86
658.492	6583.02
658.684	6542.07
658.876	6306.55
659.068	6355.7
659.26	6273.78
659.452	6454
659.644	6384.37
659.836	6324.98
660.028	6335.22
660.22	6122.23
660.412	5997.31
660.604	6109.94
660.796	6030.07
660.988	6009.59
661.18	5999.35
661.372	5927.67
661.563	5958.39
661.755	6015.74
661.947	5866.24
662.139	5995.26
662.331	5874.43
662.522	5862.14
662.714	5743.36
662.906	5911.29
663.097	5694.21
663.289	5729.02
663.481	5726.97
663.673	5669.63
663.864	5421.83
664.056	5585.66
664.247	5573.38
664.439	5438.21
664.631	5503.75
664.822	5638.91
665.014	5450.5
665.205	5362.44
665.397	5378.82
665.588	5311.24
665.78	5288.71
665.971	5272.32
666.163	5403.39
666.354	5182.21
666.546	5372.68
666.737	5251.85
666.929	5354.24
667.12	5266.18
667.311	5004.04
667.503	5120.78
667.694	5108.49
667.885	5124.87
668.077	5124.87
668.268	5094.15
668.459	5047.05
668.651	5006.09
668.842	4969.23
669.033	5063.43
669.224	4903.69
669.416	4711.18
669.607	4911.88
669.798	4842.25
669.989	4870.92
670.18	4756.24
670.371	4705.04
670.563	4762.38
670.754	4737.81
670.945	4827.92
671.136	4803.34
671.327	4586.26
671.518	4715.28
671.709	4608.78
671.9	4789
672.091	4678.41
672.282	4592.4
672.473	4553.49
672.664	4678.41
672.855	4559.63
673.046	4707.09
673.237	4526.86
673.428	4506.38
673.619	4567.82
673.809	4545.3
674	4293.4
674.191	4543.25
674.382	4483.86
674.573	4514.58
674.764	4434.71
674.954	4416.27
675.145	4299.54
675.336	4322.07
675.527	4356.88
675.717	4397.84
675.908	4260.63
676.099	4191
676.289	4125.46
676.48	4272.92
676.671	4168.47
676.861	4360.98
677.052	4166.42
677.243	4231.96
677.433	4145.94
677.624	4221.72
677.814	4219.67
678.005	4258.58
678.195	4186.9
678.386	4092.69
678.576	4127.51
678.767	4158.23
678.957	4094.74
679.148	4096.79
679.338	4188.95
679.529	4123.41
679.719	4000.54
679.909	4021.02
680.1	4012.82
680.29	4070.17
680.481	3926.81
680.671	4068.12
680.861	3904.28
681.052	3949.34
681.242	3865.37
681.432	4004.63
681.622	3810.08
681.813	3961.62
682.003	4107.03
682.193	3820.32
682.383	3924.76
682.573	4000.54
682.764	3797.79
682.954	3803.93
683.144	3851.03
683.334	3834.65
683.524	3896.09
683.714	3851.03
683.904	3869.47
684.094	3859.23
684.284	3722.01
684.474	3724.06
684.664	3805.98
684.854	3787.55
685.044	3599.13
685.234	3642.14
685.424	3627.81
685.614	3779.36
685.804	3683.1
685.994	3676.96
686.184	3662.62
686.374	3734.3
686.564	3642.14
686.753	3693.34
686.943	3580.7
687.133	3703.58
687.323	3636
687.513	3502.88
687.702	3494.69
687.892	3509.02
688.082	3554.08
688.272	3443.49
688.461	3595.04
688.651	3533.6
688.841	3363.62
689.03	3513.12
689.22	3521.31
689.41	3433.25
689.599	3451.68
689.789	3396.39
689.979	3382.05
690.168	3517.22
690.358	3334.95
690.547	3322.66
690.737	3330.85
690.926	3279.65
691.116	3181.35
691.305	3216.16
691.495	3171.11
691.684	3197.73
691.874	3285.8
692.063	3126.05
692.252	3160.87
692.442	3238.69
692.631	3150.63
692.82	3064.61
693.01	3187.49
693.199	3015.46
693.388	3062.57
693.578	2956.07
693.767	2954.02
693.956	2949.93
694.146	2827.05
694.335	2966.31
694.524	2956.07
694.713	3015.46
694.902	3056.42
695.092	3140.39
695.281	2829.1
695.47	2863.91
695.659	2880.3
695.848	2816.81
696.037	2728.75
696.226	2865.96
696.415	2913.06
696.604	2925.35
696.793	2839.34
696.982	2804.52
697.171	2966.31
697.36	2771.76
697.549	2732.84
697.738	2859.82
697.927	2691.88
698.116	2786.09
698.305	2781.99
698.494	2700.08
698.683	2743.08
698.872	2665.26
699.061	2741.04
699.25	2743.08
699.438	2730.8
699.627	2749.23
699.816	2863.91
700.005	2628.4
700.193	2724.65
700.382	2700.08
700.571	2638.64
700.76	2759.47
700.948	2624.3
701.137	2638.64
701.326	2788.14
701.514	2636.59
701.703	2683.69
701.892	2663.21
702.08	2691.88
702.269	2693.93
702.457	2569.01
702.646	2589.49
702.834	2558.77
703.023	2618.16
703.212	2691.88
703.4	2593.58
703.589	2566.96
703.777	2569.01
703.965	2534.19
704.154	2560.81
704.342	2560.81
704.531	2540.33
704.719	2579.25
704.907	2581.29
705.096	2552.62
705.284	2474.8
705.472	2569.01
705.661	2566.96
705.849	2511.66
706.037	2448.18
706.226	2550.57
706.414	2503.47
706.602	2376.5
706.79	2646.83
706.979	2470.7
707.167	2501.42
707.355	2558.77
707.543	2476.85
707.731	2472.75
707.919	2528.05
708.107	2548.53
708.296	2532.14
708.484	2390.83
708.672	2427.7
708.86	2448.18
709.048	2403.12
709.236	2519.85
709.424	2401.07
709.612	2464.56
709.8	2573.1
709.988	2370.35
710.176	2317.11
710.364	2480.94
710.551	2487.09
710.739	2444.08
710.927	2456.37
711.115	2444.08
711.303	2437.94
711.491	2380.59
711.679	2435.89
711.866	2460.46
712.054	2345.78
712.242	2433.84
712.43	2519.85
712.617	2329.39
712.805	2439.98
712.993	2405.17
713.181	2306.87
713.368	2292.53
713.556	2347.83
713.744	2337.59
713.931	2511.66
714.119	2374.45
714.306	2403.12
714.494	2319.15
714.682	2319.15
714.869	2487.09
715.057	2409.26
715.244	2370.35
715.432	2390.83
715.619	2364.21
715.807	2327.35
715.994	2462.51
716.182	2380.59
716.369	2308.91
716.556	2378.55
716.744	2435.89
716.931	2345.78
717.119	2396.98
717.306	2409.26
717.493	2489.14
717.681	2317.11
717.868	2356.02
718.055	2419.5
718.242	2321.2
718.43	2444.08
718.617	2366.26
718.804	2380.59
718.991	2329.39
719.179	2263.86
719.366	2390.83
719.553	2421.55
719.74	2384.69
719.927	2403.12
720.114	2288.43
720.301	2411.31
720.488	2257.71
720.676	2429.74
720.863	2380.59
721.05	2429.74
721.237	2356.02
721.424	2376.5
721.611	2362.16
721.798	2329.39
721.985	2370.35
722.172	2304.82
722.358	2251.57
722.545	2313.01
722.732	2290.48
722.919	2407.22
723.106	2251.57
723.293	2292.53
723.48	2403.12
723.667	2194.23
723.853	2276.15
724.04	2358.07
724.227	2343.73
724.414	2306.87
724.6	2335.54
724.787	2372.4
724.974	2454.32
725.161	2323.25
725.347	2353.97
725.534	2339.63
725.72	2360.11
725.907	2243.38
726.094	2345.78
726.28	2313.01
726.467	2419.5
726.653	2339.63
726.84	2372.4
727.027	2327.35
727.213	2341.68
727.4	2263.86
727.586	2253.62
727.773	2417.46
727.959	2372.4
728.145	2339.63
728.332	2274.1
728.518	2294.58
728.705	2343.73
728.891	2329.39
729.077	2378.55
729.264	2302.77
729.45	2319.15
729.636	2470.7
729.823	2270
730.009	2374.45
730.195	2222.9
730.382	2433.84
730.568	2310.96
730.754	2294.58
730.94	2405.17
731.126	2329.39
731.313	2388.78
731.499	2374.45
731.685	2333.49
731.871	2224.95
732.057	2343.73
732.243	2413.36
732.429	2331.44
732.615	2364.21
732.801	2351.92
732.987	2325.3
733.173	2335.54
733.359	2366.26
733.545	2358.07
733.731	2313.01
733.917	2429.74
734.103	2335.54
734.289	2345.78
734.475	2196.28
734.661	2362.16
734.847	2267.95
735.033	2472.75
735.219	2245.43
735.404	2368.31
735.59	2190.13
735.776	2292.53
735.962	2413.36
736.148	2274.1
736.333	2276.15
736.519	2153.27
736.705	2284.34
736.89	2333.49
737.076	2304.82
737.262	2276.15
737.447	2405.17
737.633	2270
737.819	2392.88
738.004	2286.39
738.19	2286.39
738.375	2321.2
738.561	2353.97
738.747	2241.33
738.932	2245.43
739.118	2259.76
739.303	2243.38
739.489	2319.15
739.674	2290.48
739.859	2251.57
740.045	2063.16
740.23	2313.01
740.416	2208.56
740.601	2161.46
740.786	2071.35
740.972	2294.58
741.157	2270
741.342	2222.9
741.528	2214.71
741.713	2171.7
741.898	2112.31
742.084	2165.56
742.269	2171.7
742.454	2208.56
742.639	2274.1
742.824	2173.75
743.01	2194.23
743.195	2106.17
743.38	2173.75
743.565	2130.74
743.75	2089.78
743.935	2110.26
744.12	2095.93
744.305	2083.64
744.49	2042.68
744.675	2044.73
744.86	1956.66
745.045	2069.3
745.23	2040.63
745.415	2104.12
745.6	1973.05
745.785	1966.9
745.97	2034.49
746.155	2028.34
746.34	1930.04
746.525	1913.66
746.71	1985.34
746.895	1958.71
747.079	1995.57
747.264	1917.75
747.449	2040.63
747.634	1856.31
747.819	2009.91
748.003	1921.85
748.188	1876.79
748.373	1893.18
748.557	1889.08
748.742	1911.61
748.927	1755.96
749.111	1815.35
749.296	1905.46
749.481	1913.66
749.665	1794.87
749.85	1884.98
750.034	1835.83
750.219	1852.22
750.404	1823.55
750.588	1741.63
750.773	1661.76
750.957	1749.82
751.141	1727.29
751.326	1559.36
751.51	1823.55
751.695	1663.8
751.879	1676.09
752.064	1637.18
752.248	1692.48
752.432	1684.28
752.617	1667.9
752.801	1620.8
752.985	1571.65
753.17	1545.02
753.354	1647.42
753.538	1579.84
753.722	1485.63
753.907	1635.13
754.091	1530.69
754.275	1504.06
754.459	1553.21
754.643	1592.13
754.828	1495.87
755.012	1465.15
755.196	1430.34
755.38	1456.96
755.564	1473.34
755.748	1491.77
755.932	1448.77
756.116	1436.48
756.3	1418.05
756.484	1459.01
756.668	1477.44
756.852	1495.87
757.036	1438.53
757.22	1391.42
757.404	1430.34
757.588	1340.22
757.772	1409.86
757.956	1444.67
758.14	1381.18
758.323	1424.19
758.507	1313.6
758.691	1342.27
758.875	1348.42
759.059	1350.46
759.242	1370.94
759.426	1319.75
759.61	1315.65
759.794	1223.49
759.977	1332.03
760.161	1329.99
760.345	1278.79
760.528	1340.22
760.712	1309.51
760.895	1133.38
761.079	1227.59
761.263	1258.31
761.446	1143.62
761.63	1231.68
761.813	1094.47
761.997	1182.53
762.18	1121.09
762.364	1192.77
762.547	1100.61
762.731	1205.06
762.914	1248.07
763.098	1153.86
763.281	1213.25
763.464	1110.85
763.648	1137.48
763.831	1200.96
764.015	1000.26
764.198	1117
764.381	1084.23
764.564	1190.72
764.748	1057.61
764.931	1137.48
765.114	1090.37
765.297	1041.22
765.481	1078.08
765.664	961.35
765.847	1102.66
766.03	1209.15
766.213	949.06
766.397	1033.03
766.58	1051.46
766.763	1059.65
766.946	1078.08
767.129	1035.08
767.312	981.83
767.495	928.58
767.678	1018.69
767.861	971.59
768.044	1090.37
768.227	1123.14
768.41	1030.98
768.593	992.07
768.776	979.78
768.959	897.86
769.142	1028.93
769.324	1020.74
769.507	1073.99
769.69	1012.55
769.873	918.34
770.056	953.16
770.239	1055.56
770.421	1086.28
770.604	1082.18
770.787	959.3
770.97	910.15
771.152	944.97
771.335	949.06
771.518	940.87
771.7	961.35
771.883	973.64
772.066	1033.03
772.248	922.44
772.431	887.62
772.613	932.68
772.796	854.86
772.978	998.21
773.161	918.34
773.343	885.58
773.526	824.14
773.708	908.1
773.891	877.38
774.073	836.42
774.256	887.62
774.438	883.53
774.621	820.04
774.803	836.42
774.985	856.9
775.168	777.03
775.35	758.6
775.532	865.1
775.715	838.47
775.897	846.66
776.079	750.41
776.261	781.13
776.444	760.65
776.626	824.14
776.808	807.75
776.99	793.42
777.173	721.74
777.355	725.83
777.537	791.37
777.719	783.18
777.901	740.17
778.083	734.03
778.265	711.5
778.447	707.4
778.629	641.87
778.811	779.08
778.993	701.26
779.175	742.22
779.357	684.87
779.539	693.07
779.721	648.01
779.903	721.74
780.085	623.44
780.267	715.59
780.449	699.21
780.631	711.5
780.812	658.25
780.994	611.15
781.176	555.85
781.358	703.31
781.54	676.68
781.721	709.45
781.903	635.72
782.085	635.72
782.267	562
782.448	576.33
782.63	660.3
782.812	609.1
782.993	578.38
783.175	654.16
783.357	576.33
783.538	553.8
783.72	570.19
783.901	596.81
784.083	500.56
784.264	512.85
784.446	539.47
784.627	551.76
784.809	535.37
784.99	557.9
785.172	574.28
785.353	592.72
785.535	512.85
785.716	500.56
785.897	430.93
786.079	478.03
786.26	574.28
786.441	529.23
786.623	414.54
786.804	482.13
786.985	490.32
787.167	529.23
787.348	531.28
787.529	498.51
787.71	598.86
787.891	570.19
788.073	389.97
788.254	484.17
788.435	447.31
788.616	486.22
788.797	435.02
788.978	449.36
789.159	437.07
789.34	473.93
789.522	439.12
789.703	504.65
789.884	418.64
790.065	435.02
790.246	488.27
790.427	435.02
790.607	420.69
790.788	420.69
790.969	435.02
791.15	420.69
791.331	430.93
791.512	426.83
791.693	422.73
791.874	402.26
792.054	418.64
792.235	478.03
792.416	404.3
792.597	365.39
792.778	365.39
792.958	396.11
793.139	426.83
793.32	422.73
793.5	387.92
793.681	396.11
793.862	400.21
794.042	340.82
794.223	379.73
794.404	301.9
794.584	363.34
794.765	424.78
794.945	340.82
795.126	344.91
795.306	314.19
795.487	365.39
795.667	320.34
795.848	379.73
796.028	381.78
796.209	353.1
796.389	267.09
796.57	273.23
796.75	381.78
796.93	299.86
797.111	365.39
797.291	328.53
797.471	363.34
797.652	301.9
797.832	351.06
798.012	422.73
798.192	373.58
798.373	271.19
798.553	328.53
798.733	342.86
798.913	310.1
799.093	293.71
799.274	285.52
799.454	332.62
799.634	363.34
799.814	291.66
799.994	320.34
800.174	267.09
800.354	293.71
800.534	203.6
800.714	273.23
800.894	310.1
801.074	344.91
801.254	285.52
801.434	338.77
801.614	326.48
801.794	267.09
801.974	633.68
802.154	267.09
802.334	308.05
802.514	230.23
802.693	330.58
802.873	230.23
803.053	281.43
803.233	281.43
803.413	230.23
803.592	287.57
803.772	299.86
803.952	254.8
804.131	260.95
804.311	308.05
804.491	240.47
804.67	285.52
804.85	158.55
805.03	254.8
805.209	295.76
805.389	283.47
805.568	232.27
805.748	224.08
805.928	262.99
806.107	283.47
806.287	248.66
806.466	250.71
806.646	287.57
806.825	275.28
807.004	246.61
807.184	240.47
807.363	295.76
807.543	258.9
807.722	211.79
807.901	224.08
808.081	187.22
808.26	142.16
808.439	146.26
808.619	213.84
808.798	217.94
808.977	211.79
809.156	154.45
809.336	209.75
809.515	258.9
809.694	185.17
809.873	242.51
810.052	310.1
810.231	254.8
810.411	258.9
810.59	244.56
810.769	144.21
810.948	228.18
811.127	172.88
811.306	217.94
811.485	160.59
811.664	189.27
811.843	240.47
812.022	301.9
812.201	168.79
812.38	226.13
812.559	150.36
812.737	166.74
812.916	107.35
813.095	154.45
813.274	207.7
813.453	146.26
813.632	185.17
813.811	172.88
813.989	209.75
814.168	168.79
814.347	176.98
814.526	160.59
814.704	224.08
814.883	271.19
815.062	131.92
815.24	219.99
815.419	160.59
815.598	203.6
815.776	136.02
815.955	201.55
816.133	199.51
816.312	127.83
816.49	152.4
816.669	224.08
816.847	174.93
817.026	152.4
817.204	211.79
817.383	187.22
817.561	133.97
817.74	113.49
817.918	179.03
818.097	191.31
818.275	117.59
818.453	201.55
818.632	205.65
818.81	226.13
818.988	150.36
819.167	95.06
819.345	133.97
819.523	148.31
819.701	84.82
819.879	174.93
820.058	187.22
820.236	166.74
820.414	148.31
820.592	203.6
820.77	164.69
820.948	205.65
821.127	131.92
821.305	179.03
821.483	125.78
821.661	179.03
821.839	90.96
822.017	113.49
822.195	80.72
822.373	179.03
822.551	93.01
822.729	154.45
822.907	74.58
823.085	179.03
823.262	162.64
823.44	107.35
823.618	170.83
823.796	152.4
823.974	62.29
824.152	95.06
824.329	187.22
824.507	166.74
824.685	88.92
824.863	211.79
825.04	111.44
825.218	97.11
825.396	127.83
825.574	131.92
825.751	136.02
825.929	246.61
826.107	54.1
826.284	156.5
826.462	168.79
826.639	133.97
826.817	103.25
826.994	129.88
827.172	95.06
827.349	168.79
827.527	129.88
827.704	129.88
827.882	123.73
828.059	136.02
828.237	131.92
828.414	201.55
828.591	93.01
828.769	144.21
828.946	156.5
829.124	41.81
829.301	123.73
829.478	82.77
829.655	99.16
829.833	56.15
830.01	60.24
830.187	183.12
830.364	60.24
830.542	160.59
830.719	115.54
830.896	33.62
831.073	123.73
831.25	103.25
831.427	107.35
831.604	123.73
831.782	37.72
831.959	140.12
832.136	131.92
832.313	136.02
832.49	86.87
832.667	66.39
832.844	93.01
833.021	60.24
833.198	166.74
833.374	82.77
833.551	109.4
833.728	37.72
833.905	95.06
834.082	80.72
834.259	72.53
834.436	68.44
834.612	109.4
834.789	185.17
834.966	58.2
835.143	111.44
835.319	56.15
835.496	174.93
835.673	84.82
835.85	158.55
836.026	80.72
836.203	154.45
836.38	47.96
836.556	90.96
836.733	80.72
836.909	164.69
837.086	84.82
837.262	78.68
837.439	37.72
837.616	66.39
837.792	111.44
837.968	39.76
838.145	45.91
838.321	113.49
838.498	82.77
838.674	7
838.851	109.4
839.027	70.48
839.203	103.25
839.38	88.92
839.556	68.44
839.732	115.54
839.909	-27.82
840.085	101.2
840.261	13.14
840.437	54.1
840.614	66.39
840.79	95.06
840.966	35.67
841.142	93.01
841.318	7
841.494	54.1
841.671	101.2
841.847	62.29
842.023	113.49
842.199	111.44
842.375	154.45
842.551	-11.43
842.727	52.05
842.903	99.16
843.079	109.4
843.255	119.64
843.431	31.57
843.607	152.4
843.783	9.05
843.959	93.01
844.134	13.14
844.31	119.64
844.486	15.19
844.662	35.67
844.838	58.2
845.013	76.63
845.189	97.11
845.365	50
845.541	70.48
845.716	27.48
845.892	103.25
846.068	76.63
846.244	-11.43
846.419	76.63
846.595	19.29
846.77	-25.77
846.946	99.16
847.122	113.49
847.297	84.82
847.473	86.87
847.648	45.91
847.824	50
847.999	131.92
848.175	80.72
848.35	41.81
848.526	99.16
848.701	-70.83
848.876	60.24
849.052	45.91
849.227	80.72
849.403	86.87
849.578	76.63
849.753	29.52
849.929	9.05
850.104	37.72
850.279	97.11
850.454	41.81
850.63	187.22
850.805	29.52
850.98	105.3
851.155	62.29
851.33	90.96
851.505	39.76
851.681	119.64
851.856	45.91
852.031	13.14
852.206	35.67
852.381	45.91
852.556	74.58
852.731	19.29
852.906	37.72
853.081	133.97
853.256	101.2
853.431	29.52
853.606	45.91
853.781	-23.72
853.956	-40.11
854.131	25.43
854.305	101.2
854.48	25.43
854.655	52.05
854.83	27.48
855.005	-1.19
855.18	-7.34
855.354	88.92
855.529	45.91
855.704	58.2
855.879	13.14
856.053	-9.39
856.228	60.24
856.403	68.44
856.577	-3.24
856.752	19.29
856.926	-3.24
857.101	70.48
857.276	-9.39
857.45	97.11
857.625	82.77
857.799	60.24
857.974	58.2
858.148	13.14
858.323	58.2
858.497	115.54
858.672	54.1
858.846	-19.63
859.02	9.05
859.195	56.15
859.369	-33.96
859.543	66.39
859.718	41.81
859.892	-13.48
860.066	56.15
860.241	4.95
860.415	88.92
860.589	56.15
860.763	23.38
860.938	86.87
861.112	37.72
861.286	9.05
861.46	27.48
861.634	27.48
861.808	19.29
861.982	97.11
862.157	39.76
862.331	62.29
862.505	-25.77
862.679	21.33
862.853	-3.24
863.027	35.67
863.201	76.63
863.375	-44.2
863.549	74.58
863.722	111.44
863.896	125.78
864.07	4.95
864.244	45.91
864.418	74.58
864.592	70.48
864.766	-5.29
864.939	4.95
865.113	58.2
865.287	41.81
865.461	-7.34
865.634	72.53
865.808	19.29
865.982	56.15
866.156	56.15
866.329	2.9
866.503	60.24
866.676	56.15
866.85	111.44
867.024	76.63
867.197	93.01
867.371	54.1
867.544	47.96
867.718	50
867.891	62.29
868.065	31.57
868.238	86.87
868.412	23.38
868.585	9.05
868.759	27.48
868.932	-11.43
869.105	11.09
869.279	-36.01
869.452	-23.72
869.625	62.29
869.799	39.76
869.972	60.24
870.145	27.48
870.319	72.53
870.492	33.62
870.665	37.72
870.838	17.24
871.011	62.29
871.185	17.24
871.358	25.43
871.531	27.48
871.704	41.81
871.877	-3.24
872.05	21.33
872.223	-5.29
872.396	-11.43
872.569	68.44
872.742	-7.34
872.915	62.29
873.088	56.15
873.261	64.34
873.434	29.52
873.607	-5.29
873.78	-13.48
873.953	13.14
874.126	35.67
874.299	43.86
874.471	82.77
874.644	-48.3
874.817	105.3
874.99	13.14
875.163	-58.54
875.335	35.67
875.508	35.67
875.681	35.67
875.853	-19.63
876.026	21.33
876.199	64.34
876.371	64.34
876.544	62.29
876.717	35.67
876.889	82.77
877.062	156.5
877.234	7
877.407	37.72
877.579	62.29
877.752	27.48
877.924	54.1
878.097	-11.43
878.269	27.48
878.442	54.1
878.614	23.38
878.786	60.24
878.959	35.67
879.131	64.34
879.303	2.9
879.476	4.95
879.648	60.24
879.82	-31.91
879.993	29.52
880.165	-33.96
880.337	-13.48
880.509	-5.29
880.681	4.95
880.854	7
881.026	47.96
881.198	62.29
881.37	21.33
881.542	105.3
881.714	43.86
881.886	103.25
882.058	-68.78
882.23	62.29
882.402	15.19
882.574	-19.63
882.746	-7.34
882.918	107.35
883.09	29.52
883.262	17.24
883.434	37.72
883.606	45.91
883.778	41.81
883.95	27.48
884.122	11.09
884.293	33.62
884.465	86.87
884.637	95.06
884.809	-5.29
884.98	-17.58
885.152	82.77
885.324	33.62
885.496	-50.35
885.667	27.48
885.839	2.9
886.011	21.33
886.182	-5.29
886.354	86.87
886.525	15.19
886.697	37.72
886.869	-27.82
887.04	-3.24
887.212	35.67
887.383	88.92
887.555	41.81
887.726	-29.87
887.897	15.19
888.069	37.72
888.24	21.33
888.412	47.96
888.583	37.72
888.754	90.96
888.926	7
889.097	-9.39
889.268	4.95
889.44	37.72
889.611	-15.53
889.782	50
889.953	23.38
890.125	21.33
890.296	45.91
890.467	58.2
890.638	-9.39
890.809	31.57
890.98	-5.29
891.151	35.67
891.323	25.43
891.494	17.24
891.665	47.96
891.836	-15.53
892.007	0.85
892.178	29.52
892.349	13.14
892.52	39.76
892.691	62.29
892.862	-7.34
893.032	43.86
893.203	-7.34
893.374	43.86
893.545	7
893.716	11.09
893.887	33.62
894.057	-3.24
894.228	-40.11
894.399	72.53
894.57	33.62
894.74	27.48
894.911	45.91
895.082	95.06
895.253	-19.63
895.423	-27.82
895.594	52.05
895.764	37.72
895.935	-46.25
896.106	43.86
896.276	-7.34
896.447	29.52
896.617	9.05
896.788	-52.39
896.958	-1.19
897.129	68.44
897.299	-7.34
897.47	33.62
897.64	27.48
897.81	41.81
897.981	9.05
898.151	21.33
898.322	-9.39
898.492	-17.58
898.662	-7.34
898.832	-42.15
899.003	13.14
899.173	39.76
899.343	-7.34
899.513	17.24
