Data from USB4F104151__263__11-11-58-647.txt Node

Date: Wed Mar 12 11:11:58 EDT 2025
User: louis
Spectrometer: USB4F10415
Trigger mode: 4
Integration Time (sec): 2.000000E-2
Scans to average: 1
Electric dark correction enabled: true
Nonlinearity correction enabled: false
Boxcar width: 0
XAxis mode: Wavelengths
Number of Pixels in Spectrum: 3648
>>>>>Begin Spectral Data<<<<<
178.204	-99.67
178.424	-99.67
178.644	-99.67
178.864	-52.56
179.084	-109.91
179.304	-30.04
179.524	-30.04
179.744	-38.23
179.964	17.07
180.184	29.35
180.404	80.55
180.624	12.97
180.844	27.31
181.064	-5.46
181.283	-11.61
181.503	-40.28
181.723	-11.61
181.943	-7.51
182.163	86.7
182.383	-48.47
182.602	-71
182.822	-9.56
183.042	90.79
183.262	-44.37
183.482	-19.8
183.701	-3.41
183.921	23.21
184.141	45.74
184.361	158.38
184.58	-87.38
184.8	96.94
185.02	47.79
185.239	-13.65
185.459	-17.75
185.679	53.93
185.898	31.4
186.118	92.84
186.338	-81.24
186.557	45.74
186.777	-13.65
186.997	45.74
187.216	15.02
187.436	55.98
187.655	60.07
187.875	-1.37
188.095	2.73
188.314	31.4
188.534	12.97
188.753	64.17
188.973	51.88
189.192	101.03
189.412	25.26
189.631	27.31
189.851	74.41
190.07	68.27
190.29	-38.23
190.509	41.64
190.729	6.83
190.948	-3.41
191.168	47.79
191.387	68.27
191.607	-7.51
191.826	33.45
192.045	-13.65
192.265	43.69
192.484	10.92
192.704	-5.46
192.923	-3.41
193.142	55.98
193.362	-5.46
193.581	19.11
193.8	117.42
194.02	-7.51
194.239	105.13
194.458	45.74
194.678	-27.99
194.897	47.79
195.116	-44.37
195.335	12.97
195.555	-1.37
195.774	19.11
195.993	27.31
196.212	64.17
196.432	-1.37
196.651	-1.37
196.87	53.93
197.089	55.98
197.308	27.31
197.528	64.17
197.747	-9.56
197.966	51.88
198.185	-13.65
198.404	-7.51
198.623	12.97
198.842	82.6
199.062	15.02
199.281	-60.76
199.5	25.26
199.719	10.92
199.938	-38.23
200.157	66.22
200.376	12.97
200.595	80.55
200.814	-66.9
201.033	49.83
201.252	41.64
201.471	15.02
201.69	92.84
201.909	23.21
202.128	-34.13
202.347	31.4
202.566	72.36
202.785	23.21
203.004	-36.18
203.223	49.83
203.442	37.55
203.661	-30.04
203.879	-15.7
204.098	-3.41
204.317	15.02
204.536	17.07
204.755	33.45
204.974	64.17
205.193	-17.75
205.411	94.89
205.63	53.93
205.849	66.22
206.068	45.74
206.287	31.4
206.505	41.64
206.724	41.64
206.943	68.27
207.162	31.4
207.381	53.93
207.599	21.16
207.818	37.55
208.037	31.4
208.255	-25.94
208.474	51.88
208.693	23.21
208.911	17.07
209.13	37.55
209.349	29.35
209.567	19.11
209.786	-15.7
210.005	0.68
210.223	-13.65
210.442	-30.04
210.661	-17.75
210.879	96.94
211.098	21.16
211.316	35.5
211.535	96.94
211.753	117.42
211.972	17.07
212.191	51.88
212.409	51.88
212.628	2.73
212.846	-79.19
213.065	23.21
213.283	55.98
213.502	-3.41
213.72	64.17
213.938	55.98
214.157	23.21
214.375	27.31
214.594	-44.37
214.812	-25.94
215.031	51.88
215.249	2.73
215.467	23.21
215.686	15.02
215.904	51.88
216.122	64.17
216.341	133.8
216.559	4.78
216.778	66.22
216.996	45.74
217.214	0.68
217.432	49.83
217.651	-30.04
217.869	45.74
218.087	60.07
218.306	4.78
218.524	-42.32
218.742	-3.41
218.96	31.4
219.179	-3.41
219.397	8.87
219.615	94.89
219.833	78.51
220.051	39.59
220.27	60.07
220.488	70.31
220.706	68.27
220.924	-38.23
221.142	80.55
221.36	4.78
221.578	10.92
221.796	68.27
222.015	62.12
222.233	35.5
222.451	62.12
222.669	-9.56
222.887	62.12
223.105	33.45
223.323	10.92
223.541	29.35
223.759	-62.8
223.977	-25.94
224.195	-38.23
224.413	-34.13
224.631	4.78
224.849	23.21
225.067	45.74
225.285	84.65
225.503	0.68
225.721	49.83
225.939	29.35
226.157	-30.04
226.375	33.45
226.592	33.45
226.81	62.12
227.028	10.92
227.246	31.4
227.464	31.4
227.682	39.59
227.9	109.22
228.117	10.92
228.335	70.31
228.553	29.35
228.771	-44.37
228.989	49.83
229.206	39.59
229.424	-3.41
229.642	43.69
229.86	-21.85
230.077	25.26
230.295	49.83
230.513	8.87
230.731	31.4
230.948	72.36
231.166	84.65
231.384	-15.7
231.601	8.87
231.819	23.21
232.037	-9.56
232.254	-1.37
232.472	12.97
232.689	-19.8
232.907	31.4
233.125	23.21
233.342	31.4
233.56	-38.23
233.777	-7.51
233.995	15.02
234.213	31.4
234.43	19.11
234.648	-21.85
234.865	33.45
235.083	68.27
235.3	-19.8
235.518	-38.23
235.735	86.7
235.953	92.84
236.17	51.88
236.388	-30.04
236.605	6.83
236.822	10.92
237.04	76.46
237.257	-5.46
237.475	-9.56
237.692	66.22
237.909	68.27
238.127	68.27
238.344	19.11
238.562	66.22
238.779	-44.37
238.996	51.88
239.214	0.68
239.431	-34.13
239.648	41.64
239.865	12.97
240.083	35.5
240.3	33.45
240.517	66.22
240.735	103.08
240.952	41.64
241.169	84.65
241.386	31.4
241.603	6.83
241.821	-23.89
242.038	33.45
242.255	23.21
242.472	-30.04
242.689	51.88
242.907	51.88
243.124	-9.56
243.341	41.64
243.558	0.68
243.775	15.02
243.992	-44.37
244.209	-17.75
244.426	0.68
244.643	53.93
244.86	39.59
245.078	-15.7
245.295	-1.37
245.512	111.27
245.729	-19.8
245.946	25.26
246.163	43.69
246.38	47.79
246.597	80.55
246.814	-9.56
247.031	-64.85
247.248	76.46
247.464	86.7
247.681	27.31
247.898	111.27
248.115	49.83
248.332	41.64
248.549	64.17
248.766	58.03
248.983	6.83
249.2	37.55
249.417	84.65
249.633	47.79
249.85	92.84
250.067	51.88
250.284	31.4
250.501	80.55
250.717	123.56
250.934	27.31
251.151	33.45
251.368	17.07
251.585	74.41
251.801	66.22
252.018	41.64
252.235	88.75
252.451	10.92
252.668	-3.41
252.885	80.55
253.102	43.69
253.318	6.83
253.535	25.26
253.752	43.69
253.968	-15.7
254.185	74.41
254.401	2.73
254.618	80.55
254.835	25.26
255.051	60.07
255.268	47.79
255.484	-30.04
255.701	53.93
255.917	-13.65
256.134	-40.28
256.351	25.26
256.567	-68.95
256.784	-13.65
257	12.97
257.217	6.83
257.433	101.03
257.65	68.27
257.866	2.73
258.082	-48.47
258.299	55.98
258.515	-34.13
258.732	21.16
258.948	-64.85
259.165	55.98
259.381	76.46
259.597	17.07
259.814	27.31
260.03	6.83
260.246	-38.23
260.463	23.21
260.679	0.68
260.895	-42.32
261.112	-23.89
261.328	-3.41
261.544	37.55
261.761	15.02
261.977	-23.89
262.193	-19.8
262.409	39.59
262.626	55.98
262.842	39.59
263.058	-17.75
263.274	-17.75
263.49	58.03
263.707	-5.46
263.923	6.83
264.139	-34.13
264.355	62.12
264.571	2.73
264.787	-42.32
265.004	-52.56
265.22	27.31
265.436	12.97
265.652	35.5
265.868	8.87
266.084	12.97
266.3	-3.41
266.516	-64.85
266.732	27.31
266.948	-30.04
267.164	60.07
267.38	35.5
267.596	86.7
267.812	66.22
268.028	8.87
268.244	60.07
268.46	53.93
268.676	15.02
268.892	-30.04
269.108	37.55
269.324	47.79
269.54	17.07
269.756	64.17
269.972	12.97
270.188	74.41
270.403	33.45
270.619	41.64
270.835	-9.56
271.051	12.97
271.267	-19.8
271.483	64.17
271.698	2.73
271.914	58.03
272.13	53.93
272.346	-3.41
272.562	4.78
272.777	66.22
272.993	-3.41
273.209	86.7
273.425	27.31
273.64	84.65
273.856	35.5
274.072	41.64
274.287	70.31
274.503	45.74
274.719	76.46
274.934	17.07
275.15	23.21
275.366	76.46
275.581	-25.94
275.797	39.59
276.012	23.21
276.228	47.79
276.444	15.02
276.659	76.46
276.875	58.03
277.09	31.4
277.306	80.55
277.521	35.5
277.737	-17.75
277.952	33.45
278.168	-46.42
278.383	53.93
278.599	35.5
278.814	49.83
279.03	-15.7
279.245	80.55
279.461	-15.7
279.676	66.22
279.892	-7.51
280.107	43.69
280.322	35.5
280.538	92.84
280.753	35.5
280.969	37.55
281.184	17.07
281.399	49.83
281.615	51.88
281.83	58.03
282.045	43.69
282.26	58.03
282.476	111.27
282.691	49.83
282.906	64.17
283.122	64.17
283.337	47.79
283.552	27.31
283.767	-15.7
283.983	53.93
284.198	-13.65
284.413	39.59
284.628	33.45
284.843	41.64
285.058	-25.94
285.274	58.03
285.489	60.07
285.704	82.6
285.919	12.97
286.134	76.46
286.349	33.45
286.564	23.21
286.779	78.51
286.995	51.88
287.21	21.16
287.425	55.98
287.64	-17.75
287.855	15.02
288.07	-21.85
288.285	62.12
288.5	-54.61
288.715	45.74
288.93	49.83
289.145	35.5
289.36	53.93
289.575	19.11
289.79	49.83
290.004	19.11
290.219	12.97
290.434	49.83
290.649	-3.41
290.864	33.45
291.079	21.16
291.294	25.26
291.509	105.13
291.724	-48.47
291.938	15.02
292.153	33.45
292.368	-34.13
292.583	45.74
292.798	25.26
293.012	37.55
293.227	62.12
293.442	23.21
293.657	70.31
293.871	86.7
294.086	-5.46
294.301	58.03
294.516	51.88
294.73	-17.75
294.945	6.83
295.16	-1.37
295.374	4.78
295.589	84.65
295.804	101.03
296.018	-66.9
296.233	-15.7
296.447	29.35
296.662	15.02
296.877	125.61
297.091	15.02
297.306	37.55
297.52	25.26
297.735	43.69
297.949	55.98
298.164	53.93
298.378	8.87
298.593	68.27
298.807	15.02
299.022	-9.56
299.236	90.79
299.451	19.11
299.665	62.12
299.88	31.4
300.094	86.7
300.309	27.31
300.523	6.83
300.737	25.26
300.952	29.35
301.166	8.87
301.381	8.87
301.595	4.78
301.809	94.89
302.024	-11.61
302.238	-13.65
302.452	21.16
302.667	-19.8
302.881	74.41
303.095	-17.75
303.309	29.35
303.524	29.35
303.738	-34.13
303.952	-42.32
304.166	19.11
304.381	12.97
304.595	60.07
304.809	49.83
305.023	74.41
305.237	29.35
305.452	39.59
305.666	0.68
305.88	72.36
306.094	45.74
306.308	96.94
306.522	98.99
306.736	80.55
306.95	-25.94
307.164	53.93
307.379	17.07
307.593	39.59
307.807	64.17
308.021	0.68
308.235	129.7
308.449	6.83
308.663	-3.41
308.877	103.08
309.091	37.55
309.305	-9.56
309.519	58.03
309.733	35.5
309.947	-17.75
310.161	29.35
310.374	51.88
310.588	74.41
310.802	6.83
311.016	64.17
311.23	23.21
311.444	15.02
311.658	-42.32
311.872	58.03
312.085	2.73
312.299	78.51
312.513	68.27
312.727	62.12
312.941	35.5
313.154	23.21
313.368	-30.04
313.582	12.97
313.796	15.02
314.009	53.93
314.223	47.79
314.437	8.87
314.651	-19.8
314.864	17.07
315.078	-19.8
315.292	-17.75
315.505	6.83
315.719	76.46
315.933	17.07
316.146	58.03
316.36	-44.37
316.573	113.32
316.787	19.11
317.001	-19.8
317.214	8.87
317.428	25.26
317.641	-25.94
317.855	53.93
318.068	31.4
318.282	31.4
318.495	101.03
318.709	58.03
318.922	105.13
319.136	55.98
319.349	62.12
319.563	-27.99
319.776	-13.65
319.99	-17.75
320.203	62.12
320.417	21.16
320.63	35.5
320.843	160.42
321.057	-3.41
321.27	68.27
321.483	41.64
321.697	58.03
321.91	25.26
322.124	-32.08
322.337	-3.41
322.55	21.16
322.763	37.55
322.977	12.97
323.19	35.5
323.403	-7.51
323.617	53.93
323.83	8.87
324.043	10.92
324.256	39.59
324.469	-19.8
324.683	23.21
324.896	-11.61
325.109	23.21
325.322	-17.75
325.535	70.31
325.748	45.74
325.962	98.99
326.175	-5.46
326.388	88.75
326.601	82.6
326.814	-1.37
327.027	39.59
327.24	41.64
327.453	-13.65
327.666	117.42
327.879	47.79
328.092	35.5
328.305	121.51
328.518	19.11
328.731	-7.51
328.944	-38.23
329.157	43.69
329.37	12.97
329.583	45.74
329.796	-23.89
330.009	19.11
330.222	-56.66
330.435	127.66
330.648	33.45
330.861	-32.08
331.073	58.03
331.286	8.87
331.499	29.35
331.712	66.22
331.925	-46.42
332.138	6.83
332.35	101.03
332.563	6.83
332.776	6.83
332.989	23.21
333.202	15.02
333.414	23.21
333.627	17.07
333.84	19.11
334.053	37.55
334.265	-13.65
334.478	74.41
334.691	35.5
334.903	2.73
335.116	8.87
335.329	49.83
335.541	10.92
335.754	12.97
335.966	84.65
336.179	23.21
336.392	29.35
336.604	84.65
336.817	70.31
337.029	101.03
337.242	2.73
337.454	4.78
337.667	-21.85
337.88	49.83
338.092	27.31
338.305	80.55
338.517	4.78
338.729	-23.89
338.942	19.11
339.154	86.7
339.367	19.11
339.579	2.73
339.792	37.55
340.004	17.07
340.217	25.26
340.429	53.93
340.641	-38.23
340.854	35.5
341.066	6.83
341.278	88.75
341.491	-17.75
341.703	-17.75
341.915	-30.04
342.128	35.5
342.34	-1.37
342.552	51.88
342.764	88.75
342.977	72.36
343.189	70.31
343.401	-5.46
343.613	-1.37
343.826	37.55
344.038	-52.56
344.25	68.27
344.462	6.83
344.674	47.79
344.886	45.74
345.099	33.45
345.311	72.36
345.523	86.7
345.735	49.83
345.947	68.27
346.159	-3.41
346.371	76.46
346.583	60.07
346.795	72.36
347.007	-7.51
347.219	41.64
347.431	-36.18
347.643	101.03
347.855	23.21
348.067	17.07
348.279	-23.89
348.491	45.74
348.703	-64.85
348.915	33.45
349.127	98.99
349.339	68.27
349.551	-9.56
349.763	12.97
349.975	78.51
350.187	58.03
350.399	62.12
350.61	41.64
350.822	4.78
351.034	60.07
351.246	35.5
351.458	35.5
351.669	72.36
351.881	68.27
352.093	39.59
352.305	78.51
352.517	25.26
352.728	66.22
352.94	2.73
353.152	72.36
353.363	0.68
353.575	8.87
353.787	64.17
353.999	31.4
354.21	55.98
354.422	-1.37
354.633	21.16
354.845	33.45
355.057	19.11
355.268	41.64
355.48	62.12
355.692	37.55
355.903	43.69
356.115	8.87
356.326	-9.56
356.538	88.75
356.749	0.68
356.961	103.08
357.172	27.31
357.384	113.32
357.595	8.87
357.807	21.16
358.018	6.83
358.23	88.75
358.441	72.36
358.653	-7.51
358.864	21.16
359.075	-62.8
359.287	68.27
359.498	62.12
359.709	-19.8
359.921	35.5
360.132	-7.51
360.344	94.89
360.555	6.83
360.766	-5.46
360.977	-7.51
361.189	29.35
361.4	8.87
361.611	12.97
361.823	55.98
362.034	55.98
362.245	12.97
362.456	15.02
362.667	17.07
362.879	51.88
363.09	-11.61
363.301	51.88
363.512	35.5
363.723	70.31
363.935	41.64
364.146	27.31
364.357	51.88
364.568	82.6
364.779	12.97
364.99	92.84
365.201	-7.51
365.412	43.69
365.623	64.17
365.834	27.31
366.045	80.55
366.256	-5.46
366.467	115.37
366.678	-7.51
366.889	51.88
367.1	35.5
367.311	27.31
367.522	78.51
367.733	37.55
367.944	47.79
368.155	15.02
368.366	27.31
368.577	25.26
368.788	35.5
368.999	27.31
369.209	31.4
369.42	107.18
369.631	64.17
369.842	-54.61
370.053	8.87
370.264	-5.46
370.474	31.4
370.685	4.78
370.896	-27.99
371.107	51.88
371.317	72.36
371.528	92.84
371.739	105.13
371.95	4.78
372.16	66.22
372.371	35.5
372.582	-1.37
372.792	41.64
373.003	10.92
373.214	12.97
373.424	23.21
373.635	68.27
373.846	51.88
374.056	25.26
374.267	25.26
374.477	29.35
374.688	35.5
374.898	55.98
375.109	33.45
375.319	19.11
375.53	58.03
375.74	4.78
375.951	39.59
376.161	80.55
376.372	68.27
376.582	39.59
376.793	62.12
377.003	19.11
377.214	43.69
377.424	-7.51
377.635	12.97
377.845	72.36
378.055	41.64
378.266	-1.37
378.476	37.55
378.686	62.12
378.897	72.36
379.107	31.4
379.317	31.4
379.528	-25.94
379.738	72.36
379.948	105.13
380.158	49.83
380.369	84.65
380.579	64.17
380.789	45.74
380.999	98.99
381.21	60.07
381.42	103.08
381.63	96.94
381.84	68.27
382.05	64.17
382.261	68.27
382.471	51.88
382.681	17.07
382.891	86.7
383.101	19.11
383.311	-9.56
383.521	-44.37
383.731	23.21
383.941	45.74
384.151	-21.85
384.361	-27.99
384.571	66.22
384.781	51.88
384.991	4.78
385.201	35.5
385.411	-19.8
385.621	80.55
385.831	41.64
386.041	60.07
386.251	96.94
386.461	78.51
386.671	78.51
386.881	90.79
387.091	-34.13
387.301	19.11
387.511	23.21
387.72	19.11
387.93	19.11
388.14	82.6
388.35	55.98
388.56	90.79
388.769	25.26
388.979	43.69
389.189	78.51
389.399	80.55
389.609	31.4
389.818	90.79
390.028	47.79
390.238	58.03
390.447	47.79
390.657	-17.75
390.867	-15.7
391.076	17.07
391.286	15.02
391.496	72.36
391.705	29.35
391.915	111.27
392.125	8.87
392.334	21.16
392.544	27.31
392.753	35.5
392.963	35.5
393.172	-32.08
393.382	-15.7
393.591	109.22
393.801	51.88
394.01	84.65
394.22	53.93
394.429	-1.37
394.639	58.03
394.848	103.08
395.058	64.17
395.267	25.26
395.477	27.31
395.686	29.35
395.895	62.12
396.105	88.75
396.314	152.23
396.524	31.4
396.733	-34.13
396.942	53.93
397.152	66.22
397.361	47.79
397.57	23.21
397.78	19.11
397.989	94.89
398.198	96.94
398.407	51.88
398.617	66.22
398.826	70.31
399.035	55.98
399.244	43.69
399.453	115.37
399.663	43.69
399.872	70.31
400.081	12.97
400.29	37.55
400.499	109.22
400.708	76.46
400.917	55.98
401.127	25.26
401.336	49.83
401.545	113.32
401.754	127.66
401.963	109.22
402.172	121.51
402.381	2.73
402.59	88.75
402.799	70.31
403.008	101.03
403.217	109.22
403.426	90.79
403.635	72.36
403.844	78.51
404.053	76.46
404.262	96.94
404.471	156.33
404.68	119.46
404.888	86.7
405.097	78.51
405.306	82.6
405.515	15.02
405.724	39.59
405.933	109.22
406.142	117.42
406.35	15.02
406.559	92.84
406.768	121.51
406.977	15.02
407.185	105.13
407.394	148.14
407.603	70.31
407.812	176.81
408.02	129.7
408.229	182.95
408.438	101.03
408.646	146.09
408.855	137.9
409.064	160.42
409.272	135.85
409.481	76.46
409.69	160.42
409.898	172.71
410.107	170.66
410.315	178.86
410.524	195.24
410.733	182.95
410.941	232.1
411.15	180.9
411.358	172.71
411.567	207.53
411.775	170.66
411.984	248.49
412.192	219.82
412.401	191.14
412.609	234.15
412.818	258.73
413.026	281.25
413.234	236.2
413.443	320.17
413.651	338.6
413.86	346.79
414.068	342.69
414.276	387.75
414.485	379.56
414.693	379.56
414.901	338.6
415.11	342.69
415.318	314.02
415.526	434.85
415.734	484
415.943	463.52
416.151	400.04
416.359	481.96
416.567	387.75
416.776	481.96
416.984	539.3
417.192	529.06
417.4	496.29
417.608	494.24
417.817	649.89
418.025	543.39
418.233	561.83
418.441	522.91
418.649	617.12
418.857	602.79
419.065	717.47
419.273	668.32
419.481	756.38
419.689	719.52
419.897	766.62
420.105	813.73
420.313	797.34
420.521	752.29
420.729	936.6
420.937	887.45
421.145	963.23
421.353	975.52
421.561	1014.43
421.769	1053.34
421.977	1061.53
422.185	983.71
422.393	1135.26
422.601	1139.35
422.809	1239.7
423.017	1217.18
423.224	1254.04
423.432	1251.99
423.64	1297.05
423.848	1428.12
424.056	1317.53
424.263	1516.18
424.471	1458.84
424.679	1632.91
424.887	1694.35
425.094	1643.15
425.302	1671.83
425.51	1712.78
425.718	1716.88
425.925	1833.61
426.133	1831.57
426.341	1923.73
426.548	2040.46
426.756	2093.71
426.964	2103.95
427.171	2222.73
427.379	2228.87
427.586	2269.83
427.794	2466.44
428.001	2468.48
428.209	2644.61
428.417	2519.68
428.624	2673.28
428.832	2669.19
429.039	2665.09
429.247	2734.72
429.454	3027.58
429.662	3191.42
429.869	2902.65
430.076	3183.23
430.284	3025.53
430.491	3201.66
430.699	3279.48
430.906	3355.26
431.114	3437.17
431.321	3541.62
431.528	3590.77
431.736	3781.23
431.943	4053.61
432.15	3873.39
432.358	3840.62
432.565	4192.87
432.772	4276.84
432.979	4385.38
433.187	4270.7
433.394	4328.04
433.601	4846.18
433.808	4706.91
434.016	4688.48
434.223	4928.1
434.43	5145.18
434.637	5075.55
434.844	5587.54
435.052	5456.47
435.259	5565.01
435.466	5605.97
435.673	5358.17
435.88	5790.29
436.087	6222.41
436.294	6169.16
436.501	6101.58
436.708	6060.62
436.915	6306.38
437.122	6656.58
437.329	6654.53
437.537	6746.69
437.743	7027.26
437.95	6931.01
438.157	7090.75
438.364	7408.19
438.571	7420.47
438.778	7680.57
438.985	8284.72
439.192	7967.28
439.399	8145.45
439.606	7889.46
439.813	8430.12
440.02	8673.83
440.227	8749.61
440.433	8530.47
440.64	8997.41
440.847	8929.83
441.054	9054.75
441.261	9679.38
441.467	9454.11
441.674	9665.05
441.881	10103.31
442.088	10017.3
442.294	9947.67
442.501	10119.7
442.708	10273.29
442.914	10709.51
443.121	11319.81
443.328	10873.35
443.534	11655.67
443.741	11532.79
443.948	11088.39
444.154	11897.33
444.361	11987.44
444.568	12218.86
444.774	12169.71
444.981	12360.17
445.187	12794.34
445.394	12970.47
445.6	12706.28
445.807	14103
446.013	13644.25
446.22	13808.09
446.426	14338.51
446.633	14344.66
446.839	14893.51
447.046	14258.64
447.252	15108.55
447.459	15237.57
447.665	15229.38
447.871	15702.46
448.078	16402.86
448.284	15595.96
448.491	16196.02
448.697	16785.83
448.903	16982.44
449.11	16857.51
449.316	16660.91
449.522	16976.3
449.728	17226.15
449.935	17627.55
450.141	17498.53
450.347	17975.7
450.553	17123.75
450.76	17824.15
450.966	18031
451.172	17990.04
451.378	18334.1
451.584	17805.72
451.791	18645.39
451.997	18399.63
452.203	18661.77
452.409	18708.88
452.615	18553.23
452.821	17850.78
453.027	17732
453.233	18385.3
453.44	17918.36
453.646	18143.64
453.852	17979.8
454.058	18258.32
454.264	17721.76
454.47	18186.65
454.676	17541.53
454.882	18477.46
455.088	16765.35
455.294	16896.42
455.5	17291.68
455.705	17340.83
455.911	17035.69
456.117	16613.81
456.323	16095.67
456.529	15411.65
456.735	15937.98
456.941	15583.68
457.147	15600.06
457.352	14868.94
457.558	14744.01
457.764	14733.77
457.97	14162.39
458.176	14092.76
458.381	14197.2
458.587	13472.22
458.793	13515.23
458.999	12491.24
459.204	13642.2
459.41	13294.05
459.616	12257.78
459.821	12511.72
460.027	12306.93
460.233	12343.79
460.438	11338.24
460.644	11672.06
460.85	10994.18
461.055	10930.69
461.261	10990.08
461.466	10164.75
461.672	9787.93
461.878	10482.19
462.083	9923.09
462.289	9587.22
462.494	9566.74
462.7	8962.59
462.905	9015.84
463.111	9165.34
463.316	9220.64
463.522	9118.24
463.727	8866.34
463.932	8667.69
464.138	8874.53
464.343	8753.7
464.549	8596.01
464.754	9034.27
464.959	9110.05
465.165	8729.13
465.37	8522.28
465.575	8073.78
465.781	8600.1
465.986	8583.72
466.191	8342.06
466.397	8206.89
466.602	7883.31
466.807	7944.75
467.012	8184.37
467.218	8049.2
467.423	7987.76
467.628	8008.24
467.833	8329.77
468.038	8114.73
468.244	7731.76
468.449	7979.57
468.654	7938.61
468.859	7619.13
469.064	7541.3
469.269	7449.14
469.474	7488.06
469.679	7621.17
469.885	7367.23
470.09	7600.69
470.295	7336.51
470.5	7227.96
470.705	7166.53
470.91	7211.58
471.115	7103.04
471.32	7141.95
471.525	7307.84
471.73	6988.35
471.935	6941.25
472.139	6603.33
472.344	6769.22
472.549	6801.99
472.754	6670.92
472.959	6484.55
473.164	6378.06
473.369	6320.71
473.574	6523.46
473.778	6625.86
473.983	6447.69
474.188	6367.82
474.393	6115.92
474.598	6068.81
474.802	6052.43
475.007	5835.35
475.212	5913.17
475.417	5782.1
475.621	5790.29
475.826	5835.35
476.031	5778
476.235	5614.16
476.44	5778
476.645	5612.12
476.849	5505.62
477.054	5634.64
477.259	5435.99
477.463	5560.92
477.668	5315.16
477.872	5407.32
478.077	5280.35
478.282	5255.77
478.486	5229.15
478.691	5040.73
478.895	5165.66
479.1	4999.77
479.304	4979.29
479.509	4973.15
479.713	5032.54
479.918	5077.6
480.122	4823.65
480.326	4856.42
480.531	5003.87
480.735	4887.14
480.94	4837.98
481.144	5042.78
481.348	4754.02
481.553	4735.59
481.757	4813.41
481.961	4825.7
482.166	4905.57
482.37	4743.78
482.574	4647.52
482.778	4733.54
482.983	4778.59
483.187	4811.36
483.391	4702.82
483.595	4737.63
483.8	4561.51
484.004	4837.98
484.208	4700.77
484.412	4725.35
484.616	4655.72
484.821	4733.54
485.025	4618.85
485.229	4833.89
485.433	4594.28
485.637	4680.29
485.841	4625
486.045	4557.41
486.249	4690.53
486.453	4557.41
486.657	4725.35
486.861	4770.4
487.065	4573.8
487.269	4596.32
487.473	4655.72
487.677	4635.24
487.881	4778.59
488.085	4717.15
488.289	4612.71
488.493	4645.48
488.697	4727.39
488.901	4682.34
489.105	4668
489.309	4723.3
489.512	4676.2
489.716	4655.72
489.92	4749.92
490.124	4622.95
490.328	4717.15
490.531	4670.05
490.735	4926.05
490.939	4766.31
491.143	4723.3
491.346	4719.2
491.55	4721.25
491.754	4713.06
491.958	5024.35
492.161	4729.44
492.365	4909.66
492.569	4889.18
492.772	4913.76
492.976	4721.25
493.18	5020.25
493.383	5081.69
493.587	5108.32
493.79	5167.71
493.994	4995.68
494.197	4938.34
494.401	5110.36
494.605	5171.8
494.808	5227.1
495.012	5374.55
495.215	5298.78
495.419	5349.98
495.622	5315.16
495.825	5458.52
496.029	5450.33
496.232	5536.34
496.436	5378.65
496.639	5618.26
496.843	5618.26
497.046	5476.95
497.249	5681.75
497.453	5859.92
497.656	5823.06
497.859	5749.33
498.063	6011.47
498.266	6038.09
498.469	5956.18
498.673	6072.91
498.876	6111.82
499.079	6068.81
499.282	6267.47
499.485	6324.81
499.689	6431.3
499.892	6289.99
500.095	6484.55
500.298	6548.04
500.501	6660.68
500.705	6830.66
500.908	6724.16
501.111	6924.86
501.314	6896.19
501.517	7141.95
501.72	7172.67
501.923	7088.7
502.126	7160.38
502.329	7244.35
502.532	7402.04
502.735	7471.67
502.938	7719.48
503.141	7557.69
503.344	7803.44
503.547	7754.29
503.75	7828.02
503.953	8049.2
504.156	8176.17
504.359	8196.65
504.562	8200.75
504.765	8292.91
504.968	8563.24
505.17	8483.37
505.373	8458.79
505.576	8679.97
505.779	8710.69
505.982	8714.79
506.185	8976.93
506.387	8897.06
506.59	9142.82
506.793	9058.85
506.996	9212.45
507.198	9667.1
507.401	9458.2
507.604	9613.85
507.807	9769.49
508.009	9857.56
508.212	9929.24
508.415	9892.37
508.617	10095.12
508.82	10220.05
509.022	10078.74
509.225	10480.14
509.428	10336.78
509.63	10541.58
509.833	10715.66
510.035	10818.05
510.238	10920.45
510.44	10979.84
510.643	11241.98
510.845	11188.74
511.048	11123.2
511.25	11401.72
511.453	11454.97
511.655	11815.41
511.858	11653.62
512.06	11821.56
512.262	11932.15
512.465	12073.46
512.667	12397.04
512.87	12448.24
513.072	12442.09
513.274	12429.81
513.477	12767.72
513.679	12569.07
513.881	13056.48
514.084	13044.2
514.286	13099.49
514.488	13414.88
514.69	13494.75
514.893	13593.05
515.095	13515.23
515.297	13724.12
515.499	13910.49
515.701	14172.63
515.904	14313.94
516.106	14236.11
516.308	14676.43
516.51	14766.54
516.712	14776.78
516.914	14614.99
517.116	15073.73
517.318	15159.75
517.52	14873.03
517.722	15235.52
517.925	15313.35
518.127	15450.56
518.329	15888.82
518.531	15980.98
518.733	16056.76
518.935	16026.04
519.136	16085.43
519.338	16529.84
519.54	16419.25
519.742	16546.22
519.944	16933.29
520.146	17035.69
520.348	17250.72
520.55	17242.53
520.752	17177
520.954	17361.31
521.155	17533.34
521.357	17760.67
521.559	18084.25
521.761	18071.96
521.963	18100.63
522.164	18317.72
522.366	18309.52
522.568	18930.06
522.77	18510.22
522.971	19126.66
523.173	18715.02
523.375	19423.62
523.576	19222.92
523.778	18962.83
523.98	19614.08
524.181	19571.07
524.383	19612.03
524.584	20015.48
524.786	19962.23
524.988	20025.72
525.189	20160.89
525.391	20294.01
525.592	20259.19
525.794	20302.2
525.995	20308.34
526.197	20496.75
526.398	20736.37
526.6	20885.87
526.801	20857.2
527.003	21072.23
527.204	21119.34
527.406	21244.26
527.607	21299.56
527.808	21387.62
528.01	21053.8
528.211	21315.94
528.412	21856.61
528.614	21608.8
528.815	21760.35
529.016	21872.99
529.218	22051.16
529.419	21686.62
529.62	21922.14
529.822	21694.82
530.023	21815.65
530.224	22085.98
530.425	22071.64
530.626	21932.38
530.828	21799.26
531.029	22475.09
531.23	22284.63
531.431	22561.11
531.632	22534.48
531.833	22276.44
532.035	22567.25
532.236	22464.85
532.437	22591.83
532.638	22376.79
532.839	22567.25
533.04	22815.05
533.241	22337.88
533.442	22616.4
533.643	22675.79
533.844	22620.5
534.045	22882.64
534.246	22182.23
534.447	22776.14
534.648	22749.52
534.849	22884.69
535.05	22786.38
535.251	23042.38
535.451	22835.53
535.652	23173.45
535.853	22964.56
536.054	22833.49
536.255	23144.78
536.456	22712.66
536.657	23013.71
536.857	22683.98
537.058	22851.92
537.259	22792.53
537.46	23183.69
537.66	22880.59
537.861	22948.17
538.062	22759.76
538.263	22878.54
538.463	23107.91
538.664	22690.13
538.865	22544.72
539.065	22913.36
539.266	22927.69
539.466	22923.6
539.667	22802.77
539.868	23034.19
540.068	22909.26
540.269	22970.7
540.469	23073.1
540.67	22960.46
540.87	22982.99
541.071	22929.74
541.271	23019.85
541.472	22675.79
541.672	23038.28
541.873	22974.8
542.073	22718.8
542.274	23183.69
542.474	22978.89
542.675	23032.14
542.875	22913.36
543.075	23001.42
543.276	22139.22
543.476	23130.44
543.676	22643.03
543.877	23052.62
544.077	23058.76
544.277	23259.46
544.478	22841.68
544.678	23171.4
544.878	22919.5
545.078	22843.73
545.279	22802.77
545.479	22856.01
545.679	22800.72
545.879	22815.05
546.079	22909.26
546.28	22956.36
546.48	22677.84
546.68	22817.1
546.88	22862.16
547.08	22972.75
547.28	22843.73
547.48	22559.06
547.68	22864.21
547.88	22683.98
548.081	22958.41
548.281	22874.45
548.481	22765.9
548.681	22862.16
548.881	23222.6
549.081	22776.14
549.28	22770
549.48	23030.09
549.68	22796.62
549.88	23101.77
550.08	22896.97
550.28	22878.54
550.48	22604.11
550.68	22956.36
550.88	22659.41
551.08	22700.37
551.279	22593.87
551.479	22745.42
551.679	22679.89
551.879	22540.63
552.079	23169.35
552.278	22534.48
552.478	22522.19
552.678	22843.73
552.878	22913.36
553.077	22475.09
553.277	22563.15
553.477	22776.14
553.676	22616.4
553.876	22557.01
554.076	22679.89
554.275	22573.39
554.475	22534.48
554.674	22722.9
554.874	22939.98
555.074	22630.74
555.273	22554.96
555.473	22479.19
555.672	22415.7
555.872	22509.91
556.071	22171.99
556.271	22356.31
556.47	22315.35
556.67	22241.62
556.869	22092.12
557.068	22053.21
557.268	21969.24
557.467	21954.91
557.667	22180.18
557.866	22020.44
558.065	22004.06
558.265	21959
558.464	22092.12
558.663	22002.01
558.863	21682.53
559.062	22096.22
559.261	21541.22
559.461	21989.72
559.66	21506.4
559.859	21995.87
560.058	21848.41
560.258	21678.43
560.457	21383.52
560.656	21899.61
560.855	21576.03
561.054	21967.2
561.253	21369.19
561.453	21678.43
561.652	21541.22
561.851	21465.44
562.05	21174.63
562.249	21225.83
562.448	21301.61
562.647	21143.91
562.846	21260.65
563.045	21408.1
563.244	21166.44
563.443	21287.27
563.642	20806
563.841	20986.22
564.04	20836.72
564.239	21367.14
564.438	20871.53
564.637	20961.64
564.836	20969.83
565.035	20513.14
565.234	20883.82
565.432	20502.9
565.631	20042.1
565.83	20410.74
566.029	20490.61
566.228	20339.06
566.427	20390.26
566.625	20216.18
566.824	20054.39
567.023	20265.33
567.222	20248.95
567.42	19845.5
567.619	20158.84
567.818	20029.82
568.016	19966.33
568.215	20083.06
568.414	19777.92
568.612	19691.9
568.811	19679.61
569.01	19755.39
569.208	19472.77
569.407	19536.26
569.605	19292.55
569.804	19667.33
570.002	19378.56
570.201	19313.03
570.4	19118.47
570.598	19239.3
570.797	19300.74
570.995	18973.07
571.193	18774.41
571.392	18993.54
571.59	19071.37
571.789	19079.56
571.987	19020.17
572.186	18774.41
572.384	18538.9
572.582	18868.62
572.781	18764.17
572.979	18540.94
573.177	18774.41
573.376	18502.03
573.574	18391.44
573.772	18461.07
573.971	18088.34
574.169	18313.62
574.367	18237.84
574.565	18258.32
574.763	18155.93
574.962	18086.29
575.16	17955.22
575.358	17865.11
575.556	17985.94
575.754	17969.56
575.952	17832.35
576.151	18098.58
576.349	17670.56
576.547	17828.25
576.745	17549.73
576.943	17559.97
577.141	17512.86
577.339	17516.96
577.537	17467.81
577.735	17363.36
577.933	17295.78
578.131	17195.43
578.329	17076.65
578.527	17107.37
578.725	17377.7
578.923	17007.02
579.121	17029.54
579.319	17035.69
579.516	17185.19
579.714	16851.37
579.912	17138.09
580.11	16695.72
580.308	16746.92
580.506	16681.39
580.704	16605.61
580.901	16644.52
581.099	16615.85
581.297	16568.75
581.495	16712.11
581.692	16359.86
581.89	16322.99
582.088	16564.65
582.285	16220.6
582.483	16370.1
582.681	16411.06
582.878	16282.03
583.076	15880.63
583.274	16359.86
583.471	16026.04
583.669	16052.66
583.866	15966.65
584.064	16130.48
584.262	15958.46
584.459	15872.44
584.657	15921.59
584.854	15905.21
585.052	15620.54
585.249	16103.86
585.447	15821.24
585.644	15620.54
585.841	15696.32
586.039	15802.81
586.236	15196.61
586.434	15358.4
586.631	15436.22
586.828	15186.37
587.026	15282.63
587.223	14875.08
587.42	15321.54
587.618	15260.1
587.815	14942.66
588.012	15028.68
588.21	15235.52
588.407	15145.41
588.604	14705.1
588.801	14784.97
588.999	14875.08
589.196	14647.76
589.393	14713.29
589.59	14580.17
589.787	14602.7
589.984	14455.25
590.182	14506.45
590.379	14692.81
590.576	14455.25
590.773	14541.26
590.97	14481.87
591.167	14449.1
591.364	14281.17
591.561	14168.53
591.758	13994.45
591.955	14234.07
592.152	14301.65
592.349	14121.43
592.546	14139.86
592.743	14107.09
592.94	13732.31
593.137	13834.71
593.334	14193.11
593.531	13613.53
593.727	13773.27
593.924	13834.71
594.121	13654.49
594.318	13697.5
594.515	13582.81
594.712	13791.7
594.908	13695.45
595.105	13529.56
595.302	13427.17
595.499	13488.6
595.696	13332.96
595.892	13476.32
596.089	13597.15
596.286	13660.63
596.482	13332.96
596.679	13156.83
596.876	12984.8
597.072	13021.67
597.269	13212.13
597.466	12958.18
597.662	13095.39
597.859	13087.2
598.055	13253.09
598.252	12798.44
598.448	13009.38
598.645	12884.45
598.841	12685.8
599.038	12808.68
599.234	12675.56
599.431	12714.47
599.627	12546.54
599.824	12964.32
600.02	12524.01
600.217	12716.52
600.413	12691.94
600.609	12452.33
600.806	12368.37
601.002	12405.23
601.198	12288.5
601.395	12319.21
601.591	12263.92
601.787	12419.57
601.984	12212.72
602.18	12136.95
602.376	12161.52
602.572	11950.58
602.769	12028.4
602.965	11987.44
603.161	12028.4
603.357	12067.31
603.553	11831.8
603.75	11676.15
603.946	11753.98
604.142	11817.46
604.338	11573.75
604.534	11540.99
604.73	11774.45
604.926	11827.7
605.122	11753.98
605.318	11772.41
605.514	11424.25
605.71	11264.51
605.906	11497.98
606.102	11485.69
606.298	11719.16
606.494	11323.9
606.69	11434.49
606.886	11532.79
607.082	11067.91
607.278	11332.09
607.474	11121.15
607.67	11262.46
607.866	10973.7
608.062	11233.79
608.257	11135.49
608.453	11168.26
608.649	11186.69
608.845	11088.39
609.041	11055.62
609.236	10996.23
609.432	10844.68
609.628	10865.16
609.824	10863.11
610.019	10791.43
610.215	10873.35
610.411	10748.42
610.606	10697.22
610.802	10799.62
610.998	10686.98
611.193	10926.6
611.389	10650.12
611.584	10775.05
611.78	10668.55
611.976	10643.98
612.171	10555.91
612.367	10510.86
612.562	10560.01
612.758	10498.57
612.953	10551.82
613.149	10514.95
613.344	10375.69
613.539	10711.56
613.735	10336.78
613.93	10441.23
614.126	10359.31
614.321	10514.95
614.517	10213.9
614.712	10367.5
614.907	10430.99
615.103	10279.44
615.298	10203.66
615.493	10324.49
615.688	10256.91
615.884	10191.38
616.079	10086.93
616.274	10123.79
616.47	10328.59
616.665	10320.4
616.86	9992.72
617.055	9992.72
617.25	10025.49
617.445	9982.48
617.641	9980.43
617.836	10009.11
618.031	9855.51
618.226	9861.65
618.421	9947.67
618.616	9861.65
618.811	9726.49
619.006	9886.23
619.201	9759.25
619.396	9841.17
619.591	9531.93
619.786	9744.92
619.981	9538.07
620.176	9488.92
620.371	9300.51
620.566	9587.22
620.761	9429.53
620.956	9439.77
621.151	9114.14
621.346	9452.06
621.541	9093.66
621.735	9245.21
621.93	9175.58
622.125	9151.01
622.32	9052.7
622.515	9151.01
622.709	9021.99
622.904	9091.62
623.099	8829.48
623.294	8882.72
623.488	8759.84
623.683	9052.7
623.878	8700.45
624.072	8663.59
624.267	8725.03
624.462	8632.87
624.656	8669.73
624.851	8618.54
625.046	8583.72
625.24	8757.8
625.435	8317.48
625.629	8426.03
625.824	8284.72
626.018	8174.13
626.213	8165.93
626.407	8206.89
626.602	8073.78
626.796	7991.86
626.991	8073.78
627.185	8008.24
627.38	7920.18
627.574	7742
627.768	7729.72
627.963	7694.9
628.157	7748.15
628.352	7895.6
628.546	7666.23
628.74	7717.43
628.935	7578.17
629.129	7572.02
629.323	7653.94
629.517	7563.83
629.712	7420.47
629.906	7561.78
630.1	7443
630.294	7416.38
630.489	7256.64
630.683	7283.26
630.877	7150.14
631.071	7041.6
631.265	7297.6
631.459	7115.33
631.653	6865.47
631.848	7094.85
632.042	6814.27
632.236	6990.4
632.43	6847.04
632.624	6877.76
632.818	6789.7
633.012	6851.14
633.206	6722.12
633.4	6879.81
633.594	6732.36
633.788	6736.45
633.982	6697.54
634.176	6416.97
634.369	6599.24
634.563	6443.59
634.757	6408.78
634.951	6300.23
635.145	6474.31
635.339	6357.58
635.533	6457.93
635.726	6425.16
635.92	6318.67
636.114	6316.62
636.308	6218.32
636.501	6267.47
636.695	6322.76
636.889	6081.1
637.083	6070.86
637.276	5993.04
637.47	6015.57
637.664	5966.42
637.857	6142.54
638.051	5884.5
638.244	5800.53
638.438	6023.76
638.632	6015.57
638.825	5902.93
639.019	5849.68
639.212	5812.82
639.406	5735
639.599	5714.52
639.793	5681.75
639.986	5599.83
640.18	5610.07
640.373	5749.33
640.567	5565.01
640.76	5634.64
640.954	5644.88
641.147	5442.14
641.34	5382.74
641.534	5380.7
641.727	5423.7
641.92	5333.59
642.114	5333.59
642.307	5331.55
642.5	5511.77
642.694	5165.66
642.887	5180
643.08	5266.01
643.273	5073.5
643.467	5044.83
643.66	4934.24
643.853	4985.44
644.046	4928.1
644.239	5102.17
644.432	4897.38
644.626	4928.1
644.819	5081.69
645.012	4754.02
645.205	4940.38
645.398	4874.85
645.591	4813.41
645.784	4637.28
645.977	4772.45
646.17	4833.89
646.363	4704.87
646.556	4729.44
646.749	4739.68
646.942	4788.83
647.135	4674.15
647.328	4606.56
647.521	4518.5
647.714	4559.46
647.907	4512.36
648.099	4487.78
648.292	4719.2
648.485	4491.88
648.678	4291.18
648.871	4493.93
649.064	4350.57
649.256	4393.58
649.449	4287.08
649.642	4387.43
649.835	4323.94
650.027	4272.75
650.22	4262.51
650.413	4209.26
650.605	4192.87
650.798	4319.85
650.991	4184.68
651.183	4153.96
651.376	4180.59
651.568	4125.29
651.761	4053.61
651.954	4162.16
652.146	4082.28
652.339	4061.8
652.531	4119.15
652.724	3846.77
652.916	4000.37
653.109	3873.39
653.301	3981.93
653.494	3938.93
653.686	3947.12
653.879	4024.94
654.071	3775.09
654.263	3955.31
654.456	3760.75
654.648	3793.52
654.84	3701.36
655.033	3750.51
655.225	3627.64
655.417	3662.45
655.61	3701.36
655.802	3697.27
655.994	3539.57
656.186	3615.35
656.379	3596.92
656.571	3590.77
656.763	3594.87
656.955	3529.33
657.148	3480.18
657.34	3558
657.532	3431.03
657.724	3437.17
657.916	3512.95
658.108	3508.85
658.3	3428.98
658.492	3314.3
658.684	3418.74
658.876	3250.81
659.068	3312.25
659.26	3269.24
659.452	3357.3
659.644	3240.57
659.836	3318.39
660.028	3297.91
660.22	3189.37
660.412	3185.27
660.604	3232.38
660.796	3261.05
660.988	3267.19
661.18	3084.92
661.372	3162.75
661.563	3254.9
661.755	3097.21
661.947	3263.1
662.139	3058.3
662.331	3099.26
662.522	3005.05
662.714	3101.31
662.906	3033.72
663.097	2968.19
663.289	2992.76
663.481	2949.76
663.673	2980.48
663.864	2861.69
664.056	2982.53
664.247	2976.38
664.439	2841.22
664.631	2912.89
664.822	2765.44
665.014	2912.89
665.205	2871.93
665.397	2773.63
665.588	2753.15
665.78	2693.76
665.971	2767.49
666.163	2785.92
666.354	2794.11
666.546	2835.07
666.737	2640.51
666.929	2626.18
667.12	2761.34
667.311	2759.3
667.503	2642.56
667.694	2605.7
667.885	2742.91
668.077	2622.08
668.268	2628.23
668.459	2658.95
668.651	2626.18
668.842	2693.76
669.033	2531.97
669.224	2669.19
669.416	2689.67
669.607	2458.25
669.798	2523.78
669.989	2564.74
670.18	2507.4
670.371	2552.45
670.563	2460.29
670.754	2427.53
670.945	2525.83
671.136	2407.05
671.327	2439.81
671.518	2544.26
671.709	2353.8
671.9	2525.83
672.091	2402.95
672.282	2314.89
672.473	2335.37
672.664	2482.82
672.855	2392.71
673.046	2300.55
673.237	2321.03
673.428	2357.89
673.619	2370.18
673.809	2306.7
674	2378.37
674.191	2400.9
674.382	2421.38
674.573	2366.09
674.764	2333.32
674.954	2435.72
675.145	2294.41
675.336	2312.84
675.527	2228.87
675.717	2306.7
675.908	2290.31
676.099	2155.15
676.289	2241.16
676.48	2263.69
676.671	2214.54
676.861	2218.63
677.052	2093.71
677.243	2165.39
677.433	2153.1
677.624	2185.87
677.814	2103.95
678.005	2194.06
678.195	2155.15
678.386	2167.43
678.576	2091.66
678.767	2122.38
678.957	2122.38
679.148	2124.43
679.338	2167.43
679.529	2247.3
679.719	2126.47
679.909	2081.42
680.1	2099.85
680.29	2220.68
680.481	2050.7
680.671	2187.91
680.861	2175.63
681.052	2110.09
681.242	2044.56
681.432	2132.62
681.622	2097.8
681.813	2103.95
682.003	2077.32
682.193	2062.99
682.383	2116.23
682.573	2048.65
682.764	2095.75
682.954	2095.75
683.144	2040.46
683.334	2112.14
683.524	2022.03
683.714	2032.27
683.904	1960.59
684.094	2042.51
684.284	2126.47
684.474	2095.75
684.664	2013.84
684.854	1923.73
685.044	2046.6
685.234	1966.73
685.424	2038.41
685.614	1858.19
685.804	1960.59
685.994	1942.16
686.184	1952.4
686.374	1919.63
686.564	1913.49
686.753	1862.29
686.943	2009.74
687.133	1835.66
687.323	1917.58
687.513	1913.49
687.702	1837.71
687.892	1882.77
688.082	1878.67
688.272	1876.62
688.461	1952.4
688.651	1827.47
688.841	1854.09
689.03	1815.18
689.22	1796.75
689.41	1850
689.599	1796.75
689.789	1794.7
689.979	1827.47
690.168	1809.04
690.358	1813.13
690.547	1692.3
690.737	1843.85
690.926	1780.37
691.116	1817.23
691.305	1852.05
691.495	1817.23
691.684	1596.05
691.874	1774.22
692.063	1718.93
692.252	1784.46
692.442	1669.78
692.631	1692.3
692.82	1667.73
693.01	1700.5
693.199	1710.74
693.388	1786.51
693.578	1637.01
693.767	1655.44
693.956	1682.06
694.146	1661.59
694.335	1575.57
694.524	1673.87
694.713	1749.65
694.902	1661.59
695.092	1618.58
695.281	1608.34
695.47	1550.99
695.659	1585.81
695.848	1569.43
696.037	1655.44
696.226	1682.06
696.415	1577.62
696.604	1677.97
696.793	1536.66
696.982	1585.81
697.171	1665.68
697.36	1479.32
697.549	1602.19
697.738	1714.83
697.927	1598.1
698.116	1598.1
698.305	1518.23
698.494	1585.81
698.683	1610.39
698.872	1637.01
699.061	1528.47
699.25	1557.14
699.438	1530.52
699.627	1684.11
699.816	1587.86
700.005	1567.38
700.193	1626.77
700.382	1620.63
700.571	1565.33
700.76	1596.05
700.948	1544.85
701.137	1616.53
701.326	1546.9
701.514	1520.28
701.703	1643.15
701.892	1602.19
702.08	1649.3
702.269	1569.43
702.457	1464.98
702.646	1553.04
702.834	1612.43
703.023	1542.8
703.212	1610.39
703.4	1483.41
703.589	1651.35
703.777	1563.28
703.965	1671.83
704.154	1581.71
704.342	1518.23
704.531	1630.87
704.719	1555.09
704.907	1677.97
705.096	1565.33
705.284	1487.51
705.472	1526.42
705.661	1630.87
705.849	1612.43
706.037	1526.42
706.226	1589.91
706.414	1643.15
706.602	1637.01
706.79	1575.57
706.979	1577.62
707.167	1620.63
707.355	1579.67
707.543	1620.63
707.731	1546.9
707.919	1622.67
708.107	1561.23
708.296	1565.33
708.484	1559.19
708.672	1577.62
708.86	1583.76
709.048	1641.11
709.236	1555.09
709.424	1571.47
709.612	1503.89
709.8	1540.76
709.988	1569.43
710.176	1587.86
710.364	1694.35
710.551	1520.28
710.739	1643.15
710.927	1596.05
711.115	1589.91
711.303	1661.59
711.491	1567.38
711.679	1639.06
711.866	1546.9
712.054	1604.24
712.242	1669.78
712.43	1659.54
712.617	1614.48
712.805	1673.87
712.993	1559.19
713.181	1479.32
713.368	1639.06
713.556	1622.67
713.744	1550.99
713.931	1694.35
714.119	1651.35
714.306	1526.42
714.494	1489.56
714.682	1622.67
714.869	1591.95
715.057	1581.71
715.244	1649.3
715.432	1710.74
715.619	1587.86
715.807	1598.1
715.994	1575.57
716.182	1663.63
716.369	1739.41
716.556	1620.63
716.744	1667.73
716.931	1675.92
717.119	1661.59
717.306	1553.04
717.493	1680.02
717.681	1536.66
717.868	1643.15
718.055	1612.43
718.242	1702.54
718.43	1630.87
718.617	1655.44
718.804	1614.48
718.991	1632.91
719.179	1606.29
719.366	1706.64
719.553	1542.8
719.74	1727.12
719.927	1550.99
720.114	1626.77
720.301	1628.82
720.488	1620.63
720.676	1587.86
720.863	1610.39
721.05	1563.28
721.237	1657.49
721.424	1622.67
721.611	1587.86
721.798	1464.98
721.985	1583.76
722.172	1696.4
722.358	1583.76
722.545	1690.26
722.732	1583.76
722.919	1659.54
723.106	1577.62
723.293	1598.1
723.48	1604.24
723.667	1596.05
723.853	1571.47
724.04	1637.01
724.227	1651.35
724.414	1661.59
724.6	1667.73
724.787	1692.3
724.974	1663.63
725.161	1596.05
725.347	1639.06
725.534	1622.67
725.72	1612.43
725.907	1575.57
726.094	1772.18
726.28	1596.05
726.467	1708.69
726.653	1731.22
726.84	1653.39
727.027	1653.39
727.213	1723.02
727.4	1729.17
727.586	1720.98
727.773	1643.15
727.959	1675.92
728.145	1624.72
728.332	1626.77
728.518	1667.73
728.705	1655.44
728.891	1569.43
729.077	1585.81
729.264	1604.24
729.45	1606.29
729.636	1647.25
729.823	1546.9
730.009	1667.73
730.195	1604.24
730.382	1526.42
730.568	1749.65
730.754	1641.11
730.94	1649.3
731.126	1589.91
731.313	1628.82
731.499	1610.39
731.685	1573.52
731.871	1628.82
732.057	1641.11
732.243	1596.05
732.429	1616.53
732.615	1532.56
732.801	1634.96
732.987	1594
733.173	1608.34
733.359	1665.68
733.545	1661.59
733.731	1548.95
733.917	1735.31
734.103	1614.48
734.289	1575.57
734.475	1598.1
734.661	1610.39
734.847	1579.67
735.033	1634.96
735.219	1645.2
735.404	1594
735.59	1628.82
735.776	1708.69
735.962	1630.87
736.148	1587.86
736.333	1684.11
736.519	1577.62
736.705	1626.77
736.89	1548.95
737.076	1645.2
737.262	1682.06
737.447	1671.83
737.633	1647.25
737.819	1544.85
738.004	1641.11
738.19	1585.81
738.375	1573.52
738.561	1575.57
738.747	1600.15
738.932	1503.89
739.118	1458.84
739.303	1567.38
739.489	1577.62
739.674	1493.65
739.859	1536.66
740.045	1557.14
740.23	1581.71
740.416	1510.04
740.601	1561.23
740.786	1610.39
740.972	1532.56
741.157	1604.24
741.342	1501.84
741.528	1467.03
741.713	1546.9
741.898	1507.99
742.084	1516.18
742.269	1417.88
742.454	1591.95
742.639	1594
742.824	1489.56
743.01	1499.8
743.195	1596.05
743.38	1415.83
743.565	1546.9
743.75	1405.59
743.935	1557.14
744.12	1448.6
744.305	1487.51
744.49	1395.35
744.675	1444.5
744.86	1344.15
745.045	1436.31
745.23	1458.84
745.415	1393.3
745.6	1421.97
745.785	1286.81
745.97	1454.74
746.155	1424.02
746.34	1510.04
746.525	1352.34
746.71	1413.78
746.895	1317.53
747.079	1340.05
747.264	1241.75
747.449	1399.45
747.634	1366.68
747.819	1313.43
748.003	1338.01
748.188	1282.71
748.373	1389.21
748.557	1315.48
748.742	1344.15
748.927	1331.86
749.111	1284.76
749.296	1286.81
749.481	1284.76
749.665	1215.13
749.85	1182.36
750.034	1245.85
750.219	1190.55
750.404	1251.99
750.588	1272.47
750.773	1147.55
750.957	1161.88
751.141	1112.73
751.326	1202.84
751.51	1055.39
751.695	1120.92
751.879	1135.26
752.064	1129.11
752.248	1127.07
752.432	1133.21
752.617	1086.11
752.801	1174.17
752.985	1079.96
753.17	1018.52
753.354	1043.1
753.538	1139.35
753.722	1122.97
753.907	1084.06
754.091	1036.95
754.275	1075.87
754.459	1073.82
754.643	1055.39
754.828	1120.92
755.012	948.89
755.196	1018.52
755.38	1096.35
755.564	989.85
755.748	1016.48
755.932	1051.29
756.116	975.52
756.3	1000.09
756.484	879.26
756.668	1012.38
756.852	928.41
757.036	942.75
757.22	967.32
757.404	1012.38
757.588	987.8
757.772	1024.67
757.956	1002.14
758.14	920.22
758.323	924.32
758.507	948.89
758.691	942.75
758.875	875.17
759.059	903.84
759.242	832.16
759.426	846.49
759.61	916.12
759.794	881.31
759.977	877.21
760.161	897.69
760.345	860.83
760.528	871.07
760.712	840.35
760.895	832.16
761.079	871.07
761.263	750.24
761.446	774.81
761.63	791.2
761.813	877.21
761.997	766.62
762.18	752.29
762.364	789.15
762.547	811.68
762.731	768.67
762.914	799.39
763.098	772.77
763.281	737.95
763.464	684.7
763.648	727.71
763.831	789.15
764.015	807.58
764.198	819.87
764.381	758.43
764.564	807.58
764.748	719.52
764.931	764.58
765.114	838.3
765.297	768.67
765.481	740
765.664	823.97
765.847	723.62
766.03	694.94
766.213	793.25
766.397	764.58
766.58	733.86
766.763	733.86
766.946	735.9
767.129	692.9
767.312	762.53
767.495	772.77
767.678	699.04
767.861	707.23
768.044	629.41
768.227	694.94
768.41	740
768.593	758.43
768.776	686.75
768.959	744.1
769.142	703.14
769.324	643.74
769.507	703.14
769.69	711.33
769.873	651.94
770.056	754.34
770.239	641.7
770.421	668.32
770.604	705.18
770.787	670.37
770.97	643.74
771.152	613.03
771.335	688.8
771.518	512.67
771.7	660.13
771.883	703.14
772.066	625.31
772.248	555.68
772.431	596.64
772.613	576.16
772.796	572.07
772.978	686.75
773.161	627.36
773.343	635.55
773.526	615.07
773.708	680.61
773.891	541.35
774.073	527.01
774.256	584.35
774.438	594.59
774.621	574.11
774.803	522.91
774.985	547.49
775.168	672.42
775.35	477.86
775.532	567.97
775.715	590.5
775.897	537.25
776.079	572.07
776.261	567.97
776.444	553.63
776.626	488.1
776.808	570.02
776.99	502.43
777.173	500.39
777.355	514.72
777.537	527.01
777.719	549.54
777.901	510.63
778.083	504.48
778.265	516.77
778.447	502.43
778.629	443.04
778.811	453.28
778.993	438.95
779.175	524.96
779.357	418.47
779.539	430.76
779.721	441
779.903	438.95
780.085	436.9
780.267	414.37
780.449	504.48
780.631	447.14
780.812	428.71
780.994	484
781.176	494.24
781.358	391.84
781.54	443.04
781.721	404.13
781.903	443.04
782.085	496.29
782.267	428.71
782.448	285.35
782.63	422.56
782.812	387.75
782.993	383.65
783.175	418.47
783.357	385.7
783.538	430.76
783.72	389.8
783.901	348.84
784.083	488.1
784.264	338.6
784.446	318.12
784.627	324.26
784.809	373.41
784.99	393.89
785.172	400.04
785.353	463.52
785.535	434.85
785.716	330.41
785.897	289.45
786.079	305.83
786.26	244.39
786.441	299.69
786.623	342.69
786.804	326.31
786.985	342.69
787.167	277.16
787.348	350.89
787.529	369.32
787.71	352.93
787.891	311.97
788.073	320.17
788.254	293.54
788.435	354.98
788.616	336.55
788.797	406.18
788.978	275.11
789.159	262.82
789.34	293.54
789.522	277.16
789.703	260.77
789.884	318.12
790.065	244.39
790.246	385.7
790.427	297.64
790.607	248.49
790.788	238.25
790.969	309.93
791.15	293.54
791.331	324.26
791.512	262.82
791.693	199.34
791.874	273.06
792.054	293.54
792.235	264.87
792.416	201.38
792.597	133.8
792.778	273.06
792.958	350.89
793.139	254.63
793.32	203.43
793.5	199.34
793.681	283.3
793.862	264.87
794.042	221.86
794.223	223.91
794.404	271.01
794.584	248.49
794.765	209.58
794.945	246.44
795.126	283.3
795.306	223.91
795.487	307.88
795.667	260.77
795.848	236.2
796.028	228.01
796.209	197.29
796.389	217.77
796.57	271.01
796.75	301.73
796.93	242.34
797.111	150.18
797.291	254.63
797.471	180.9
797.652	262.82
797.832	146.09
798.012	191.14
798.192	154.28
798.373	154.28
798.553	144.04
798.733	225.96
798.913	191.14
799.093	248.49
799.274	197.29
799.454	129.7
799.634	217.77
799.814	264.87
799.994	191.14
800.174	213.67
800.354	195.24
800.534	213.67
800.714	164.52
800.894	141.99
801.074	193.19
801.254	98.99
801.434	166.57
801.614	148.14
801.794	234.15
801.974	527.01
802.154	191.14
802.334	189.1
802.514	219.82
802.693	232.1
802.873	168.62
803.053	180.9
803.233	168.62
803.413	148.14
803.592	103.08
803.772	144.04
803.952	172.71
804.131	162.47
804.311	205.48
804.491	164.52
804.67	221.86
804.85	133.8
805.03	150.18
805.209	154.28
805.389	166.57
805.568	129.7
805.748	94.89
805.928	129.7
806.107	168.62
806.287	119.46
806.466	168.62
806.646	117.42
806.825	156.33
807.004	182.95
807.184	144.04
807.363	121.51
807.543	125.61
807.722	139.94
807.901	180.9
808.081	135.85
808.26	146.09
808.439	164.52
808.619	107.18
808.798	178.86
808.977	94.89
809.156	131.75
809.336	166.57
809.515	133.8
809.694	84.65
809.873	113.32
810.052	139.94
810.231	111.27
810.411	141.99
810.59	176.81
810.769	49.83
810.948	264.87
811.127	101.03
811.306	103.08
811.485	84.65
811.664	146.09
811.843	86.7
812.022	154.28
812.201	84.65
812.38	174.76
812.559	78.51
812.737	182.95
812.916	82.6
813.095	150.18
813.274	94.89
813.453	51.88
813.632	94.89
813.811	170.66
813.989	123.56
814.168	203.43
814.347	144.04
814.526	119.46
814.704	170.66
814.883	158.38
815.062	84.65
815.24	123.56
815.419	158.38
815.598	158.38
815.776	72.36
815.955	82.6
816.133	72.36
816.312	96.94
816.49	88.75
816.669	55.98
816.847	137.9
817.026	84.65
817.204	125.61
817.383	137.9
817.561	68.27
817.74	125.61
817.918	148.14
818.097	109.22
818.275	80.55
818.453	96.94
818.632	137.9
818.81	152.23
818.988	113.32
819.167	117.42
819.345	78.51
819.523	68.27
819.701	133.8
819.879	103.08
820.058	125.61
820.236	117.42
820.414	137.9
820.592	137.9
820.77	90.79
820.948	141.99
821.127	146.09
821.305	96.94
821.483	74.41
821.661	135.85
821.839	127.66
822.017	96.94
822.195	76.46
822.373	141.99
822.551	101.03
822.729	92.84
822.907	80.55
823.085	-1.37
823.262	43.69
823.44	70.31
823.618	62.12
823.796	103.08
823.974	64.17
824.152	125.61
824.329	33.45
824.507	41.64
824.685	109.22
824.863	72.36
825.04	133.8
825.218	80.55
825.396	0.68
825.574	66.22
825.751	135.85
825.929	41.64
826.107	49.83
826.284	51.88
826.462	58.03
826.639	-9.56
826.817	43.69
826.994	162.47
827.172	60.07
827.349	92.84
827.527	66.22
827.704	58.03
827.882	96.94
828.059	66.22
828.237	37.55
828.414	117.42
828.591	12.97
828.769	94.89
828.946	6.83
829.124	47.79
829.301	78.51
829.478	31.4
829.655	180.9
829.833	80.55
830.01	10.92
830.187	80.55
830.364	33.45
830.542	86.7
830.719	70.31
830.896	109.22
831.073	2.73
831.25	66.22
831.427	166.57
831.604	62.12
831.782	51.88
831.959	49.83
832.136	37.55
832.313	141.99
832.49	51.88
832.667	29.35
832.844	29.35
833.021	76.46
833.198	62.12
833.374	125.61
833.551	133.8
833.728	119.46
833.905	53.93
834.082	74.41
834.259	78.51
834.436	47.79
834.612	60.07
834.789	23.21
834.966	62.12
835.143	53.93
835.319	-50.52
835.496	80.55
835.673	76.46
835.85	98.99
836.026	35.5
836.203	72.36
836.38	51.88
836.556	76.46
836.733	10.92
836.909	-9.56
837.086	12.97
837.262	39.59
837.439	23.21
837.616	-11.61
837.792	78.51
837.968	72.36
838.145	37.55
838.321	43.69
838.498	62.12
838.674	37.55
838.851	96.94
839.027	72.36
839.203	2.73
839.38	-3.41
839.556	39.59
839.732	70.31
839.909	15.02
840.085	47.79
840.261	19.11
840.437	55.98
840.614	60.07
840.79	111.27
840.966	76.46
841.142	43.69
841.318	58.03
841.494	25.26
841.671	4.78
841.847	-11.61
842.023	49.83
842.199	33.45
842.375	55.98
842.551	31.4
842.727	-50.52
842.903	105.13
843.079	6.83
843.255	62.12
843.431	43.69
843.607	107.18
843.783	-9.56
843.959	72.36
844.134	-1.37
844.31	96.94
844.486	17.07
844.662	-1.37
844.838	10.92
845.013	-13.65
845.189	31.4
845.365	19.11
845.541	53.93
845.716	98.99
845.892	92.84
846.068	23.21
846.244	-1.37
846.419	4.78
846.595	23.21
846.77	29.35
846.946	33.45
847.122	25.26
847.297	49.83
847.473	51.88
847.648	-25.94
847.824	33.45
847.999	-21.85
848.175	10.92
848.35	21.16
848.526	98.99
848.701	31.4
848.876	19.11
849.052	-30.04
849.227	60.07
849.403	21.16
849.578	25.26
849.753	41.64
849.929	15.02
850.104	25.26
850.279	10.92
850.454	41.64
850.63	92.84
850.805	25.26
850.98	27.31
851.155	55.98
851.33	60.07
851.505	41.64
851.681	39.59
851.856	-52.56
852.031	64.17
852.206	-40.28
852.381	37.55
852.556	23.21
852.731	113.32
852.906	39.59
853.081	117.42
853.256	45.74
853.431	64.17
853.606	19.11
853.781	-11.61
853.956	-1.37
854.131	78.51
854.305	-30.04
854.48	29.35
854.655	25.26
854.83	70.31
855.005	27.31
855.18	-9.56
855.354	8.87
855.529	64.17
855.704	-13.65
855.879	70.31
856.053	17.07
856.228	-19.8
856.403	10.92
856.577	-17.75
856.752	-15.7
856.926	51.88
857.101	-1.37
857.276	-27.99
857.45	-64.85
857.625	43.69
857.799	62.12
857.974	47.79
858.148	-50.52
858.323	21.16
858.497	-1.37
858.672	-7.51
858.846	2.73
859.02	-25.94
859.195	47.79
859.369	41.64
859.543	8.87
859.718	53.93
859.892	70.31
860.066	-15.7
860.241	-30.04
860.415	60.07
860.589	-34.13
860.763	37.55
860.938	82.6
861.112	84.65
861.286	-13.65
861.46	23.21
861.634	-7.51
861.808	-42.32
861.982	-5.46
862.157	15.02
862.331	64.17
862.505	80.55
862.679	55.98
862.853	23.21
863.027	-9.56
863.201	82.6
863.375	-13.65
863.549	12.97
863.722	-30.04
863.896	62.12
864.07	-17.75
864.244	53.93
864.418	80.55
864.592	23.21
864.766	-52.56
864.939	15.02
865.113	-99.67
865.287	29.35
865.461	29.35
865.634	58.03
865.808	37.55
865.982	31.4
866.156	-25.94
866.329	21.16
866.503	23.21
866.676	8.87
866.85	17.07
867.024	39.59
867.197	84.65
867.371	96.94
867.544	-27.99
867.718	10.92
867.891	74.41
868.065	-54.61
868.238	-1.37
868.412	12.97
868.585	51.88
868.759	35.5
868.932	37.55
869.105	84.65
869.279	92.84
869.452	60.07
869.625	19.11
869.799	25.26
869.972	12.97
870.145	8.87
870.319	-27.99
870.492	64.17
870.665	37.55
870.838	-1.37
871.011	-50.52
871.185	68.27
871.358	-42.32
871.531	47.79
871.704	17.07
871.877	41.64
872.05	8.87
872.223	-23.89
872.396	47.79
872.569	60.07
872.742	10.92
872.915	35.5
873.088	49.83
873.261	6.83
873.434	62.12
873.607	17.07
873.78	17.07
873.953	27.31
874.126	-13.65
874.299	19.11
874.471	8.87
874.644	47.79
874.817	105.13
874.99	0.68
875.163	-44.37
875.335	17.07
875.508	-109.91
875.681	25.26
875.853	45.74
876.026	35.5
876.199	-15.7
876.371	21.16
876.544	23.21
876.717	-50.52
876.889	-11.61
877.062	146.09
877.234	-40.28
877.407	-27.99
877.579	47.79
877.752	88.75
877.924	8.87
878.097	-34.13
878.269	15.02
878.442	-23.89
878.614	15.02
878.786	8.87
878.959	-9.56
879.131	-15.7
879.303	8.87
879.476	29.35
879.648	49.83
879.82	45.74
879.993	68.27
880.165	-3.41
880.337	2.73
880.509	68.27
880.681	-40.28
880.854	6.83
881.026	27.31
881.198	84.65
881.37	39.59
881.542	-5.46
881.714	49.83
881.886	-36.18
882.058	39.59
882.23	45.74
882.402	-3.41
882.574	37.55
882.746	-13.65
882.918	53.93
883.09	23.21
883.262	-30.04
883.434	-19.8
883.606	-1.37
883.778	-27.99
883.95	68.27
884.122	-23.89
884.293	68.27
884.465	-1.37
884.637	31.4
884.809	21.16
884.98	4.78
885.152	33.45
885.324	127.66
885.496	-11.61
885.667	121.51
885.839	-34.13
886.011	53.93
886.182	27.31
886.354	8.87
886.525	45.74
886.697	37.55
886.869	-54.61
887.04	55.98
887.212	43.69
887.383	35.5
887.555	29.35
887.726	-1.37
887.897	19.11
888.069	41.64
888.24	-1.37
888.412	45.74
888.583	-17.75
888.754	23.21
888.926	23.21
889.097	33.45
889.268	2.73
889.44	19.11
889.611	-27.99
889.782	39.59
889.953	-36.18
890.125	19.11
890.296	-38.23
890.467	4.78
890.638	21.16
890.809	0.68
890.98	101.03
891.151	33.45
891.323	23.21
891.494	51.88
891.665	4.78
891.836	17.07
892.007	-17.75
892.178	-3.41
892.349	35.5
892.52	-44.37
892.691	19.11
892.862	-17.75
893.032	-23.89
893.203	47.79
893.374	27.31
893.545	6.83
893.716	15.02
893.887	-9.56
894.057	-27.99
894.228	8.87
894.399	-9.56
894.57	25.26
894.74	35.5
894.911	72.36
895.082	12.97
895.253	31.4
895.423	-3.41
895.594	29.35
895.764	-5.46
895.935	4.78
896.106	64.17
896.276	-3.41
896.447	60.07
896.617	-11.61
896.788	25.26
896.958	0.68
897.129	-11.61
897.299	37.55
897.47	17.07
897.64	-1.37
897.81	33.45
897.981	-27.99
898.151	21.16
898.322	96.94
898.492	-11.61
898.662	-40.28
898.832	-5.46
899.003	29.35
899.173	35.5
899.343	-30.04
899.513	19.11
