Data from USB4F104151__204__11-10-15-198.txt Node

Date: Wed Mar 12 11:10:15 EDT 2025
User: louis
Spectrometer: USB4F10415
Trigger mode: 4
Integration Time (sec): 2.000000E-2
Scans to average: 1
Electric dark correction enabled: true
Nonlinearity correction enabled: false
Boxcar width: 0
XAxis mode: Wavelengths
Number of Pixels in Spectrum: 3648
>>>>>Begin Spectral Data<<<<<
178.204	-68.09
178.424	-68.09
178.644	-68.09
178.864	-74.24
179.084	-96.77
179.304	-2.56
179.524	26.11
179.744	-4.61
179.964	22.02
180.184	-43.52
180.404	32.26
180.624	-16.9
180.844	3.58
181.064	1.54
181.283	-6.66
181.503	-29.18
181.723	17.92
181.943	-6.66
182.163	19.97
182.383	38.4
182.602	42.5
182.822	22.02
183.042	44.54
183.262	77.31
183.482	-14.85
183.701	-6.66
183.921	13.82
184.141	-10.75
184.361	-16.9
184.58	36.35
184.8	71.17
185.02	54.78
185.239	11.78
185.459	11.78
185.679	24.06
185.898	-27.14
186.118	91.65
186.338	46.59
186.557	105.98
186.777	13.82
186.997	36.35
187.216	36.35
187.436	67.07
187.655	1.54
187.875	46.59
188.095	42.5
188.314	48.64
188.534	-6.66
188.753	93.69
188.973	5.63
189.192	144.89
189.412	-8.7
189.631	17.92
189.851	38.4
190.07	22.02
190.29	75.26
190.509	24.06
190.729	62.98
190.948	-20.99
191.168	93.69
191.387	54.78
191.607	36.35
191.826	85.5
192.045	38.4
192.265	-0.51
192.484	-0.51
192.704	103.93
192.923	38.4
193.142	22.02
193.362	77.31
193.581	110.08
193.8	13.82
194.02	26.11
194.239	132.61
194.458	19.97
194.678	5.63
194.897	34.3
195.116	99.84
195.335	-18.94
195.555	24.06
195.774	40.45
195.993	101.89
196.212	-2.56
196.432	79.36
196.651	58.88
196.87	-37.38
197.089	99.84
197.308	48.64
197.528	73.21
197.747	52.74
197.966	83.45
198.185	-20.99
198.404	40.45
198.623	-23.04
198.842	58.88
199.062	75.26
199.281	62.98
199.5	71.17
199.719	73.21
199.938	48.64
200.157	38.4
200.376	-10.75
200.595	69.12
200.814	46.59
201.033	81.41
201.252	46.59
201.471	46.59
201.69	69.12
201.909	26.11
202.128	48.64
202.347	46.59
202.566	28.16
202.785	-33.28
203.004	-23.04
203.223	83.45
203.442	54.78
203.661	7.68
203.879	36.35
204.098	-18.94
204.317	26.11
204.536	114.17
204.755	-0.51
204.974	65.02
205.193	36.35
205.411	105.98
205.63	1.54
205.849	79.36
206.068	93.69
206.287	58.88
206.505	32.26
206.724	19.97
206.943	60.93
207.162	77.31
207.381	-10.75
207.599	69.12
207.818	17.92
208.037	24.06
208.255	89.6
208.474	-14.85
208.693	54.78
208.911	103.93
209.13	114.17
209.349	69.12
209.567	75.26
209.786	34.3
210.005	87.55
210.223	34.3
210.442	-2.56
210.661	24.06
210.879	15.87
211.098	11.78
211.316	97.79
211.535	54.78
211.753	40.45
211.972	28.16
212.191	42.5
212.409	-35.33
212.628	38.4
212.846	50.69
213.065	11.78
213.283	99.84
213.502	11.78
213.72	77.31
213.938	108.03
214.157	5.63
214.375	81.41
214.594	58.88
214.812	48.64
215.031	9.73
215.249	42.5
215.467	54.78
215.686	69.12
215.904	71.17
216.122	62.98
216.341	26.11
216.559	-14.85
216.778	58.88
216.996	32.26
217.214	38.4
217.432	28.16
217.651	7.68
217.869	-49.66
218.087	-8.7
218.306	116.22
218.524	116.22
218.742	-39.42
218.96	26.11
219.179	91.65
219.397	40.45
219.615	36.35
219.833	54.78
220.051	11.78
220.27	56.83
220.488	17.92
220.706	-12.8
220.924	48.64
221.142	-2.56
221.36	-2.56
221.578	52.74
221.796	81.41
222.015	3.58
222.233	-8.7
222.451	99.84
222.669	22.02
222.887	81.41
223.105	48.64
223.323	9.73
223.541	75.26
223.759	13.82
223.977	99.84
224.195	9.73
224.413	151.04
224.631	60.93
224.849	128.51
225.067	54.78
225.285	32.26
225.503	26.11
225.721	1.54
225.939	15.87
226.157	-31.23
226.375	89.6
226.592	-14.85
226.81	69.12
227.028	87.55
227.246	95.74
227.464	22.02
227.682	67.07
227.9	-2.56
228.117	79.36
228.335	5.63
228.553	58.88
228.771	32.26
228.989	19.97
229.206	32.26
229.424	58.88
229.642	-12.8
229.86	30.21
230.077	9.73
230.295	101.89
230.513	67.07
230.731	40.45
230.948	85.5
231.166	91.65
231.384	34.3
231.601	65.02
231.819	97.79
232.037	-51.71
232.254	36.35
232.472	-23.04
232.689	34.3
232.907	99.84
233.125	32.26
233.342	15.87
233.56	46.59
233.777	24.06
233.995	32.26
234.213	58.88
234.43	3.58
234.648	26.11
234.865	-51.71
235.083	17.92
235.3	-10.75
235.518	30.21
235.735	73.21
235.953	67.07
236.17	26.11
236.388	-4.61
236.605	89.6
236.822	73.21
237.04	60.93
237.257	81.41
237.475	67.07
237.692	17.92
237.909	79.36
238.127	69.12
238.344	48.64
238.562	24.06
238.779	17.92
238.996	-12.8
239.214	36.35
239.431	67.07
239.648	50.69
239.865	46.59
240.083	52.74
240.3	15.87
240.517	32.26
240.735	112.13
240.952	62.98
241.169	122.37
241.386	79.36
241.603	32.26
241.821	11.78
242.038	5.63
242.255	46.59
242.472	38.4
242.689	54.78
242.907	32.26
243.124	9.73
243.341	75.26
243.558	54.78
243.775	17.92
243.992	19.97
244.209	116.22
244.426	34.3
244.643	50.69
244.86	87.55
245.078	32.26
245.295	65.02
245.512	79.36
245.729	54.78
245.946	32.26
246.163	81.41
246.38	28.16
246.597	36.35
246.814	75.26
247.031	105.98
247.248	7.68
247.464	34.3
247.681	-10.75
247.898	17.92
248.115	56.83
248.332	17.92
248.549	46.59
248.766	101.89
248.983	67.07
249.2	7.68
249.417	-14.85
249.633	-16.9
249.85	-12.8
250.067	-8.7
250.284	-0.51
250.501	79.36
250.717	15.87
250.934	71.17
251.151	3.58
251.368	3.58
251.585	54.78
251.801	40.45
252.018	-12.8
252.235	52.74
252.451	13.82
252.668	73.21
252.885	75.26
253.102	-10.75
253.318	73.21
253.535	-10.75
253.752	75.26
253.968	60.93
254.185	67.07
254.401	60.93
254.618	71.17
254.835	-57.86
255.051	30.21
255.268	50.69
255.484	130.56
255.701	54.78
255.917	118.27
256.134	9.73
256.351	-12.8
256.567	-14.85
256.784	-6.66
257	-2.56
257.217	83.45
257.433	67.07
257.65	71.17
257.866	5.63
258.082	-18.94
258.299	17.92
258.515	17.92
258.732	77.31
258.948	30.21
259.165	97.79
259.381	112.13
259.597	77.31
259.814	-10.75
260.03	22.02
260.246	-41.47
260.463	28.16
260.679	50.69
260.895	-6.66
261.112	75.26
261.328	71.17
261.544	-6.66
261.761	46.59
261.977	-14.85
262.193	28.16
262.409	52.74
262.626	62.98
262.842	81.41
263.058	-57.86
263.274	67.07
263.49	52.74
263.707	38.4
263.923	60.93
264.139	44.54
264.355	38.4
264.571	7.68
264.787	15.87
265.004	101.89
265.22	65.02
265.436	48.64
265.652	58.88
265.868	73.21
266.084	-6.66
266.3	79.36
266.516	-33.28
266.732	83.45
266.948	44.54
267.164	54.78
267.38	28.16
267.596	17.92
267.812	28.16
268.028	52.74
268.244	1.54
268.46	-0.51
268.676	42.5
268.892	26.11
269.108	75.26
269.324	7.68
269.54	13.82
269.756	105.98
269.972	62.98
270.188	-33.28
270.403	-2.56
270.619	50.69
270.835	38.4
271.051	15.87
271.267	34.3
271.483	42.5
271.698	-6.66
271.914	83.45
272.13	-6.66
272.346	34.3
272.562	-2.56
272.777	22.02
272.993	52.74
273.209	56.83
273.425	56.83
273.64	-0.51
273.856	48.64
274.072	105.98
274.287	13.82
274.503	75.26
274.719	46.59
274.934	56.83
275.15	62.98
275.366	50.69
275.581	32.26
275.797	38.4
276.012	-2.56
276.228	85.5
276.444	38.4
276.659	67.07
276.875	-6.66
277.09	15.87
277.306	44.54
277.521	26.11
277.737	87.55
277.952	58.88
278.168	46.59
278.383	48.64
278.599	75.26
278.814	69.12
279.03	46.59
279.245	62.98
279.461	112.13
279.676	108.03
279.892	105.98
280.107	62.98
280.322	50.69
280.538	34.3
280.753	62.98
280.969	89.6
281.184	11.78
281.399	-10.75
281.615	97.79
281.83	54.78
282.045	62.98
282.26	34.3
282.476	-8.7
282.691	128.51
282.906	38.4
283.122	42.5
283.337	26.11
283.552	34.3
283.767	73.21
283.983	34.3
284.198	3.58
284.413	30.21
284.628	24.06
284.843	73.21
285.058	19.97
285.274	-8.7
285.489	-27.14
285.704	71.17
285.919	48.64
286.134	7.68
286.349	77.31
286.564	42.5
286.779	30.21
286.995	24.06
287.21	-18.94
287.425	11.78
287.64	32.26
287.855	114.17
288.07	11.78
288.285	91.65
288.5	-18.94
288.715	148.99
288.93	128.51
289.145	1.54
289.36	89.6
289.575	93.69
289.79	71.17
290.004	-10.75
290.219	42.5
290.434	-16.9
290.649	3.58
290.864	62.98
291.079	-10.75
291.294	42.5
291.509	79.36
291.724	24.06
291.938	69.12
292.153	85.5
292.368	151.04
292.583	58.88
292.798	83.45
293.012	73.21
293.227	60.93
293.442	26.11
293.657	112.13
293.871	77.31
294.086	3.58
294.301	69.12
294.516	89.6
294.73	103.93
294.945	65.02
295.16	89.6
295.374	126.46
295.589	73.21
295.804	65.02
296.018	89.6
296.233	105.98
296.447	32.26
296.662	-10.75
296.877	5.63
297.091	62.98
297.306	17.92
297.52	-25.09
297.735	50.69
297.949	91.65
298.164	26.11
298.378	58.88
298.593	40.45
298.807	108.03
299.022	38.4
299.236	17.92
299.451	11.78
299.665	65.02
299.88	15.87
300.094	42.5
300.309	73.21
300.523	79.36
300.737	60.93
300.952	87.55
301.166	15.87
301.381	-4.61
301.595	54.78
301.809	13.82
302.024	15.87
302.238	85.5
302.452	52.74
302.667	105.98
302.881	99.84
303.095	-0.51
303.309	108.03
303.524	58.88
303.738	28.16
303.952	5.63
304.166	9.73
304.381	46.59
304.595	28.16
304.809	40.45
305.023	54.78
305.237	60.93
305.452	87.55
305.666	44.54
305.88	91.65
306.094	108.03
306.308	-8.7
306.522	52.74
306.736	60.93
306.95	77.31
307.164	44.54
307.379	69.12
307.593	7.68
307.807	52.74
308.021	77.31
308.235	-18.94
308.449	7.68
308.663	46.59
308.877	73.21
309.091	28.16
309.305	-12.8
309.519	36.35
309.733	99.84
309.947	3.58
310.161	69.12
310.374	-12.8
310.588	93.69
310.802	17.92
311.016	9.73
311.23	95.74
311.444	1.54
311.658	-23.04
311.872	-8.7
312.085	30.21
312.299	93.69
312.513	52.74
312.727	-64
312.941	58.88
313.154	65.02
313.368	44.54
313.582	60.93
313.796	28.16
314.009	67.07
314.223	87.55
314.437	-6.66
314.651	-0.51
314.864	28.16
315.078	69.12
315.292	48.64
315.505	9.73
315.719	26.11
315.933	46.59
316.146	3.58
316.36	13.82
316.573	130.56
316.787	42.5
317.001	65.02
317.214	-2.56
317.428	108.03
317.641	38.4
317.855	60.93
318.068	26.11
318.282	19.97
318.495	17.92
318.709	69.12
318.922	85.5
319.136	151.04
319.349	46.59
319.563	36.35
319.776	-2.56
319.99	101.89
320.203	52.74
320.417	50.69
320.63	67.07
320.843	28.16
321.057	52.74
321.27	97.79
321.483	44.54
321.697	103.93
321.91	128.51
322.124	5.63
322.337	-0.51
322.55	-29.18
322.763	5.63
322.977	75.26
323.19	9.73
323.403	42.5
323.617	-51.71
323.83	81.41
324.043	1.54
324.256	60.93
324.469	-0.51
324.683	3.58
324.896	-14.85
325.109	34.3
325.322	-2.56
325.535	52.74
325.748	97.79
325.962	34.3
326.175	77.31
326.388	48.64
326.601	-29.18
326.814	67.07
327.027	110.08
327.24	136.7
327.453	65.02
327.666	22.02
327.879	50.69
328.092	73.21
328.305	69.12
328.518	95.74
328.731	46.59
328.944	32.26
329.157	48.64
329.37	7.68
329.583	97.79
329.796	116.22
330.009	71.17
330.222	28.16
330.435	116.22
330.648	3.58
330.861	-0.51
331.073	54.78
331.286	79.36
331.499	58.88
331.712	11.78
331.925	36.35
332.138	15.87
332.35	9.73
332.563	99.84
332.776	50.69
332.989	22.02
333.202	44.54
333.414	112.13
333.627	75.26
333.84	157.18
334.053	79.36
334.265	42.5
334.478	9.73
334.691	65.02
334.903	42.5
335.116	26.11
335.329	50.69
335.541	15.87
335.754	103.93
335.966	71.17
336.179	13.82
336.392	62.98
336.604	48.64
336.817	40.45
337.029	114.17
337.242	146.94
337.454	48.64
337.667	-8.7
337.88	24.06
338.092	-14.85
338.305	83.45
338.517	56.83
338.729	75.26
338.942	26.11
339.154	38.4
339.367	26.11
339.579	79.36
339.792	13.82
340.004	118.27
340.217	103.93
340.429	91.65
340.641	87.55
340.854	52.74
341.066	26.11
341.278	30.21
341.491	-35.33
341.703	128.51
341.915	7.68
342.128	62.98
342.34	22.02
342.552	26.11
342.764	-8.7
342.977	58.88
343.189	62.98
343.401	73.21
343.613	62.98
343.826	30.21
344.038	52.74
344.25	56.83
344.462	75.26
344.674	83.45
344.886	40.45
345.099	148.99
345.311	42.5
345.523	42.5
345.735	-43.52
345.947	-2.56
346.159	7.68
346.371	40.45
346.583	9.73
346.795	28.16
347.007	30.21
347.219	26.11
347.431	28.16
347.643	69.12
347.855	124.41
348.067	165.37
348.279	24.06
348.491	77.31
348.703	40.45
348.915	134.65
349.127	24.06
349.339	52.74
349.551	124.41
349.763	89.6
349.975	48.64
350.187	89.6
350.399	177.66
350.61	32.26
350.822	110.08
351.034	83.45
351.246	48.64
351.458	62.98
351.669	73.21
351.881	60.93
352.093	22.02
352.305	67.07
352.517	101.89
352.728	118.27
352.94	-0.51
353.152	34.3
353.363	58.88
353.575	67.07
353.787	93.69
353.999	32.26
354.21	157.18
354.422	38.4
354.633	11.78
354.845	69.12
355.057	67.07
355.268	-23.04
355.48	108.03
355.692	22.02
355.903	19.97
356.115	77.31
356.326	13.82
356.538	46.59
356.749	103.93
356.961	56.83
357.172	62.98
357.384	91.65
357.595	87.55
357.807	38.4
358.018	52.74
358.23	116.22
358.441	58.88
358.653	108.03
358.864	87.55
359.075	50.69
359.287	48.64
359.498	75.26
359.709	42.5
359.921	99.84
360.132	5.63
360.344	65.02
360.555	11.78
360.766	85.5
360.977	120.32
361.189	69.12
361.4	28.16
361.611	81.41
361.823	95.74
362.034	91.65
362.245	52.74
362.456	46.59
362.667	97.79
362.879	48.64
363.09	126.46
363.301	71.17
363.512	99.84
363.723	128.51
363.935	9.73
364.146	26.11
364.357	71.17
364.568	77.31
364.779	13.82
364.99	148.99
365.201	163.33
365.412	97.79
365.623	38.4
365.834	93.69
366.045	101.89
366.256	79.36
366.467	56.83
366.678	30.21
366.889	87.55
367.1	52.74
367.311	58.88
367.522	83.45
367.733	95.74
367.944	44.54
368.155	87.55
368.366	101.89
368.577	105.98
368.788	103.93
368.999	44.54
369.209	144.89
369.42	46.59
369.631	87.55
369.842	22.02
370.053	83.45
370.264	110.08
370.474	93.69
370.685	52.74
370.896	52.74
371.107	52.74
371.317	65.02
371.528	44.54
371.739	1.54
371.95	99.84
372.16	62.98
372.371	54.78
372.582	48.64
372.792	32.26
373.003	50.69
373.214	54.78
373.424	130.56
373.635	44.54
373.846	153.09
374.056	30.21
374.267	36.35
374.477	69.12
374.688	112.13
374.898	46.59
375.109	116.22
375.319	83.45
375.53	17.92
375.74	101.89
375.951	17.92
376.161	103.93
376.372	65.02
376.582	34.3
376.793	112.13
377.003	52.74
377.214	48.64
377.424	73.21
377.635	38.4
377.845	11.78
378.055	140.8
378.266	13.82
378.476	50.69
378.686	103.93
378.897	46.59
379.107	36.35
379.317	91.65
379.528	-10.75
379.738	34.3
379.948	60.93
380.158	44.54
380.369	99.84
380.579	140.8
380.789	132.61
380.999	81.41
381.21	83.45
381.42	69.12
381.63	24.06
381.84	124.41
382.05	52.74
382.261	108.03
382.471	62.98
382.681	56.83
382.891	89.6
383.101	54.78
383.311	50.69
383.521	22.02
383.731	122.37
383.941	103.93
384.151	79.36
384.361	91.65
384.571	34.3
384.781	130.56
384.991	54.78
385.201	56.83
385.411	48.64
385.621	110.08
385.831	34.3
386.041	65.02
386.251	128.51
386.461	155.13
386.671	124.41
386.881	56.83
387.091	5.63
387.301	75.26
387.511	128.51
387.72	93.69
387.93	79.36
388.14	22.02
388.35	58.88
388.56	110.08
388.769	62.98
388.979	140.8
389.189	7.68
389.399	34.3
389.609	71.17
389.818	138.75
390.028	95.74
390.238	-8.7
390.447	83.45
390.657	69.12
390.867	95.74
391.076	73.21
391.286	112.13
391.496	71.17
391.705	97.79
391.915	48.64
392.125	81.41
392.334	177.66
392.544	91.65
392.753	151.04
392.963	75.26
393.172	89.6
393.382	77.31
393.591	163.33
393.801	118.27
394.01	216.57
394.22	46.59
394.429	136.7
394.639	87.55
394.848	62.98
395.058	48.64
395.267	95.74
395.477	155.13
395.686	97.79
395.895	165.37
396.105	163.33
396.314	142.85
396.524	93.69
396.733	130.56
396.942	58.88
397.152	93.69
397.361	108.03
397.57	81.41
397.78	105.98
397.989	91.65
398.198	163.33
398.407	185.85
398.617	101.89
398.826	103.93
399.035	50.69
399.244	101.89
399.453	87.55
399.663	52.74
399.872	54.78
400.081	19.97
400.29	185.85
400.499	95.74
400.708	138.75
400.917	128.51
401.127	136.7
401.336	130.56
401.545	85.5
401.754	220.67
401.963	93.69
402.172	136.7
402.381	116.22
402.59	148.99
402.799	214.52
403.008	163.33
403.217	155.13
403.426	218.62
403.635	163.33
403.844	171.52
404.053	138.75
404.262	130.56
404.471	151.04
404.68	255.48
404.888	142.85
405.097	273.92
405.306	153.09
405.515	196.09
405.724	144.89
405.933	251.39
406.142	185.85
406.35	161.28
406.559	255.48
406.768	208.38
406.977	243.2
407.185	218.62
407.394	214.52
407.603	230.91
407.812	300.54
408.02	216.57
408.229	273.92
408.438	222.72
408.646	243.2
408.855	232.96
409.064	261.63
409.272	316.92
409.481	327.16
409.69	308.73
409.898	275.96
410.107	372.22
410.315	364.03
410.524	341.5
410.733	396.79
410.941	386.55
411.15	421.37
411.358	347.64
411.567	384.51
411.775	388.6
411.984	474.62
412.192	464.38
412.401	497.14
412.609	603.64
412.818	531.96
413.026	515.58
413.234	574.97
413.443	599.54
413.651	630.26
413.86	581.11
414.068	716.28
414.276	734.71
414.485	601.59
414.693	779.76
414.901	697.85
415.11	763.38
415.318	767.48
415.526	722.42
415.734	792.05
415.943	830.96
416.151	861.68
416.359	927.22
416.567	921.07
416.776	974.32
416.984	980.47
417.192	988.66
417.4	1046
417.608	1134.06
417.817	1140.21
418.025	1175.02
418.233	1295.85
418.441	1226.22
418.649	1322.48
418.857	1383.91
419.065	1422.83
419.273	1484.27
419.481	1527.27
419.689	1658.34
419.897	1635.82
420.105	1687.01
420.313	1717.73
420.521	1830.37
420.729	1779.17
420.937	1859.04
421.145	1902.05
421.353	2063.84
421.561	2035.17
421.769	2121.18
421.977	2172.38
422.185	2235.87
422.393	2387.42
422.601	2495.96
422.809	2416.09
423.017	2520.54
423.224	2569.69
423.432	2762.2
423.64	2741.72
423.848	2952.66
424.056	2889.17
424.263	2981.33
424.471	3169.74
424.679	3130.83
424.887	3362.25
425.094	3380.68
425.302	3466.7
425.51	3571.15
425.718	3683.78
425.925	3757.51
426.133	3950.02
426.341	4140.48
426.548	4253.12
426.756	4425.15
426.964	4310.46
427.171	4720.06
427.379	4713.91
427.586	4804.02
427.794	5031.35
428.001	5029.3
428.209	5330.35
428.417	5236.14
428.624	5543.34
428.832	5637.55
429.039	5617.07
429.247	5690.79
429.454	6241.7
429.662	6651.29
429.869	6202.79
430.076	6692.25
430.284	6442.4
430.491	6718.87
430.699	7077.27
430.906	7058.84
431.114	7200.15
431.321	7386.51
431.528	7474.57
431.736	7898.5
431.943	8439.17
432.15	8119.68
432.358	8273.28
432.565	8664.44
432.772	8650.11
432.979	9270.64
433.187	9399.66
433.394	9291.12
433.601	9979.24
433.808	10073.45
434.016	9827.69
434.223	10300.77
434.43	10964.31
434.637	10792.28
434.844	11363.67
435.052	11685.2
435.259	11660.62
435.466	11533.65
435.673	11631.95
435.88	12358.98
436.087	12938.55
436.294	12627.26
436.501	12565.82
436.708	12852.54
436.915	13468.98
437.122	13983.02
437.329	14105.9
437.537	14304.55
437.743	14533.92
437.95	14538.02
438.157	15168.79
438.364	15793.42
438.571	15844.62
438.778	15635.73
438.985	17261.82
439.192	16858.37
439.399	17122.55
439.606	16844.03
439.813	17851.63
440.02	18746.59
440.227	18199.79
440.433	18238.7
440.64	18965.73
440.847	18928.86
441.054	19293.4
441.261	20479.18
441.467	20190.41
441.674	20677.83
441.881	21251.26
442.088	20939.97
442.294	21251.26
442.501	21363.9
442.708	21918.9
442.914	23168.16
443.121	23927.95
443.328	23227.55
443.534	25158.78
443.741	24288.4
443.948	23700.63
444.154	25660.54
444.361	25322.62
444.568	25525.37
444.774	25783.41
444.981	26211.44
445.187	26774.63
445.394	27812.95
445.6	27403.36
445.807	29998.13
446.013	28695.63
446.22	29443.13
446.426	30280.75
446.633	30706.73
446.839	31484.96
447.046	30313.52
447.252	31960.09
447.459	32021.53
447.665	31829.02
447.871	33305.6
448.078	34743.28
448.284	32861.19
448.491	33919.99
448.697	35105.77
448.903	36135.9
449.11	36039.64
449.316	35374.05
449.522	35961.82
449.728	36600.79
449.935	37454.79
450.141	37016.52
450.347	37888.96
450.553	36516.82
450.76	37067.72
450.966	38233.02
451.172	38386.61
451.378	38761.39
451.584	38079.42
451.791	39019.44
451.997	38863.79
452.203	39234.47
452.409	39302.06
452.615	39001
452.821	37489.6
453.027	37358.53
453.233	39218.09
453.44	37546.95
453.646	37872.57
453.852	38243.26
454.058	38638.51
454.264	37176.26
454.47	38331.32
454.676	37538.76
454.882	38519.73
455.088	35179.5
455.294	36010.97
455.5	36101.08
455.705	36563.92
455.911	34624.5
456.117	34730.99
456.323	33848.32
456.529	31945.75
456.735	33360.9
456.941	32537.62
457.147	32291.86
457.352	31046.69
457.558	30618.67
457.764	30739.5
457.97	30399.54
458.176	29684.8
458.381	29377.6
458.587	28114
458.793	28036.18
458.999	26696.81
459.204	28595.28
459.41	27642.97
459.616	25715.83
459.821	25912.44
460.027	25922.68
460.233	25371.77
460.438	23952.53
460.644	24530.06
460.85	22981.79
461.055	22899.87
461.261	22719.65
461.466	21101.76
461.672	20561.09
461.878	22092.97
462.083	20761.8
462.289	20241.61
462.494	20020.43
462.7	19123.42
462.905	18767.07
463.111	19254.49
463.316	19369.18
463.522	18873.57
463.727	19057.89
463.932	18959.58
464.138	18576.61
464.343	18902.24
464.549	18117.87
464.754	18683.11
464.959	18734.31
465.165	18685.15
465.37	17947.89
465.575	17181.95
465.781	17925.36
465.986	18433.25
466.191	17573.11
466.397	17016.06
466.602	16270.6
466.807	16911.61
467.012	17001.72
467.218	16923.9
467.423	16643.33
467.628	17071.36
467.833	17526
468.038	16743.68
468.244	16309.51
468.449	16841.98
468.654	16422.15
468.859	16504.07
469.064	16186.63
469.269	15291.67
469.474	15504.66
469.679	16239.88
469.885	15500.56
470.09	15852.81
470.295	16004.36
470.5	15613.2
470.705	15365.4
470.91	14986.52
471.115	15027.48
471.32	15217.94
471.525	15105.31
471.73	14562.59
471.935	14652.7
472.139	14165.29
472.344	14421.28
472.549	14265.64
472.754	13993.26
472.959	13526.32
473.164	13487.41
473.369	13100.34
473.574	13810.99
473.778	13600.05
473.983	13518.13
474.188	13327.67
474.393	12875.07
474.598	12985.66
474.802	12657.98
475.007	12739.9
475.212	12784.96
475.417	12143.94
475.621	12119.37
475.826	12320.07
476.031	11957.58
476.235	11978.06
476.44	11947.34
476.645	11750.73
476.849	11869.51
477.054	11464.02
477.259	11502.93
477.463	11429.2
477.668	11154.77
477.872	11314.52
478.077	10919.26
478.282	10863.96
478.486	10734.94
478.691	10767.71
478.895	10775.9
479.1	10472.8
479.304	10603.87
479.509	10313.06
479.713	10628.45
479.918	10399.07
480.122	10104.17
480.326	10272.1
480.531	10296.67
480.735	10247.52
480.94	10073.45
481.144	10407.27
481.348	10079.59
481.553	10061.16
481.757	9667.95
481.961	10014.06
482.166	9899.37
482.37	10163.56
482.574	9831.79
482.778	9991.53
482.983	9930.09
483.187	9905.51
483.391	9964.9
483.595	9745.77
483.8	9741.68
484.004	9788.78
484.208	9940.33
484.412	9866.6
484.616	9751.92
484.821	10032.49
485.025	9735.53
485.229	10014.06
485.433	9874.79
485.637	9848.17
485.841	10028.39
486.045	9856.36
486.249	9805.16
486.453	9885.03
486.657	9882.99
486.861	9993.58
487.065	9706.86
487.269	9893.23
487.473	9772.39
487.677	9909.61
487.881	9809.26
488.085	9792.87
488.289	9911.66
488.493	9799.02
488.697	9946.47
488.901	9799.02
489.105	9735.53
489.309	9844.07
489.512	9817.45
489.716	10089.83
489.92	10048.87
490.124	10091.88
490.328	10261.86
490.531	10089.83
490.735	10241.38
490.939	10216.8
491.143	9952.62
491.346	10034.53
491.55	10132.84
491.754	10218.85
491.958	10321.25
492.161	10415.46
492.365	10435.94
492.569	10331.49
492.772	10274.15
492.976	10542.43
493.18	10585.44
493.383	10567.01
493.587	10632.54
493.79	10775.9
493.994	10468.7
494.197	10818.91
494.401	10714.46
494.605	10808.67
494.808	11066.71
495.012	11050.33
495.215	11240.79
495.419	11228.5
495.622	11251.03
495.825	11406.67
496.029	11357.52
496.232	11652.43
496.436	11478.35
496.639	11861.32
496.843	11892.04
497.046	12059.98
497.249	12203.33
497.453	12055.88
497.656	12371.27
497.859	12264.77
498.063	12561.73
498.266	12854.59
498.469	12928.31
498.673	12870.97
498.876	13073.72
499.079	13258.04
499.282	13399.35
499.485	13479.22
499.689	13839.66
499.892	13808.94
500.095	13815.09
500.298	14236.97
500.501	14075.18
500.705	14351.65
500.908	14755.1
501.111	14888.22
501.314	14865.69
501.517	15058.2
501.72	15219.99
501.923	15093.02
502.126	15627.54
502.329	15717.65
502.532	15801.61
502.735	15615.25
502.938	16440.58
503.141	16217.35
503.344	16680.19
503.547	16563.46
503.75	16753.92
503.953	16852.22
504.156	17095.93
504.359	17188.09
504.562	17272.06
504.765	17986.8
504.968	17765.62
505.17	18029.8
505.373	18355.43
505.576	18574.56
505.779	18513.13
505.982	18787.55
506.185	19369.18
506.387	19203.29
506.59	19324.12
506.793	19811.54
506.996	19778.77
507.198	20106.45
507.401	20233.42
507.604	20532.42
507.807	20946.11
508.009	20726.98
508.212	20944.06
508.415	21220.54
508.617	21568.69
508.82	21945.52
509.022	21697.72
509.225	22258.86
509.428	22385.83
509.63	22387.88
509.833	22396.07
510.035	23313.56
510.238	23149.73
510.44	23411.87
510.643	23780.5
510.845	23938.19
511.048	23717.01
511.25	24261.77
511.453	24280.21
511.655	25502.84
511.858	24982.66
512.06	25085.06
512.262	25439.36
512.465	25414.78
512.667	25769.08
512.87	26221.68
513.072	26258.54
513.274	26905.7
513.477	26883.17
513.679	27008.1
513.881	27331.68
514.084	27683.93
514.286	27434.08
514.488	27884.63
514.69	28447.82
514.893	28644.43
515.095	28828.74
515.297	28963.91
515.499	29326.4
515.701	29617.21
515.904	29916.22
516.106	29910.07
516.308	30252.08
516.51	30608.43
516.712	30706.73
516.914	30995.5
517.116	31589.41
517.318	31761.44
517.52	31747.1
517.722	31949.85
517.925	32535.57
518.127	32427.03
518.329	33272.84
518.531	33033.22
518.733	33446.91
518.935	33770.49
519.136	33645.57
519.338	34374.64
519.54	34044.92
519.742	34855.92
519.944	35027.95
520.146	35267.56
520.348	35673.06
520.55	35421.16
520.752	35673.06
520.954	36355.03
521.155	36578.26
521.357	36633.55
521.559	36844.49
521.761	37612.48
521.963	37372.87
522.164	37716.93
522.366	37737.41
522.568	38255.54
522.77	38601.65
522.971	39111.6
523.173	38683.57
523.375	38953.9
523.576	39254.95
523.778	39066.54
523.98	40086.43
524.181	39996.32
524.383	39740.32
524.584	40450.97
524.786	40539.03
524.988	40680.34
525.189	41057.17
525.391	41458.57
525.592	41655.17
525.794	41436.04
525.995	41442.18
526.197	41974.66
526.398	42042.24
526.6	42115.97
526.801	42517.37
527.003	42412.92
527.204	42224.51
527.406	43105.13
527.607	43015.02
527.808	43223.92
528.01	42476.41
528.211	43254.64
528.412	43549.54
528.614	43514.73
528.815	43789.16
529.016	43973.47
529.218	44020.58
529.419	43998.05
529.62	44243.8
529.822	43758.44
530.023	44686.17
530.224	44415.83
530.425	44266.33
530.626	44239.71
530.828	43899.75
531.029	45028.18
531.23	44417.88
531.431	44464.99
531.632	44401.5
531.833	45284.17
532.035	44737.37
532.236	44821.33
532.437	44997.46
532.638	44712.79
532.839	44882.77
533.04	45095.76
533.241	44821.33
533.442	45867.84
533.643	44940.11
533.844	45460.3
534.045	45306.7
534.246	44680.02
534.447	45574.98
534.648	45103.95
534.849	45290.32
535.05	44772.18
535.251	45226.83
535.451	45095.76
535.652	45669.19
535.853	45247.31
536.054	45669.19
536.255	45497.16
536.456	45284.17
536.657	45843.27
536.857	45650.76
537.058	45202.25
537.259	45894.47
537.46	45658.95
537.66	45413.2
537.861	45343.56
538.062	45198.16
538.263	45777.73
538.463	45130.58
538.664	45484.87
538.865	45491.02
539.065	45892.42
539.266	45149.01
539.466	45792.07
539.667	45017.94
539.868	45634.38
540.068	45450.06
540.269	45124.43
540.469	45701.96
540.67	45286.22
540.87	45431.63
541.071	45460.3
541.271	45570.89
541.472	45497.16
541.672	45044.56
541.873	45245.26
542.073	44383.07
542.274	45738.82
542.474	45607.75
542.675	45282.13
542.875	45353.8
543.075	44968.79
543.276	44864.34
543.476	45415.24
543.676	44985.17
543.877	45302.6
544.077	45222.73
544.277	45341.52
544.478	45237.07
544.678	45531.98
544.878	45439.82
545.078	45175.63
545.279	44915.54
545.479	45200.21
545.679	45169.49
545.879	45378.38
546.079	45050.7
546.28	44823.38
546.48	44981.07
546.68	45280.08
546.88	45122.38
547.08	44850
547.28	44929.87
547.48	44612.44
547.68	44653.4
547.88	44659.54
548.081	45259.6
548.281	44911.44
548.481	44381.02
548.681	44972.88
548.881	44997.46
549.081	45169.49
549.28	44434.27
549.48	44923.73
549.68	44956.5
549.88	45366.09
550.08	44729.17
550.28	45062.99
550.48	44489.56
550.68	45247.31
550.88	44895.06
551.08	45284.17
551.279	44649.3
551.479	44516.18
551.679	44720.98
551.879	44507.99
552.079	44872.53
552.278	44655.45
552.478	44759.89
552.678	44600.15
552.878	45071.18
553.077	45118.29
553.277	44135.26
553.477	45071.18
553.676	44391.26
553.876	44458.84
554.076	44245.85
554.275	44389.21
554.475	44098.4
554.674	44338.01
554.874	44827.48
555.074	43582.31
555.273	44350.3
555.473	44243.8
555.672	43676.52
555.872	44153.69
556.071	43977.57
556.271	44307.29
556.47	43774.82
556.67	43397.99
556.869	43303.79
557.068	44196.7
557.268	43877.22
557.467	44100.45
557.667	43688.81
557.866	43717.48
558.065	43428.71
558.265	43395.95
558.464	42955.63
558.663	43643.75
558.863	43094.89
559.062	43924.32
559.261	42910.58
559.461	43604.84
559.66	42926.96
559.859	43248.49
560.058	42431.35
560.258	43131.76
560.457	42414.97
560.656	43232.11
560.855	42636.15
561.054	42972.02
561.253	42144.64
561.453	42744.69
561.652	42611.57
561.851	42662.77
562.05	42161.02
562.249	42210.17
562.448	42617.72
562.647	42349.43
562.846	41898.88
563.045	42001.28
563.244	41786.24
563.443	41960.32
563.642	41520.01
563.841	41855.87
564.04	41364.36
564.239	41687.94
564.438	41163.66
564.637	41743.24
564.836	41663.36
565.035	41089.93
565.234	41071.5
565.432	40852.37
565.631	40717.2
565.83	40786.83
566.029	40858.51
566.228	41042.83
566.427	40465.3
566.625	40567.7
566.824	40276.89
567.023	40588.18
567.222	39799.71
567.42	40666
567.619	40051.61
567.818	40272.79
568.016	40094.62
568.215	40526.74
568.414	39570.34
568.612	40262.55
568.811	39480.23
569.01	39949.21
569.208	39394.21
569.407	39545.76
569.605	39314.34
569.804	39754.66
570.002	39297.96
570.201	39091.12
570.4	38788.02
570.598	38812.59
570.797	38683.57
570.995	39001
571.193	38228.92
571.392	39025.58
571.59	38384.57
571.789	38515.64
571.987	38384.57
572.186	38185.91
572.384	37776.32
572.582	38001.6
572.781	38341.56
572.979	37649.35
573.177	37807.04
573.376	37602.24
573.574	37026.76
573.772	37657.54
573.971	37182.41
574.169	37485.51
574.367	37002.19
574.565	37641.15
574.763	37092.3
574.962	36953.04
575.16	36514.77
575.358	36723.66
575.556	36193.24
575.754	37067.72
575.952	36557.78
576.151	36826.06
576.349	35933.15
576.547	36146.14
576.745	36457.43
576.943	35953.63
577.141	35595.23
577.339	35855.32
577.537	35781.6
577.735	35689.44
577.933	35355.62
578.131	35795.93
578.329	35431.4
578.527	35140.58
578.725	35150.82
578.923	35136.49
579.121	34982.89
579.319	35273.7
579.516	34841.58
579.714	34853.87
579.912	34810.86
580.11	34466.8
580.308	34696.17
580.506	34583.54
580.704	34098.17
580.901	34427.89
581.099	34032.63
581.297	34239.48
581.495	34210.81
581.692	34169.85
581.89	33813.5
582.088	33944.57
582.285	33664
582.483	33664
582.681	33922.04
582.878	33387.52
583.076	33358.85
583.274	33532.93
583.471	32867.34
583.669	33207.3
583.866	32824.33
584.064	33248.26
584.262	32617.49
584.459	32633.87
584.657	32582.67
584.854	32779.28
585.052	32064.53
585.249	32621.58
585.447	32396.31
585.644	32185.36
585.841	32025.62
586.039	32359.44
586.236	31566.88
586.434	31677.47
586.631	31925.27
586.828	31968.28
587.026	31636.51
587.223	31276.07
587.42	31382.56
587.618	31345.7
587.815	30929.96
588.012	30942.25
588.21	31181.86
588.407	30919.72
588.604	31003.69
588.801	30530.61
588.999	30780.46
589.196	30833.71
589.393	30700.59
589.59	30501.93
589.787	30389.3
589.984	30581.81
590.182	29811.77
590.379	30352.43
590.576	29957.17
590.773	29928.5
590.97	29625.4
591.167	29697.08
591.364	29506.62
591.561	29604.92
591.758	29264.96
591.955	29627.45
592.152	29357.12
592.349	29078.6
592.546	29539.39
592.743	29209.67
592.94	28417.1
593.137	28886.09
593.334	28802.12
593.531	28626
593.727	28935.24
593.924	28568.65
594.121	28236.88
594.318	28916.81
594.515	28157.01
594.712	28646.47
594.908	28302.42
595.105	28339.28
595.302	27782.23
595.499	28283.98
595.696	27653.21
595.892	27602.01
596.089	27628.63
596.286	27688.03
596.482	27706.46
596.679	27698.27
596.876	27599.96
597.072	27292.77
597.269	27276.38
597.466	26971.24
597.662	27151.46
597.859	27167.84
598.055	26950.76
598.252	26797.16
598.448	26328.17
598.645	26838.12
598.841	26383.47
599.038	26360.94
599.234	26625.13
599.431	26025.07
599.627	25963.64
599.824	26430.57
600.02	25865.33
600.217	26369.13
600.413	26039.41
600.609	25834.61
600.806	25814.13
601.002	25775.22
601.198	25408.64
601.395	25685.11
601.591	25156.74
601.787	25574.52
601.984	25169.02
602.18	25580.67
602.376	25054.34
602.572	25091.2
602.769	25113.73
602.965	24843.4
603.161	25044.1
603.357	24931.46
603.553	24542.35
603.75	24804.49
603.946	24415.37
604.142	24818.82
604.338	24083.6
604.534	24663.18
604.73	24007.83
604.926	24003.73
605.122	24478.86
605.318	23901.33
605.514	24126.61
605.71	23899.28
605.906	23727.25
606.102	23841.94
606.298	23843.99
606.494	23817.36
606.69	23846.04
606.886	24067.22
607.082	23282.84
607.278	23760.02
607.474	23174.3
607.67	23571.61
607.866	23284.89
608.062	23477.4
608.257	23522.46
608.453	23022.75
608.649	23141.53
608.845	22822.05
609.041	22957.22
609.236	23067.81
609.432	23057.57
609.628	22854.82
609.824	22729.89
610.019	22658.21
610.215	22666.41
610.411	22688.93
610.606	22394.03
610.802	22670.5
610.998	22457.51
611.193	22713.51
611.389	22140.08
611.584	22690.98
611.78	22265
611.976	22357.16
612.171	22377.64
612.367	22109.36
612.562	21970.1
612.758	22002.86
612.953	21632.18
613.149	21806.26
613.344	21671.09
613.539	22265
613.735	22025.39
613.93	21800.12
614.126	21703.86
614.321	21898.42
614.517	21812.4
614.712	21544.12
614.907	21427.39
615.103	21783.73
615.298	21552.31
615.493	21658.81
615.688	21134.53
615.884	21652.66
616.079	20880.58
616.274	21204.16
616.47	21144.77
616.665	21400.76
616.86	21394.62
617.055	20784.32
617.25	21099.71
617.445	21120.19
617.641	20681.92
617.836	21013.7
618.031	20880.58
618.226	20718.79
618.421	20788.42
618.616	20901.06
618.811	20288.71
619.006	20702.4
619.201	20219.08
619.396	20526.28
619.591	19946.7
619.786	20372.68
619.981	19791.06
620.176	19999.95
620.371	19823.83
620.566	19733.71
620.761	19729.62
620.956	19895.5
621.151	19463.38
621.346	19907.79
621.541	19174.62
621.735	19346.65
621.93	19070.17
622.125	19246.3
622.32	18928.86
622.515	18978.01
622.709	18978.01
622.904	18894.05
623.099	18580.71
623.294	18957.53
623.488	18762.98
623.683	18523.37
623.878	18345.19
624.072	18193.64
624.267	18380.01
624.462	18115.82
624.656	17908.97
624.851	18019.57
625.046	17437.94
625.24	17761.52
625.435	17573.11
625.629	17575.16
625.824	17204.47
626.018	17216.76
626.213	17050.88
626.407	16995.58
626.602	16590.08
626.796	17091.84
626.991	16997.63
627.185	16891.13
627.38	16479.49
627.574	16690.43
627.768	16573.7
627.963	16145.67
628.157	16424.2
628.352	16266.5
628.546	15981.84
628.74	16174.35
628.935	15955.21
629.129	16092.43
629.323	15883.53
629.517	15990.03
629.712	15547.67
629.906	15420.69
630.1	15422.74
630.294	15545.62
630.489	15136.03
630.683	15150.36
630.877	15039.77
631.071	14943.52
631.265	15117.59
631.459	14933.28
631.653	14718.24
631.848	14521.63
632.042	14841.12
632.236	14789.92
632.43	14456.1
632.624	14599.46
632.818	14564.64
633.012	14153
633.206	14187.82
633.4	14247.21
633.594	13974.83
633.788	13985.07
633.982	14023.98
634.176	13878.57
634.369	13819.18
634.563	13620.53
634.757	13620.53
634.951	13722.93
635.145	13511.99
635.339	13507.89
635.533	13309.24
635.726	13528.37
635.92	13305.14
636.114	13243.7
636.308	13131.06
636.501	13014.33
636.695	12887.36
636.889	13092.15
637.083	12717.37
637.276	12815.68
637.47	12774.72
637.664	12438.85
637.857	12678.46
638.051	12461.38
638.244	12406.08
638.438	12358.98
638.632	12283.2
638.825	12207.43
639.019	12172.61
639.212	12096.84
639.406	11990.35
639.599	12113.22
639.793	11996.49
639.986	11754.83
640.18	11521.36
640.373	11781.45
640.567	11613.52
640.76	11660.62
640.954	11375.95
641.147	11410.77
641.34	11521.36
641.534	11318.61
641.727	11203.93
641.92	11152.73
642.114	11165.01
642.307	11169.11
642.5	11099.48
642.694	10995.03
642.887	10941.79
643.08	11013.46
643.273	10823
643.467	10810.72
643.66	10741.08
643.853	10710.36
644.046	10446.18
644.239	10587.49
644.432	10384.74
644.626	10280.29
644.819	10442.08
645.012	10589.53
645.205	10247.52
645.398	10304.87
645.591	10245.48
645.784	10235.24
645.977	10134.89
646.17	9960.81
646.363	9680.24
646.556	9735.53
646.749	9969
646.942	9846.12
647.135	9657.71
647.328	9569.65
647.521	9665.9
647.714	9497.97
647.907	9680.24
648.099	9489.78
648.292	9545.07
648.485	9428.34
648.678	9360.75
648.871	9264.5
649.064	9164.15
649.256	9160.05
649.449	9145.72
649.642	9033.08
649.835	9010.55
650.027	9020.79
650.22	8824.19
650.413	8877.43
650.605	8881.53
650.798	8824.19
650.991	8656.25
651.183	8646.01
651.376	8377.73
651.568	8439.17
651.761	8560
651.954	8244.61
652.146	8349.06
652.339	8418.69
652.531	8600.96
652.724	8283.52
652.916	8260.99
653.109	8342.91
653.301	8197.51
653.494	8150.4
653.686	8254.85
653.879	8299.91
654.071	8078.72
654.263	8033.67
654.456	7910.79
654.648	8158.6
654.84	7749
655.033	7615.88
655.225	7951.75
655.417	7671.18
655.61	7556.49
655.802	7695.75
655.994	7554.44
656.186	7515.53
656.379	7470.48
656.571	7564.68
656.763	7347.6
656.955	7574.92
657.148	7493.01
657.34	7415.18
657.532	7357.84
657.724	7277.97
657.916	7185.81
658.108	7441.81
658.3	7155.09
658.492	7247.25
658.684	7175.57
658.876	7001.49
659.068	7052.69
659.26	6952.34
659.452	7046.55
659.644	6897.05
659.836	6849.94
660.028	6808.98
660.22	6679.96
660.412	6964.63
660.604	6727.07
660.796	6780.31
660.988	6684.06
661.18	6641.05
661.372	6645.15
661.563	6593.95
661.755	6514.08
661.947	6469.02
662.139	6489.5
662.331	6395.29
662.522	6299.04
662.714	6372.77
662.906	6200.74
663.097	6178.21
663.289	6075.81
663.481	6124.96
663.673	6141.35
663.864	6147.49
664.056	6155.68
664.247	6223.27
664.439	5795.24
664.631	5995.94
664.822	5862.82
665.014	6104.48
665.205	6036.9
665.397	5979.56
665.588	5828.01
665.78	5828.01
665.971	5881.25
666.163	5764.52
666.354	5793.19
666.546	5813.67
666.737	5756.33
666.929	5637.55
667.12	5617.07
667.311	5438.89
667.503	5449.13
667.694	5596.59
667.885	5541.29
668.077	5592.49
668.268	5449.13
668.459	5338.54
668.651	5389.74
668.842	5395.89
669.033	5432.75
669.224	5426.61
669.416	5469.61
669.607	5260.72
669.798	5281.2
669.989	5248.43
670.18	5211.57
670.371	5072.31
670.563	5236.14
670.754	5164.47
670.945	5055.92
671.136	5207.47
671.327	5154.23
671.518	5025.2
671.709	5189.04
671.9	4935.09
672.091	4941.24
672.282	5012.92
672.473	4922.8
672.664	4883.89
672.855	4744.63
673.046	4801.97
673.237	4847.03
673.428	4732.34
673.619	4763.06
673.809	4699.58
674	4971.96
674.191	4724.15
674.382	4720.06
674.573	4658.62
674.764	4675
674.954	4584.89
675.145	4562.36
675.336	4625.85
675.527	4550.07
675.717	4455.87
675.908	4527.55
676.099	4582.84
676.289	4525.5
676.48	4502.97
676.671	4378.05
676.861	4500.92
677.052	4462.01
677.243	4416.96
677.433	4402.62
677.624	4556.22
677.814	4457.92
678.005	4416.96
678.195	4337.09
678.386	4447.68
678.576	4339.13
678.767	4345.28
678.957	4234.69
679.148	4244.93
679.338	4324.8
679.529	4208.06
679.719	4148.67
679.909	4208.06
680.1	4216.26
680.29	4208.06
680.481	4216.26
680.671	4228.54
680.861	4128.19
681.052	4025.79
681.242	4089.28
681.432	4058.56
681.622	4115.91
681.813	4021.7
682.003	3968.45
682.193	4122.05
682.383	4058.56
682.573	4005.31
682.764	4009.41
682.954	4044.23
683.144	3966.4
683.334	3950.02
683.524	3976.64
683.714	3984.84
683.904	3808.71
684.094	3872.2
684.284	3960.26
684.474	3864.01
684.664	3872.2
684.854	3937.73
685.044	3872.2
685.234	3673.54
685.424	3704.26
685.614	3802.57
685.804	3821
685.994	3755.46
686.184	3747.27
686.374	3726.79
686.564	3687.88
686.753	3720.65
686.943	3573.19
687.133	3671.5
687.323	3628.49
687.513	3593.67
687.702	3579.34
687.892	3544.52
688.082	3552.71
688.272	3530.19
688.461	3478.99
688.651	3515.85
688.841	3407.31
689.03	3507.66
689.22	3390.92
689.41	3474.89
689.599	3413.45
689.789	3401.16
689.979	3352.01
690.168	3534.28
690.358	3392.97
690.547	3460.56
690.737	3515.85
690.926	3530.19
691.116	3206.61
691.305	3415.5
691.495	3302.86
691.684	3229.13
691.874	3200.46
692.063	3272.14
692.252	3272.14
692.442	3173.84
692.631	3194.32
692.82	3225.04
693.01	3188.18
693.199	3276.24
693.388	3259.85
693.578	3175.89
693.767	3208.66
693.956	3198.42
694.146	3151.31
694.335	3179.98
694.524	3102.16
694.713	3194.32
694.902	3081.68
695.092	3091.92
695.281	3005.91
695.47	3057.11
695.659	3034.58
695.848	3093.97
696.037	3044.82
696.226	3087.82
696.415	2928.08
696.604	2950.61
696.793	2975.19
696.982	2950.61
697.171	2979.28
697.36	3003.86
697.549	3085.78
697.738	3001.81
697.927	2995.67
698.116	2975.19
698.305	2979.28
698.494	2938.32
698.683	2848.21
698.872	2919.89
699.061	2954.71
699.25	3001.81
699.438	2938.32
699.627	3040.72
699.816	2860.5
700.005	2848.21
700.193	2870.74
700.382	2870.74
700.571	3007.95
700.76	2799.06
700.948	2883.03
701.137	2969.04
701.326	2819.54
701.514	2897.36
701.703	2887.12
701.892	2811.35
702.08	2858.45
702.269	2842.07
702.457	2741.72
702.646	2954.71
702.834	2792.92
703.023	2825.68
703.212	2880.98
703.4	2788.82
703.589	2797.01
703.777	2921.94
703.965	2856.4
704.154	2835.92
704.342	2784.73
704.531	2837.97
704.719	2809.3
704.907	2950.61
705.096	2829.78
705.284	2876.88
705.472	2833.88
705.661	2774.49
705.849	2739.67
706.037	2776.53
706.226	2850.26
706.414	2846.16
706.602	2772.44
706.79	2651.61
706.979	2733.53
707.167	2631.13
707.355	2678.23
707.543	2741.72
707.731	2737.62
707.919	2776.53
708.107	2708.95
708.296	2772.44
708.484	2678.23
708.672	2594.26
708.86	2778.58
709.048	2829.78
709.236	2692.57
709.424	2682.33
709.612	2807.25
709.8	2797.01
709.988	2852.31
710.176	2807.25
710.364	2610.65
710.551	2680.28
710.739	2663.9
710.927	2528.73
711.115	2745.81
711.303	2639.32
711.491	2700.76
711.679	2594.26
711.866	2702.81
712.054	2762.2
712.242	2596.31
712.43	2747.86
712.617	2651.61
712.805	2637.27
712.993	2706.9
713.181	2622.94
713.368	2711
713.556	2590.17
713.744	2471.39
713.931	2766.29
714.119	2702.81
714.306	2635.22
714.494	2565.59
714.682	2670.04
714.869	2547.16
715.057	2600.41
715.244	2573.78
715.432	2553.31
715.619	2643.42
715.807	2659.8
715.994	2565.59
716.182	2416.09
716.369	2598.36
716.556	2622.94
716.744	2512.35
716.931	2639.32
717.119	2545.11
717.306	2442.71
717.493	2567.64
717.681	2508.25
717.868	2514.39
718.055	2493.91
718.242	2633.18
718.43	2641.37
718.617	2573.78
718.804	2469.34
718.991	2463.19
719.179	2543.07
719.366	2477.53
719.553	2649.56
719.74	2455
719.927	2553.31
720.114	2524.63
720.301	2459.1
720.488	2491.87
720.676	2463.19
720.863	2594.26
721.05	2520.54
721.237	2541.02
721.424	2500.06
721.611	2477.53
721.798	2463.19
721.985	2534.87
722.172	2500.06
722.358	2442.71
722.545	2500.06
722.732	2391.52
722.919	2471.39
723.106	2444.76
723.293	2530.78
723.48	2409.95
723.667	2530.78
723.853	2436.57
724.04	2461.15
724.227	2518.49
724.414	2379.23
724.6	2489.82
724.787	2391.52
724.974	2330.08
725.161	2491.87
725.347	2311.64
725.534	2477.53
725.72	2348.51
725.907	2315.74
726.094	2323.93
726.28	2313.69
726.467	2371.04
726.653	2381.28
726.84	2414.04
727.027	2508.25
727.213	2399.71
727.4	2325.98
727.586	2332.12
727.773	2389.47
727.959	2373.08
728.145	2409.95
728.332	2285.02
728.518	2348.51
728.705	2407.9
728.891	2412
729.077	2405.85
729.264	2373.08
729.45	2303.45
729.636	2428.38
729.823	2342.36
730.009	2342.36
730.195	2364.89
730.382	2309.6
730.568	2373.08
730.754	2239.97
730.94	2387.42
731.126	2285.02
731.313	2356.7
731.499	2325.98
731.685	2375.13
731.871	2209.25
732.057	2397.66
732.243	2254.3
732.429	2348.51
732.615	2313.69
732.801	2358.75
732.987	2301.4
733.173	2305.5
733.359	2291.17
733.545	2201.05
733.731	2307.55
733.917	2272.73
734.103	2248.16
734.289	2293.21
734.475	2217.44
734.661	2311.64
734.847	2242.01
735.033	2135.52
735.219	2272.73
735.404	2188.77
735.59	2323.93
735.776	2190.81
735.962	2278.88
736.148	2180.57
736.333	2254.3
736.519	2319.84
736.705	2274.78
736.89	2201.05
737.076	2268.64
737.262	2229.73
737.447	2137.57
737.633	2108.9
737.819	2203.1
738.004	2156
738.19	2176.48
738.375	2184.67
738.561	2178.53
738.747	2074.08
738.932	2108.9
739.118	2192.86
739.303	2176.48
739.489	2147.81
739.674	2225.63
739.859	1975.78
740.045	2182.62
740.23	2090.46
740.416	2057.7
740.601	2125.28
740.786	1986.02
740.972	1926.63
741.157	2082.27
741.342	2006.5
741.528	1988.07
741.713	2205.15
741.898	2039.26
742.084	1895.91
742.269	2033.12
742.454	2035.17
742.639	2072.03
742.824	2072.03
743.01	1900
743.195	2069.98
743.38	2004.45
743.565	1983.97
743.75	1965.54
743.935	1973.73
744.12	1936.87
744.305	1881.57
744.49	1881.57
744.675	1893.86
744.86	1869.28
745.045	1918.43
745.23	1916.39
745.415	1764.84
745.6	1822.18
745.785	1877.48
745.97	1816.04
746.155	1893.86
746.34	1852.9
746.525	1840.61
746.71	1938.91
746.895	1832.42
747.079	1803.75
747.264	1791.46
747.449	1732.07
747.634	1809.89
747.819	1766.89
748.003	1836.52
748.188	1832.42
748.373	1697.25
748.557	1670.63
748.742	1684.97
748.927	1701.35
749.111	1650.15
749.296	1652.2
749.481	1641.96
749.665	1691.11
749.85	1680.87
750.034	1644.01
750.219	1566.18
750.404	1596.9
750.588	1701.35
750.773	1658.34
750.957	1703.4
751.141	1627.62
751.326	1525.22
751.51	1494.51
751.695	1658.34
751.879	1535.46
752.064	1650.15
752.248	1543.66
752.432	1504.75
752.617	1541.61
752.801	1537.51
752.985	1340.91
753.17	1416.68
753.354	1572.33
753.538	1514.98
753.722	1496.55
753.907	1410.54
754.091	1428.97
754.275	1414.63
754.459	1322.48
754.643	1373.68
754.828	1437.16
755.012	1299.95
755.196	1330.67
755.38	1336.81
755.564	1308.14
755.748	1394.15
755.932	1314.28
756.116	1324.52
756.3	1316.33
756.484	1258.99
756.668	1351.15
756.852	1310.19
757.036	1279.47
757.22	1162.73
757.404	1322.48
757.588	1353.2
757.772	1265.13
757.956	1322.48
758.14	1230.32
758.323	1320.43
758.507	1248.75
758.691	1197.55
758.875	1252.84
759.059	1209.84
759.242	1144.3
759.426	1150.45
759.61	1162.73
759.794	1074.67
759.977	1154.54
760.161	1103.34
760.345	1127.92
760.528	1070.58
760.712	1078.77
760.895	1078.77
761.079	1191.41
761.263	1093.1
761.446	1123.82
761.63	1089.01
761.813	990.7
761.997	1162.73
762.18	1105.39
762.364	1076.72
762.547	1054.19
762.731	1125.87
762.914	1009.14
763.098	1091.06
763.281	1027.57
763.464	1078.77
763.648	974.32
763.831	1023.47
764.015	923.12
764.198	1037.81
764.381	1050.1
764.564	972.27
764.748	1017.33
764.931	1011.18
765.114	970.23
765.297	1033.71
765.481	927.22
765.664	931.31
765.847	984.56
766.03	1050.1
766.213	978.42
766.397	1000.94
766.58	937.46
766.763	968.18
766.946	941.55
767.129	935.41
767.312	923.12
767.495	1080.82
767.678	900.59
767.861	982.51
768.044	937.46
768.227	925.17
768.41	945.65
768.593	919.03
768.776	865.78
768.959	941.55
769.142	1011.18
769.324	970.23
769.507	869.87
769.69	988.66
769.873	931.31
770.056	933.36
770.239	919.03
770.421	949.75
770.604	998.9
770.787	882.16
770.97	888.31
771.152	806.39
771.335	939.51
771.518	851.44
771.7	923.12
771.883	878.07
772.066	880.11
772.248	800.24
772.431	890.35
772.613	869.87
772.796	826.87
772.978	804.34
773.161	859.63
773.343	869.87
773.526	814.58
773.708	812.53
773.891	796.15
774.073	910.83
774.256	800.24
774.438	851.44
774.621	804.34
774.803	871.92
774.985	814.58
775.168	824.82
775.35	708.09
775.532	681.46
775.715	749.04
775.897	830.96
776.079	718.33
776.261	685.56
776.444	790
776.626	763.38
776.808	689.65
776.99	683.51
777.173	683.51
777.355	617.97
777.537	593.4
777.719	736.76
777.901	728.56
778.083	658.93
778.265	665.08
778.447	681.46
778.629	609.78
778.811	634.36
778.993	734.71
779.175	710.13
779.357	644.6
779.539	566.78
779.721	722.42
779.903	695.8
780.085	620.02
780.267	689.65
780.449	708.09
780.631	607.73
780.812	656.89
780.994	673.27
781.176	638.45
781.358	579.06
781.54	603.64
781.721	564.73
781.903	622.07
782.085	554.49
782.267	587.26
782.448	603.64
782.63	601.59
782.812	525.82
782.993	587.26
783.175	585.21
783.357	536.06
783.538	511.48
783.72	466.42
783.901	548.34
784.083	493.05
784.264	454.14
784.446	548.34
784.627	466.42
784.809	507.38
784.99	491
785.172	509.43
785.353	482.81
785.535	495.1
785.716	581.11
785.897	517.62
786.079	472.57
786.26	517.62
786.441	509.43
786.623	450.04
786.804	447.99
786.985	450.04
787.167	429.56
787.348	398.84
787.529	433.66
787.71	456.19
787.891	484.86
788.073	478.71
788.254	396.79
788.435	419.32
788.616	419.32
788.797	413.18
788.978	429.56
789.159	427.51
789.34	452.09
789.522	435.71
789.703	452.09
789.884	491
790.065	366.07
790.246	486.9
790.427	441.85
790.607	364.03
790.788	394.75
790.969	484.86
791.15	333.31
791.331	353.79
791.512	323.07
791.693	361.98
791.874	384.51
792.054	359.93
792.235	398.84
792.416	409.08
792.597	404.99
792.778	325.12
792.958	458.23
793.139	357.88
793.32	312.83
793.5	404.99
793.681	302.59
793.862	329.21
794.042	355.83
794.223	370.17
794.404	382.46
794.584	259.58
794.765	372.22
794.945	345.59
795.126	325.12
795.306	335.35
795.487	343.55
795.667	253.44
795.848	314.88
796.028	331.26
796.209	323.07
796.389	396.79
796.57	421.37
796.75	353.79
796.93	361.98
797.111	368.12
797.291	278.01
797.471	275.96
797.652	361.98
797.832	282.11
798.012	269.82
798.192	335.35
798.373	243.2
798.553	306.68
798.733	396.79
798.913	273.92
799.093	347.64
799.274	280.06
799.454	386.55
799.634	300.54
799.814	235
799.994	364.03
800.174	224.76
800.354	329.21
800.534	255.48
800.714	304.64
800.894	280.06
801.074	243.2
801.254	364.03
801.434	306.68
801.614	284.16
801.794	216.57
801.974	605.69
802.154	243.2
802.334	243.2
802.514	271.87
802.693	257.53
802.873	327.16
803.053	253.44
803.233	224.76
803.413	245.24
803.592	202.24
803.772	204.28
803.952	245.24
804.131	261.63
804.311	280.06
804.491	271.87
804.67	192
804.85	294.4
805.03	230.91
805.209	255.48
805.389	294.4
805.568	202.24
805.748	173.57
805.928	220.67
806.107	206.33
806.287	278.01
806.466	290.3
806.646	224.76
806.825	196.09
807.004	157.18
807.184	282.11
807.363	151.04
807.543	159.23
807.722	245.24
807.901	226.81
808.081	196.09
808.26	173.57
808.439	208.38
808.619	275.96
808.798	165.37
808.977	220.67
809.156	255.48
809.336	153.09
809.515	198.14
809.694	204.28
809.873	185.85
810.052	226.81
810.231	189.95
810.411	173.57
810.59	245.24
810.769	208.38
810.948	239.1
811.127	183.81
811.306	187.9
811.485	163.33
811.664	235
811.843	204.28
812.022	202.24
812.201	163.33
812.38	161.28
812.559	208.38
812.737	187.9
812.916	167.42
813.095	189.95
813.274	142.85
813.453	202.24
813.632	142.85
813.811	151.04
813.989	196.09
814.168	222.72
814.347	202.24
814.526	93.69
814.704	159.23
814.883	165.37
815.062	126.46
815.24	185.85
815.419	196.09
815.598	200.19
815.776	155.13
815.955	189.95
816.133	144.89
816.312	181.76
816.49	126.46
816.669	81.41
816.847	157.18
817.026	175.61
817.204	202.24
817.383	185.85
817.561	87.55
817.74	120.32
817.918	163.33
818.097	181.76
818.275	146.94
818.453	169.47
818.632	181.76
818.81	108.03
818.988	126.46
819.167	132.61
819.345	151.04
819.523	173.57
819.701	124.41
819.879	138.75
820.058	91.65
820.236	146.94
820.414	97.79
820.592	138.75
820.77	112.13
820.948	142.85
821.127	77.31
821.305	128.51
821.483	136.7
821.661	169.47
821.839	73.21
822.017	112.13
822.195	110.08
822.373	148.99
822.551	144.89
822.729	175.61
822.907	120.32
823.085	140.8
823.262	136.7
823.44	161.28
823.618	118.27
823.796	110.08
823.974	81.41
824.152	171.52
824.329	103.93
824.507	148.99
824.685	56.83
824.863	81.41
825.04	148.99
825.218	132.61
825.396	153.09
825.574	120.32
825.751	165.37
825.929	157.18
826.107	95.74
826.284	83.45
826.462	99.84
826.639	89.6
826.817	85.5
826.994	87.55
827.172	144.89
827.349	208.38
827.527	148.99
827.704	89.6
827.882	122.37
828.059	128.51
828.237	91.65
828.414	144.89
828.591	13.82
828.769	83.45
828.946	132.61
829.124	112.13
829.301	138.75
829.478	97.79
829.655	120.32
829.833	134.65
830.01	81.41
830.187	103.93
830.364	175.61
830.542	62.98
830.719	67.07
830.896	103.93
831.073	138.75
831.25	136.7
831.427	62.98
831.604	124.41
831.782	77.31
831.959	169.47
832.136	136.7
832.313	42.5
832.49	75.26
832.667	155.13
832.844	79.36
833.021	58.88
833.198	101.89
833.374	105.98
833.551	138.75
833.728	105.98
833.905	48.64
834.082	62.98
834.259	77.31
834.436	75.26
834.612	122.37
834.789	159.23
834.966	22.02
835.143	83.45
835.319	124.41
835.496	103.93
835.673	95.74
835.85	15.87
836.026	71.17
836.203	157.18
836.38	118.27
836.556	62.98
836.733	83.45
836.909	91.65
837.086	5.63
837.262	-6.66
837.439	71.17
837.616	69.12
837.792	40.45
837.968	69.12
838.145	58.88
838.321	48.64
838.498	48.64
838.674	151.04
838.851	128.51
839.027	60.93
839.203	105.98
839.38	110.08
839.556	3.58
839.732	116.22
839.909	42.5
840.085	105.98
840.261	9.73
840.437	101.89
840.614	73.21
840.79	83.45
840.966	97.79
841.142	85.5
841.318	105.98
841.494	95.74
841.671	91.65
841.847	105.98
842.023	69.12
842.199	46.59
842.375	101.89
842.551	7.68
842.727	69.12
842.903	134.65
843.079	112.13
843.255	89.6
843.431	24.06
843.607	48.64
843.783	81.41
843.959	73.21
844.134	34.3
844.31	103.93
844.486	85.5
844.662	-35.33
844.838	7.68
845.013	93.69
845.189	44.54
845.365	124.41
845.541	38.4
845.716	120.32
845.892	93.69
846.068	46.59
846.244	50.69
846.419	77.31
846.595	99.84
846.77	73.21
846.946	153.09
847.122	54.78
847.297	19.97
847.473	165.37
847.648	54.78
847.824	73.21
847.999	22.02
848.175	7.68
848.35	60.93
848.526	62.98
848.701	48.64
848.876	28.16
849.052	38.4
849.227	22.02
849.403	130.56
849.578	77.31
849.753	50.69
849.929	89.6
850.104	40.45
850.279	110.08
850.454	38.4
850.63	116.22
850.805	108.03
850.98	112.13
851.155	22.02
851.33	75.26
851.505	56.83
851.681	67.07
851.856	32.26
852.031	46.59
852.206	93.69
852.381	69.12
852.556	67.07
852.731	56.83
852.906	22.02
853.081	38.4
853.256	52.74
853.431	56.83
853.606	48.64
853.781	85.5
853.956	-10.75
854.131	95.74
854.305	42.5
854.48	26.11
854.655	17.92
854.83	65.02
855.005	30.21
855.18	34.3
855.354	79.36
855.529	69.12
855.704	42.5
855.879	19.97
856.053	22.02
856.228	50.69
856.403	22.02
856.577	58.88
856.752	42.5
856.926	83.45
857.101	11.78
857.276	32.26
857.45	1.54
857.625	36.35
857.799	60.93
857.974	3.58
858.148	15.87
858.323	46.59
858.497	36.35
858.672	126.46
858.846	5.63
859.02	60.93
859.195	30.21
859.369	15.87
859.543	-10.75
859.718	24.06
859.892	75.26
860.066	5.63
860.241	5.63
860.415	54.78
860.589	89.6
860.763	54.78
860.938	28.16
861.112	52.74
861.286	46.59
861.46	140.8
861.634	54.78
861.808	87.55
861.982	-18.94
862.157	24.06
862.331	34.3
862.505	-6.66
862.679	-37.38
862.853	24.06
863.027	34.3
863.201	130.56
863.375	58.88
863.549	58.88
863.722	17.92
863.896	58.88
864.07	22.02
864.244	103.93
864.418	-2.56
864.592	-39.42
864.766	-23.04
864.939	91.65
865.113	22.02
865.287	71.17
865.461	52.74
865.634	-25.09
865.808	58.88
865.982	91.65
866.156	-45.57
866.329	36.35
866.503	34.3
866.676	7.68
866.85	91.65
867.024	-6.66
867.197	-0.51
867.371	34.3
867.544	62.98
867.718	56.83
867.891	101.89
868.065	-2.56
868.238	48.64
868.412	19.97
868.585	-2.56
868.759	-8.7
868.932	22.02
869.105	-8.7
869.279	32.26
869.452	-23.04
869.625	32.26
869.799	34.3
869.972	-25.09
870.145	-14.85
870.319	34.3
870.492	34.3
870.665	7.68
870.838	46.59
871.011	-20.99
871.185	11.78
871.358	62.98
871.531	58.88
871.704	42.5
871.877	46.59
872.05	30.21
872.223	73.21
872.396	32.26
872.569	32.26
872.742	-31.23
872.915	87.55
873.088	26.11
873.261	-33.28
873.434	19.97
873.607	85.5
873.78	40.45
873.953	36.35
874.126	54.78
874.299	3.58
874.471	26.11
874.644	77.31
874.817	50.69
874.99	65.02
875.163	62.98
875.335	28.16
875.508	9.73
875.681	-4.61
875.853	52.74
876.026	13.82
876.199	-39.42
876.371	46.59
876.544	22.02
876.717	60.93
876.889	-78.33
877.062	34.3
877.234	13.82
877.407	30.21
877.579	52.74
877.752	52.74
877.924	9.73
878.097	50.69
878.269	28.16
878.442	28.16
878.614	-29.18
878.786	11.78
878.959	-31.23
879.131	17.92
879.303	-2.56
879.476	1.54
879.648	54.78
879.82	13.82
879.993	17.92
880.165	36.35
880.337	50.69
880.509	40.45
880.681	26.11
880.854	54.78
881.026	26.11
881.198	7.68
881.37	93.69
881.542	-23.04
881.714	38.4
881.886	77.31
882.058	22.02
882.23	11.78
882.402	24.06
882.574	7.68
882.746	-4.61
882.918	108.03
883.09	58.88
883.262	-2.56
883.434	1.54
883.606	3.58
883.778	34.3
883.95	120.32
884.122	38.4
884.293	54.78
884.465	48.64
884.637	95.74
884.809	28.16
884.98	15.87
885.152	3.58
885.324	-51.71
885.496	93.69
885.667	15.87
885.839	1.54
886.011	60.93
886.182	15.87
886.354	24.06
886.525	-8.7
886.697	9.73
886.869	-8.7
887.04	42.5
887.212	79.36
887.383	17.92
887.555	36.35
887.726	91.65
887.897	22.02
888.069	-2.56
888.24	19.97
888.412	62.98
888.583	-41.47
888.754	85.5
888.926	-49.66
889.097	26.11
889.268	-33.28
889.44	62.98
889.611	83.45
889.782	40.45
889.953	-16.9
890.125	34.3
890.296	-47.62
890.467	9.73
890.638	15.87
890.809	-6.66
890.98	9.73
891.151	1.54
891.323	77.31
891.494	36.35
891.665	19.97
891.836	-23.04
892.007	89.6
892.178	48.64
892.349	91.65
892.52	-6.66
892.691	34.3
892.862	-18.94
893.032	67.07
893.203	58.88
893.374	71.17
893.545	42.5
893.716	75.26
893.887	-29.18
894.057	26.11
894.228	54.78
894.399	-16.9
894.57	38.4
894.74	30.21
894.911	40.45
895.082	91.65
895.253	-45.57
895.423	30.21
895.594	46.59
895.764	42.5
895.935	-61.95
896.106	5.63
896.276	7.68
896.447	60.93
896.617	-10.75
896.788	-12.8
896.958	19.97
897.129	-2.56
897.299	24.06
897.47	-6.66
897.64	1.54
897.81	75.26
897.981	5.63
898.151	28.16
898.322	-14.85
898.492	-2.56
898.662	-8.7
898.832	-45.57
899.003	19.97
899.173	11.78
899.343	95.74
899.513	5.63
