Data from USB4F104151__210__11-10-23-177.txt Node

Date: Wed Mar 12 11:10:23 EDT 2025
User: louis
Spectrometer: USB4F10415
Trigger mode: 4
Integration Time (sec): 2.000000E-2
Scans to average: 1
Electric dark correction enabled: true
Nonlinearity correction enabled: false
Boxcar width: 0
XAxis mode: Wavelengths
Number of Pixels in Spectrum: 3648
>>>>>Begin Spectral Data<<<<<
178.204	-35.67
178.424	-35.67
178.644	-35.67
178.864	-31.57
179.084	-88.92
179.304	-27.48
179.524	48.3
179.744	-2.9
179.964	15.53
180.184	-39.76
180.404	3.24
180.624	-0.85
180.844	-21.33
181.064	7.34
181.283	-50
181.503	-9.05
181.723	76.97
181.943	-74.58
182.163	52.39
182.383	40.11
182.602	-23.38
182.822	3.24
183.042	-2.9
183.262	21.67
183.482	81.07
183.701	-58.2
183.921	122.02
184.141	48.3
184.361	60.59
184.58	38.06
184.8	9.39
185.02	17.58
185.239	68.78
185.459	-43.86
185.679	58.54
185.898	-35.67
186.118	7.34
186.338	76.97
186.557	23.72
186.777	-41.81
186.997	62.63
187.216	56.49
187.436	52.39
187.655	-25.43
187.875	68.78
188.095	50.35
188.314	58.54
188.534	33.96
188.753	-37.72
188.973	-29.52
189.192	60.59
189.412	-17.24
189.631	23.72
189.851	27.82
190.07	31.91
190.29	-33.62
190.509	-0.85
190.729	9.39
190.948	-21.33
191.168	74.92
191.387	91.31
191.607	38.06
191.826	15.53
192.045	5.29
192.265	56.49
192.484	60.59
192.704	1.19
192.923	17.58
193.142	7.34
193.362	56.49
193.581	56.49
193.8	46.25
194.02	97.45
194.239	38.06
194.458	13.48
194.678	5.29
194.897	60.59
195.116	44.2
195.335	-9.05
195.555	54.44
195.774	50.35
195.993	-15.19
196.212	81.07
196.432	23.72
196.651	31.91
196.87	27.82
197.089	85.16
197.308	42.15
197.528	42.15
197.747	1.19
197.966	-21.33
198.185	66.73
198.404	66.73
198.623	7.34
198.842	83.11
199.062	76.97
199.281	58.54
199.5	56.49
199.719	46.25
199.938	-9.05
200.157	56.49
200.376	19.63
200.595	40.11
200.814	15.53
201.033	-52.05
201.252	44.2
201.471	52.39
201.69	46.25
201.909	93.35
202.128	-13.14
202.347	117.93
202.566	-15.19
202.785	-13.14
203.004	5.29
203.223	11.43
203.442	79.02
203.661	68.78
203.879	31.91
204.098	27.82
204.317	13.48
204.536	42.15
204.755	105.64
204.974	5.29
205.193	-27.48
205.411	177.32
205.63	25.77
205.849	17.58
206.068	72.87
206.287	79.02
206.505	-21.33
206.724	-41.81
206.943	60.59
207.162	109.74
207.381	38.06
207.599	62.63
207.818	21.67
208.037	38.06
208.255	42.15
208.474	95.4
208.693	64.68
208.911	60.59
209.13	79.02
209.349	3.24
209.567	54.44
209.786	113.83
210.005	46.25
210.223	27.82
210.442	-9.05
210.661	19.63
210.879	31.91
211.098	66.73
211.316	-33.62
211.535	50.35
211.753	95.4
211.972	-54.1
212.191	27.82
212.409	-13.14
212.628	-19.29
212.846	66.73
213.065	74.92
213.283	56.49
213.502	23.72
213.72	15.53
213.938	46.25
214.157	-4.95
214.375	23.72
214.594	48.3
214.812	15.53
215.031	15.53
215.249	23.72
215.467	-0.85
215.686	27.82
215.904	83.11
216.122	52.39
216.341	72.87
216.559	74.92
216.778	3.24
216.996	46.25
217.214	89.26
217.432	48.3
217.651	19.63
217.869	27.82
218.087	-0.85
218.306	-0.85
218.524	101.55
218.742	15.53
218.96	64.68
219.179	25.77
219.397	-19.29
219.615	38.06
219.833	23.72
220.051	76.97
220.27	70.83
220.488	-39.76
220.706	27.82
220.924	31.91
221.142	58.54
221.36	29.87
221.578	-13.14
221.796	52.39
222.015	13.48
222.233	44.2
222.451	1.19
222.669	46.25
222.887	31.91
223.105	48.3
223.323	-13.14
223.541	-66.39
223.759	48.3
223.977	-29.52
224.195	-9.05
224.413	23.72
224.631	64.68
224.849	-11.09
225.067	70.83
225.285	25.77
225.503	29.87
225.721	-47.96
225.939	-13.14
226.157	72.87
226.375	58.54
226.592	85.16
226.81	36.01
227.028	19.63
227.246	79.02
227.464	40.11
227.682	83.11
227.9	46.25
228.117	64.68
228.335	79.02
228.553	29.87
228.771	19.63
228.989	38.06
229.206	3.24
229.424	13.48
229.642	23.72
229.86	62.63
230.077	74.92
230.295	52.39
230.513	117.93
230.731	72.87
230.948	87.21
231.166	62.63
231.384	-17.24
231.601	62.63
231.819	87.21
232.037	-13.14
232.254	5.29
232.472	40.11
232.689	-4.95
232.907	62.63
233.125	9.39
233.342	29.87
233.56	48.3
233.777	25.77
233.995	48.3
234.213	91.31
234.43	17.58
234.648	13.48
234.865	11.43
235.083	62.63
235.3	29.87
235.518	50.35
235.735	66.73
235.953	79.02
236.17	5.29
236.388	1.19
236.605	50.35
236.822	99.5
237.04	-25.43
237.257	-2.9
237.475	3.24
237.692	-43.86
237.909	-11.09
238.127	27.82
238.344	21.67
238.562	25.77
238.779	-29.52
238.996	13.48
239.214	36.01
239.431	23.72
239.648	-17.24
239.865	29.87
240.083	64.68
240.3	70.83
240.517	1.19
240.735	-25.43
240.952	19.63
241.169	52.39
241.386	130.22
241.603	-29.52
241.821	60.59
242.038	70.83
242.255	74.92
242.472	38.06
242.689	17.58
242.907	42.15
243.124	13.48
243.341	40.11
243.558	7.34
243.775	7.34
243.992	31.91
244.209	128.17
244.426	79.02
244.643	81.07
244.86	81.07
245.078	50.35
245.295	-7
245.512	74.92
245.729	-17.24
245.946	52.39
246.163	72.87
246.38	7.34
246.597	-47.96
246.814	36.01
247.031	-17.24
247.248	23.72
247.464	21.67
247.681	95.4
247.898	-58.2
248.115	46.25
248.332	3.24
248.549	-13.14
248.766	25.77
248.983	60.59
249.2	15.53
249.417	13.48
249.633	15.53
249.85	9.39
250.067	93.35
250.284	1.19
250.501	68.78
250.717	44.2
250.934	83.11
251.151	76.97
251.368	1.19
251.585	46.25
251.801	33.96
252.018	17.58
252.235	99.5
252.451	19.63
252.668	-19.29
252.885	62.63
253.102	25.77
253.318	25.77
253.535	93.35
253.752	-9.05
253.968	-15.19
254.185	-50
254.401	7.34
254.618	64.68
254.835	44.2
255.051	60.59
255.268	21.67
255.484	85.16
255.701	-2.9
255.917	-33.62
256.134	-113.49
256.351	9.39
256.567	52.39
256.784	58.54
257	-19.29
257.217	58.54
257.433	50.35
257.65	31.91
257.866	13.48
258.082	15.53
258.299	17.58
258.515	56.49
258.732	70.83
258.948	38.06
259.165	56.49
259.381	13.48
259.597	93.35
259.814	56.49
260.03	56.49
260.246	60.59
260.463	27.82
260.679	81.07
260.895	7.34
261.112	111.78
261.328	-23.38
261.544	87.21
261.761	62.63
261.977	13.48
262.193	-25.43
262.409	11.43
262.626	-29.52
262.842	17.58
263.058	64.68
263.274	-17.24
263.49	-0.85
263.707	44.2
263.923	-37.72
264.139	44.2
264.355	50.35
264.571	85.16
264.787	-33.62
265.004	97.45
265.22	-33.62
265.436	60.59
265.652	58.54
265.868	40.11
266.084	91.31
266.3	19.63
266.516	-4.95
266.732	93.35
266.948	33.96
267.164	29.87
267.38	42.15
267.596	52.39
267.812	79.02
268.028	36.01
268.244	40.11
268.46	66.73
268.676	58.54
268.892	21.67
269.108	-93.01
269.324	27.82
269.54	95.4
269.756	40.11
269.972	-31.57
270.188	72.87
270.403	40.11
270.619	56.49
270.835	31.91
271.051	36.01
271.267	-50
271.483	62.63
271.698	31.91
271.914	13.48
272.13	42.15
272.346	21.67
272.562	5.29
272.777	15.53
272.993	27.82
273.209	-9.05
273.425	5.29
273.64	66.73
273.856	42.15
274.072	15.53
274.287	11.43
274.503	-11.09
274.719	17.58
274.934	40.11
275.15	50.35
275.366	25.77
275.581	33.96
275.797	52.39
276.012	93.35
276.228	36.01
276.444	44.2
276.659	50.35
276.875	60.59
277.09	15.53
277.306	56.49
277.521	29.87
277.737	-66.39
277.952	74.92
278.168	97.45
278.383	74.92
278.599	87.21
278.814	58.54
279.03	5.29
279.245	48.3
279.461	58.54
279.676	-56.15
279.892	33.96
280.107	66.73
280.322	3.24
280.538	91.31
280.753	-13.14
280.969	15.53
281.184	-47.96
281.399	44.2
281.615	42.15
281.83	17.58
282.045	40.11
282.26	-21.33
282.476	62.63
282.691	-0.85
282.906	79.02
283.122	52.39
283.337	1.19
283.552	81.07
283.767	-4.95
283.983	1.19
284.198	-45.91
284.413	-31.57
284.628	23.72
284.843	31.91
285.058	29.87
285.274	31.91
285.489	68.78
285.704	91.31
285.919	-9.05
286.134	31.91
286.349	19.63
286.564	21.67
286.779	60.59
286.995	27.82
287.21	23.72
287.425	33.96
287.64	56.49
287.855	66.73
288.07	42.15
288.285	48.3
288.5	113.83
288.715	68.78
288.93	-15.19
289.145	36.01
289.36	81.07
289.575	44.2
289.79	81.07
290.004	81.07
290.219	-2.9
290.434	29.87
290.649	42.15
290.864	50.35
291.079	64.68
291.294	38.06
291.509	66.73
291.724	-0.85
291.938	-50
292.153	54.44
292.368	11.43
292.583	62.63
292.798	58.54
293.012	9.39
293.227	99.5
293.442	21.67
293.657	9.39
293.871	-4.95
294.086	74.92
294.301	117.93
294.516	64.68
294.73	7.34
294.945	17.58
295.16	58.54
295.374	36.01
295.589	19.63
295.804	23.72
296.018	-19.29
296.233	50.35
296.447	62.63
296.662	15.53
296.877	48.3
297.091	48.3
297.306	46.25
297.52	19.63
297.735	72.87
297.949	46.25
298.164	19.63
298.378	81.07
298.593	48.3
298.807	109.74
299.022	48.3
299.236	21.67
299.451	58.54
299.665	54.44
299.88	101.55
300.094	68.78
300.309	1.19
300.523	46.25
300.737	56.49
300.952	21.67
301.166	33.96
301.381	89.26
301.595	46.25
301.809	15.53
302.024	64.68
302.238	58.54
302.452	33.96
302.667	15.53
302.881	11.43
303.095	-9.05
303.309	13.48
303.524	31.91
303.738	42.15
303.952	9.39
304.166	33.96
304.381	-33.62
304.595	109.74
304.809	25.77
305.023	31.91
305.237	-31.57
305.452	31.91
305.666	29.87
305.88	-19.29
306.094	27.82
306.308	50.35
306.522	38.06
306.736	40.11
306.95	11.43
307.164	85.16
307.379	66.73
307.593	3.24
307.807	-4.95
308.021	60.59
308.235	54.44
308.449	31.91
308.663	40.11
308.877	42.15
309.091	58.54
309.305	87.21
309.519	58.54
309.733	76.97
309.947	-43.86
310.161	130.22
310.374	-0.85
310.588	64.68
310.802	58.54
311.016	40.11
311.23	38.06
311.444	19.63
311.658	126.12
311.872	64.68
312.085	40.11
312.299	81.07
312.513	64.68
312.727	144.55
312.941	42.15
313.154	97.45
313.368	29.87
313.582	23.72
313.796	-4.95
314.009	58.54
314.223	-62.29
314.437	3.24
314.651	68.78
314.864	23.72
315.078	7.34
315.292	-31.57
315.505	-43.86
315.719	38.06
315.933	64.68
316.146	-35.67
316.36	38.06
316.573	25.77
316.787	-2.9
317.001	9.39
317.214	-50
317.428	122.02
317.641	38.06
317.855	13.48
318.068	81.07
318.282	15.53
318.495	81.07
318.709	44.2
318.922	103.59
319.136	76.97
319.349	44.2
319.563	33.96
319.776	-25.43
319.99	48.3
320.203	40.11
320.417	-43.86
320.63	119.98
320.843	60.59
321.057	25.77
321.27	97.45
321.483	-25.43
321.697	52.39
321.91	52.39
322.124	46.25
322.337	50.35
322.55	54.44
322.763	72.87
322.977	21.67
323.19	85.16
323.403	42.15
323.617	70.83
323.83	13.48
324.043	44.2
324.256	7.34
324.469	25.77
324.683	-2.9
324.896	33.96
325.109	5.29
325.322	-4.95
325.535	128.17
325.748	33.96
325.962	36.01
326.175	3.24
326.388	76.97
326.601	64.68
326.814	68.78
327.027	7.34
327.24	89.26
327.453	-25.43
327.666	50.35
327.879	50.35
328.092	25.77
328.305	-37.72
328.518	15.53
328.731	-2.9
328.944	58.54
329.157	5.29
329.37	-4.95
329.583	29.87
329.796	19.63
330.009	13.48
330.222	72.87
330.435	29.87
330.648	21.67
330.861	144.55
331.073	48.3
331.286	21.67
331.499	36.01
331.712	9.39
331.925	93.35
332.138	93.35
332.35	15.53
332.563	17.58
332.776	-15.19
332.989	11.43
333.202	44.2
333.414	31.91
333.627	62.63
333.84	36.01
334.053	91.31
334.265	21.67
334.478	72.87
334.691	-2.9
334.903	29.87
335.116	3.24
335.329	83.11
335.541	40.11
335.754	-0.85
335.966	-0.85
336.179	128.17
336.392	38.06
336.604	-13.14
336.817	9.39
337.029	19.63
337.242	64.68
337.454	46.25
337.667	79.02
337.88	60.59
338.092	7.34
338.305	58.54
338.517	33.96
338.729	15.53
338.942	101.55
339.154	83.11
339.367	40.11
339.579	25.77
339.792	42.15
340.004	124.07
340.217	68.78
340.429	44.2
340.641	33.96
340.854	27.82
341.066	52.39
341.278	21.67
341.491	95.4
341.703	19.63
341.915	19.63
342.128	27.82
342.34	128.17
342.552	33.96
342.764	-11.09
342.977	25.77
343.189	52.39
343.401	111.78
343.613	31.91
343.826	99.5
344.038	-33.62
344.25	5.29
344.462	48.3
344.674	29.87
344.886	27.82
345.099	95.4
345.311	56.49
345.523	25.77
345.735	48.3
345.947	113.83
346.159	91.31
346.371	38.06
346.583	48.3
346.795	87.21
347.007	5.29
347.219	60.59
347.431	-13.14
347.643	119.98
347.855	89.26
348.067	54.44
348.279	54.44
348.491	97.45
348.703	-7
348.915	79.02
349.127	-27.48
349.339	25.77
349.551	3.24
349.763	72.87
349.975	-0.85
350.187	36.01
350.399	38.06
350.61	79.02
350.822	15.53
351.034	56.49
351.246	-7
351.458	23.72
351.669	64.68
351.881	85.16
352.093	74.92
352.305	29.87
352.517	76.97
352.728	79.02
352.94	11.43
353.152	-2.9
353.363	54.44
353.575	19.63
353.787	76.97
353.999	33.96
354.21	36.01
354.422	138.41
354.633	-45.91
354.845	48.3
355.057	52.39
355.268	48.3
355.48	52.39
355.692	64.68
355.903	87.21
356.115	74.92
356.326	52.39
356.538	97.45
356.749	68.78
356.961	113.83
357.172	64.68
357.384	48.3
357.595	152.74
357.807	64.68
358.018	3.24
358.23	89.26
358.441	23.72
358.653	50.35
358.864	3.24
359.075	-4.95
359.287	58.54
359.498	19.63
359.709	42.15
359.921	72.87
360.132	42.15
360.344	54.44
360.555	68.78
360.766	54.44
360.977	40.11
361.189	87.21
361.4	64.68
361.611	95.4
361.823	76.97
362.034	76.97
362.245	25.77
362.456	-2.9
362.667	38.06
362.879	42.15
363.09	44.2
363.301	62.63
363.512	11.43
363.723	5.29
363.935	64.68
364.146	-0.85
364.357	50.35
364.568	83.11
364.779	5.29
364.99	113.83
365.201	58.54
365.412	105.64
365.623	44.2
365.834	76.97
366.045	97.45
366.256	23.72
366.467	-9.05
366.678	17.58
366.889	50.35
367.1	60.59
367.311	70.83
367.522	25.77
367.733	79.02
367.944	115.88
368.155	95.4
368.366	105.64
368.577	52.39
368.788	48.3
368.999	27.82
369.209	60.59
369.42	105.64
369.631	85.16
369.842	54.44
370.053	81.07
370.264	25.77
370.474	36.01
370.685	54.44
370.896	74.92
371.107	36.01
371.317	21.67
371.528	52.39
371.739	42.15
371.95	72.87
372.16	109.74
372.371	36.01
372.582	81.07
372.792	113.83
373.003	60.59
373.214	50.35
373.424	111.78
373.635	11.43
373.846	48.3
374.056	40.11
374.267	44.2
374.477	-9.05
374.688	79.02
374.898	50.35
375.109	109.74
375.319	111.78
375.53	74.92
375.74	46.25
375.951	5.29
376.161	-13.14
376.372	111.78
376.582	40.11
376.793	64.68
377.003	72.87
377.214	136.36
377.424	62.63
377.635	89.26
377.845	64.68
378.055	15.53
378.266	-52.05
378.476	-17.24
378.686	54.44
378.897	62.63
379.107	44.2
379.317	74.92
379.528	38.06
379.738	91.31
379.948	87.21
380.158	91.31
380.369	93.35
380.579	62.63
380.789	5.29
380.999	85.16
381.21	97.45
381.42	101.55
381.63	17.58
381.84	72.87
382.05	146.6
382.261	81.07
382.471	119.98
382.681	50.35
382.891	85.16
383.101	95.4
383.311	46.25
383.521	-45.91
383.731	5.29
383.941	40.11
384.151	68.78
384.361	76.97
384.571	48.3
384.781	83.11
384.991	99.5
385.201	122.02
385.411	58.54
385.621	64.68
385.831	-0.85
386.041	38.06
386.251	48.3
386.461	76.97
386.671	62.63
386.881	83.11
387.091	21.67
387.301	97.45
387.511	62.63
387.72	146.6
387.93	40.11
388.14	89.26
388.35	56.49
388.56	89.26
388.769	115.88
388.979	113.83
389.189	44.2
389.399	117.93
389.609	148.65
389.818	91.31
390.028	79.02
390.238	107.69
390.447	81.07
390.657	48.3
390.867	23.72
391.076	29.87
391.286	150.7
391.496	25.77
391.705	7.34
391.915	109.74
392.125	1.19
392.334	23.72
392.544	52.39
392.753	58.54
392.963	33.96
393.172	138.41
393.382	15.53
393.591	132.26
393.801	29.87
394.01	103.59
394.22	36.01
394.429	89.26
394.639	15.53
394.848	91.31
395.058	60.59
395.267	29.87
395.477	152.74
395.686	83.11
395.895	68.78
396.105	72.87
396.314	58.54
396.524	66.73
396.733	154.79
396.942	122.02
397.152	154.79
397.361	181.42
397.57	66.73
397.78	105.64
397.989	99.5
398.198	111.78
398.407	101.55
398.617	171.18
398.826	152.74
399.035	101.55
399.244	107.69
399.453	97.45
399.663	115.88
399.872	136.36
400.081	199.85
400.29	95.4
400.499	52.39
400.708	122.02
400.917	83.11
401.127	97.45
401.336	119.98
401.545	52.39
401.754	185.51
401.963	103.59
402.172	103.59
402.381	162.98
402.59	128.17
402.799	130.22
403.008	111.78
403.217	130.22
403.426	122.02
403.635	85.16
403.844	181.42
404.053	158.89
404.262	76.97
404.471	154.79
404.68	132.26
404.888	142.5
405.097	142.5
405.306	201.9
405.515	144.55
405.724	136.36
405.933	199.85
406.142	175.27
406.35	136.36
406.559	179.37
406.768	195.75
406.977	238.76
407.185	210.09
407.394	242.85
407.603	179.37
407.812	261.29
408.02	154.79
408.229	332.97
408.438	265.38
408.646	261.29
408.855	220.33
409.064	279.72
409.272	257.19
409.481	263.33
409.69	296.1
409.898	251.05
410.107	255.14
410.315	363.69
410.524	306.34
410.733	375.97
410.941	355.49
411.15	400.55
411.358	394.4
411.567	335.01
411.775	322.73
411.984	404.64
412.192	451.75
412.401	363.69
412.609	441.51
412.818	470.18
413.026	504.99
413.234	427.17
413.443	410.79
413.651	572.58
413.86	515.23
414.068	638.11
414.276	609.44
414.485	550.05
414.693	654.5
414.901	720.03
415.11	658.59
415.318	732.32
415.526	732.32
415.734	828.57
415.943	830.62
416.151	832.67
416.359	728.22
416.567	865.44
416.776	949.4
416.984	851.1
417.192	982.17
417.4	988.32
417.608	1002.65
417.817	928.92
418.025	1084.57
418.233	1182.87
418.441	1049.75
418.649	1084.57
418.857	1191.06
419.065	1287.32
419.273	1201.3
419.481	1408.15
419.689	1385.62
419.897	1451.16
420.105	1494.16
420.313	1569.94
420.521	1533.08
420.729	1614.99
420.937	1658
421.145	1731.73
421.353	1797.26
421.561	1850.51
421.769	1819.79
421.977	2010.25
422.185	2012.3
422.393	2221.19
422.601	2194.57
422.809	2202.76
423.017	2350.21
423.224	2428.04
423.432	2405.51
423.64	2421.89
423.848	2688.13
424.056	2552.96
424.263	2753.66
424.471	2749.57
424.679	2813.06
424.887	2913.41
425.094	3226.75
425.302	2970.75
425.51	3200.12
425.718	3394.68
425.925	3437.69
426.133	3511.41
426.341	3613.81
426.548	3855.47
426.756	3947.63
426.964	3875.95
427.171	4320.36
427.379	4246.63
427.586	4164.72
427.794	4439.14
428.001	4705.38
428.209	4732
428.417	4744.29
428.624	4953.18
428.832	5125.21
429.039	5043.29
429.247	5102.68
429.454	5512.28
429.662	5878.86
429.869	5551.19
430.076	5950.54
430.284	5880.91
430.491	5983.31
430.699	6331.47
430.906	6290.51
431.114	6437.96
431.321	6761.54
431.528	6773.83
431.736	7203.9
431.943	7713.84
432.15	7310.4
432.358	7351.35
432.565	7916.59
432.772	7816.24
432.979	8027.18
433.187	8264.75
433.394	8438.83
433.601	8807.46
433.808	8832.04
434.016	8764.45
434.223	9153.57
434.43	9858.07
434.637	9581.59
434.844	10236.94
435.052	10636.3
435.259	10427.4
435.466	10365.96
435.673	10318.86
435.88	11117.57
436.087	11637.75
436.294	11527.16
436.501	11269.12
436.708	11467.77
436.915	11891.7
437.122	12614.63
437.329	12301.29
437.537	12919.78
437.743	12962.79
437.95	13040.61
438.157	13634.52
438.364	14281.68
438.571	13962.2
438.778	14109.65
438.985	15371.2
439.192	14928.84
439.399	15553.47
439.606	14765
439.813	15831.99
440.02	16653.23
440.227	16542.64
440.433	16167.86
440.64	16982.95
440.847	16903.08
441.054	17046.44
441.261	18318.23
441.467	18060.18
441.674	18492.3
441.881	19209.09
442.088	19174.28
442.294	18787.21
442.501	19405.7
442.708	19872.64
442.914	20513.65
443.121	21390.18
443.328	20867.95
443.534	22383.45
443.741	21494.63
443.948	21361.51
444.154	22891.34
444.361	22803.28
444.568	23046.99
444.774	22729.55
444.981	23216.97
445.187	23964.48
445.394	24988.46
445.6	24595.25
445.807	27003.66
446.013	25588.52
446.22	26454.81
446.426	27044.62
446.633	27458.31
446.839	28224.25
447.046	27069.2
447.252	28513.02
447.459	28707.57
447.665	28797.68
447.871	29649.64
448.078	31032.02
448.284	29760.23
448.491	30331.61
448.697	31398.6
448.903	31652.55
449.11	32142.02
449.316	31494.86
449.522	32082.63
449.728	32780.98
449.935	33538.73
450.141	33219.25
450.347	33718.95
450.553	32541.37
450.76	33469.1
450.966	34155.17
451.172	34124.45
451.378	34683.55
451.584	34095.78
451.791	34626.2
451.997	34939.54
452.203	35209.87
452.409	35402.38
452.615	35140.24
452.821	33911.46
453.027	33452.72
453.233	35246.74
453.44	34017.96
453.646	34486.94
453.852	34452.12
454.058	34927.25
454.264	33663.66
454.47	34808.47
454.676	33782.44
454.882	35023.51
455.088	32000.71
455.294	32107.2
455.5	32322.24
455.705	33204.91
455.911	31605.45
456.117	31070.93
456.323	30515.93
456.529	28930.8
456.735	29870.82
456.941	29151.98
457.147	28904.18
457.352	28134.14
457.558	27527.94
457.764	27951.87
457.97	27175.69
458.176	26614.55
458.381	26745.62
458.587	25529.13
458.793	25381.67
458.999	24138.55
459.204	25791.27
459.41	25154.35
459.616	23798.59
459.821	23620.42
460.027	23317.32
460.233	22799.18
460.438	21816.16
460.644	22068.06
460.85	21027.69
461.055	20628.34
461.261	20632.43
461.466	18946.95
461.672	18508.69
461.878	19917.69
462.083	18674.57
462.289	18201.49
462.494	18086.81
462.7	17589.15
462.905	16948.14
463.111	17392.55
463.316	17396.64
463.522	17056.68
463.727	16870.31
463.932	16950.18
464.138	16872.36
464.343	16991.14
464.549	16305.07
464.754	17189.8
464.959	16804.78
465.165	16466.86
465.37	16151.48
465.575	15711.16
465.781	16241.59
465.986	16233.39
466.191	15621.05
466.397	15393.73
466.602	14500.81
466.807	15246.27
467.012	15313.86
467.218	15137.73
467.423	14738.38
467.628	15289.28
467.833	15688.64
468.038	15025.09
468.244	14664.65
468.449	15182.79
468.654	14939.08
468.859	14529.48
469.064	14363.6
469.269	14220.24
469.474	14089.17
469.679	14308.3
469.885	13708.25
470.09	14189.52
470.295	14037.97
470.5	13755.35
470.705	13861.85
470.91	13394.91
471.115	13399.01
471.32	13536.22
471.525	13452.25
471.73	13077.48
471.935	13048.8
472.139	12938.21
472.344	12923.88
472.549	12891.11
472.754	12712.94
472.959	12235.76
473.164	12012.53
473.369	12026.87
473.574	12420.08
473.778	12194.8
473.983	12076.02
474.188	11975.67
474.393	11494.4
474.598	11420.67
474.802	11389.95
475.007	11408.38
475.212	11406.33
475.417	10839.05
475.621	10980.36
475.826	11052.03
476.031	10687.5
476.235	10693.64
476.44	10834.95
476.645	10671.11
476.849	10419.21
477.054	10421.26
477.259	10249.23
477.463	10339.34
477.668	9868.31
477.872	10159.12
478.077	9896.98
478.282	9718.81
478.486	9520.15
478.691	9483.29
478.895	9610.26
479.1	9409.56
479.304	9477.15
479.509	9049.12
479.713	9284.64
479.918	9241.63
480.122	9137.18
480.326	9487.39
480.531	9061.41
480.735	9042.98
480.94	8948.77
481.144	8987.68
481.348	8864.8
481.553	8873
481.757	8815.65
481.961	9034.78
482.166	8928.29
482.37	8961.06
482.574	8875.04
482.778	9059.36
482.983	9040.93
483.187	9059.36
483.391	9030.69
483.595	8768.55
483.8	8678.44
484.004	8817.7
484.208	8899.62
484.412	8819.75
484.616	8698.92
484.821	8899.62
485.025	8786.98
485.229	8649.77
485.433	8883.24
485.637	8813.6
485.841	8743.97
486.045	8674.34
486.249	8784.93
486.453	8694.82
486.657	8746.02
486.861	8952.87
487.065	8713.25
487.269	8629.29
487.473	8784.93
487.677	8727.59
487.881	8989.73
488.085	8799.27
488.289	8875.04
488.493	8866.85
488.697	8979.49
488.901	8920.1
489.105	8913.95
489.309	8827.94
489.512	8895.52
489.716	8924.19
489.92	8967.2
490.124	8768.55
490.328	9163.81
490.531	8893.47
490.735	9116.7
490.939	9073.7
491.143	9075.74
491.346	9151.52
491.55	9026.59
491.754	9260.06
491.958	9370.65
492.161	9327.64
492.365	9384.99
492.569	9114.66
492.772	9380.89
492.976	9438.23
493.18	9430.04
493.383	9405.47
493.587	9722.9
493.79	9890.84
493.994	9612.31
494.197	9651.22
494.401	9808.92
494.605	9960.47
494.808	9937.94
495.012	10071.06
495.215	9997.33
495.419	10165.26
495.622	9937.94
495.825	10429.45
496.029	10222.61
496.232	10576.91
496.436	10486.79
496.639	10554.38
496.843	10800.13
497.046	10851.33
497.249	10990.59
497.453	11027.46
497.656	11129.86
497.859	10902.53
498.063	11236.35
498.266	11541.5
498.469	11449.34
498.673	11854.84
498.876	11629.56
499.079	11793.4
499.282	11987.96
499.485	12221.42
499.689	12329.97
499.892	12252.14
500.095	12524.52
500.298	12850.15
500.501	12518.38
500.705	13186.02
500.908	12997.6
501.111	13134.82
501.314	13374.43
501.517	13620.19
501.72	13745.11
501.923	13720.54
502.126	14261.2
502.329	13935.57
502.532	14355.41
502.735	14232.53
502.938	14785.48
503.141	14889.93
503.344	14674.89
503.547	14826.44
503.75	14973.89
503.953	15539.13
504.156	15377.34
504.359	15664.06
504.562	15686.59
504.765	16024.5
504.968	16192.44
505.17	16223.16
505.373	16450.48
505.576	16726.96
505.779	16849.83
505.982	16851.88
506.185	17359.78
506.387	17120.17
506.59	17509.28
506.793	17875.87
506.996	17904.54
507.198	18287.51
507.401	18512.78
507.604	18391.95
507.807	18762.64
508.009	18699.15
508.212	19129.22
508.415	19448.71
508.617	19573.63
508.82	19639.17
509.022	19712.89
509.225	20269.94
509.428	20063.1
509.63	20679.54
509.833	20515.7
510.035	21119.85
510.238	20859.76
510.44	21005.16
510.643	21619.55
510.845	22068.06
511.048	21840.73
511.25	21984.09
511.453	22319.96
511.655	22960.97
511.858	22555.47
512.06	22743.89
512.262	23182.15
512.465	23382.85
512.667	23886.65
512.87	23702.34
513.072	23794.5
513.274	24275.77
513.477	24429.37
513.679	24871.73
513.881	25041.71
514.084	25328.42
514.286	25449.25
514.488	25549.6
514.69	26348.31
514.893	26252.06
515.095	26571.54
515.297	26600.21
515.499	26557.21
515.701	27122.44
515.904	27392.78
516.106	27513.61
516.308	27722.5
516.51	28261.12
516.712	28033.79
516.914	28691.19
517.116	29178.61
517.318	29530.86
517.52	29428.46
517.722	29450.99
517.925	30024.42
518.127	30200.54
518.329	30251.74
518.531	30319.32
518.733	31384.27
518.935	31312.59
519.136	31322.83
519.338	31853.25
519.54	31566.54
519.742	32213.7
519.944	32555.71
520.146	32817.85
520.348	33219.25
520.55	33178.29
520.752	33258.16
520.954	33950.37
521.155	33972.9
521.357	34327.2
521.559	34146.98
521.761	35197.59
521.963	34693.79
522.164	35179.15
522.366	35187.35
522.568	35459.73
522.77	36207.23
522.971	36285.06
523.173	36530.81
523.375	36803.19
523.576	36938.36
523.778	36874.87
523.98	37257.84
524.181	37282.42
524.383	37714.54
524.584	38183.52
524.786	38099.56
524.988	38586.97
525.189	38412.9
525.391	38662.75
525.592	38951.51
525.794	39223.89
525.995	39115.35
526.197	39234.13
526.398	39354.96
526.6	39807.56
526.801	39944.78
527.003	40165.96
527.204	40227.4
527.406	40430.15
527.607	40567.36
527.808	40948.28
528.01	40190.53
528.211	40919.61
528.412	41798.19
528.614	41558.58
528.815	41476.66
529.016	41982.51
529.218	41226.81
529.419	41656.88
529.62	41785.9
529.822	41636.4
530.023	42187.3
530.224	42269.22
530.425	42119.72
530.626	41431.6
530.828	41802.28
531.029	42527.27
531.23	42687.01
531.431	42539.55
531.632	42600.99
531.833	43065.88
532.035	42797.6
532.236	42811.93
532.437	42971.67
532.638	42762.78
532.839	42859.04
533.04	43076.12
533.241	42730.01
533.442	43395.6
533.643	42953.24
533.844	43000.35
534.045	43917.84
534.246	43096.6
534.447	43647.5
534.648	42791.45
534.849	43639.31
535.05	43192.86
535.251	43538.96
535.451	43069.98
535.652	43721.23
535.853	43307.54
536.054	43706.9
536.255	43614.74
536.456	43262.49
536.657	43887.12
536.857	42889.76
537.058	43522.58
537.259	43737.62
537.46	43803.15
537.66	43557.39
537.861	43651.6
538.062	43557.39
538.263	44087.82
538.463	43516.43
538.664	43422.23
538.865	43663.89
539.065	43981.32
539.266	43708.94
539.466	44003.85
539.667	43455
539.868	43954.7
540.068	43545.11
540.269	43473.43
540.469	43936.27
540.67	43440.66
540.87	43336.21
541.071	44030.47
541.271	43887.12
541.472	43633.17
541.672	43405.84
541.873	43653.65
542.073	43192.86
542.274	43715.09
542.474	43309.59
542.675	43483.67
542.875	43706.9
543.075	43469.33
543.276	43020.83
543.476	43725.33
543.676	43633.17
543.877	43774.48
544.077	43452.95
544.277	43371.03
544.478	43211.29
544.678	43731.47
544.878	43723.28
545.078	43819.53
545.279	43033.11
545.479	43487.76
545.679	43440.66
545.879	43559.44
546.079	43405.84
546.28	43149.85
546.48	42940.96
546.68	43647.5
546.88	43579.92
547.08	43850.25
547.28	43336.21
547.48	43100.7
547.68	43670.03
547.88	43203.1
548.081	43514.39
548.281	43043.35
548.481	43293.21
548.681	43377.17
548.881	43246.1
549.081	43303.45
549.28	43430.42
549.48	43813.39
549.68	43346.45
549.88	43602.45
550.08	43012.63
550.28	43188.76
550.48	43201.05
550.68	43502.1
550.88	42885.66
551.08	43098.65
551.279	43229.72
551.479	43031.07
551.679	43170.33
551.879	42971.67
552.079	43147.8
552.278	42840.6
552.478	42748.45
552.678	42926.62
552.878	43168.28
553.077	42871.32
553.277	42488.35
553.477	43221.53
553.676	43004.44
553.876	42992.15
554.076	42842.65
554.275	42549.79
554.475	42261.03
554.674	42897.95
554.874	42777.12
555.074	42234.41
555.273	42371.62
555.473	42674.72
555.672	42609.18
555.872	42545.7
556.071	42410.53
556.271	42758.69
556.47	41941.55
556.67	42258.98
556.869	42340.9
557.068	42119.72
557.268	42203.69
557.467	42195.49
557.667	42017.32
557.866	42258.98
558.065	41769.52
558.265	41693.74
558.464	41587.25
558.663	42170.92
558.863	41724.46
559.062	42189.35
559.261	41490.99
559.461	42353.19
559.66	40786.49
559.859	41472.56
560.058	40876.6
560.258	41572.91
560.457	40837.69
560.656	41239.09
560.855	40997.43
561.054	41206.33
561.253	41112.12
561.453	41026.1
561.652	40817.21
561.851	41189.94
562.05	40665.66
562.249	40485.44
562.448	40739.39
562.647	40694.33
562.846	40391.23
563.045	40290.88
563.244	40260.16
563.443	40684.09
563.642	39780.94
563.841	40391.23
564.04	39955.02
564.239	40317.51
564.438	39500.37
564.637	39965.26
564.836	39907.91
565.035	39600.72
565.234	39785.04
565.432	39109.21
565.631	39395.92
565.83	39608.91
566.029	39072.34
566.228	39058.01
566.427	38857.31
566.625	38863.45
566.824	38437.47
567.023	39287.38
567.222	37970.54
567.42	38871.64
567.619	38560.35
567.818	38476.38
568.016	38130.28
568.215	38357.6
568.414	37935.72
568.612	38326.88
568.811	37417.58
569.01	38138.47
569.208	37425.78
569.407	37837.42
569.605	37479.02
569.804	37814.89
570.002	37257.84
570.201	37479.02
570.4	37042.81
570.598	36768.38
570.797	36557.44
570.995	36850.3
571.193	36373.12
571.392	36770.43
571.59	36229.76
571.789	36448.89
571.987	36446.85
572.186	36250.24
572.384	36110.98
572.582	36299.39
572.781	36196.99
572.979	36098.69
573.177	36100.74
573.376	35959.43
573.574	35682.95
573.772	35596.94
573.971	35752.59
574.169	35103.38
574.367	35185.3
574.565	35156.63
574.763	34824.86
574.962	34781.85
575.16	34609.82
575.358	35183.25
575.556	34214.56
575.754	35105.43
575.952	34333.34
576.151	34566.81
576.349	34087.59
576.547	34130.59
576.745	34179.75
576.943	34067.11
577.141	33835.69
577.339	34329.25
577.537	33974.95
577.735	33661.61
577.933	33632.94
578.131	33743.53
578.329	33077.94
578.527	32862.9
578.725	33137.33
578.923	33174.19
579.121	32940.72
579.319	32879.28
579.516	32920.24
579.714	32879.28
579.912	32576.19
580.11	32449.21
580.308	32606.91
580.506	32422.59
580.704	31886.02
580.901	32273.09
581.099	32510.65
581.297	31967.94
581.495	31757
581.692	32305.85
581.89	31490.76
582.088	32344.77
582.285	31527.63
582.483	31701.7
582.681	31339.21
582.878	31648.46
583.076	30790.36
583.274	31466.19
583.471	30868.18
583.669	31345.36
583.866	30976.72
584.064	31050.45
584.262	30429.91
584.459	30726.87
584.657	30450.39
584.854	30735.06
585.052	30065.38
585.249	30558.94
585.447	30558.94
585.644	29958.88
585.841	30294.75
586.039	30210.78
586.236	29752.04
586.434	30036.7
586.631	29549.29
586.828	29410.03
587.026	29661.93
587.223	29450.99
587.42	29467.37
587.618	29493.99
587.815	28863.22
588.012	29227.76
588.21	28832.5
588.407	29106.93
588.604	28902.13
588.801	28787.44
588.999	28611.32
589.196	28568.31
589.393	28527.35
589.59	28492.54
589.787	28363.51
589.984	28472.06
590.182	28089.09
590.379	28027.65
590.576	27900.67
590.773	28257.02
590.97	27650.82
591.167	27679.49
591.364	27636.48
591.561	27708.16
591.758	27462.41
591.955	27433.74
592.152	27450.12
592.349	27335.43
592.546	27130.64
592.743	27249.42
592.94	27075.34
593.137	26751.76
593.334	26997.52
593.531	26688.28
593.727	26974.99
593.924	26618.64
594.121	26385.18
594.318	26854.16
594.515	26350.36
594.712	26530.58
594.908	26288.92
595.105	26266.39
595.302	25897.76
595.499	25828.13
595.696	26016.54
595.892	25631.52
596.089	25969.44
596.286	26071.84
596.482	25611.04
596.679	25748.26
596.876	25361.19
597.072	25355.05
597.269	25578.28
597.466	25144.11
597.662	25174.83
597.859	25312.04
598.055	25234.22
598.252	24890.16
598.448	24976.17
598.645	24673.07
598.841	24683.31
599.038	24716.08
599.234	24675.12
599.431	24449.85
599.627	24486.71
599.824	24791.86
600.02	24312.63
600.217	24388.41
600.413	24412.98
600.609	24052.54
600.806	23839.55
601.002	24068.92
601.198	24003.39
601.395	23989.05
601.591	24001.34
601.787	23655.23
601.984	23493.44
602.18	23919.42
602.376	23599.94
602.572	23515.97
602.769	23632.71
602.965	23020.36
603.161	23130.95
603.357	23130.95
603.553	22936.4
603.75	23247.69
603.946	22399.83
604.142	22764.37
604.338	22604.63
604.534	22799.18
604.73	22582.1
604.926	22412.12
605.122	22543.19
605.318	22295.38
605.514	22442.84
605.71	22217.56
605.906	22143.83
606.102	22115.16
606.298	22233.94
606.494	22012.76
606.69	22074.2
606.886	22213.46
607.082	21572.45
607.278	21787.49
607.474	21605.22
607.67	21658.46
607.866	21351.27
608.062	21701.47
608.257	21853.02
608.453	21506.91
608.649	21760.86
608.845	21076.84
609.041	21396.32
609.236	21300.07
609.432	21218.15
609.628	21121.9
609.824	21207.91
610.019	21101.42
610.215	21091.18
610.411	21095.27
610.606	20921.2
610.802	20724.59
610.998	20790.13
611.193	20607.86
611.389	20585.33
611.584	20618.1
611.78	20532.08
611.976	20605.81
612.171	20517.75
612.367	20480.88
612.562	20206.45
612.758	20208.5
612.953	20140.92
613.149	20630.38
613.344	19854.2
613.539	20259.7
613.735	20095.86
613.93	20231.03
614.126	20038.52
614.321	19989.37
614.517	20089.72
614.712	19577.73
614.907	19962.75
615.103	19940.22
615.298	20075.38
615.493	20210.55
615.688	19630.98
615.884	19829.63
616.079	19538.82
616.274	19686.27
616.47	19782.52
616.665	19352.45
616.86	19467.14
617.055	19352.45
617.25	19284.87
617.445	19319.68
617.641	19161.99
617.836	19417.99
618.031	19080.07
618.226	19129.22
618.421	19360.64
618.616	19161.99
618.811	18930.57
619.006	19219.33
619.201	18615.18
619.396	18916.23
619.591	18832.27
619.786	18670.48
619.981	18307.99
620.176	18264.98
620.371	18209.68
620.566	18459.54
620.761	18238.36
620.956	18365.33
621.151	18072.47
621.346	18068.37
621.541	17656.73
621.735	18047.9
621.93	17703.84
622.125	17746.84
622.32	17384.35
622.515	17507.23
622.709	17238.95
622.904	17347.49
623.099	17165.22
623.294	17111.97
623.488	16724.91
623.683	17028.01
623.878	16698.28
624.072	16716.72
624.267	16657.32
624.462	16432.05
624.656	16583.6
624.851	16597.93
625.046	16241.59
625.24	16282.55
625.435	16239.54
625.629	16098.23
625.824	15819.71
626.018	15952.82
626.213	15340.48
626.407	15592.38
626.602	15352.77
626.796	15768.51
626.991	15592.38
627.185	15483.84
627.38	15485.89
627.574	15281.09
627.768	15215.55
627.963	15152.07
628.157	14937.03
628.352	15043.53
628.546	14568.4
628.74	15080.39
628.935	14644.17
629.129	14509.01
629.323	14291.92
629.517	14427.09
629.712	14308.3
629.906	14279.63
630.1	14121.94
630.294	14410.7
630.489	14064.6
630.683	14199.76
630.877	13872.09
631.071	13726.68
631.265	13917.14
631.459	13726.68
631.653	13673.43
631.848	13480.92
632.042	13452.25
632.236	13544.41
632.43	13167.59
632.624	13315.04
632.818	13247.46
633.012	13251.55
633.206	13196.26
633.4	12927.97
633.594	12917.73
633.788	13044.71
633.982	12872.68
634.176	12651.5
634.369	12694.5
634.563	12686.31
634.757	12594.15
634.951	12557.29
635.145	12366.83
635.339	12469.23
635.533	12405.74
635.726	12217.33
635.92	11871.22
636.114	12166.13
636.308	12137.46
636.501	12002.29
636.695	11922.42
636.889	11850.74
637.083	11764.73
637.276	11564.03
637.47	11609.08
637.664	11633.66
637.857	11672.57
638.051	11471.87
638.244	11400.19
638.438	11488.25
638.632	11103.23
638.825	11250.69
639.019	11086.85
639.212	10961.92
639.406	11045.89
639.599	10820.61
639.793	11011.07
639.986	10871.81
640.18	10695.69
640.373	10886.15
640.567	10650.63
640.76	10843.14
640.954	10562.57
641.147	10449.93
641.34	10437.64
641.534	10318.86
641.727	10392.59
641.92	10492.94
642.114	10288.14
642.307	10282
642.5	10294.29
642.694	10019.86
642.887	9960.47
643.08	10085.39
643.273	9952.27
643.467	9763.86
643.66	9872.4
643.853	9714.71
644.046	9759.77
644.239	9597.98
644.432	9589.78
644.626	9479.19
644.819	9309.21
645.012	9493.53
645.205	9225.25
645.398	9409.56
645.591	9493.53
645.784	9204.77
645.977	9245.73
646.17	8987.68
646.363	8887.33
646.556	8838.18
646.749	9022.5
646.942	8877.09
647.135	8678.44
647.328	8803.36
647.521	8887.33
647.714	8596.52
647.907	8549.42
648.099	8668.2
648.292	8746.02
648.485	8514.6
648.678	8424.49
648.871	8490.03
649.064	8393.77
649.256	8746.02
649.449	8274.99
649.642	8148.01
649.835	8127.53
650.027	8205.36
650.22	8197.17
650.413	8154.16
650.605	8156.21
650.798	8133.68
650.991	7879.73
651.183	7801.91
651.376	7873.59
651.568	7818.29
651.761	7767.09
651.954	7740.47
652.146	7785.52
652.339	7640.12
652.531	7601.21
652.724	7640.12
652.916	7404.6
653.109	7566.39
653.301	7412.79
653.494	7486.52
653.686	7363.64
653.879	7478.33
654.071	7390.27
654.263	7173.18
654.456	7390.27
654.648	7300.16
654.84	6911.04
655.033	6995.01
655.225	6933.57
655.417	6972.48
655.61	7203.9
655.802	6954.05
655.994	6923.33
656.186	6876.23
656.379	7054.4
656.571	6845.51
656.763	6796.35
656.955	6806.59
657.148	6847.55
657.34	6863.94
657.532	6421.58
657.724	6550.6
657.916	6628.42
658.108	6628.42
658.3	6657.09
658.492	6483.02
658.684	6364.23
658.876	6362.19
659.068	6360.14
659.26	6337.61
659.452	6241.36
659.644	6200.4
659.836	6235.21
660.028	6224.97
660.22	6216.78
660.412	6130.77
660.604	5893.2
660.796	6098
660.988	6112.33
661.18	5925.97
661.372	5954.64
661.563	6011.98
661.755	5856.34
661.947	5854.29
662.139	5999.7
662.331	5774.42
662.522	5788.75
662.714	5825.62
662.906	5618.77
663.097	5641.3
663.289	5739.6
663.481	5622.87
663.673	5641.3
663.864	5618.77
664.056	5358.68
664.247	5657.68
664.439	5479.51
664.631	5561.43
664.822	5323.87
665.014	5295.19
665.205	5424.22
665.397	5336.15
665.588	5317.72
665.78	5366.87
665.971	5237.85
666.163	5260.38
666.354	5233.75
666.546	5424.22
666.737	5117.02
666.929	5258.33
667.12	5133.4
667.311	5129.31
667.503	4873.31
667.694	5074.01
667.885	4992.09
668.077	4957.28
668.268	4914.27
668.459	4836.45
668.651	5037.15
668.842	5043.29
669.033	4895.84
669.224	4988
669.416	4729.95
669.607	4822.11
669.798	4758.63
669.989	4752.48
670.18	4770.91
670.371	4666.47
670.563	4607.08
670.754	4695.14
670.945	4498.53
671.136	4715.62
671.327	4506.73
671.518	4504.68
671.709	4600.93
671.9	4645.99
672.091	4463.72
672.282	4367.46
672.473	4519.01
672.664	4451.43
672.855	4289.64
673.046	4308.07
673.237	4525.16
673.428	4402.28
673.619	4476.01
673.809	4367.46
674	4332.65
674.191	4342.89
674.382	4351.08
674.573	4334.7
674.764	4279.4
674.954	4283.5
675.145	4363.37
675.336	4177
675.527	4129.9
675.717	4148.33
675.908	4146.28
676.099	3988.59
676.289	4086.89
676.48	4037.74
676.671	4095.08
676.861	4111.47
677.052	3961.97
677.243	4111.47
677.433	4109.42
677.624	4136.04
677.814	3927.15
678.005	3992.69
678.195	4027.5
678.386	3890.29
678.576	3951.73
678.767	3800.18
678.957	3798.13
679.148	3914.86
679.338	3980.4
679.529	3851.38
679.719	3853.42
679.909	3955.82
680.1	3781.74
680.29	3851.38
680.481	3755.12
680.671	3834.99
680.861	3779.7
681.052	3746.93
681.242	3863.66
681.432	3740.79
681.622	3673.2
681.813	3576.95
682.003	3710.07
682.193	3763.31
682.383	3705.97
682.573	3777.65
682.764	3658.87
682.954	3628.15
683.144	3624.05
683.334	3636.34
683.524	3587.19
683.714	3624.05
683.904	3574.9
684.094	3579
684.284	3486.84
684.474	3542.13
684.664	3550.32
684.854	3636.34
685.044	3617.91
685.234	3486.84
685.424	3531.89
685.614	3341.43
685.804	3429.49
685.994	3490.93
686.184	3378.3
686.374	3476.6
686.564	3427.45
686.753	3462.26
686.943	3239.03
687.133	3464.31
687.323	3378.3
687.513	3480.69
687.702	3374.2
687.892	3427.45
688.082	3189.88
688.272	3400.82
688.461	3323
688.651	3333.24
688.841	3234.94
689.03	3347.58
689.22	3296.38
689.41	3249.27
689.599	3361.91
689.789	3323
689.979	3234.94
690.168	3206.27
690.358	3267.7
690.547	3122.3
690.737	3157.11
690.926	3304.57
691.116	3193.98
691.305	3116.16
691.495	3193.98
691.684	3140.73
691.874	3095.68
692.063	3130.49
692.252	2933.89
692.442	2915.45
692.631	2985.09
692.82	3067
693.01	3050.62
693.199	3093.63
693.388	2919.55
693.578	3138.68
693.767	2882.69
693.956	2970.75
694.146	3052.67
694.335	2972.8
694.524	2899.07
694.713	3034.24
694.902	2968.7
695.092	3021.95
695.281	3003.52
695.47	2935.93
695.659	2882.69
695.848	2854.02
696.037	2985.09
696.226	2956.41
696.415	2911.36
696.604	3026.04
696.793	2894.97
696.982	3003.52
697.171	2792.58
697.36	2829.44
697.549	2952.32
697.738	2890.88
697.927	2870.4
698.116	2833.54
698.305	2763.9
698.494	2905.21
698.683	2919.55
698.872	2854.02
699.061	2880.64
699.25	2892.93
699.438	2899.07
699.627	2837.63
699.816	2860.16
700.005	2782.34
700.193	2909.31
700.382	2804.86
700.571	2860.16
700.76	2833.54
700.948	2972.8
701.137	2782.34
701.326	2911.36
701.514	2770.05
701.703	2929.79
701.892	2901.12
702.08	2858.11
702.269	2843.78
702.457	2819.2
702.646	2886.78
702.834	2804.86
703.023	2806.91
703.212	2741.38
703.4	2778.24
703.589	2780.29
703.777	2880.64
703.965	2817.15
704.154	2745.47
704.342	2829.44
704.531	2759.81
704.719	2733.18
704.907	2841.73
705.096	2776.19
705.284	2733.18
705.472	2913.41
705.661	2864.25
705.849	2686.08
706.037	2739.33
706.226	2925.69
706.414	2714.75
706.602	2696.32
706.79	2694.27
706.979	2749.57
707.167	2788.48
707.355	2800.77
707.543	2759.81
707.731	2757.76
707.919	2679.94
708.107	2706.56
708.296	2786.43
708.484	2657.41
708.672	2763.9
708.86	2679.94
709.048	2716.8
709.236	2628.74
709.424	2792.58
709.612	2724.99
709.8	2782.34
709.988	2673.79
710.176	2784.38
710.364	2753.66
710.551	2759.81
710.739	2731.14
710.927	2669.7
711.115	2684.03
711.303	2743.42
711.491	2677.89
711.679	2665.6
711.866	2765.95
712.054	2647.17
712.242	2692.23
712.43	2653.31
712.617	2751.62
712.805	2755.71
712.993	2604.16
713.181	2581.64
713.368	2571.4
713.556	2868.35
713.744	2675.84
713.931	2759.81
714.119	2708.61
714.306	2661.51
714.494	2579.59
714.682	2634.88
714.869	2770.05
715.057	2612.35
715.244	2679.94
715.432	2641.03
715.619	2690.18
715.807	2661.51
715.994	2684.03
716.182	2538.63
716.369	2696.32
716.556	2667.65
716.744	2610.31
716.931	2626.69
717.119	2665.6
717.306	2604.16
717.493	2694.27
717.681	2587.78
717.868	2495.62
718.055	2616.45
718.242	2647.17
718.43	2604.16
718.617	2546.82
718.804	2536.58
718.991	2659.46
719.179	2581.64
719.366	2559.11
719.553	2591.88
719.74	2563.2
719.927	2534.53
720.114	2579.59
720.301	2512
720.488	2622.59
720.676	2591.88
720.863	2595.97
721.05	2550.92
721.237	2600.07
721.424	2591.88
721.611	2581.64
721.798	2481.28
721.985	2569.35
722.172	2493.57
722.358	2491.52
722.545	2620.55
722.732	2659.46
722.919	2458.76
723.106	2655.36
723.293	2487.43
723.48	2464.9
723.667	2466.95
723.853	2466.95
724.04	2641.03
724.227	2581.64
724.414	2419.85
724.6	2282.63
724.787	2417.8
724.974	2604.16
725.161	2526.34
725.347	2462.85
725.534	2497.67
725.72	2489.48
725.907	2530.44
726.094	2483.33
726.28	2483.33
726.467	2405.51
726.653	2405.51
726.84	2499.72
727.027	2378.89
727.213	2391.17
727.4	2509.96
727.586	2385.03
727.773	2518.15
727.959	2362.5
728.145	2462.85
728.332	2450.57
728.518	2319.5
728.705	2421.89
728.891	2374.79
729.077	2325.64
729.264	2473.09
729.45	2380.93
729.636	2354.31
729.823	2397.32
730.009	2282.63
730.195	2380.93
730.382	2393.22
730.568	2366.6
730.754	2393.22
730.94	2391.17
731.126	2389.13
731.313	2411.65
731.499	2376.84
731.685	2329.74
731.871	2421.89
732.057	2405.51
732.243	2438.28
732.429	2436.23
732.615	2333.83
732.801	2382.98
732.987	2284.68
733.173	2421.89
733.359	2360.45
733.545	2299.02
733.731	2348.17
733.917	2358.41
734.103	2450.57
734.289	2436.23
734.475	2276.49
734.661	2352.26
734.847	2350.21
735.033	2374.79
735.219	2268.3
735.404	2342.02
735.59	2364.55
735.776	2260.1
735.962	2247.82
736.148	2251.91
736.333	2393.22
736.519	2344.07
736.705	2280.58
736.89	2217.1
737.076	2292.87
737.262	2245.77
737.447	2217.1
737.633	2235.53
737.819	2194.57
738.004	2243.72
738.19	2342.02
738.375	2215.05
738.561	2190.47
738.747	2176.14
738.932	2118.79
739.118	2198.67
739.303	2348.17
739.489	2157.71
739.674	2190.47
739.859	2126.99
740.045	2186.38
740.23	2133.13
740.416	2088.07
740.601	2262.15
740.786	2051.21
740.972	2045.07
741.157	2215.05
741.342	2118.79
741.528	2059.4
741.713	2086.03
741.898	2147.47
742.084	2178.19
742.269	2149.51
742.454	2133.13
742.639	2122.89
742.824	2030.73
743.01	2008.2
743.195	2116.75
743.38	2100.36
743.565	2026.64
743.75	2022.54
743.935	2059.4
744.12	2088.07
744.305	1830.03
744.49	2088.07
744.675	1905.81
744.86	2012.3
745.045	2032.78
745.23	2016.4
745.415	2088.07
745.6	1918.09
745.785	1924.24
745.97	1975.44
746.155	1883.28
746.34	1926.29
746.525	1916.05
746.71	1969.29
746.895	1883.28
747.079	1920.14
747.264	1807.5
747.449	1873.04
747.634	1866.89
747.819	1834.13
748.003	1799.31
748.188	1840.27
748.373	1793.17
748.557	1731.73
748.742	1707.15
748.927	1703.06
749.111	1639.57
749.296	1696.91
749.481	1672.34
749.665	1676.43
749.85	1660.05
750.034	1725.58
750.219	1653.91
750.404	1658
750.588	1610.9
750.773	1694.86
750.957	1727.63
751.141	1635.47
751.326	1674.39
751.51	1553.55
751.695	1660.05
751.879	1621.14
752.064	1621.14
752.248	1516.69
752.432	1547.41
752.617	1569.94
752.801	1578.13
752.985	1592.47
753.17	1569.94
753.354	1502.36
753.538	1500.31
753.722	1461.4
753.907	1475.73
754.091	1414.29
754.275	1485.97
754.459	1387.67
754.643	1342.61
754.828	1410.2
755.012	1506.45
755.196	1414.29
755.38	1328.28
755.564	1379.48
755.748	1387.67
755.932	1416.34
756.116	1453.2
756.3	1350.81
756.484	1332.37
756.668	1373.33
756.852	1318.04
757.036	1334.42
757.22	1361.05
757.404	1338.52
757.588	1240.22
757.772	1320.09
757.956	1203.35
758.14	1260.7
758.323	1164.44
758.507	1270.94
758.691	1189.02
758.875	1164.44
759.059	1324.18
759.242	1264.79
759.426	1213.59
759.61	1193.11
759.794	1121.43
759.977	1150.11
760.161	1219.74
760.345	1139.87
760.528	1193.11
760.712	1207.45
760.895	1143.96
761.079	1184.92
761.263	1119.39
761.446	1205.4
761.63	1103
761.813	1111.19
761.997	1064.09
762.18	1027.23
762.364	1080.47
762.547	1193.11
762.731	1035.42
762.914	1105.05
763.098	1139.87
763.281	1074.33
763.464	1141.91
763.648	1066.14
763.831	1119.39
764.015	1049.75
764.198	1082.52
764.381	1047.71
764.564	1043.61
764.748	973.98
764.931	1066.14
765.114	953.5
765.297	1019.04
765.481	1057.95
765.664	1023.13
765.847	924.83
766.03	1084.57
766.213	992.41
766.397	996.51
766.58	998.56
766.763	978.08
766.946	1049.75
767.129	1055.9
767.312	898.2
767.495	918.68
767.678	943.26
767.861	904.35
768.044	971.93
768.227	1051.8
768.41	908.44
768.593	904.35
768.776	971.93
768.959	869.53
769.142	961.69
769.324	939.16
769.507	955.55
769.69	941.21
769.873	965.79
770.056	967.84
770.239	816.29
770.421	928.92
770.604	875.68
770.787	910.49
770.97	939.16
771.152	894.11
771.335	908.44
771.518	877.73
771.7	898.2
771.883	912.54
772.066	908.44
772.248	851.1
772.431	922.78
772.613	793.76
772.796	894.11
772.978	963.74
773.161	703.65
773.343	926.88
773.526	808.09
773.708	951.45
773.891	767.13
774.073	859.29
774.256	771.23
774.438	910.49
774.621	810.14
774.803	791.71
774.985	814.24
775.168	822.43
775.35	785.57
775.532	715.94
775.715	736.42
775.897	717.98
776.079	617.63
776.261	763.04
776.444	765.09
776.626	654.5
776.808	789.66
776.99	732.32
777.173	818.33
777.355	650.4
777.537	677.02
777.719	703.65
777.901	711.84
778.083	726.18
778.265	709.79
778.447	740.51
778.629	711.84
778.811	627.87
778.993	652.45
779.175	664.74
779.357	652.45
779.539	638.11
779.721	715.94
779.903	615.59
780.085	636.06
780.267	664.74
780.449	621.73
780.631	705.7
780.812	627.87
780.994	564.39
781.176	650.4
781.358	652.45
781.54	539.81
781.721	593.06
781.903	636.06
782.085	502.95
782.267	527.52
782.448	541.86
782.63	560.29
782.812	625.83
782.993	623.78
783.175	586.91
783.357	513.19
783.538	531.62
783.72	562.34
783.901	599.2
784.083	521.38
784.264	496.8
784.446	461.99
784.627	533.67
784.809	562.34
784.99	421.03
785.172	433.32
785.353	443.56
785.535	527.52
785.716	531.62
785.897	511.14
786.079	459.94
786.26	537.76
786.441	494.76
786.623	492.71
786.804	418.98
786.985	478.37
787.167	384.16
787.348	470.18
787.529	435.36
787.71	416.93
787.891	599.2
788.073	457.89
788.254	509.09
788.435	441.51
788.616	464.04
788.797	416.93
788.978	298.15
789.159	427.17
789.34	468.13
789.522	406.69
789.703	474.28
789.884	371.88
790.065	412.84
790.246	429.22
790.427	369.83
790.607	507.04
790.788	412.84
790.969	347.3
791.15	408.74
791.331	416.93
791.512	380.07
791.693	294.05
791.874	318.63
792.054	408.74
792.235	400.55
792.416	359.59
792.597	412.84
792.778	425.12
792.958	369.83
793.139	357.54
793.32	318.63
793.5	318.63
793.681	367.78
793.862	324.77
794.042	351.4
794.223	265.38
794.404	371.88
794.584	310.44
794.765	238.76
794.945	259.24
795.126	335.01
795.306	341.16
795.487	328.87
795.667	314.53
795.848	365.73
796.028	269.48
796.209	353.45
796.389	275.62
796.57	302.25
796.75	316.58
796.93	259.24
797.111	335.01
797.291	294.05
797.471	339.11
797.652	259.24
797.832	328.87
798.012	232.62
798.192	273.57
798.373	277.67
798.553	298.15
798.733	308.39
798.913	343.21
799.093	216.23
799.274	242.85
799.454	335.01
799.634	257.19
799.814	261.29
799.994	232.62
800.174	218.28
800.354	322.73
800.534	294.05
800.714	361.64
800.894	199.85
801.074	261.29
801.254	210.09
801.434	271.53
801.614	251.05
801.794	251.05
801.974	640.16
802.154	210.09
802.334	271.53
802.514	273.57
802.693	271.53
802.873	224.42
803.053	287.91
803.233	246.95
803.413	249
803.592	158.89
803.772	226.47
803.952	210.09
804.131	210.09
804.311	275.62
804.491	285.86
804.67	238.76
804.85	220.33
805.03	249
805.209	298.15
805.389	257.19
805.568	203.94
805.748	259.24
805.928	216.23
806.107	216.23
806.287	228.52
806.466	210.09
806.646	220.33
806.825	214.18
807.004	171.18
807.184	249
807.363	222.38
807.543	173.22
807.722	238.76
807.901	267.43
808.081	261.29
808.26	203.94
808.439	165.03
808.619	189.61
808.798	195.75
808.977	199.85
809.156	212.14
809.336	144.55
809.515	201.9
809.694	261.29
809.873	216.23
810.052	183.46
810.231	216.23
810.411	169.13
810.59	179.37
810.769	183.46
810.948	197.8
811.127	122.02
811.306	138.41
811.485	148.65
811.664	191.66
811.843	109.74
812.022	234.66
812.201	175.27
812.38	124.07
812.559	122.02
812.737	185.51
812.916	171.18
813.095	162.98
813.274	44.2
813.453	117.93
813.632	210.09
813.811	191.66
813.989	201.9
814.168	130.22
814.347	197.8
814.526	212.14
814.704	103.59
814.883	173.22
815.062	179.37
815.24	138.41
815.419	171.18
815.598	130.22
815.776	169.13
815.955	158.89
816.133	152.74
816.312	162.98
816.49	113.83
816.669	222.38
816.847	144.55
817.026	240.81
817.204	193.7
817.383	122.02
817.561	191.66
817.74	183.46
817.918	181.42
818.097	117.93
818.275	140.46
818.453	173.22
818.632	142.5
818.81	117.93
818.988	132.26
819.167	165.03
819.345	21.67
819.523	187.56
819.701	175.27
819.879	195.75
820.058	126.12
820.236	158.89
820.414	93.35
820.592	208.04
820.77	134.31
820.948	101.55
821.127	132.26
821.305	54.44
821.483	185.51
821.661	138.41
821.839	169.13
822.017	122.02
822.195	107.69
822.373	197.8
822.551	38.06
822.729	150.7
822.907	85.16
823.085	148.65
823.262	128.17
823.44	101.55
823.618	122.02
823.796	105.64
823.974	171.18
824.152	119.98
824.329	109.74
824.507	119.98
824.685	101.55
824.863	85.16
825.04	79.02
825.218	181.42
825.396	142.5
825.574	50.35
825.751	111.78
825.929	171.18
826.107	95.4
826.284	152.74
826.462	122.02
826.639	107.69
826.817	122.02
826.994	105.64
827.172	85.16
827.349	167.08
827.527	126.12
827.704	97.45
827.882	154.79
828.059	152.74
828.237	109.74
828.414	103.59
828.591	146.6
828.769	134.31
828.946	70.83
829.124	158.89
829.301	124.07
829.478	60.59
829.655	93.35
829.833	68.78
830.01	85.16
830.187	83.11
830.364	87.21
830.542	179.37
830.719	76.97
830.896	130.22
831.073	52.39
831.25	103.59
831.427	97.45
831.604	52.39
831.782	66.73
831.959	136.36
832.136	85.16
832.313	146.6
832.49	72.87
832.667	85.16
832.844	36.01
833.021	128.17
833.198	27.82
833.374	83.11
833.551	68.78
833.728	36.01
833.905	132.26
834.082	68.78
834.259	111.78
834.436	140.46
834.612	97.45
834.789	115.88
834.966	48.3
835.143	126.12
835.319	89.26
835.496	85.16
835.673	70.83
835.85	31.91
836.026	85.16
836.203	89.26
836.38	83.11
836.556	83.11
836.733	46.25
836.909	91.31
837.086	50.35
837.262	58.54
837.439	85.16
837.616	70.83
837.792	79.02
837.968	138.41
838.145	-4.95
838.321	79.02
838.498	91.31
838.674	58.54
838.851	81.07
839.027	25.77
839.203	46.25
839.38	40.11
839.556	40.11
839.732	122.02
839.909	99.5
840.085	136.36
840.261	33.96
840.437	60.59
840.614	79.02
840.79	33.96
840.966	66.73
841.142	79.02
841.318	36.01
841.494	111.78
841.671	31.91
841.847	23.72
842.023	126.12
842.199	79.02
842.375	89.26
842.551	109.74
842.727	54.44
842.903	130.22
843.079	107.69
843.255	38.06
843.431	31.91
843.607	119.98
843.783	76.97
843.959	91.31
844.134	54.44
844.31	-11.09
844.486	130.22
844.662	33.96
844.838	76.97
845.013	74.92
845.189	50.35
845.365	126.12
845.541	42.15
845.716	68.78
845.892	58.54
846.068	58.54
846.244	7.34
846.419	76.97
846.595	101.55
846.77	79.02
846.946	31.91
847.122	91.31
847.297	66.73
847.473	81.07
847.648	33.96
847.824	111.78
847.999	70.83
848.175	56.49
848.35	85.16
848.526	56.49
848.701	105.64
848.876	-33.62
849.052	81.07
849.227	66.73
849.403	115.88
849.578	25.77
849.753	36.01
849.929	66.73
850.104	66.73
850.279	44.2
850.454	126.12
850.63	-11.09
850.805	66.73
850.98	64.68
851.155	3.24
851.33	91.31
851.505	-13.14
851.681	42.15
851.856	42.15
852.031	66.73
852.206	62.63
852.381	54.44
852.556	64.68
852.731	38.06
852.906	38.06
853.081	68.78
853.256	27.82
853.431	74.92
853.606	15.53
853.781	13.48
853.956	15.53
854.131	42.15
854.305	27.82
854.48	29.87
854.655	119.98
854.83	42.15
855.005	-27.48
855.18	48.3
855.354	40.11
855.529	97.45
855.704	15.53
855.879	85.16
856.053	40.11
856.228	74.92
856.403	33.96
856.577	48.3
856.752	81.07
856.926	46.25
857.101	58.54
857.276	21.67
857.45	15.53
857.625	42.15
857.799	62.63
857.974	-39.76
858.148	-27.48
858.323	-17.24
858.497	40.11
858.672	58.54
858.846	56.49
859.02	81.07
859.195	31.91
859.369	42.15
859.543	40.11
859.718	50.35
859.892	54.44
860.066	126.12
860.241	44.2
860.415	40.11
860.589	38.06
860.763	66.73
860.938	74.92
861.112	31.91
861.286	72.87
861.46	89.26
861.634	38.06
861.808	48.3
861.982	79.02
862.157	-47.96
862.331	1.19
862.505	-7
862.679	-39.76
862.853	31.91
863.027	40.11
863.201	103.59
863.375	7.34
863.549	-50
863.722	-11.09
863.896	83.11
864.07	-13.14
864.244	83.11
864.418	-7
864.592	11.43
864.766	9.39
864.939	29.87
865.113	68.78
865.287	19.63
865.461	-45.91
865.634	36.01
865.808	52.39
865.982	-0.85
866.156	1.19
866.329	23.72
866.503	11.43
866.676	122.02
866.85	17.58
867.024	58.54
867.197	29.87
867.371	64.68
867.544	-19.29
867.718	46.25
867.891	36.01
868.065	-9.05
868.238	7.34
868.412	-7
868.585	58.54
868.759	19.63
868.932	23.72
869.105	42.15
869.279	27.82
869.452	42.15
869.625	56.49
869.799	103.59
869.972	-9.05
870.145	9.39
870.319	17.58
870.492	15.53
870.665	15.53
870.838	72.87
871.011	29.87
871.185	52.39
871.358	42.15
871.531	7.34
871.704	29.87
871.877	40.11
872.05	3.24
872.223	-15.19
872.396	48.3
872.569	70.83
872.742	-15.19
872.915	68.78
873.088	-0.85
873.261	13.48
873.434	70.83
873.607	5.29
873.78	33.96
873.953	-21.33
874.126	-4.95
874.299	62.63
874.471	-41.81
874.644	-9.05
874.817	-0.85
874.99	83.11
875.163	-4.95
875.335	64.68
875.508	-11.09
875.681	111.78
875.853	11.43
876.026	-7
876.199	70.83
876.371	38.06
876.544	48.3
876.717	42.15
876.889	31.91
877.062	38.06
877.234	23.72
877.407	7.34
877.579	-17.24
877.752	-50
877.924	7.34
878.097	68.78
878.269	27.82
878.442	72.87
878.614	31.91
878.786	-50
878.959	142.5
879.131	-0.85
879.303	-39.76
879.476	9.39
879.648	31.91
879.82	44.2
879.993	-15.19
880.165	-21.33
880.337	3.24
880.509	-37.72
880.681	54.44
880.854	-39.76
881.026	62.63
881.198	70.83
881.37	-41.81
881.542	-35.67
881.714	64.68
881.886	-2.9
882.058	27.82
882.23	23.72
882.402	-17.24
882.574	29.87
882.746	23.72
882.918	85.16
883.09	21.67
883.262	-4.95
883.434	-0.85
883.606	-39.76
883.778	25.77
883.95	60.59
884.122	40.11
884.293	50.35
884.465	36.01
884.637	52.39
884.809	-15.19
884.98	48.3
885.152	23.72
885.324	83.11
885.496	62.63
885.667	64.68
885.839	15.53
886.011	5.29
886.182	52.39
886.354	40.11
886.525	-0.85
886.697	36.01
886.869	13.48
887.04	19.63
887.212	9.39
887.383	42.15
887.555	68.78
887.726	-23.38
887.897	19.63
888.069	3.24
888.24	1.19
888.412	58.54
888.583	38.06
888.754	-0.85
888.926	-13.14
889.097	-7
889.268	38.06
889.44	-58.2
889.611	-13.14
889.782	19.63
889.953	36.01
890.125	54.44
890.296	44.2
890.467	13.48
890.638	-11.09
890.809	33.96
890.98	44.2
891.151	13.48
891.323	101.55
891.494	48.3
891.665	27.82
891.836	-29.52
892.007	-37.72
892.178	64.68
892.349	-23.38
892.52	50.35
892.691	15.53
892.862	46.25
893.032	-47.96
893.203	19.63
893.374	91.31
893.545	31.91
893.716	-0.85
893.887	-2.9
894.057	27.82
894.228	48.3
894.399	52.39
894.57	89.26
894.74	13.48
894.911	42.15
895.082	-60.24
895.253	-54.1
895.423	42.15
895.594	-17.24
895.764	-2.9
895.935	66.73
896.106	70.83
896.276	97.45
896.447	50.35
896.617	29.87
896.788	15.53
896.958	54.44
897.129	-13.14
897.299	44.2
897.47	-13.14
897.64	29.87
897.81	-9.05
897.981	-9.05
898.151	-0.85
898.322	66.73
898.492	-25.43
898.662	11.43
898.832	9.39
899.003	15.53
899.173	17.58
899.343	-11.09
899.513	-7
