Data from USB4F104151__253__11-11-44-697.txt Node

Date: Wed Mar 12 11:11:44 EDT 2025
User: louis
Spectrometer: USB4F10415
Trigger mode: 4
Integration Time (sec): 2.000000E-2
Scans to average: 1
Electric dark correction enabled: true
Nonlinearity correction enabled: false
Boxcar width: 0
XAxis mode: Wavelengths
Number of Pixels in Spectrum: 3648
>>>>>Begin Spectral Data<<<<<
178.204	-24.58
178.424	-24.58
178.644	-24.58
178.864	-38.91
179.084	-77.82
179.304	8.19
179.524	20.48
179.744	16.38
179.964	-18.43
180.184	12.29
180.404	-6.14
180.624	49.15
180.844	43.01
181.064	-51.2
181.283	26.62
181.503	-47.1
181.723	-53.25
181.943	6.14
182.163	32.77
182.383	6.14
182.602	28.67
182.822	47.1
183.042	114.69
183.262	20.48
183.482	-28.67
183.701	71.68
183.921	96.25
184.141	-34.82
184.361	16.38
184.58	24.58
184.8	79.87
185.02	22.53
185.239	-24.58
185.459	-53.25
185.679	88.06
185.898	-8.19
186.118	32.77
186.338	20.48
186.557	51.2
186.777	-40.96
186.997	24.58
187.216	45.06
187.436	47.1
187.655	81.92
187.875	-14.34
188.095	34.82
188.314	53.25
188.534	-2.05
188.753	51.2
188.973	53.25
189.192	22.53
189.412	14.34
189.631	104.45
189.851	-4.1
190.07	20.48
190.29	57.34
190.509	18.43
190.729	79.87
190.948	69.63
191.168	49.15
191.387	55.3
191.607	40.96
191.826	-28.67
192.045	-10.24
192.265	22.53
192.484	6.14
192.704	-12.29
192.923	12.29
193.142	81.92
193.362	51.2
193.581	90.11
193.8	86.01
194.02	53.25
194.239	20.48
194.458	40.96
194.678	22.53
194.897	14.34
195.116	36.86
195.335	-24.58
195.555	53.25
195.774	-34.82
195.993	-6.14
196.212	20.48
196.432	16.38
196.651	16.38
196.87	12.29
197.089	90.11
197.308	71.68
197.528	30.72
197.747	38.91
197.966	81.92
198.185	8.19
198.404	53.25
198.623	28.67
198.842	32.77
199.062	16.38
199.281	67.58
199.5	71.68
199.719	59.39
199.938	38.91
200.157	43.01
200.376	36.86
200.595	20.48
200.814	40.96
201.033	51.2
201.252	38.91
201.471	4.1
201.69	69.63
201.909	24.58
202.128	69.63
202.347	83.97
202.566	-26.62
202.785	-43.01
203.004	30.72
203.223	141.31
203.442	12.29
203.661	30.72
203.879	24.58
204.098	67.58
204.317	6.14
204.536	20.48
204.755	22.53
204.974	71.68
205.193	49.15
205.411	114.69
205.63	96.25
205.849	40.96
206.068	4.1
206.287	49.15
206.505	90.11
206.724	-20.48
206.943	8.19
207.162	-14.34
207.381	-8.19
207.599	0
207.818	59.39
208.037	12.29
208.255	10.24
208.474	18.43
208.693	61.44
208.911	63.49
209.13	-32.77
209.349	8.19
209.567	20.48
209.786	65.54
210.005	69.63
210.223	43.01
210.442	-61.44
210.661	81.92
210.879	6.14
211.098	90.11
211.316	38.91
211.535	102.4
211.753	26.62
211.972	14.34
212.191	16.38
212.409	49.15
212.628	-2.05
212.846	12.29
213.065	-6.14
213.283	34.82
213.502	12.29
213.72	83.97
213.938	110.59
214.157	28.67
214.375	57.34
214.594	18.43
214.812	88.06
215.031	26.62
215.249	-43.01
215.467	-12.29
215.686	40.96
215.904	14.34
216.122	34.82
216.341	73.73
216.559	14.34
216.778	45.06
216.996	4.1
217.214	16.38
217.432	14.34
217.651	-10.24
217.869	-14.34
218.087	-8.19
218.306	-2.05
218.524	61.44
218.742	59.39
218.96	63.49
219.179	-45.06
219.397	55.3
219.615	16.38
219.833	57.34
220.051	16.38
220.27	63.49
220.488	36.86
220.706	24.58
220.924	79.87
221.142	-18.43
221.36	59.39
221.578	28.67
221.796	45.06
222.015	20.48
222.233	57.34
222.451	88.06
222.669	49.15
222.887	90.11
223.105	-20.48
223.323	20.48
223.541	16.38
223.759	63.49
223.977	4.1
224.195	45.06
224.413	57.34
224.631	36.86
224.849	8.19
225.067	73.73
225.285	-32.77
225.503	30.72
225.721	-20.48
225.939	18.43
226.157	36.86
226.375	75.77
226.592	-51.2
226.81	28.67
227.028	51.2
227.246	-51.2
227.464	51.2
227.682	36.86
227.9	28.67
228.117	61.44
228.335	40.96
228.553	88.06
228.771	71.68
228.989	55.3
229.206	71.68
229.424	12.29
229.642	2.05
229.86	22.53
230.077	30.72
230.295	30.72
230.513	67.58
230.731	20.48
230.948	26.62
231.166	98.3
231.384	28.67
231.601	45.06
231.819	32.77
232.037	36.86
232.254	-51.2
232.472	59.39
232.689	57.34
232.907	28.67
233.125	79.87
233.342	-14.34
233.56	-6.14
233.777	32.77
233.995	45.06
234.213	106.49
234.43	75.77
234.648	24.58
234.865	81.92
235.083	24.58
235.3	88.06
235.518	22.53
235.735	34.82
235.953	90.11
236.17	32.77
236.388	16.38
236.605	98.3
236.822	-6.14
237.04	79.87
237.257	55.3
237.475	38.91
237.692	16.38
237.909	40.96
238.127	22.53
238.344	40.96
238.562	63.49
238.779	-4.1
238.996	79.87
239.214	26.62
239.431	67.58
239.648	65.54
239.865	20.48
240.083	6.14
240.3	26.62
240.517	24.58
240.735	43.01
240.952	10.24
241.169	32.77
241.386	55.3
241.603	63.49
241.821	40.96
242.038	16.38
242.255	69.63
242.472	6.14
242.689	-14.34
242.907	83.97
243.124	20.48
243.341	49.15
243.558	-47.1
243.775	6.14
243.992	77.82
244.209	-2.05
244.426	20.48
244.643	14.34
244.86	-34.82
245.078	86.01
245.295	49.15
245.512	51.2
245.729	28.67
245.946	65.54
246.163	59.39
246.38	69.63
246.597	94.21
246.814	28.67
247.031	26.62
247.248	77.82
247.464	71.68
247.681	112.64
247.898	-8.19
248.115	-2.05
248.332	8.19
248.549	69.63
248.766	83.97
248.983	43.01
249.2	24.58
249.417	10.24
249.633	26.62
249.85	-4.1
250.067	-20.48
250.284	8.19
250.501	88.06
250.717	57.34
250.934	14.34
251.151	4.1
251.368	79.87
251.585	24.58
251.801	96.25
252.018	28.67
252.235	126.97
252.451	-2.05
252.668	30.72
252.885	102.4
253.102	-55.3
253.318	-2.05
253.535	16.38
253.752	45.06
253.968	32.77
254.185	51.2
254.401	40.96
254.618	65.54
254.835	65.54
255.051	-26.62
255.268	22.53
255.484	16.38
255.701	63.49
255.917	34.82
256.134	32.77
256.351	36.86
256.567	-36.86
256.784	-10.24
257	53.25
257.217	6.14
257.433	65.54
257.65	24.58
257.866	49.15
258.082	6.14
258.299	-14.34
258.515	55.3
258.732	12.29
258.948	53.25
259.165	55.3
259.381	55.3
259.597	59.39
259.814	-2.05
260.03	40.96
260.246	49.15
260.463	-40.96
260.679	26.62
260.895	43.01
261.112	63.49
261.328	55.3
261.544	22.53
261.761	34.82
261.977	-24.58
262.193	49.15
262.409	108.54
262.626	36.86
262.842	30.72
263.058	-30.72
263.274	16.38
263.49	-8.19
263.707	75.77
263.923	116.73
264.139	24.58
264.355	40.96
264.571	0
264.787	49.15
265.004	83.97
265.22	36.86
265.436	49.15
265.652	20.48
265.868	22.53
266.084	4.1
266.3	55.3
266.516	-67.58
266.732	108.54
266.948	14.34
267.164	67.58
267.38	26.62
267.596	30.72
267.812	4.1
268.028	32.77
268.244	-32.77
268.46	10.24
268.676	98.3
268.892	63.49
269.108	-34.82
269.324	-10.24
269.54	28.67
269.756	14.34
269.972	16.38
270.188	-28.67
270.403	24.58
270.619	6.14
270.835	28.67
271.051	86.01
271.267	-10.24
271.483	28.67
271.698	36.86
271.914	-8.19
272.13	57.34
272.346	0
272.562	-8.19
272.777	75.77
272.993	88.06
273.209	45.06
273.425	-12.29
273.64	2.05
273.856	63.49
274.072	34.82
274.287	129.02
274.503	51.2
274.719	8.19
274.934	88.06
275.15	0
275.366	36.86
275.581	51.2
275.797	-4.1
276.012	-4.1
276.228	20.48
276.444	-20.48
276.659	45.06
276.875	-14.34
277.09	53.25
277.306	30.72
277.521	-8.19
277.737	-45.06
277.952	-2.05
278.168	49.15
278.383	110.59
278.599	16.38
278.814	40.96
279.03	-6.14
279.245	81.92
279.461	10.24
279.676	63.49
279.892	63.49
280.107	36.86
280.322	63.49
280.538	47.1
280.753	-8.19
280.969	112.64
281.184	26.62
281.399	94.21
281.615	-2.05
281.83	55.3
282.045	24.58
282.26	55.3
282.476	65.54
282.691	47.1
282.906	8.19
283.122	63.49
283.337	-40.96
283.552	53.25
283.767	10.24
283.983	34.82
284.198	77.82
284.413	34.82
284.628	38.91
284.843	47.1
285.058	8.19
285.274	63.49
285.489	32.77
285.704	69.63
285.919	36.86
286.134	49.15
286.349	14.34
286.564	88.06
286.779	45.06
286.995	2.05
287.21	73.73
287.425	67.58
287.64	73.73
287.855	67.58
288.07	26.62
288.285	135.17
288.5	36.86
288.715	86.01
288.93	32.77
289.145	6.14
289.36	32.77
289.575	49.15
289.79	135.17
290.004	40.96
290.219	96.25
290.434	49.15
290.649	16.38
290.864	57.34
291.079	10.24
291.294	2.05
291.509	20.48
291.724	81.92
291.938	16.38
292.153	53.25
292.368	40.96
292.583	40.96
292.798	10.24
293.012	45.06
293.227	-2.05
293.442	53.25
293.657	79.87
293.871	6.14
294.086	55.3
294.301	88.06
294.516	45.06
294.73	81.92
294.945	53.25
295.16	86.01
295.374	22.53
295.589	83.97
295.804	14.34
296.018	4.1
296.233	59.39
296.447	81.92
296.662	8.19
296.877	34.82
297.091	86.01
297.306	-36.86
297.52	55.3
297.735	100.35
297.949	36.86
298.164	69.63
298.378	24.58
298.593	36.86
298.807	108.54
299.022	67.58
299.236	36.86
299.451	34.82
299.665	94.21
299.88	4.1
300.094	69.63
300.309	38.91
300.523	14.34
300.737	-14.34
300.952	51.2
301.166	69.63
301.381	24.58
301.595	4.1
301.809	81.92
302.024	63.49
302.238	16.38
302.452	69.63
302.667	36.86
302.881	86.01
303.095	65.54
303.309	28.67
303.524	40.96
303.738	90.11
303.952	43.01
304.166	57.34
304.381	49.15
304.595	20.48
304.809	4.1
305.023	69.63
305.237	28.67
305.452	4.1
305.666	-16.38
305.88	-30.72
306.094	12.29
306.308	129.02
306.522	-10.24
306.736	71.68
306.95	4.1
307.164	61.44
307.379	28.67
307.593	69.63
307.807	55.3
308.021	63.49
308.235	6.14
308.449	81.92
308.663	106.49
308.877	61.44
309.091	38.91
309.305	-26.62
309.519	-28.67
309.733	116.73
309.947	6.14
310.161	30.72
310.374	36.86
310.588	40.96
310.802	88.06
311.016	-22.53
311.23	4.1
311.444	69.63
311.658	-24.58
311.872	129.02
312.085	65.54
312.299	131.07
312.513	69.63
312.727	61.44
312.941	20.48
313.154	28.67
313.368	16.38
313.582	55.3
313.796	-28.67
314.009	75.77
314.223	22.53
314.437	-6.14
314.651	34.82
314.864	32.77
315.078	53.25
315.292	61.44
315.505	112.64
315.719	-26.62
315.933	57.34
316.146	30.72
316.36	45.06
316.573	16.38
316.787	24.58
317.001	28.67
317.214	43.01
317.428	38.91
317.641	30.72
317.855	22.53
318.068	71.68
318.282	71.68
318.495	63.49
318.709	110.59
318.922	12.29
319.136	141.31
319.349	59.39
319.563	45.06
319.776	104.45
319.99	53.25
320.203	30.72
320.417	65.54
320.63	24.58
320.843	139.26
321.057	24.58
321.27	67.58
321.483	-20.48
321.697	16.38
321.91	61.44
322.124	40.96
322.337	59.39
322.55	47.1
322.763	-61.44
322.977	51.2
323.19	20.48
323.403	63.49
323.617	47.1
323.83	8.19
324.043	0
324.256	98.3
324.469	-32.77
324.683	55.3
324.896	53.25
325.109	-28.67
325.322	-12.29
325.535	90.11
325.748	51.2
325.962	71.68
326.175	36.86
326.388	100.35
326.601	126.97
326.814	16.38
327.027	73.73
327.24	108.54
327.453	36.86
327.666	32.77
327.879	12.29
328.092	83.97
328.305	16.38
328.518	43.01
328.731	8.19
328.944	77.82
329.157	110.59
329.37	55.3
329.583	147.45
329.796	69.63
330.009	88.06
330.222	57.34
330.435	65.54
330.648	47.1
330.861	73.73
331.073	118.78
331.286	12.29
331.499	139.26
331.712	71.68
331.925	16.38
332.138	6.14
332.35	-14.34
332.563	14.34
332.776	71.68
332.989	79.87
333.202	24.58
333.414	20.48
333.627	22.53
333.84	75.77
334.053	-10.24
334.265	24.58
334.478	59.39
334.691	24.58
334.903	114.69
335.116	-2.05
335.329	77.82
335.541	73.73
335.754	49.15
335.966	-47.1
336.179	86.01
336.392	6.14
336.604	63.49
336.817	59.39
337.029	18.43
337.242	4.1
337.454	12.29
337.667	96.25
337.88	61.44
338.092	2.05
338.305	55.3
338.517	43.01
338.729	49.15
338.942	106.49
339.154	24.58
339.367	114.69
339.579	45.06
339.792	55.3
340.004	75.77
340.217	120.83
340.429	40.96
340.641	38.91
340.854	32.77
341.066	18.43
341.278	102.4
341.491	30.72
341.703	49.15
341.915	16.38
342.128	129.02
342.34	77.82
342.552	8.19
342.764	94.21
342.977	18.43
343.189	14.34
343.401	61.44
343.613	6.14
343.826	-40.96
344.038	-6.14
344.25	98.3
344.462	-12.29
344.674	112.64
344.886	38.91
345.099	38.91
345.311	86.01
345.523	36.86
345.735	0
345.947	14.34
346.159	57.34
346.371	77.82
346.583	40.96
346.795	75.77
347.007	73.73
347.219	-20.48
347.431	34.82
347.643	51.2
347.855	61.44
348.067	135.17
348.279	16.38
348.491	6.14
348.703	45.06
348.915	86.01
349.127	100.35
349.339	40.96
349.551	88.06
349.763	112.64
349.975	49.15
350.187	141.31
350.399	96.25
350.61	63.49
350.822	40.96
351.034	102.4
351.246	2.05
351.458	18.43
351.669	55.3
351.881	24.58
352.093	133.12
352.305	-32.77
352.517	12.29
352.728	8.19
352.94	55.3
353.152	18.43
353.363	40.96
353.575	30.72
353.787	28.67
353.999	10.24
354.21	40.96
354.422	122.88
354.633	73.73
354.845	45.06
355.057	83.97
355.268	43.01
355.48	90.11
355.692	63.49
355.903	51.2
356.115	53.25
356.326	30.72
356.538	4.1
356.749	57.34
356.961	116.73
357.172	0
357.384	38.91
357.595	73.73
357.807	100.35
358.018	30.72
358.23	49.15
358.441	47.1
358.653	51.2
358.864	-24.58
359.075	-28.67
359.287	77.82
359.498	81.92
359.709	71.68
359.921	49.15
360.132	112.64
360.344	45.06
360.555	32.77
360.766	34.82
360.977	55.3
361.189	90.11
361.4	79.87
361.611	122.88
361.823	71.68
362.034	67.58
362.245	20.48
362.456	40.96
362.667	24.58
362.879	-16.38
363.09	2.05
363.301	81.92
363.512	26.62
363.723	94.21
363.935	73.73
364.146	8.19
364.357	-30.72
364.568	61.44
364.779	38.91
364.99	81.92
365.201	81.92
365.412	86.01
365.623	16.38
365.834	34.82
366.045	36.86
366.256	92.16
366.467	55.3
366.678	63.49
366.889	55.3
367.1	32.77
367.311	116.73
367.522	114.69
367.733	24.58
367.944	18.43
368.155	20.48
368.366	34.82
368.577	122.88
368.788	32.77
368.999	22.53
369.209	61.44
369.42	8.19
369.631	151.55
369.842	118.78
370.053	36.86
370.264	20.48
370.474	129.02
370.685	69.63
370.896	116.73
371.107	81.92
371.317	65.54
371.528	75.77
371.739	28.67
371.95	61.44
372.16	149.5
372.371	59.39
372.582	100.35
372.792	61.44
373.003	63.49
373.214	51.2
373.424	112.64
373.635	6.14
373.846	79.87
374.056	40.96
374.267	114.69
374.477	83.97
374.688	63.49
374.898	104.45
375.109	28.67
375.319	102.4
375.53	141.31
375.74	49.15
375.951	75.77
376.161	69.63
376.372	24.58
376.582	86.01
376.793	51.2
377.003	59.39
377.214	20.48
377.424	49.15
377.635	102.4
377.845	90.11
378.055	100.35
378.266	65.54
378.476	96.25
378.686	73.73
378.897	98.3
379.107	45.06
379.317	94.21
379.528	40.96
379.738	59.39
379.948	55.3
380.158	28.67
380.369	114.69
380.579	86.01
380.789	67.58
380.999	81.92
381.21	73.73
381.42	135.17
381.63	-49.15
381.84	55.3
382.05	137.21
382.261	61.44
382.471	53.25
382.681	12.29
382.891	59.39
383.101	104.45
383.311	28.67
383.521	-8.19
383.731	32.77
383.941	67.58
384.151	75.77
384.361	116.73
384.571	49.15
384.781	106.49
384.991	167.93
385.201	178.17
385.411	61.44
385.621	86.01
385.831	51.2
386.041	26.62
386.251	61.44
386.461	96.25
386.671	73.73
386.881	38.91
387.091	73.73
387.301	73.73
387.511	47.1
387.72	73.73
387.93	67.58
388.14	110.59
388.35	40.96
388.56	106.49
388.769	22.53
388.979	61.44
389.189	-18.43
389.399	10.24
389.609	38.91
389.818	98.3
390.028	14.34
390.238	112.64
390.447	65.54
390.657	102.4
390.867	81.92
391.076	20.48
391.286	110.59
391.496	38.91
391.705	47.1
391.915	98.3
392.125	86.01
392.334	34.82
392.544	55.3
392.753	110.59
392.963	61.44
393.172	45.06
393.382	36.86
393.591	92.16
393.801	43.01
394.01	71.68
394.22	57.34
394.429	40.96
394.639	36.86
394.848	86.01
395.058	151.55
395.267	34.82
395.477	73.73
395.686	139.26
395.895	116.73
396.105	147.45
396.314	63.49
396.524	88.06
396.733	61.44
396.942	129.02
397.152	102.4
397.361	90.11
397.57	59.39
397.78	110.59
397.989	94.21
398.198	151.55
398.407	174.08
398.617	102.4
398.826	129.02
399.035	96.25
399.244	129.02
399.453	108.54
399.663	83.97
399.872	110.59
400.081	49.15
400.29	126.97
400.499	22.53
400.708	198.65
400.917	100.35
401.127	110.59
401.336	28.67
401.545	186.37
401.754	167.93
401.963	159.74
402.172	120.83
402.381	120.83
402.59	151.55
402.799	184.32
403.008	145.41
403.217	137.21
403.426	165.89
403.635	112.64
403.844	159.74
404.053	139.26
404.262	102.4
404.471	129.02
404.68	98.3
404.888	153.6
405.097	129.02
405.306	237.56
405.515	188.41
405.724	182.27
405.933	182.27
406.142	194.56
406.35	262.14
406.559	143.36
406.768	233.47
406.977	155.65
407.185	243.71
407.394	239.61
407.603	190.46
407.812	233.47
408.02	253.95
408.229	206.84
408.438	266.24
408.646	235.52
408.855	266.24
409.064	337.91
409.272	264.19
409.481	290.81
409.69	208.89
409.898	352.25
410.107	303.1
410.315	299
410.524	331.77
410.733	436.22
410.941	364.54
411.15	331.77
411.358	454.65
411.567	448.51
411.775	430.07
411.984	446.46
412.192	487.42
412.401	471.03
412.609	577.53
412.818	559.1
413.026	573.43
413.234	569.34
413.443	598.01
413.651	604.15
413.86	628.73
414.068	628.73
414.276	651.25
414.485	657.4
414.693	751.6
414.901	667.64
415.11	763.89
415.318	806.9
415.526	843.76
415.734	845.81
415.943	851.96
416.151	915.44
416.359	876.53
416.567	892.91
416.776	1003.5
416.984	987.12
417.192	1116.14
417.4	970.74
417.608	1118.19
417.817	1075.18
418.025	1183.73
418.233	1259.5
418.441	1239.02
418.649	1282.03
418.857	1269.74
419.065	1314.8
419.273	1359.85
419.481	1376.23
419.689	1509.35
419.897	1527.78
420.105	1730.53
420.313	1615.85
420.521	1677.29
420.729	1845.22
420.937	1859.56
421.145	1943.52
421.353	1865.7
421.561	1984.48
421.769	2011.11
421.977	2273.25
422.185	2125.79
422.393	2236.38
422.601	2349.02
422.809	2322.4
423.017	2533.34
423.224	2514.91
423.432	2658.26
423.64	2600.92
423.848	2938.84
424.056	2856.92
424.263	3106.77
424.471	2957.27
424.679	2938.84
424.887	3188.69
425.094	3366.86
425.302	3327.95
425.51	3420.11
425.718	3569.61
425.925	3452.88
426.133	3762.12
426.341	4114.37
426.548	4038.59
426.756	4147.14
426.964	4247.49
427.171	4319.17
427.379	4499.39
427.586	4650.94
427.794	4741.05
428.001	4802.49
428.209	5128.11
428.417	5162.93
428.624	5582.76
428.832	5513.13
429.039	5425.07
429.247	5486.51
429.454	5967.78
429.662	6287.26
429.869	6043.56
430.076	6397.85
430.284	6098.85
430.491	6483.87
430.699	6676.38
430.906	6850.46
431.114	6780.82
431.321	7159.7
431.528	7323.54
431.736	7743.37
431.943	8097.67
432.15	7761.8
432.358	8075.14
432.565	8478.59
432.772	8335.23
432.979	8968.06
433.187	9115.51
433.394	8968.06
433.601	9568.11
433.808	9787.24
434.016	9590.64
434.223	10127.21
434.43	10608.48
434.637	10336.1
434.844	11030.36
435.052	11302.74
435.259	11186.01
435.466	11425.62
435.673	11210.58
435.88	12355.4
436.087	12513.09
436.294	12638.02
436.501	12431.17
436.708	12627.78
436.915	12787.52
437.122	13496.11
437.329	13629.23
437.537	14079.79
437.743	14063.4
437.95	14016.3
438.157	14561.06
438.364	15267.61
438.571	15337.24
438.778	15183.64
438.985	16715.52
439.192	16086.79
439.399	16504.58
439.606	16148.23
439.813	17051.39
440.02	18128.62
440.227	17954.54
440.433	17477.37
440.64	18302.7
440.847	17860.34
441.054	18441.96
441.261	19810
441.467	19334.87
441.674	20162.25
441.881	20643.52
442.088	20489.93
442.294	20475.59
442.501	20928.19
442.708	21251.77
442.914	22138.54
443.121	22990.5
443.328	22427.31
443.534	23912.08
443.741	23369.37
443.948	23021.22
444.154	24893.06
444.361	24714.89
444.568	24872.58
444.774	24755.85
444.981	24919.68
445.187	25738.87
445.394	26760.81
445.6	26383.98
445.807	29269.57
446.013	27803.22
446.22	28429.9
446.426	29480.51
446.633	29369.92
446.839	30545.45
447.046	29017.67
447.252	31182.37
447.459	31000.1
447.665	30852.65
447.871	32208.4
448.078	33500.67
448.284	31559.2
448.491	32790.03
448.697	34084.34
448.903	34559.47
449.11	34534.9
449.316	33715.71
449.522	35108.33
449.728	35380.71
449.935	35808.73
450.141	35657.18
450.347	36529.62
450.553	35501.54
450.76	35730.91
450.966	36675.02
451.172	36500.95
451.378	37250.5
451.584	36615.63
451.791	37531.08
451.997	37021.13
452.203	37641.67
452.409	37852.61
452.615	37774.78
452.821	36210.14
453.027	35798.49
453.233	37780.93
453.44	36312.53
453.646	36296.15
453.852	36818.38
454.058	37297.61
454.264	36081.11
454.47	36722.13
454.676	35804.64
454.882	37096.91
455.088	33873.4
455.294	34493.94
455.5	35001.83
455.705	35345.89
455.911	34031.1
456.117	33193.48
456.323	32947.72
456.529	30737.96
456.735	32181.78
456.941	31434.27
457.147	30912.04
457.352	29976.12
457.558	29871.67
457.764	29681.21
457.97	29181.51
458.176	28632.65
458.381	28321.36
458.587	27014.76
458.793	26750.57
458.999	25871.99
459.204	27623
459.41	27053.67
459.616	24938.12
459.821	25177.73
460.027	24737.41
460.233	24260.24
460.438	23127.71
460.644	23631.51
460.85	22283.95
461.055	22132.4
461.261	22124.21
461.466	20410.06
461.672	19873.49
461.878	21190.33
462.083	19838.67
462.289	19470.04
462.494	19068.64
462.7	18335.46
462.905	18020.08
463.111	18542.31
463.316	18663.14
463.522	18202.35
463.727	18157.29
463.932	17938.16
464.138	17889.01
464.343	18034.41
464.549	17608.44
464.754	18360.04
464.959	18058.99
465.165	17862.38
465.37	17215.23
465.575	16824.06
465.781	17295.1
465.986	17434.36
466.191	16989.95
466.397	16482.05
466.602	15552.27
466.807	16256.78
467.012	16344.84
467.218	16314.12
467.423	16137.99
467.628	16031.5
467.833	16848.64
468.038	15914.77
468.244	15570.71
468.449	16221.96
468.654	15759.12
468.859	15601.43
469.064	15574.8
469.269	15081.24
469.474	14903.07
469.679	15535.89
469.885	14812.96
470.09	15116.06
470.295	14984.99
470.5	14755.61
470.705	14823.2
470.91	14384.93
471.115	14149.42
471.32	14397.22
471.525	14280.49
471.73	13924.14
471.935	14157.61
472.139	13481.78
472.344	13555.51
472.549	13291.32
472.754	13332.28
472.959	13293.37
473.164	12812.09
473.369	12705.6
473.574	13209.4
473.778	13084.47
473.983	12988.22
474.188	12863.29
474.393	12281.67
474.598	12304.2
474.802	12306.24
475.007	12076.87
475.212	11960.14
475.417	11665.23
475.621	11626.32
475.826	11611.98
476.031	11454.29
476.235	11413.33
476.44	11448.15
476.645	11571.02
476.849	11216.72
477.054	11073.37
477.259	10950.49
477.463	10794.84
477.668	10721.12
477.872	10841.95
478.077	10563.42
478.282	10389.35
478.486	10170.21
478.691	10084.2
478.895	10168.16
479.1	10149.73
479.304	10116.97
479.509	9693.04
479.713	10116.97
479.918	9887.59
480.122	9807.72
480.326	9676.65
480.531	9727.85
480.735	9740.14
480.94	9504.62
481.144	9869.16
481.348	9269.11
481.553	9682.8
481.757	9398.13
481.961	9561.97
482.166	9586.54
482.37	9455.47
482.574	9381.74
482.778	9330.55
482.983	9451.38
483.187	9545.58
483.391	9336.69
483.595	9424.75
483.8	9176.95
484.004	9508.72
484.208	9314.16
484.412	9412.46
484.616	9365.36
484.821	9338.74
485.025	9199.48
485.229	9359.22
485.433	9451.38
485.637	9434.99
485.841	9201.52
486.045	9289.59
486.249	9187.19
486.453	9281.39
486.657	9377.65
486.861	9297.78
487.065	8968.06
487.269	9361.27
487.473	8992.63
487.677	9371.51
487.881	9170.8
488.085	9260.91
488.289	9408.37
488.493	9158.52
488.697	9539.44
488.901	9334.64
489.105	9465.71
489.309	9260.91
489.512	9328.5
489.716	9549.68
489.92	9312.11
490.124	9246.58
490.328	9574.25
490.531	9449.33
490.735	9682.8
490.939	9676.65
491.143	9400.18
491.346	9678.7
491.55	9662.32
491.754	9451.38
491.958	9715.56
492.161	9688.94
492.365	9744.24
492.569	9748.33
492.772	9873.26
492.976	9777
493.18	10014.57
493.383	10051.43
493.587	10131.3
493.79	10268.52
493.994	10076.01
494.197	10217.32
494.401	10178.4
494.605	10293.09
494.808	10364.77
495.012	10286.95
495.215	10489.7
495.419	10626.91
495.622	10692.44
495.825	10610.53
496.029	10776.41
496.232	11050.84
496.436	10813.27
496.639	11024.22
496.843	11018.07
497.046	11368.27
497.249	11476.82
497.453	11444.05
497.656	11689.81
497.859	11583.31
498.063	11775.82
498.266	11853.64
498.469	12023.62
498.673	12068.68
498.876	12357.44
499.079	12523.33
499.282	12289.86
499.485	12808
499.689	12687.17
499.892	12799.8
500.095	12910.4
500.298	13053.75
500.501	13076.28
500.705	13494.07
500.908	13739.82
501.111	13807.41
501.314	13823.79
501.517	14268.2
501.72	14112.55
501.923	14087.98
502.126	14378.79
502.329	14638.88
502.532	14798.62
502.735	14599.97
502.938	15007.52
503.141	15095.58
503.344	15441.68
503.547	15347.48
503.75	15752.98
503.953	16000.78
504.156	15996.68
504.359	16316.17
504.562	16074.51
504.765	16586.5
504.968	16523.01
505.17	16715.52
505.373	16887.55
505.576	17051.39
505.779	17639.15
505.982	17520.37
506.185	17663.73
506.387	18056.94
506.59	17917.68
506.793	18487.01
506.996	18095.85
507.198	18839.26
507.401	18581.22
507.604	18900.7
507.807	19302.11
508.009	19584.73
508.212	19504.85
508.415	19683.03
508.617	20049.61
508.82	19893.97
509.022	19791.57
509.225	20291.27
509.428	20563.65
509.63	20321.99
509.833	20979.39
510.035	21419.71
510.238	20946.62
510.44	21337.79
510.643	21835.44
510.845	21890.74
511.048	22007.47
511.25	22333.1
511.453	22625.96
511.655	23183.01
511.858	22695.59
512.06	23027.36
512.262	23201.44
512.465	23596.7
512.667	23854.74
512.87	24223.37
513.072	24008.34
513.274	24411.79
513.477	24745.61
513.679	24876.68
513.881	24966.79
514.084	25519.74
514.286	25292.41
514.488	25413.24
514.69	26580.59
514.893	26349.17
515.095	26363.5
515.297	26660.46
515.499	26789.48
515.701	26902.12
515.904	27252.32
516.106	27567.71
516.308	28186.19
516.51	28218.96
516.712	28040.79
516.914	28384.85
517.116	28890.7
517.318	28999.24
517.52	29085.25
517.722	29138.5
517.925	29636.16
518.127	30010.93
518.329	30180.92
518.531	30090.8
518.733	30326.32
518.935	30701.1
519.136	30819.88
519.338	31221.28
519.54	31405.6
519.742	31536.67
519.944	31786.52
520.146	32153.11
520.348	32271.89
520.55	32468.5
520.752	32654.86
520.954	33451.52
521.155	33484.29
521.357	33310.21
521.559	33349.12
521.761	34117.11
521.963	34573.81
522.164	34311.67
522.366	34547.18
522.568	35151.34
522.77	34784.75
522.971	35196.39
523.173	34907.63
523.375	35335.65
523.576	35730.91
523.778	35919.32
523.98	35968.48
524.181	36300.25
524.383	36292.05
524.584	37084.62
524.786	36603.35
524.988	36529.62
525.189	36963.79
525.391	37264.84
525.592	37539.27
525.794	37393.86
525.995	37449.16
526.197	37899.71
526.398	37766.59
526.6	37942.72
526.801	38397.37
527.003	38589.88
527.204	38462.9
527.406	38692.27
527.607	38610.35
527.808	39052.72
528.01	38495.67
528.211	38796.72
528.412	39327.14
528.614	39701.92
528.815	39474.6
529.016	39841.18
529.218	39517.61
529.419	39542.18
529.62	39495.08
529.822	39888.29
530.023	39781.79
530.224	39490.98
530.425	39835.04
530.626	39609.76
530.828	39511.46
531.029	40408.47
531.23	39724.45
531.431	40056.22
531.632	40199.58
531.833	40695.19
532.035	40181.15
532.236	40275.35
532.437	40158.62
532.638	40232.35
532.839	40445.33
533.04	40791.44
533.241	40099.23
533.442	40641.94
533.643	40705.43
533.844	40648.08
534.045	40568.21
534.246	40088.99
534.447	40820.11
534.648	40306.07
534.849	40437.14
535.05	40070.56
535.251	40588.69
535.451	40408.47
535.652	40813.97
535.853	40646.04
536.054	40443.29
536.255	40560.02
536.456	40281.5
536.657	41346.44
536.857	40625.56
537.058	40736.15
537.259	40453.53
537.46	40904.08
537.66	40455.57
537.861	40713.62
538.062	40498.58
538.263	40957.33
538.463	40670.61
538.664	40392.09
538.865	40914.32
539.065	41035.15
539.266	40431
539.466	40820.11
539.667	39916.96
539.868	41170.32
540.068	40986
540.269	40680.85
540.469	40785.3
540.67	40285.59
540.87	40355.22
541.071	40826.26
541.271	40838.54
541.472	40387.99
541.672	40314.26
541.873	40230.3
542.073	39898.53
542.274	40897.94
542.474	40273.31
542.675	39994.78
542.875	41160.08
543.075	40498.58
543.276	39753.12
543.476	40517.01
543.676	40293.79
543.877	40414.62
544.077	40512.92
544.277	40068.51
544.478	40072.6
544.678	40387.99
544.878	40076.7
545.078	40482.2
545.279	39912.86
545.479	40076.7
545.679	40148.38
545.879	40308.12
546.079	40359.32
546.28	40134.04
546.48	39912.86
546.68	40412.57
546.88	40132
547.08	40093.08
547.28	40072.6
547.48	39847.33
547.68	40324.5
547.88	39665.06
548.081	40203.67
548.281	39937.44
548.481	39699.87
548.681	40295.83
548.881	39927.2
549.081	39878.05
549.28	39665.06
549.48	40371.61
549.68	39603.62
549.88	40232.35
550.08	39857.57
550.28	40291.74
550.48	39536.04
550.68	40218.01
550.88	39605.67
551.08	39720.35
551.279	39921.05
551.479	39527.84
551.679	39851.42
551.879	39685.54
552.079	39841.18
552.278	39480.74
552.478	39765.41
552.678	39556.52
552.878	40211.87
553.077	39732.64
553.277	39216.55
553.477	39761.31
553.676	39359.91
553.876	39433.64
554.076	39511.46
554.275	39361.96
554.475	39337.38
554.674	39302.57
554.874	39628.2
555.074	39138.73
555.273	39398.82
555.473	39384.49
555.672	39089.58
555.872	39024.04
556.071	39200.17
556.271	39327.14
556.47	38923.69
556.67	38356.41
556.869	38688.18
557.068	39011.76
557.268	38438.33
557.467	38880.69
557.667	38581.68
557.866	38776.24
558.065	38862.25
558.265	38573.49
558.464	38530.48
558.663	38593.97
558.863	38215.1
559.062	38544.82
559.261	38055.36
559.461	38319.54
559.66	38198.71
559.859	38430.13
560.058	37696.96
560.258	38262.2
560.457	37795.26
560.656	38327.74
560.855	37830.08
561.054	37995.96
561.253	37883.33
561.453	37823.93
561.652	37969.34
561.851	37903.81
562.05	37457.35
562.249	37293.51
562.448	37598.66
562.647	37733.82
562.846	36982.22
563.045	37508.55
563.244	36894.16
563.443	37365.19
563.642	36957.64
563.841	37264.84
564.04	36566.48
564.239	37148.11
564.438	36619.73
564.637	36748.75
564.836	37080.52
565.035	36562.39
565.234	36787.66
565.432	36548.05
565.631	36265.43
565.83	36388.31
566.029	36300.25
566.228	36015.58
566.427	36314.58
566.625	35991
566.824	35378.66
567.023	36189.66
567.222	35702.24
567.42	36206.04
567.619	35235.3
567.818	35509.73
568.016	35331.56
568.215	35589.6
568.414	35579.36
568.612	35638.75
568.811	35366.37
569.01	35413.48
569.208	34840.04
569.407	35149.29
569.605	34719.21
569.804	34997.74
570.002	34926.06
570.201	35104.23
570.4	34661.87
570.598	34495.99
570.797	34514.42
570.995	34596.34
571.193	34119.16
571.392	34731.5
571.59	34268.66
571.789	34350.58
571.987	33920.51
572.186	33902.07
572.384	33486.34
572.582	34088.44
572.781	33789.44
572.979	33633.79
573.177	33486.34
573.376	33670.65
573.574	33414.66
573.772	33576.45
573.971	33193.48
574.169	33314.31
574.367	33003.02
574.565	33295.88
574.763	32867.85
574.962	32695.82
575.16	32275.99
575.358	32992.78
575.556	32278.04
575.754	32806.41
575.952	32019.99
576.151	32433.68
576.349	32245.27
576.547	32065.05
576.745	32149.01
576.943	32167.45
577.141	31835.67
577.339	32153.11
577.537	31708.7
577.735	31659.55
577.933	31594.01
578.131	31829.53
578.329	31663.64
578.527	31186.47
578.725	31532.57
578.923	31487.52
579.121	31430.18
579.319	30916.14
579.516	31340.07
579.714	30873.13
579.912	30496.3
580.11	30686.76
580.308	30969.38
580.506	30729.77
580.704	30271.03
580.901	30866.98
581.099	30762.54
581.297	30486.06
581.495	30076.47
581.692	29963.83
581.89	29746.75
582.088	30236.21
582.285	30354.99
582.483	30113.33
582.681	29945.4
582.878	30090.8
583.076	29361.73
583.274	30029.37
583.471	29515.33
583.669	29472.32
583.866	29396.54
584.064	29742.65
584.262	29175.36
584.459	29210.18
584.657	28931.65
584.854	29212.23
585.052	28542.54
585.249	29193.79
585.447	28964.42
585.644	28831.3
585.841	28765.77
586.039	28884.55
586.236	28327.5
586.434	28290.64
586.631	28429.9
586.828	28415.57
587.026	28479.05
587.223	28423.76
587.42	28059.22
587.618	27952.73
587.815	27848.28
588.012	27803.22
588.21	27586.14
588.407	27842.14
588.604	27453.02
588.801	27272.8
588.999	27412.06
589.196	27375.2
589.393	27559.52
589.59	27397.73
589.787	27233.89
589.984	27098.72
590.182	26721.9
590.379	26678.89
590.576	26916.45
590.773	26773.1
590.97	26644.07
591.167	26637.93
591.364	26553.96
591.561	26439.28
591.758	26455.66
591.955	26060.4
592.152	26584.68
592.349	26189.42
592.546	26181.23
592.743	26207.86
592.94	25841.27
593.137	25882.23
593.334	25857.65
593.531	25454.2
593.727	25792.12
593.924	25759.35
594.121	25493.11
594.318	25618.04
594.515	25380.48
594.712	25613.95
594.908	25257.6
595.105	25460.35
595.302	25042.56
595.499	24938.12
595.696	25069.19
595.892	24850.05
596.089	24807.05
596.286	24911.49
596.482	24594.06
596.679	24811.14
596.876	24563.34
597.072	24258.19
597.269	24370.83
597.466	24133.26
597.662	24237.71
597.859	23850.64
598.055	23905.94
598.252	23836.31
598.448	24008.34
598.645	23850.64
598.841	23684.76
599.038	23764.63
599.234	23594.65
599.431	23242.4
599.627	23174.81
599.824	23578.26
600.02	23176.86
600.217	23654.04
600.413	23305.88
600.609	23008.93
600.806	23131.81
601.002	23299.74
601.198	22953.63
601.395	22845.09
601.591	22679.21
601.787	22863.52
601.984	22628.01
602.18	22795.94
602.376	22490.79
602.572	22384.3
602.769	22466.22
602.965	21880.5
603.161	22060.72
603.357	22148.78
603.553	21919.41
603.75	22064.82
603.946	21954.22
604.142	22320.81
604.338	21647.03
604.534	21810.87
604.73	21569.21
604.926	21720.76
605.122	21747.38
605.318	21669.56
605.514	21583.54
605.71	21415.61
605.906	21368.51
606.102	21094.08
606.298	21087.93
606.494	21268.16
606.69	21370.55
606.886	21329.59
607.082	21137.09
607.278	21223.1
607.474	20731.59
607.67	20870.85
607.866	20668.1
608.062	21020.35
608.257	20762.31
608.453	20614.85
608.649	20539.08
608.845	20709.06
609.041	20821.7
609.236	20545.22
609.432	20457.16
609.628	20457.16
609.824	20346.57
610.019	20448.97
610.215	20172.49
610.411	20258.51
610.606	19959.5
610.802	20367.05
610.998	20104.91
611.193	20149.96
611.389	19875.54
611.584	19961.55
611.78	20203.21
611.976	19826.39
612.171	19967.7
612.367	19594.96
612.562	19429.08
612.758	19617.49
612.953	19719.89
613.149	19893.97
613.344	19771.09
613.539	19812.05
613.735	19861.2
613.93	19517.14
614.126	19562.2
614.321	19678.93
614.517	19562.2
614.712	19220.19
614.907	19150.56
615.103	19482.33
615.298	19257.05
615.493	19482.33
615.688	18996.96
615.884	19457.75
616.079	18999.01
616.274	19255
616.47	18837.22
616.665	18960.09
616.86	19177.18
617.055	18956
617.25	19025.63
617.445	19234.52
617.641	19074.78
617.836	18855.65
618.031	18878.18
618.226	18759.39
618.421	18597.6
618.616	18779.87
618.811	18425.57
619.006	18783.97
619.201	18026.22
619.396	18341.61
619.591	18198.25
619.786	18296.55
619.981	17940.21
620.176	18159.34
620.371	18015.98
620.566	18085.61
620.761	17872.62
620.956	17829.62
621.151	17641.2
621.346	17751.79
621.541	17592.05
621.735	17708.79
621.93	17188.6
622.125	17512.18
622.32	17067.77
622.515	17291
622.709	16916.22
622.904	17002.24
623.099	16856.83
623.294	16801.54
623.488	16692.99
623.683	16733.95
623.878	16529.16
624.072	16516.87
624.267	16410.37
624.462	16170.76
624.656	16387.85
624.851	16078.6
625.046	16033.55
625.24	16142.09
625.435	15740.69
625.629	16072.46
625.824	15748.88
626.018	15486.74
626.213	15427.35
626.407	15630.1
626.602	15060.76
626.796	15404.82
626.991	15107.87
627.185	15245.08
627.38	15093.53
627.574	15044.38
627.768	14886.68
627.963	14765.85
628.157	14849.82
628.352	14685.98
628.546	14423.84
628.74	14698.27
628.935	14346.02
629.129	14303.01
629.323	14069.55
629.517	14067.5
629.712	14028.59
629.906	13926.19
630.1	13901.61
630.294	13799.21
630.489	13778.73
630.683	13856.56
630.877	13522.74
631.071	13600.56
631.265	13598.51
631.459	13461.3
631.653	13477.68
631.848	13317.94
632.042	13068.09
632.236	13139.77
632.43	13201.21
632.624	13174.58
632.818	12969.79
633.012	12842.81
633.206	12648.25
633.4	12916.54
633.594	12781.37
633.788	12582.72
633.982	12701.5
634.176	12504.9
634.369	12353.35
634.563	12406.59
634.757	12437.31
634.951	12197.7
635.145	12281.67
635.339	12435.27
635.533	11951.95
635.726	12066.63
635.92	11761.48
636.114	11738.96
636.308	11771.72
636.501	11730.76
636.695	11706.19
636.889	11650.89
637.083	11704.14
637.276	11609.93
637.47	11294.55
637.664	11347.79
637.857	11382.61
638.051	11108.18
638.244	11231.06
638.438	11302.74
638.632	11239.25
638.825	11097.94
639.019	10913.63
639.212	10837.85
639.406	10887
639.599	10909.53
639.793	10835.8
639.986	10628.96
640.18	10618.72
640.373	10780.51
640.567	10383.2
640.76	10334.05
640.954	10477.41
641.147	10266.47
641.34	10305.38
641.534	10444.64
641.727	10461.02
641.92	10405.73
642.114	10026.85
642.307	10143.59
642.5	10016.62
642.694	9924.46
642.887	9717.61
643.08	10071.91
643.273	9774.95
643.467	9801.58
643.66	9664.36
643.853	9647.98
644.046	9457.52
644.239	9582.45
644.432	9488.24
644.626	9459.57
644.819	9490.29
645.012	9342.83
645.205	9607.02
645.398	9394.03
645.591	9027.45
645.784	9207.67
645.977	9013.11
646.17	9092.98
646.363	8984.44
646.556	8918.9
646.749	8990.58
646.942	9043.83
647.135	8796.03
647.328	8843.13
647.521	8697.72
647.714	8664.96
647.907	8660.86
648.099	8646.52
648.292	8533.89
648.485	8429.44
648.678	8417.15
648.871	8277.89
649.064	8380.29
649.256	8525.69
649.449	8212.35
649.642	8069
649.835	8114.05
650.027	8085.38
650.22	8142.72
650.413	8157.06
650.605	8052.61
650.798	8195.97
650.991	7862.15
651.183	8060.8
651.376	7765.9
651.568	7899.02
651.761	7888.78
651.954	7749.51
652.146	7778.19
652.339	7735.18
652.531	7597.96
652.724	7604.11
652.916	7483.28
653.109	7536.52
653.301	7550.86
653.494	7528.33
653.686	7411.6
653.879	7393.17
654.071	7178.13
654.263	7378.83
654.456	7315.34
654.648	7212.95
654.84	7002.01
655.033	7171.99
655.225	7253.91
655.417	7126.93
655.61	6946.71
655.802	6944.66
655.994	6961.05
656.186	6928.28
656.379	6954.9
656.571	6707.1
656.763	6860.7
656.955	6782.87
657.148	6760.34
657.34	6690.71
657.532	6852.5
657.724	6612.89
657.916	6563.74
658.108	6637.47
658.3	6518.68
658.492	6504.35
658.684	6313.89
658.876	6553.5
659.068	6246.3
659.26	6365.09
659.452	6367.13
659.644	6379.42
659.836	6209.44
660.028	6277.02
660.22	6199.2
660.412	6168.48
660.604	6152.1
660.796	6137.76
660.988	6064.04
661.18	6051.75
661.372	6066.08
661.563	6004.64
661.755	5791.66
661.947	5842.85
662.139	5803.94
662.331	5834.66
662.522	5701.54
662.714	5748.65
662.906	5674.92
663.097	5846.95
663.289	5648.3
663.481	5722.02
663.673	5648.3
663.864	5498.8
664.056	5384.11
664.247	5654.44
664.439	5500.84
664.631	5550
664.822	5590.95
665.014	5457.84
665.205	5425.07
665.397	5328.81
665.588	5349.29
665.78	5357.49
665.971	5345.2
666.163	5261.23
666.354	5341.1
666.546	5261.23
666.737	5222.32
666.929	5062.58
667.12	5101.49
667.311	4978.61
667.503	5115.83
667.694	5199.79
667.885	5078.96
668.077	5160.88
668.268	5097.39
668.459	4937.65
668.651	4902.84
668.842	4843.45
669.033	4943.8
669.224	5005.24
669.416	4825.01
669.607	4847.54
669.798	4790.2
669.989	4677.56
670.18	4857.78
670.371	4777.91
670.563	4732.86
670.754	4792.25
670.945	4665.27
671.136	4616.12
671.327	4523.96
671.518	4753.34
671.709	4564.92
671.9	4607.93
672.091	4620.22
672.282	4480.96
672.473	4562.87
672.664	4528.06
672.855	4507.58
673.046	4409.28
673.237	4478.91
673.428	4313.02
673.619	4497.34
673.809	4349.89
674	4308.93
674.191	4364.22
674.382	4327.36
674.573	4433.85
674.764	4261.82
674.954	4362.17
675.145	4227.01
675.336	4351.93
675.527	4089.79
675.717	4036.55
675.908	4081.6
676.099	4140.99
676.289	4038.59
676.48	4067.27
676.671	4073.41
676.861	4237.25
677.052	4020.16
677.243	4077.51
677.433	4104.13
677.624	4153.28
677.814	3936.2
678.005	4071.36
678.195	3956.68
678.386	3932.1
678.576	3882.95
678.767	3989.44
678.957	3864.52
679.148	4036.55
679.338	3901.38
679.529	3911.62
679.719	3850.18
679.909	4089.79
680.1	3852.23
680.29	3790.79
680.481	3856.33
680.671	3712.97
680.861	3735.49
681.052	3809.22
681.242	3739.59
681.432	3717.06
681.622	3680.2
681.813	3719.11
682.003	3669.96
682.193	3528.65
682.383	3659.72
682.573	3692.49
682.764	3565.51
682.954	3610.57
683.144	3592.14
683.334	3561.42
683.524	3573.71
683.714	3674.06
683.904	3450.83
684.094	3585.99
684.284	3639.24
684.474	3682.25
684.664	3518.41
684.854	3502.03
685.044	3608.52
685.234	3459.02
685.424	3424.2
685.614	3502.03
685.804	3454.92
685.994	3469.26
686.184	3452.88
686.374	3366.86
686.564	3430.35
686.753	3553.23
686.943	3260.37
687.133	3395.53
687.323	3286.99
687.513	3407.82
687.702	3340.24
687.892	3409.87
688.082	3289.04
688.272	3258.32
688.461	3280.85
688.651	3192.78
688.841	3250.13
689.03	3155.92
689.22	3119.06
689.41	3162.06
689.599	3155.92
689.789	3096.53
689.979	3026.9
690.168	3137.49
690.358	3106.77
690.547	3078.1
690.737	3071.95
690.926	3039.19
691.116	2906.07
691.305	2994.13
691.495	2969.55
691.684	2965.46
691.874	2910.16
692.063	3104.72
692.252	2965.46
692.442	2932.69
692.631	2926.55
692.82	2897.88
693.01	2877.4
693.199	2965.46
693.388	2766.81
693.578	2766.81
693.767	2940.88
693.956	2947.03
694.146	2731.99
694.335	2752.47
694.524	2781.14
694.713	2959.31
694.902	2797.53
695.092	2768.85
695.281	2779.09
695.47	2680.79
695.659	2830.29
695.848	2731.99
696.037	2766.81
696.226	2691.03
696.415	2656.22
696.604	2674.65
696.793	2578.39
696.982	2828.24
697.171	2672.6
697.36	2676.7
697.549	2639.83
697.738	2643.93
697.927	2703.32
698.116	2621.4
698.305	2693.08
698.494	2596.82
698.683	2594.78
698.872	2639.83
699.061	2551.77
699.25	2731.99
699.438	2594.78
699.627	2731.99
699.816	2695.13
700.005	2592.73
700.193	2574.3
700.382	2592.73
700.571	2508.76
700.76	2584.54
700.948	2551.77
701.137	2617.3
701.326	2633.69
701.514	2613.21
701.703	2645.98
701.892	2564.06
702.08	2652.12
702.269	2537.43
702.457	2605.02
702.646	2523.1
702.834	2525.15
703.023	2527.19
703.212	2541.53
703.4	2551.77
703.589	2451.42
703.777	2559.96
703.965	2592.73
704.154	2525.15
704.342	2531.29
704.531	2609.11
704.719	2490.33
704.907	2547.67
705.096	2469.85
705.284	2465.75
705.472	2467.8
705.661	2502.62
705.849	2469.85
706.037	2428.89
706.226	2523.1
706.414	2611.16
706.602	2375.64
706.79	2514.91
706.979	2473.95
707.167	2453.47
707.355	2459.61
707.543	2424.8
707.731	2336.73
707.919	2465.75
708.107	2471.9
708.296	2435.03
708.484	2381.79
708.672	2504.67
708.86	2445.27
709.048	2357.21
709.236	2396.12
709.424	2516.95
709.612	2527.19
709.8	2338.78
709.988	2408.41
710.176	2412.51
710.364	2387.93
710.551	2465.75
710.739	2385.88
710.927	2396.12
711.115	2389.98
711.303	2451.42
711.491	2422.75
711.679	2314.2
711.866	2437.08
712.054	2314.2
712.242	2377.69
712.43	2359.26
712.617	2422.75
712.805	2402.27
712.993	2377.69
713.181	2334.68
713.368	2414.56
713.556	2439.13
713.744	2418.65
713.931	2332.64
714.119	2416.6
714.306	2277.34
714.494	2316.25
714.682	2342.88
714.869	2340.83
715.057	2351.07
715.244	2287.58
715.432	2385.88
715.619	2306.01
715.807	2314.2
715.994	2324.44
716.182	2375.64
716.369	2295.77
716.556	2435.03
716.744	2324.44
716.931	2293.73
717.119	2320.35
717.306	2381.79
717.493	2232.29
717.681	2271.2
717.868	2318.3
718.055	2283.49
718.242	2224.09
718.43	2328.54
718.617	2353.12
718.804	2291.68
718.991	2222.05
719.179	2236.38
719.366	2330.59
719.553	2277.34
719.74	2236.38
719.927	2303.96
720.114	2254.81
720.301	2258.91
720.488	2334.68
720.676	2195.42
720.863	2316.25
721.05	2295.77
721.237	2416.6
721.424	2275.29
721.611	2392.03
721.798	2222.05
721.985	2400.22
722.172	2176.99
722.358	2318.3
722.545	2283.49
722.732	2230.24
722.919	2144.22
723.106	2342.88
723.293	2281.44
723.48	2146.27
723.667	2203.61
723.853	2193.37
724.04	2172.89
724.227	2189.28
724.414	2301.92
724.6	2142.18
724.787	2234.33
724.974	2254.81
725.161	2228.19
725.347	2242.53
725.534	2176.99
725.72	2220
725.907	2168.8
726.094	2166.75
726.28	2220
726.467	2215.9
726.653	2205.66
726.84	2121.7
727.027	2127.84
727.213	2193.37
727.4	2213.85
727.586	2199.52
727.773	2205.66
727.959	2125.79
728.145	2224.09
728.332	2203.61
728.518	2207.71
728.705	2174.94
728.891	2189.28
729.077	2267.1
729.264	2260.96
729.45	2140.13
729.636	2238.43
729.823	2213.85
730.009	2226.14
730.195	2228.19
730.382	2244.57
730.568	2140.13
730.754	2193.37
730.94	2097.12
731.126	2217.95
731.313	2113.5
731.499	2187.23
731.685	2207.71
731.871	2183.13
732.057	2273.25
732.243	2209.76
732.429	2252.77
732.615	2179.04
732.801	2224.09
732.987	2215.9
733.173	2146.27
733.359	2113.5
733.545	2191.33
733.731	2084.83
733.917	2168.8
734.103	2187.23
734.289	2150.37
734.475	2072.54
734.661	2232.29
734.847	2152.42
735.033	2158.56
735.219	2070.5
735.404	2193.37
735.59	2129.89
735.776	2203.61
735.962	2117.6
736.148	2090.98
736.333	2093.02
736.519	2064.35
736.705	2078.69
736.89	2115.55
737.076	1990.63
737.262	2054.11
737.447	2189.28
737.633	2035.68
737.819	2060.26
738.004	2064.35
738.19	2082.78
738.375	2095.07
738.561	2088.93
738.747	2033.63
738.932	1898.47
739.118	2105.31
739.303	1935.33
739.489	2062.3
739.674	2007.01
739.859	2072.54
740.045	1988.58
740.23	2035.68
740.416	2027.49
740.601	1986.53
740.786	1992.67
740.972	1970.15
741.157	2045.92
741.342	2015.2
741.528	1968.1
741.713	2033.63
741.898	1935.33
742.084	1904.61
742.269	1959.91
742.454	1968.1
742.639	1941.47
742.824	1945.57
743.01	1925.09
743.195	1966.05
743.38	1900.52
743.565	1957.86
743.75	1990.63
743.935	1837.03
744.12	1865.7
744.305	1804.26
744.49	1914.85
744.675	1859.56
744.86	1904.61
745.045	1871.84
745.23	1826.79
745.415	1931.23
745.6	1886.18
745.785	1757.16
745.97	1753.06
746.155	1892.32
746.34	1685.48
746.525	1755.11
746.71	1755.11
746.895	1732.58
747.079	1785.83
747.264	1777.64
747.449	1648.61
747.634	1808.36
747.819	1679.33
748.003	1677.29
748.188	1718.25
748.373	1683.43
748.557	1589.22
748.742	1728.49
748.927	1611.75
749.111	1650.66
749.296	1603.56
749.481	1683.43
749.665	1679.33
749.85	1628.14
750.034	1478.63
750.219	1646.57
750.404	1581.03
750.588	1646.57
750.773	1544.17
750.957	1533.93
751.141	1529.83
751.326	1486.83
751.51	1554.41
751.695	1542.12
751.879	1419.24
752.064	1554.41
752.248	1529.83
752.432	1490.92
752.617	1374.19
752.801	1445.87
752.985	1419.24
753.17	1449.96
753.354	1429.48
753.538	1409
753.722	1392.62
753.907	1314.8
754.091	1345.52
754.275	1296.36
754.459	1322.99
754.643	1222.64
754.828	1286.12
755.012	1345.52
755.196	1169.39
755.38	1351.66
755.564	1333.23
755.748	1255.4
755.932	1267.69
756.116	1316.84
756.3	1292.27
756.484	1294.32
756.668	1265.64
756.852	1103.86
757.036	1196.01
757.22	1206.25
757.404	1261.55
757.588	1216.49
757.772	1249.26
757.956	1234.93
758.14	1226.73
758.323	1150.96
758.507	1179.63
758.691	1210.35
758.875	1236.97
759.059	1189.87
759.242	1128.43
759.426	1017.84
759.61	1056.75
759.794	1079.28
759.977	1028.08
760.161	1163.25
760.345	1138.67
760.528	1126.38
760.712	1042.42
760.895	1093.62
761.079	1099.76
761.263	1116.14
761.446	991.22
761.63	1071.09
761.813	1150.96
761.997	1069.04
762.18	1062.9
762.364	1042.42
762.547	1030.13
762.731	1071.09
762.914	1011.7
763.098	966.64
763.281	999.41
763.464	1007.6
763.648	1017.84
763.831	940.02
764.015	995.31
764.198	1048.56
764.381	1081.33
764.564	978.93
764.748	944.11
764.931	960.5
765.114	1013.74
765.297	976.88
765.481	901.11
765.664	974.83
765.847	944.11
766.03	970.74
766.213	993.26
766.397	983.02
766.58	952.31
766.763	952.31
766.946	841.72
767.129	968.69
767.312	905.2
767.495	909.3
767.678	886.77
767.861	999.41
768.044	923.63
768.227	917.49
768.41	958.45
768.593	907.25
768.776	948.21
768.959	1003.5
769.142	872.43
769.324	886.77
769.507	970.74
769.69	827.38
769.873	835.57
770.056	892.91
770.239	878.58
770.421	960.5
770.604	919.54
770.787	839.67
770.97	882.67
771.152	964.59
771.335	802.8
771.518	886.77
771.7	905.2
771.883	819.19
772.066	796.66
772.248	806.9
772.431	823.28
772.613	827.38
772.796	821.24
772.978	854
773.161	872.43
773.343	831.48
773.526	788.47
773.708	800.76
773.891	792.56
774.073	829.43
774.256	733.17
774.438	716.79
774.621	765.94
774.803	806.9
774.985	724.98
775.168	835.57
775.35	763.89
775.532	745.46
775.715	712.69
775.897	643.06
776.079	735.22
776.261	802.8
776.444	681.97
776.626	671.73
776.808	704.5
776.99	757.75
777.173	741.36
777.355	655.35
777.537	645.11
777.719	681.97
777.901	630.77
778.083	690.17
778.265	620.53
778.447	624.63
778.629	684.02
778.811	716.79
778.993	679.93
779.175	729.08
779.357	561.14
779.539	583.67
779.721	557.05
779.903	622.58
780.085	626.68
780.267	600.05
780.449	600.05
780.631	540.66
780.812	630.77
780.994	548.86
781.176	581.62
781.358	638.97
781.54	532.47
781.721	575.48
781.903	575.48
782.085	643.06
782.267	542.71
782.448	526.33
782.63	518.14
782.812	610.29
782.993	573.43
783.175	493.56
783.357	583.67
783.538	571.38
783.72	489.46
783.901	524.28
784.083	520.18
784.264	536.57
784.446	499.7
784.627	487.42
784.809	530.42
784.99	460.79
785.172	507.9
785.353	489.46
785.535	497.66
785.716	423.93
785.897	489.46
786.079	520.18
786.26	499.7
786.441	440.31
786.623	399.35
786.804	346.11
786.985	471.03
787.167	430.07
787.348	442.36
787.529	442.36
787.71	503.8
787.891	448.51
788.073	405.5
788.254	405.5
788.435	415.74
788.616	444.41
788.797	423.93
788.978	434.17
789.159	460.79
789.34	458.75
789.522	477.18
789.703	419.83
789.884	489.46
790.065	450.55
790.246	323.58
790.427	419.83
790.607	397.31
790.788	385.02
790.969	327.67
791.15	391.16
791.331	313.34
791.512	350.2
791.693	294.91
791.874	307.2
792.054	374.78
792.235	348.15
792.416	268.28
792.597	376.83
792.778	409.59
792.958	315.39
793.139	348.15
793.32	376.83
793.5	325.63
793.681	329.72
793.862	333.82
794.042	419.83
794.223	360.44
794.404	278.52
794.584	321.53
794.765	319.48
794.945	387.07
795.126	247.8
795.306	368.63
795.487	296.96
795.667	348.15
795.848	305.15
796.028	262.14
796.209	266.24
796.389	290.81
796.57	284.67
796.75	278.52
796.93	354.3
797.111	296.96
797.291	292.86
797.471	296.96
797.652	329.72
797.832	315.39
798.012	339.96
798.192	364.54
798.373	296.96
798.553	253.95
798.733	335.87
798.913	274.43
799.093	315.39
799.274	303.1
799.454	274.43
799.634	282.62
799.814	262.14
799.994	274.43
800.174	208.89
800.354	268.28
800.534	251.9
800.714	299
800.894	280.57
801.074	194.56
801.254	235.52
801.434	245.76
801.614	266.24
801.794	237.56
801.974	612.34
802.154	262.14
802.334	182.27
802.514	280.57
802.693	221.18
802.873	206.84
803.053	286.72
803.233	172.03
803.413	235.52
803.592	274.43
803.772	276.48
803.952	223.23
804.131	200.7
804.311	210.94
804.491	188.41
804.67	219.13
804.85	196.61
805.03	249.85
805.209	231.42
805.389	247.8
805.568	188.41
805.748	237.56
805.928	139.26
806.107	192.51
806.287	81.92
806.466	184.32
806.646	204.8
806.825	137.21
807.004	204.8
807.184	276.48
807.363	188.41
807.543	237.56
807.722	186.37
807.901	167.93
808.081	198.65
808.26	217.08
808.439	153.6
808.619	200.7
808.798	217.08
808.977	241.66
809.156	143.36
809.336	274.43
809.515	215.04
809.694	223.23
809.873	153.6
810.052	245.76
810.231	231.42
810.411	239.61
810.59	239.61
810.769	174.08
810.948	192.51
811.127	233.47
811.306	137.21
811.485	53.25
811.664	188.41
811.843	182.27
812.022	223.23
812.201	155.65
812.38	131.07
812.559	145.41
812.737	135.17
812.916	200.7
813.095	217.08
813.274	135.17
813.453	131.07
813.632	147.45
813.811	188.41
813.989	174.08
814.168	202.75
814.347	114.69
814.526	227.32
814.704	198.65
814.883	196.61
815.062	167.93
815.24	159.74
815.419	94.21
815.598	104.45
815.776	217.08
815.955	153.6
816.133	182.27
816.312	88.06
816.49	212.99
816.669	151.55
816.847	178.17
817.026	135.17
817.204	112.64
817.383	94.21
817.561	114.69
817.74	210.94
817.918	141.31
818.097	190.46
818.275	258.04
818.453	122.88
818.632	151.55
818.81	231.42
818.988	169.98
819.167	196.61
819.345	120.83
819.523	131.07
819.701	120.83
819.879	104.45
820.058	124.93
820.236	153.6
820.414	118.78
820.592	178.17
820.77	108.54
820.948	106.49
821.127	133.12
821.305	106.49
821.483	204.8
821.661	182.27
821.839	116.73
822.017	129.02
822.195	133.12
822.373	120.83
822.551	98.3
822.729	145.41
822.907	77.82
823.085	94.21
823.262	24.58
823.44	88.06
823.618	135.17
823.796	122.88
823.974	81.92
824.152	122.88
824.329	92.16
824.507	149.5
824.685	155.65
824.863	161.79
825.04	159.74
825.218	77.82
825.396	22.53
825.574	65.54
825.751	106.49
825.929	114.69
826.107	118.78
826.284	163.84
826.462	114.69
826.639	157.69
826.817	133.12
826.994	22.53
827.172	51.2
827.349	110.59
827.527	88.06
827.704	81.92
827.882	49.15
828.059	137.21
828.237	69.63
828.414	49.15
828.591	141.31
828.769	108.54
828.946	77.82
829.124	139.26
829.301	137.21
829.478	96.25
829.655	86.01
829.833	83.97
830.01	-28.67
830.187	83.97
830.364	114.69
830.542	86.01
830.719	194.56
830.896	59.39
831.073	36.86
831.25	94.21
831.427	55.3
831.604	65.54
831.782	157.69
831.959	71.68
832.136	157.69
832.313	81.92
832.49	26.62
832.667	167.93
832.844	86.01
833.021	57.34
833.198	73.73
833.374	67.58
833.551	157.69
833.728	118.78
833.905	88.06
834.082	49.15
834.259	79.87
834.436	137.21
834.612	88.06
834.789	118.78
834.966	96.25
835.143	151.55
835.319	102.4
835.496	145.41
835.673	16.38
835.85	94.21
836.026	65.54
836.203	92.16
836.38	98.3
836.556	116.73
836.733	24.58
836.909	100.35
837.086	8.19
837.262	53.25
837.439	61.44
837.616	40.96
837.792	51.2
837.968	10.24
838.145	20.48
838.321	59.39
838.498	65.54
838.674	26.62
838.851	73.73
839.027	14.34
839.203	98.3
839.38	83.97
839.556	79.87
839.732	112.64
839.909	159.74
840.085	34.82
840.261	77.82
840.437	61.44
840.614	49.15
840.79	98.3
840.966	73.73
841.142	16.38
841.318	77.82
841.494	90.11
841.671	182.27
841.847	55.3
842.023	45.06
842.199	47.1
842.375	30.72
842.551	92.16
842.727	47.1
842.903	34.82
843.079	26.62
843.255	-12.29
843.431	75.77
843.607	49.15
843.783	-59.39
843.959	59.39
844.134	18.43
844.31	81.92
844.486	69.63
844.662	47.1
844.838	114.69
845.013	61.44
845.189	116.73
845.365	77.82
845.541	36.86
845.716	53.25
845.892	100.35
846.068	92.16
846.244	112.64
846.419	43.01
846.595	47.1
846.77	49.15
846.946	114.69
847.122	59.39
847.297	-2.05
847.473	147.45
847.648	110.59
847.824	94.21
847.999	14.34
848.175	104.45
848.35	40.96
848.526	112.64
848.701	24.58
848.876	79.87
849.052	38.91
849.227	-14.34
849.403	43.01
849.578	83.97
849.753	153.6
849.929	77.82
850.104	-2.05
850.279	34.82
850.454	40.96
850.63	45.06
850.805	90.11
850.98	73.73
851.155	24.58
851.33	20.48
851.505	20.48
851.681	129.02
851.856	67.58
852.031	71.68
852.206	49.15
852.381	98.3
852.556	-22.53
852.731	45.06
852.906	32.77
853.081	83.97
853.256	71.68
853.431	57.34
853.606	126.97
853.781	118.78
853.956	55.3
854.131	32.77
854.305	4.1
854.48	10.24
854.655	-16.38
854.83	83.97
855.005	96.25
855.18	94.21
855.354	-38.91
855.529	81.92
855.704	71.68
855.879	53.25
856.053	-14.34
856.228	36.86
856.403	0
856.577	96.25
856.752	14.34
856.926	6.14
857.101	18.43
857.276	69.63
857.45	40.96
857.625	88.06
857.799	6.14
857.974	12.29
858.148	53.25
858.323	-26.62
858.497	28.67
858.672	30.72
858.846	-24.58
859.02	98.3
859.195	0
859.369	12.29
859.543	63.49
859.718	73.73
859.892	20.48
860.066	12.29
860.241	-12.29
860.415	30.72
860.589	57.34
860.763	-20.48
860.938	-2.05
861.112	-20.48
861.286	32.77
861.46	47.1
861.634	57.34
861.808	77.82
861.982	14.34
862.157	-24.58
862.331	24.58
862.505	38.91
862.679	-10.24
862.853	38.91
863.027	-12.29
863.201	96.25
863.375	73.73
863.549	118.78
863.722	24.58
863.896	65.54
864.07	-36.86
864.244	20.48
864.418	55.3
864.592	47.1
864.766	-10.24
864.939	77.82
865.113	12.29
865.287	40.96
865.461	88.06
865.634	71.68
865.808	10.24
865.982	47.1
866.156	12.29
866.329	67.58
866.503	-18.43
866.676	32.77
866.85	73.73
867.024	4.1
867.197	51.2
867.371	18.43
867.544	-34.82
867.718	141.31
867.891	49.15
868.065	55.3
868.238	38.91
868.412	57.34
868.585	8.19
868.759	-26.62
868.932	45.06
869.105	28.67
869.279	-8.19
869.452	-2.05
869.625	51.2
869.799	59.39
869.972	-24.58
870.145	-10.24
870.319	96.25
870.492	40.96
870.665	12.29
870.838	-8.19
871.011	18.43
871.185	38.91
871.358	30.72
871.531	36.86
871.704	-34.82
871.877	104.45
872.05	-18.43
872.223	67.58
872.396	-38.91
872.569	36.86
872.742	-14.34
872.915	49.15
873.088	-32.77
873.261	-49.15
873.434	-6.14
873.607	43.01
873.78	-10.24
873.953	10.24
874.126	26.62
874.299	51.2
874.471	55.3
874.644	18.43
874.817	28.67
874.99	30.72
875.163	4.1
875.335	43.01
875.508	-16.38
875.681	-12.29
875.853	-2.05
876.026	30.72
876.199	16.38
876.371	55.3
876.544	71.68
876.717	40.96
876.889	-32.77
877.062	59.39
877.234	-71.68
877.407	-12.29
877.579	-32.77
877.752	43.01
877.924	63.49
878.097	20.48
878.269	0
878.442	-24.58
878.614	36.86
878.786	65.54
878.959	26.62
879.131	57.34
879.303	49.15
879.476	-12.29
879.648	43.01
879.82	71.68
879.993	45.06
880.165	-18.43
880.337	-22.53
880.509	2.05
880.681	20.48
880.854	28.67
881.026	2.05
881.198	149.5
881.37	-49.15
881.542	55.3
881.714	16.38
881.886	18.43
882.058	40.96
882.23	28.67
882.402	22.53
882.574	4.1
882.746	22.53
882.918	43.01
883.09	22.53
883.262	55.3
883.434	40.96
883.606	-8.19
883.778	24.58
883.95	73.73
884.122	57.34
884.293	102.4
884.465	-16.38
884.637	51.2
884.809	-12.29
884.98	51.2
885.152	12.29
885.324	69.63
885.496	-2.05
885.667	-16.38
885.839	22.53
886.011	73.73
886.182	-14.34
886.354	67.58
886.525	-51.2
886.697	49.15
886.869	6.14
887.04	14.34
887.212	49.15
887.383	100.35
887.555	18.43
887.726	8.19
887.897	-18.43
888.069	18.43
888.24	47.1
888.412	40.96
888.583	-36.86
888.754	77.82
888.926	22.53
889.097	-14.34
889.268	28.67
889.44	-57.34
889.611	73.73
889.782	24.58
889.953	-28.67
890.125	57.34
890.296	-24.58
890.467	47.1
890.638	53.25
890.809	59.39
890.98	-14.34
891.151	-2.05
891.323	36.86
891.494	110.59
891.665	14.34
891.836	65.54
892.007	32.77
892.178	49.15
892.349	28.67
892.52	53.25
892.691	81.92
892.862	36.86
893.032	26.62
893.203	65.54
893.374	16.38
893.545	34.82
893.716	96.25
893.887	-16.38
894.057	-38.91
894.228	6.14
894.399	10.24
894.57	69.63
894.74	59.39
894.911	34.82
895.082	-24.58
895.253	57.34
895.423	-22.53
895.594	59.39
895.764	-36.86
895.935	8.19
896.106	61.44
896.276	-22.53
896.447	51.2
896.617	2.05
896.788	67.58
896.958	36.86
897.129	14.34
897.299	2.05
897.47	81.92
897.64	-22.53
897.81	-26.62
897.981	30.72
898.151	26.62
898.322	16.38
898.492	-8.19
898.662	-45.06
898.832	16.38
899.003	36.86
899.173	124.93
899.343	-8.19
899.513	-2.05
