Data from USB4F104151__81__11-06-26-683.txt Node

Date: Wed Mar 12 11:06:26 EDT 2025
User: louis
Spectrometer: USB4F10415
Trigger mode: 4
Integration Time (sec): 2.000000E-2
Scans to average: 1
Electric dark correction enabled: true
Nonlinearity correction enabled: false
Boxcar width: 0
XAxis mode: Wavelengths
Number of Pixels in Spectrum: 3648
>>>>>Begin Spectral Data<<<<<
178.204	-101.2
178.424	-101.2
178.644	-101.2
178.864	-138.07
179.084	-50
179.304	50.35
179.524	-35.67
179.744	-27.48
179.964	15.53
180.184	-7
180.404	-15.19
180.624	1.19
180.844	38.06
181.064	-52.05
181.283	83.11
181.503	-25.43
181.723	-25.43
181.943	-19.29
182.163	-43.86
182.383	-60.24
182.602	19.63
182.822	-19.29
183.042	-31.57
183.262	23.72
183.482	-4.95
183.701	-27.48
183.921	1.19
184.141	3.24
184.361	44.2
184.58	31.91
184.8	31.91
185.02	-33.62
185.239	54.44
185.459	-13.14
185.679	3.24
185.898	-84.82
186.118	-68.44
186.338	17.58
186.557	-7
186.777	3.24
186.997	-52.05
187.216	-33.62
187.436	-50
187.655	60.59
187.875	42.15
188.095	-21.33
188.314	-47.96
188.534	17.58
188.753	-7
188.973	-7
189.192	27.82
189.412	40.11
189.631	-0.85
189.851	19.63
190.07	-31.57
190.29	46.25
190.509	97.45
190.729	-47.96
190.948	-37.72
191.168	72.87
191.387	13.48
191.607	-23.38
191.826	42.15
192.045	-7
192.265	-27.48
192.484	38.06
192.704	-7
192.923	-2.9
193.142	42.15
193.362	-23.38
193.581	15.53
193.8	44.2
194.02	-41.81
194.239	-15.19
194.458	70.83
194.678	5.29
194.897	19.63
195.116	-86.87
195.335	-25.43
195.555	-23.38
195.774	52.39
195.993	107.69
196.212	58.54
196.432	-70.48
196.651	70.83
196.87	7.34
197.089	17.58
197.308	-11.09
197.528	52.39
197.747	-35.67
197.966	-41.81
198.185	-47.96
198.404	-15.19
198.623	7.34
198.842	33.96
199.062	54.44
199.281	38.06
199.5	7.34
199.719	-37.72
199.938	-54.1
200.157	25.77
200.376	27.82
200.595	-39.76
200.814	13.48
201.033	25.77
201.252	-47.96
201.471	5.29
201.69	40.11
201.909	25.77
202.128	31.91
202.347	9.39
202.566	29.87
202.785	19.63
203.004	-19.29
203.223	29.87
203.442	50.35
203.661	1.19
203.879	-29.52
204.098	64.68
204.317	1.19
204.536	36.01
204.755	-15.19
204.974	-9.05
205.193	60.59
205.411	70.83
205.63	21.67
205.849	5.29
206.068	-54.1
206.287	-0.85
206.505	-74.58
206.724	46.25
206.943	-35.67
207.162	27.82
207.381	-2.9
207.599	-43.86
207.818	50.35
208.037	44.2
208.255	-0.85
208.474	9.39
208.693	-29.52
208.911	29.87
209.13	-31.57
209.349	1.19
209.567	-9.05
209.786	70.83
210.005	-25.43
210.223	17.58
210.442	-35.67
210.661	21.67
210.879	1.19
211.098	-23.38
211.316	29.87
211.535	44.2
211.753	-2.9
211.972	9.39
212.191	-15.19
212.409	-9.05
212.628	3.24
212.846	54.44
213.065	-31.57
213.283	21.67
213.502	66.73
213.72	9.39
213.938	-21.33
214.157	9.39
214.375	44.2
214.594	-15.19
214.812	-11.09
215.031	13.48
215.249	-2.9
215.467	-21.33
215.686	9.39
215.904	36.01
216.122	17.58
216.341	42.15
216.559	-25.43
216.778	19.63
216.996	9.39
217.214	-58.2
217.432	29.87
217.651	-41.81
217.869	-23.38
218.087	-84.82
218.306	-37.72
218.524	-39.76
218.742	-97.11
218.96	-41.81
219.179	-52.05
219.397	62.63
219.615	58.54
219.833	46.25
220.051	-39.76
220.27	38.06
220.488	-0.85
220.706	1.19
220.924	44.2
221.142	13.48
221.36	-2.9
221.578	91.31
221.796	-19.29
222.015	-7
222.233	17.58
222.451	3.24
222.669	9.39
222.887	-7
223.105	-66.39
223.323	74.92
223.541	-93.01
223.759	42.15
223.977	29.87
224.195	60.59
224.413	27.82
224.631	36.01
224.849	13.48
225.067	23.72
225.285	5.29
225.503	23.72
225.721	17.58
225.939	-52.05
226.157	-33.62
226.375	38.06
226.592	-0.85
226.81	74.92
227.028	15.53
227.246	21.67
227.464	1.19
227.682	11.43
227.9	40.11
228.117	-0.85
228.335	-93.01
228.553	1.19
228.771	-9.05
228.989	15.53
229.206	15.53
229.424	42.15
229.642	-13.14
229.86	17.58
230.077	-35.67
230.295	1.19
230.513	36.01
230.731	29.87
230.948	29.87
231.166	42.15
231.384	-9.05
231.601	13.48
231.819	9.39
232.037	-54.1
232.254	-58.2
232.472	-19.29
232.689	-50
232.907	-0.85
233.125	-29.52
233.342	46.25
233.56	-4.95
233.777	-27.48
233.995	-33.62
234.213	-2.9
234.43	-31.57
234.648	-15.19
234.865	11.43
235.083	-35.67
235.3	21.67
235.518	87.21
235.735	46.25
235.953	72.87
236.17	-29.52
236.388	-52.05
236.605	11.43
236.822	40.11
237.04	38.06
237.257	-95.06
237.475	27.82
237.692	1.19
237.909	-23.38
238.127	-37.72
238.344	1.19
238.562	-13.14
238.779	-37.72
238.996	-17.24
239.214	-17.24
239.431	9.39
239.648	-68.44
239.865	13.48
240.083	11.43
240.3	-76.63
240.517	11.43
240.735	-13.14
240.952	-31.57
241.169	83.11
241.386	-33.62
241.603	1.19
241.821	29.87
242.038	54.44
242.255	-31.57
242.472	-37.72
242.689	1.19
242.907	-15.19
243.124	72.87
243.341	52.39
243.558	-11.09
243.775	-23.38
243.992	3.24
244.209	-80.72
244.426	33.96
244.643	25.77
244.86	-33.62
245.078	48.3
245.295	-47.96
245.512	-27.48
245.729	46.25
245.946	40.11
246.163	21.67
246.38	11.43
246.597	15.53
246.814	-9.05
247.031	-35.67
247.248	54.44
247.464	50.35
247.681	17.58
247.898	5.29
248.115	1.19
248.332	-47.96
248.549	5.29
248.766	27.82
248.983	44.2
249.2	-7
249.417	-21.33
249.633	-37.72
249.85	-17.24
250.067	17.58
250.284	-43.86
250.501	-33.62
250.717	-21.33
250.934	-70.48
251.151	1.19
251.368	7.34
251.585	-41.81
251.801	-19.29
252.018	25.77
252.235	23.72
252.451	19.63
252.668	-43.86
252.885	19.63
253.102	-33.62
253.318	76.97
253.535	-62.29
253.752	13.48
253.968	-17.24
254.185	-0.85
254.401	66.73
254.618	1.19
254.835	-13.14
255.051	9.39
255.268	62.63
255.484	21.67
255.701	-41.81
255.917	-62.29
256.134	-15.19
256.351	23.72
256.567	21.67
256.784	-15.19
257	50.35
257.217	11.43
257.433	-19.29
257.65	-15.19
257.866	-15.19
258.082	-35.67
258.299	33.96
258.515	31.91
258.732	9.39
258.948	1.19
259.165	15.53
259.381	42.15
259.597	56.49
259.814	13.48
260.03	31.91
260.246	-33.62
260.463	54.44
260.679	44.2
260.895	-68.44
261.112	46.25
261.328	15.53
261.544	27.82
261.761	19.63
261.977	-2.9
262.193	11.43
262.409	-33.62
262.626	1.19
262.842	-17.24
263.058	11.43
263.274	25.77
263.49	13.48
263.707	-25.43
263.923	5.29
264.139	3.24
264.355	-31.57
264.571	-23.38
264.787	38.06
265.004	23.72
265.22	36.01
265.436	-47.96
265.652	-25.43
265.868	62.63
266.084	-2.9
266.3	36.01
266.516	23.72
266.732	-25.43
266.948	-15.19
267.164	48.3
267.38	42.15
267.596	33.96
267.812	15.53
268.028	21.67
268.244	-62.29
268.46	44.2
268.676	-25.43
268.892	-60.24
269.108	-13.14
269.324	-58.2
269.54	-23.38
269.756	19.63
269.972	-13.14
270.188	-7
270.403	-17.24
270.619	66.73
270.835	42.15
271.051	-17.24
271.267	76.97
271.483	1.19
271.698	13.48
271.914	-27.48
272.13	-13.14
272.346	17.58
272.562	9.39
272.777	-72.53
272.993	-37.72
273.209	-70.48
273.425	42.15
273.64	-52.05
273.856	-2.9
274.072	9.39
274.287	-2.9
274.503	79.02
274.719	21.67
274.934	-13.14
275.15	-43.86
275.366	-2.9
275.581	-82.77
275.797	7.34
276.012	-2.9
276.228	-72.53
276.444	46.25
276.659	21.67
276.875	13.48
277.09	87.21
277.306	-7
277.521	29.87
277.737	9.39
277.952	38.06
278.168	60.59
278.383	81.07
278.599	46.25
278.814	-72.53
279.03	48.3
279.245	-2.9
279.461	54.44
279.676	95.4
279.892	13.48
280.107	-19.29
280.322	17.58
280.538	-33.62
280.753	-37.72
280.969	25.77
281.184	17.58
281.399	56.49
281.615	-0.85
281.83	17.58
282.045	-7
282.26	1.19
282.476	-15.19
282.691	56.49
282.906	-4.95
283.122	-4.95
283.337	64.68
283.552	50.35
283.767	-15.19
283.983	21.67
284.198	21.67
284.413	11.43
284.628	-45.91
284.843	-9.05
285.058	46.25
285.274	48.3
285.489	-62.29
285.704	-21.33
285.919	-33.62
286.134	33.96
286.349	-21.33
286.564	-9.05
286.779	17.58
286.995	13.48
287.21	-2.9
287.425	58.54
287.64	-27.48
287.855	46.25
288.07	-27.48
288.285	44.2
288.5	40.11
288.715	-9.05
288.93	13.48
289.145	-23.38
289.36	-7
289.575	66.73
289.79	-7
290.004	-9.05
290.219	9.39
290.434	36.01
290.649	-0.85
290.864	9.39
291.079	19.63
291.294	-43.86
291.509	9.39
291.724	-15.19
291.938	91.31
292.153	21.67
292.368	29.87
292.583	23.72
292.798	17.58
293.012	-23.38
293.227	50.35
293.442	-41.81
293.657	54.44
293.871	25.77
294.086	-62.29
294.301	9.39
294.516	11.43
294.73	-25.43
294.945	-23.38
295.16	29.87
295.374	-45.91
295.589	31.91
295.804	-4.95
296.018	36.01
296.233	68.78
296.447	93.35
296.662	-4.95
296.877	-19.29
297.091	-2.9
297.306	23.72
297.52	-2.9
297.735	13.48
297.949	-23.38
298.164	-68.44
298.378	44.2
298.593	50.35
298.807	-43.86
299.022	33.96
299.236	9.39
299.451	27.82
299.665	-21.33
299.88	-15.19
300.094	-23.38
300.309	-19.29
300.523	54.44
300.737	-35.67
300.952	1.19
301.166	19.63
301.381	-54.1
301.595	-39.76
301.809	64.68
302.024	-33.62
302.238	27.82
302.452	-0.85
302.667	-47.96
302.881	52.39
303.095	19.63
303.309	9.39
303.524	33.96
303.738	38.06
303.952	-47.96
304.166	-45.91
304.381	-101.2
304.595	5.29
304.809	7.34
305.023	40.11
305.237	-13.14
305.452	13.48
305.666	-13.14
305.88	13.48
306.094	60.59
306.308	13.48
306.522	-50
306.736	1.19
306.95	9.39
307.164	29.87
307.379	-47.96
307.593	95.4
307.807	33.96
308.021	-21.33
308.235	36.01
308.449	40.11
308.663	1.19
308.877	83.11
309.091	-45.91
309.305	40.11
309.519	21.67
309.733	21.67
309.947	-41.81
310.161	52.39
310.374	-43.86
310.588	36.01
310.802	-13.14
311.016	-15.19
311.23	-43.86
311.444	46.25
311.658	-35.67
311.872	5.29
312.085	38.06
312.299	58.54
312.513	-0.85
312.727	-35.67
312.941	-56.15
313.154	-11.09
313.368	81.07
313.582	29.87
313.796	-9.05
314.009	40.11
314.223	70.83
314.437	-33.62
314.651	-60.24
314.864	-72.53
315.078	-52.05
315.292	3.24
315.505	7.34
315.719	42.15
315.933	7.34
316.146	1.19
316.36	-72.53
316.573	3.24
316.787	11.43
317.001	-64.34
317.214	-19.29
317.428	36.01
317.641	-11.09
317.855	15.53
318.068	-52.05
318.282	7.34
318.495	56.49
318.709	27.82
318.922	48.3
319.136	-25.43
319.349	9.39
319.563	1.19
319.776	72.87
319.99	99.5
320.203	1.19
320.417	46.25
320.63	9.39
320.843	33.96
321.057	-2.9
321.27	1.19
321.483	-9.05
321.697	111.78
321.91	9.39
322.124	-31.57
322.337	9.39
322.55	50.35
322.763	25.77
322.977	-17.24
323.19	-70.48
323.403	-52.05
323.617	-21.33
323.83	19.63
324.043	21.67
324.256	-93.01
324.469	40.11
324.683	44.2
324.896	33.96
325.109	44.2
325.322	54.44
325.535	-27.48
325.748	-37.72
325.962	-21.33
326.175	13.48
326.388	99.5
326.601	33.96
326.814	-21.33
327.027	-9.05
327.24	13.48
327.453	15.53
327.666	-15.19
327.879	-7
328.092	11.43
328.305	-13.14
328.518	13.48
328.731	23.72
328.944	11.43
329.157	7.34
329.37	21.67
329.583	87.21
329.796	93.35
330.009	-35.67
330.222	-7
330.435	64.68
330.648	1.19
330.861	42.15
331.073	7.34
331.286	7.34
331.499	19.63
331.712	3.24
331.925	-50
332.138	5.29
332.35	23.72
332.563	79.02
332.776	-7
332.989	76.97
333.202	66.73
333.414	13.48
333.627	9.39
333.84	1.19
334.053	56.49
334.265	54.44
334.478	1.19
334.691	27.82
334.903	1.19
335.116	-21.33
335.329	9.39
335.541	25.77
335.754	54.44
335.966	-2.9
336.179	31.91
336.392	5.29
336.604	33.96
336.817	-2.9
337.029	-17.24
337.242	7.34
337.454	21.67
337.667	17.58
337.88	7.34
338.092	7.34
338.305	33.96
338.517	-2.9
338.729	119.98
338.942	48.3
339.154	-4.95
339.367	-76.63
339.579	42.15
339.792	50.35
340.004	58.54
340.217	29.87
340.429	-11.09
340.641	44.2
340.854	23.72
341.066	-56.15
341.278	15.53
341.491	17.58
341.703	21.67
341.915	-31.57
342.128	58.54
342.34	-7
342.552	68.78
342.764	-41.81
342.977	36.01
343.189	21.67
343.401	72.87
343.613	29.87
343.826	-7
344.038	-23.38
344.25	33.96
344.462	-23.38
344.674	56.49
344.886	36.01
345.099	56.49
345.311	-2.9
345.523	13.48
345.735	33.96
345.947	83.11
346.159	-27.48
346.371	3.24
346.583	36.01
346.795	89.26
347.007	-15.19
347.219	23.72
347.431	81.07
347.643	81.07
347.855	31.91
348.067	27.82
348.279	1.19
348.491	23.72
348.703	1.19
348.915	58.54
349.127	-27.48
349.339	-50
349.551	1.19
349.763	54.44
349.975	29.87
350.187	93.35
350.399	7.34
350.61	-19.29
350.822	-21.33
351.034	31.91
351.246	3.24
351.458	-25.43
351.669	25.77
351.881	-39.76
352.093	58.54
352.305	111.78
352.517	103.59
352.728	79.02
352.94	-4.95
353.152	48.3
353.363	44.2
353.575	-27.48
353.787	19.63
353.999	52.39
354.21	23.72
354.422	11.43
354.633	-27.48
354.845	5.29
355.057	5.29
355.268	-23.38
355.48	79.02
355.692	-15.19
355.903	-9.05
356.115	-2.9
356.326	17.58
356.538	33.96
356.749	83.11
356.961	76.97
357.172	-29.52
357.384	-33.62
357.595	52.39
357.807	3.24
358.018	-11.09
358.23	66.73
358.441	50.35
358.653	19.63
358.864	-19.29
359.075	-47.96
359.287	13.48
359.498	58.54
359.709	38.06
359.921	15.53
360.132	60.59
360.344	40.11
360.555	-31.57
360.766	29.87
360.977	-29.52
361.189	25.77
361.4	-82.77
361.611	29.87
361.823	19.63
362.034	44.2
362.245	7.34
362.456	-2.9
362.667	-13.14
362.879	27.82
363.09	38.06
363.301	-37.72
363.512	62.63
363.723	-11.09
363.935	50.35
364.146	19.63
364.357	-25.43
364.568	42.15
364.779	25.77
364.99	72.87
365.201	11.43
365.412	-39.76
365.623	62.63
365.834	7.34
366.045	54.44
366.256	27.82
366.467	81.07
366.678	23.72
366.889	-17.24
367.1	48.3
367.311	-0.85
367.522	19.63
367.733	97.45
367.944	66.73
368.155	-7
368.366	79.02
368.577	9.39
368.788	-33.62
368.999	-27.48
369.209	46.25
369.42	132.26
369.631	107.69
369.842	50.35
370.053	-41.81
370.264	-0.85
370.474	-33.62
370.685	33.96
370.896	36.01
371.107	50.35
371.317	-35.67
371.528	25.77
371.739	87.21
371.95	54.44
372.16	-9.05
372.371	-17.24
372.582	7.34
372.792	17.58
373.003	36.01
373.214	70.83
373.424	48.3
373.635	42.15
373.846	70.83
374.056	1.19
374.267	-25.43
374.477	42.15
374.688	-64.34
374.898	1.19
375.109	66.73
375.319	21.67
375.53	115.88
375.74	58.54
375.951	11.43
376.161	-21.33
376.372	5.29
376.582	-25.43
376.793	33.96
377.003	13.48
377.214	1.19
377.424	31.91
377.635	-23.38
377.845	13.48
378.055	31.91
378.266	-76.63
378.476	70.83
378.686	-13.14
378.897	23.72
379.107	17.58
379.317	46.25
379.528	29.87
379.738	-23.38
379.948	31.91
380.158	38.06
380.369	101.55
380.579	38.06
380.789	-45.91
380.999	50.35
381.21	9.39
381.42	74.92
381.63	62.63
381.84	89.26
382.05	70.83
382.261	50.35
382.471	48.3
382.681	-29.52
382.891	19.63
383.101	27.82
383.311	-23.38
383.521	62.63
383.731	33.96
383.941	17.58
384.151	27.82
384.361	33.96
384.571	-7
384.781	111.78
384.991	60.59
385.201	52.39
385.411	15.53
385.621	17.58
385.831	52.39
386.041	87.21
386.251	25.77
386.461	50.35
386.671	13.48
386.881	62.63
387.091	130.22
387.301	5.29
387.511	15.53
387.72	91.31
387.93	68.78
388.14	44.2
388.35	54.44
388.56	46.25
388.769	93.35
388.979	19.63
389.189	25.77
389.399	42.15
389.609	33.96
389.818	64.68
390.028	13.48
390.238	7.34
390.447	5.29
390.657	21.67
390.867	-23.38
391.076	25.77
391.286	46.25
391.496	62.63
391.705	87.21
391.915	85.16
392.125	50.35
392.334	-31.57
392.544	117.93
392.753	72.87
392.963	27.82
393.172	-7
393.382	54.44
393.591	81.07
393.801	76.97
394.01	117.93
394.22	54.44
394.429	87.21
394.639	64.68
394.848	42.15
395.058	81.07
395.267	60.59
395.477	60.59
395.686	36.01
395.895	87.21
396.105	85.16
396.314	70.83
396.524	40.11
396.733	15.53
396.942	115.88
397.152	119.98
397.361	113.83
397.57	31.91
397.78	54.44
397.989	113.83
398.198	105.64
398.407	50.35
398.617	142.5
398.826	99.5
399.035	142.5
399.244	83.11
399.453	9.39
399.663	101.55
399.872	62.63
400.081	91.31
400.29	134.31
400.499	66.73
400.708	81.07
400.917	27.82
401.127	91.31
401.336	95.4
401.545	142.5
401.754	38.06
401.963	62.63
402.172	38.06
402.381	122.02
402.59	21.67
402.799	109.74
403.008	128.17
403.217	62.63
403.426	148.65
403.635	54.44
403.844	72.87
404.053	111.78
404.262	142.5
404.471	44.2
404.68	99.5
404.888	165.03
405.097	191.66
405.306	46.25
405.515	197.8
405.724	111.78
405.933	87.21
406.142	156.84
406.35	185.51
406.559	134.31
406.768	76.97
406.977	214.18
407.185	197.8
407.394	193.7
407.603	158.89
407.812	169.13
408.02	175.27
408.229	189.61
408.438	165.03
408.646	205.99
408.855	185.51
409.064	275.62
409.272	234.66
409.481	275.62
409.69	218.28
409.898	343.21
410.107	269.48
410.315	308.39
410.524	277.67
410.733	361.64
410.941	259.24
411.15	394.4
411.358	394.4
411.567	355.49
411.775	308.39
411.984	359.59
412.192	421.03
412.401	482.47
412.609	425.12
412.818	496.8
413.026	494.76
413.234	482.47
413.443	502.95
413.651	447.65
413.86	476.32
414.068	619.68
414.276	607.39
414.485	634.02
414.693	650.4
414.901	681.12
415.11	697.5
415.318	793.76
415.526	728.22
415.734	783.52
415.943	799.9
416.151	812.19
416.359	861.34
416.567	838.81
416.776	900.25
416.984	875.68
417.192	965.79
417.4	984.22
417.608	955.55
417.817	1092.76
418.025	1121.43
418.233	1158.3
418.441	1229.98
418.649	1184.92
418.857	1240.22
419.065	1262.74
419.273	1234.07
419.481	1406.1
419.689	1498.26
419.897	1586.32
420.105	1635.47
420.313	1580.18
420.521	1567.89
420.729	1721.49
420.937	1707.15
421.145	1893.52
421.353	1965.2
421.561	1981.58
421.769	2133.13
421.977	2163.85
422.185	2081.93
422.393	2237.58
422.601	2305.16
422.809	2442.37
423.017	2356.36
423.224	2559.11
423.432	2606.21
423.64	2548.87
423.848	2854.02
424.056	2788.48
424.263	3112.06
424.471	2993.28
424.679	3060.86
424.887	3206.27
425.094	3290.23
425.302	3234.94
425.51	3468.41
425.718	3673.2
425.925	3630.2
426.133	3761.27
426.341	3912.81
426.548	4215.91
426.756	4189.29
426.964	4365.42
427.171	4426.86
427.379	4584.55
427.586	4607.08
427.794	4844.64
428.001	4973.66
428.209	5248.09
428.417	5162.08
428.624	5526.61
428.832	5491.8
429.039	5495.89
429.247	5604.44
429.454	5973.07
429.662	6550.6
429.869	5835.86
430.076	6526.02
430.284	6206.54
430.491	6595.65
430.699	6874.18
430.906	7017.54
431.114	6964.29
431.321	7320.63
431.528	7418.94
431.736	7877.68
431.943	8356.91
432.15	7945.27
432.358	8066.1
432.565	8592.42
432.772	8580.14
432.979	9040.93
433.187	9243.68
433.394	9151.52
433.601	9927.7
433.808	9995.28
434.016	9856.02
434.223	10003.47
434.43	10847.24
434.637	10681.35
434.844	11228.16
435.052	11707.38
435.259	11308.03
435.466	11590.65
435.673	11183.1
435.88	12231.66
436.087	12882.92
436.294	13059.04
436.501	12573.67
436.708	12917.73
436.915	13296.61
437.122	13859.8
437.329	13743.06
437.537	14226.39
437.743	14494.67
437.95	14351.31
438.157	15352.77
438.364	15834.04
438.571	15610.81
438.778	15844.28
438.985	17558.43
439.192	16542.64
439.399	17081.25
439.606	16403.38
439.813	17441.7
440.02	18727.82
440.227	18256.79
440.433	18312.08
440.64	18738.06
440.847	18408.34
441.054	19030.92
441.261	20421.49
441.467	20441.97
441.674	20599.66
441.881	21324.65
442.088	21298.02
442.294	21111.66
442.501	21943.13
442.708	22139.74
442.914	23018.32
443.121	24120.12
443.328	23147.34
443.534	24992.56
443.741	24075.07
443.948	24167.23
444.154	25850.66
444.361	26028.83
444.568	25692.96
444.774	26014.49
444.981	26491.67
445.187	27085.58
445.394	27747.08
445.6	27728.64
445.807	30118.62
446.013	28934.9
446.22	29399.79
446.426	30544.6
446.633	31167.18
446.839	32242.37
447.046	30556.89
447.252	32348.86
447.459	32504.51
447.665	32107.2
447.871	33882.79
448.078	35035.8
448.284	33335.98
448.491	34165.41
448.697	35437.2
448.903	35938.95
449.11	36465.28
449.316	35535.5
449.522	36342.4
449.728	37474.93
449.935	37298.8
450.141	37685.87
450.347	37894.76
450.553	37274.23
450.76	37382.77
450.966	38642.27
451.172	38386.27
451.378	38855.26
451.584	38574.69
451.791	39264.85
451.997	39318.1
452.203	39877.19
452.409	39803.47
452.615	39877.19
452.821	37825.13
453.027	37788.27
453.233	39733.84
453.44	38144.61
453.646	38568.54
453.852	38699.61
454.058	39221.84
454.264	37552.75
454.47	38787.67
454.676	37757.55
454.882	38804.06
455.088	35547.79
455.294	35713.67
455.5	36620.92
455.705	36835.96
455.911	35502.73
456.117	34603.67
456.323	34261.66
456.529	32613.05
456.735	33989.28
456.941	33020.59
457.147	32508.6
457.352	31474.38
457.558	30915.28
457.764	31064.78
457.97	31101.65
458.176	29895.39
458.381	29586.15
458.587	28398.33
458.793	28297.98
458.999	26794.77
459.204	28988.14
459.41	28195.58
459.616	26499.86
459.821	25957.15
460.027	25953.05
460.233	25402.15
460.438	24271.67
460.644	24804.14
460.85	23718.72
461.055	23286.6
461.261	23133
461.466	21455.72
461.672	20771.69
461.878	22076.25
462.083	20745.07
462.289	20392.82
462.494	20245.37
462.7	19147.65
462.905	18795.4
463.111	19633.02
463.316	19673.98
463.522	18910.09
463.727	19366.79
463.932	19118.98
464.138	18760.59
464.343	18742.16
464.549	18441.11
464.754	18881.42
464.959	18969.48
465.165	18936.71
465.37	18127.77
465.575	17750.94
465.781	18275.22
465.986	18385.81
466.191	17740.7
466.397	17154.98
466.602	16679.85
466.807	17025.96
467.012	17324.96
467.218	17066.92
467.423	16960.42
467.628	17361.83
467.833	18015.13
468.038	17324.96
468.244	16657.32
468.449	17357.73
468.654	16694.19
468.859	16548.78
469.064	16446.38
469.269	16147.38
469.474	16106.42
469.679	16444.34
469.885	15864.76
470.09	16159.67
470.295	15891.38
470.5	15358.91
470.705	15768.51
470.91	15436.74
471.115	15229.89
471.32	15412.16
471.525	15184.83
471.73	14789.58
471.935	14828.49
472.139	14455.76
472.344	14767.05
472.549	14480.33
472.754	14322.64
472.959	14099.41
473.164	13601.76
473.369	13448.16
473.574	14306.26
473.778	13702.11
473.983	13495.26
474.188	13749.21
474.393	13104.1
474.598	13161.44
474.802	13200.35
475.007	12864.49
475.212	12925.93
475.417	12354.54
475.621	12526.57
475.826	12555.24
476.031	12317.68
476.235	11971.57
476.44	12409.84
476.645	11957.24
476.849	11961.33
477.054	11754.49
477.259	11971.57
477.463	11561.98
477.668	11518.97
477.872	11531.26
478.077	11176.96
478.282	10910.72
478.486	11004.93
478.691	11049.99
478.895	11121.66
479.1	10906.63
479.304	10839.05
479.509	10576.91
479.713	10984.45
479.918	10619.91
480.122	10501.13
480.326	10771.46
480.531	10556.43
480.735	10357.77
480.94	10456.08
481.144	10603.53
481.348	10077.2
481.553	10376.2
481.757	10042.39
481.961	10284.05
482.166	10337.29
482.37	10290.19
482.574	9995.28
482.778	10165.26
482.983	10300.43
483.187	10265.61
483.391	10316.81
483.595	10132.5
483.8	10032.15
484.004	10290.19
484.208	10384.4
484.412	10026
484.616	10157.07
484.821	10282
485.025	10109.97
485.229	10406.92
485.433	10155.02
485.637	10165.26
485.841	10273.81
486.045	10214.41
486.249	10091.54
486.453	10216.46
486.657	10101.78
486.861	10228.75
487.065	9985.04
487.269	10028.05
487.473	9890.84
487.677	10445.84
487.881	10273.81
488.085	10179.6
488.289	10206.22
488.493	10200.08
488.697	10378.25
488.901	10275.85
489.105	10404.88
489.309	10490.89
489.512	10390.54
489.716	10316.81
489.92	10224.65
490.124	10228.75
490.328	10357.77
490.531	10228.75
490.735	10531.85
490.939	10300.43
491.143	10400.78
491.346	10474.51
491.55	10748.93
491.754	10816.52
491.958	10552.33
492.161	10968.07
492.365	10855.43
492.569	10810.37
492.772	10847.24
492.976	11185.15
493.18	11021.31
493.383	11080.71
493.587	11201.54
493.79	11551.74
493.994	11123.71
494.197	11324.41
494.401	11224.06
494.605	11490.3
494.808	11531.26
495.012	11658.23
495.215	11543.55
495.419	11660.28
495.622	11813.88
495.825	11969.52
496.029	11881.46
496.232	12102.64
496.436	12268.53
496.639	12565.48
496.843	12426.22
497.046	12850.15
497.249	12823.53
497.453	12686.31
497.656	12938.21
497.859	13016.04
498.063	13128.67
498.266	13446.11
498.469	13439.97
498.673	13487.07
498.876	13798.36
499.079	13851.61
499.282	13718.49
499.485	14216.15
499.689	14527.44
499.892	14650.32
500.095	14621.64
500.298	14953.41
500.501	14676.94
500.705	15043.53
500.908	15336.38
501.111	15340.48
501.314	15831.99
501.517	15803.32
501.72	16063.41
501.923	16128.95
502.126	16368.56
502.329	16427.95
502.532	16704.43
502.735	16911.27
502.938	17161.12
503.141	17255.33
503.344	17410.98
503.547	17462.18
503.75	17976.22
503.953	18015.13
504.156	18152.34
504.359	18357.14
504.562	18428.82
504.765	18828.17
504.968	18910.09
505.17	19100.55
505.373	19141.51
505.576	19432.32
505.779	20022.14
505.982	19823.48
506.185	20435.83
506.387	20519.79
506.59	20603.76
506.793	20999.02
506.996	20927.34
507.198	21740.38
507.401	21310.31
507.604	21668.7
507.807	21998.43
508.009	22375.25
508.212	22383.45
508.415	22936.4
508.617	23085.9
508.82	23094.09
509.022	22827.85
509.225	23864.13
509.428	23620.42
509.63	23952.19
509.833	24224.57
510.035	24853.3
510.238	24679.22
510.44	25101.1
510.643	25228.07
510.845	25492.26
511.048	25604.9
511.25	26125.08
511.453	26483.48
511.655	27061.01
511.858	26428.18
512.06	27120.4
512.262	27114.25
512.465	27140.88
512.667	27675.4
512.87	28132.09
513.072	27984.64
513.274	28670.71
513.477	28928.75
513.679	28891.89
513.881	29391.59
514.084	29858.53
514.286	29496.04
514.488	30003.94
514.69	31003.35
514.893	30720.73
515.095	31042.26
515.297	31361.74
515.499	31421.13
515.701	31679.18
515.904	32420.54
516.106	32615.1
516.308	32641.72
516.51	33254.06
516.712	33135.28
516.914	33573.55
517.116	34063.01
517.318	33936.04
517.52	34413.21
517.722	34372.25
517.925	34892.44
518.127	35443.34
518.329	35564.17
518.531	35764.87
518.733	36070.02
518.935	36391.55
519.136	36268.67
519.338	37118.58
519.54	37177.97
519.742	37474.93
519.944	37352.05
520.146	38124.13
520.348	38333.03
520.55	38625.89
520.752	38851.16
520.954	39596.62
521.155	39346.77
521.357	40008.26
521.559	40131.14
521.761	40854.08
521.963	40645.18
522.164	40991.29
522.366	41273.91
522.568	41376.31
522.77	41464.37
522.971	42363.43
523.173	41611.82
523.375	42033.71
523.576	42488.35
523.778	42648.1
523.98	43270.68
524.181	43270.68
524.383	43072.03
524.584	43901.45
524.786	44147.21
524.988	43893.26
525.189	44409.35
525.391	44655.11
525.592	44892.67
525.794	44884.48
525.995	44972.54
526.197	45371.89
526.398	45328.89
526.6	45701.62
526.801	45804.02
527.003	46219.75
527.204	45828.59
527.406	46481.89
527.607	46721.51
527.808	46602.72
528.01	46549.48
528.211	46907.87
528.412	47745.49
528.614	47253.98
528.815	47552.98
529.016	48282.06
529.218	47555.03
529.419	47974.86
529.62	47942.1
529.822	47946.19
530.023	47684.05
530.224	47993.29
530.425	47999.44
530.626	47581.65
530.828	47745.49
531.029	49035.71
531.23	48652.74
531.431	48290.25
531.632	48353.74
531.833	48890.3
532.035	48525.77
532.236	48781.76
532.437	48777.67
532.638	48757.19
532.839	48998.85
533.04	49248.7
533.241	48431.56
533.442	49918.38
533.643	49631.67
533.844	49562.04
534.045	49183.16
534.246	49226.17
534.447	49617.33
534.648	49945.01
534.849	49408.44
535.05	48781.76
535.251	49277.37
535.451	49203.64
535.652	49562.04
535.853	49349.05
536.054	49559.99
536.255	49584.57
536.456	49146.3
536.657	50397.61
536.857	49306.04
537.058	49822.13
537.259	50123.18
537.46	49510.84
537.66	48996.8
537.861	49535.41
538.062	49310.14
538.263	49865.14
538.463	49588.66
538.664	49519.03
538.865	49818.03
539.065	49990.06
539.266	49629.62
539.466	49734.07
539.667	49281.47
539.868	49785.27
540.068	49420.73
540.269	49646.01
540.469	49564.09
540.67	49203.64
540.87	49469.88
541.071	49502.65
541.271	49543.61
541.472	49578.42
541.672	49201.6
541.873	49721.78
542.073	49072.57
542.274	49617.33
542.474	49504.7
542.675	49332.67
542.875	49701.3
543.075	49459.64
543.276	48923.07
543.476	49498.55
543.676	49209.79
543.877	49568.18
544.077	49637.81
544.277	49621.43
544.478	49408.44
544.678	49973.68
544.878	49615.29
545.078	49635.77
545.279	49424.82
545.479	49203.64
545.679	49449.4
545.879	49609.14
546.079	49136.06
546.28	49048
546.48	48986.56
546.68	49226.17
546.88	49482.17
547.08	49854.9
547.28	49459.64
547.48	48968.13
547.68	49543.61
547.88	49068.48
548.081	49342.91
548.281	49113.53
548.481	48898.5
548.681	49412.54
548.881	49377.72
549.081	49387.96
549.28	49105.34
549.48	49465.78
549.68	48912.83
549.88	49912.24
550.08	49068.48
550.28	49146.3
550.48	49095.1
550.68	49623.48
550.88	48902.59
551.08	48734.66
551.279	49310.14
551.479	48697.8
551.679	49162.68
551.879	49240.51
552.079	49748.4
552.278	48794.05
552.478	49015.23
552.678	49330.62
552.878	49236.41
553.077	48988.61
553.277	48558.53
553.477	49375.67
553.676	48951.74
553.876	48859.59
554.076	48765.38
554.275	48789.95
554.475	48384.46
554.674	48746.95
554.874	48402.89
555.074	48746.95
555.273	48939.46
555.473	49211.84
555.672	48237
555.872	48759.23
556.071	48304.59
556.271	48531.91
556.47	48206.28
556.67	48480.71
556.869	48189.9
557.068	48753.09
557.268	47981.01
557.467	48323.02
557.667	48202.19
557.866	48884.16
558.065	48110.03
558.265	48040.4
558.464	47839.7
558.663	48343.5
558.863	47626.71
559.062	48343.5
559.261	47368.66
559.461	48136.65
559.66	47464.92
559.859	48134.6
560.058	47008.22
560.258	47913.42
560.457	47131.1
560.656	47684.05
560.855	47716.82
561.054	47464.92
561.253	47000.03
561.453	47557.08
561.652	47204.83
561.851	47231.45
562.05	47006.17
562.249	46971.36
562.448	47317.46
562.647	47188.44
562.846	47143.39
563.045	46936.54
563.244	46193.13
563.443	47464.92
563.642	46205.42
563.841	46346.73
564.04	46389.73
564.239	46899.68
564.438	46346.73
564.637	46135.79
564.836	46354.92
565.035	45982.19
565.234	46141.93
565.432	45656.56
565.631	45761.01
565.83	46178.79
566.029	45404.66
566.228	45435.38
566.427	45236.73
566.625	45431.29
566.824	44909.05
567.023	45558.26
567.222	44560.9
567.42	45234.68
567.619	45091.32
567.818	44937.72
568.016	44560.9
568.215	45040.12
568.414	44620.29
568.612	44689.92
568.811	44827.13
569.01	44603.91
569.208	43899.4
569.407	44212.74
569.605	44036.62
569.804	44247.56
570.002	43883.02
570.201	44190.22
570.4	43717.14
570.598	43704.85
570.797	43401.75
570.995	43686.42
571.193	43256.34
571.392	43586.07
571.59	42813.98
571.789	43153.94
571.987	43074.07
572.186	43440.66
572.384	42654.24
572.582	43098.65
572.781	43311.64
572.979	42467.87
573.177	42644
573.376	43055.64
573.574	42265.13
573.772	42973.72
573.971	42566.18
574.169	42187.3
574.367	41742.89
574.565	41974.31
574.763	41943.59
574.962	41980.46
575.16	41468.47
575.358	41814.57
575.556	41343.54
575.754	41845.29
575.952	40985.15
576.151	41617.97
576.349	40835.64
576.547	41200.18
576.745	40979
576.943	41247.29
577.141	41003.58
577.339	40942.14
577.537	40935.99
577.735	40815.16
577.933	40047.18
578.131	40401.47
578.329	40274.5
578.527	39748.17
578.725	40131.14
578.923	39950.92
579.121	39858.76
579.319	39772.75
579.516	39750.22
579.714	40106.57
579.912	39647.82
580.11	39768.65
580.308	39365.2
580.506	39299.67
580.704	39015
580.901	39195.22
581.099	39389.78
581.297	38906.46
581.495	38851.16
581.692	38965.85
581.89	38619.74
582.088	38961.75
582.285	38570.59
582.483	38619.74
582.681	38316.64
582.878	38476.38
583.076	38001.25
583.274	38494.82
583.471	38181.48
583.669	37978.73
583.866	37530.22
584.064	37700.2
584.262	37524.08
584.459	37886.57
584.657	37909.1
584.854	37397.1
585.052	36915.83
585.249	37536.37
585.447	37300.85
585.644	36975.22
585.841	36874.87
586.039	37159.54
586.236	36385.41
586.434	36534.91
586.631	36887.16
586.828	36694.65
587.026	36452.99
587.223	36631.16
587.42	36416.13
587.618	36184.71
587.815	35834.5
588.012	35947.14
588.21	35539.6
588.407	35947.14
588.604	35615.37
588.801	35572.36
588.999	35717.77
589.196	35523.21
589.393	35512.97
589.59	35177.11
589.787	35291.79
589.984	35381.9
590.182	34572.96
590.379	34923.16
590.576	34615.96
590.773	34921.11
590.97	34220.7
591.167	34912.92
591.364	34163.36
591.561	34618.01
591.758	34020
591.955	33991.33
592.152	34261.66
592.349	33862.31
592.546	34095.78
592.743	33850.02
592.94	33354.41
593.137	33444.52
593.334	33764.01
593.531	33049.27
593.727	33442.48
593.924	33098.42
594.121	33122.99
594.318	33114.8
594.515	32711.35
594.712	33141.42
594.908	32973.49
595.105	33026.74
595.302	32283.33
595.499	32819.89
595.696	32623.29
595.892	32406.2
596.089	32639.67
596.286	32447.16
596.482	32268.99
596.679	32412.35
596.876	32344.77
597.072	31754.95
597.269	32144.06
597.466	31605.45
597.662	31836.87
597.859	31703.75
598.055	31775.43
598.252	31427.28
598.448	31646.41
598.645	31476.43
598.841	31120.08
599.038	31247.05
599.234	31193.81
599.431	30978.77
599.627	30628.57
599.824	30636.76
600.02	30749.4
600.217	30454.49
600.413	30315.23
600.609	30231.26
600.806	30180.06
601.002	30540.5
601.198	29717.22
601.395	29612.77
601.591	29915.87
601.787	29913.83
601.984	29465.32
602.18	30001.89
602.376	29651.69
602.572	29450.99
602.769	29770.47
602.965	29289.2
603.161	29434.6
603.357	29143.79
603.553	29172.46
603.75	29170.41
603.946	28625.65
604.142	29383.4
604.338	28988.14
604.534	29108.97
604.73	28775.16
604.926	28660.47
605.122	28791.54
605.318	28146.43
605.514	28494.58
605.71	28287.74
605.906	28185.34
606.102	27953.92
606.298	28539.64
606.494	28263.16
606.69	28117.76
606.886	28244.73
607.082	27480.84
607.278	27874.05
607.474	27396.87
607.67	27728.64
607.866	27206.41
608.062	27857.67
608.257	27568.9
608.453	27466.5
608.649	27800.32
608.845	27245.32
609.041	27601.67
609.236	27527.94
609.432	27224.84
609.628	27290.38
609.824	27294.47
610.019	27194.12
610.215	26874.64
610.411	27130.64
610.606	26807.06
610.802	26657.56
610.998	26850.06
611.193	26895.12
611.389	26635.03
611.584	26762
611.78	26534.68
611.976	26778.39
612.171	26592.02
612.367	26491.67
612.562	26450.71
612.758	26055.45
612.953	25973.53
613.149	26329.88
613.344	25930.53
613.539	26401.56
613.735	26016.54
613.93	26061.6
614.126	25830.18
614.321	26501.91
614.517	26256.15
614.712	25912.1
614.907	25893.66
615.103	25969.44
615.298	25912.1
615.493	26086.17
615.688	25658.15
615.884	26104.6
616.079	25555.75
616.274	25510.69
616.47	25606.95
616.665	25609
616.86	25541.41
617.055	25553.7
617.25	25342.76
617.445	25576.23
617.641	24935.21
617.836	25475.88
618.031	25125.68
618.226	25520.93
618.421	24953.65
618.616	25150.25
618.811	24927.02
619.006	25295.66
619.201	24658.74
619.396	24671.03
619.591	24318.78
619.786	24412.98
619.981	24218.43
620.176	24369.97
620.371	24030.01
620.566	24369.97
620.761	23888.7
620.956	24030.01
621.151	23724.86
621.346	24011.58
621.541	23466.82
621.735	23708.48
621.93	22987.6
622.125	23288.65
622.32	23092.04
622.515	23020.36
622.709	22852.43
622.904	23159.63
623.099	22891.34
623.294	22817.61
623.488	22446.93
623.683	22807.37
623.878	22307.67
624.072	22303.57
624.267	21967.71
624.462	22094.68
624.656	21967.71
624.851	22031.19
625.046	21930.84
625.24	21945.18
625.435	21486.43
625.629	21349.22
625.824	21422.95
626.018	21439.33
626.213	20810.61
626.407	21338.98
626.602	20597.62
626.796	20910.96
626.991	20980.59
627.185	20642.67
627.38	20648.82
627.574	20038.52
627.768	20224.89
627.963	20151.16
628.157	19979.13
628.352	20083.58
628.546	19860.35
628.74	19995.51
628.935	19989.37
629.129	19598.21
629.323	19596.16
629.517	19356.55
629.712	19405.7
629.906	19348.36
630.1	18852.75
630.294	19094.41
630.489	18856.84
630.683	19121.03
630.877	18590.61
631.071	18504.59
631.265	18693.01
631.459	18428.82
631.653	18350.99
631.848	18467.73
632.042	18332.56
632.236	18160.53
632.43	18103.19
632.624	17922.97
632.818	17896.35
633.012	17800.09
633.206	17656.73
633.4	17738.65
633.594	17351.59
633.788	17152.93
633.982	17208.23
634.176	17169.32
634.369	16970.66
634.563	17120.17
634.757	17017.77
634.951	16960.42
635.145	16958.38
635.339	16714.67
635.533	16495.53
635.726	16710.57
635.92	16337.84
636.114	16270.26
636.308	16409.52
636.501	16315.31
636.695	16473.01
636.889	16325.55
637.083	15911.86
637.276	15938.49
637.47	15913.91
637.664	15797.18
637.857	15934.39
638.051	15672.25
638.244	15545.28
638.438	15608.76
638.632	15498.17
638.825	15610.81
639.019	15236.03
639.212	14885.83
639.406	15162.31
639.599	15219.65
639.793	14926.79
639.986	14889.93
640.18	14707.66
640.373	14660.55
640.567	14652.36
640.76	14728.14
640.954	14404.56
641.147	14648.27
641.34	14322.64
641.534	14349.26
641.727	14443.47
641.92	14316.5
642.114	14037.97
642.307	14107.6
642.5	13808.6
642.694	13628.38
642.887	13824.98
643.08	13816.79
643.273	13356
643.467	13669.34
643.66	13728.73
643.853	13280.22
644.046	13337.57
644.239	13194.21
644.432	13089.76
644.626	13353.95
644.819	13188.07
645.012	13190.11
645.205	13171.68
645.398	12999.65
645.591	12809.19
645.784	12966.88
645.977	12696.55
646.17	12878.82
646.363	12641.26
646.556	12567.53
646.749	12549.1
646.942	12493.8
647.135	12594.15
647.328	12299.25
647.521	12200.94
647.714	12092.4
647.907	12231.66
648.099	12133.36
648.292	12129.27
648.485	12041.2
648.678	11826.17
648.871	11965.43
649.064	12002.29
649.256	11772.92
649.449	11711.48
649.642	11486.2
649.835	11420.67
650.027	11473.92
650.22	11449.34
650.413	11168.77
650.605	11283.45
650.798	11332.61
650.991	10898.44
651.183	11267.07
651.376	11256.83
651.568	11023.36
651.761	11052.03
651.954	10873.86
652.146	10820.61
652.339	10798.09
652.531	10892.29
652.724	10718.22
652.916	10626.06
653.109	10548.23
653.301	10599.43
653.494	10554.38
653.686	10318.86
653.879	10589.19
654.071	10413.07
654.263	10320.91
654.456	10400.78
654.648	10214.41
654.84	10193.94
655.033	9980.95
655.225	10011.67
655.417	9899.03
655.61	10052.63
655.802	9810.96
655.994	9796.63
656.186	9876.5
656.379	9708.57
656.571	9731.09
656.763	9753.62
656.955	9667.61
657.148	9673.75
657.34	9479.19
657.532	9448.47
657.724	9563.16
657.916	9442.33
658.108	9329.69
658.3	9266.21
658.492	9116.7
658.684	9251.87
658.876	9245.73
659.068	8977.44
659.26	9118.75
659.452	8922.15
659.644	8983.59
659.836	8930.34
660.028	8836.13
660.22	8729.64
660.412	8838.18
660.604	8592.42
660.796	8537.13
660.988	8760.36
661.18	8625.19
661.372	8596.52
661.563	8631.33
661.755	8520.74
661.947	8662.05
662.139	8369.19
662.331	8344.62
662.522	8299.56
662.714	8324.14
662.906	8037.42
663.097	8084.53
663.289	7982.13
663.481	8143.92
663.673	8025.14
663.864	7836.72
664.056	7965.75
664.247	7797.81
664.439	7812.15
664.631	7883.83
664.822	7973.94
665.014	7865.39
665.205	7824.44
665.397	7670.84
665.588	7638.07
665.78	7625.78
665.971	7607.35
666.163	7656.5
666.354	7621.69
666.546	7377.98
666.737	7584.82
666.929	7384.12
667.12	7425.08
667.311	7296.06
667.503	7222.33
667.694	7449.66
667.885	7298.11
668.077	7363.64
668.268	7240.76
668.459	7013.44
668.651	7216.19
668.842	7144.51
669.033	7011.39
669.224	6769.73
669.416	7183.42
669.607	6995.01
669.798	7017.54
669.989	6911.04
670.18	6718.53
670.371	6782.02
670.563	6880.32
670.754	6777.92
670.945	6601.8
671.136	6657.09
671.327	6751.3
671.518	6571.08
671.709	6515.78
671.9	6605.89
672.091	6544.45
672.282	6513.74
672.473	6325.32
672.664	6564.93
672.855	6440.01
673.046	6493.26
673.237	6390.86
673.428	6440.01
673.619	6317.13
673.809	6292.55
674	6427.72
674.191	6384.71
674.382	6124.62
674.573	6167.63
674.764	6083.66
674.954	6110.29
675.145	6155.34
675.336	6239.31
675.527	6007.89
675.717	6087.76
675.908	6061.13
676.099	6048.85
676.289	5819.47
676.48	5956.69
676.671	5833.81
676.861	6044.75
677.052	5839.95
677.243	5788.75
677.433	5854.29
677.624	5930.06
677.814	5723.22
678.005	5790.8
678.195	5796.95
678.386	5747.79
678.576	5604.44
678.767	5725.27
678.957	5618.77
679.148	5739.6
679.338	5657.68
679.529	5495.89
679.719	5485.65
679.909	5528.66
680.1	5538.9
680.29	5506.13
680.481	5526.61
680.671	5534.81
680.861	5448.79
681.052	5403.74
681.242	5485.65
681.432	5516.37
681.622	5397.59
681.813	5420.12
682.003	5315.67
682.193	5334.11
682.383	5364.82
682.573	5266.52
682.764	5229.66
682.954	5239.9
683.144	5188.7
683.334	5188.7
683.524	5209.18
683.714	5198.94
683.904	5041.25
684.094	5229.66
684.284	5180.51
684.474	5153.88
684.664	5139.55
684.854	5065.82
685.044	5039.2
685.234	5061.73
685.424	4959.33
685.614	5008.48
685.804	4959.33
685.994	5010.53
686.184	4834.4
686.374	4930.66
686.564	4801.63
686.753	4904.03
686.943	4891.74
687.133	5006.43
687.323	4768.87
687.513	4793.44
687.702	4732
687.892	4785.25
688.082	4670.56
688.272	4883.55
688.461	4797.54
688.651	4807.78
688.841	4600.93
689.03	4529.25
689.22	4676.71
689.41	4635.75
689.599	4473.96
689.789	4584.55
689.979	4619.36
690.168	4506.73
690.358	4369.51
690.547	4488.29
690.737	4457.57
690.926	4459.62
691.116	4361.32
691.305	4545.64
691.495	4365.42
691.684	4461.67
691.874	4312.17
692.063	4381.8
692.252	4277.35
692.442	4322.41
692.631	4189.29
692.82	4340.84
693.01	4236.39
693.199	4187.24
693.388	4207.72
693.578	4373.61
693.767	4199.53
693.956	4310.12
694.146	4236.39
694.335	4017.26
694.524	4263.02
694.713	4084.84
694.902	4150.38
695.092	3976.3
695.281	4027.5
695.47	4093.04
695.659	3984.49
695.848	4113.52
696.037	4103.28
696.226	3992.69
696.415	4027.5
696.604	4066.41
696.793	3992.69
696.982	4031.6
697.171	3908.72
697.36	4015.21
697.549	4011.12
697.738	3945.58
697.927	3945.58
698.116	3892.34
698.305	3785.84
698.494	3990.64
698.683	3859.57
698.872	3861.62
699.061	4025.45
699.25	3773.55
699.438	3826.8
699.627	3830.9
699.816	3865.71
700.005	3812.46
700.193	3783.79
700.382	3777.65
700.571	3847.28
700.76	3851.38
700.948	3990.64
701.137	3681.39
701.326	3912.81
701.514	3851.38
701.703	3781.74
701.892	3867.76
702.08	3726.45
702.269	3751.03
702.457	3642.48
702.646	3802.22
702.834	3767.41
703.023	3773.55
703.212	3697.78
703.4	3695.73
703.589	3744.88
703.777	3626.1
703.965	3599.48
704.154	3599.48
704.342	3673.2
704.531	3652.72
704.719	3550.32
704.907	3867.76
705.096	3675.25
705.284	3591.28
705.472	3521.65
705.661	3556.47
705.849	3738.74
706.037	3593.33
706.226	3687.54
706.414	3497.08
706.602	3607.67
706.79	3617.91
706.979	3507.32
707.167	3550.32
707.355	3433.59
707.543	3597.43
707.731	3546.23
707.919	3472.5
708.107	3648.63
708.296	3423.35
708.484	3400.82
708.672	3441.78
708.86	3470.45
709.048	3501.17
709.236	3476.6
709.424	3421.3
709.612	3490.93
709.8	3515.51
709.988	3388.53
710.176	3482.74
710.364	3497.08
710.551	3374.2
710.739	3509.37
710.927	3386.49
711.115	3497.08
711.303	3337.34
711.491	3386.49
711.679	3409.01
711.866	3447.93
712.054	3300.47
712.242	3380.34
712.43	3323
712.617	3417.21
712.805	3314.81
712.993	3316.86
713.181	3220.6
713.368	3249.27
713.556	3228.79
713.744	3308.66
713.931	3312.76
714.119	3253.37
714.306	3323
714.494	3212.41
714.682	3241.08
714.869	3224.7
715.057	3226.75
715.244	3218.55
715.432	3288.18
715.619	3273.85
715.807	3243.13
715.994	3116.16
716.182	3181.69
716.369	3249.27
716.556	3320.95
716.744	3122.3
716.931	3144.83
717.119	3261.56
717.306	3153.02
717.493	3228.79
717.681	3189.88
717.868	3103.87
718.055	3165.31
718.242	3177.59
718.43	3222.65
718.617	2952.32
718.804	3112.06
718.991	3265.66
719.179	3052.67
719.366	3013.76
719.553	3232.89
719.74	3114.11
719.927	3001.47
720.114	3062.91
720.301	3030.14
720.488	3042.43
720.676	3085.44
720.863	3085.44
721.05	3013.76
721.237	3114.11
721.424	3026.04
721.611	3052.67
721.798	3034.24
721.985	2933.89
722.172	2946.17
722.358	3028.09
722.545	2937.98
722.732	2978.94
722.919	2958.46
723.106	2823.3
723.293	2933.89
723.48	2808.96
723.667	2950.27
723.853	2929.79
724.04	2995.32
724.227	2933.89
724.414	3019.9
724.6	2966.65
724.787	2950.27
724.974	2966.65
725.161	2894.97
725.347	2864.25
725.534	2894.97
725.72	2897.02
725.907	2778.24
726.094	2845.82
726.28	2917.5
726.467	2890.88
726.653	2860.16
726.84	2978.94
727.027	2866.3
727.213	2741.38
727.4	2823.3
727.586	3009.66
727.773	2811.01
727.959	2937.98
728.145	2821.25
728.332	2808.96
728.518	2962.56
728.705	2743.42
728.891	2757.76
729.077	2823.3
729.264	2763.9
729.45	2849.92
729.636	2782.34
729.823	2735.23
730.009	2829.44
730.195	2770.05
730.382	2858.11
730.568	2864.25
730.754	2794.62
730.94	2667.65
731.126	2835.58
731.313	2856.06
731.499	2768
731.685	2747.52
731.871	2681.99
732.057	2735.23
732.243	2540.68
732.429	2737.28
732.615	2706.56
732.801	2833.54
732.987	2638.98
733.173	2770.05
733.359	2690.18
733.545	2649.22
733.731	2747.52
733.917	2622.59
734.103	2768
734.289	2675.84
734.475	2663.55
734.661	2716.8
734.847	2624.64
735.033	2677.89
735.219	2774.14
735.404	2708.61
735.59	2698.37
735.776	2548.87
735.962	2626.69
736.148	2675.84
736.333	2634.88
736.519	2569.35
736.705	2661.51
736.89	2557.06
737.076	2600.07
737.262	2655.36
737.447	2559.11
737.633	2466.95
737.819	2489.48
738.004	2501.76
738.19	2575.49
738.375	2450.57
738.561	2571.4
738.747	2397.32
738.932	2452.61
739.118	2483.33
739.303	2548.87
739.489	2483.33
739.674	2368.65
739.859	2387.08
740.045	2559.11
740.23	2434.18
740.416	2438.28
740.601	2483.33
740.786	2436.23
740.972	2456.71
741.157	2356.36
741.342	2454.66
741.528	2407.56
741.713	2401.41
741.898	2376.84
742.084	2350.21
742.269	2456.71
742.454	2382.98
742.639	2411.65
742.824	2225.29
743.01	2397.32
743.195	2385.03
743.38	2292.87
743.565	2409.61
743.75	2241.67
743.935	2153.61
744.12	2237.58
744.305	2155.66
744.49	2206.86
744.675	2090.12
744.86	2196.62
745.045	2231.43
745.23	2239.62
745.415	2241.67
745.6	2210.95
745.785	2198.67
745.97	2213
746.155	2092.17
746.34	2043.02
746.525	2106.51
746.71	2098.31
746.895	2073.74
747.079	2098.31
747.264	2032.78
747.449	2139.27
747.634	2092.17
747.819	2000.01
748.003	2008.2
748.188	1983.63
748.373	1911.95
748.557	1948.81
748.742	1891.47
748.927	2002.06
749.111	1989.77
749.296	1946.76
749.481	1914
749.665	1830.03
749.85	1907.85
750.034	1815.69
750.219	1922.19
750.404	1844.37
750.588	1770.64
750.773	1850.51
750.957	1825.93
751.141	1850.51
751.326	1803.41
751.51	1744.02
751.695	1815.69
751.879	1780.88
752.064	1817.74
752.248	1780.88
752.432	1725.58
752.617	1707.15
752.801	1727.63
752.985	1639.57
753.17	1594.51
753.354	1655.95
753.538	1592.47
753.722	1670.29
753.907	1629.33
754.091	1625.23
754.275	1635.47
754.459	1610.9
754.643	1619.09
754.828	1604.75
755.012	1549.46
755.196	1520.79
755.38	1488.02
755.564	1557.65
755.748	1492.12
755.932	1557.65
756.116	1520.79
756.3	1445.01
756.484	1438.87
756.668	1512.6
756.852	1418.39
757.036	1477.78
757.22	1367.19
757.404	1477.78
757.588	1301.65
757.772	1436.82
757.956	1406.1
758.14	1442.96
758.323	1344.66
758.507	1379.48
758.691	1328.28
758.875	1463.44
759.059	1432.72
759.242	1260.7
759.426	1309.85
759.61	1309.85
759.794	1356.95
759.977	1324.18
760.161	1229.98
760.345	1361.05
760.528	1359
760.712	1318.04
760.895	1307.8
761.079	1305.75
761.263	1281.18
761.446	1258.65
761.63	1281.18
761.813	1244.31
761.997	1203.35
762.18	1189.02
762.364	1213.59
762.547	1193.11
762.731	1299.61
762.914	1193.11
763.098	1156.25
763.281	1219.74
763.464	1168.54
763.648	1082.52
763.831	1176.73
764.015	1172.63
764.198	1072.28
764.381	1078.43
764.564	1172.63
764.748	1217.69
764.931	1094.81
765.114	1141.91
765.297	1129.63
765.481	1070.23
765.664	1180.82
765.847	1107.1
766.03	1096.86
766.213	1057.95
766.397	1103
766.58	1025.18
766.763	1125.53
766.946	1043.61
767.129	1119.39
767.312	1037.47
767.495	1041.56
767.678	1082.52
767.861	1080.47
768.044	1078.43
768.227	1150.11
768.41	1070.23
768.593	1033.37
768.776	1000.6
768.959	945.31
769.142	1076.38
769.324	916.64
769.507	1037.47
769.69	1094.81
769.873	988.32
770.056	1070.23
770.239	918.68
770.421	939.16
770.604	990.36
770.787	933.02
770.97	933.02
771.152	976.03
771.335	994.46
771.518	1029.27
771.7	1019.04
771.883	994.46
772.066	969.88
772.248	965.79
772.431	961.69
772.613	918.68
772.796	857.25
772.978	900.25
773.161	996.51
773.343	937.12
773.526	933.02
773.708	824.48
773.891	865.44
774.073	789.66
774.256	885.92
774.438	873.63
774.621	836.77
774.803	939.16
774.985	894.11
775.168	795.81
775.35	795.81
775.532	877.73
775.715	816.29
775.897	814.24
776.079	804
776.261	804
776.444	742.56
776.626	853.15
776.808	744.61
776.99	715.94
777.173	748.7
777.355	711.84
777.537	701.6
777.719	791.71
777.901	713.89
778.083	806.05
778.265	756.9
778.447	769.18
778.629	668.83
778.811	715.94
778.993	726.18
779.175	787.61
779.357	732.32
779.539	685.22
779.721	695.46
779.903	771.23
780.085	613.54
780.267	666.78
780.449	677.02
780.631	654.5
780.812	771.23
780.994	627.87
781.176	566.43
781.358	656.54
781.54	591.01
781.721	619.68
781.903	570.53
782.085	623.78
782.267	646.3
782.448	648.35
782.63	582.82
782.812	629.92
782.993	601.25
783.175	605.35
783.357	631.97
783.538	656.54
783.72	476.32
783.901	519.33
784.083	611.49
784.264	597.15
784.446	545.95
784.627	509.09
784.809	494.76
784.99	527.52
785.172	601.25
785.353	566.43
785.535	545.95
785.716	570.53
785.897	431.27
786.079	519.33
786.26	496.8
786.441	535.71
786.623	461.99
786.804	449.7
786.985	515.23
787.167	472.23
787.348	476.32
787.529	455.84
787.71	480.42
787.891	496.8
788.073	429.22
788.254	441.51
788.435	455.84
788.616	404.64
788.797	429.22
788.978	457.89
789.159	347.3
789.34	414.88
789.522	445.6
789.703	384.16
789.884	414.88
790.065	406.69
790.246	421.03
790.427	423.08
790.607	474.28
790.788	398.5
790.969	439.46
791.15	371.88
791.331	406.69
791.512	375.97
791.693	406.69
791.874	363.69
792.054	427.17
792.235	437.41
792.416	365.73
792.597	365.73
792.778	345.25
792.958	345.25
793.139	359.59
793.32	332.97
793.5	330.92
793.681	418.98
793.862	355.49
794.042	470.18
794.223	283.81
794.404	380.07
794.584	294.05
794.765	279.72
794.945	310.44
795.126	337.06
795.306	345.25
795.487	322.73
795.667	324.77
795.848	378.02
796.028	337.06
796.209	363.69
796.389	304.29
796.57	330.92
796.75	273.57
796.93	281.77
797.111	251.05
797.291	251.05
797.471	253.09
797.652	310.44
797.832	363.69
798.012	287.91
798.192	259.24
798.373	304.29
798.553	224.42
798.733	240.81
798.913	185.51
799.093	279.72
799.274	318.63
799.454	298.15
799.634	220.33
799.814	255.14
799.994	318.63
800.174	273.57
800.354	320.68
800.534	265.38
800.714	294.05
800.894	253.09
801.074	273.57
801.254	322.73
801.434	367.78
801.614	312.49
801.794	232.62
801.974	496.8
802.154	158.89
802.334	292.01
802.514	214.18
802.693	220.33
802.873	251.05
803.053	271.53
803.233	152.74
803.413	246.95
803.592	265.38
803.772	271.53
803.952	220.33
804.131	210.09
804.311	228.52
804.491	277.67
804.67	240.81
804.85	263.33
805.03	210.09
805.209	232.62
805.389	179.37
805.568	232.62
805.748	167.08
805.928	269.48
806.107	210.09
806.287	199.85
806.466	195.75
806.646	226.47
806.825	144.55
807.004	150.7
807.184	187.56
807.363	179.37
807.543	148.65
807.722	150.7
807.901	175.27
808.081	318.63
808.26	146.6
808.439	205.99
808.619	167.08
808.798	150.7
808.977	205.99
809.156	195.75
809.336	175.27
809.515	226.47
809.694	144.55
809.873	201.9
810.052	185.51
810.231	146.6
810.411	175.27
810.59	160.94
810.769	117.93
810.948	214.18
811.127	181.42
811.306	177.32
811.485	160.94
811.664	195.75
811.843	187.56
812.022	162.98
812.201	122.02
812.38	130.22
812.559	162.98
812.737	185.51
812.916	124.07
813.095	79.02
813.274	91.31
813.453	144.55
813.632	142.5
813.811	173.22
813.989	187.56
814.168	126.12
814.347	128.17
814.526	128.17
814.704	191.66
814.883	193.7
815.062	201.9
815.24	103.59
815.419	105.64
815.598	128.17
815.776	97.45
815.955	122.02
816.133	103.59
816.312	97.45
816.49	111.78
816.669	183.46
816.847	144.55
817.026	210.09
817.204	201.9
817.383	134.31
817.561	60.59
817.74	203.94
817.918	160.94
818.097	124.07
818.275	140.46
818.453	150.7
818.632	203.94
818.81	169.13
818.988	87.21
819.167	132.26
819.345	160.94
819.523	132.26
819.701	201.9
819.879	134.31
820.058	189.61
820.236	210.09
820.414	103.59
820.592	158.89
820.77	148.65
820.948	124.07
821.127	158.89
821.305	152.74
821.483	74.92
821.661	109.74
821.839	181.42
822.017	97.45
822.195	119.98
822.373	107.69
822.551	103.59
822.729	99.5
822.907	99.5
823.085	124.07
823.262	132.26
823.44	107.69
823.618	66.73
823.796	87.21
823.974	17.58
824.152	27.82
824.329	130.22
824.507	132.26
824.685	66.73
824.863	128.17
825.04	27.82
825.218	146.6
825.396	64.68
825.574	138.41
825.751	79.02
825.929	74.92
826.107	142.5
826.284	107.69
826.462	76.97
826.639	48.3
826.817	72.87
826.994	81.07
827.172	42.15
827.349	107.69
827.527	113.83
827.704	119.98
827.882	21.67
828.059	87.21
828.237	113.83
828.414	-33.62
828.591	81.07
828.769	72.87
828.946	60.59
829.124	107.69
829.301	87.21
829.478	74.92
829.655	68.78
829.833	103.59
830.01	101.55
830.187	95.4
830.364	85.16
830.542	9.39
830.719	95.4
830.896	99.5
831.073	58.54
831.25	62.63
831.427	105.64
831.604	52.39
831.782	48.3
831.959	95.4
832.136	109.74
832.313	17.58
832.49	13.48
832.667	54.44
832.844	68.78
833.021	97.45
833.198	36.01
833.374	79.02
833.551	68.78
833.728	-2.9
833.905	38.06
834.082	76.97
834.259	36.01
834.436	66.73
834.612	68.78
834.789	101.55
834.966	76.97
835.143	95.4
835.319	93.35
835.496	46.25
835.673	95.4
835.85	105.64
836.026	103.59
836.203	105.64
836.38	5.29
836.556	134.31
836.733	193.7
836.909	91.31
837.086	17.58
837.262	25.77
837.439	44.2
837.616	15.53
837.792	66.73
837.968	7.34
838.145	36.01
838.321	68.78
838.498	44.2
838.674	56.49
838.851	46.25
839.027	15.53
839.203	87.21
839.38	27.82
839.556	-25.43
839.732	36.01
839.909	74.92
840.085	99.5
840.261	-19.29
840.437	93.35
840.614	1.19
840.79	60.59
840.966	23.72
841.142	68.78
841.318	36.01
841.494	105.64
841.671	85.16
841.847	27.82
842.023	3.24
842.199	56.49
842.375	48.3
842.551	99.5
842.727	-35.67
842.903	29.87
843.079	13.48
843.255	33.96
843.431	-25.43
843.607	105.64
843.783	27.82
843.959	93.35
844.134	46.25
844.31	21.67
844.486	13.48
844.662	60.59
844.838	21.67
845.013	-21.33
845.189	62.63
845.365	46.25
845.541	13.48
845.716	9.39
845.892	29.87
846.068	122.02
846.244	1.19
846.419	-11.09
846.595	-0.85
846.77	-4.95
846.946	44.2
847.122	-19.29
847.297	-11.09
847.473	54.44
847.648	5.29
847.824	17.58
847.999	-25.43
848.175	87.21
848.35	-41.81
848.526	13.48
848.701	-62.29
848.876	58.54
849.052	-41.81
849.227	87.21
849.403	66.73
849.578	58.54
849.753	87.21
849.929	44.2
850.104	-7
850.279	15.53
850.454	36.01
850.63	-11.09
850.805	-80.72
850.98	40.11
851.155	-29.52
851.33	-11.09
851.505	52.39
851.681	-7
851.856	7.34
852.031	68.78
852.206	46.25
852.381	40.11
852.556	-31.57
852.731	13.48
852.906	-7
853.081	62.63
853.256	-2.9
853.431	5.29
853.606	7.34
853.781	-39.76
853.956	-54.1
854.131	-47.96
854.305	5.29
854.48	42.15
854.655	1.19
854.83	-2.9
855.005	38.06
855.18	29.87
855.354	9.39
855.529	83.11
855.704	70.83
855.879	-0.85
856.053	40.11
856.228	-11.09
856.403	46.25
856.577	29.87
856.752	-41.81
856.926	-23.38
857.101	-0.85
857.276	25.77
857.45	11.43
857.625	36.01
857.799	-29.52
857.974	17.58
858.148	17.58
858.323	91.31
858.497	-11.09
858.672	60.59
858.846	-52.05
859.02	68.78
859.195	-21.33
859.369	15.53
859.543	-25.43
859.718	-23.38
859.892	-4.95
860.066	-64.34
860.241	-54.1
860.415	81.07
860.589	15.53
860.763	-4.95
860.938	15.53
861.112	56.49
861.286	17.58
861.46	-25.43
861.634	-33.62
861.808	-11.09
861.982	-66.39
862.157	5.29
862.331	1.19
862.505	5.29
862.679	-27.48
862.853	-0.85
863.027	17.58
863.201	68.78
863.375	1.19
863.549	-2.9
863.722	-60.24
863.896	99.5
864.07	-101.2
864.244	42.15
864.418	13.48
864.592	-76.63
864.766	-68.44
864.939	-4.95
865.113	1.19
865.287	31.91
865.461	1.19
865.634	42.15
865.808	-78.68
865.982	31.91
866.156	-68.44
866.329	-97.11
866.503	48.3
866.676	54.44
866.85	-9.05
867.024	-78.68
867.197	46.25
867.371	-13.14
867.544	23.72
867.718	-0.85
867.891	5.29
868.065	-64.34
868.238	46.25
868.412	-31.57
868.585	-2.9
868.759	17.58
868.932	-29.52
869.105	-56.15
869.279	15.53
869.452	-4.95
869.625	-2.9
869.799	29.87
869.972	-43.86
870.145	-13.14
870.319	-43.86
870.492	11.43
870.665	40.11
870.838	-23.38
871.011	-31.57
871.185	13.48
871.358	42.15
871.531	29.87
871.704	-17.24
871.877	-50
872.05	-21.33
872.223	-4.95
872.396	19.63
872.569	42.15
872.742	-39.76
872.915	56.49
873.088	-70.48
873.261	-35.67
873.434	-37.72
873.607	19.63
873.78	33.96
873.953	13.48
874.126	46.25
874.299	-54.1
874.471	38.06
874.644	-39.76
874.817	19.63
874.99	54.44
875.163	-72.53
875.335	-25.43
875.508	25.77
875.681	-23.38
875.853	21.67
876.026	25.77
876.199	40.11
876.371	25.77
876.544	-23.38
876.717	64.68
876.889	3.24
877.062	-25.43
877.234	-27.48
877.407	-15.19
877.579	33.96
877.752	7.34
877.924	44.2
878.097	-60.24
878.269	-27.48
878.442	-33.62
878.614	25.77
878.786	48.3
878.959	-4.95
879.131	50.35
879.303	11.43
879.476	-84.82
879.648	-7
879.82	-19.29
879.993	-41.81
880.165	-35.67
880.337	-41.81
880.509	56.49
880.681	-17.24
880.854	-2.9
881.026	1.19
881.198	95.4
881.37	-50
881.542	27.82
881.714	-29.52
881.886	-13.14
882.058	13.48
882.23	-17.24
882.402	-15.19
882.574	50.35
882.746	-19.29
882.918	19.63
883.09	-43.86
883.262	-43.86
883.434	-74.58
883.606	-54.1
883.778	21.67
883.95	-29.52
884.122	-52.05
884.293	50.35
884.465	-29.52
884.637	-11.09
884.809	-21.33
884.98	-45.91
885.152	-23.38
885.324	85.16
885.496	-43.86
885.667	27.82
885.839	-11.09
886.011	1.19
886.182	-50
886.354	-4.95
886.525	-27.48
886.697	-68.44
886.869	-0.85
887.04	1.19
887.212	-39.76
887.383	-19.29
887.555	-39.76
887.726	-27.48
887.897	-29.52
888.069	-27.48
888.24	-31.57
888.412	-68.44
888.583	-60.24
888.754	-15.19
888.926	-21.33
889.097	-43.86
889.268	29.87
889.44	13.48
889.611	-52.05
889.782	-19.29
889.953	-99.16
890.125	7.34
890.296	-21.33
890.467	-7
890.638	-52.05
890.809	15.53
890.98	40.11
891.151	-58.2
891.323	1.19
891.494	9.39
891.665	-39.76
891.836	-52.05
892.007	-47.96
892.178	-43.86
892.349	60.59
892.52	9.39
892.691	-54.1
892.862	19.63
893.032	-27.48
893.203	13.48
893.374	-50
893.545	5.29
893.716	-25.43
893.887	-43.86
894.057	40.11
894.228	-7
894.399	-70.48
894.57	7.34
894.74	-70.48
894.911	7.34
895.082	-4.95
895.253	-43.86
895.423	1.19
895.594	38.06
895.764	-17.24
895.935	1.19
896.106	-64.34
896.276	17.58
896.447	-37.72
896.617	36.01
896.788	5.29
896.958	54.44
897.129	-127.83
897.299	-84.82
897.47	-45.91
897.64	17.58
897.81	-64.34
897.981	-27.48
898.151	-15.19
898.322	-35.67
898.492	-11.09
898.662	-62.29
898.832	-76.63
899.003	-23.38
899.173	-41.81
899.343	-33.62
899.513	-74.58
