Data from USB4F104151__191__11-09-50-421.txt Node

Date: Wed Mar 12 11:09:50 EDT 2025
User: louis
Spectrometer: USB4F10415
Trigger mode: 4
Integration Time (sec): 2.000000E-2
Scans to average: 1
Electric dark correction enabled: true
Nonlinearity correction enabled: false
Boxcar width: 0
XAxis mode: Wavelengths
Number of Pixels in Spectrum: 3648
>>>>>Begin Spectral Data<<<<<
178.204	-61.78
178.424	-61.78
178.644	-61.78
178.864	-117.08
179.084	-65.88
179.304	46.76
179.524	-16.73
179.744	5.8
179.964	-43.35
180.184	75.43
180.404	-53.59
180.624	13.99
180.844	-59.73
181.064	-41.3
181.283	22.19
181.503	22.19
181.723	28.33
181.943	-90.45
182.163	20.14
182.383	36.52
182.602	46.76
182.822	-16.73
183.042	11.95
183.262	-10.58
183.482	-57.68
183.701	3.75
183.921	-4.44
184.141	81.58
184.361	65.19
184.58	16.04
184.8	13.99
185.02	-35.16
185.239	52.91
185.459	3.75
185.679	48.81
185.898	11.95
186.118	40.62
186.338	28.33
186.557	120.49
186.777	-8.53
186.997	-37.2
187.216	18.09
187.436	42.67
187.655	30.38
187.875	136.87
188.095	-55.64
188.314	-12.63
188.534	63.15
188.753	-14.68
188.973	-59.73
189.192	11.95
189.412	38.57
189.631	-29.01
189.851	1.71
190.07	-6.49
190.29	-2.39
190.509	-4.44
190.729	30.38
190.948	57
191.168	50.86
191.387	71.34
191.607	22.19
191.826	9.9
192.045	22.19
192.265	-22.87
192.484	-18.77
192.704	20.14
192.923	-57.68
193.142	40.62
193.362	57
193.581	38.57
193.8	34.47
194.02	36.52
194.239	24.23
194.458	-26.96
194.678	-2.39
194.897	9.9
195.116	28.33
195.335	5.8
195.555	-0.34
195.774	-14.68
195.993	-12.63
196.212	-18.77
196.432	-59.73
196.651	26.28
196.87	-45.4
197.089	9.9
197.308	44.71
197.528	67.24
197.747	-2.39
197.966	7.85
198.185	108.2
198.404	20.14
198.623	50.86
198.842	-8.53
199.062	7.85
199.281	73.39
199.5	-35.16
199.719	-8.53
199.938	-24.92
200.157	30.38
200.376	-47.44
200.595	-29.01
200.814	-20.82
201.033	59.05
201.252	63.15
201.471	5.8
201.69	-24.92
201.909	42.67
202.128	-20.82
202.347	-39.25
202.566	-24.92
202.785	-35.16
203.004	-31.06
203.223	57
203.442	-0.34
203.661	-35.16
203.879	63.15
204.098	52.91
204.317	3.75
204.536	89.77
204.755	-63.83
204.974	-20.82
205.193	-10.58
205.411	50.86
205.63	-6.49
205.849	3.75
206.068	-26.96
206.287	36.52
206.505	-31.06
206.724	-33.11
206.943	-8.53
207.162	-39.25
207.381	-41.3
207.599	16.04
207.818	30.38
208.037	-18.77
208.255	61.1
208.474	-4.44
208.693	52.91
208.911	-47.44
209.13	-22.87
209.349	5.8
209.567	9.9
209.786	-18.77
210.005	-2.39
210.223	-31.06
210.442	-29.01
210.661	67.24
210.879	-24.92
211.098	5.8
211.316	-35.16
211.535	100.01
211.753	-33.11
211.972	44.71
212.191	-0.34
212.409	-2.39
212.628	-45.4
212.846	40.62
213.065	30.38
213.283	22.19
213.502	16.04
213.72	-45.4
213.938	11.95
214.157	-53.59
214.375	-76.12
214.594	-10.58
214.812	-29.01
215.031	7.85
215.249	22.19
215.467	-61.78
215.686	-4.44
215.904	-33.11
216.122	-6.49
216.341	57
216.559	46.76
216.778	97.96
216.996	50.86
217.214	7.85
217.432	3.75
217.651	11.95
217.869	-18.77
218.087	-33.11
218.306	59.05
218.524	-29.01
218.742	-22.87
218.96	32.43
219.179	-6.49
219.397	52.91
219.615	54.95
219.833	-24.92
220.051	13.99
220.27	13.99
220.488	38.57
220.706	-4.44
220.924	20.14
221.142	16.04
221.36	-59.73
221.578	-0.34
221.796	16.04
222.015	-16.73
222.233	-33.11
222.451	-8.53
222.669	-51.54
222.887	28.33
223.105	30.38
223.323	-8.53
223.541	-69.97
223.759	-45.4
223.977	-33.11
224.195	42.67
224.413	-51.54
224.631	-8.53
224.849	-29.01
225.067	24.23
225.285	-55.64
225.503	61.1
225.721	-145.75
225.939	50.86
226.157	-33.11
226.375	89.77
226.592	-10.58
226.81	22.19
227.028	-65.88
227.246	24.23
227.464	-31.06
227.682	5.8
227.9	38.57
228.117	42.67
228.335	-41.3
228.553	-18.77
228.771	9.9
228.989	-22.87
229.206	5.8
229.424	-24.92
229.642	5.8
229.86	40.62
230.077	7.85
230.295	81.58
230.513	16.04
230.731	5.8
230.948	-18.77
231.166	42.67
231.384	18.09
231.601	-41.3
231.819	48.81
232.037	-57.68
232.254	59.05
232.472	-37.2
232.689	-49.49
232.907	91.82
233.125	7.85
233.342	91.82
233.56	16.04
233.777	32.43
233.995	-16.73
234.213	73.39
234.43	67.24
234.648	-69.97
234.865	-8.53
235.083	52.91
235.3	-20.82
235.518	20.14
235.735	18.09
235.953	3.75
236.17	-12.63
236.388	-20.82
236.605	30.38
236.822	44.71
237.04	-22.87
237.257	-12.63
237.475	-29.01
237.692	40.62
237.909	-0.34
238.127	44.71
238.344	-0.34
238.562	50.86
238.779	26.28
238.996	-49.49
239.214	5.8
239.431	-0.34
239.648	7.85
239.865	-26.96
240.083	22.19
240.3	7.85
240.517	-8.53
240.735	63.15
240.952	73.39
241.169	28.33
241.386	13.99
241.603	26.28
241.821	-49.49
242.038	79.53
242.255	11.95
242.472	-16.73
242.689	13.99
242.907	54.95
243.124	46.76
243.341	13.99
243.558	-2.39
243.775	93.87
243.992	-33.11
244.209	-57.68
244.426	52.91
244.643	42.67
244.86	-12.63
245.078	34.47
245.295	42.67
245.512	32.43
245.729	18.09
245.946	59.05
246.163	24.23
246.38	13.99
246.597	3.75
246.814	-12.63
247.031	81.58
247.248	-6.49
247.464	-6.49
247.681	13.99
247.898	67.24
248.115	1.71
248.332	11.95
248.549	36.52
248.766	-33.11
248.983	-6.49
249.2	44.71
249.417	28.33
249.633	18.09
249.85	-12.63
250.067	-22.87
250.284	24.23
250.501	11.95
250.717	-6.49
250.934	-16.73
251.151	16.04
251.368	24.23
251.585	-0.34
251.801	9.9
252.018	-10.58
252.235	-22.87
252.451	-22.87
252.668	32.43
252.885	54.95
253.102	-6.49
253.318	104.11
253.535	-24.92
253.752	30.38
253.968	-22.87
254.185	3.75
254.401	22.19
254.618	32.43
254.835	-22.87
255.051	112.3
255.268	50.86
255.484	40.62
255.701	44.71
255.917	32.43
256.134	-39.25
256.351	-61.78
256.567	-35.16
256.784	-37.2
257	32.43
257.217	40.62
257.433	-49.49
257.65	24.23
257.866	32.43
258.082	-14.68
258.299	-0.34
258.515	30.38
258.732	-20.82
258.948	-53.59
259.165	-20.82
259.381	16.04
259.597	-43.35
259.814	-2.39
260.03	-51.54
260.246	7.85
260.463	22.19
260.679	75.43
260.895	52.91
261.112	59.05
261.328	48.81
261.544	-49.49
261.761	61.1
261.977	32.43
262.193	36.52
262.409	-18.77
262.626	-6.49
262.842	75.43
263.058	5.8
263.274	40.62
263.49	87.72
263.707	22.19
263.923	-18.77
264.139	20.14
264.355	63.15
264.571	16.04
264.787	28.33
265.004	81.58
265.22	65.19
265.436	52.91
265.652	1.71
265.868	-61.78
266.084	32.43
266.3	46.76
266.516	22.19
266.732	65.19
266.948	20.14
267.164	-37.2
267.38	48.81
267.596	44.71
267.812	32.43
268.028	48.81
268.244	-41.3
268.46	30.38
268.676	28.33
268.892	-31.06
269.108	-12.63
269.324	65.19
269.54	-4.44
269.756	85.67
269.972	-20.82
270.188	-33.11
270.403	32.43
270.619	-26.96
270.835	44.71
271.051	24.23
271.267	-37.2
271.483	-18.77
271.698	-33.11
271.914	22.19
272.13	110.25
272.346	22.19
272.562	-4.44
272.777	16.04
272.993	13.99
273.209	-8.53
273.425	57
273.64	-29.01
273.856	5.8
274.072	52.91
274.287	22.19
274.503	16.04
274.719	-29.01
274.934	65.19
275.15	7.85
275.366	-8.53
275.581	-16.73
275.797	28.33
276.012	-18.77
276.228	71.34
276.444	57
276.659	40.62
276.875	89.77
277.09	18.09
277.306	-49.49
277.521	-78.16
277.737	20.14
277.952	48.81
278.168	24.23
278.383	3.75
278.599	-10.58
278.814	95.91
279.03	28.33
279.245	32.43
279.461	57
279.676	65.19
279.892	-49.49
280.107	-0.34
280.322	-10.58
280.538	13.99
280.753	-49.49
280.969	85.67
281.184	24.23
281.399	-74.07
281.615	32.43
281.83	34.47
282.045	-31.06
282.26	-63.83
282.476	46.76
282.691	3.75
282.906	-10.58
283.122	-16.73
283.337	16.04
283.552	26.28
283.767	-57.68
283.983	16.04
284.198	-18.77
284.413	46.76
284.628	-20.82
284.843	52.91
285.058	59.05
285.274	3.75
285.489	-88.4
285.704	65.19
285.919	13.99
286.134	-20.82
286.349	20.14
286.564	-29.01
286.779	16.04
286.995	42.67
287.21	34.47
287.425	-47.44
287.64	-26.96
287.855	3.75
288.07	-76.12
288.285	-45.4
288.5	-84.31
288.715	30.38
288.93	-65.88
289.145	30.38
289.36	3.75
289.575	34.47
289.79	-49.49
290.004	24.23
290.219	36.52
290.434	-29.01
290.649	-37.2
290.864	89.77
291.079	-35.16
291.294	3.75
291.509	7.85
291.724	34.47
291.938	-12.63
292.153	-39.25
292.368	-4.44
292.583	-8.53
292.798	81.58
293.012	11.95
293.227	-63.83
293.442	44.71
293.657	54.95
293.871	13.99
294.086	75.43
294.301	52.91
294.516	61.1
294.73	-39.25
294.945	-57.68
295.16	48.81
295.374	7.85
295.589	-29.01
295.804	24.23
296.018	-8.53
296.233	16.04
296.447	11.95
296.662	34.47
296.877	9.9
297.091	13.99
297.306	-45.4
297.52	-41.3
297.735	-22.87
297.949	-35.16
298.164	42.67
298.378	13.99
298.593	65.19
298.807	-2.39
299.022	59.05
299.236	-2.39
299.451	-20.82
299.665	-51.54
299.88	69.29
300.094	-82.26
300.309	-2.39
300.523	-31.06
300.737	32.43
300.952	-8.53
301.166	-43.35
301.381	124.58
301.595	59.05
301.809	-39.25
302.024	28.33
302.238	-4.44
302.452	40.62
302.667	30.38
302.881	87.72
303.095	57
303.309	59.05
303.524	-33.11
303.738	-4.44
303.952	-39.25
304.166	93.87
304.381	-10.58
304.595	26.28
304.809	42.67
305.023	44.71
305.237	-0.34
305.452	-35.16
305.666	20.14
305.88	-24.92
306.094	54.95
306.308	20.14
306.522	-14.68
306.736	20.14
306.95	69.29
307.164	26.28
307.379	26.28
307.593	36.52
307.807	-16.73
308.021	32.43
308.235	36.52
308.449	50.86
308.663	-0.34
308.877	95.91
309.091	-82.26
309.305	20.14
309.519	20.14
309.733	79.53
309.947	-39.25
310.161	16.04
310.374	52.91
310.588	20.14
310.802	-37.2
311.016	-12.63
311.23	18.09
311.444	-41.3
311.658	48.81
311.872	24.23
312.085	34.47
312.299	-22.87
312.513	44.71
312.727	-20.82
312.941	-16.73
313.154	7.85
313.368	-31.06
313.582	22.19
313.796	7.85
314.009	11.95
314.223	100.01
314.437	116.39
314.651	-2.39
314.864	34.47
315.078	26.28
315.292	-10.58
315.505	-49.49
315.719	-59.73
315.933	-8.53
316.146	54.95
316.36	-39.25
316.573	28.33
316.787	-43.35
317.001	1.71
317.214	-4.44
317.428	18.09
317.641	1.71
317.855	18.09
318.068	-57.68
318.282	-16.73
318.495	22.19
318.709	61.1
318.922	16.04
319.136	9.9
319.349	46.76
319.563	-33.11
319.776	63.15
319.99	-37.2
320.203	61.1
320.417	18.09
320.63	-31.06
320.843	-39.25
321.057	7.85
321.27	20.14
321.483	22.19
321.697	77.48
321.91	34.47
322.124	-69.97
322.337	3.75
322.55	-10.58
322.763	46.76
322.977	24.23
323.19	-26.96
323.403	75.43
323.617	32.43
323.83	108.2
324.043	5.8
324.256	44.71
324.469	1.71
324.683	-33.11
324.896	-6.49
325.109	42.67
325.322	-10.58
325.535	61.1
325.748	-16.73
325.962	-31.06
326.175	46.76
326.388	11.95
326.601	32.43
326.814	-20.82
327.027	30.38
327.24	65.19
327.453	-16.73
327.666	79.53
327.879	11.95
328.092	38.57
328.305	85.67
328.518	-10.58
328.731	30.38
328.944	85.67
329.157	-2.39
329.37	38.57
329.583	46.76
329.796	59.05
330.009	-31.06
330.222	57
330.435	18.09
330.648	-12.63
330.861	5.8
331.073	42.67
331.286	44.71
331.499	24.23
331.712	-39.25
331.925	7.85
332.138	5.8
332.35	69.29
332.563	-14.68
332.776	-14.68
332.989	13.99
333.202	40.62
333.414	-65.88
333.627	38.57
333.84	-74.07
334.053	57
334.265	-18.77
334.478	-41.3
334.691	-41.3
334.903	34.47
335.116	18.09
335.329	-76.12
335.541	22.19
335.754	57
335.966	54.95
336.179	24.23
336.392	1.71
336.604	46.76
336.817	54.95
337.029	97.96
337.242	-49.49
337.454	-0.34
337.667	61.1
337.88	-31.06
338.092	24.23
338.305	30.38
338.517	28.33
338.729	30.38
338.942	16.04
339.154	1.71
339.367	7.85
339.579	-16.73
339.792	-74.07
340.004	-26.96
340.217	30.38
340.429	-4.44
340.641	40.62
340.854	36.52
341.066	59.05
341.278	36.52
341.491	57
341.703	46.76
341.915	-18.77
342.128	22.19
342.34	65.19
342.552	65.19
342.764	50.86
342.977	5.8
343.189	-39.25
343.401	-14.68
343.613	26.28
343.826	16.04
344.038	32.43
344.25	-10.58
344.462	-0.34
344.674	32.43
344.886	118.44
345.099	65.19
345.311	13.99
345.523	-49.49
345.735	-26.96
345.947	5.8
346.159	20.14
346.371	26.28
346.583	44.71
346.795	-29.01
347.007	34.47
347.219	20.14
347.431	7.85
347.643	-12.63
347.855	26.28
348.067	-18.77
348.279	-49.49
348.491	18.09
348.703	9.9
348.915	3.75
349.127	-6.49
349.339	22.19
349.551	97.96
349.763	79.53
349.975	22.19
350.187	32.43
350.399	71.34
350.61	-2.39
350.822	61.1
351.034	32.43
351.246	5.8
351.458	-16.73
351.669	26.28
351.881	1.71
352.093	-20.82
352.305	52.91
352.517	-69.97
352.728	5.8
352.94	-4.44
353.152	-41.3
353.363	61.1
353.575	42.67
353.787	48.81
353.999	-29.01
354.21	44.71
354.422	81.58
354.633	20.14
354.845	73.39
355.057	-47.44
355.268	40.62
355.48	50.86
355.692	7.85
355.903	-4.44
356.115	-4.44
356.326	-12.63
356.538	-0.34
356.749	-29.01
356.961	42.67
357.172	32.43
357.384	-33.11
357.595	67.24
357.807	-86.36
358.018	-12.63
358.23	-59.73
358.441	46.76
358.653	57
358.864	-24.92
359.075	28.33
359.287	5.8
359.498	57
359.709	46.76
359.921	40.62
360.132	9.9
360.344	32.43
360.555	5.8
360.766	-43.35
360.977	57
361.189	1.71
361.4	-59.73
361.611	16.04
361.823	48.81
362.034	-41.3
362.245	11.95
362.456	-2.39
362.667	24.23
362.879	69.29
363.09	34.47
363.301	30.38
363.512	85.67
363.723	59.05
363.935	-2.39
364.146	26.28
364.357	-35.16
364.568	-0.34
364.779	3.75
364.99	57
365.201	-2.39
365.412	9.9
365.623	106.15
365.834	20.14
366.045	16.04
366.256	16.04
366.467	-14.68
366.678	26.28
366.889	5.8
367.1	46.76
367.311	1.71
367.522	11.95
367.733	11.95
367.944	-57.68
368.155	73.39
368.366	46.76
368.577	36.52
368.788	20.14
368.999	-10.58
369.209	-2.39
369.42	1.71
369.631	38.57
369.842	28.33
370.053	-8.53
370.264	22.19
370.474	59.05
370.685	18.09
370.896	63.15
371.107	-16.73
371.317	106.15
371.528	-6.49
371.739	40.62
371.95	-65.88
372.16	-14.68
372.371	-0.34
372.582	30.38
372.792	7.85
373.003	-53.59
373.214	-29.01
373.424	32.43
373.635	-8.53
373.846	-2.39
374.056	36.52
374.267	-12.63
374.477	24.23
374.688	59.05
374.898	38.57
375.109	61.1
375.319	54.95
375.53	20.14
375.74	3.75
375.951	38.57
376.161	13.99
376.372	69.29
376.582	1.71
376.793	13.99
377.003	-20.82
377.214	-2.39
377.424	9.9
377.635	67.24
377.845	-20.82
378.055	48.81
378.266	-4.44
378.476	75.43
378.686	-4.44
378.897	-10.58
379.107	61.1
379.317	75.43
379.528	-39.25
379.738	50.86
379.948	32.43
380.158	36.52
380.369	-26.96
380.579	24.23
380.789	30.38
380.999	26.28
381.21	-29.01
381.42	18.09
381.63	97.96
381.84	73.39
382.05	46.76
382.261	20.14
382.471	67.24
382.681	-20.82
382.891	75.43
383.101	65.19
383.311	-12.63
383.521	16.04
383.731	28.33
383.941	81.58
384.151	22.19
384.361	61.1
384.571	-0.34
384.781	-0.34
384.991	3.75
385.201	44.71
385.411	-2.39
385.621	63.15
385.831	32.43
386.041	65.19
386.251	-49.49
386.461	-10.58
386.671	26.28
386.881	28.33
387.091	-37.2
387.301	-6.49
387.511	-37.2
387.72	52.91
387.93	30.38
388.14	26.28
388.35	18.09
388.56	89.77
388.769	-10.58
388.979	24.23
389.189	28.33
389.399	95.91
389.609	61.1
389.818	32.43
390.028	34.47
390.238	52.91
390.447	-2.39
390.657	114.34
390.867	65.19
391.076	57
391.286	40.62
391.496	87.72
391.705	-0.34
391.915	11.95
392.125	-16.73
392.334	-31.06
392.544	-0.34
392.753	30.38
392.963	42.67
393.172	-8.53
393.382	16.04
393.591	79.53
393.801	-6.49
394.01	26.28
394.22	61.1
394.429	-20.82
394.639	20.14
394.848	-16.73
395.058	77.48
395.267	120.49
395.477	11.95
395.686	5.8
395.895	79.53
396.105	112.3
396.314	73.39
396.524	26.28
396.733	40.62
396.942	32.43
397.152	40.62
397.361	36.52
397.57	-2.39
397.78	3.75
397.989	13.99
398.198	44.71
398.407	34.47
398.617	24.23
398.826	7.85
399.035	46.76
399.244	114.34
399.453	108.2
399.663	32.43
399.872	44.71
400.081	85.67
400.29	44.71
400.499	50.86
400.708	77.48
400.917	-20.82
401.127	91.82
401.336	48.81
401.545	79.53
401.754	18.09
401.963	59.05
402.172	-16.73
402.381	18.09
402.59	34.47
402.799	73.39
403.008	104.11
403.217	63.15
403.426	87.72
403.635	48.81
403.844	52.91
404.053	59.05
404.262	42.67
404.471	138.92
404.68	26.28
404.888	108.2
405.097	36.52
405.306	153.26
405.515	61.1
405.724	36.52
405.933	75.43
406.142	102.06
406.35	69.29
406.559	140.97
406.768	75.43
406.977	95.91
407.185	130.73
407.394	50.86
407.603	93.87
407.812	175.78
408.02	134.82
408.229	126.63
408.438	108.2
408.646	102.06
408.855	71.34
409.064	159.4
409.272	124.58
409.481	194.22
409.69	118.44
409.898	175.78
410.107	165.54
410.315	220.84
410.524	200.36
410.733	108.2
410.941	181.93
411.15	233.13
411.358	188.07
411.567	190.12
411.775	188.07
411.984	181.93
412.192	206.5
412.401	310.95
412.609	233.13
412.818	208.55
413.026	198.31
413.234	161.45
413.443	333.48
413.651	290.47
413.86	286.37
414.068	374.44
414.276	345.77
414.485	323.24
414.693	370.34
414.901	349.86
415.11	370.34
415.318	329.38
415.526	339.62
415.734	386.72
415.943	411.3
416.151	468.64
416.359	423.59
416.567	480.93
416.776	495.27
416.984	532.13
417.192	568.99
417.4	507.55
417.608	515.75
417.817	540.32
418.025	595.62
418.233	626.34
418.441	673.44
418.649	562.85
418.857	636.58
419.065	743.07
419.273	734.88
419.481	693.92
419.689	765.6
419.897	886.43
420.105	800.41
420.313	892.57
420.521	872.09
420.729	843.42
420.937	1044.12
421.145	868
421.353	935.58
421.561	1068.7
421.769	1031.83
421.977	1101.47
422.185	1068.7
422.393	1060.51
422.601	1089.18
422.809	1255.06
423.017	1167
423.224	1214.1
423.432	1357.46
423.64	1326.74
423.848	1539.73
424.056	1336.98
424.263	1556.11
424.471	1642.13
424.679	1611.41
424.887	1674.9
425.094	1650.32
425.302	1715.86
425.51	1701.52
425.718	1724.05
425.925	1793.68
426.133	1883.79
426.341	2064.01
426.548	2131.59
426.756	2166.41
426.964	2188.94
427.171	2221.7
427.379	2236.04
427.586	2385.54
427.794	2451.08
428.001	2598.53
428.209	2477.7
428.417	2602.63
428.624	2825.86
428.832	2721.41
429.039	2752.13
429.247	2696.83
429.454	2907.77
429.662	3354.23
429.869	2991.74
430.076	3106.43
430.284	3092.09
430.491	3266.17
430.699	3612.28
430.906	3464.82
431.114	3501.69
431.321	3628.66
431.528	3581.56
431.736	3866.22
431.943	4200.04
432.15	3989.1
432.358	4073.07
432.565	4236.91
432.772	4220.52
432.979	4429.42
433.187	4472.42
433.394	4535.91
433.601	4892.26
433.808	4939.36
434.016	4796
434.223	5011.04
434.43	5369.43
434.637	5283.42
434.844	5563.99
435.052	5766.74
435.259	5731.92
435.466	5768.79
435.673	5631.57
435.88	6028.88
436.087	6454.86
436.294	6467.14
436.501	6217.29
436.708	6241.87
436.915	6538.82
437.122	6848.07
437.329	6729.28
437.537	6813.25
437.743	7016
437.95	7054.91
438.157	7564.86
438.364	7593.53
438.571	7636.53
438.778	7630.39
438.985	8619.56
439.192	8138.29
439.399	8226.35
439.606	8078.9
439.813	8652.33
440.02	9156.13
440.227	8924.71
440.433	8724.01
440.64	9145.89
440.847	9205.28
441.054	9137.7
441.261	9836.05
441.467	9686.55
441.674	10003.99
441.881	10206.73
442.088	10294.8
442.294	10030.61
442.501	10501.64
442.708	10911.24
442.914	11304.45
443.121	11658.74
443.328	11322.88
443.534	12060.15
443.741	11677.18
443.948	11501.05
444.154	12678.63
444.361	12156.4
444.568	12621.29
444.774	12410.35
444.981	12629.48
445.187	13245.92
445.394	13622.75
445.6	13252.06
445.807	14724.55
446.013	13987.29
446.22	14271.95
446.426	14910.92
446.633	14812.62
446.839	15340.99
447.046	14738.89
447.252	15654.33
447.459	15435.2
447.665	15830.46
447.871	16270.77
448.078	16942.5
448.284	16098.74
448.491	16399.79
448.697	17175.97
448.903	17485.22
449.11	17692.06
449.316	17161.64
449.522	17405.35
449.728	17849.75
449.935	18206.1
450.141	18150.81
450.347	18505.1
450.553	18005.4
450.76	17966.49
450.966	18496.91
451.172	18455.95
451.378	18720.14
451.584	18509.2
451.791	18824.59
451.997	18896.27
452.203	19174.79
452.409	19017.1
452.615	19273.09
452.821	18474.38
453.027	18275.73
453.233	19072.39
453.44	18359.7
453.646	18529.68
453.852	18662.8
454.058	18757
454.264	18048.41
454.47	18783.63
454.676	18091.41
454.882	18670.99
455.088	17104.29
455.294	17436.06
455.5	17700.25
455.705	17993.11
455.911	17096.1
456.117	16733.61
456.323	16674.22
456.529	15652.28
456.735	16219.57
456.941	15764.92
457.147	15693.24
457.352	15187.39
457.558	14824.9
457.764	15203.78
457.97	14773.71
458.176	14308.82
458.381	14607.82
458.587	13729.24
458.793	13549.02
458.999	13077.99
459.204	13721.05
459.41	13569.5
459.616	12727.78
459.821	12629.48
460.027	12447.21
460.233	12277.23
460.438	11601.4
460.644	11945.46
460.85	11271.68
461.055	11202.05
461.261	11054.59
461.466	10317.33
461.672	9993.75
461.878	10679.82
462.083	9948.69
462.289	9776.66
462.494	9573.91
462.7	9346.59
462.905	9104.93
463.111	9397.79
463.316	9510.43
463.522	9141.79
463.727	9063.97
463.932	9123.36
464.138	8918.56
464.343	9063.97
464.549	8822.31
464.754	9166.37
464.959	9104.93
465.165	8965.67
465.37	8629.8
465.575	8252.97
465.781	8838.69
465.986	8805.92
466.191	8482.35
466.397	8093.23
466.602	7847.47
466.807	8156.72
467.012	8156.72
467.218	7919.15
467.423	7843.38
467.628	8140.33
467.833	8263.21
468.038	8003.12
468.244	7960.11
468.449	8386.09
468.654	8080.94
468.859	7986.74
469.064	7845.43
469.269	7437.88
469.474	7552.57
469.679	7802.42
469.885	7360.06
470.09	7677.49
470.295	7501.37
470.5	7304.76
470.705	7372.35
470.91	7153.21
471.115	7108.16
471.32	7124.54
471.525	7251.52
471.73	7134.78
471.935	6858.31
472.139	6829.63
472.344	6813.25
472.549	6727.24
472.754	6886.98
472.959	6649.41
473.164	6407.75
473.369	6504.01
473.574	6526.54
473.778	6415.94
473.983	6536.77
474.188	6329.93
474.393	6061.65
474.598	6260.3
474.802	6286.92
475.007	6114.89
475.212	6035.02
475.417	5891.66
475.621	5858.9
475.826	5971.54
476.031	5693.01
476.235	5666.39
476.44	5813.84
476.645	5699.16
476.849	5705.3
477.054	5746.26
477.259	5549.65
477.463	5629.52
477.668	5432.92
477.872	5461.59
478.077	5299.8
478.282	5328.47
478.486	5146.2
478.691	5170.78
478.895	5090.91
479.1	5064.29
479.304	5191.26
479.509	5033.57
479.713	4988.51
479.918	4963.93
480.122	4865.63
480.326	5035.61
480.531	4810.34
480.735	4781.67
480.94	4900.45
481.144	5054.05
481.348	4916.83
481.553	4787.81
481.757	4648.55
481.961	4800.1
482.166	4853.34
482.37	4802.15
482.574	4748.9
482.778	4777.57
482.983	4681.32
483.187	4726.37
483.391	4787.81
483.595	4841.06
483.8	4742.75
484.004	4814.43
484.208	4906.59
484.412	4718.18
484.616	4648.55
484.821	4779.62
485.025	4675.17
485.229	4716.13
485.433	4712.03
485.637	4773.47
485.841	4730.47
486.045	4709.99
486.249	4949.6
486.453	4679.27
486.657	4595.3
486.861	4750.95
487.065	4628.07
487.269	4714.08
487.473	4591.2
487.677	4716.13
487.881	4820.58
488.085	4619.88
488.289	4820.58
488.493	4648.55
488.697	4791.91
488.901	4822.63
489.105	4798.05
489.309	4759.14
489.512	4992.61
489.716	4720.23
489.92	4793.95
490.124	4810.34
490.328	4800.1
490.531	4650.6
490.735	4728.42
490.939	4847.2
491.143	4925.02
491.346	4718.18
491.55	4771.43
491.754	4890.21
491.958	4871.78
492.161	4847.2
492.365	5002.85
492.569	4894.3
492.772	5029.47
492.976	5060.19
493.18	5023.33
493.383	5226.07
493.587	5035.61
493.79	5183.07
493.994	5006.94
494.197	5232.22
494.401	5215.84
494.605	5252.7
494.808	5168.73
495.012	5496.41
495.215	5305.95
495.419	5453.4
495.622	5412.44
495.825	5428.82
496.029	5428.82
496.232	5570.13
496.436	5631.57
496.639	5756.5
496.843	5676.63
497.046	5682.77
497.249	5906
497.453	6024.78
497.656	5975.63
497.859	6018.64
498.063	6104.65
498.266	6262.35
498.469	6110.8
498.673	6147.66
498.876	6274.63
499.079	6428.23
499.282	6213.2
499.485	6540.87
499.689	6317.64
499.892	6524.49
500.095	6622.79
500.298	6860.35
500.501	6854.21
500.705	6886.98
500.908	6927.94
501.111	6954.56
501.314	6981.18
501.517	7040.58
501.72	7425.59
501.923	7396.92
502.126	7458.36
502.329	7534.14
502.532	7474.74
502.735	7624.25
502.938	7867.95
503.141	7972.4
503.344	7841.33
503.547	8015.41
503.75	8035.89
503.953	8078.9
504.156	8445.48
504.359	8459.82
504.562	8441.39
504.765	8568.36
504.968	8543.78
505.17	8662.57
505.373	8707.62
505.576	8971.81
505.779	9287.2
505.982	9133.6
506.185	9379.36
506.387	9412.12
506.59	9395.74
506.793	9414.17
506.996	9541.15
507.198	9944.59
507.401	9731.61
507.604	9797.14
507.807	10145.3
508.009	10221.07
508.212	10280.46
508.415	10325.52
508.617	10497.55
508.82	10612.23
509.022	10348.04
509.225	10939.91
509.428	11007.49
509.63	10956.29
509.833	10966.53
510.035	11363.84
510.238	11212.29
510.44	11632.12
510.643	11728.38
510.845	11646.46
511.048	11615.74
511.25	11838.97
511.453	11924.98
511.655	12146.16
511.858	12246.51
512.06	12461.55
512.262	12281.33
512.465	12369.39
512.667	12908.01
512.87	12885.48
513.072	12840.42
513.274	13155.81
513.477	13368.8
513.679	13479.39
513.881	13471.2
514.084	13850.07
514.286	13655.51
514.488	13790.68
514.69	14065.11
514.893	14296.53
515.095	14462.41
515.297	14566.86
515.499	14382.54
515.701	14667.21
515.904	14996.93
516.106	15162.82
516.308	15312.32
516.51	15338.94
516.712	15265.22
516.914	15613.37
517.116	15836.6
517.318	15793.59
517.52	16004.53
517.722	16141.75
517.925	16305.59
518.127	16526.77
518.329	16623.02
518.531	16879.02
518.733	17112.49
518.935	17175.97
519.136	17304.99
519.338	17350.05
519.54	17313.19
519.742	17601.95
519.944	17962.39
520.146	18273.68
520.348	18333.07
520.55	18582.93
520.752	18568.59
520.954	18902.41
521.155	18894.22
521.357	18847.12
521.559	19146.12
521.761	19518.85
521.963	19680.64
522.164	19760.51
522.366	19533.18
522.568	19819.9
522.77	20456.82
522.971	20327.8
523.173	20022.65
523.375	20581.74
523.576	20647.28
523.778	20741.49
523.98	20831.6
524.181	20950.38
524.383	21282.15
524.584	21245.29
524.786	21388.64
524.988	21591.39
525.189	21613.92
525.391	21953.88
525.592	22164.82
525.794	22347.09
525.995	22127.96
526.197	22150.49
526.398	22426.96
526.6	22179.16
526.801	22678.86
527.003	22601.04
527.204	22809.93
527.406	22920.52
527.607	22920.52
527.808	23180.62
528.01	22834.51
528.211	23086.41
528.412	23518.53
528.614	23514.44
528.815	23539.01
529.016	23809.34
529.218	23586.11
529.419	24149.31
529.62	23639.36
529.822	23539.01
530.023	23858.49
530.224	23924.03
530.425	23819.58
530.626	23674.18
530.828	24147.26
531.029	24364.34
531.23	24175.93
531.431	24425.78
531.632	24319.29
531.833	24288.57
532.035	24307
532.236	24399.16
532.437	24874.29
532.638	24427.83
532.839	24470.84
533.04	24757.55
533.241	24354.1
533.442	24919.34
533.643	24874.29
533.844	24618.29
534.045	24661.3
534.246	24448.31
534.447	25019.69
534.648	24765.74
534.849	24890.67
535.05	24749.36
535.251	24902.96
535.451	24685.87
535.652	25013.55
535.853	24882.48
536.054	25007.41
536.255	25083.18
536.456	24726.83
536.657	25058.6
536.857	25140.52
537.058	24712.5
537.259	25118
537.46	25093.42
537.66	24923.44
537.861	25267.5
538.062	24816.94
538.263	25124.14
538.463	24716.59
538.664	24898.86
538.865	24841.52
539.065	25251.11
539.266	24890.67
539.466	25384.23
539.667	24702.26
539.868	25134.38
540.068	24827.18
540.269	24999.21
540.469	24966.45
540.67	25093.42
540.87	24720.69
541.071	25097.52
541.271	24995.12
541.472	25009.45
541.672	24851.76
541.873	24888.62
542.073	24583.48
542.274	25330.98
542.474	24743.22
542.675	24636.72
542.875	25124.14
543.075	25005.36
543.276	24909.1
543.476	24970.54
543.676	24984.88
543.877	25105.71
544.077	25042.22
544.277	24810.8
544.478	24806.7
544.678	25091.37
544.878	25091.37
545.078	25042.22
545.279	24503.6
545.479	24851.76
545.679	24925.49
545.879	24966.45
546.079	24683.83
546.28	24735.03
546.48	24616.24
546.68	24853.81
546.88	24970.54
547.08	24988.97
547.28	24706.35
547.48	24667.44
547.68	24636.72
547.88	24763.7
548.081	24892.72
548.281	24642.87
548.481	24763.7
548.681	25058.6
548.881	24780.08
549.081	24470.84
549.28	24493.36
549.48	24960.3
549.68	24569.14
549.88	25031.98
550.08	24798.51
550.28	24839.47
550.48	24675.63
550.68	24751.41
550.88	24796.46
551.08	24409.4
551.279	24694.07
551.479	24298.81
551.679	24671.54
551.879	24411.45
552.079	24753.46
552.278	24257.85
552.478	24513.84
552.678	24810.8
552.878	24687.92
553.077	24565.04
553.277	24384.82
553.477	24687.92
553.676	24372.53
553.876	24169.79
554.076	24524.08
554.275	24345.91
554.475	24126.78
554.674	24464.69
554.874	24229.18
555.074	24190.27
555.273	24657.2
555.473	24358.2
555.672	24202.55
555.872	24259.9
556.071	23989.56
556.271	24327.48
556.47	24241.46
556.67	23878.97
556.869	23733.57
557.068	24122.68
557.268	23848.25
557.467	24067.39
557.667	24071.48
557.866	23749.95
558.065	23928.13
558.265	23807.3
558.464	23467.33
558.663	23792.96
558.863	23639.36
559.062	23790.91
559.261	23496
559.461	23764.29
559.66	23287.11
559.859	23696.71
560.058	23414.09
560.258	23448.9
560.457	23227.72
560.656	23430.47
560.855	23227.72
561.054	23305.54
561.253	23215.43
561.453	23467.33
561.652	23278.92
561.851	23057.74
562.05	23018.83
562.249	22717.78
562.448	22947.15
562.647	22859.09
562.846	22883.66
563.045	22936.91
563.244	22463.83
563.443	22992.2
563.642	22402.39
563.841	22365.53
564.04	22285.65
564.239	22535.51
564.438	22291.8
564.637	22177.11
564.836	22297.94
565.035	21914.97
565.234	22191.45
565.432	21964.12
565.631	21943.64
565.83	21966.17
566.029	21652.83
566.228	22000.99
566.427	21542.24
566.625	22121.82
566.824	21357.92
567.023	21714.27
567.222	21163.37
567.42	21822.81
567.619	21312.87
567.818	21259.62
568.016	21366.12
568.215	21265.77
568.414	21294.44
568.612	21323.11
568.811	20817.26
569.01	21206.38
569.208	20618.61
569.407	20999.53
569.605	20618.61
569.804	20852.08
570.002	20696.43
570.201	20704.62
570.4	20237.69
570.598	20186.49
570.797	20338.04
570.995	20307.32
571.193	19885.44
571.392	20229.49
571.59	20352.37
571.789	20051.32
571.987	20129.14
572.186	20016.51
572.384	19703.17
572.582	19883.39
572.781	19985.79
572.979	19414.4
573.177	19590.53
573.376	19453.31
573.574	19266.95
573.772	19451.27
573.971	19541.38
574.169	19166.6
574.367	18914.7
574.565	19084.68
574.763	18974.09
574.962	18836.88
575.16	18800.01
575.358	18939.27
575.556	18754.96
575.754	18982.28
575.952	18445.71
576.151	18904.46
576.349	18306.45
576.547	18431.38
576.745	18505.1
576.943	18398.61
577.141	18427.28
577.339	18204.05
577.537	18130.33
577.735	18484.62
577.933	18310.55
578.131	18103.7
578.329	17823.13
578.527	18021.78
578.725	17837.47
578.923	18138.52
579.121	17798.56
579.319	17773.98
579.516	17903
579.714	17712.54
579.912	17491.36
580.11	17456.54
580.308	17517.98
580.506	17685.92
580.704	17083.81
580.901	17708.44
581.099	17284.51
581.297	17288.61
581.495	17083.81
581.692	17407.39
581.89	16969.13
582.088	17112.49
582.285	16975.27
582.483	17100.2
582.681	16975.27
582.878	16827.82
583.076	16844.2
583.274	16567.73
583.471	16522.67
583.669	16623.02
583.866	16518.57
584.064	16577.97
584.262	16377.26
584.459	16473.52
584.657	16352.69
584.854	16508.33
585.052	16170.42
585.249	16240.05
585.447	16401.84
585.644	16022.97
585.841	16039.35
586.039	16223.67
586.236	15779.26
586.434	15865.27
586.631	16008.63
586.828	15656.38
587.026	15857.08
587.223	15596.99
587.42	15715.77
587.618	15689.15
587.815	15580.6
588.012	15564.22
588.21	15539.65
588.407	15658.43
588.604	15332.8
588.801	15513.02
588.999	15334.85
589.196	15340.99
589.393	15203.78
589.59	14931.4
589.787	14943.69
589.984	15082.95
590.182	14874.06
590.379	14972.36
590.576	14833.1
590.773	14900.68
590.97	14724.55
591.167	14849.48
591.364	14536.14
591.561	14724.55
591.758	14480.85
591.955	14675.4
592.152	14779.85
592.349	14659.02
592.546	14609.87
592.743	14616.01
592.94	14216.66
593.137	14530
593.334	14259.67
593.531	14163.41
593.727	14122.45
593.924	14009.81
594.121	14089.68
594.318	14179.79
594.515	14038.48
594.712	14104.02
594.908	13839.83
595.105	14042.58
595.302	13886.93
595.499	13731.29
595.696	13655.51
595.892	13778.39
596.089	13692.38
596.286	13841.88
596.482	13645.27
596.679	13630.94
596.876	13759.96
597.072	13401.57
597.269	13635.03
597.466	13403.61
597.662	13176.29
597.859	13231.58
598.055	13376.99
598.252	13084.13
598.448	13274.59
598.645	13145.57
598.841	13135.33
599.038	13073.89
599.234	12998.12
599.431	12783.08
599.627	12869.09
599.824	12875.24
600.02	12879.33
600.217	12865
600.413	12488.17
600.609	12627.43
600.806	12672.49
601.002	12711.4
601.198	12568.04
601.395	12719.59
601.591	12656.11
601.787	12439.02
601.984	12568.04
602.18	12721.64
602.376	12262.9
602.572	12369.39
602.769	12183.02
602.965	12035.57
603.161	12266.99
603.357	12144.11
603.553	12080.63
603.75	12230.13
603.946	12017.14
604.142	12072.43
604.338	11752.95
604.534	12002.8
604.73	11697.66
604.926	11779.57
605.122	11783.67
605.318	11666.94
605.514	11724.28
605.71	11855.35
605.906	11642.36
606.102	11558.39
606.298	11648.5
606.494	11503.1
606.69	11447.8
606.886	11578.87
607.082	11533.82
607.278	11566.59
607.474	11320.83
607.67	11423.23
607.866	11300.35
608.062	11410.94
608.257	11365.89
608.453	11263.49
608.649	11275.77
608.845	11226.62
609.041	11134.46
609.236	11177.47
609.432	10993.15
609.628	11040.26
609.824	11046.4
610.019	10944
610.215	11089.41
610.411	11019.78
610.606	10817.03
610.802	11044.35
610.998	10692.1
611.193	10888.71
611.389	10862.08
611.584	10655.24
611.78	10823.17
611.976	10710.54
612.171	10812.93
612.367	10647.05
612.562	10612.23
612.758	10343.95
612.953	10653.19
613.149	10724.87
613.344	10374.67
613.539	10679.82
613.735	10548.75
613.93	10638.86
614.126	10487.31
614.321	10491.4
614.517	10771.97
614.712	10432.01
614.907	10339.85
615.103	10327.57
615.298	10372.62
615.493	10524.17
615.688	10151.44
615.884	10454.54
616.079	10098.19
616.274	10143.25
616.47	10112.53
616.665	10313.23
616.86	10096.14
617.055	10020.37
617.25	10139.15
617.445	10319.37
617.641	9993.75
617.836	10081.81
618.031	9868.82
618.226	10006.03
618.421	10038.8
618.616	10008.08
618.811	9690.65
619.006	9983.51
619.201	9692.69
619.396	9760.28
619.591	9659.93
619.786	9920.02
619.981	9582.1
620.176	9702.93
620.371	9731.61
620.566	9332.25
620.761	9487.9
620.956	9520.67
621.151	9375.26
621.346	9322.01
621.541	9401.88
621.735	9283.1
621.93	9129.5
622.125	9328.16
622.32	8920.61
622.515	9088.54
622.709	9029.15
622.904	9225.76
623.099	9102.88
623.294	9149.98
623.488	8902.18
623.683	8834.6
623.878	8885.8
624.072	8650.28
624.267	8840.74
624.462	8590.89
624.656	8594.98
624.851	8568.36
625.046	8504.87
625.24	8592.94
625.435	8494.63
625.629	8386.09
625.824	8443.43
626.018	8601.13
626.213	8007.22
626.407	8013.36
626.602	8203.82
626.796	8013.36
626.991	8013.36
627.185	8113.71
627.38	8220.21
627.574	8007.22
627.768	7980.59
627.963	7880.24
628.157	7831.09
628.352	7634.49
628.546	7611.96
628.74	7700.02
628.935	7650.87
629.129	7716.4
629.323	7589.43
629.517	7571
629.712	7431.74
629.906	7444.03
630.1	7398.97
630.294	7427.64
630.489	7423.55
630.683	7390.78
630.877	7315
631.071	7362.11
631.265	7073.34
631.459	7241.28
631.653	7067.2
631.848	6989.38
632.042	6958.66
632.236	7007.81
632.43	7001.66
632.624	6874.69
632.818	7022.14
633.012	6950.46
633.206	6712.9
633.4	7075.39
633.594	6530.63
633.788	6717
633.982	6753.86
634.176	6692.42
634.369	6555.21
634.563	6649.41
634.757	6483.53
634.951	6553.16
635.145	6577.73
635.339	6395.47
635.533	6307.4
635.726	6370.89
635.92	6379.08
636.114	6381.13
636.308	6121.04
636.501	6250.06
636.695	6317.64
636.889	6217.29
637.083	6157.9
637.276	6225.48
637.47	5994.06
637.664	6108.75
637.857	6071.89
638.051	6057.55
638.244	5946.96
638.438	5799.51
638.632	5944.91
638.825	5836.37
639.019	5875.28
639.212	5803.6
639.406	5760.59
639.599	5621.33
639.793	5783.12
639.986	5574.23
640.18	5729.88
640.373	5578.33
640.567	5416.54
640.76	5459.54
640.954	5533.27
641.147	5418.58
641.34	5394.01
641.534	5279.32
641.727	5486.17
641.92	5322.33
642.114	5357.14
642.307	5398.1
642.5	5211.74
642.694	5224.03
642.887	5197.4
643.08	5359.19
643.273	5109.34
643.467	4974.17
643.66	5006.94
643.853	5119.58
644.046	5082.72
644.239	4957.79
644.432	4974.17
644.626	4839.01
644.819	4865.63
645.012	4992.61
645.205	4914.78
645.398	4832.86
645.591	5013.09
645.784	4832.86
645.977	4681.32
646.17	4558.44
646.363	4650.6
646.556	4544.1
646.749	4705.89
646.942	4691.56
647.135	4580.96
647.328	4521.57
647.521	4638.31
647.714	4445.8
647.907	4597.35
648.099	4384.36
648.292	4505.19
648.485	4607.59
648.678	4343.4
648.871	4329.06
649.064	4316.78
649.256	4361.83
649.449	4349.54
649.642	4304.49
649.835	4296.3
650.027	4271.72
650.22	4101.74
650.413	4132.46
650.605	4034.16
650.798	4120.17
650.991	4208.23
651.183	4241
651.376	4245.1
651.568	4071.02
651.761	3989.1
651.954	3970.67
652.146	4001.39
652.339	4050.54
652.531	4013.68
652.724	3894.9
652.916	3757.68
653.109	3913.33
653.301	3954.29
653.494	3888.75
653.686	3673.71
653.879	3956.33
654.071	3786.35
654.263	3769.97
654.456	3698.29
654.648	3804.78
654.84	3671.67
655.033	3610.23
655.225	3720.82
655.417	3737.2
655.61	3651.19
655.802	3630.71
655.994	3753.59
656.186	3518.07
656.379	3524.21
656.571	3495.54
656.763	3548.79
656.955	3647.09
657.148	3626.61
657.34	3446.39
657.532	3329.66
657.724	3518.07
657.916	3542.64
658.108	3462.77
658.3	3409.53
658.492	3399.29
658.684	3348.09
658.876	3300.98
659.068	3251.83
659.26	3305.08
659.452	3317.37
659.644	3159.67
659.836	3227.26
660.028	3163.77
660.22	3114.62
660.412	3257.98
660.604	3262.07
660.796	3196.54
660.988	3098.24
661.18	3100.28
661.372	3112.57
661.563	3171.96
661.755	3067.52
661.947	3047.04
662.139	3182.2
662.331	3106.43
662.522	3071.61
662.714	2954.88
662.906	2991.74
663.097	2954.88
663.289	2989.69
663.481	2999.93
663.673	3061.37
663.864	2918.01
664.056	2975.36
664.247	2936.45
664.439	2975.36
664.631	3018.36
664.822	2854.53
665.014	2915.97
665.205	2803.33
665.397	2881.15
665.588	2825.86
665.78	2911.87
665.971	2911.87
666.163	2799.23
666.354	2766.46
666.546	2733.7
666.737	2684.55
666.929	2686.59
667.12	2866.81
667.311	2639.49
667.503	2641.54
667.694	2760.32
667.885	2596.48
668.077	2600.58
668.268	2793.09
668.459	2752.13
668.651	2551.43
668.842	2684.55
669.033	2682.5
669.224	2694.79
669.416	2645.63
669.607	2582.15
669.798	2545.28
669.989	2559.62
670.18	2627.2
670.371	2631.3
670.563	2516.61
670.754	2604.67
670.945	2557.57
671.136	2719.36
671.327	2559.62
671.518	2582.15
671.709	2563.72
671.9	2533
672.091	2522.76
672.282	2528.9
672.473	2477.7
672.664	2391.69
672.855	2412.17
673.046	2563.72
673.237	2561.67
673.428	2332.3
673.619	2363.01
673.809	2342.53
674	2469.51
674.191	2420.36
674.382	2455.17
674.573	2479.75
674.764	2367.11
674.954	2508.42
675.145	2416.26
675.336	2555.52
675.527	2420.36
675.717	2444.93
675.908	2336.39
676.099	2360.97
676.289	2375.3
676.48	2385.54
676.671	2248.33
676.861	2360.97
677.052	2285.19
677.243	2233.99
677.433	2315.91
677.624	2301.58
677.814	2348.68
678.005	2352.77
678.195	2401.93
678.386	2346.63
678.576	2250.38
678.767	2215.56
678.957	2367.11
679.148	2313.86
679.338	2459.27
679.529	2182.79
679.719	2279.05
679.909	2348.68
680.1	2285.19
680.29	2326.15
680.481	2283.14
680.671	2313.86
680.861	2293.38
681.052	2377.35
681.242	2365.06
681.432	2268.81
681.622	2236.04
681.813	2320.01
682.003	2307.72
682.193	2211.46
682.383	2170.51
682.573	2291.34
682.764	2207.37
682.954	2248.33
683.144	2227.85
683.334	2326.15
683.524	2340.49
683.714	2270.86
683.904	2229.9
684.094	2348.68
684.284	2274.95
684.474	2236.04
684.664	2274.95
684.854	2238.09
685.044	2297.48
685.234	2137.74
685.424	2188.94
685.614	2166.41
685.804	2367.11
685.994	2264.71
686.184	2111.11
686.374	2258.57
686.564	2133.64
686.753	2211.46
686.943	2072.2
687.133	2100.87
687.323	2227.85
687.513	2211.46
687.702	2154.12
687.892	2072.2
688.082	2137.74
688.272	2182.79
688.461	2145.93
688.651	2043.53
688.841	2098.83
689.03	2121.35
689.22	2037.39
689.41	2080.39
689.599	2178.7
689.789	2074.25
689.979	2057.87
690.168	2076.3
690.358	2023.05
690.547	1912.46
690.737	2025.1
690.926	2051.72
691.116	1961.61
691.305	1969.8
691.495	1920.65
691.684	1867.41
691.874	2006.67
692.063	2014.86
692.252	1967.76
692.442	1992.33
692.631	1910.41
692.82	1963.66
693.01	2025.1
693.199	1887.89
693.388	1914.51
693.578	1932.94
693.767	1857.17
693.956	1900.17
694.146	1812.11
694.335	1906.32
694.524	1996.43
694.713	1814.16
694.902	1826.45
695.092	1818.25
695.281	1832.59
695.47	1930.89
695.659	1889.93
695.848	1814.16
696.037	1855.12
696.226	1857.17
696.415	1898.13
696.604	1810.06
696.793	1857.17
696.982	1789.58
697.171	1863.31
697.36	1830.54
697.549	1865.36
697.738	1926.8
697.927	1834.64
698.116	1871.5
698.305	1904.27
698.494	1830.54
698.683	1883.79
698.872	1910.41
699.061	1840.78
699.25	1826.45
699.438	1820.3
699.627	1826.45
699.816	1826.45
700.005	1832.59
700.193	1791.63
700.382	1752.72
700.571	1785.49
700.76	1838.73
700.948	1793.68
701.137	1867.41
701.326	1879.69
701.514	1820.3
701.703	1867.41
701.892	1853.07
702.08	1961.61
702.269	1836.69
702.457	1937.04
702.646	1873.55
702.834	1900.17
703.023	1820.3
703.212	1820.3
703.4	1846.93
703.589	1877.65
703.777	1818.25
703.965	1822.35
704.154	1879.69
704.342	1855.12
704.531	1914.51
704.719	1930.89
704.907	1902.22
705.096	1769.1
705.284	1828.49
705.472	1848.97
705.661	1824.4
705.849	1920.65
706.037	1937.04
706.226	1900.17
706.414	1859.21
706.602	1822.35
706.79	1930.89
706.979	1908.37
707.167	1988.24
707.355	1894.03
707.543	1869.45
707.731	1920.65
707.919	1906.32
708.107	1930.89
708.296	1889.93
708.484	1846.93
708.672	1959.56
708.86	1918.61
709.048	1906.32
709.236	1851.02
709.424	1904.27
709.612	1808.02
709.8	1908.37
709.988	1744.53
710.176	1978
710.364	1957.52
710.551	1926.8
710.739	1949.32
710.927	1969.8
711.115	1863.31
711.303	1965.71
711.491	1953.42
711.679	1939.09
711.866	1955.47
712.054	1875.6
712.242	1945.23
712.43	1945.23
712.617	1967.76
712.805	1953.42
712.993	1980.04
713.181	1867.41
713.368	1986.19
713.556	1818.25
713.744	1965.71
713.931	2021
714.119	2049.68
714.306	1910.41
714.494	2041.48
714.682	1855.12
714.869	1941.13
715.057	1951.37
715.244	1996.43
715.432	1932.94
715.619	1959.56
715.807	1943.18
715.994	1961.61
716.182	1937.04
716.369	1955.47
716.556	1955.47
716.744	1908.37
716.931	1947.28
717.119	2012.81
717.306	1965.71
717.493	1971.85
717.681	2033.29
717.868	1932.94
718.055	1871.5
718.242	1947.28
718.43	1912.46
718.617	1932.94
718.804	1945.23
718.991	1943.18
719.179	2064.01
719.366	2035.34
719.553	1978
719.74	2004.62
719.927	1941.13
720.114	1930.89
720.301	2008.72
720.488	1877.65
720.676	1973.9
720.863	1986.19
721.05	2012.81
721.237	1996.43
721.424	2014.86
721.611	2049.68
721.798	1955.47
721.985	2016.91
722.172	1973.9
722.358	2127.5
722.545	1963.66
722.732	1973.9
722.919	2006.67
723.106	1959.56
723.293	2012.81
723.48	2008.72
723.667	2018.96
723.853	1934.99
724.04	2066.06
724.227	2016.91
724.414	1998.48
724.6	1982.09
724.787	1988.24
724.974	2014.86
725.161	1978
725.347	2078.35
725.534	2016.91
725.72	1978
725.907	1996.43
726.094	1978
726.28	1902.22
726.467	1978
726.653	2059.92
726.84	1881.74
727.027	2188.94
727.213	1975.95
727.4	2012.81
727.586	1953.42
727.773	2049.68
727.959	2096.78
728.145	2027.15
728.332	2039.44
728.518	2154.12
728.705	2023.05
728.891	2047.63
729.077	2033.29
729.264	2080.39
729.45	2023.05
729.636	2137.74
729.823	2031.24
730.009	2102.92
730.195	2035.34
730.382	2072.2
730.568	2010.76
730.754	2162.31
730.94	2064.01
731.126	2074.25
731.313	2080.39
731.499	2094.73
731.685	2139.79
731.871	2115.21
732.057	2133.64
732.243	2049.68
732.429	2047.63
732.615	2115.21
732.801	2129.55
732.987	2088.59
733.173	2037.39
733.359	2100.87
733.545	2057.87
733.731	2076.3
733.917	2064.01
734.103	2039.44
734.289	2086.54
734.475	2014.86
734.661	2233.99
734.847	2213.51
735.033	2080.39
735.219	2027.15
735.404	2049.68
735.59	2041.48
735.776	1916.56
735.962	1992.33
736.148	2043.53
736.333	2027.15
736.519	2086.54
736.705	1984.14
736.89	2061.96
737.076	2018.96
737.262	1978
737.447	2016.91
737.633	2039.44
737.819	2061.96
738.004	2051.72
738.19	1982.09
738.375	1943.18
738.561	2068.11
738.747	2027.15
738.932	2066.06
739.118	1953.42
739.303	1934.99
739.489	2055.82
739.674	2025.1
739.859	1949.32
740.045	2033.29
740.23	1926.8
740.416	1949.32
740.601	1875.6
740.786	1988.24
740.972	1898.13
741.157	2068.11
741.342	1986.19
741.528	1978
741.713	1957.52
741.898	1996.43
742.084	1916.56
742.269	1871.5
742.454	1969.8
742.639	1865.36
742.824	1986.19
743.01	1836.69
743.195	1918.61
743.38	1891.98
743.565	1865.36
743.75	1937.04
743.935	1836.69
744.12	1805.97
744.305	1789.58
744.49	1824.4
744.675	1887.89
744.86	1783.44
745.045	1810.06
745.23	1779.34
745.415	1844.88
745.6	1865.36
745.785	1805.97
745.97	1717.9
746.155	1787.54
746.34	1709.71
746.525	1744.53
746.71	1762.96
746.895	1760.91
747.079	1738.38
747.264	1617.55
747.449	1738.38
747.634	1844.88
747.819	1638.03
748.003	1621.65
748.188	1666.71
748.373	1527.44
748.557	1650.32
748.742	1631.89
748.927	1613.46
749.111	1554.07
749.296	1572.5
749.481	1621.65
749.665	1625.75
749.85	1513.11
750.034	1646.23
750.219	1650.32
750.404	1613.46
750.588	1582.74
750.773	1545.88
750.957	1531.54
751.141	1484.44
751.326	1420.95
751.51	1451.67
751.695	1492.63
751.879	1552.02
752.064	1482.39
752.248	1433.24
752.432	1488.53
752.617	1461.91
752.801	1310.36
752.985	1293.97
753.17	1404.57
753.354	1412.76
753.538	1404.57
753.722	1308.31
753.907	1408.66
754.091	1304.21
754.275	1404.57
754.459	1324.69
754.643	1291.93
754.828	1300.12
755.012	1312.41
755.196	1320.6
755.38	1263.26
755.564	1271.45
755.748	1265.3
755.932	1367.7
756.116	1220.25
756.3	1228.44
756.484	1269.4
756.668	1191.58
756.852	1197.72
757.036	1187.48
757.22	1154.71
757.404	1193.62
757.588	1277.59
757.772	1142.43
757.956	1089.18
758.14	1220.25
758.323	1132.19
758.507	1134.23
758.691	1126.04
758.875	1144.47
759.059	1218.2
759.242	1007.26
759.426	1123.99
759.61	1015.45
759.794	1035.93
759.977	1064.6
760.161	1207.96
760.345	1085.08
760.528	1111.71
760.712	1017.5
760.895	1027.74
761.079	1048.22
761.263	972.44
761.446	999.07
761.63	1011.36
761.813	1076.89
761.997	978.59
762.18	1027.74
762.364	1023.64
762.547	964.25
762.731	978.59
762.914	921.24
763.098	984.73
763.281	962.2
763.464	913.05
763.648	1009.31
763.831	958.11
764.015	908.96
764.198	945.82
764.381	925.34
764.564	1031.83
764.748	939.68
764.931	986.78
765.114	992.92
765.297	935.58
765.481	878.24
765.664	900.76
765.847	943.77
766.03	904.86
766.213	927.39
766.397	921.24
766.58	945.82
766.763	941.72
766.946	827.04
767.129	831.13
767.312	792.22
767.495	833.18
767.678	849.57
767.861	880.29
768.044	833.18
768.227	898.72
768.41	888.48
768.593	904.86
768.776	908.96
768.959	708.26
769.142	898.72
769.324	837.28
769.507	796.32
769.69	822.94
769.873	765.6
770.056	884.38
770.239	822.94
770.421	831.13
770.604	810.65
770.787	798.37
770.97	745.12
771.152	814.75
771.335	861.85
771.518	784.03
771.7	831.13
771.883	863.9
772.066	710.3
772.248	804.51
772.431	786.08
772.613	781.98
772.796	751.26
772.978	792.22
773.161	804.51
773.343	718.5
773.526	771.74
773.708	652.96
773.891	626.34
774.073	794.27
774.256	736.93
774.438	765.6
774.621	669.34
774.803	691.87
774.985	667.3
775.168	726.69
775.35	622.24
775.532	675.49
775.715	659.1
775.897	626.34
776.079	636.58
776.261	652.96
776.444	730.78
776.626	646.82
776.808	593.57
776.99	616.1
777.173	663.2
777.355	546.47
777.537	607.91
777.719	573.09
777.901	700.06
778.083	657.06
778.265	546.47
778.447	581.28
778.629	509.6
778.811	560.8
778.993	581.28
779.175	591.52
779.357	607.91
779.539	564.9
779.721	607.91
779.903	525.99
780.085	554.66
780.267	607.91
780.449	521.89
780.631	536.23
780.812	540.32
780.994	480.93
781.176	499.36
781.358	597.67
781.54	525.99
781.721	462.5
781.903	515.75
782.085	505.51
782.267	546.47
782.448	550.56
782.63	460.45
782.812	446.12
782.993	585.38
783.175	499.36
783.357	456.36
783.538	466.6
783.72	468.64
783.901	468.64
784.083	476.84
784.264	421.54
784.446	358.05
784.627	337.57
784.809	427.68
784.99	448.16
785.172	433.83
785.353	396.96
785.535	452.26
785.716	417.44
785.897	442.02
786.079	407.2
786.26	411.3
786.441	382.63
786.623	409.25
786.804	399.01
786.985	405.16
787.167	362.15
787.348	341.67
787.529	290.47
787.71	446.12
787.891	448.16
788.073	439.97
788.254	353.96
788.435	372.39
788.616	399.01
788.797	292.52
788.978	388.77
789.159	364.2
789.34	343.72
789.522	294.57
789.703	353.96
789.884	343.72
790.065	366.25
790.246	327.33
790.427	331.43
790.607	329.38
790.788	323.24
790.969	267.94
791.15	315.05
791.331	394.92
791.512	310.95
791.693	333.48
791.874	272.04
792.054	364.2
792.235	362.15
792.416	335.53
792.597	249.51
792.778	321.19
792.958	351.91
793.139	218.79
793.32	267.94
793.5	327.33
793.681	298.66
793.862	298.66
794.042	259.75
794.223	292.52
794.404	267.94
794.584	306.85
794.765	276.13
794.945	288.42
795.126	343.72
795.306	224.94
795.487	278.18
795.667	302.76
795.848	315.05
796.028	274.09
796.209	247.46
796.389	216.74
796.57	317.09
796.75	251.56
796.93	265.89
797.111	208.55
797.291	237.22
797.471	247.46
797.652	241.32
797.832	284.33
798.012	261.8
798.192	231.08
798.373	208.55
798.553	267.94
798.733	280.23
798.913	286.37
799.093	294.57
799.274	265.89
799.454	224.94
799.634	220.84
799.814	181.93
799.994	169.64
800.174	173.74
800.354	222.89
800.534	177.83
800.714	265.89
800.894	255.65
801.074	194.22
801.254	286.37
801.434	255.65
801.614	269.99
801.794	179.88
801.974	624.29
802.154	183.98
802.334	171.69
802.514	104.11
802.693	226.98
802.873	186.02
803.053	267.94
803.233	226.98
803.413	245.41
803.592	214.7
803.772	208.55
803.952	138.92
804.131	192.17
804.311	143.02
804.491	212.65
804.67	208.55
804.85	181.93
805.03	255.65
805.209	210.6
805.389	151.21
805.568	194.22
805.748	183.98
805.928	175.78
806.107	181.93
806.287	206.5
806.466	138.92
806.646	118.44
806.825	186.02
807.004	241.32
807.184	59.05
807.363	200.36
807.543	136.87
807.722	136.87
807.901	214.7
808.081	169.64
808.26	102.06
808.439	169.64
808.619	136.87
808.798	183.98
808.977	130.73
809.156	116.39
809.336	128.68
809.515	233.13
809.694	175.78
809.873	181.93
810.052	161.45
810.231	157.35
810.411	108.2
810.59	218.79
810.769	153.26
810.948	151.21
811.127	77.48
811.306	147.11
811.485	157.35
811.664	100.01
811.843	97.96
812.022	87.72
812.201	116.39
812.38	126.63
812.559	167.59
812.737	171.69
812.916	89.77
813.095	106.15
813.274	143.02
813.453	186.02
813.632	122.54
813.811	95.91
813.989	83.63
814.168	229.03
814.347	112.3
814.526	110.25
814.704	97.96
814.883	132.78
815.062	81.58
815.24	183.98
815.419	147.11
815.598	83.63
815.776	104.11
815.955	114.34
816.133	85.67
816.312	124.58
816.49	155.3
816.669	126.63
816.847	128.68
817.026	73.39
817.204	104.11
817.383	147.11
817.561	95.91
817.74	95.91
817.918	114.34
818.097	81.58
818.275	89.77
818.453	100.01
818.632	163.5
818.81	179.88
818.988	120.49
819.167	157.35
819.345	155.3
819.523	153.26
819.701	132.78
819.879	104.11
820.058	79.53
820.236	108.2
820.414	104.11
820.592	79.53
820.77	75.43
820.948	83.63
821.127	136.87
821.305	89.77
821.483	48.81
821.661	116.39
821.839	124.58
822.017	85.67
822.195	59.05
822.373	159.4
822.551	85.67
822.729	126.63
822.907	79.53
823.085	102.06
823.262	87.72
823.44	52.91
823.618	63.15
823.796	95.91
823.974	77.48
824.152	136.87
824.329	108.2
824.507	118.44
824.685	95.91
824.863	124.58
825.04	194.22
825.218	169.64
825.396	116.39
825.574	124.58
825.751	104.11
825.929	54.95
826.107	77.48
826.284	52.91
826.462	89.77
826.639	40.62
826.817	110.25
826.994	112.3
827.172	36.52
827.349	120.49
827.527	106.15
827.704	83.63
827.882	116.39
828.059	73.39
828.237	59.05
828.414	106.15
828.591	22.19
828.769	11.95
828.946	128.68
829.124	93.87
829.301	100.01
829.478	67.24
829.655	20.14
829.833	93.87
830.01	69.29
830.187	69.29
830.364	-8.53
830.542	48.81
830.719	114.34
830.896	163.5
831.073	54.95
831.25	63.15
831.427	-35.16
831.604	102.06
831.782	79.53
831.959	9.9
832.136	50.86
832.313	122.54
832.49	106.15
832.667	79.53
832.844	69.29
833.021	48.81
833.198	-6.49
833.374	77.48
833.551	54.95
833.728	61.1
833.905	54.95
834.082	44.71
834.259	116.39
834.436	73.39
834.612	57
834.789	65.19
834.966	-10.58
835.143	118.44
835.319	116.39
835.496	151.21
835.673	106.15
835.85	63.15
836.026	38.57
836.203	48.81
836.38	83.63
836.556	61.1
836.733	79.53
836.909	100.01
837.086	65.19
837.262	75.43
837.439	77.48
837.616	73.39
837.792	11.95
837.968	24.23
838.145	57
838.321	132.78
838.498	77.48
838.674	97.96
838.851	89.77
839.027	102.06
839.203	69.29
839.38	22.19
839.556	87.72
839.732	16.04
839.909	3.75
840.085	112.3
840.261	9.9
840.437	138.92
840.614	5.8
840.79	91.82
840.966	-2.39
841.142	30.38
841.318	-26.96
841.494	97.96
841.671	81.58
841.847	134.82
842.023	38.57
842.199	16.04
842.375	67.24
842.551	69.29
842.727	24.23
842.903	40.62
843.079	40.62
843.255	65.19
843.431	87.72
843.607	65.19
843.783	67.24
843.959	32.43
844.134	34.47
844.31	69.29
844.486	20.14
844.662	24.23
844.838	28.33
845.013	20.14
845.189	42.67
845.365	40.62
845.541	-49.49
845.716	42.67
845.892	36.52
846.068	-37.2
846.244	-12.63
846.419	-10.58
846.595	-41.3
846.77	87.72
846.946	63.15
847.122	11.95
847.297	28.33
847.473	89.77
847.648	-16.73
847.824	9.9
847.999	-2.39
848.175	-12.63
848.35	85.67
848.526	46.76
848.701	-18.77
848.876	20.14
849.052	11.95
849.227	36.52
849.403	46.76
849.578	93.87
849.753	-29.01
849.929	-20.82
850.104	-8.53
850.279	77.48
850.454	50.86
850.63	30.38
850.805	-14.68
850.98	50.86
851.155	22.19
851.33	9.9
851.505	11.95
851.681	9.9
851.856	42.67
852.031	75.43
852.206	38.57
852.381	26.28
852.556	28.33
852.731	112.3
852.906	-4.44
853.081	5.8
853.256	46.76
853.431	32.43
853.606	20.14
853.781	81.58
853.956	-63.83
854.131	28.33
854.305	59.05
854.48	81.58
854.655	-24.92
854.83	-14.68
855.005	91.82
855.18	7.85
855.354	40.62
855.529	65.19
855.704	16.04
855.879	-72.02
856.053	9.9
856.228	89.77
856.403	-59.73
856.577	-2.39
856.752	-22.87
856.926	-12.63
857.101	50.86
857.276	-18.77
857.45	3.75
857.625	50.86
857.799	46.76
857.974	-10.58
858.148	-69.97
858.323	18.09
858.497	28.33
858.672	-61.78
858.846	-16.73
859.02	32.43
859.195	-2.39
859.369	18.09
859.543	18.09
859.718	-18.77
859.892	30.38
860.066	24.23
860.241	46.76
860.415	16.04
860.589	24.23
860.763	13.99
860.938	-6.49
861.112	91.82
861.286	20.14
861.46	24.23
861.634	-0.34
861.808	-47.44
861.982	-10.58
862.157	3.75
862.331	3.75
862.505	-0.34
862.679	-37.2
862.853	-12.63
863.027	1.71
863.201	36.52
863.375	24.23
863.549	67.24
863.722	44.71
863.896	28.33
864.07	-61.78
864.244	22.19
864.418	81.58
864.592	34.47
864.766	-29.01
864.939	81.58
865.113	-6.49
865.287	-24.92
865.461	3.75
865.634	11.95
865.808	13.99
865.982	11.95
866.156	-41.3
866.329	5.8
866.503	46.76
866.676	-0.34
866.85	-8.53
867.024	20.14
867.197	-8.53
867.371	-31.06
867.544	77.48
867.718	24.23
867.891	48.81
868.065	-59.73
868.238	26.28
868.412	102.06
868.585	20.14
868.759	108.2
868.932	-6.49
869.105	1.71
869.279	1.71
869.452	-4.44
869.625	-49.49
869.799	-26.96
869.972	3.75
870.145	42.67
870.319	-29.01
870.492	24.23
870.665	-22.87
870.838	-88.4
871.011	-57.68
871.185	50.86
871.358	-8.53
871.531	30.38
871.704	-33.11
871.877	-10.58
872.05	-0.34
872.223	11.95
872.396	34.47
872.569	-90.45
872.742	7.85
872.915	48.81
873.088	-6.49
873.261	3.75
873.434	-0.34
873.607	83.63
873.78	46.76
873.953	-37.2
874.126	-24.92
874.299	-35.16
874.471	52.91
874.644	-6.49
874.817	26.28
874.99	7.85
875.163	-39.25
875.335	5.8
875.508	18.09
875.681	48.81
875.853	57
876.026	5.8
876.199	20.14
876.371	9.9
876.544	-0.34
876.717	-22.87
876.889	-20.82
877.062	38.57
877.234	5.8
877.407	32.43
877.579	-16.73
877.752	26.28
877.924	-39.25
878.097	-0.34
878.269	-41.3
878.442	79.53
878.614	26.28
878.786	40.62
878.959	11.95
879.131	-51.54
879.303	-119.12
879.476	7.85
879.648	-0.34
879.82	-65.88
879.993	-41.3
880.165	-16.73
880.337	-31.06
880.509	-6.49
880.681	5.8
880.854	-57.68
881.026	24.23
881.198	30.38
881.37	114.34
881.542	-53.59
881.714	-6.49
881.886	20.14
882.058	-63.83
882.23	38.57
882.402	-43.35
882.574	46.76
882.746	-2.39
882.918	-4.44
883.09	97.96
883.262	-6.49
883.434	36.52
883.606	-24.92
883.778	48.81
883.95	44.71
884.122	-53.59
884.293	-4.44
884.465	7.85
884.637	-51.54
884.809	18.09
884.98	32.43
885.152	-61.78
885.324	3.75
885.496	-29.01
885.667	-61.78
885.839	3.75
886.011	36.52
886.182	-61.78
886.354	-74.07
886.525	13.99
886.697	-41.3
886.869	63.15
887.04	-51.54
887.212	89.77
887.383	28.33
887.555	-31.06
887.726	-26.96
887.897	-41.3
888.069	28.33
888.24	34.47
888.412	48.81
888.583	5.8
888.754	22.19
888.926	-16.73
889.097	-12.63
889.268	3.75
889.44	7.85
889.611	-45.4
889.782	18.09
889.953	-76.12
890.125	30.38
890.296	-31.06
890.467	3.75
890.638	-57.68
890.809	32.43
890.98	20.14
891.151	-20.82
891.323	-14.68
891.494	-12.63
891.665	-76.12
891.836	9.9
892.007	-37.2
892.178	54.95
892.349	61.1
892.52	3.75
892.691	40.62
892.862	-45.4
893.032	-47.44
893.203	20.14
893.374	1.71
893.545	54.95
893.716	7.85
893.887	34.47
894.057	-45.4
894.228	-26.96
894.399	-57.68
894.57	50.86
894.74	42.67
894.911	7.85
895.082	52.91
895.253	-12.63
895.423	-22.87
895.594	42.67
895.764	-12.63
895.935	-4.44
896.106	46.76
896.276	-74.07
896.447	26.28
896.617	-2.39
896.788	-10.58
896.958	-12.63
897.129	-12.63
897.299	-6.49
897.47	36.52
897.64	-14.68
897.81	18.09
897.981	-26.96
898.151	-33.11
898.322	-33.11
898.492	11.95
898.662	28.33
898.832	-43.35
899.003	57
899.173	1.71
899.343	61.1
899.513	-39.25
