Data from USB4F104151__232__11-11-01-413.txt Node

Date: Wed Mar 12 11:11:01 EDT 2025
User: louis
Spectrometer: USB4F10415
Trigger mode: 4
Integration Time (sec): 2.000000E-2
Scans to average: 1
Electric dark correction enabled: true
Nonlinearity correction enabled: false
Boxcar width: 0
XAxis mode: Wavelengths
Number of Pixels in Spectrum: 3648
>>>>>Begin Spectral Data<<<<<
178.204	-72.36
178.424	-72.36
178.644	-72.36
178.864	-53.93
179.084	-66.22
179.304	-25.26
179.524	7.51
179.744	-27.31
179.964	-8.87
180.184	-53.93
180.404	7.51
180.624	21.85
180.844	-29.35
181.064	32.08
181.283	25.94
181.503	25.94
181.723	23.89
181.943	-72.36
182.163	83.28
182.383	25.94
182.602	15.7
182.822	-2.73
183.042	21.85
183.262	-8.87
183.482	-31.4
183.701	38.23
183.921	46.42
184.141	9.56
184.361	83.28
184.58	-47.79
184.8	11.61
185.02	52.56
185.239	44.37
185.459	25.94
185.679	32.08
185.898	19.8
186.118	107.86
186.338	25.94
186.557	11.61
186.777	27.99
186.997	-21.16
187.216	-17.07
187.436	77.14
187.655	60.76
187.875	54.61
188.095	7.51
188.314	68.95
188.534	-15.02
188.753	71
188.973	13.65
189.192	44.37
189.412	-0.68
189.631	13.65
189.851	17.75
190.07	56.66
190.29	62.8
190.509	9.56
190.729	50.52
190.948	42.32
191.168	50.52
191.387	-25.26
191.607	-10.92
191.826	68.95
192.045	-4.78
192.265	-4.78
192.484	64.85
192.704	19.8
192.923	-60.07
193.142	71
193.362	-29.35
193.581	19.8
193.8	34.13
194.02	7.51
194.239	60.76
194.458	38.23
194.678	60.76
194.897	40.28
195.116	34.13
195.335	32.08
195.555	-33.45
195.774	-62.12
195.993	11.61
196.212	-6.83
196.432	-49.83
196.651	-45.74
196.87	7.51
197.089	62.8
197.308	36.18
197.528	9.56
197.747	71
197.966	-25.26
198.185	71
198.404	7.51
198.623	71
198.842	25.94
199.062	11.61
199.281	-10.92
199.5	23.89
199.719	-8.87
199.938	87.38
200.157	38.23
200.376	5.46
200.595	36.18
200.814	3.41
201.033	38.23
201.252	-8.87
201.471	40.28
201.69	-6.83
201.909	34.13
202.128	34.13
202.347	-25.26
202.566	-2.73
202.785	64.85
203.004	5.46
203.223	132.44
203.442	-12.97
203.661	-41.64
203.879	42.32
204.098	56.66
204.317	21.85
204.536	97.62
204.755	7.51
204.974	71
205.193	54.61
205.411	138.58
205.63	7.51
205.849	19.8
206.068	60.76
206.287	36.18
206.505	48.47
206.724	-2.73
206.943	93.52
207.162	-0.68
207.381	7.51
207.599	-12.97
207.818	5.46
208.037	-4.78
208.255	-33.45
208.474	58.71
208.693	66.9
208.911	-0.68
209.13	27.99
209.349	-6.83
209.567	-6.83
209.786	-0.68
210.005	32.08
210.223	30.04
210.442	52.56
210.661	44.37
210.879	13.65
211.098	60.76
211.316	54.61
211.535	13.65
211.753	87.38
211.972	40.28
212.191	5.46
212.409	5.46
212.628	19.8
212.846	-17.07
213.065	48.47
213.283	99.67
213.502	56.66
213.72	-12.97
213.938	30.04
214.157	60.76
214.375	81.24
214.594	-17.07
214.812	-8.87
215.031	-55.98
215.249	3.41
215.467	38.23
215.686	64.85
215.904	83.28
216.122	40.28
216.341	58.71
216.559	17.75
216.778	17.75
216.996	23.89
217.214	-6.83
217.432	-2.73
217.651	1.37
217.869	60.76
218.087	1.37
218.306	-35.5
218.524	85.33
218.742	50.52
218.96	79.19
219.179	11.61
219.397	50.52
219.615	40.28
219.833	48.47
220.051	-15.02
220.27	-12.97
220.488	-8.87
220.706	1.37
220.924	-2.73
221.142	-19.11
221.36	83.28
221.578	50.52
221.796	64.85
222.015	-2.73
222.233	1.37
222.451	-12.97
222.669	-45.74
222.887	50.52
223.105	-72.36
223.323	3.41
223.541	-29.35
223.759	68.95
223.977	-41.64
224.195	40.28
224.413	75.09
224.631	-8.87
224.849	60.76
225.067	64.85
225.285	11.61
225.503	27.99
225.721	-62.12
225.939	34.13
226.157	56.66
226.375	36.18
226.592	13.65
226.81	54.61
227.028	17.75
227.246	36.18
227.464	46.42
227.682	38.23
227.9	68.95
228.117	77.14
228.335	66.9
228.553	95.57
228.771	30.04
228.989	103.76
229.206	-0.68
229.424	-31.4
229.642	-2.73
229.86	54.61
230.077	30.04
230.295	21.85
230.513	64.85
230.731	-2.73
230.948	114
231.166	93.52
231.384	83.28
231.601	13.65
231.819	-2.73
232.037	1.37
232.254	38.23
232.472	73.04
232.689	44.37
232.907	-23.21
233.125	5.46
233.342	9.56
233.56	52.56
233.777	-76.46
233.995	13.65
234.213	46.42
234.43	103.76
234.648	5.46
234.865	-12.97
235.083	13.65
235.3	-31.4
235.518	19.8
235.735	13.65
235.953	32.08
236.17	-6.83
236.388	13.65
236.605	15.7
236.822	13.65
237.04	17.75
237.257	77.14
237.475	44.37
237.692	52.56
237.909	-4.78
238.127	-25.26
238.344	105.81
238.562	-4.78
238.779	21.85
238.996	-0.68
239.214	-17.07
239.431	15.7
239.648	-33.45
239.865	11.61
240.083	-10.92
240.3	5.46
240.517	-0.68
240.735	-8.87
240.952	34.13
241.169	27.99
241.386	21.85
241.603	7.51
241.821	23.89
242.038	34.13
242.255	-10.92
242.472	19.8
242.689	32.08
242.907	15.7
243.124	13.65
243.341	83.28
243.558	30.04
243.775	73.04
243.992	-8.87
244.209	-23.21
244.426	32.08
244.643	66.9
244.86	34.13
245.078	-33.45
245.295	83.28
245.512	-33.45
245.729	42.32
245.946	-17.07
246.163	-25.26
246.38	9.56
246.597	-15.02
246.814	56.66
247.031	66.9
247.248	66.9
247.464	40.28
247.681	66.9
247.898	38.23
248.115	-8.87
248.332	-55.98
248.549	62.8
248.766	19.8
248.983	97.62
249.2	-45.74
249.417	58.71
249.633	23.89
249.85	75.09
250.067	36.18
250.284	77.14
250.501	13.65
250.717	34.13
250.934	-6.83
251.151	-21.16
251.368	30.04
251.585	93.52
251.801	19.8
252.018	93.52
252.235	44.37
252.451	23.89
252.668	25.94
252.885	77.14
253.102	64.85
253.318	23.89
253.535	-21.16
253.752	77.14
253.968	60.76
254.185	3.41
254.401	7.51
254.618	11.61
254.835	30.04
255.051	54.61
255.268	-6.83
255.484	13.65
255.701	-15.02
255.917	-27.31
256.134	79.19
256.351	17.75
256.567	-12.97
256.784	-4.78
257	-6.83
257.217	87.38
257.433	27.99
257.65	13.65
257.866	25.94
258.082	-62.12
258.299	62.8
258.515	21.85
258.732	62.8
258.948	54.61
259.165	3.41
259.381	-4.78
259.597	-21.16
259.814	36.18
260.03	-47.79
260.246	56.66
260.463	52.56
260.679	60.76
260.895	23.89
261.112	105.81
261.328	-47.79
261.544	60.76
261.761	56.66
261.977	-19.11
262.193	13.65
262.409	27.99
262.626	-0.68
262.842	56.66
263.058	-8.87
263.274	40.28
263.49	52.56
263.707	-6.83
263.923	25.94
264.139	44.37
264.355	11.61
264.571	21.85
264.787	95.57
265.004	11.61
265.22	56.66
265.436	81.24
265.652	107.86
265.868	58.71
266.084	68.95
266.3	54.61
266.516	-4.78
266.732	58.71
266.948	23.89
267.164	32.08
267.38	42.32
267.596	-12.97
267.812	71
268.028	60.76
268.244	-21.16
268.46	32.08
268.676	44.37
268.892	34.13
269.108	27.99
269.324	-8.87
269.54	42.32
269.756	73.04
269.972	56.66
270.188	105.81
270.403	27.99
270.619	54.61
270.835	-4.78
271.051	21.85
271.267	32.08
271.483	3.41
271.698	-8.87
271.914	-8.87
272.13	-15.02
272.346	62.8
272.562	17.75
272.777	38.23
272.993	-70.31
273.209	89.43
273.425	54.61
273.64	99.67
273.856	32.08
274.072	-4.78
274.287	73.04
274.503	48.47
274.719	130.39
274.934	5.46
275.15	15.7
275.366	27.99
275.581	-27.31
275.797	48.47
276.012	42.32
276.228	-29.35
276.444	64.85
276.659	54.61
276.875	9.56
277.09	77.14
277.306	48.47
277.521	52.56
277.737	56.66
277.952	-4.78
278.168	-6.83
278.383	105.81
278.599	-10.92
278.814	40.28
279.03	-19.11
279.245	15.7
279.461	-33.45
279.676	13.65
279.892	5.46
280.107	40.28
280.322	-4.78
280.538	34.13
280.753	9.56
280.969	77.14
281.184	32.08
281.399	-4.78
281.615	34.13
281.83	60.76
282.045	44.37
282.26	19.8
282.476	21.85
282.691	77.14
282.906	44.37
283.122	34.13
283.337	-15.02
283.552	48.47
283.767	21.85
283.983	23.89
284.198	-4.78
284.413	9.56
284.628	48.47
284.843	-33.45
285.058	64.85
285.274	52.56
285.489	97.62
285.704	15.7
285.919	23.89
286.134	17.75
286.349	-17.07
286.564	56.66
286.779	101.72
286.995	54.61
287.21	62.8
287.425	62.8
287.64	3.41
287.855	66.9
288.07	-10.92
288.285	21.85
288.5	-0.68
288.715	48.47
288.93	-72.36
289.145	-21.16
289.36	52.56
289.575	17.75
289.79	77.14
290.004	25.94
290.219	62.8
290.434	-8.87
290.649	3.41
290.864	107.86
291.079	13.65
291.294	9.56
291.509	38.23
291.724	56.66
291.938	-47.79
292.153	25.94
292.368	21.85
292.583	68.95
292.798	75.09
293.012	79.19
293.227	-8.87
293.442	15.7
293.657	68.95
293.871	132.44
294.086	68.95
294.301	122.2
294.516	-0.68
294.73	58.71
294.945	-12.97
295.16	19.8
295.374	-8.87
295.589	9.56
295.804	7.51
296.018	-0.68
296.233	23.89
296.447	27.99
296.662	32.08
296.877	42.32
297.091	85.33
297.306	40.28
297.52	15.7
297.735	62.8
297.949	-12.97
298.164	32.08
298.378	64.85
298.593	21.85
298.807	-25.26
299.022	46.42
299.236	42.32
299.451	23.89
299.665	21.85
299.88	17.75
300.094	-51.88
300.309	25.94
300.523	56.66
300.737	56.66
300.952	81.24
301.166	107.86
301.381	-8.87
301.595	91.48
301.809	-0.68
302.024	-41.64
302.238	21.85
302.452	34.13
302.667	-51.88
302.881	40.28
303.095	32.08
303.309	9.56
303.524	-4.78
303.738	-4.78
303.952	-17.07
304.166	-8.87
304.381	27.99
304.595	48.47
304.809	40.28
305.023	89.43
305.237	60.76
305.452	9.56
305.666	-15.02
305.88	15.7
306.094	122.2
306.308	36.18
306.522	79.19
306.736	75.09
306.95	3.41
307.164	27.99
307.379	66.9
307.593	27.99
307.807	77.14
308.021	38.23
308.235	-6.83
308.449	77.14
308.663	38.23
308.877	25.94
309.091	-4.78
309.305	46.42
309.519	-12.97
309.733	64.85
309.947	-0.68
310.161	38.23
310.374	13.65
310.588	-4.78
310.802	38.23
311.016	56.66
311.23	27.99
311.444	15.7
311.658	40.28
311.872	-2.73
312.085	-2.73
312.299	85.33
312.513	103.76
312.727	27.99
312.941	23.89
313.154	75.09
313.368	-31.4
313.582	21.85
313.796	-2.73
314.009	-12.97
314.223	66.9
314.437	42.32
314.651	19.8
314.864	-33.45
315.078	-35.5
315.292	-2.73
315.505	101.72
315.719	7.51
315.933	11.61
316.146	40.28
316.36	-8.87
316.573	23.89
316.787	114
317.001	48.47
317.214	-37.55
317.428	56.66
317.641	-21.16
317.855	79.19
318.068	23.89
318.282	68.95
318.495	144.72
318.709	-10.92
318.922	7.51
319.136	58.71
319.349	30.04
319.563	15.7
319.776	15.7
319.99	9.56
320.203	89.43
320.417	62.8
320.63	50.52
320.843	118.1
321.057	30.04
321.27	-19.11
321.483	-37.55
321.697	99.67
321.91	34.13
322.124	9.56
322.337	77.14
322.55	91.48
322.763	-19.11
322.977	81.24
323.19	30.04
323.403	-43.69
323.617	132.44
323.83	89.43
324.043	11.61
324.256	7.51
324.469	-0.68
324.683	48.47
324.896	40.28
325.109	30.04
325.322	1.37
325.535	62.8
325.748	27.99
325.962	-4.78
326.175	27.99
326.388	73.04
326.601	13.65
326.814	71
327.027	40.28
327.24	87.38
327.453	-17.07
327.666	40.28
327.879	52.56
328.092	11.61
328.305	81.24
328.518	3.41
328.731	30.04
328.944	-64.17
329.157	-8.87
329.37	30.04
329.583	36.18
329.796	23.89
330.009	-12.97
330.222	42.32
330.435	5.46
330.648	124.24
330.861	66.9
331.073	9.56
331.286	17.75
331.499	46.42
331.712	11.61
331.925	32.08
332.138	-43.69
332.35	46.42
332.563	83.28
332.776	34.13
332.989	17.75
333.202	15.7
333.414	52.56
333.627	19.8
333.84	56.66
334.053	40.28
334.265	34.13
334.478	60.76
334.691	73.04
334.903	50.52
335.116	13.65
335.329	27.99
335.541	73.04
335.754	79.19
335.966	25.94
336.179	77.14
336.392	-17.07
336.604	75.09
336.817	68.95
337.029	9.56
337.242	-17.07
337.454	68.95
337.667	-33.45
337.88	71
338.092	44.37
338.305	83.28
338.517	-39.59
338.729	7.51
338.942	85.33
339.154	60.76
339.367	5.46
339.579	34.13
339.792	3.41
340.004	40.28
340.217	11.61
340.429	-15.02
340.641	-39.59
340.854	73.04
341.066	1.37
341.278	-2.73
341.491	40.28
341.703	89.43
341.915	7.51
342.128	40.28
342.34	60.76
342.552	-0.68
342.764	64.85
342.977	111.96
343.189	97.62
343.401	7.51
343.613	15.7
343.826	89.43
344.038	66.9
344.25	5.46
344.462	40.28
344.674	105.81
344.886	40.28
345.099	91.48
345.311	36.18
345.523	46.42
345.735	-10.92
345.947	58.71
346.159	50.52
346.371	77.14
346.583	-21.16
346.795	30.04
347.007	48.47
347.219	38.23
347.431	7.51
347.643	11.61
347.855	32.08
348.067	25.94
348.279	-84.65
348.491	19.8
348.703	25.94
348.915	34.13
349.127	-43.69
349.339	48.47
349.551	79.19
349.763	99.67
349.975	-10.92
350.187	124.24
350.399	-4.78
350.61	48.47
350.822	62.8
351.034	15.7
351.246	68.95
351.458	79.19
351.669	46.42
351.881	122.2
352.093	120.15
352.305	-29.35
352.517	54.61
352.728	48.47
352.94	-10.92
353.152	81.24
353.363	34.13
353.575	-15.02
353.787	97.62
353.999	32.08
354.21	48.47
354.422	3.41
354.633	42.32
354.845	77.14
355.057	-0.68
355.268	-12.97
355.48	13.65
355.692	36.18
355.903	32.08
356.115	105.81
356.326	-78.51
356.538	52.56
356.749	62.8
356.961	75.09
357.172	21.85
357.384	46.42
357.595	146.77
357.807	42.32
358.018	77.14
358.23	50.52
358.441	138.58
358.653	73.04
358.864	34.13
359.075	-8.87
359.287	-4.78
359.498	19.8
359.709	-25.26
359.921	87.38
360.132	60.76
360.344	50.52
360.555	54.61
360.766	73.04
360.977	44.37
361.189	44.37
361.4	5.46
361.611	46.42
361.823	30.04
362.034	1.37
362.245	15.7
362.456	52.56
362.667	73.04
362.879	85.33
363.09	48.47
363.301	101.72
363.512	3.41
363.723	13.65
363.935	25.94
364.146	30.04
364.357	44.37
364.568	40.28
364.779	91.48
364.99	48.47
365.201	-2.73
365.412	54.61
365.623	-35.5
365.834	5.46
366.045	13.65
366.256	103.76
366.467	3.41
366.678	30.04
366.889	40.28
367.1	38.23
367.311	44.37
367.522	91.48
367.733	58.71
367.944	97.62
368.155	-15.02
368.366	48.47
368.577	60.76
368.788	17.75
368.999	25.94
369.209	83.28
369.42	99.67
369.631	148.82
369.842	11.61
370.053	85.33
370.264	-8.87
370.474	83.28
370.685	54.61
370.896	48.47
371.107	79.19
371.317	58.71
371.528	48.47
371.739	101.72
371.95	52.56
372.16	89.43
372.371	34.13
372.582	13.65
372.792	60.76
373.003	23.89
373.214	52.56
373.424	40.28
373.635	40.28
373.846	130.39
374.056	34.13
374.267	1.37
374.477	73.04
374.688	9.56
374.898	52.56
375.109	32.08
375.319	-31.4
375.53	48.47
375.74	71
375.951	64.85
376.161	15.7
376.372	44.37
376.582	-8.87
376.793	54.61
377.003	71
377.214	66.9
377.424	58.71
377.635	91.48
377.845	83.28
378.055	124.24
378.266	-21.16
378.476	46.42
378.686	11.61
378.897	11.61
379.107	46.42
379.317	97.62
379.528	71
379.738	81.24
379.948	-21.16
380.158	81.24
380.369	48.47
380.579	32.08
380.789	66.9
380.999	38.23
381.21	36.18
381.42	-8.87
381.63	46.42
381.84	85.33
382.05	85.33
382.261	-6.83
382.471	79.19
382.681	85.33
382.891	81.24
383.101	93.52
383.311	-37.55
383.521	93.52
383.731	34.13
383.941	40.28
384.151	66.9
384.361	-19.11
384.571	134.48
384.781	48.47
384.991	140.63
385.201	146.77
385.411	79.19
385.621	71
385.831	68.95
386.041	52.56
386.251	40.28
386.461	122.2
386.671	62.8
386.881	89.43
387.091	19.8
387.301	73.04
387.511	85.33
387.72	118.1
387.93	50.52
388.14	46.42
388.35	34.13
388.56	30.04
388.769	54.61
388.979	21.85
389.189	54.61
389.399	118.1
389.609	36.18
389.818	64.85
390.028	32.08
390.238	34.13
390.447	42.32
390.657	83.28
390.867	64.85
391.076	44.37
391.286	1.37
391.496	159.06
391.705	140.63
391.915	77.14
392.125	138.58
392.334	68.95
392.544	58.71
392.753	124.24
392.963	83.28
393.172	23.89
393.382	50.52
393.591	64.85
393.801	60.76
394.01	40.28
394.22	101.72
394.429	27.99
394.639	116.05
394.848	107.86
395.058	73.04
395.267	85.33
395.477	17.75
395.686	132.44
395.895	116.05
396.105	87.38
396.314	91.48
396.524	77.14
396.733	154.96
396.942	64.85
397.152	105.81
397.361	48.47
397.57	122.2
397.78	83.28
397.989	7.51
398.198	66.9
398.407	64.85
398.617	73.04
398.826	118.1
399.035	68.95
399.244	81.24
399.453	93.52
399.663	126.29
399.872	105.81
400.081	157.01
400.29	136.53
400.499	87.38
400.708	195.92
400.917	142.68
401.127	132.44
401.336	89.43
401.545	138.58
401.754	140.63
401.963	169.3
402.172	44.37
402.381	159.06
402.59	95.57
402.799	105.81
403.008	118.1
403.217	130.39
403.426	152.91
403.635	79.19
403.844	154.96
404.053	200.02
404.262	128.34
404.471	189.78
404.68	128.34
404.888	99.67
405.097	159.06
405.306	89.43
405.515	132.44
405.724	101.72
405.933	101.72
406.142	183.63
406.35	167.25
406.559	234.83
406.768	152.91
406.977	200.02
407.185	171.35
407.394	118.1
407.603	212.31
407.812	193.87
408.02	269.65
408.229	159.06
408.438	177.49
408.646	228.69
408.855	273.75
409.064	286.03
409.272	204.11
409.481	191.83
409.69	224.59
409.898	320.85
410.107	261.46
410.315	286.03
410.524	245.07
410.733	384.34
410.941	308.56
411.15	304.46
411.358	337.23
411.567	406.86
411.775	298.32
411.984	378.19
412.192	396.62
412.401	470.35
412.609	451.92
412.818	421.2
413.026	517.45
413.234	515.41
413.443	456.01
413.651	384.34
413.86	560.46
414.068	531.79
414.276	628.04
414.485	574.8
414.693	623.95
414.901	707.91
415.11	593.23
415.318	552.27
415.526	621.9
415.734	623.95
415.943	773.45
416.151	787.79
416.359	728.39
416.567	841.03
416.776	771.4
416.984	959.81
417.192	851.27
417.4	871.75
417.608	943.43
417.817	1006.92
418.025	1045.83
418.233	1113.41
418.441	1017.16
418.649	1097.03
418.857	1101.12
419.065	1156.42
419.273	1150.28
419.481	1242.43
419.689	1387.84
419.897	1310.02
420.105	1410.37
420.313	1408.32
420.521	1443.14
420.729	1516.86
420.937	1580.35
421.145	1639.74
421.353	1641.79
421.561	1766.71
421.769	1770.81
421.977	1926.46
422.185	1920.31
422.393	1946.94
422.601	2135.35
422.809	2188.6
423.017	2329.91
423.224	2170.16
423.432	2211.12
423.64	2274.61
423.848	2493.74
424.056	2383.15
424.263	2696.49
424.471	2739.5
424.679	2790.7
424.887	2835.75
425.094	2899.24
425.302	2942.25
425.51	3130.66
425.718	3046.69
425.925	3233.06
426.133	3241.25
426.341	3374.37
426.548	3665.18
426.756	3548.45
426.964	3706.14
427.171	3841.31
427.379	3906.84
427.586	3917.08
427.794	4052.25
428.001	4295.96
428.209	4580.62
428.417	4496.66
428.624	4685.07
428.832	4779.28
429.039	4693.26
429.247	4902.15
429.454	5102.86
429.662	5453.06
429.869	5233.93
430.076	5631.23
430.284	5539.07
430.491	5539.07
430.699	5874.94
430.906	5911.8
431.114	6032.63
431.321	6229.24
431.528	6290.68
431.736	6649.07
431.943	7150.82
432.15	6780.14
432.358	6886.64
432.565	7484.64
432.772	7404.77
432.979	7576.8
433.187	7564.51
433.394	7730.4
433.601	8266.97
433.808	8381.65
434.016	8305.88
434.223	8578.26
434.43	9100.49
434.637	8793.3
434.844	9647.3
435.052	9874.62
435.259	9721.02
435.466	9798.85
435.673	9647.3
435.88	10501.3
436.087	10927.28
436.294	10835.12
436.501	10689.71
436.708	10675.38
436.915	11254.95
437.122	11662.5
437.329	11418.79
437.537	12004.51
437.743	12358.81
437.95	12051.61
438.157	12895.38
438.364	13241.48
438.571	12977.3
438.778	13298.83
438.985	14417.02
439.192	13939.84
439.399	14484.6
439.606	13952.13
439.813	14726.26
440.02	15549.54
440.227	15309.93
440.433	15279.21
440.64	15443.05
440.847	15496.3
441.054	15909.99
441.261	17007.7
441.467	16989.27
441.674	17390.67
441.881	17902.66
442.088	17759.3
442.294	17433.68
442.501	17761.35
442.708	18394.17
442.914	19022.9
443.121	19604.52
443.328	19188.78
443.534	20591.64
443.741	20128.8
443.948	19952.68
444.154	21474.32
444.361	20970.52
444.568	21124.11
444.774	21068.82
444.981	21531.66
445.187	22275.07
445.394	23266.29
445.6	22600.7
445.807	25060.31
446.013	23774.19
446.22	24685.53
446.426	25519.06
446.633	25879.5
446.839	26338.24
447.046	25232.34
447.252	26586.05
447.459	26635.2
447.665	26545.09
447.871	27446.19
448.078	29117.34
448.284	27589.55
448.491	28533.67
448.697	29399.96
448.903	29658
449.11	29930.38
449.316	29311.89
449.522	29596.56
449.728	30698.37
449.935	30974.84
450.141	30880.64
450.347	31619.95
450.553	30428.04
450.76	30950.27
450.966	31904.62
451.172	31417.21
451.378	32328.55
451.584	31826.8
451.791	32129.9
451.997	32101.23
452.203	32809.82
452.409	32936.8
452.615	32496.49
452.821	31419.25
453.027	30856.06
453.233	32400.23
453.44	31574.9
453.646	31441.78
453.852	31540.08
454.058	32185.19
454.264	31345.53
454.47	32041.84
454.676	31042.43
454.882	31957.87
455.088	29266.84
455.294	29899.66
455.5	30190.47
455.705	30593.92
455.911	29135.77
456.117	28208.04
456.323	27857.84
456.529	26317.76
456.735	27540.4
456.941	27009.98
457.147	26563.52
457.352	25603.02
457.558	25367.51
457.764	25912.27
457.97	24863.71
458.176	24521.7
458.381	24609.76
458.587	23184.37
458.793	23505.9
458.999	22066.18
459.204	23626.73
459.41	23045.11
459.616	21550.09
459.821	21384.21
460.027	21568.52
460.233	20810.78
460.438	19964.96
460.644	20108.32
460.85	19104.82
461.055	18857.01
461.261	18762.81
461.466	17368.14
461.672	16882.77
461.878	17957.96
462.083	17095.76
462.289	16743.51
462.494	16555.1
462.7	15639.65
462.905	15449.19
463.111	15705.19
463.316	15989.86
463.522	15813.73
463.727	15645.8
463.932	15565.93
464.138	15211.63
464.343	15598.7
464.549	15086.7
464.754	15469.67
464.959	15492.2
465.165	15354.99
465.37	14638.2
465.575	14376.06
465.781	14867.57
465.986	14959.73
466.191	14300.28
466.397	14132.35
466.602	13565.06
466.807	14124.16
467.012	14038.14
467.218	13954.18
467.423	13606.02
467.628	13929.6
467.833	14466.17
468.038	13841.54
468.244	13610.12
468.449	14183.55
468.654	13403.27
468.859	13350.03
469.064	13433.99
469.269	12780.69
469.474	13005.97
469.679	13325.45
469.885	12969.1
470.09	13053.07
470.295	12704.92
470.5	12389.53
470.705	12919.95
470.91	12438.68
471.115	12217.5
471.32	12467.35
471.525	12401.82
471.73	11965.6
471.935	11971.74
472.139	11582.63
472.344	11701.41
472.549	11750.56
472.754	11660.45
472.959	11316.39
473.164	11054.25
473.369	10867.89
473.574	11461.8
473.778	11119.79
473.983	11064.49
474.188	11015.34
474.393	10540.21
474.598	10450.1
474.802	10411.19
475.007	10405.05
475.212	10335.42
475.417	9960.64
475.621	10020.03
475.826	10163.39
476.031	9891.01
476.235	9710.79
476.44	9788.61
476.645	9401.54
476.849	9567.43
477.054	9413.83
477.259	9430.21
477.463	9536.71
477.668	9080.01
477.872	9110.73
478.077	9135.31
478.282	8936.65
478.486	8830.16
478.691	8887.5
478.895	8619.22
479.1	8582.35
479.304	8778.96
479.509	8490.2
479.713	8639.7
479.918	8252.63
480.122	8660.18
480.326	8518.87
480.531	8418.52
480.735	8197.34
480.94	8387.8
481.144	8400.09
481.348	8160.47
481.553	8123.61
481.757	7933.15
481.961	8101.08
482.166	8092.89
482.37	8133.85
482.574	7886.04
482.778	8183
482.983	8275.16
483.187	8099.03
483.391	8314.07
483.595	8025.31
483.8	7840.99
484.004	7945.44
484.208	8121.56
484.412	8062.17
484.616	8025.31
484.821	8166.62
485.025	7986.4
485.229	8062.17
485.433	8025.31
485.637	8047.83
485.841	8025.31
486.045	7845.09
486.249	8015.07
486.453	8019.16
486.657	8133.85
486.861	8037.59
487.065	7816.41
487.269	7900.38
487.473	7797.98
487.677	8139.99
487.881	8201.43
488.085	8101.08
488.289	8021.21
488.493	8129.75
488.697	8185.05
488.901	8062.17
489.105	8099.03
489.309	8125.66
489.512	8105.18
489.716	8111.32
489.92	8131.8
490.124	7976.16
490.328	8154.33
490.531	8187.1
490.735	8209.62
490.939	8254.68
491.143	8072.41
491.346	8172.76
491.55	8350.93
491.754	8117.47
491.958	8510.68
492.161	8430.8
492.365	8418.52
492.569	8543.44
492.772	8459.48
492.976	8674.51
493.18	8578.26
493.383	8516.82
493.587	8719.57
493.79	8828.11
493.994	8760.53
494.197	8731.86
494.401	8846.54
494.605	8815.82
494.808	8953.04
495.012	8916.17
495.215	9237.7
495.419	9143.5
495.622	9055.44
495.825	9243.85
496.029	9243.85
496.232	9698.5
496.436	9409.73
496.639	9583.81
496.843	9675.97
497.046	9948.35
497.249	9723.07
497.453	9979.07
497.656	10130.62
497.859	10183.87
498.063	10032.32
498.266	10228.92
498.469	10370.23
498.673	10622.13
498.876	10691.76
499.079	10568.88
499.282	10681.52
499.485	10990.77
499.689	10937.52
499.892	11250.86
500.095	11340.97
500.298	11633.83
500.501	11242.67
500.705	11639.97
500.908	11695.27
501.111	11781.28
501.314	12111
501.517	12145.82
501.72	12248.22
501.923	12166.3
502.126	12539.03
502.329	12637.33
502.532	12756.11
502.735	12811.41
502.938	13067.41
503.141	13132.94
503.344	13323.4
503.547	13255.82
503.75	13548.68
503.953	13595.78
504.156	13962.37
504.359	13993.09
504.562	13802.63
504.765	14552.18
504.968	14326.91
505.17	14818.42
505.373	14660.73
505.576	15066.22
505.779	14955.63
505.982	15320.17
506.185	15307.88
506.387	15422.57
506.59	15834.21
506.793	15944.8
506.996	15948.9
507.198	16444.51
507.401	16303.2
507.604	16792.66
507.807	16819.28
508.009	16743.51
508.212	17142.86
508.415	17237.07
508.617	17548.36
508.82	17734.73
509.022	17525.83
509.225	17822.79
509.428	17857.6
509.63	18394.17
509.833	18340.93
510.035	18687.03
510.238	18406.46
510.44	18775.09
510.643	19282.99
510.845	19186.74
511.048	19203.12
511.25	19301.42
511.453	19739.69
511.655	20280.35
511.858	19891.24
512.06	20321.31
512.262	20470.81
512.465	20640.79
512.667	21195.79
512.87	20900.89
513.072	21134.35
513.274	21404.69
513.477	21546
513.679	21818.38
513.881	21961.73
514.084	22498.3
514.286	22295.55
514.488	22385.66
514.69	23184.37
514.893	22995.96
515.095	22977.53
515.297	23163.89
515.499	23692.27
515.701	23942.12
515.904	23938.02
516.106	24003.56
516.308	24247.27
516.51	24712.16
516.712	24415.2
516.914	25205.72
517.116	25572.3
517.318	25428.95
517.52	25621.45
517.722	25940.94
517.925	26084.3
518.127	26465.22
518.329	26659.77
518.531	26825.66
518.733	27046.84
518.935	27282.36
519.136	27259.83
519.338	27448.24
519.54	28044.2
519.742	28242.85
519.944	28085.16
520.146	28519.33
520.348	29139.86
520.55	28969.88
520.752	28982.17
520.954	29563.79
521.155	29680.53
521.357	29973.39
521.559	30086.03
521.761	30512
521.963	30301.06
522.164	30198.66
522.366	31003.52
522.568	30901.12
522.77	31202.17
522.971	31734.64
523.173	31310.71
523.375	31757.17
523.576	31679.35
523.778	31916.91
523.98	32521.06
524.181	32631.65
524.383	32768.87
524.584	32813.92
524.786	33063.77
524.988	32686.95
525.189	33622.87
525.391	33563.48
525.592	33846.1
525.794	33897.3
525.995	33512.28
526.197	34177.87
526.398	34024.27
526.6	34501.45
526.801	34599.75
527.003	34638.66
527.204	34689.86
527.406	34784.07
527.607	34822.98
527.808	35357.5
528.01	34556.74
528.211	34820.93
528.412	35380.03
528.614	35533.62
528.815	35652.41
529.016	35732.28
529.218	35300.15
529.419	35689.27
529.62	35810.1
529.822	35777.33
530.023	35748.66
530.224	36033.33
530.425	35941.17
530.626	35631.93
530.828	35638.07
531.029	36643.62
531.23	35975.98
531.431	36170.54
531.632	36791.08
531.833	36555.56
532.035	36326.19
532.236	36674.34
532.437	36760.36
532.638	36606.76
532.839	36860.71
533.04	36576.04
533.241	36393.77
533.442	37221.15
533.643	36606.76
533.844	36827.94
534.045	36899.62
534.246	36463.4
534.447	37118.75
534.648	37067.55
534.849	37051.17
535.05	36844.32
535.251	37083.94
535.451	36754.21
535.652	36829.99
535.853	36789.03
536.054	36819.75
536.255	36961.06
536.456	36930.34
536.657	37757.72
536.857	36784.93
537.058	37016.35
537.259	37278.49
537.46	37085.98
537.66	37008.16
537.861	37251.87
538.062	36703.01
538.263	37301.02
538.463	37092.13
538.664	37055.26
538.865	36950.82
539.065	37372.7
539.266	37081.89
539.466	37323.55
539.667	36571.94
539.868	37479.19
540.068	36975.39
540.269	36602.66
540.469	37085.98
540.67	36721.44
540.87	37151.52
541.071	36952.87
541.271	36938.53
541.472	36954.91
541.672	36684.58
541.873	36817.7
542.073	36373.29
542.274	37075.74
542.474	36739.88
542.675	36512.55
542.875	37081.89
543.075	36979.49
543.276	36428.59
543.476	37137.18
543.676	36602.66
543.877	36897.57
544.077	36899.62
544.277	36639.53
544.478	36492.07
544.678	37024.54
544.878	36535.08
545.078	36803.36
545.279	36662.05
545.479	36219.69
545.679	37188.38
545.879	36318
546.079	36500.26
546.28	36543.27
546.48	36387.63
546.68	36522.79
546.88	36832.04
547.08	36487.98
547.28	36545.32
547.48	36490.02
547.68	36705.06
547.88	36072.24
548.081	36459.31
548.281	36324.14
548.481	36010.8
548.681	36629.29
548.881	36176.69
549.081	36340.52
549.28	36264.75
549.48	36842.28
549.68	36498.22
549.88	36535.08
550.08	36229.93
550.28	36416.3
550.48	36397.87
550.68	36786.98
550.88	36105.01
551.08	36356.91
551.279	36266.8
551.479	36242.22
551.679	36178.73
551.879	36344.62
552.079	36315.95
552.278	36262.7
552.478	36254.51
552.678	36107.05
552.878	36391.72
553.077	35734.32
553.277	35750.71
553.477	36504.36
553.676	36125.49
553.876	36160.3
554.076	35963.7
554.275	35724.08
554.475	35324.73
554.674	36006.7
554.874	35930.93
555.074	35785.52
555.273	35627.83
555.473	35943.22
555.672	35693.36
555.872	35877.68
556.071	35496.76
556.271	35611.45
556.47	35242.81
556.67	35005.25
556.869	35472.18
557.068	35449.66
557.268	35496.76
557.467	34937.66
557.667	35246.91
557.866	35248.96
558.065	35011.39
558.265	34939.71
558.464	34599.75
558.663	35316.54
558.863	34710.34
559.062	35121.98
559.261	34749.25
559.461	35126.08
559.66	34542.41
559.859	34544.45
560.058	34290.51
560.258	34790.21
560.457	34147.15
560.656	34698.05
560.855	34231.11
561.054	34569.03
561.253	33909.58
561.453	34011.98
561.652	34437.96
561.851	34255.69
562.05	34026.32
562.249	34048.85
562.448	34151.24
562.647	33856.34
562.846	33821.52
563.045	33610.58
563.244	33467.22
563.443	34081.61
563.642	33346.39
563.841	33289.05
564.04	33483.61
564.239	33428.31
564.438	33444.69
564.637	33317.72
564.836	33123.16
565.035	32811.87
565.234	33295.19
565.432	32856.93
565.631	33018.72
565.83	32813.92
566.029	32852.83
566.228	32531.3
566.427	32594.79
566.625	32349.03
566.824	32201.58
567.023	32895.84
567.222	31564.66
567.42	32373.61
567.619	32187.24
567.818	31982.45
568.016	31515.51
568.215	32041.84
568.414	31740.78
568.612	31955.82
568.811	31435.64
569.01	31953.77
569.208	31284.09
569.407	31372.15
569.605	31064.96
569.804	31636.34
570.002	31349.62
570.201	31355.77
570.4	31189.88
570.598	31220.6
570.797	30772.1
570.995	30550.92
571.193	30532.48
571.392	30991.23
571.59	30516.1
571.789	30294.92
571.987	30086.03
572.186	30321.54
572.384	30518.15
572.582	30264.2
572.781	30157.71
572.979	29959.05
573.177	30000.01
573.376	30094.22
573.574	29688.72
573.772	29811.6
573.971	29514.64
574.169	29354.9
574.367	29371.29
574.565	29641.62
574.763	29463.44
574.962	29385.62
575.16	28773.28
575.358	29191.06
575.556	28623.78
575.754	29471.64
575.952	28603.3
576.151	28746.65
576.349	28820.38
576.547	28603.3
576.745	28576.67
576.943	28486.56
577.141	28390.31
577.339	28470.18
577.537	28148.65
577.735	28070.82
577.933	27978.67
578.131	28359.59
578.329	27956.14
578.527	27532.21
578.725	27896.75
578.923	27800.49
579.121	27390.9
579.319	27595.7
579.516	27767.73
579.714	27364.28
579.912	27372.47
580.11	27503.54
580.308	27212.73
580.506	27337.65
580.704	26876.86
580.901	27151.29
581.099	27188.15
581.297	27001.79
581.495	26889.15
581.692	26729.41
581.89	26377.15
582.088	26475.46
582.285	26352.58
582.483	26549.18
582.681	26432.45
582.878	26295.24
583.076	26366.91
583.274	26405.83
583.471	26096.58
583.669	26123.21
583.866	26223.56
584.064	25654.22
584.262	25371.6
584.459	26014.66
584.657	25711.56
584.854	25832.4
585.052	25246.68
585.249	25414.61
585.447	25482.19
585.644	25195.48
585.841	25115.61
586.039	25252.82
586.236	25162.71
586.434	25172.95
586.631	25033.69
586.828	24992.73
587.026	24744.92
587.223	24622.05
587.42	24331.23
587.618	24753.12
587.815	24540.13
588.012	24337.38
588.21	24327.14
588.407	24583.13
588.604	24122.34
588.801	23972.84
588.999	24282.08
589.196	23985.13
589.393	23679.98
589.59	23796.71
589.787	24161.25
589.984	23737.32
590.182	23450.61
590.379	23675.88
590.576	23323.63
590.773	23262.19
590.97	23303.15
591.167	23211
591.364	23102.45
591.561	23362.54
591.758	23096.31
591.955	23180.28
592.152	23127.03
592.349	22838.26
592.546	22789.11
592.743	23010.29
592.94	22203.39
593.137	22502.4
593.334	22537.21
593.531	22189.06
593.727	22664.19
593.924	22236.16
594.121	22055.94
594.318	22322.18
594.515	22211.59
594.712	22379.52
594.908	22107.14
595.105	22105.09
595.302	21992.45
595.499	22240.26
595.696	21785.61
595.892	21562.38
596.089	21658.63
596.286	21488.65
596.482	21670.92
596.679	21634.06
596.876	21408.78
597.072	21376.02
597.269	21007.38
597.466	21064.72
597.662	20851.74
597.859	21181.46
598.055	21355.54
598.252	21091.35
598.448	20950.04
598.645	20454.43
598.841	20773.91
599.038	20827.16
599.234	20728.86
599.431	20464.67
599.627	20298.78
599.824	20659.23
600.02	20243.49
600.217	20382.75
600.413	20145.19
600.609	20177.95
600.806	19868.71
601.002	20223.01
601.198	19833.89
601.395	19940.39
601.591	19989.54
601.787	19903.53
601.984	19698.73
602.18	19717.16
602.376	19915.81
602.572	19424.3
602.769	19545.13
602.965	19340.33
603.161	19465.26
603.357	19364.91
603.553	19301.42
603.75	19248.18
603.946	19000.37
604.142	19178.54
604.338	18578.49
604.534	19190.83
604.73	18773.05
604.926	18592.83
605.122	18828.34
605.318	18596.92
605.514	18369.6
605.71	18396.22
605.906	18400.32
606.102	18433.08
606.298	18584.63
606.494	18355.26
606.69	18580.54
606.886	18263.1
607.082	18125.89
607.278	18308.16
607.474	18265.15
607.67	18324.54
607.866	18064.45
608.062	18121.79
608.257	17759.3
608.453	18013.25
608.649	17738.82
608.845	17865.8
609.041	17437.77
609.236	17876.04
609.432	17773.64
609.628	17861.7
609.824	17648.71
610.019	17650.76
610.215	17734.73
610.411	17546.31
610.606	17347.66
610.802	17630.28
610.998	17343.56
611.193	17658.95
611.389	17462.35
611.584	17226.83
611.78	17202.25
611.976	17329.23
612.171	17505.35
612.367	17130.58
612.562	16938.07
612.758	16858.2
612.953	17116.24
613.149	16936.02
613.344	16802.9
613.539	17269.84
613.735	16958.55
613.93	16899.16
614.126	16610.39
614.321	16940.11
614.517	16700.5
614.712	16651.35
614.907	16446.55
615.103	16868.44
615.298	16680.02
615.493	16778.33
615.688	16510.04
615.884	16786.52
616.079	16114.78
616.274	16421.98
616.47	16276.57
616.665	16526.43
616.86	16532.57
617.055	16077.92
617.25	16223.33
617.445	16385.12
617.641	15996
617.836	16221.28
618.031	15928.42
618.226	16032.86
618.421	16039.01
618.616	16030.82
618.811	15774.82
619.006	15928.42
619.201	15453.29
619.396	15965.28
619.591	15682.66
619.786	15756.39
619.981	15432.81
620.176	15524.97
620.371	15357.03
620.566	15037.55
620.761	15215.73
620.956	15248.49
621.151	14791.8
621.346	15266.92
621.541	14754.93
621.735	14935.15
621.93	14908.53
622.125	14652.53
622.32	14474.36
622.515	14541.94
622.709	14556.28
622.904	14603.38
623.099	14474.36
623.294	14197.88
623.488	14158.97
623.683	14199.93
623.878	13841.54
624.072	14011.52
624.267	14017.66
624.462	13814.91
624.656	13583.49
624.851	13792.39
625.046	13782.15
625.24	13560.97
625.435	13388.94
625.629	13315.21
625.824	13272.2
626.018	13249.68
626.213	12866.7
626.407	13464.71
626.602	13018.25
626.796	13040.78
626.991	12844.18
627.185	12999.82
627.38	12602.52
627.574	12829.84
627.768	12569.75
627.963	12696.72
628.157	12506.26
628.352	12459.16
628.546	12373.14
628.74	12522.65
628.935	12303.51
629.129	12145.82
629.323	12086.43
629.517	12147.87
629.712	11965.6
629.906	12065.95
630.1	11545.77
630.294	11728.03
630.489	11590.82
630.683	11594.92
630.877	11515.05
631.071	11664.55
631.265	11531.43
631.459	11547.81
631.653	11525.29
631.848	11369.64
632.042	11308.2
632.236	11271.34
632.43	11142.32
632.624	11250.86
632.818	10947.76
633.012	11191.47
633.206	10986.67
633.4	10792.11
633.594	10671.28
633.788	10679.47
633.982	10654.9
634.176	10732.72
634.369	10433.72
634.563	10638.51
634.757	10529.97
634.951	10532.02
635.145	10423.48
635.339	10347.7
635.533	10159.29
635.726	10409.14
635.92	10171.58
636.114	10398.9
636.308	10060.99
636.501	10058.94
636.695	9997.5
636.889	10073.28
637.083	9827.52
637.276	9721.02
637.47	9790.66
637.664	9450.69
637.857	9706.69
638.051	9630.91
638.244	9485.51
638.438	9370.82
638.632	9663.68
638.825	9370.82
639.019	9360.58
639.212	9419.97
639.406	9163.98
639.599	9157.83
639.793	9305.29
639.986	9008.33
640.18	9170.12
640.373	9106.63
640.567	8930.51
640.76	8725.71
640.954	8785.1
641.147	8795.34
641.34	8668.37
641.534	8811.73
641.727	8881.36
641.92	8735.95
642.114	8619.22
642.307	8520.92
642.5	8512.72
642.694	8320.21
642.887	8334.55
643.08	8498.39
643.273	8162.52
643.467	8271.06
643.66	8051.93
643.853	8209.62
644.046	8070.36
644.239	8180.95
644.432	7867.61
644.626	8103.13
644.819	8053.98
645.012	8154.33
645.205	7984.35
645.398	7754.97
645.591	7861.47
645.784	7666.91
645.977	7701.73
646.17	7584.99
646.363	7513.31
646.556	7361.77
646.749	7609.57
646.942	7464.16
647.135	7541.99
647.328	7478.5
647.521	7245.03
647.714	7101.67
647.907	7341.29
648.099	7075.05
648.292	7486.69
648.485	7199.98
648.678	7107.82
648.871	7001.32
649.064	7116.01
649.256	7126.25
649.449	7046.38
649.642	6909.16
649.835	6937.84
650.027	6786.29
650.22	6788.33
650.413	6782.19
650.605	6890.73
650.798	6698.22
650.991	6548.72
651.183	6778.09
651.376	6558.96
651.568	6661.36
651.761	6532.34
651.954	6587.63
652.146	6534.39
652.339	6595.82
652.531	6518
652.724	6282.49
652.916	6331.64
653.109	6186.23
653.301	6210.81
653.494	6354.16
653.686	6092.02
653.879	6219
654.071	6178.04
654.263	6137.08
654.456	6087.93
654.648	6216.95
654.84	5928.19
655.033	5936.38
655.225	5971.19
655.417	5897.47
655.61	5952.76
655.802	5844.22
655.994	5819.64
656.186	5848.32
656.379	5715.2
656.571	5729.53
656.763	5641.47
656.955	5618.94
657.148	5729.53
657.34	5641.47
657.532	5518.59
657.724	5381.38
657.916	5543.17
658.108	5422.34
658.3	5436.67
658.492	5498.11
658.684	5303.56
658.876	5321.99
659.068	5305.6
659.26	5256.45
659.452	5373.19
659.644	5311.75
659.836	5115.14
660.028	5293.32
660.22	5176.58
660.412	5127.43
660.604	4982.03
660.796	5012.74
660.988	4965.64
661.18	4963.59
661.372	4912.39
661.563	5133.57
661.755	4881.67
661.947	4916.49
662.139	4955.4
662.331	4902.15
662.522	4916.49
662.714	4664.59
662.906	4828.43
663.097	4709.65
663.289	4652.3
663.481	4687.12
663.673	4920.59
663.864	4697.36
664.056	4666.64
664.247	4627.73
664.439	4568.34
664.631	4623.63
664.822	4592.91
665.014	4627.73
665.205	4560.14
665.397	4412.69
665.588	4564.24
665.78	4320.53
665.971	4396.31
666.163	4631.82
666.354	4439.31
666.546	4330.77
666.737	4283.67
666.929	4459.79
667.12	4371.73
667.311	4312.34
667.503	4244.76
667.694	4214.04
667.885	4306.2
668.077	4117.78
668.268	4234.52
668.459	4353.3
668.651	4148.5
668.842	4185.37
669.033	4244.76
669.224	4152.6
669.416	4066.58
669.607	4103.45
669.798	4082.97
669.989	4011.29
670.18	4087.06
670.371	3888.41
670.563	3939.61
670.754	3939.61
670.945	3945.75
671.136	4001.05
671.327	3835.16
671.518	3831.07
671.709	3845.4
671.9	4005.14
672.091	3925.27
672.282	3845.4
672.473	3831.07
672.664	3824.92
672.855	3845.4
673.046	3796.25
673.237	3697.95
673.428	3888.41
673.619	3759.39
673.809	3591.45
674	3616.03
674.191	3679.52
674.382	3673.37
674.573	3556.64
674.764	3599.65
674.954	3599.65
675.145	3509.54
675.336	3630.37
675.527	3562.78
675.717	3632.41
675.908	3509.54
676.099	3550.5
676.289	3550.5
676.48	3562.78
676.671	3495.2
676.861	3530.02
677.052	3505.44
677.243	3456.29
677.433	3499.3
677.624	3450.14
677.814	3388.71
678.005	3319.07
678.195	3423.52
678.386	3335.46
678.576	3284.26
678.767	3355.94
678.957	3290.4
679.148	3370.27
679.338	3403.04
679.529	3374.37
679.719	3364.13
679.909	3382.56
680.1	3282.21
680.29	3218.72
680.481	3321.12
680.671	3263.78
680.861	3261.73
681.052	3243.3
681.242	3319.07
681.432	3149.09
681.622	3167.52
681.813	3157.29
682.003	3265.83
682.193	3312.93
682.383	3235.11
682.573	3247.4
682.764	3224.87
682.954	3280.16
683.144	3022.12
683.334	3069.22
683.524	3083.56
683.714	3136.81
683.904	3145
684.094	3095.85
684.284	3007.78
684.474	3085.61
684.664	3188
684.854	3046.69
685.044	3061.03
685.234	3058.98
685.424	2958.63
685.614	3056.93
685.804	3063.08
685.994	2958.63
686.184	2907.43
686.374	3011.88
686.564	2923.82
686.753	2950.44
686.943	2932.01
687.133	3001.64
687.323	2854.19
687.513	2958.63
687.702	2802.99
687.892	2858.28
688.082	2813.23
688.272	2940.2
688.461	2858.28
688.651	2874.67
688.841	2796.84
689.03	2714.92
689.22	2809.13
689.41	2800.94
689.599	2831.66
689.789	2721.07
689.979	2780.46
690.168	2762.03
690.358	2602.29
690.547	2618.67
690.737	2721.07
690.926	2749.74
691.116	2678.06
691.305	2673.96
691.495	2639.15
691.684	2616.62
691.874	2649.39
692.063	2628.91
692.252	2663.72
692.442	2592.05
692.631	2688.3
692.82	2653.48
693.01	2510.13
693.199	2647.34
693.388	2526.51
693.578	2503.98
693.767	2522.41
693.956	2458.93
694.146	2452.78
694.335	2534.7
694.524	2473.26
694.713	2512.18
694.902	2514.22
695.092	2524.46
695.281	2428.21
695.47	2395.44
695.659	2512.18
695.848	2413.87
696.037	2321.71
696.226	2575.66
696.415	2409.78
696.604	2444.59
696.793	2489.65
696.982	2407.73
697.171	2366.77
697.36	2428.21
697.549	2288.95
697.738	2409.78
697.927	2334
698.116	2356.53
698.305	2391.34
698.494	2499.89
698.683	2387.25
698.872	2358.58
699.061	2358.58
699.25	2325.81
699.438	2262.32
699.627	2420.02
699.816	2356.53
700.005	2360.63
700.193	2450.74
700.382	2358.58
700.571	2381.1
700.76	2409.78
700.948	2383.15
701.137	2313.52
701.326	2336.05
701.514	2374.96
701.703	2356.53
701.892	2370.87
702.08	2348.34
702.269	2268.47
702.457	2297.14
702.646	2323.76
702.834	2315.57
703.023	2211.12
703.212	2456.88
703.4	2245.94
703.589	2331.95
703.777	2440.5
703.965	2280.75
704.154	2336.05
704.342	2268.47
704.531	2272.56
704.719	2282.8
704.907	2409.78
705.096	2317.62
705.284	2272.56
705.472	2311.47
705.661	2323.76
705.849	2358.58
706.037	2323.76
706.226	2239.8
706.414	2268.47
706.602	2297.14
706.79	2426.16
706.979	2250.03
707.167	2399.54
707.355	2168.12
707.543	2258.23
707.731	2399.54
707.919	2334
708.107	2397.49
708.296	2368.82
708.484	2264.37
708.672	2299.19
708.86	2221.36
709.048	2325.81
709.236	2239.8
709.424	2311.47
709.612	2225.46
709.8	2231.6
709.988	2186.55
710.176	2323.76
710.364	2313.52
710.551	2295.09
710.739	2364.72
710.927	2151.73
711.115	2299.19
711.303	2290.99
711.491	2358.58
711.679	2243.89
711.866	2239.8
712.054	2207.03
712.242	2247.99
712.43	2286.9
712.617	2258.23
712.805	2276.66
712.993	2178.36
713.181	2168.12
713.368	2319.67
713.556	2313.52
713.744	2227.51
713.931	2295.09
714.119	2270.51
714.306	2186.55
714.494	2254.13
714.682	2178.36
714.869	2325.81
715.057	2297.14
715.244	2200.88
715.432	2078.01
715.619	2364.72
715.807	2233.65
715.994	2145.59
716.182	2352.43
716.369	2256.18
716.556	2215.22
716.744	2125.11
716.931	2231.6
717.119	2139.44
717.306	2266.42
717.493	2188.6
717.681	2280.75
717.868	2180.4
718.055	2231.6
718.242	2303.28
718.43	2268.47
718.617	2319.67
718.804	2170.16
718.991	2180.4
719.179	2256.18
719.366	2184.5
719.553	2307.38
719.74	2151.73
719.927	2186.55
720.114	2221.36
720.301	2305.33
720.488	2307.38
720.676	2282.8
720.863	2196.79
721.05	2157.88
721.237	2164.02
721.424	2254.13
721.611	2164.02
721.798	2278.71
721.985	2227.51
722.172	2178.36
722.358	2221.36
722.545	2207.03
722.732	2176.31
722.919	2260.27
723.106	2207.03
723.293	2049.33
723.48	2207.03
723.667	2180.4
723.853	2284.85
724.04	2313.52
724.227	2180.4
724.414	2221.36
724.6	2194.74
724.787	2204.98
724.974	2209.08
725.161	2114.87
725.347	2233.65
725.534	2198.84
725.72	2190.64
725.907	2182.45
726.094	2131.25
726.28	2217.27
726.467	2157.88
726.653	2202.93
726.84	2209.08
727.027	2276.66
727.213	2121.01
727.4	2223.41
727.586	2211.12
727.773	2153.78
727.959	2209.08
728.145	2149.68
728.332	2141.49
728.518	2153.78
728.705	2172.21
728.891	2276.66
729.077	2202.93
729.264	2159.92
729.45	2065.72
729.636	2213.17
729.823	2012.47
730.009	2227.51
730.195	2071.86
730.382	2252.08
730.568	2129.2
730.754	2204.98
730.94	2018.61
731.126	2276.66
731.313	2188.6
731.499	2200.88
731.685	2094.39
731.871	2108.73
732.057	2245.94
732.243	2233.65
732.429	2170.16
732.615	2159.92
732.801	2198.84
732.987	2143.54
733.173	2127.16
733.359	2080.05
733.545	2059.57
733.731	2067.77
733.917	2086.2
734.103	2129.2
734.289	2217.27
734.475	2112.82
734.661	2254.13
734.847	2125.11
735.033	2078.01
735.219	2151.73
735.404	2026.81
735.59	2067.77
735.776	2118.97
735.962	2225.46
736.148	2112.82
736.333	2231.6
736.519	2100.53
736.705	2092.34
736.89	2102.58
737.076	2106.68
737.262	2104.63
737.447	2026.81
737.633	1975.61
737.819	1985.85
738.004	1969.46
738.19	2096.44
738.375	2084.15
738.561	2121.01
738.747	2041.14
738.932	2098.49
739.118	2018.61
739.303	2112.82
739.489	2020.66
739.674	2102.58
739.859	1991.99
740.045	2024.76
740.23	2020.66
740.416	2041.14
740.601	2024.76
740.786	2043.19
740.972	2037.05
741.157	2018.61
741.342	1942.84
741.528	2026.81
741.713	1973.56
741.898	1940.79
742.084	2014.52
742.269	1969.46
742.454	1983.8
742.639	1946.94
742.824	1955.13
743.01	1944.89
743.195	1871.16
743.38	1912.12
743.565	1865.02
743.75	1920.31
743.935	1910.07
744.12	1926.46
744.305	1842.49
744.49	1852.73
744.675	1783.1
744.86	1840.44
745.045	1815.87
745.23	1756.47
745.415	1830.2
745.6	1844.54
745.785	1791.29
745.97	1840.44
746.155	1811.77
746.34	1801.53
746.525	1748.28
746.71	1793.34
746.895	1762.62
747.079	1652.03
747.264	1535.29
747.449	1807.67
747.634	1725.75
747.819	1707.32
748.003	1740.09
748.188	1662.27
748.373	1658.17
748.557	1670.46
748.742	1623.36
748.927	1711.42
749.111	1692.99
749.296	1598.78
749.481	1676.6
749.665	1697.08
749.85	1572.16
750.034	1606.97
750.219	1590.59
750.404	1545.53
750.588	1447.23
750.773	1398.08
750.957	1525.05
751.141	1658.17
751.326	1486.14
751.51	1547.58
751.695	1494.33
751.879	1482.05
752.064	1469.76
752.248	1498.43
752.432	1467.71
752.617	1555.77
752.801	1461.57
752.985	1518.91
753.17	1416.51
753.354	1486.14
753.538	1410.37
753.722	1453.38
753.907	1412.42
754.091	1406.27
754.275	1375.55
754.459	1350.98
754.643	1359.17
754.828	1377.6
755.012	1410.37
755.196	1299.78
755.38	1350.98
755.564	1326.4
755.748	1344.83
755.932	1326.4
756.116	1275.2
756.3	1230.15
756.484	1267.01
756.668	1250.63
756.852	1201.48
757.036	1232.19
757.22	1269.06
757.404	1217.86
757.588	1338.69
757.772	1221.95
757.956	1299.78
758.14	1183.04
758.323	1158.47
758.507	1203.52
758.691	1226.05
758.875	1275.2
759.059	1164.61
759.242	1226.05
759.426	1125.7
759.61	1043.78
759.794	1080.64
759.977	1201.48
760.161	1131.84
760.345	1203.52
760.528	1160.52
760.712	1029.45
760.895	1115.46
761.079	1074.5
761.263	984.39
761.446	959.81
761.63	1023.3
761.813	1074.5
761.997	1025.35
762.18	982.34
762.364	1039.69
762.547	1076.55
762.731	1064.26
762.914	1060.17
763.098	1004.87
763.281	982.34
763.464	1017.16
763.648	965.96
763.831	961.86
764.015	1000.77
764.198	963.91
764.381	1035.59
764.564	1101.12
764.748	972.1
764.931	904.52
765.114	1023.3
765.297	957.77
765.481	898.38
765.664	945.48
765.847	965.96
766.03	976.2
766.213	951.62
766.397	920.9
766.58	914.76
766.763	994.63
766.946	900.42
767.129	896.33
767.312	894.28
767.495	963.91
767.678	832.84
767.861	953.67
768.044	951.62
768.227	933.19
768.41	875.85
768.593	1021.25
768.776	857.42
768.959	916.81
769.142	910.66
769.324	845.13
769.507	841.03
769.69	896.33
769.873	881.99
770.056	935.24
770.239	949.57
770.421	824.65
770.604	890.18
770.787	802.12
770.97	834.89
771.152	757.07
771.335	806.22
771.518	836.94
771.7	777.55
771.883	804.17
772.066	765.26
772.248	793.93
772.431	875.85
772.613	763.21
772.796	873.8
772.978	744.78
773.161	765.26
773.343	830.79
773.526	832.84
773.708	859.46
773.891	718.15
774.073	699.72
774.256	785.74
774.438	826.7
774.621	775.5
774.803	765.26
774.985	804.17
775.168	734.54
775.35	681.29
775.532	728.39
775.715	648.52
775.897	765.26
776.079	732.49
776.261	695.63
776.444	701.77
776.626	664.91
776.808	630.09
776.99	693.58
777.173	681.29
777.355	642.38
777.537	638.28
777.719	552.27
777.901	656.72
778.083	628.04
778.265	656.72
778.447	580.94
778.629	568.65
778.811	636.24
778.993	615.76
779.175	562.51
779.357	630.09
779.539	630.09
779.721	585.04
779.903	603.47
780.085	550.22
780.267	689.48
780.449	544.08
780.631	597.32
780.812	613.71
780.994	554.32
781.176	527.69
781.358	562.51
781.54	585.04
781.721	628.04
781.903	513.36
782.085	486.73
782.267	554.32
782.448	539.98
782.63	539.98
782.812	474.45
782.993	517.45
783.175	460.11
783.357	531.79
783.538	472.4
783.72	431.44
783.901	488.78
784.083	507.21
784.264	472.4
784.446	415.06
784.627	507.21
784.809	492.88
784.99	490.83
785.172	394.58
785.353	492.88
785.535	449.87
785.716	417.1
785.897	535.89
786.079	484.69
786.26	357.71
786.441	539.98
786.623	464.21
786.804	466.25
786.985	478.54
787.167	443.73
787.348	496.97
787.529	384.34
787.71	453.97
787.891	449.87
788.073	427.34
788.254	427.34
788.435	408.91
788.616	392.53
788.797	384.34
788.978	386.38
789.159	398.67
789.34	486.73
789.522	398.67
789.703	316.75
789.884	406.86
790.065	333.14
790.246	359.76
790.427	413.01
790.607	408.91
790.788	343.38
790.969	320.85
791.15	361.81
791.331	320.85
791.512	339.28
791.693	374.1
791.874	326.99
792.054	347.47
792.235	372.05
792.416	310.61
792.597	267.6
792.778	398.67
792.958	357.71
793.139	300.37
793.32	353.62
793.5	351.57
793.681	365.9
793.862	333.14
794.042	259.41
794.223	212.31
794.404	329.04
794.584	245.07
794.765	306.51
794.945	267.6
795.126	314.7
795.306	292.18
795.487	302.42
795.667	263.51
795.848	218.45
796.028	288.08
796.209	290.13
796.389	273.75
796.57	247.12
796.75	308.56
796.93	271.7
797.111	236.88
797.291	281.94
797.471	296.27
797.652	316.75
797.832	259.41
798.012	232.79
798.192	277.84
798.373	294.22
798.553	234.83
798.733	257.36
798.913	228.69
799.093	234.83
799.274	308.56
799.454	298.32
799.634	247.12
799.814	251.22
799.994	218.45
800.174	261.46
800.354	245.07
800.534	238.93
800.714	286.03
800.894	216.4
801.074	269.65
801.254	181.59
801.434	300.37
801.614	159.06
801.794	257.36
801.974	582.99
802.154	177.49
802.334	281.94
802.514	255.31
802.693	243.03
802.873	294.22
803.053	247.12
803.233	191.83
803.413	214.35
803.592	202.07
803.772	224.59
803.952	206.16
804.131	202.07
804.311	253.27
804.491	240.98
804.67	179.54
804.85	185.68
805.03	232.79
805.209	243.03
805.389	214.35
805.568	175.44
805.748	181.59
805.928	177.49
806.107	224.59
806.287	189.78
806.466	255.31
806.646	294.22
806.825	146.77
807.004	169.3
807.184	240.98
807.363	175.44
807.543	152.91
807.722	175.44
807.901	138.58
808.081	230.74
808.26	109.91
808.439	183.63
808.619	218.45
808.798	189.78
808.977	154.96
809.156	247.12
809.336	165.2
809.515	202.07
809.694	142.68
809.873	183.63
810.052	228.69
810.231	159.06
810.411	157.01
810.59	191.83
810.769	171.35
810.948	288.08
811.127	44.37
811.306	140.63
811.485	150.87
811.664	195.92
811.843	165.2
812.022	185.68
812.201	179.54
812.38	200.02
812.559	212.31
812.737	107.86
812.916	152.91
813.095	95.57
813.274	177.49
813.453	130.39
813.632	103.76
813.811	128.34
813.989	97.62
814.168	200.02
814.347	85.33
814.526	161.11
814.704	107.86
814.883	142.68
815.062	161.11
815.24	177.49
815.419	234.83
815.598	220.5
815.776	136.53
815.955	91.48
816.133	81.24
816.312	157.01
816.49	114
816.669	234.83
816.847	101.72
817.026	83.28
817.204	105.81
817.383	124.24
817.561	36.18
817.74	107.86
817.918	140.63
818.097	56.66
818.275	144.72
818.453	171.35
818.632	146.77
818.81	212.31
818.988	40.28
819.167	134.48
819.345	208.21
819.523	159.06
819.701	54.61
819.879	161.11
820.058	181.59
820.236	163.15
820.414	236.88
820.592	179.54
820.77	128.34
820.948	116.05
821.127	73.04
821.305	138.58
821.483	150.87
821.661	111.96
821.839	114
822.017	93.52
822.195	109.91
822.373	144.72
822.551	68.95
822.729	169.3
822.907	62.8
823.085	132.44
823.262	95.57
823.44	48.47
823.618	138.58
823.796	163.15
823.974	44.37
824.152	83.28
824.329	95.57
824.507	52.56
824.685	48.47
824.863	71
825.04	107.86
825.218	83.28
825.396	154.96
825.574	71
825.751	95.57
825.929	66.9
826.107	77.14
826.284	15.7
826.462	60.76
826.639	83.28
826.817	64.85
826.994	38.23
827.172	93.52
827.349	58.71
827.527	107.86
827.704	118.1
827.882	109.91
828.059	103.76
828.237	71
828.414	68.95
828.591	36.18
828.769	128.34
828.946	-21.16
829.124	109.91
829.301	107.86
829.478	109.91
829.655	23.89
829.833	114
830.01	71
830.187	95.57
830.364	95.57
830.542	118.1
830.719	97.62
830.896	114
831.073	130.39
831.25	154.96
831.427	54.61
831.604	68.95
831.782	148.82
831.959	103.76
832.136	85.33
832.313	73.04
832.49	116.05
832.667	91.48
832.844	7.51
833.021	138.58
833.198	120.15
833.374	114
833.551	146.77
833.728	64.85
833.905	85.33
834.082	120.15
834.259	34.13
834.436	75.09
834.612	71
834.789	15.7
834.966	124.24
835.143	73.04
835.319	77.14
835.496	83.28
835.673	103.76
835.85	54.61
836.026	83.28
836.203	77.14
836.38	48.47
836.556	54.61
836.733	56.66
836.909	93.52
837.086	19.8
837.262	19.8
837.439	44.37
837.616	46.42
837.792	89.43
837.968	56.66
838.145	36.18
838.321	32.08
838.498	19.8
838.674	83.28
838.851	7.51
839.027	19.8
839.203	97.62
839.38	50.52
839.556	38.23
839.732	118.1
839.909	25.94
840.085	79.19
840.261	42.32
840.437	25.94
840.614	13.65
840.79	75.09
840.966	48.47
841.142	93.52
841.318	120.15
841.494	36.18
841.671	40.28
841.847	52.56
842.023	15.7
842.199	93.52
842.375	46.42
842.551	-27.31
842.727	46.42
842.903	15.7
843.079	56.66
843.255	25.94
843.431	103.76
843.607	60.76
843.783	1.37
843.959	40.28
844.134	36.18
844.31	116.05
844.486	11.61
844.662	54.61
844.838	-23.21
845.013	89.43
845.189	3.41
845.365	91.48
845.541	15.7
845.716	71
845.892	-10.92
846.068	89.43
846.244	50.52
846.419	62.8
846.595	77.14
846.77	-15.02
846.946	91.48
847.122	38.23
847.297	-31.4
847.473	120.15
847.648	48.47
847.824	19.8
847.999	-6.83
848.175	58.71
848.35	62.8
848.526	99.67
848.701	-4.78
848.876	93.52
849.052	71
849.227	34.13
849.403	1.37
849.578	32.08
849.753	1.37
849.929	64.85
850.104	5.46
850.279	17.75
850.454	21.85
850.63	101.72
850.805	58.71
850.98	40.28
851.155	-10.92
851.33	38.23
851.505	25.94
851.681	23.89
851.856	-19.11
852.031	27.99
852.206	73.04
852.381	66.9
852.556	-66.22
852.731	97.62
852.906	62.8
853.081	81.24
853.256	73.04
853.431	21.85
853.606	40.28
853.781	27.99
853.956	73.04
854.131	3.41
854.305	48.47
854.48	-6.83
854.655	77.14
854.83	23.89
855.005	19.8
855.18	118.1
855.354	-12.97
855.529	66.9
855.704	56.66
855.879	-12.97
856.053	11.61
856.228	48.47
856.403	-8.87
856.577	79.19
856.752	-25.26
856.926	38.23
857.101	32.08
857.276	36.18
857.45	-17.07
857.625	5.46
857.799	25.94
857.974	75.09
858.148	-25.26
858.323	85.33
858.497	-66.22
858.672	-27.31
858.846	60.76
859.02	46.42
859.195	-27.31
859.369	42.32
859.543	-10.92
859.718	-6.83
859.892	42.32
860.066	3.41
860.241	-78.51
860.415	27.99
860.589	-15.02
860.763	-55.98
860.938	-21.16
861.112	1.37
861.286	-25.26
861.46	48.47
861.634	48.47
861.808	77.14
861.982	34.13
862.157	9.56
862.331	9.56
862.505	-80.55
862.679	3.41
862.853	-2.73
863.027	-25.26
863.201	52.56
863.375	75.09
863.549	42.32
863.722	42.32
863.896	48.47
864.07	32.08
864.244	-4.78
864.418	54.61
864.592	38.23
864.766	-49.83
864.939	60.76
865.113	-8.87
865.287	3.41
865.461	-4.78
865.634	-43.69
865.808	-21.16
865.982	27.99
866.156	-31.4
866.329	-21.16
866.503	44.37
866.676	13.65
866.85	17.75
867.024	42.32
867.197	40.28
867.371	5.46
867.544	3.41
867.718	-8.87
867.891	42.32
868.065	-25.26
868.238	32.08
868.412	-33.45
868.585	-0.68
868.759	36.18
868.932	3.41
869.105	32.08
869.279	89.43
869.452	44.37
869.625	79.19
869.799	52.56
869.972	56.66
870.145	36.18
870.319	-21.16
870.492	5.46
870.665	15.7
870.838	48.47
871.011	-4.78
871.185	-33.45
871.358	-21.16
871.531	-8.87
871.704	25.94
871.877	77.14
872.05	23.89
872.223	40.28
872.396	15.7
872.569	60.76
872.742	-37.55
872.915	60.76
873.088	32.08
873.261	-27.31
873.434	1.37
873.607	21.85
873.78	34.13
873.953	73.04
874.126	13.65
874.299	23.89
874.471	-58.03
874.644	-6.83
874.817	7.51
874.99	32.08
875.163	-68.27
875.335	-68.27
875.508	-12.97
875.681	64.85
875.853	19.8
876.026	64.85
876.199	3.41
876.371	44.37
876.544	23.89
876.717	-23.21
876.889	-25.26
877.062	-4.78
877.234	-45.74
877.407	75.09
877.579	11.61
877.752	15.7
877.924	27.99
878.097	9.56
878.269	64.85
878.442	73.04
878.614	-27.31
878.786	-12.97
878.959	21.85
879.131	17.75
879.303	27.99
879.476	-76.46
879.648	-8.87
879.82	-19.11
879.993	-8.87
880.165	60.76
880.337	27.99
880.509	7.51
880.681	-17.07
880.854	3.41
881.026	42.32
881.198	54.61
881.37	19.8
881.542	95.57
881.714	-21.16
881.886	-0.68
882.058	-33.45
882.23	-17.07
882.402	-19.11
882.574	-21.16
882.746	7.51
882.918	73.04
883.09	42.32
883.262	71
883.434	32.08
883.606	25.94
883.778	-0.68
883.95	42.32
884.122	-33.45
884.293	19.8
884.465	42.32
884.637	71
884.809	48.47
884.98	77.14
885.152	-17.07
885.324	62.8
885.496	-10.92
885.667	27.99
885.839	-25.26
886.011	-10.92
886.182	-53.93
886.354	-23.21
886.525	40.28
886.697	30.04
886.869	25.94
887.04	17.75
887.212	73.04
887.383	27.99
887.555	38.23
887.726	-4.78
887.897	7.51
888.069	-0.68
888.24	-35.5
888.412	-0.68
888.583	-27.31
888.754	-47.79
888.926	-12.97
889.097	-25.26
889.268	7.51
889.44	-2.73
889.611	3.41
889.782	60.76
889.953	-31.4
890.125	89.43
890.296	1.37
890.467	13.65
890.638	-43.69
890.809	-31.4
890.98	15.7
891.151	23.89
891.323	11.61
891.494	48.47
891.665	19.8
891.836	32.08
892.007	54.61
892.178	-51.88
892.349	-17.07
892.52	-15.02
892.691	42.32
892.862	-0.68
893.032	-43.69
893.203	27.99
893.374	9.56
893.545	75.09
893.716	40.28
893.887	15.7
894.057	-53.93
894.228	60.76
894.399	-0.68
894.57	3.41
894.74	-60.07
894.911	19.8
895.082	32.08
895.253	34.13
895.423	7.51
895.594	32.08
895.764	27.99
895.935	7.51
896.106	48.47
896.276	36.18
896.447	7.51
896.617	-4.78
896.788	-6.83
896.958	52.56
897.129	-43.69
897.299	3.41
897.47	32.08
897.64	27.99
897.81	40.28
897.981	34.13
898.151	21.85
898.322	-17.07
898.492	-33.45
898.662	-4.78
898.832	-10.92
899.003	48.47
899.173	44.37
899.343	42.32
899.513	11.61
