Data from USB4F104151__167__11-08-49-588.txt Node

Date: Wed Mar 12 11:08:49 EDT 2025
User: louis
Spectrometer: USB4F10415
Trigger mode: 4
Integration Time (sec): 2.000000E-2
Scans to average: 1
Electric dark correction enabled: true
Nonlinearity correction enabled: false
Boxcar width: 0
XAxis mode: Wavelengths
Number of Pixels in Spectrum: 3648
>>>>>Begin Spectral Data<<<<<
178.204	-50.18
178.424	-50.18
178.644	-50.18
178.864	-9.22
179.084	-35.84
179.304	-15.36
179.524	-11.26
179.744	29.7
179.964	54.27
180.184	-21.5
180.404	13.31
180.624	3.07
180.844	50.18
181.064	-25.6
181.283	39.94
181.503	-87.04
181.723	-29.7
181.943	-13.31
182.163	19.46
182.383	97.28
182.602	-25.6
182.822	-1.02
183.042	-7.17
183.262	-13.31
183.482	23.55
183.701	44.03
183.921	41.98
184.141	-13.31
184.361	-17.41
184.58	58.37
184.8	48.13
185.02	9.22
185.239	17.41
185.459	87.04
185.679	19.46
185.898	41.98
186.118	1.02
186.338	52.22
186.557	29.7
186.777	1.02
186.997	35.84
187.216	-46.08
187.436	74.75
187.655	64.51
187.875	39.94
188.095	66.56
188.314	-21.5
188.534	72.7
188.753	84.99
188.973	87.04
189.192	64.51
189.412	25.6
189.631	-48.13
189.851	25.6
190.07	93.18
190.29	-74.75
190.509	17.41
190.729	41.98
190.948	41.98
191.168	130.05
191.387	37.89
191.607	62.46
191.826	7.17
192.045	29.7
192.265	-23.55
192.484	58.37
192.704	99.33
192.923	7.17
193.142	107.52
193.362	72.7
193.581	52.22
193.8	95.23
194.02	37.89
194.239	48.13
194.458	37.89
194.678	-19.46
194.897	35.84
195.116	21.5
195.335	25.6
195.555	-11.26
195.774	-64.51
195.993	11.26
196.212	-17.41
196.432	54.27
196.651	48.13
196.87	64.51
197.089	-17.41
197.308	13.31
197.528	-44.03
197.747	17.41
197.966	80.89
198.185	54.27
198.404	9.22
198.623	-5.12
198.842	76.8
199.062	11.26
199.281	66.56
199.5	33.79
199.719	33.79
199.938	64.51
200.157	41.98
200.376	-72.7
200.595	21.5
200.814	31.74
201.033	13.31
201.252	27.65
201.471	117.76
201.69	125.95
201.909	19.46
202.128	17.41
202.347	-5.12
202.566	60.42
202.785	-1.02
203.004	-21.5
203.223	80.89
203.442	-60.42
203.661	33.79
203.879	46.08
204.098	52.22
204.317	-29.7
204.536	21.5
204.755	27.65
204.974	111.61
205.193	-11.26
205.411	54.27
205.63	37.89
205.849	29.7
206.068	25.6
206.287	-11.26
206.505	72.7
206.724	91.13
206.943	19.46
207.162	7.17
207.381	27.65
207.599	128
207.818	-80.89
208.037	46.08
208.255	52.22
208.474	39.94
208.693	-11.26
208.911	74.75
209.13	11.26
209.349	46.08
209.567	11.26
209.786	-15.36
210.005	148.48
210.223	35.84
210.442	33.79
210.661	-62.46
210.879	-13.31
211.098	15.36
211.316	-23.55
211.535	3.07
211.753	-27.65
211.972	27.65
212.191	84.99
212.409	23.55
212.628	95.23
212.846	33.79
213.065	-23.55
213.283	31.74
213.502	105.47
213.72	-19.46
213.938	9.22
214.157	97.28
214.375	9.22
214.594	23.55
214.812	80.89
215.031	-5.12
215.249	25.6
215.467	103.42
215.686	-5.12
215.904	95.23
216.122	44.03
216.341	78.85
216.559	-21.5
216.778	48.13
216.996	35.84
217.214	35.84
217.432	31.74
217.651	29.7
217.869	29.7
218.087	-76.8
218.306	23.55
218.524	-3.07
218.742	-31.74
218.96	56.32
219.179	25.6
219.397	74.75
219.615	29.7
219.833	68.61
220.051	-11.26
220.27	158.72
220.488	11.26
220.706	101.37
220.924	78.85
221.142	29.7
221.36	-17.41
221.578	44.03
221.796	31.74
222.015	31.74
222.233	35.84
222.451	13.31
222.669	-48.13
222.887	62.46
223.105	-23.55
223.323	-7.17
223.541	19.46
223.759	91.13
223.977	25.6
224.195	113.66
224.413	80.89
224.631	109.57
224.849	11.26
225.067	68.61
225.285	103.42
225.503	15.36
225.721	5.12
225.939	37.89
226.157	66.56
226.375	54.27
226.592	-17.41
226.81	117.76
227.028	-13.31
227.246	82.94
227.464	-39.94
227.682	74.75
227.9	21.5
228.117	48.13
228.335	19.46
228.553	103.42
228.771	41.98
228.989	5.12
229.206	-7.17
229.424	9.22
229.642	44.03
229.86	27.65
230.077	-23.55
230.295	50.18
230.513	74.75
230.731	46.08
230.948	136.19
231.166	29.7
231.384	62.46
231.601	68.61
231.819	-33.79
232.037	35.84
232.254	25.6
232.472	136.19
232.689	19.46
232.907	78.85
233.125	-23.55
233.342	66.56
233.56	5.12
233.777	62.46
233.995	13.31
234.213	62.46
234.43	9.22
234.648	-3.07
234.865	37.89
235.083	103.42
235.3	-11.26
235.518	17.41
235.735	-15.36
235.953	44.03
236.17	50.18
236.388	41.98
236.605	-39.94
236.822	138.24
237.04	37.89
237.257	29.7
237.475	27.65
237.692	-33.79
237.909	93.18
238.127	23.55
238.344	-15.36
238.562	17.41
238.779	-37.89
238.996	33.79
239.214	27.65
239.431	13.31
239.648	21.5
239.865	76.8
240.083	35.84
240.3	115.71
240.517	48.13
240.735	52.22
240.952	52.22
241.169	115.71
241.386	21.5
241.603	82.94
241.821	56.32
242.038	66.56
242.255	33.79
242.472	-29.7
242.689	76.8
242.907	3.07
243.124	46.08
243.341	52.22
243.558	-15.36
243.775	27.65
243.992	-33.79
244.209	-3.07
244.426	21.5
244.643	89.09
244.86	13.31
245.078	-9.22
245.295	-1.02
245.512	44.03
245.729	64.51
245.946	74.75
246.163	70.65
246.38	39.94
246.597	13.31
246.814	35.84
247.031	-39.94
247.248	62.46
247.464	117.76
247.681	50.18
247.898	70.65
248.115	56.32
248.332	-93.18
248.549	68.61
248.766	21.5
248.983	115.71
249.2	44.03
249.417	72.7
249.633	21.5
249.85	-27.65
250.067	33.79
250.284	-39.94
250.501	95.23
250.717	41.98
250.934	-35.84
251.151	-23.55
251.368	62.46
251.585	70.65
251.801	15.36
252.018	-19.46
252.235	80.89
252.451	21.5
252.668	41.98
252.885	-17.41
253.102	68.61
253.318	74.75
253.535	-1.02
253.752	13.31
253.968	132.09
254.185	3.07
254.401	-64.51
254.618	46.08
254.835	1.02
255.051	97.28
255.268	66.56
255.484	66.56
255.701	56.32
255.917	91.13
256.134	46.08
256.351	101.37
256.567	21.5
256.784	105.47
257	21.5
257.217	17.41
257.433	52.22
257.65	95.23
257.866	25.6
258.082	7.17
258.299	1.02
258.515	93.18
258.732	-19.46
258.948	48.13
259.165	62.46
259.381	58.37
259.597	68.61
259.814	56.32
260.03	82.94
260.246	33.79
260.463	21.5
260.679	-33.79
260.895	56.32
261.112	21.5
261.328	13.31
261.544	-29.7
261.761	87.04
261.977	46.08
262.193	74.75
262.409	78.85
262.626	41.98
262.842	58.37
263.058	-7.17
263.274	44.03
263.49	21.5
263.707	23.55
263.923	70.65
264.139	39.94
264.355	-5.12
264.571	56.32
264.787	23.55
265.004	82.94
265.22	-3.07
265.436	3.07
265.652	1.02
265.868	7.17
266.084	48.13
266.3	39.94
266.516	25.6
266.732	-17.41
266.948	-21.5
267.164	60.42
267.38	-7.17
267.596	35.84
267.812	1.02
268.028	-13.31
268.244	99.33
268.46	87.04
268.676	-7.17
268.892	17.41
269.108	-11.26
269.324	66.56
269.54	-29.7
269.756	50.18
269.972	13.31
270.188	17.41
270.403	37.89
270.619	17.41
270.835	89.09
271.051	11.26
271.267	37.89
271.483	56.32
271.698	23.55
271.914	3.07
272.13	48.13
272.346	29.7
272.562	-3.07
272.777	87.04
272.993	17.41
273.209	19.46
273.425	52.22
273.64	58.37
273.856	37.89
274.072	-5.12
274.287	-27.65
274.503	68.61
274.719	74.75
274.934	-7.17
275.15	44.03
275.366	33.79
275.581	66.56
275.797	93.18
276.012	33.79
276.228	76.8
276.444	-33.79
276.659	54.27
276.875	-11.26
277.09	93.18
277.306	95.23
277.521	39.94
277.737	70.65
277.952	-9.22
278.168	5.12
278.383	68.61
278.599	25.6
278.814	-1.02
279.03	37.89
279.245	5.12
279.461	44.03
279.676	9.22
279.892	-27.65
280.107	-39.94
280.322	19.46
280.538	62.46
280.753	3.07
280.969	41.98
281.184	35.84
281.399	70.65
281.615	-35.84
281.83	41.98
282.045	-1.02
282.26	72.7
282.476	54.27
282.691	3.07
282.906	17.41
283.122	60.42
283.337	5.12
283.552	82.94
283.767	25.6
283.983	76.8
284.198	21.5
284.413	15.36
284.628	-1.02
284.843	19.46
285.058	9.22
285.274	25.6
285.489	-50.18
285.704	91.13
285.919	103.42
286.134	62.46
286.349	23.55
286.564	11.26
286.779	-29.7
286.995	107.52
287.21	52.22
287.425	101.37
287.64	41.98
287.855	9.22
288.07	56.32
288.285	80.89
288.5	33.79
288.715	11.26
288.93	-13.31
289.145	1.02
289.36	27.65
289.575	9.22
289.79	74.75
290.004	25.6
290.219	115.71
290.434	56.32
290.649	68.61
290.864	13.31
291.079	19.46
291.294	54.27
291.509	25.6
291.724	70.65
291.938	25.6
292.153	-46.08
292.368	60.42
292.583	29.7
292.798	68.61
293.012	11.26
293.227	50.18
293.442	82.94
293.657	103.42
293.871	56.32
294.086	17.41
294.301	166.91
294.516	29.7
294.73	-1.02
294.945	54.27
295.16	58.37
295.374	115.71
295.589	9.22
295.804	-27.65
296.018	-11.26
296.233	105.47
296.447	80.89
296.662	17.41
296.877	72.7
297.091	-7.17
297.306	33.79
297.52	66.56
297.735	60.42
297.949	101.37
298.164	-17.41
298.378	66.56
298.593	-9.22
298.807	48.13
299.022	3.07
299.236	130.05
299.451	54.27
299.665	62.46
299.88	19.46
300.094	-31.74
300.309	23.55
300.523	-17.41
300.737	58.37
300.952	109.57
301.166	-15.36
301.381	136.19
301.595	46.08
301.809	46.08
302.024	84.99
302.238	9.22
302.452	117.76
302.667	89.09
302.881	111.61
303.095	-5.12
303.309	50.18
303.524	48.13
303.738	58.37
303.952	-70.65
304.166	44.03
304.381	19.46
304.595	60.42
304.809	-39.94
305.023	66.56
305.237	-3.07
305.452	115.71
305.666	13.31
305.88	95.23
306.094	29.7
306.308	84.99
306.522	-3.07
306.736	25.6
306.95	62.46
307.164	74.75
307.379	87.04
307.593	3.07
307.807	115.71
308.021	19.46
308.235	23.55
308.449	-3.07
308.663	76.8
308.877	58.37
309.091	66.56
309.305	37.89
309.519	-21.5
309.733	44.03
309.947	11.26
310.161	121.85
310.374	41.98
310.588	64.51
310.802	50.18
311.016	39.94
311.23	87.04
311.444	121.85
311.658	97.28
311.872	76.8
312.085	37.89
312.299	-54.27
312.513	111.61
312.727	68.61
312.941	3.07
313.154	-1.02
313.368	19.46
313.582	70.65
313.796	-23.55
314.009	35.84
314.223	25.6
314.437	-15.36
314.651	91.13
314.864	5.12
315.078	5.12
315.292	11.26
315.505	48.13
315.719	23.55
315.933	27.65
316.146	93.18
316.36	70.65
316.573	13.31
316.787	29.7
317.001	-23.55
317.214	-3.07
317.428	50.18
317.641	50.18
317.855	-35.84
318.068	19.46
318.282	-11.26
318.495	70.65
318.709	1.02
318.922	99.33
319.136	1.02
319.349	5.12
319.563	41.98
319.776	17.41
319.99	-64.51
320.203	5.12
320.417	31.74
320.63	44.03
320.843	72.7
321.057	60.42
321.27	97.28
321.483	35.84
321.697	48.13
321.91	23.55
322.124	66.56
322.337	105.47
322.55	37.89
322.763	37.89
322.977	-7.17
323.19	11.26
323.403	25.6
323.617	-7.17
323.83	103.42
324.043	50.18
324.256	74.75
324.469	-68.61
324.683	-17.41
324.896	103.42
325.109	37.89
325.322	29.7
325.535	76.8
325.748	41.98
325.962	1.02
326.175	78.85
326.388	-1.02
326.601	23.55
326.814	35.84
327.027	15.36
327.24	27.65
327.453	-44.03
327.666	89.09
327.879	48.13
328.092	37.89
328.305	54.27
328.518	78.85
328.731	-1.02
328.944	64.51
329.157	11.26
329.37	23.55
329.583	17.41
329.796	74.75
330.009	56.32
330.222	5.12
330.435	95.23
330.648	-13.31
330.861	97.28
331.073	-13.31
331.286	48.13
331.499	54.27
331.712	58.37
331.925	87.04
332.138	37.89
332.35	-13.31
332.563	-19.46
332.776	23.55
332.989	39.94
333.202	25.6
333.414	19.46
333.627	25.6
333.84	-31.74
334.053	107.52
334.265	7.17
334.478	-3.07
334.691	46.08
334.903	58.37
335.116	70.65
335.329	76.8
335.541	19.46
335.754	48.13
335.966	-41.98
336.179	123.9
336.392	68.61
336.604	46.08
336.817	13.31
337.029	31.74
337.242	78.85
337.454	72.7
337.667	13.31
337.88	76.8
338.092	117.76
338.305	78.85
338.517	-7.17
338.729	7.17
338.942	177.15
339.154	31.74
339.367	-9.22
339.579	41.98
339.792	-31.74
340.004	44.03
340.217	58.37
340.429	80.89
340.641	-33.79
340.854	93.18
341.066	44.03
341.278	-7.17
341.491	101.37
341.703	33.79
341.915	46.08
342.128	21.5
342.34	29.7
342.552	15.36
342.764	103.42
342.977	64.51
343.189	89.09
343.401	121.85
343.613	-31.74
343.826	70.65
344.038	80.89
344.25	-15.36
344.462	99.33
344.674	1.02
344.886	52.22
345.099	121.85
345.311	-7.17
345.523	23.55
345.735	136.19
345.947	3.07
346.159	37.89
346.371	17.41
346.583	3.07
346.795	33.79
347.007	37.89
347.219	11.26
347.431	39.94
347.643	70.65
347.855	9.22
348.067	76.8
348.279	27.65
348.491	-39.94
348.703	15.36
348.915	46.08
349.127	9.22
349.339	31.74
349.551	82.94
349.763	-17.41
349.975	76.8
350.187	93.18
350.399	101.37
350.61	-7.17
350.822	80.89
351.034	33.79
351.246	25.6
351.458	72.7
351.669	46.08
351.881	84.99
352.093	5.12
352.305	76.8
352.517	3.07
352.728	44.03
352.94	25.6
353.152	66.56
353.363	29.7
353.575	-15.36
353.787	54.27
353.999	-9.22
354.21	82.94
354.422	119.81
354.633	29.7
354.845	62.46
355.057	25.6
355.268	-33.79
355.48	31.74
355.692	54.27
355.903	-7.17
356.115	66.56
356.326	89.09
356.538	76.8
356.749	97.28
356.961	17.41
357.172	46.08
357.384	64.51
357.595	84.99
357.807	-23.55
358.018	13.31
358.23	93.18
358.441	46.08
358.653	15.36
358.864	74.75
359.075	80.89
359.287	103.42
359.498	37.89
359.709	11.26
359.921	19.46
360.132	74.75
360.344	115.71
360.555	9.22
360.766	-1.02
360.977	68.61
361.189	60.42
361.4	35.84
361.611	50.18
361.823	37.89
362.034	39.94
362.245	48.13
362.456	11.26
362.667	93.18
362.879	64.51
363.09	39.94
363.301	-19.46
363.512	21.5
363.723	58.37
363.935	-1.02
364.146	5.12
364.357	52.22
364.568	21.5
364.779	-37.89
364.99	89.09
365.201	46.08
365.412	103.42
365.623	3.07
365.834	78.85
366.045	130.05
366.256	87.04
366.467	44.03
366.678	17.41
366.889	50.18
367.1	15.36
367.311	39.94
367.522	13.31
367.733	80.89
367.944	84.99
368.155	62.46
368.366	25.6
368.577	72.7
368.788	84.99
368.999	5.12
369.209	76.8
369.42	48.13
369.631	113.66
369.842	19.46
370.053	76.8
370.264	11.26
370.474	44.03
370.685	-19.46
370.896	76.8
371.107	64.51
371.317	56.32
371.528	91.13
371.739	27.65
371.95	5.12
372.16	15.36
372.371	29.7
372.582	119.81
372.792	52.22
373.003	115.71
373.214	103.42
373.424	52.22
373.635	29.7
373.846	46.08
374.056	66.56
374.267	115.71
374.477	-11.26
374.688	74.75
374.898	58.37
375.109	68.61
375.319	5.12
375.53	109.57
375.74	89.09
375.951	80.89
376.161	91.13
376.372	78.85
376.582	68.61
376.793	37.89
377.003	93.18
377.214	70.65
377.424	74.75
377.635	13.31
377.845	46.08
378.055	66.56
378.266	68.61
378.476	-11.26
378.686	17.41
378.897	50.18
379.107	56.32
379.317	76.8
379.528	95.23
379.738	117.76
379.948	46.08
380.158	27.65
380.369	93.18
380.579	82.94
380.789	9.22
380.999	50.18
381.21	23.55
381.42	84.99
381.63	99.33
381.84	50.18
382.05	44.03
382.261	109.57
382.471	101.37
382.681	41.98
382.891	93.18
383.101	29.7
383.311	-11.26
383.521	-5.12
383.731	74.75
383.941	62.46
384.151	50.18
384.361	115.71
384.571	93.18
384.781	74.75
384.991	50.18
385.201	115.71
385.411	52.22
385.621	128
385.831	37.89
386.041	39.94
386.251	70.65
386.461	132.09
386.671	1.02
386.881	25.6
387.091	5.12
387.301	-23.55
387.511	21.5
387.72	1.02
387.93	33.79
388.14	35.84
388.35	21.5
388.56	156.67
388.769	95.23
388.979	95.23
389.189	46.08
389.399	121.85
389.609	44.03
389.818	128
390.028	91.13
390.238	105.47
390.447	7.17
390.657	56.32
390.867	117.76
391.076	11.26
391.286	3.07
391.496	44.03
391.705	54.27
391.915	93.18
392.125	89.09
392.334	56.32
392.544	103.42
392.753	54.27
392.963	74.75
393.172	80.89
393.382	-1.02
393.591	13.31
393.801	68.61
394.01	111.61
394.22	37.89
394.429	64.51
394.639	39.94
394.848	52.22
395.058	64.51
395.267	9.22
395.477	144.38
395.686	13.31
395.895	95.23
396.105	123.9
396.314	111.61
396.524	154.62
396.733	74.75
396.942	115.71
397.152	107.52
397.361	132.09
397.57	33.79
397.78	101.37
397.989	123.9
398.198	37.89
398.407	113.66
398.617	97.28
398.826	136.19
399.035	115.71
399.244	84.99
399.453	105.47
399.663	76.8
399.872	119.81
400.081	56.32
400.29	199.68
400.499	60.42
400.708	76.8
400.917	97.28
401.127	27.65
401.336	99.33
401.545	58.37
401.754	132.09
401.963	152.57
402.172	62.46
402.381	113.66
402.59	164.86
402.799	76.8
403.008	103.42
403.217	158.72
403.426	103.42
403.635	80.89
403.844	66.56
404.053	68.61
404.262	117.76
404.471	136.19
404.68	152.57
404.888	185.34
405.097	123.9
405.306	160.77
405.515	128
405.724	109.57
405.933	117.76
406.142	209.92
406.35	119.81
406.559	183.29
406.768	146.43
406.977	199.68
407.185	109.57
407.394	185.34
407.603	168.96
407.812	177.15
408.02	259.07
408.229	140.29
408.438	205.82
408.646	154.62
408.855	171.01
409.064	261.12
409.272	238.59
409.481	205.82
409.69	261.12
409.898	201.72
410.107	275.45
410.315	287.74
410.524	300.03
410.733	242.68
410.941	332.79
411.15	267.26
411.358	353.27
411.567	297.98
411.775	304.12
411.984	328.7
412.192	287.74
412.401	302.08
412.609	353.27
412.818	347.13
413.026	408.57
413.234	338.94
413.443	345.08
413.651	437.24
413.86	457.72
414.068	578.55
414.276	463.86
414.485	498.68
414.693	506.87
414.901	535.54
415.11	545.78
415.318	517.11
415.526	596.98
415.734	556.02
415.943	590.84
416.151	621.56
416.359	697.33
416.567	648.18
416.776	650.23
416.984	785.4
417.192	746.48
417.4	852.98
417.608	879.6
417.817	807.92
418.025	836.6
418.233	979.95
418.441	916.47
418.649	975.86
418.857	988.14
419.065	1022.96
419.273	1102.83
419.481	1123.31
419.689	1080.3
419.897	1149.93
420.105	1102.83
420.313	1262.57
420.521	1356.78
420.729	1317.87
420.937	1358.83
421.145	1321.96
421.353	1434.6
421.561	1369.07
421.769	1596.39
421.977	1616.87
422.185	1520.62
422.393	1811.43
422.601	1807.33
422.809	1821.67
423.017	1758.18
423.224	1815.52
423.432	1862.63
423.64	1983.46
423.848	2069.47
424.056	2071.52
424.263	2231.26
424.471	2257.89
424.679	2259.93
424.887	2438.11
425.094	2644.95
425.302	2393.05
425.51	2653.14
425.718	2651.1
425.925	2657.24
426.133	2808.79
426.341	2954.19
426.548	2999.25
426.756	3118.03
426.964	3138.51
427.171	3285.97
427.379	3402.7
427.586	3451.85
427.794	3441.61
428.001	3738.57
428.209	3918.79
428.417	3658.7
428.624	3965.89
428.832	3945.41
429.039	3949.51
429.247	4172.74
429.454	4246.46
429.662	4551.61
429.869	4506.56
430.076	4826.04
430.284	4484.03
430.491	4703.16
430.699	5026.74
430.906	4944.82
431.114	5172.15
431.321	5436.33
431.528	5346.22
431.736	5628.84
431.943	6196.13
432.15	5716.9
432.358	5788.58
432.565	6181.79
432.772	6253.47
432.979	6437.79
433.187	6536.09
433.394	6701.98
433.601	7103.38
433.808	7058.32
434.016	6865.82
434.223	7285.65
434.43	7691.15
434.637	7652.24
434.844	8311.68
435.052	8186.76
435.259	8467.33
435.466	8256.39
435.673	7979.91
435.88	8713.08
436.087	9225.08
436.294	9145.2
436.501	9083.77
436.708	9278.32
436.915	9415.54
437.122	9796.46
437.329	9872.23
437.537	10312.55
437.743	10308.45
437.95	10232.68
438.157	10713.95
438.364	11080.53
438.571	11080.53
438.778	11311.96
438.985	12278.6
439.192	11701.07
439.399	12237.64
439.606	11959.11
439.813	12534.59
440.02	13159.22
440.227	13026.11
440.433	13017.91
440.64	13425.46
440.847	13169.46
441.054	13886.25
441.261	14557.99
441.467	14345
441.674	14826.27
441.881	15319.83
442.088	15168.28
442.294	15088.41
442.501	15409.94
442.708	15848.21
442.914	16421.64
443.121	16859.9
443.328	16427.78
443.534	17871.6
443.741	17163
443.948	16861.95
444.154	17996.53
444.361	18201.32
444.568	18025.2
444.774	18043.63
444.981	18688.74
445.187	19043.04
445.394	19866.32
445.6	19419.86
445.807	21177.02
446.013	20443.85
446.22	20886.21
446.426	21541.56
446.633	21979.82
446.839	22346.41
447.046	21469.88
447.252	22551.21
447.459	22985.38
447.665	22592.17
447.871	23495.32
448.078	24341.13
448.284	23577.24
448.491	24195.73
448.697	25041.54
448.903	25361.02
449.11	25500.28
449.316	25113.22
449.522	25377.4
449.728	26376.81
449.935	26325.61
450.141	25930.36
450.347	26868.33
450.553	26227.31
450.76	26323.57
450.966	27390.56
451.172	26794.6
451.378	27466.33
451.584	27208.29
451.791	27550.3
451.997	27630.17
452.203	28062.29
452.409	27814.49
452.615	27687.51
452.821	26587.75
453.027	26624.62
453.233	27976.28
453.44	26761.83
453.646	27226.72
453.852	27142.75
454.058	27357.79
454.264	26690.15
454.47	27050.6
454.676	26655.34
454.882	27249.25
455.088	25275.01
455.294	25029.25
455.5	25864.82
455.705	25639.54
455.911	24722.05
456.117	24351.37
456.323	24052.37
456.529	22809.25
456.735	23710.36
456.941	23093.92
457.147	22526.63
457.352	22131.37
457.558	21809.84
457.764	21807.8
457.97	21449.4
458.176	20789.95
458.381	21029.57
458.587	19720.92
458.793	19866.32
458.999	19075.8
459.204	20320.97
459.41	19757.78
459.616	18137.84
459.821	18318.06
460.027	18506.47
460.233	17883.89
460.438	16993.02
460.644	17257.21
460.85	16362.25
461.055	16098.06
461.261	16022.28
461.466	14824.22
461.672	14519.07
461.878	15620.88
462.083	14439.2
462.289	14273.32
462.494	14074.67
462.7	13591.34
462.905	12882.75
463.111	13587.25
463.316	13458.23
463.522	13144.89
463.727	13464.37
463.932	13423.41
464.138	13265.72
464.343	13339.44
464.549	12866.36
464.754	13433.65
464.959	13296.44
465.165	13103.93
465.37	12542.78
465.575	12122.95
465.781	12639.04
465.986	13005.63
466.191	12436.29
466.397	12256.07
466.602	11357.01
466.807	12219.21
467.012	12020.55
467.218	12059.46
467.423	11588.43
467.628	11914.06
467.833	12348.23
468.038	11881.29
468.244	11641.68
468.449	11975.5
468.654	11615.05
468.859	11535.18
469.064	11545.42
469.269	11193.17
469.474	11205.46
469.679	11365.2
469.885	11006.81
470.09	11090.77
470.295	11060.06
470.5	10646.37
470.705	11023.19
470.91	10548.06
471.115	10416.99
471.32	10603.36
471.525	10629.98
471.73	10220.39
471.935	10337.12
472.139	9909.1
472.344	10081.13
472.549	10017.64
472.754	9937.77
472.959	9479.02
473.164	9386.86
473.369	9341.81
473.574	9839.47
473.778	9558.89
473.983	9524.08
474.188	9411.44
474.393	9177.97
474.598	9237.36
474.802	9055.09
475.007	8948.6
475.212	8893.3
475.417	8731.51
475.621	8692.6
475.826	8833.91
476.031	8461.18
476.235	8301.44
476.44	8389.5
476.645	8235.91
476.849	8342.4
477.054	8231.81
477.259	8070.02
477.463	8057.73
477.668	7754.63
477.872	7914.38
478.077	7850.89
478.282	7642
478.486	7637.9
478.691	7457.68
478.895	7541.64
479.1	7592.84
479.304	7445.39
479.509	7453.58
479.713	7482.25
479.918	7412.62
480.122	7304.08
480.326	7291.79
480.531	7246.74
480.735	7326.61
480.94	7203.73
481.144	7418.77
481.348	6908.82
481.553	7084.95
481.757	6941.59
481.961	7033.75
482.166	7033.75
482.37	7158.67
482.574	6775.7
482.778	6990.74
482.983	7158.67
483.187	7029.65
483.391	7013.27
483.595	6779.8
483.8	6933.4
484.004	7015.32
484.208	7025.56
484.412	6925.21
484.616	6988.69
484.821	6931.35
485.025	6931.35
485.229	7013.27
485.433	6955.93
485.637	7080.85
485.841	6853.53
486.045	6902.68
486.249	7127.96
486.453	7007.13
486.657	6900.63
486.861	7068.56
487.065	6962.07
487.269	6744.99
487.473	6773.66
487.677	6955.93
487.881	6902.68
488.085	6861.72
488.289	7076.76
488.493	6837.14
488.697	6996.89
488.901	7154.58
489.105	7095.19
489.309	7046.04
489.512	6984.6
489.716	7076.76
489.92	7015.32
490.124	7078.8
490.328	7087
490.531	7142.29
490.735	7054.23
490.939	7146.39
491.143	7250.83
491.346	7093.14
491.55	7275.41
491.754	7244.69
491.958	7299.98
492.161	7265.17
492.365	7295.89
492.569	7220.11
492.772	7355.28
492.976	7494.54
493.18	7472.01
493.383	7613.32
493.587	7607.18
493.79	7594.89
493.994	7654.28
494.197	7566.22
494.401	7832.46
494.605	7879.56
494.808	7877.51
495.012	7865.22
495.215	7793.55
495.419	7897.99
495.622	7992.2
495.825	8086.4
496.029	8221.57
496.232	8156.04
496.436	8123.27
496.639	8516.48
496.843	8264.58
497.046	8590.2
497.249	8780.67
497.453	8534.91
497.656	8850.3
497.859	8721.27
498.063	8835.96
498.266	9157.49
498.469	8885.11
498.673	9177.97
498.876	9317.23
499.079	9319.28
499.282	9304.95
499.485	9847.66
499.689	9483.12
499.892	9802.6
500.095	9722.73
500.298	10042.21
500.501	9685.87
500.705	10144.61
500.908	10232.68
501.111	10421.09
501.314	10564.45
501.517	10605.41
501.72	10767.2
501.923	10566.49
502.126	10877.79
502.329	11084.63
502.532	11148.12
502.735	11178.84
502.938	11373.39
503.141	11285.33
503.344	11438.93
503.547	11524.94
503.75	11854.67
503.953	11973.45
504.156	12307.27
504.359	12151.62
504.562	12170.05
504.765	12497.73
504.968	12510.02
505.17	12757.82
505.373	12725.05
505.576	12962.62
505.779	13054.78
505.982	13005.63
506.185	13548.34
506.387	13552.43
506.59	13665.07
506.793	13937.45
506.996	13806.38
507.198	14285.61
507.401	14050.09
507.604	14377.76
507.807	14400.29
508.009	14652.19
508.212	14707.49
508.415	14883.61
508.617	14881.56
508.82	15307.54
509.022	15168.28
509.225	15541.01
509.428	15754
509.63	15907.6
509.833	15874.83
510.035	16360.2
510.238	16171.79
510.44	16577.28
510.643	16427.78
510.845	16571.14
511.048	16335.62
511.25	16859.9
511.453	16878.33
511.655	17668.85
511.858	17378.04
512.06	17335.03
512.262	18066.16
512.465	17969.9
512.667	18238.19
512.87	18193.13
513.072	18297.58
513.274	18965.21
513.477	18797.28
513.679	18674.4
513.881	19098.33
514.084	19387.1
514.286	19245.79
514.488	19520.21
514.69	20007.63
514.893	19956.43
515.095	20288.2
515.297	20277.96
515.499	20673.22
515.701	20896.45
515.904	20966.08
516.106	21037.76
516.308	21416.63
516.51	21267.13
516.712	21625.53
516.914	21547.7
517.116	22196.91
517.318	22016.69
517.52	21961.39
517.722	22383.27
517.925	22758.05
518.127	22952.61
518.329	23050.91
518.531	22899.36
518.733	23569.05
518.935	23507.61
519.136	23657.11
519.338	23771.8
519.54	23816.85
519.742	24203.92
519.944	24443.53
520.146	24867.46
520.348	24828.55
520.55	24961.67
520.752	24988.29
520.954	25610.87
521.155	25305.73
521.357	25690.74
521.559	25866.87
521.761	26817.13
521.963	26282.61
522.164	26454.64
522.366	26604.14
522.568	26815.08
522.77	26806.89
522.971	27630.17
523.173	27114.08
523.375	27542.11
523.576	27226.72
523.778	27398.75
523.98	27834.97
524.181	28045.91
524.383	28146.26
524.584	28353.1
524.786	28539.47
524.988	28076.63
525.189	28521.04
525.391	28545.61
525.592	29114.95
525.794	29248.07
525.995	28914.25
526.197	29317.7
526.398	29301.31
526.6	29575.74
526.801	29565.5
527.003	29782.59
527.204	29700.67
527.406	30089.78
527.607	29977.14
527.808	30253.62
528.01	29682.24
528.211	30100.02
528.412	30777.9
528.614	30407.22
528.815	30460.46
529.016	30898.73
529.218	30411.31
529.419	30943.78
529.62	30685.74
529.822	30779.95
530.023	30968.36
530.224	31078.95
530.425	30777.9
530.626	30677.55
530.828	30429.74
531.029	31636
531.23	31076.9
531.431	30743.08
531.632	31167.01
531.833	31099.43
532.035	31330.85
532.236	31238.69
532.437	31246.88
532.638	31072.81
532.839	31664.67
533.04	31533.6
533.241	31427.1
533.442	31810.07
533.643	31359.52
533.844	31259.17
534.045	31742.49
534.246	30984.74
534.447	31640.09
534.648	31300.13
534.849	31820.31
535.05	31328.8
535.251	31511.07
535.451	31486.5
535.652	31371.81
535.853	31824.41
536.054	31916.57
536.255	31613.47
536.456	31171.11
536.657	31848.99
536.857	31402.53
537.058	31494.69
537.259	31922.71
537.46	31509.02
537.66	31777.31
537.861	31636
538.062	31394.34
538.263	31916.57
538.463	31746.59
538.664	31363.62
538.865	31554.08
539.065	31427.1
539.266	31730.2
539.466	31869.47
539.667	31074.85
539.868	31664.67
540.068	31351.33
540.269	31230.5
540.469	31752.73
540.67	31609.37
540.87	31582.75
541.071	31287.84
541.271	31517.22
541.472	31713.82
541.672	31554.08
541.873	31443.49
542.073	31037.99
542.274	31547.93
542.474	31533.6
542.675	31562.27
542.875	31648.29
543.075	31359.52
543.276	30990.89
543.476	31732.25
543.676	31214.12
543.877	31810.07
544.077	31377.95
544.277	31396.38
544.478	31201.83
544.678	31750.68
544.878	31214.12
545.078	31203.88
545.279	31304.23
545.479	31228.45
545.679	31478.3
545.879	31205.92
546.079	31025.7
546.28	31314.47
546.48	31226.4
546.68	31353.38
546.88	31167.01
547.08	31222.31
547.28	31005.22
547.48	31259.17
547.68	31513.12
547.88	30911.02
548.081	31277.6
548.281	31169.06
548.481	31316.51
548.681	31226.4
548.881	31136.29
549.081	31060.52
549.28	31064.61
549.48	31314.47
549.68	30804.52
549.88	31183.4
550.08	30863.91
550.28	31261.22
550.48	31138.34
550.68	31228.45
550.88	31103.53
551.08	30638.64
551.279	30937.64
551.479	30788.14
551.679	30933.54
551.879	30886.44
552.079	31244.84
552.278	30884.39
552.478	30929.45
552.678	30882.34
552.878	30902.82
553.077	30929.45
553.277	30485.04
553.477	30892.58
553.676	30863.91
553.876	31089.19
554.076	30253.62
554.275	30636.59
554.475	30325.3
554.674	30956.07
554.874	30884.39
555.074	30587.44
555.273	30634.54
555.473	30798.38
555.672	30513.71
555.872	30380.59
556.071	30913.06
556.271	30747.18
556.47	30685.74
556.67	29995.57
556.869	30284.34
557.068	30472.75
557.268	30198.32
557.467	30353.97
557.667	30267.95
557.866	30151.22
558.065	30212.66
558.265	29952.57
558.464	29844.02
558.663	30243.38
558.863	29817.4
559.062	30155.32
559.261	29571.64
559.461	29927.99
559.66	29762.11
559.859	29940.28
560.058	29624.89
560.258	29948.47
560.457	29196.87
560.656	29768.25
560.855	29260.35
561.054	29631.04
561.253	29596.22
561.453	29602.36
561.652	29717.05
561.851	29368.9
562.05	29286.98
562.249	29184.58
562.448	29305.41
562.647	29194.82
562.846	28838.47
563.045	29223.49
563.244	29057.6
563.443	29262.4
563.642	28750.41
563.841	28920.39
564.04	28938.82
564.239	28996.17
564.438	28924.49
564.637	28643.91
564.836	28774.98
565.035	28392.01
565.234	28691.02
565.432	28222.03
565.631	28168.79
565.83	28469.84
566.029	28123.73
566.228	28277.33
566.427	27974.23
566.625	27910.74
566.824	27857.49
567.023	27974.23
567.222	27822.68
567.42	27816.54
567.619	28179.03
567.818	27867.73
568.016	27671.13
568.215	27941.46
568.414	27484.76
568.612	27830.87
568.811	27660.89
569.01	27744.86
569.208	27069.03
569.407	27345.5
569.605	26962.53
569.804	27419.23
570.002	27130.47
570.201	27388.51
570.4	26796.65
570.598	26821.22
570.797	26518.12
570.995	26970.72
571.193	26737.26
571.392	26927.72
571.59	26514.03
571.789	26593.9
571.987	26143.35
572.186	26368.62
572.384	26194.54
572.582	26411.63
572.781	26401.39
572.979	25825.91
573.177	26030.71
573.376	26032.75
573.574	25987.7
573.772	26313.33
573.971	25787
574.169	25825.91
574.367	25684.6
574.565	25678.46
574.763	25729.66
574.962	25731.7
575.16	25207.42
575.358	25500.28
575.556	24894.08
575.754	25406.08
575.952	25014.91
576.151	25606.78
576.349	25135.74
576.547	24973.95
576.745	25051.78
576.943	25049.73
577.141	24738.44
577.339	24853.12
577.537	24775.3
577.735	24783.49
577.933	24572.55
578.131	24633.99
578.329	24314.51
578.527	24607.37
578.725	24201.87
578.923	24685.19
579.121	24191.63
579.319	24339.08
579.516	24302.22
579.714	24304.27
579.912	23800.47
580.11	24015.51
580.308	24056.46
580.506	24074.9
580.704	23632.54
580.901	23732.89
581.099	23878.29
581.297	23315.1
581.495	23265.95
581.692	23540.38
581.89	23573.14
582.088	23128.74
582.285	23534.23
582.483	23530.14
582.681	23325.34
582.878	23179.93
583.076	23118.5
583.274	23128.74
583.471	22723.24
583.669	22975.14
583.866	22852.26
584.064	22821.54
584.262	22399.66
584.459	22901.41
584.657	22450.86
584.854	22504.1
585.052	22315.69
585.249	22387.37
585.447	22631.08
585.644	22264.49
585.841	22219.44
586.039	22397.61
586.236	21951.15
586.434	21908.15
586.631	22047.41
586.828	21953.2
587.026	21764.79
587.223	22135.47
587.42	21695.16
587.618	21932.72
587.815	21482.17
588.012	21709.49
588.21	21476.02
588.407	21584.57
588.604	21420.73
588.801	21156.54
588.999	21322.43
589.196	21142.21
589.393	21119.68
589.59	21275.32
589.787	21103.29
589.984	21027.52
590.182	20730.56
590.379	21181.12
590.576	20662.98
590.773	20875.97
590.97	20697.8
591.167	20683.46
591.364	20503.24
591.561	20542.15
591.758	20175.56
591.955	20435.66
592.152	20456.14
592.349	20501.19
592.546	20267.72
592.743	20335.31
592.94	20017.87
593.137	20175.56
593.334	20093.65
593.531	20116.17
593.727	20058.83
593.924	20118.22
594.121	19792.59
594.318	19944.14
594.515	19458.78
594.712	19737.3
594.908	19567.32
595.105	19600.08
595.302	19309.27
595.499	19567.32
595.696	19305.18
595.892	19139.29
596.089	19552.98
596.286	19198.68
596.482	19245.79
596.679	18854.62
596.876	19188.44
597.072	18731.75
597.269	18860.77
597.466	19020.51
597.662	19092.19
597.859	18621.16
598.055	18741.99
598.252	18531.05
598.448	18492.13
598.645	18563.81
598.841	18273
599.038	18506.47
599.234	18483.94
599.431	18322.15
599.627	18246.38
599.824	18242.28
600.02	18481.89
600.217	18123.5
600.413	18168.55
600.609	17771.25
600.806	18045.68
601.002	17840.88
601.198	17902.32
601.395	17713.91
601.591	18064.11
601.787	17822.45
601.984	17500.92
602.18	17644.27
602.376	17478.39
602.572	17464.05
602.769	17337.08
602.965	17457.91
603.161	17332.98
603.357	17388.28
603.553	17212.15
603.75	17269.5
603.946	16974.59
604.142	17330.94
604.338	16800.51
604.534	17175.29
604.73	16544.52
604.926	16888.57
605.122	16857.85
605.318	16864
605.514	16532.23
605.71	16431.88
605.906	16530.18
606.102	16648.96
606.298	16374.53
606.494	16401.16
606.69	16528.13
606.886	16720.64
607.082	16343.81
607.278	16485.12
607.474	16276.23
607.67	16147.21
607.866	16157.45
608.062	16114.44
608.257	16143.11
608.453	16182.03
608.649	16188.17
608.845	15610.64
609.041	15903.5
609.236	15608.59
609.432	15520.53
609.628	16157.45
609.824	16003.85
610.019	15829.77
610.215	15768.34
610.411	15909.65
610.606	15561.49
610.802	15649.55
610.998	15471.38
611.193	15592.21
611.389	15551.25
611.584	15790.86
611.78	15575.83
611.976	15520.53
612.171	15375.13
612.367	15356.69
612.562	15514.39
612.758	14820.13
612.953	14994.2
613.149	15387.41
613.344	15223.58
613.539	15184.66
613.735	15018.78
613.93	15153.94
614.126	14961.44
614.321	15301.4
614.517	15018.78
614.712	14961.44
614.907	15072.03
615.103	15047.45
615.298	14920.48
615.493	15059.74
615.688	15002.4
615.884	15051.55
616.079	14846.75
616.274	14727.97
616.47	14908.19
616.665	14961.44
616.86	14654.24
617.055	14697.25
617.25	14560.03
617.445	14789.41
617.641	14660.38
617.836	14707.49
618.031	14326.57
618.226	14451.49
618.421	14441.25
618.616	14361.38
618.811	14457.64
619.006	14596.9
619.201	14205.74
619.396	14228.26
619.591	13994.79
619.786	14222.12
619.981	13859.63
620.176	13914.92
620.371	13806.38
620.566	14074.67
620.761	13853.48
620.956	13947.69
621.151	13523.76
621.346	13628.21
621.541	13404.98
621.735	13779.76
621.93	13447.99
622.125	13493.04
622.32	13196.09
622.515	13144.89
622.709	13290.29
622.904	13130.55
623.099	13060.92
623.294	13085.5
623.488	12673.85
623.683	12921.66
623.878	12663.61
624.072	12874.56
624.267	12792.64
624.462	12653.37
624.656	12342.08
624.851	12659.52
625.046	12407.62
625.24	12383.04
625.435	12057.42
625.629	12165.96
625.824	12004.17
626.018	12274.5
626.213	11828.04
626.407	11948.87
626.602	11819.85
626.796	11864.91
626.991	11754.32
627.185	11793.23
627.38	11553.62
627.574	11590.48
627.768	11529.04
627.963	11473.74
628.157	11422.55
628.352	11414.35
628.546	11289.43
628.74	11148.12
628.935	10935.13
629.129	11187.03
629.323	10976.09
629.517	10935.13
629.712	10881.88
629.906	10959.7
630.1	10738.52
630.294	10869.59
630.489	10746.72
630.683	10791.77
630.877	10523.49
631.071	10492.77
631.265	10634.08
631.459	10339.17
631.653	10537.82
631.848	10238.82
632.042	10156.9
632.236	10204
632.43	10058.6
632.624	10156.9
632.818	10070.89
633.012	10015.59
633.206	10052.45
633.4	9722.73
633.594	9802.6
633.788	9786.22
633.982	9868.14
634.176	9755.5
634.369	9630.57
634.563	9509.74
634.757	9401.2
634.951	9442.16
635.145	9544.56
635.339	9513.84
635.533	9370.48
635.726	9327.47
635.92	9278.32
636.114	9143.16
636.308	9122.68
636.501	9122.68
636.695	9036.66
636.889	8868.73
637.083	9028.47
637.276	8854.39
637.47	8975.22
637.664	8768.38
637.857	8848.25
638.051	8790.91
638.244	8553.34
638.438	8809.34
638.632	8610.68
638.825	8641.4
639.019	8307.59
639.212	8524.67
639.406	8459.13
639.599	8498.05
639.793	8477.57
639.986	8219.52
640.18	8156.04
640.373	8244.1
640.567	8196.99
640.76	8086.4
640.954	7973.77
641.147	7818.12
641.34	7932.81
641.534	7799.69
641.727	7981.96
641.92	7836.55
642.114	7846.79
642.307	7818.12
642.5	7654.28
642.694	7492.49
642.887	7650.19
643.08	7662.48
643.273	7494.54
643.467	7594.89
643.66	7433.1
643.853	7584.65
644.046	7332.75
644.239	7512.97
644.432	7259.03
644.626	7205.78
644.819	7146.39
645.012	7250.83
645.205	7207.83
645.398	7041.94
645.591	7076.76
645.784	7095.19
645.977	7058.32
646.17	7197.59
646.363	6955.93
646.556	6847.38
646.749	7013.27
646.942	6970.26
647.135	6853.53
647.328	6939.54
647.521	6814.62
647.714	6644.63
647.907	6747.03
648.099	6554.52
648.292	6677.4
648.485	6572.96
648.678	6519.71
648.871	6669.21
649.064	6523.8
649.256	6394.78
649.449	6298.53
649.642	6273.95
649.835	6187.94
650.027	6149.03
650.22	6177.7
650.413	6237.09
650.605	6058.92
650.798	6267.81
650.991	6081.44
651.183	6013.86
651.376	6114.21
651.568	6083.49
651.761	5956.52
651.954	5909.41
652.146	5942.18
652.339	5876.65
652.531	5792.68
652.724	5747.62
652.916	5741.48
653.109	5788.58
653.301	5737.38
653.494	5624.75
653.686	5690.28
653.879	5784.49
654.071	5759.91
654.263	5510.06
654.456	5632.94
654.648	5546.92
654.84	5575.59
655.033	5440.43
655.225	5510.06
655.417	5368.75
655.61	5465
655.802	5444.52
655.994	5147.57
656.186	5426.09
656.379	5301.17
656.571	5372.85
656.763	5309.36
656.955	5288.88
657.148	5178.29
657.34	5166
657.532	5065.65
657.724	5002.16
657.916	5082.03
658.108	5141.43
658.3	5059.51
658.492	5092.27
658.684	4973.49
658.876	4907.96
659.068	4916.15
659.26	4803.51
659.452	4746.17
659.644	4918.2
659.836	4895.67
660.028	4821.94
660.22	4834.23
660.412	4643.77
660.604	4803.51
660.796	4699.06
660.988	4711.35
661.18	4635.58
661.372	4475.84
661.563	4680.63
661.755	4506.56
661.947	4486.08
662.139	4393.92
662.331	4529.08
662.522	4533.18
662.714	4309.95
662.906	4338.62
663.097	4477.88
663.289	4287.42
663.481	4438.97
663.673	4283.33
663.864	4320.19
664.056	4068.29
664.247	4322.24
664.439	4182.98
664.631	4264.89
664.822	4205.5
665.014	4096.96
665.205	4223.94
665.397	4035.52
665.588	4121.54
665.78	4260.8
665.971	4115.39
666.163	4092.87
666.354	4125.63
666.546	4021.19
666.737	4031.43
666.929	4137.92
667.12	4023.23
667.311	3969.99
667.503	3933.12
667.694	4053.95
667.885	3865.54
668.077	3920.84
668.268	3875.78
668.459	3873.73
668.651	3892.16
668.842	3765.19
669.033	3738.57
669.224	3863.49
669.416	3924.93
669.607	3826.63
669.798	3668.94
669.989	3789.77
670.18	3742.66
670.371	3556.3
670.563	3587.02
670.754	3603.4
670.945	3515.34
671.136	3521.48
671.327	3601.35
671.518	3548.11
671.709	3541.96
671.9	3568.59
672.091	3574.73
672.282	3435.47
672.473	3494.86
672.664	3443.66
672.855	3449.8
673.046	3404.75
673.237	3437.52
673.428	3394.51
673.619	3410.89
673.809	3331.02
674	3343.31
674.191	3451.85
674.382	3322.83
674.573	3355.6
674.764	3310.54
674.954	3290.06
675.145	3437.52
675.336	3222.48
675.527	3195.86
675.717	3271.63
675.908	3185.62
676.099	3240.91
676.289	3228.62
676.48	3208.14
676.671	3204.05
676.861	3257.29
677.052	3113.94
677.243	3187.66
677.433	3099.6
677.624	3175.38
677.814	3140.56
678.005	3136.46
678.195	3077.07
678.386	3120.08
678.576	2952.15
678.767	2970.58
678.957	3068.88
679.148	3099.6
679.338	3019.73
679.529	3062.74
679.719	2964.43
679.909	3044.31
680.1	2857.94
680.29	2950.1
680.481	3003.35
680.671	2903
680.861	2960.34
681.052	2841.56
681.242	2784.21
681.432	2921.43
681.622	2739.16
681.813	2960.34
682.003	2884.56
682.193	2878.42
682.383	2896.85
682.573	2896.85
682.764	2921.43
682.954	2792.41
683.144	2884.56
683.334	2849.75
683.524	2790.36
683.714	2847.7
683.904	2866.13
684.094	2849.75
684.284	2720.73
684.474	2876.37
684.664	2888.66
684.854	2814.93
685.044	2712.53
685.234	2651.1
685.424	2751.45
685.614	2665.43
685.804	2673.62
685.994	2540.51
686.184	2745.3
686.374	2747.35
686.564	2606.04
686.753	2593.75
686.943	2534.36
687.133	2626.52
687.323	2644.95
687.513	2632.66
687.702	2581.46
687.892	2618.33
688.082	2481.11
688.272	2481.11
688.461	2577.37
688.651	2583.51
688.841	2345.95
689.03	2474.97
689.22	2466.78
689.41	2477.02
689.599	2466.78
689.789	2456.54
689.979	2528.22
690.168	2542.55
690.358	2472.92
690.547	2419.68
690.737	2374.62
690.926	2325.47
691.116	2413.53
691.305	2309.08
691.495	2341.85
691.684	2386.91
691.874	2415.58
692.063	2329.56
692.252	2345.95
692.442	2364.38
692.631	2296.8
692.82	2286.56
693.01	2307.04
693.199	2280.41
693.388	2161.63
693.578	2294.75
693.767	2358.24
693.956	2298.84
694.146	2235.36
694.335	2388.96
694.524	2188.25
694.713	2241.5
694.902	2145.25
695.092	2161.63
695.281	2163.68
695.47	2065.38
695.659	2208.73
695.848	2182.11
696.037	2151.39
696.226	2194.4
696.415	2169.82
696.604	2161.63
696.793	2206.69
696.982	2255.84
697.171	2108.38
697.36	2178.01
697.549	2116.58
697.738	2114.53
697.927	2096.1
698.116	2081.76
698.305	1977.31
698.494	2057.18
698.683	2104.29
698.872	2077.66
699.061	2139.1
699.25	1977.31
699.438	2028.51
699.627	2028.51
699.816	2122.72
700.005	2075.62
700.193	2055.14
700.382	2012.13
700.571	2040.8
700.76	2048.99
700.948	2077.66
701.137	2034.66
701.326	2126.82
701.514	1924.07
701.703	1999.84
701.892	2057.18
702.08	2012.13
702.269	2012.13
702.457	2116.58
702.646	1950.69
702.834	1958.88
703.023	2057.18
703.212	1919.97
703.4	2048.99
703.589	1967.07
703.777	2014.18
703.965	2008.03
704.154	2024.42
704.342	1954.79
704.531	1991.65
704.719	1936.35
704.907	1856.48
705.096	1971.17
705.284	1862.63
705.472	1995.75
705.661	1919.97
705.849	2116.58
706.037	2018.27
706.226	2059.23
706.414	1958.88
706.602	2010.08
706.79	1946.59
706.979	1954.79
707.167	2022.37
707.355	1823.72
707.543	1960.93
707.731	1999.84
707.919	1936.35
708.107	1901.54
708.296	1946.59
708.484	1819.62
708.672	2028.51
708.86	1870.82
709.048	1981.41
709.236	1848.29
709.424	1975.27
709.612	2012.13
709.8	1903.59
709.988	1948.64
710.176	1975.27
710.364	1860.58
710.551	2046.94
710.739	1887.2
710.927	1725.41
711.115	1893.35
711.303	1881.06
711.491	1897.44
711.679	1813.48
711.866	1881.06
712.054	1985.51
712.242	1870.82
712.43	1786.85
712.617	1973.22
712.805	1905.63
712.993	1932.26
713.181	1872.87
713.368	1913.83
713.556	1868.77
713.744	1895.4
713.931	1995.75
714.119	1954.79
714.306	1852.39
714.494	1899.49
714.682	1819.62
714.869	1870.82
715.057	1862.63
715.244	1809.38
715.432	1782.76
715.619	1786.85
715.807	1922.02
715.994	1858.53
716.182	1848.29
716.369	1799.14
716.556	1917.92
716.744	1858.53
716.931	1850.34
717.119	1833.96
717.306	1962.98
717.493	1922.02
717.681	1891.3
717.868	1901.54
718.055	1741.8
718.242	1895.4
718.43	1934.31
718.617	1919.97
718.804	1827.81
718.991	1823.72
719.179	1870.82
719.366	1702.89
719.553	1737.7
719.74	1844.2
719.927	1911.78
720.114	1944.55
720.301	1846.24
720.488	1741.8
720.676	1809.38
720.863	1885.16
721.05	1790.95
721.237	1850.34
721.424	1854.44
721.611	1721.32
721.798	1817.57
721.985	1786.85
722.172	1756.13
722.358	1823.72
722.545	1840.1
722.732	1833.96
722.919	1913.83
723.106	1666.02
723.293	1846.24
723.48	1795.04
723.667	1844.2
723.853	1698.79
724.04	1948.64
724.227	1737.7
724.414	1893.35
724.6	1784.8
724.787	1872.87
724.974	1874.92
725.161	1780.71
725.347	1852.39
725.534	1799.14
725.72	1735.65
725.907	1805.28
726.094	1883.11
726.28	1700.84
726.467	1684.45
726.653	1831.91
726.84	1745.89
727.027	1766.37
727.213	1762.28
727.4	1768.42
727.586	1760.23
727.773	1747.94
727.959	1786.85
728.145	1778.66
728.332	1729.51
728.518	1749.99
728.705	1778.66
728.891	1782.76
729.077	1774.56
729.264	1749.99
729.45	1717.22
729.636	1682.41
729.823	1702.89
730.009	1723.37
730.195	1692.65
730.382	1774.56
730.568	1698.79
730.754	1786.85
730.94	1721.32
731.126	1698.79
731.313	1702.89
731.499	1713.13
731.685	1793
731.871	1756.13
732.057	1747.94
732.243	1801.19
732.429	1766.37
732.615	1637.35
732.801	1889.25
732.987	1737.7
733.173	1706.98
733.359	1768.42
733.545	1817.57
733.731	1663.97
733.917	1735.65
734.103	1784.8
734.289	1690.6
734.475	1770.47
734.661	1713.13
734.847	1682.41
735.033	1840.1
735.219	1651.69
735.404	1749.99
735.59	1758.18
735.776	1680.36
735.962	1850.34
736.148	1760.23
736.333	1573.86
736.519	1659.88
736.705	1754.09
736.89	1682.41
737.076	1801.19
737.262	1608.68
737.447	1670.12
737.633	1647.59
737.819	1725.41
738.004	1631.21
738.19	1573.86
738.375	1706.98
738.561	1577.96
738.747	1590.25
738.932	1696.74
739.118	1727.46
739.303	1582.06
739.489	1629.16
739.674	1608.68
739.859	1666.02
740.045	1508.33
740.23	1627.11
740.416	1582.06
740.601	1649.64
740.786	1537
740.972	1571.82
741.157	1592.3
741.342	1618.92
741.528	1672.17
741.713	1557.48
741.898	1580.01
742.084	1522.66
742.269	1557.48
742.454	1561.58
742.639	1590.25
742.824	1561.58
743.01	1500.14
743.195	1598.44
743.38	1645.54
743.565	1610.73
743.75	1510.38
743.935	1514.47
744.12	1459.18
744.305	1491.95
744.49	1502.19
744.675	1500.14
744.86	1444.84
745.045	1551.34
745.23	1440.75
745.415	1430.51
745.6	1389.55
745.785	1547.24
745.97	1428.46
746.155	1467.37
746.34	1299.44
746.525	1369.07
746.71	1473.51
746.895	1434.6
747.079	1430.51
747.264	1459.18
747.449	1424.36
747.634	1313.77
747.819	1305.58
748.003	1381.35
748.188	1360.88
748.373	1354.73
748.557	1444.84
748.742	1266.67
748.927	1313.77
749.111	1360.88
749.296	1246.19
749.481	1248.24
749.665	1334.25
749.85	1240.05
750.034	1367.02
750.219	1274.86
750.404	1235.95
750.588	1244.14
750.773	1209.33
750.957	1209.33
751.141	1186.8
751.326	1238
751.51	1174.51
751.695	1125.36
751.879	1223.66
752.064	1170.41
752.248	1147.89
752.432	1166.32
752.617	1184.75
752.801	1223.66
752.985	1160.17
753.17	1188.85
753.354	1168.37
753.538	1166.32
753.722	1182.7
753.907	1125.36
754.091	1170.41
754.275	1080.3
754.459	1031.15
754.643	1059.82
754.828	1080.3
755.012	1041.39
755.196	996.34
755.38	963.57
755.564	1119.21
755.748	1010.67
755.932	1022.96
756.116	982
756.3	1029.1
756.484	928.75
756.668	1033.2
756.852	975.86
757.036	1043.44
757.22	934.9
757.404	971.76
757.588	998.38
757.772	945.14
757.956	990.19
758.14	936.95
758.323	938.99
758.507	982
758.691	904.18
758.875	947.19
759.059	949.23
759.242	906.23
759.426	830.45
759.61	902.13
759.794	844.79
759.977	973.81
760.161	936.95
760.345	1004.53
760.528	906.23
760.712	807.92
760.895	953.33
761.079	861.17
761.263	824.31
761.446	898.03
761.63	846.84
761.813	898.03
761.997	891.89
762.18	869.36
762.364	791.54
762.547	797.68
762.731	910.32
762.914	777.2
763.098	809.97
763.281	820.21
763.464	832.5
763.648	838.64
763.831	744.44
764.015	771.06
764.198	789.49
764.381	809.97
764.564	820.21
764.748	777.2
764.931	740.34
765.114	742.39
765.297	818.16
765.481	728.05
765.664	807.92
765.847	685.05
766.03	691.19
766.213	789.49
766.397	758.77
766.58	742.39
766.763	744.44
766.946	750.58
767.129	742.39
767.312	805.88
767.495	738.29
767.678	752.63
767.861	746.48
768.044	764.92
768.227	709.62
768.41	693.24
768.593	766.96
768.776	781.3
768.959	658.42
769.142	709.62
769.324	689.14
769.507	726
769.69	631.8
769.873	646.13
770.056	728.05
770.239	656.37
770.421	750.58
770.604	750.58
770.787	654.33
770.97	670.71
771.152	613.37
771.335	738.29
771.518	603.13
771.7	633.85
771.883	723.96
772.066	695.29
772.248	703.48
772.431	635.89
772.613	668.66
772.796	648.18
772.978	619.51
773.161	623.61
773.343	564.22
773.526	596.98
773.708	541.69
773.891	523.26
774.073	578.55
774.256	566.26
774.438	652.28
774.621	609.27
774.803	633.85
774.985	596.98
775.168	619.51
775.35	545.78
775.532	601.08
775.715	576.5
775.897	574.46
776.079	599.03
776.261	582.65
776.444	572.41
776.626	533.5
776.808	611.32
776.99	562.17
777.173	642.04
777.355	416.76
777.537	564.22
777.719	553.98
777.901	531.45
778.083	494.58
778.265	482.3
778.447	560.12
778.629	474.1
778.811	457.72
778.993	543.74
779.175	537.59
779.357	500.73
779.539	531.45
779.721	556.02
779.903	480.25
780.085	486.39
780.267	404.47
780.449	496.63
780.631	465.91
780.812	500.73
780.994	474.1
781.176	478.2
781.358	472.06
781.54	402.43
781.721	506.87
781.903	459.77
782.085	537.59
782.267	414.71
782.448	441.34
782.63	412.67
782.812	443.39
782.993	404.47
783.175	453.63
783.357	375.8
783.538	386.04
783.72	422.91
783.901	449.53
784.083	392.19
784.264	379.9
784.446	375.8
784.627	381.95
784.809	381.95
784.99	336.89
785.172	320.51
785.353	347.13
785.535	283.64
785.716	304.12
785.897	351.23
786.079	291.84
786.26	310.27
786.441	347.13
786.623	363.51
786.804	297.98
786.985	402.43
787.167	392.19
787.348	363.51
787.529	338.94
787.71	318.46
787.891	345.08
788.073	359.42
788.254	252.92
788.435	353.27
788.616	281.6
788.797	312.32
788.978	314.36
789.159	222.2
789.34	308.22
789.522	332.79
789.703	318.46
789.884	267.26
790.065	363.51
790.246	297.98
790.427	287.74
790.607	261.12
790.788	302.08
790.969	166.91
791.15	353.27
791.331	287.74
791.512	250.88
791.693	281.6
791.874	302.08
792.054	310.27
792.235	257.02
792.416	271.36
792.597	295.93
792.778	312.32
792.958	320.51
793.139	304.12
793.32	265.21
793.5	314.36
793.681	277.5
793.862	283.64
794.042	277.5
794.223	160.77
794.404	230.4
794.584	193.53
794.765	271.36
794.945	242.68
795.126	232.44
795.306	248.83
795.487	230.4
795.667	232.44
795.848	246.78
796.028	242.68
796.209	277.5
796.389	267.26
796.57	205.82
796.75	197.63
796.93	218.11
797.111	214.01
797.291	232.44
797.471	224.25
797.652	240.64
797.832	179.2
798.012	267.26
798.192	240.64
798.373	285.69
798.553	234.49
798.733	234.49
798.913	220.16
799.093	191.49
799.274	152.57
799.454	267.26
799.634	209.92
799.814	283.64
799.994	297.98
800.174	275.45
800.354	287.74
800.534	168.96
800.714	209.92
800.894	181.25
801.074	130.05
801.254	277.5
801.434	263.16
801.614	152.57
801.794	191.49
801.974	556.02
802.154	134.14
802.334	162.81
802.514	132.09
802.693	152.57
802.873	214.01
803.053	226.3
803.233	218.11
803.413	173.05
803.592	123.9
803.772	168.96
803.952	115.71
804.131	197.63
804.311	154.62
804.491	226.3
804.67	191.49
804.85	117.76
805.03	93.18
805.209	177.15
805.389	173.05
805.568	162.81
805.748	187.39
805.928	168.96
806.107	220.16
806.287	218.11
806.466	185.34
806.646	121.85
806.825	123.9
807.004	142.33
807.184	199.68
807.363	160.77
807.543	152.57
807.722	162.81
807.901	130.05
808.081	130.05
808.26	207.87
808.439	162.81
808.619	171.01
808.798	140.29
808.977	168.96
809.156	185.34
809.336	189.44
809.515	187.39
809.694	136.19
809.873	119.81
810.052	222.2
810.231	66.56
810.411	132.09
810.59	148.48
810.769	84.99
810.948	179.2
811.127	91.13
811.306	158.72
811.485	128
811.664	185.34
811.843	177.15
812.022	99.33
812.201	164.86
812.38	154.62
812.559	125.95
812.737	144.38
812.916	87.04
813.095	154.62
813.274	117.76
813.453	115.71
813.632	203.77
813.811	123.9
813.989	105.47
814.168	103.42
814.347	218.11
814.526	95.23
814.704	132.09
814.883	185.34
815.062	142.33
815.24	123.9
815.419	144.38
815.598	134.14
815.776	54.27
815.955	201.72
816.133	91.13
816.312	138.24
816.49	109.57
816.669	134.14
816.847	119.81
817.026	68.61
817.204	134.14
817.383	199.68
817.561	117.76
817.74	121.85
817.918	183.29
818.097	123.9
818.275	62.46
818.453	125.95
818.632	74.75
818.81	168.96
818.988	150.53
819.167	144.38
819.345	117.76
819.523	115.71
819.701	154.62
819.879	160.77
820.058	134.14
820.236	166.91
820.414	89.09
820.592	175.1
820.77	105.47
820.948	74.75
821.127	103.42
821.305	132.09
821.483	115.71
821.661	128
821.839	76.8
822.017	80.89
822.195	119.81
822.373	152.57
822.551	113.66
822.729	119.81
822.907	130.05
823.085	181.25
823.262	93.18
823.44	107.52
823.618	44.03
823.796	142.33
823.974	62.46
824.152	74.75
824.329	132.09
824.507	99.33
824.685	52.22
824.863	66.56
825.04	113.66
825.218	150.53
825.396	93.18
825.574	125.95
825.751	101.37
825.929	160.77
826.107	89.09
826.284	121.85
826.462	46.08
826.639	58.37
826.817	101.37
826.994	156.67
827.172	60.42
827.349	146.43
827.527	150.53
827.704	119.81
827.882	60.42
828.059	48.13
828.237	56.32
828.414	62.46
828.591	87.04
828.769	119.81
828.946	121.85
829.124	138.24
829.301	111.61
829.478	76.8
829.655	103.42
829.833	48.13
830.01	60.42
830.187	168.96
830.364	80.89
830.542	87.04
830.719	95.23
830.896	89.09
831.073	97.28
831.25	140.29
831.427	99.33
831.604	93.18
831.782	78.85
831.959	78.85
832.136	33.79
832.313	58.37
832.49	3.07
832.667	115.71
832.844	99.33
833.021	44.03
833.198	87.04
833.374	74.75
833.551	91.13
833.728	70.65
833.905	89.09
834.082	74.75
834.259	111.61
834.436	138.24
834.612	142.33
834.789	9.22
834.966	121.85
835.143	35.84
835.319	58.37
835.496	66.56
835.673	93.18
835.85	80.89
836.026	74.75
836.203	39.94
836.38	15.36
836.556	140.29
836.733	17.41
836.909	130.05
837.086	107.52
837.262	132.09
837.439	27.65
837.616	37.89
837.792	109.57
837.968	7.17
838.145	52.22
838.321	68.61
838.498	19.46
838.674	117.76
838.851	78.85
839.027	74.75
839.203	-3.07
839.38	95.23
839.556	3.07
839.732	105.47
839.909	70.65
840.085	125.95
840.261	21.5
840.437	11.26
840.614	113.66
840.79	99.33
840.966	140.29
841.142	39.94
841.318	78.85
841.494	50.18
841.671	54.27
841.847	31.74
842.023	84.99
842.199	109.57
842.375	130.05
842.551	52.22
842.727	5.12
842.903	91.13
843.079	29.7
843.255	72.7
843.431	44.03
843.607	33.79
843.783	50.18
843.959	37.89
844.134	54.27
844.31	-3.07
844.486	-33.79
844.662	27.65
844.838	46.08
845.013	82.94
845.189	9.22
845.365	58.37
845.541	89.09
845.716	44.03
845.892	19.46
846.068	-3.07
846.244	25.6
846.419	97.28
846.595	64.51
846.77	84.99
846.946	66.56
847.122	29.7
847.297	37.89
847.473	27.65
847.648	5.12
847.824	76.8
847.999	19.46
848.175	23.55
848.35	5.12
848.526	56.32
848.701	37.89
848.876	111.61
849.052	117.76
849.227	58.37
849.403	48.13
849.578	15.36
849.753	89.09
849.929	89.09
850.104	-1.02
850.279	66.56
850.454	13.31
850.63	-3.07
850.805	60.42
850.98	62.46
851.155	11.26
851.33	-13.31
851.505	84.99
851.681	44.03
851.856	13.31
852.031	70.65
852.206	31.74
852.381	56.32
852.556	23.55
852.731	74.75
852.906	68.61
853.081	9.22
853.256	-7.17
853.431	13.31
853.606	41.98
853.781	54.27
853.956	5.12
854.131	-5.12
854.305	-25.6
854.48	1.02
854.655	70.65
854.83	-7.17
855.005	27.65
855.18	78.85
855.354	17.41
855.529	132.09
855.704	62.46
855.879	105.47
856.053	87.04
856.228	78.85
856.403	-11.26
856.577	37.89
856.752	-48.13
856.926	50.18
857.101	27.65
857.276	23.55
857.45	-60.42
857.625	46.08
857.799	19.46
857.974	5.12
858.148	-11.26
858.323	54.27
858.497	91.13
858.672	25.6
858.846	93.18
859.02	41.98
859.195	-64.51
859.369	62.46
859.543	54.27
859.718	23.55
859.892	60.42
860.066	91.13
860.241	58.37
860.415	37.89
860.589	48.13
860.763	76.8
860.938	76.8
861.112	58.37
861.286	11.26
861.46	37.89
861.634	27.65
861.808	93.18
861.982	3.07
862.157	33.79
862.331	44.03
862.505	33.79
862.679	-33.79
862.853	95.23
863.027	46.08
863.201	74.75
863.375	-13.31
863.549	-3.07
863.722	25.6
863.896	87.04
864.07	11.26
864.244	33.79
864.418	58.37
864.592	82.94
864.766	-7.17
864.939	21.5
865.113	13.31
865.287	35.84
865.461	-13.31
865.634	-41.98
865.808	13.31
865.982	-33.79
866.156	-31.74
866.329	9.22
866.503	84.99
866.676	70.65
866.85	21.5
867.024	62.46
867.197	46.08
867.371	95.23
867.544	13.31
867.718	78.85
867.891	66.56
868.065	78.85
868.238	68.61
868.412	64.51
868.585	39.94
868.759	31.74
868.932	-29.7
869.105	35.84
869.279	-37.89
869.452	9.22
869.625	13.31
869.799	33.79
869.972	11.26
870.145	17.41
870.319	19.46
870.492	17.41
870.665	25.6
870.838	68.61
871.011	11.26
871.185	-13.31
871.358	-21.5
871.531	54.27
871.704	-35.84
871.877	72.7
872.05	33.79
872.223	1.02
872.396	-13.31
872.569	72.7
872.742	-52.22
872.915	-1.02
873.088	5.12
873.261	13.31
873.434	52.22
873.607	-15.36
873.78	46.08
873.953	1.02
874.126	-1.02
874.299	54.27
874.471	-17.41
874.644	-7.17
874.817	29.7
874.99	29.7
875.163	-9.22
875.335	39.94
875.508	46.08
875.681	82.94
875.853	-13.31
876.026	41.98
876.199	-3.07
876.371	48.13
876.544	35.84
876.717	11.26
876.889	72.7
877.062	46.08
877.234	44.03
877.407	119.81
877.579	17.41
877.752	9.22
877.924	78.85
878.097	33.79
878.269	15.36
878.442	74.75
878.614	-52.22
878.786	27.65
878.959	119.81
879.131	52.22
879.303	5.12
879.476	78.85
879.648	35.84
879.82	-1.02
879.993	21.5
880.165	35.84
880.337	-58.37
880.509	82.94
880.681	-13.31
880.854	58.37
881.026	-23.55
881.198	41.98
881.37	-17.41
881.542	91.13
881.714	39.94
881.886	54.27
882.058	-5.12
882.23	54.27
882.402	78.85
882.574	41.98
882.746	29.7
882.918	35.84
883.09	-5.12
883.262	5.12
883.434	62.46
883.606	31.74
883.778	9.22
883.95	9.22
884.122	21.5
884.293	-48.13
884.465	-3.07
884.637	50.18
884.809	87.04
884.98	-39.94
885.152	5.12
885.324	62.46
885.496	-3.07
885.667	66.56
885.839	46.08
886.011	44.03
886.182	29.7
886.354	37.89
886.525	58.37
886.697	-9.22
886.869	-33.79
887.04	3.07
887.212	13.31
887.383	89.09
887.555	54.27
887.726	41.98
887.897	68.61
888.069	56.32
888.24	80.89
888.412	39.94
888.583	11.26
888.754	21.5
888.926	-15.36
889.097	91.13
889.268	33.79
889.44	54.27
889.611	9.22
889.782	-46.08
889.953	-46.08
890.125	52.22
890.296	-68.61
890.467	17.41
890.638	31.74
890.809	37.89
890.98	27.65
891.151	-9.22
891.323	50.18
891.494	68.61
891.665	58.37
891.836	52.22
892.007	-39.94
892.178	50.18
892.349	-19.46
892.52	1.02
892.691	-19.46
892.862	-87.04
893.032	-35.84
893.203	25.6
893.374	78.85
893.545	48.13
893.716	-3.07
893.887	58.37
894.057	3.07
894.228	66.56
894.399	3.07
894.57	27.65
894.74	-35.84
894.911	41.98
895.082	-7.17
895.253	-3.07
895.423	-17.41
895.594	46.08
895.764	-3.07
895.935	-5.12
896.106	5.12
896.276	3.07
896.447	21.5
896.617	54.27
896.788	19.46
896.958	-11.26
897.129	-48.13
897.299	-52.22
897.47	93.18
897.64	15.36
897.81	-46.08
897.981	66.56
898.151	27.65
898.322	13.31
898.492	21.5
898.662	37.89
898.832	1.02
899.003	-31.74
899.173	39.94
899.343	11.26
899.513	41.98
