Data from USB4F104151__182__11-09-32-503.txt Node

Date: Wed Mar 12 11:09:32 EDT 2025
User: louis
Spectrometer: USB4F10415
Trigger mode: 4
Integration Time (sec): 2.000000E-2
Scans to average: 1
Electric dark correction enabled: true
Nonlinearity correction enabled: false
Boxcar width: 0
XAxis mode: Wavelengths
Number of Pixels in Spectrum: 3648
>>>>>Begin Spectral Data<<<<<
178.204	-135
178.424	-135
178.644	-135
178.864	-114.52
179.084	-128.85
179.304	-57.17
179.524	10.41
179.744	-24.4
179.964	-1.88
180.184	22.7
180.404	-3.93
180.624	71.85
180.844	-5.97
181.064	43.18
181.283	59.56
181.503	-87.89
181.723	-26.45
181.943	14.51
182.163	4.27
182.383	28.84
182.602	14.51
182.822	55.47
183.042	26.79
183.262	-30.55
183.482	8.36
183.701	-10.07
183.921	-28.5
184.141	-10.07
184.361	37.03
184.58	-5.97
184.8	-38.74
185.02	-40.79
185.239	14.51
185.459	-38.74
185.679	-10.07
185.898	20.65
186.118	-51.03
186.338	24.75
186.557	106.67
186.777	-59.22
186.997	37.03
187.216	-10.07
187.436	63.66
187.655	-18.26
187.875	-22.36
188.095	-30.55
188.314	-89.94
188.534	80.04
188.753	28.84
188.973	45.23
189.192	125.1
189.412	57.51
189.631	-22.36
189.851	84.14
190.07	14.51
190.29	-14.17
190.509	-55.12
190.729	-46.93
190.948	65.71
191.168	77.99
191.387	0.17
191.607	37.03
191.826	8.36
192.045	-5.97
192.265	14.51
192.484	34.99
192.704	-3.93
192.923	-42.84
193.142	37.03
193.362	-106.32
193.581	30.89
193.8	12.46
194.02	16.55
194.239	63.66
194.458	-3.93
194.678	75.95
194.897	22.7
195.116	-3.93
195.335	-24.4
195.555	-22.36
195.774	24.75
195.993	-3.93
196.212	41.13
196.432	-14.17
196.651	4.27
196.87	2.22
197.089	80.04
197.308	-18.26
197.528	-38.74
197.747	-63.32
197.966	2.22
198.185	92.33
198.404	73.9
198.623	47.27
198.842	71.85
199.062	45.23
199.281	-10.07
199.5	-30.55
199.719	88.23
199.938	0.17
200.157	28.84
200.376	57.51
200.595	121
200.814	-36.69
201.033	6.31
201.252	-10.07
201.471	51.37
201.69	18.6
201.909	-94.04
202.128	-16.21
202.347	-8.02
202.566	14.51
202.785	41.13
203.004	-38.74
203.223	39.08
203.442	-40.79
203.661	41.13
203.879	-77.65
204.098	-12.12
204.317	-137.04
204.536	37.03
204.755	61.61
204.974	-12.12
205.193	18.6
205.411	77.99
205.63	-26.45
205.849	-10.07
206.068	20.65
206.287	16.55
206.505	-18.26
206.724	2.22
206.943	-28.5
207.162	0.17
207.381	6.31
207.599	16.55
207.818	-44.88
208.037	-10.07
208.255	0.17
208.474	30.89
208.693	2.22
208.911	-30.55
209.13	-14.17
209.349	-18.26
209.567	43.18
209.786	73.9
210.005	2.22
210.223	-18.26
210.442	-108.37
210.661	-34.64
210.879	18.6
211.098	10.41
211.316	-34.64
211.535	-10.07
211.753	-30.55
211.972	-1.88
212.191	59.56
212.409	-42.84
212.628	2.22
212.846	6.31
213.065	-1.88
213.283	28.84
213.502	-69.46
213.72	-26.45
213.938	-18.26
214.157	71.85
214.375	84.14
214.594	53.42
214.812	-1.88
215.031	-1.88
215.249	-63.32
215.467	61.61
215.686	20.65
215.904	-5.97
216.122	30.89
216.341	-20.31
216.559	34.99
216.778	41.13
216.996	32.94
217.214	0.17
217.432	-3.93
217.651	65.71
217.869	2.22
218.087	12.46
218.306	-12.12
218.524	30.89
218.742	-18.26
218.96	-16.21
219.179	-51.03
219.397	-12.12
219.615	-40.79
219.833	-26.45
220.051	12.46
220.27	59.56
220.488	51.37
220.706	6.31
220.924	-59.22
221.142	22.7
221.36	-16.21
221.578	-106.32
221.796	43.18
222.015	-8.02
222.233	-55.12
222.451	-36.69
222.669	-26.45
222.887	12.46
223.105	-10.07
223.323	10.41
223.541	-36.69
223.759	26.79
223.977	-8.02
224.195	8.36
224.413	-12.12
224.631	-26.45
224.849	2.22
225.067	4.27
225.285	45.23
225.503	-16.21
225.721	-44.88
225.939	39.08
226.157	-5.97
226.375	67.75
226.592	47.27
226.81	-18.26
227.028	-36.69
227.246	2.22
227.464	32.94
227.682	61.61
227.9	80.04
228.117	57.51
228.335	34.99
228.553	22.7
228.771	6.31
228.989	57.51
229.206	26.79
229.424	0.17
229.642	2.22
229.86	37.03
230.077	26.79
230.295	24.75
230.513	45.23
230.731	-22.36
230.948	-51.03
231.166	6.31
231.384	-3.93
231.601	10.41
231.819	43.18
232.037	-8.02
232.254	6.31
232.472	18.6
232.689	-100.18
232.907	30.89
233.125	-36.69
233.342	-59.22
233.56	-18.26
233.777	-1.88
233.995	10.41
234.213	49.32
234.43	75.95
234.648	14.51
234.865	-12.12
235.083	47.27
235.3	61.61
235.518	24.75
235.735	37.03
235.953	-1.88
236.17	-3.93
236.388	-42.84
236.605	14.51
236.822	69.8
237.04	4.27
237.257	18.6
237.475	-69.46
237.692	4.27
237.909	-16.21
238.127	18.6
238.344	-5.97
238.562	37.03
238.779	30.89
238.996	30.89
239.214	63.66
239.431	-14.17
239.648	14.51
239.865	34.99
240.083	24.75
240.3	51.37
240.517	-20.31
240.735	51.37
240.952	-30.55
241.169	-26.45
241.386	55.47
241.603	-1.88
241.821	-30.55
242.038	45.23
242.255	-100.18
242.472	2.22
242.689	41.13
242.907	0.17
243.124	37.03
243.341	-1.88
243.558	84.14
243.775	-24.4
243.992	2.22
244.209	-3.93
244.426	69.8
244.643	63.66
244.86	-59.22
245.078	8.36
245.295	6.31
245.512	65.71
245.729	65.71
245.946	-59.22
246.163	57.51
246.38	-42.84
246.597	-51.03
246.814	34.99
247.031	45.23
247.248	14.51
247.464	-87.89
247.681	-44.88
247.898	-8.02
248.115	-1.88
248.332	-67.41
248.549	80.04
248.766	0.17
248.983	71.85
249.2	-18.26
249.417	39.08
249.633	2.22
249.85	-18.26
250.067	20.65
250.284	-30.55
250.501	51.37
250.717	-38.74
250.934	32.94
251.151	-8.02
251.368	18.6
251.585	39.08
251.801	-10.07
252.018	-55.12
252.235	-12.12
252.451	-40.79
252.668	4.27
252.885	34.99
253.102	-14.17
253.318	16.55
253.535	20.65
253.752	84.14
253.968	-42.84
254.185	34.99
254.401	39.08
254.618	-28.5
254.835	-59.22
255.051	57.51
255.268	-14.17
255.484	30.89
255.701	26.79
255.917	67.75
256.134	-22.36
256.351	22.7
256.567	-3.93
256.784	2.22
257	43.18
257.217	12.46
257.433	4.27
257.65	0.17
257.866	-10.07
258.082	51.37
258.299	-30.55
258.515	-20.31
258.732	28.84
258.948	-28.5
259.165	32.94
259.381	-42.84
259.597	22.7
259.814	8.36
260.03	-16.21
260.246	20.65
260.463	32.94
260.679	116.9
260.895	-42.84
261.112	14.51
261.328	-5.97
261.544	-65.36
261.761	63.66
261.977	-16.21
262.193	-20.31
262.409	-44.88
262.626	53.42
262.842	-46.93
263.058	6.31
263.274	12.46
263.49	57.51
263.707	-10.07
263.923	34.99
264.139	-3.93
264.355	61.61
264.571	47.27
264.787	51.37
265.004	57.51
265.22	16.55
265.436	41.13
265.652	51.37
265.868	39.08
266.084	-14.17
266.3	-77.65
266.516	-42.84
266.732	55.47
266.948	-71.51
267.164	-5.97
267.38	75.95
267.596	26.79
267.812	0.17
268.028	18.6
268.244	-20.31
268.46	-34.64
268.676	12.46
268.892	8.36
269.108	-20.31
269.324	-30.55
269.54	-12.12
269.756	34.99
269.972	12.46
270.188	18.6
270.403	-65.36
270.619	20.65
270.835	22.7
271.051	67.75
271.267	0.17
271.483	-44.88
271.698	-34.64
271.914	65.71
272.13	65.71
272.346	16.55
272.562	14.51
272.777	12.46
272.993	28.84
273.209	-22.36
273.425	-30.55
273.64	-10.07
273.856	22.7
274.072	123.05
274.287	37.03
274.503	-10.07
274.719	10.41
274.934	30.89
275.15	-53.08
275.366	-18.26
275.581	2.22
275.797	10.41
276.012	37.03
276.228	39.08
276.444	37.03
276.659	-40.79
276.875	43.18
277.09	-30.55
277.306	-5.97
277.521	104.62
277.737	-10.07
277.952	-1.88
278.168	-5.97
278.383	-42.84
278.599	-59.22
278.814	-38.74
279.03	49.32
279.245	-24.4
279.461	49.32
279.676	59.56
279.892	61.61
280.107	12.46
280.322	39.08
280.538	45.23
280.753	10.41
280.969	26.79
281.184	43.18
281.399	10.41
281.615	-26.45
281.83	22.7
282.045	-14.17
282.26	-3.93
282.476	-5.97
282.691	14.51
282.906	18.6
283.122	-8.02
283.337	-51.03
283.552	-40.79
283.767	22.7
283.983	-3.93
284.198	18.6
284.413	32.94
284.628	-16.21
284.843	-10.07
285.058	14.51
285.274	-59.22
285.489	-40.79
285.704	82.09
285.919	-57.17
286.134	41.13
286.349	28.84
286.564	71.85
286.779	53.42
286.995	-20.31
287.21	-28.5
287.425	51.37
287.64	28.84
287.855	26.79
288.07	37.03
288.285	4.27
288.5	22.7
288.715	-44.88
288.93	-16.21
289.145	8.36
289.36	-12.12
289.575	20.65
289.79	26.79
290.004	-34.64
290.219	47.27
290.434	-8.02
290.649	10.41
290.864	-3.93
291.079	-48.98
291.294	30.89
291.509	-10.07
291.724	41.13
291.938	-14.17
292.153	45.23
292.368	12.46
292.583	0.17
292.798	-59.22
293.012	-1.88
293.227	30.89
293.442	-5.97
293.657	129.19
293.871	0.17
294.086	10.41
294.301	104.62
294.516	6.31
294.73	41.13
294.945	-10.07
295.16	2.22
295.374	22.7
295.589	26.79
295.804	-75.6
296.018	-40.79
296.233	18.6
296.447	4.27
296.662	8.36
296.877	28.84
297.091	-42.84
297.306	22.7
297.52	-48.98
297.735	28.84
297.949	-55.12
298.164	45.23
298.378	-12.12
298.593	-44.88
298.807	12.46
299.022	-8.02
299.236	30.89
299.451	-26.45
299.665	90.28
299.88	-14.17
300.094	-5.97
300.309	-1.88
300.523	32.94
300.737	55.47
300.952	63.66
301.166	-34.64
301.381	-22.36
301.595	-18.26
301.809	22.7
302.024	55.47
302.238	-46.93
302.452	30.89
302.667	37.03
302.881	59.56
303.095	20.65
303.309	47.27
303.524	51.37
303.738	-20.31
303.952	-1.88
304.166	55.47
304.381	22.7
304.595	-59.22
304.809	-1.88
305.023	-38.74
305.237	28.84
305.452	-5.97
305.666	10.41
305.88	71.85
306.094	110.76
306.308	53.42
306.522	6.31
306.736	55.47
306.95	-10.07
307.164	12.46
307.379	0.17
307.593	-12.12
307.807	51.37
308.021	43.18
308.235	63.66
308.449	-87.89
308.663	55.47
308.877	55.47
309.091	53.42
309.305	12.46
309.519	-30.55
309.733	39.08
309.947	0.17
310.161	34.99
310.374	-1.88
310.588	14.51
310.802	34.99
311.016	41.13
311.23	22.7
311.444	8.36
311.658	71.85
311.872	10.41
312.085	16.55
312.299	4.27
312.513	-3.93
312.727	-42.84
312.941	24.75
313.154	51.37
313.368	-3.93
313.582	90.28
313.796	10.41
314.009	-16.21
314.223	-14.17
314.437	43.18
314.651	-46.93
314.864	-1.88
315.078	39.08
315.292	-42.84
315.505	-57.17
315.719	57.51
315.933	34.99
316.146	18.6
316.36	16.55
316.573	-12.12
316.787	73.9
317.001	51.37
317.214	14.51
317.428	49.32
317.641	45.23
317.855	18.6
318.068	-1.88
318.282	71.85
318.495	43.18
318.709	30.89
318.922	24.75
319.136	47.27
319.349	61.61
319.563	8.36
319.776	-18.26
319.99	30.89
320.203	53.42
320.417	-12.12
320.63	6.31
320.843	14.51
321.057	4.27
321.27	0.17
321.483	47.27
321.697	41.13
321.91	102.57
322.124	-5.97
322.337	-20.31
322.55	51.37
322.763	12.46
322.977	49.32
323.19	34.99
323.403	86.19
323.617	28.84
323.83	4.27
324.043	-110.42
324.256	43.18
324.469	0.17
324.683	49.32
324.896	-75.6
325.109	57.51
325.322	14.51
325.535	82.09
325.748	2.22
325.962	32.94
326.175	-20.31
326.388	-42.84
326.601	39.08
326.814	55.47
327.027	-26.45
327.24	39.08
327.453	10.41
327.666	28.84
327.879	18.6
328.092	34.99
328.305	-10.07
328.518	71.85
328.731	-55.12
328.944	39.08
329.157	-10.07
329.37	112.81
329.583	82.09
329.796	20.65
330.009	-34.64
330.222	2.22
330.435	18.6
330.648	-22.36
330.861	53.42
331.073	26.79
331.286	-3.93
331.499	-5.97
331.712	2.22
331.925	-26.45
332.138	-12.12
332.35	8.36
332.563	86.19
332.776	80.04
332.989	-30.55
333.202	75.95
333.414	41.13
333.627	41.13
333.84	-51.03
334.053	8.36
334.265	4.27
334.478	39.08
334.691	0.17
334.903	24.75
335.116	-38.74
335.329	10.41
335.541	-71.51
335.754	34.99
335.966	8.36
336.179	10.41
336.392	32.94
336.604	43.18
336.817	16.55
337.029	49.32
337.242	-16.21
337.454	22.7
337.667	4.27
337.88	90.28
338.092	34.99
338.305	53.42
338.517	-53.08
338.729	75.95
338.942	71.85
339.154	6.31
339.367	43.18
339.579	80.04
339.792	18.6
340.004	75.95
340.217	2.22
340.429	4.27
340.641	-8.02
340.854	-8.02
341.066	-18.26
341.278	53.42
341.491	-3.93
341.703	-48.98
341.915	47.27
342.128	45.23
342.34	-8.02
342.552	24.75
342.764	-28.5
342.977	22.7
343.189	6.31
343.401	-8.02
343.613	32.94
343.826	59.56
344.038	-75.6
344.25	63.66
344.462	6.31
344.674	-18.26
344.886	-18.26
345.099	26.79
345.311	20.65
345.523	-22.36
345.735	-34.64
345.947	123.05
346.159	-34.64
346.371	67.75
346.583	10.41
346.795	43.18
347.007	-77.65
347.219	94.38
347.431	-5.97
347.643	-22.36
347.855	-10.07
348.067	49.32
348.279	12.46
348.491	-63.32
348.703	2.22
348.915	37.03
349.127	-1.88
349.339	84.14
349.551	16.55
349.763	14.51
349.975	4.27
350.187	24.75
350.399	94.38
350.61	-16.21
350.822	8.36
351.034	67.75
351.246	47.27
351.458	14.51
351.669	61.61
351.881	59.56
352.093	-3.93
352.305	63.66
352.517	6.31
352.728	0.17
352.94	26.79
353.152	73.9
353.363	28.84
353.575	-12.12
353.787	71.85
353.999	0.17
354.21	45.23
354.422	16.55
354.633	2.22
354.845	45.23
355.057	4.27
355.268	-18.26
355.48	22.7
355.692	69.8
355.903	32.94
356.115	18.6
356.326	-1.88
356.538	-10.07
356.749	41.13
356.961	77.99
357.172	-16.21
357.384	-14.17
357.595	63.66
357.807	59.56
358.018	-36.69
358.23	-3.93
358.441	4.27
358.653	14.51
358.864	37.03
359.075	10.41
359.287	2.22
359.498	12.46
359.709	-53.08
359.921	8.36
360.132	6.31
360.344	26.79
360.555	6.31
360.766	18.6
360.977	28.84
361.189	-22.36
361.4	-14.17
361.611	-12.12
361.823	67.75
362.034	34.99
362.245	67.75
362.456	-14.17
362.667	20.65
362.879	12.46
363.09	14.51
363.301	-71.51
363.512	53.42
363.723	0.17
363.935	-8.02
364.146	69.8
364.357	69.8
364.568	-63.32
364.779	6.31
364.99	57.51
365.201	28.84
365.412	26.79
365.623	-22.36
365.834	8.36
366.045	-22.36
366.256	24.75
366.467	34.99
366.678	-40.79
366.889	-53.08
367.1	-10.07
367.311	24.75
367.522	18.6
367.733	8.36
367.944	32.94
368.155	-1.88
368.366	26.79
368.577	22.7
368.788	49.32
368.999	59.56
369.209	55.47
369.42	0.17
369.631	26.79
369.842	-18.26
370.053	-10.07
370.264	14.51
370.474	-10.07
370.685	16.55
370.896	20.65
371.107	32.94
371.317	61.61
371.528	-26.45
371.739	61.61
371.95	26.79
372.16	-5.97
372.371	-61.27
372.582	-12.12
372.792	-57.17
373.003	71.85
373.214	96.43
373.424	2.22
373.635	-36.69
373.846	-16.21
374.056	57.51
374.267	43.18
374.477	69.8
374.688	10.41
374.898	39.08
375.109	12.46
375.319	24.75
375.53	104.62
375.74	26.79
375.951	12.46
376.161	51.37
376.372	34.99
376.582	-67.41
376.793	67.75
377.003	34.99
377.214	75.95
377.424	47.27
377.635	34.99
377.845	37.03
378.055	-24.4
378.266	34.99
378.476	34.99
378.686	18.6
378.897	-26.45
379.107	0.17
379.317	-24.4
379.528	-30.55
379.738	18.6
379.948	-42.84
380.158	34.99
380.369	45.23
380.579	6.31
380.789	10.41
380.999	26.79
381.21	53.42
381.42	47.27
381.63	45.23
381.84	8.36
382.05	2.22
382.261	28.84
382.471	41.13
382.681	53.42
382.891	61.61
383.101	75.95
383.311	45.23
383.521	16.55
383.731	26.79
383.941	73.9
384.151	0.17
384.361	86.19
384.571	-12.12
384.781	34.99
384.991	39.08
385.201	30.89
385.411	53.42
385.621	34.99
385.831	22.7
386.041	41.13
386.251	37.03
386.461	55.47
386.671	55.47
386.881	10.41
387.091	22.7
387.301	121
387.511	53.42
387.72	47.27
387.93	6.31
388.14	-3.93
388.35	-3.93
388.56	61.61
388.769	-5.97
388.979	8.36
389.189	4.27
389.399	18.6
389.609	82.09
389.818	30.89
390.028	6.31
390.238	49.32
390.447	-26.45
390.657	55.47
390.867	24.75
391.076	20.65
391.286	55.47
391.496	-26.45
391.705	57.51
391.915	-14.17
392.125	6.31
392.334	47.27
392.544	39.08
392.753	-5.97
392.963	-10.07
393.172	63.66
393.382	92.33
393.591	41.13
393.801	28.84
394.01	55.47
394.22	49.32
394.429	20.65
394.639	-20.31
394.848	67.75
395.058	69.8
395.267	43.18
395.477	43.18
395.686	80.04
395.895	57.51
396.105	80.04
396.314	34.99
396.524	28.84
396.733	-8.02
396.942	0.17
397.152	45.23
397.361	51.37
397.57	-34.64
397.78	67.75
397.989	63.66
398.198	139.43
398.407	59.56
398.617	149.67
398.826	61.61
399.035	53.42
399.244	22.7
399.453	77.99
399.663	-24.4
399.872	94.38
400.081	10.41
400.29	20.65
400.499	6.31
400.708	98.47
400.917	-5.97
401.127	10.41
401.336	71.85
401.545	149.67
401.754	-5.97
401.963	49.32
402.172	47.27
402.381	16.55
402.59	63.66
402.799	137.38
403.008	108.71
403.217	30.89
403.426	32.94
403.635	114.86
403.844	14.51
404.053	18.6
404.262	90.28
404.471	71.85
404.68	8.36
404.888	57.51
405.097	104.62
405.306	92.33
405.515	98.47
405.724	153.77
405.933	149.67
406.142	108.71
406.35	88.23
406.559	39.08
406.768	84.14
406.977	133.29
407.185	39.08
407.394	139.43
407.603	108.71
407.812	104.62
408.02	92.33
408.229	131.24
408.438	129.19
408.646	178.34
408.855	96.43
409.064	190.63
409.272	34.99
409.481	151.72
409.69	182.44
409.898	202.92
410.107	219.3
410.315	100.52
410.524	104.62
410.733	207.02
410.941	176.3
411.15	237.74
411.358	202.92
411.567	303.27
411.775	188.58
411.984	198.82
412.192	157.86
412.401	247.97
412.609	221.35
412.818	286.89
413.026	243.88
413.234	295.08
413.443	280.74
413.651	280.74
413.86	264.36
414.068	307.37
414.276	432.29
414.485	309.41
414.693	428.2
414.901	424.1
415.11	415.91
415.318	440.48
415.526	415.91
415.734	395.43
415.943	428.2
416.151	428.2
416.359	448.68
416.567	544.93
416.776	481.44
416.984	528.55
417.192	528.55
417.4	520.35
417.608	602.27
417.817	585.89
418.025	635.04
418.233	612.51
418.441	651.42
418.649	649.38
418.857	704.67
419.065	737.44
419.273	762.02
419.481	819.36
419.689	829.6
419.897	870.56
420.105	860.32
420.313	858.27
420.521	833.69
420.729	874.65
420.937	936.09
421.145	952.48
421.353	1097.88
421.561	1075.35
421.769	1177.75
421.977	1147.03
422.185	1153.18
422.393	1235.1
422.601	1190.04
422.809	1337.49
423.017	1351.83
423.224	1323.16
423.432	1384.6
423.64	1374.36
423.848	1439.89
424.056	1423.51
424.263	1628.31
424.471	1599.63
424.679	1538.2
424.887	1714.32
425.094	1806.48
425.302	1742.99
425.51	1798.29
425.718	1953.93
425.925	1951.88
426.133	1939.6
426.341	2115.72
426.548	2318.47
426.756	2199.69
426.964	2148.49
427.171	2361.48
427.379	2449.54
427.586	2517.12
427.794	2582.66
428.001	2685.06
428.209	2844.8
428.417	2683.01
428.624	2920.57
428.832	2926.72
429.039	2957.44
429.247	2943.1
429.454	3106.94
429.662	3405.94
429.869	3289.21
430.076	3426.42
430.284	3334.26
430.491	3508.34
430.699	3696.75
430.906	3666.03
431.114	3721.33
431.321	3971.18
431.528	4051.05
431.736	4081.77
431.943	4331.62
432.15	4018.29
432.358	4255.85
432.565	4491.37
432.772	4534.37
432.979	4696.16
433.187	4841.57
433.394	4833.38
433.601	4997.21
433.808	5183.58
434.016	5029.98
434.223	5296.22
434.43	5711.96
434.637	5648.47
434.844	6150.22
435.052	6021.2
435.259	6072.4
435.466	6144.08
435.673	6139.98
435.88	6379.59
436.087	6830.15
436.294	6709.32
436.501	6621.25
436.708	6662.21
436.915	6961.22
437.122	7213.12
437.329	7198.78
437.537	7503.93
437.743	7536.7
437.95	7405.63
438.157	8017.97
438.364	8214.57
438.571	8122.41
438.778	8200.24
438.985	9044
439.192	8663.08
439.399	8824.87
439.606	8628.26
439.813	9324.57
440.02	9822.23
440.227	9512.99
440.433	9621.53
440.64	9828.37
440.847	9773.08
441.054	9920.53
441.261	10592.27
441.467	10362.89
441.674	10618.89
441.881	11012.1
442.088	11180.03
442.294	10921.99
442.501	11311.1
442.708	11653.11
442.914	11909.11
443.121	12423.15
443.328	12142.58
443.534	13053.92
443.741	12447.72
443.948	12318.7
444.154	13416.41
444.361	13279.2
444.568	13256.67
444.774	13463.52
444.981	13430.75
445.187	13649.88
445.394	14491.6
445.6	14059.48
445.807	15583.16
446.013	15034.31
446.22	14919.62
446.426	15955.9
446.633	15947.7
446.839	16271.28
447.046	15724.47
447.252	16498.61
447.459	16486.32
447.665	16402.35
447.871	17158.05
448.078	17801.12
448.284	17069.99
448.491	17543.07
448.697	18489.23
448.903	18603.92
449.11	18683.79
449.316	18306.96
449.522	18898.83
449.728	19152.77
449.935	19496.83
450.141	19306.37
450.347	20162.42
450.553	19535.74
450.76	19316.61
450.966	19912.57
451.172	19748.73
451.378	20309.88
451.584	19754.88
451.791	20277.11
451.997	20029.31
452.203	20856.68
452.409	20492.15
452.615	20592.5
452.821	19916.67
453.027	19347.33
453.233	20426.61
453.44	19799.93
453.646	19947.39
453.852	20025.21
454.058	20113.27
454.264	19384.19
454.47	19961.72
454.676	19502.98
454.882	20139.9
455.088	18347.92
455.294	18685.84
455.5	19081.1
455.705	19046.28
455.911	18114.45
456.117	18030.49
456.323	17731.48
456.529	16777.13
456.735	17336.23
456.941	17289.12
457.147	16813.99
457.352	16320.43
457.558	16222.13
457.764	16119.73
457.97	15912.89
458.176	15415.23
458.381	15579.07
458.587	14651.34
458.793	14876.62
458.999	14131.16
459.204	14921.67
459.41	14567.37
459.616	13426.65
459.821	13557.72
460.027	13547.48
460.233	13252.58
460.438	12351.47
460.644	12771.3
460.85	12296.18
461.055	11896.82
461.261	11995.12
461.466	11130.88
461.672	10727.43
461.878	11759.61
462.083	10924.04
462.289	10663.94
462.494	10364.94
462.7	10027.03
462.905	9633.82
463.111	10041.36
463.316	10090.51
463.522	9924.63
463.727	9787.41
463.932	9914.39
464.138	9746.45
464.343	9986.07
464.549	9551.9
464.754	9830.42
464.959	9828.37
465.165	9736.21
465.37	9240.61
465.575	8953.89
465.781	9238.56
465.986	9596.95
466.191	9121.82
466.397	8849.44
466.602	8575.02
466.807	8931.36
467.012	8820.77
467.218	8712.23
467.423	8849.44
467.628	8745
467.833	9193.5
468.038	8609.83
468.244	8570.92
468.449	8761.38
468.654	8380.46
468.859	8478.76
469.064	8366.12
469.269	8128.56
469.474	8052.78
469.679	8206.38
469.885	8003.63
470.09	8243.24
470.295	8138.8
470.5	7960.63
470.705	8128.56
470.91	7884.85
471.115	7686.2
471.32	7669.81
471.525	7768.12
471.73	7407.67
471.935	7559.22
472.139	7188.54
472.344	7413.82
472.549	7417.91
472.754	7276.6
472.959	6928.45
473.164	7143.49
473.369	6922.31
473.574	7010.37
473.778	7157.82
473.983	6971.46
474.188	6961.22
474.393	6617.16
474.598	6742.08
474.802	6639.69
475.007	6533.19
475.212	6600.77
475.417	6375.5
475.621	6441.03
475.826	6301.77
476.031	6174.8
476.235	6156.36
476.44	6371.4
476.645	6215.76
476.849	6115.41
477.054	5990.48
477.259	6006.86
477.463	5980.24
477.668	5840.98
477.872	5922.9
478.077	5765.2
478.282	5570.65
478.486	5511.25
478.691	5441.62
478.895	5525.59
479.1	5519.45
479.304	5386.33
479.509	5333.08
479.713	5580.89
479.918	5265.5
480.122	5343.32
480.326	5320.79
480.531	5443.67
480.735	5417.05
480.94	5337.18
481.144	5331.03
481.348	5120.09
481.553	5159
481.757	5105.76
481.961	5146.72
482.166	5171.29
482.37	5097.56
482.574	5240.92
482.778	5066.85
482.983	5253.21
483.187	5202.01
483.391	5212.25
483.595	4917.34
483.8	5095.52
484.004	5085.28
484.208	5216.35
484.412	5097.56
484.616	5040.22
484.821	5105.76
485.025	5007.45
485.229	5197.92
485.433	5072.99
485.637	5113.95
485.841	5036.13
486.045	5185.63
486.249	5138.52
486.453	5195.87
486.657	5169.24
486.861	4915.3
487.065	5034.08
487.269	5101.66
487.473	5134.43
487.677	5175.39
487.881	5240.92
488.085	5093.47
488.289	5199.96
488.493	5095.52
488.697	5318.75
488.901	5075.04
489.105	5038.17
489.309	5064.8
489.512	5230.68
489.716	5032.03
489.92	5267.55
490.124	5116
490.328	5308.51
490.531	5027.93
490.735	5161.05
490.939	5146.72
491.143	5193.82
491.346	5288.03
491.55	5304.41
491.754	5126.24
491.958	5425.24
492.161	5421.14
492.365	5247.07
492.569	5408.86
492.772	5408.86
492.976	5466.2
493.18	5431.38
493.383	5515.35
493.587	5574.74
493.79	5816.4
493.994	5400.66
494.197	5560.41
494.401	5615.7
494.605	5683.28
494.808	5750.87
495.012	5834.83
495.215	5779.54
495.419	5767.25
495.622	5783.63
495.825	5937.23
496.029	5920.85
496.232	6156.36
496.436	6119.5
496.639	6158.41
496.843	6137.93
497.046	6244.43
497.249	6357.07
497.453	6408.26
497.656	6426.7
497.859	6488.14
498.063	6539.33
498.266	6565.96
498.469	6725.7
498.673	6649.93
498.876	6735.94
499.079	6817.86
499.282	6916.16
499.485	7071.81
499.689	7008.32
499.892	7135.29
500.095	7102.53
500.298	7448.63
500.501	7430.2
500.705	7493.69
500.908	7548.98
501.111	7632.95
501.314	7833.65
501.517	7807.03
501.72	7837.75
501.923	7735.35
502.126	8226.86
502.329	8290.35
502.532	8237.1
502.735	8423.47
502.938	8532.01
503.141	8503.34
503.344	8704.04
503.547	8437.8
503.75	8745
503.953	8831.01
504.156	9000.99
504.359	8990.75
504.562	9021.47
504.765	9330.72
504.968	9457.69
505.17	9261.09
505.373	9386.01
505.576	9596.95
505.779	9660.44
505.982	9713.69
506.185	9963.54
506.387	9969.68
506.59	10237.97
506.793	10262.54
506.996	10459.15
507.198	10713.1
507.401	10620.94
507.604	10893.32
507.807	10649.61
508.009	11038.72
508.212	11020.29
508.415	11243.52
508.617	11165.7
508.82	11431.93
509.022	11378.69
509.225	11712.5
509.428	11597.82
509.63	11819
509.833	11837.43
510.035	12314.61
510.238	12169.2
510.44	12218.35
510.643	12247.02
510.845	12556.27
511.048	12566.51
511.25	12707.82
511.453	12845.03
511.655	13340.64
511.858	13160.42
512.06	13205.47
512.262	13436.89
512.465	13164.51
512.667	13746.14
512.87	14000.09
513.072	13778.9
513.274	14245.84
513.477	14288.85
513.679	14372.82
513.881	14594
514.084	14792.65
514.286	14690.25
514.488	14847.94
514.69	15454.14
514.893	15437.76
515.095	15423.42
515.297	15536.06
515.499	15517.63
515.701	15783.87
515.904	16097.21
516.106	16215.99
516.308	16496.56
516.51	16283.57
516.712	16451.5
516.914	16758.7
517.116	16791.47
517.318	17291.17
517.52	17201.06
517.722	17231.78
517.925	17528.74
518.127	17880.99
518.329	17874.84
518.531	17792.92
518.733	18464.66
518.935	18577.3
519.136	18487.18
519.338	18751.37
519.54	18796.43
519.742	19093.38
519.944	18902.92
520.146	19515.26
520.348	19533.7
520.55	19713.92
520.752	19650.43
520.954	20000.63
521.155	20090.74
521.357	20223.86
521.559	20514.67
521.761	20707.18
521.963	20823.92
522.164	20766.57
522.366	20807.53
522.568	21274.47
522.77	21297
522.971	21768.03
523.173	21612.38
523.375	21956.44
523.576	22015.83
523.778	22064.99
523.98	22044.51
524.181	22339.41
524.383	22519.64
524.584	22818.64
524.786	22822.73
524.988	22671.18
525.189	23045.96
525.391	23158.6
525.592	23490.37
525.794	23312.2
525.995	23445.32
526.197	23488.32
526.398	23635.78
526.6	23723.84
526.801	23740.22
527.003	23947.07
527.204	23977.79
527.406	24176.44
527.607	24192.83
527.808	24260.41
528.01	24438.58
528.211	24774.45
528.412	24745.78
528.614	24977.2
528.815	25036.59
529.016	25155.37
529.218	24786.74
529.419	24911.66
529.62	25214.76
529.822	25175.85
530.023	25167.66
530.224	25239.34
530.425	25521.96
530.626	25311.02
530.828	25214.76
531.029	26054.43
531.23	25659.17
531.431	25593.64
531.632	25964.32
531.833	25589.54
532.035	25616.16
532.236	25777.95
532.437	26173.21
532.638	25710.37
532.839	26013.47
533.04	26091.29
533.241	25718.56
533.442	26382.1
533.643	26093.34
533.844	26097.44
534.045	26036
534.246	25810.72
534.447	26222.36
534.648	26048.29
534.849	25937.69
535.05	26165.02
535.251	26380.06
535.451	25986.85
535.652	26267.42
535.853	26459.93
536.054	26304.28
536.255	26492.69
536.456	26341.14
536.657	26783.51
536.857	26357.53
537.058	26343.19
537.259	26445.59
537.46	26427.16
537.66	26423.06
537.861	26545.94
538.062	26736.4
538.263	26683.16
538.463	26365.72
538.664	26431.26
538.865	26386.2
539.065	26740.5
539.266	26412.82
539.466	26439.45
539.667	26210.07
539.868	26367.77
540.068	26543.89
540.269	26394.39
540.469	26482.45
540.67	26365.72
540.87	26480.41
541.071	26717.97
541.271	26568.47
541.472	26361.62
541.672	26134.3
541.873	26685.2
542.073	26160.92
542.274	26427.16
542.474	26277.66
542.675	26355.48
542.875	26433.3
543.075	26449.69
543.276	25796.39
543.476	26550.04
543.676	26318.62
543.877	26298.14
544.077	26212.12
544.277	26230.55
544.478	26511.13
544.678	26502.93
544.878	25964.32
545.078	26484.5
545.279	26195.74
545.479	26001.18
545.679	26093.34
545.879	26425.11
546.079	26304.28
546.28	26040.09
546.48	26031.9
546.68	26144.54
546.88	26101.53
547.08	26304.28
547.28	26074.91
547.48	25943.84
547.68	26351.38
547.88	26124.06
548.081	26433.3
548.281	26140.44
548.481	25952.03
548.681	26384.15
548.881	26183.45
549.081	26097.44
549.28	25949.98
549.48	26443.54
549.68	26326.81
549.88	26709.78
550.08	25968.41
550.28	26017.57
550.48	26183.45
550.68	26281.75
550.88	26066.72
551.08	26183.45
551.279	26079
551.479	26171.16
551.679	26337.05
551.879	26095.39
552.079	26107.68
552.278	25911.07
552.478	25956.13
552.678	26060.57
552.878	26193.69
553.077	26134.3
553.277	25870.11
553.477	26193.69
553.676	25765.67
553.876	25788.19
554.076	25962.27
554.275	25747.23
554.475	25857.82
554.674	25788.19
554.874	25626.4
555.074	25380.65
555.273	25745.19
555.473	25876.26
555.672	25585.44
555.872	25456.42
556.071	25497.38
556.271	25818.91
556.47	26003.23
556.67	25394.98
556.869	25364.26
557.068	25653.03
557.268	25448.23
557.467	25229.1
557.667	25351.98
557.866	25458.47
558.065	25259.82
558.265	25241.39
558.464	25034.54
558.663	25247.53
558.863	24880.94
559.062	25245.48
559.261	25153.32
559.461	25325.35
559.66	24794.93
559.859	24790.83
560.058	24743.73
560.258	24895.28
560.457	24833.84
560.656	24772.4
560.855	24756.02
561.054	24903.47
561.253	24706.87
561.453	24670
561.652	24522.55
561.851	24815.41
562.05	24518.45
562.249	24201.02
562.448	24420.15
562.647	24301.37
562.846	24182.59
563.045	24246.07
563.244	24067.9
563.443	24395.57
563.642	23723.84
563.841	23908.16
564.04	23707.46
564.239	24045.37
564.438	23340.87
564.637	23869.25
564.836	24016.7
565.035	23308.1
565.234	23582.53
565.432	23578.43
565.631	23385.93
565.83	23396.17
566.029	23197.51
566.228	23097.16
566.427	23191.37
566.625	23174.99
566.824	22914.89
567.023	23377.73
567.222	23017.29
567.42	22935.37
567.619	22949.71
567.818	22988.62
568.016	22918.99
568.215	22914.89
568.414	22847.31
568.612	22714.19
568.811	22636.37
569.01	22771.54
569.208	22327.13
569.407	22273.88
569.605	22255.45
569.804	22452.05
570.002	22148.95
570.201	21968.73
570.4	21808.99
570.598	21616.48
570.797	21759.84
570.995	21856.09
571.193	21731.17
571.392	21690.21
571.59	21530.47
571.789	21878.62
571.987	21466.98
572.186	21534.56
572.384	21190.5
572.582	21327.72
572.781	21440.36
572.979	20969.32
573.177	21108.58
573.376	21172.07
573.574	20967.27
573.772	20993.9
573.971	20668.27
574.169	20696.94
574.367	20504.43
574.565	20858.73
574.763	20455.28
574.962	20664.18
575.16	20420.47
575.358	20434.8
575.556	20189.05
575.754	20508.53
575.952	20340.6
576.151	20420.47
576.349	19869.56
576.547	20125.56
576.745	20127.61
576.943	19922.81
577.141	19869.56
577.339	20096.89
577.537	19830.65
577.735	19529.6
577.933	19367.81
578.131	19556.22
578.329	19472.26
578.527	19367.81
578.725	19433.35
578.923	19384.19
579.121	19253.12
579.319	19083.14
579.516	19355.52
579.714	19310.47
579.912	19048.33
580.11	19001.22
580.308	19156.87
580.506	18984.84
580.704	18546.58
580.901	18812.81
581.099	18990.98
581.297	18665.36
581.495	18589.58
581.692	18808.72
581.89	18401.17
582.088	18513.81
582.285	18390.93
582.483	18519.95
582.681	18360.21
582.878	18247.57
583.076	18091.93
583.274	18233.24
583.471	17919.9
583.669	18059.16
583.866	17923.99
584.064	18276.24
584.262	17770.4
584.459	17682.33
584.657	17702.81
584.854	17958.81
585.052	17711
585.249	17524.64
585.447	17731.48
585.644	17473.44
585.841	17479.58
586.039	17833.88
586.236	17282.98
586.434	17387.43
586.631	17311.65
586.828	17229.73
587.026	17016.74
587.223	16990.12
587.42	17061.8
587.618	16988.07
587.815	16699.31
588.012	17004.46
588.21	16830.38
588.407	16900.01
588.604	16609.2
588.801	16478.13
588.999	16832.43
589.196	16850.86
589.393	16525.23
589.59	16668.59
589.787	16734.12
589.984	16545.71
590.182	16222.13
590.379	16324.53
590.576	16365.49
590.773	16406.45
590.97	15951.8
591.167	16398.26
591.364	16050.1
591.561	16273.33
591.758	16015.29
591.955	15861.69
592.152	15953.85
592.349	15769.53
592.546	16023.48
592.743	15890.36
592.94	15712.19
593.137	15933.37
593.334	15644.6
593.531	15169.48
593.727	15697.85
593.924	15589.31
594.121	15179.72
594.318	15714.23
594.515	15376.32
594.712	15368.13
594.908	15462.33
595.105	15185.86
595.302	15077.32
595.499	15206.34
595.696	15071.17
595.892	15083.46
596.089	14880.71
596.286	14749.64
596.482	14915.53
596.679	14993.35
596.876	14673.87
597.072	14768.07
597.269	14729.16
597.466	14757.83
597.662	14493.65
597.859	14567.37
598.055	14417.87
598.252	14434.25
598.448	14587.85
598.645	14512.08
598.841	14116.82
599.038	14208.98
599.234	14286.8
599.431	14194.64
599.627	14094.29
599.824	14149.59
600.02	13942.74
600.217	14200.79
600.413	14100.44
600.609	13823.96
600.806	14008.28
601.002	13891.54
601.198	13766.62
601.395	13768.66
601.591	13938.65
601.787	13846.49
601.984	13608.92
602.18	13688.79
602.376	13486.04
602.572	13418.46
602.769	13508.57
602.965	13750.23
603.161	13549.53
603.357	13371.36
603.553	13400.03
603.75	13365.21
603.946	13092.83
604.142	13271.01
604.338	12898.28
604.534	13062.12
604.73	12906.47
604.926	12853.22
605.122	13129.7
605.318	12812.26
605.514	13084.64
605.71	12627.95
605.906	12912.61
606.102	12840.93
606.298	12754.92
606.494	12720.1
606.69	12916.71
606.886	12589.03
607.082	12560.36
607.278	12814.31
607.474	12601.32
607.67	12629.99
607.866	12453.87
608.062	12599.27
608.257	12369.9
608.453	12351.47
608.649	12251.12
608.845	12388.33
609.041	12185.58
609.236	12001.27
609.432	12292.08
609.628	12267.5
609.824	12257.26
610.019	12161.01
610.215	12025.84
610.411	12343.28
610.606	12005.36
610.802	11921.4
610.998	12046.32
611.193	12015.6
611.389	11780.09
611.584	11853.81
611.78	11722.74
611.976	11810.81
612.171	11847.67
612.367	11915.25
612.562	11847.67
612.758	11548.67
612.953	11749.37
613.149	12072.95
613.344	11702.26
613.539	11771.9
613.735	11775.99
613.93	11669.5
614.126	11651.06
614.321	11620.35
614.517	11556.86
614.712	11540.47
614.907	11323.39
615.103	11458.56
615.298	11425.79
615.493	11749.37
615.688	11307.01
615.884	11456.51
616.079	11417.6
616.274	11380.73
616.47	11264
616.665	11259.9
616.86	11155.46
617.055	11307.01
617.25	11120.64
617.445	11196.42
617.641	10829.83
617.836	11204.61
618.031	10952.71
618.226	11241.47
618.421	10684.42
618.616	11065.35
618.811	10958.85
619.006	10866.69
619.201	10799.11
619.396	10858.5
619.591	10831.88
619.786	10876.93
619.981	10645.51
620.176	10795.01
620.371	10571.79
620.566	10618.89
620.761	10493.96
620.956	10315.79
621.151	10270.73
621.346	10539.02
621.541	10321.93
621.735	10309.65
621.93	10354.7
622.125	10246.16
622.32	10164.24
622.515	10106.9
622.709	10016.79
622.904	10033.17
623.099	10051.6
623.294	9977.87
623.488	9902.1
623.683	9746.45
623.878	9621.53
624.072	9625.62
624.267	9652.25
624.462	9783.32
624.656	9390.11
624.851	9519.13
625.046	9398.3
625.24	9357.34
625.435	9330.72
625.629	9267.23
625.824	9269.28
626.018	9156.64
626.213	8990.75
626.407	9091.1
626.602	8955.94
626.796	8978.47
626.991	8810.53
627.185	8691.75
627.38	8722.47
627.574	8800.29
627.768	8556.58
627.963	8689.7
628.157	8681.51
628.352	8681.51
628.546	8249.39
628.74	8560.68
628.935	8284.2
629.129	8470.57
629.323	8425.51
629.517	8312.88
629.712	8216.62
629.906	8321.07
630.1	8171.57
630.294	8286.25
630.489	7993.39
630.683	8226.86
630.877	7880.75
631.071	8093.74
631.265	7927.86
631.459	7880.75
631.653	7800.88
631.848	7835.7
632.042	7614.52
632.236	7757.88
632.43	7608.37
632.624	7688.25
632.818	7675.96
633.012	7467.06
633.206	7469.11
633.4	7712.82
633.594	7430.2
633.788	7303.23
633.982	7194.68
634.176	7467.06
634.369	7217.21
634.563	7077.95
634.757	7211.07
634.951	7383.1
635.145	7157.82
635.339	7172.16
635.533	6959.17
635.726	7051.33
635.92	7094.33
636.114	6891.59
636.308	6875.2
636.501	6731.84
636.695	6682.69
636.889	6924.35
637.083	6830.15
637.276	6828.1
637.47	6744.13
637.664	6596.68
637.857	6608.97
638.051	6619.21
638.244	6563.91
638.438	6559.81
638.632	6547.53
638.825	6533.19
639.019	6457.42
639.212	6352.97
639.406	6525
639.599	6223.95
639.793	6291.53
639.986	6152.27
640.18	6180.94
640.373	6103.12
640.567	6107.21
640.76	6068.3
640.954	6021.2
641.147	5888.08
641.34	5916.75
641.534	5970
641.727	5881.94
641.92	6082.64
642.114	5910.61
642.307	5851.22
642.5	5711.96
642.694	5673.04
642.887	5644.37
643.08	5734.48
643.273	5662.8
643.467	5625.94
643.66	5689.43
643.853	5425.24
644.046	5576.79
644.239	5623.89
644.432	5515.35
644.626	5523.54
644.819	5466.2
645.012	5326.94
645.205	5513.3
645.398	5474.39
645.591	5204.06
645.784	5333.08
645.977	5318.75
646.17	5298.27
646.363	5183.58
646.556	5189.72
646.749	5093.47
646.942	5060.7
647.135	5072.99
647.328	5124.19
647.521	5093.47
647.714	4876.38
647.907	4907.1
648.099	4851.81
648.292	4864.1
648.485	4819.04
648.678	4798.56
648.871	4767.84
649.064	4827.23
649.256	4771.94
649.449	4728.93
649.642	4692.07
649.835	4753.51
650.027	4659.3
650.22	4563.05
650.413	4661.35
650.605	4517.99
650.798	4653.16
650.991	4630.63
651.183	4499.56
651.376	4507.75
651.568	4552.81
651.761	4481.13
651.954	4298.86
652.146	4425.83
652.339	4583.52
652.531	4358.25
652.724	4409.45
652.916	4237.42
653.109	4298.86
653.301	4274.28
653.494	4300.91
653.686	4204.65
653.879	4327.53
654.071	4309.1
654.263	4053.1
654.456	4067.44
654.648	4208.75
654.84	4024.43
655.033	4063.34
655.225	4089.96
655.417	4141.16
655.61	4071.53
655.802	3893.36
655.994	3866.74
656.186	3938.41
656.379	4188.27
656.571	3930.22
656.763	3881.07
656.955	4006
657.148	3885.17
657.34	3883.12
657.532	3711.09
657.724	3797.1
657.916	3805.3
658.108	3760.24
658.3	3854.45
658.492	3809.39
658.684	3696.75
658.876	3768.43
659.068	3686.51
659.26	3684.47
659.452	3623.03
659.644	3713.14
659.836	3653.75
660.028	3668.08
660.22	3567.73
660.412	3575.92
660.604	3520.63
660.796	3547.25
660.988	3561.59
661.18	3506.29
661.372	3483.77
661.563	3453.05
661.755	3446.9
661.947	3397.75
662.139	3319.93
662.331	3434.61
662.522	3338.36
662.714	3364.98
662.906	3311.74
663.097	3289.21
663.289	3213.43
663.481	3313.78
663.673	3172.47
663.864	3213.43
664.056	3227.77
664.247	3104.89
664.439	3178.62
664.631	3115.13
664.822	3035.26
665.014	3188.86
665.205	3123.32
665.397	3125.37
665.588	3160.19
665.78	3039.36
665.971	3031.16
666.163	3086.46
666.354	3102.84
666.546	3025.02
666.737	3045.5
666.929	2992.25
667.12	3012.73
667.311	3012.73
667.503	2838.66
667.694	2955.39
667.885	2957.44
668.077	3016.83
668.268	2893.95
668.459	2881.66
668.651	2863.23
668.842	2828.42
669.033	2728.07
669.224	2855.04
669.416	2807.94
669.607	2812.03
669.798	2756.74
669.989	2871.42
670.18	2797.7
670.371	2691.2
670.563	2615.43
670.754	2680.96
670.945	2707.59
671.136	2726.02
671.327	2654.34
671.518	2588.8
671.709	2678.91
671.9	2656.39
672.091	2640
672.282	2680.96
672.473	2566.28
672.664	2683.01
672.855	2625.67
673.046	2549.89
673.237	2689.15
673.428	2521.22
673.619	2613.38
673.809	2420.87
674	2533.51
674.191	2652.29
674.382	2490.5
674.573	2599.04
674.764	2517.12
674.954	2510.98
675.145	2494.6
675.336	2506.88
675.527	2576.52
675.717	2480.26
675.908	2478.21
676.099	2537.6
676.289	2451.59
676.48	2408.58
676.671	2463.88
676.861	2504.84
677.052	2427.01
677.243	2427.01
677.433	2408.58
677.624	2504.84
677.814	2320.52
678.005	2414.73
678.195	2433.16
678.386	2341
678.576	2517.12
678.767	2367.62
678.957	2338.95
679.148	2455.69
679.338	2341
679.529	2300.04
679.719	2437.25
679.909	2381.96
680.1	2402.44
680.29	2480.26
680.481	2287.75
680.671	2349.19
680.861	2289.8
681.052	2345.09
681.242	2295.94
681.432	2359.43
681.622	2195.59
681.813	2300.04
682.003	2345.09
682.193	2304.14
682.383	2336.9
682.573	2341
682.764	2234.5
682.954	2341
683.144	2246.79
683.334	2244.74
683.524	2297.99
683.714	2158.73
683.904	2396.29
684.094	2267.27
684.284	2236.55
684.474	2232.46
684.664	2265.22
684.854	2308.23
685.044	2250.89
685.234	2230.41
685.424	2355.33
685.614	2267.27
685.804	2257.03
685.994	2181.26
686.184	2199.69
686.374	2316.42
686.564	2107.53
686.753	2234.5
686.943	2152.59
687.133	2132.11
687.323	2175.11
687.513	2123.91
687.702	1986.7
687.892	2068.62
688.082	2152.59
688.272	2091.15
688.461	2064.52
688.651	1986.7
688.841	2099.34
689.03	2078.86
689.22	1998.99
689.41	1986.7
689.599	2066.57
689.789	2058.38
689.979	2146.44
690.168	2011.28
690.358	1953.93
690.547	1931.41
690.737	1984.65
690.926	2052.24
691.116	2019.47
691.305	1882.25
691.495	2066.57
691.684	1921.17
691.874	1958.03
692.063	1925.26
692.252	1990.8
692.442	1972.36
692.631	1970.32
692.82	1880.21
693.01	1912.97
693.199	1859.73
693.388	1912.97
693.578	1978.51
693.767	1912.97
693.956	1917.07
694.146	1953.93
694.335	1853.58
694.524	1888.4
694.713	1810.58
694.902	1882.25
695.092	1863.82
695.281	1962.12
695.47	1882.25
695.659	1777.81
695.848	1806.48
696.037	1898.64
696.226	1888.4
696.415	1925.26
696.604	1853.58
696.793	1876.11
696.982	1890.45
697.171	1882.25
697.36	1773.71
697.549	1798.29
697.738	1804.43
697.927	1714.32
698.116	1835.15
698.305	1740.94
698.494	1814.67
698.683	1712.27
698.872	1888.4
699.061	1888.4
699.25	1802.38
699.438	1804.43
699.627	1835.15
699.816	1898.64
700.005	1829.01
700.193	1829.01
700.382	1804.43
700.571	1783.95
700.76	1953.93
700.948	1685.65
701.137	1818.77
701.326	1865.87
701.514	1812.62
701.703	1802.38
701.892	1771.66
702.08	1804.43
702.269	1831.05
702.457	1847.44
702.646	1851.53
702.834	1841.29
703.023	1742.99
703.212	1751.18
703.4	1783.95
703.589	1904.78
703.777	1853.58
703.965	1702.03
704.154	1755.28
704.342	1740.94
704.531	1767.57
704.719	1939.6
704.907	1972.36
705.096	1745.04
705.284	1745.04
705.472	1853.58
705.661	1826.96
705.849	1847.44
706.037	1888.4
706.226	1863.82
706.414	1919.12
706.602	1761.42
706.79	1792.14
706.979	1671.31
707.167	1884.3
707.355	1749.14
707.543	1820.81
707.731	1786
707.919	1818.77
708.107	1835.15
708.296	1812.62
708.484	1810.58
708.672	1851.53
708.86	1865.87
709.048	1798.29
709.236	1802.38
709.424	1820.81
709.612	1769.62
709.8	1804.43
709.988	1822.86
710.176	1771.66
710.364	1804.43
710.551	1796.24
710.739	1788.05
710.927	1818.77
711.115	1826.96
711.303	1859.73
711.491	1919.12
711.679	1824.91
711.866	1816.72
712.054	1796.24
712.242	1779.86
712.43	1939.6
712.617	1773.71
712.805	1755.28
712.993	1757.33
713.181	1818.77
713.368	1656.98
713.556	1826.96
713.744	1794.19
713.931	1882.25
714.119	1849.49
714.306	1855.63
714.494	1837.2
714.682	1792.14
714.869	1872.01
715.057	1812.62
715.244	1808.53
715.432	1771.66
715.619	1804.43
715.807	1835.15
715.994	1816.72
716.182	1771.66
716.369	1859.73
716.556	1888.4
716.744	1718.42
716.931	1872.01
717.119	1808.53
717.306	1702.03
717.493	1904.78
717.681	1775.76
717.868	1804.43
718.055	1853.58
718.242	1818.77
718.43	1855.63
718.617	1788.05
718.804	1818.77
718.991	1847.44
719.179	1853.58
719.366	1810.58
719.553	1874.06
719.74	1816.72
719.927	1947.79
720.114	1894.54
720.301	1841.29
720.488	1734.8
720.676	1783.95
720.863	1849.49
721.05	1855.63
721.237	1769.62
721.424	1841.29
721.611	1863.82
721.798	1777.81
721.985	1794.19
722.172	1874.06
722.358	1794.19
722.545	1859.73
722.732	1837.2
722.919	1710.22
723.106	1937.55
723.293	1779.86
723.48	1783.95
723.667	1753.23
723.853	1759.38
724.04	1853.58
724.227	1865.87
724.414	1841.29
724.6	1955.98
724.787	1896.59
724.974	1837.2
725.161	1855.63
725.347	1788.05
725.534	1824.91
725.72	1794.19
725.907	1849.49
726.094	1837.2
726.28	1876.11
726.467	1820.81
726.653	1769.62
726.84	1884.3
727.027	1810.58
727.213	1718.42
727.4	1810.58
727.586	1751.18
727.773	1882.25
727.959	1751.18
728.145	1833.1
728.332	1806.48
728.518	1853.58
728.705	1783.95
728.891	1849.49
729.077	1726.61
729.264	1781.9
729.45	1810.58
729.636	1837.2
729.823	1892.49
730.009	1730.7
730.195	1943.69
730.382	1810.58
730.568	1880.21
730.754	1833.1
730.94	1767.57
731.126	1796.24
731.313	1800.34
731.499	1790.1
731.685	1755.28
731.871	1804.43
732.057	1882.25
732.243	1796.24
732.429	1849.49
732.615	1798.29
732.801	1898.64
732.987	1788.05
733.173	1829.01
733.359	1884.3
733.545	1745.04
733.731	1802.38
733.917	1906.83
734.103	1867.92
734.289	1769.62
734.475	1843.34
734.661	1812.62
734.847	1810.58
735.033	1753.23
735.219	1767.57
735.404	1837.2
735.59	1808.53
735.776	1829.01
735.962	1671.31
736.148	1847.44
736.333	1747.09
736.519	1884.3
736.705	1732.75
736.89	1777.81
737.076	1847.44
737.262	1761.42
737.447	1777.81
737.633	1745.04
737.819	1702.03
738.004	1689.74
738.19	1685.65
738.375	1841.29
738.561	1808.53
738.747	1794.19
738.932	1716.37
739.118	1716.37
739.303	1730.7
739.489	1702.03
739.674	1761.42
739.859	1650.83
740.045	1726.61
740.23	1775.76
740.416	1603.73
740.601	1732.75
740.786	1656.98
740.972	1687.7
741.157	1745.04
741.342	1556.63
741.528	1669.27
741.713	1607.83
741.898	1527.96
742.084	1587.35
742.269	1663.12
742.454	1652.88
742.639	1577.11
742.824	1624.21
743.01	1702.03
743.195	1583.25
743.38	1720.46
743.565	1538.2
743.75	1583.25
743.935	1618.07
744.12	1589.39
744.305	1663.12
744.49	1552.53
744.675	1546.39
744.86	1550.48
745.045	1530
745.23	1517.72
745.415	1579.15
745.6	1501.33
745.785	1521.81
745.97	1489.04
746.155	1525.91
746.34	1525.91
746.525	1462.42
746.71	1589.39
746.895	1503.38
747.079	1491.09
747.264	1411.22
747.449	1423.51
747.634	1355.93
747.819	1427.6
748.003	1448.08
748.188	1386.65
748.373	1464.47
748.557	1435.8
748.742	1357.97
748.927	1431.7
749.111	1403.03
749.296	1343.64
749.481	1382.55
749.665	1290.39
749.85	1331.35
750.034	1423.51
750.219	1390.74
750.404	1304.73
750.588	1302.68
750.773	1321.11
750.957	1437.84
751.141	1251.48
751.326	1306.77
751.51	1286.3
751.695	1251.48
751.879	1317.01
752.064	1235.1
752.248	1292.44
752.432	1218.71
752.617	1175.7
752.801	1177.75
752.985	1132.7
753.17	1278.1
753.354	1271.96
753.538	1206.42
753.722	1124.51
753.907	1198.23
754.091	1200.28
754.275	1122.46
754.459	1153.18
754.643	1112.22
754.828	1120.41
755.012	1173.66
755.196	1099.93
755.38	1099.93
755.564	1032.35
755.748	1054.87
755.932	1065.11
756.116	1099.93
756.3	1161.37
756.484	1134.75
756.668	1099.93
756.852	1052.83
757.036	1036.44
757.22	1034.39
757.404	923.8
757.588	1001.63
757.772	979.1
757.956	954.52
758.14	970.91
758.323	1003.68
758.507	983.2
758.691	944.28
758.875	934.04
759.059	1022.11
759.242	944.28
759.426	913.56
759.61	964.76
759.794	1067.16
759.977	999.58
760.161	927.9
760.345	901.28
760.528	940.19
760.712	837.79
760.895	878.75
761.079	979.1
761.263	907.42
761.446	911.52
761.63	901.28
761.813	841.89
761.997	911.52
762.18	835.74
762.364	876.7
762.547	856.22
762.731	917.66
762.914	948.38
763.098	878.75
763.281	837.79
763.464	774.3
763.648	858.27
763.831	866.46
764.015	800.93
764.198	788.64
764.381	733.34
764.564	854.17
764.748	807.07
764.931	825.5
765.114	780.45
765.297	798.88
765.481	645.28
765.664	809.12
765.847	774.3
766.03	854.17
766.213	753.82
766.397	809.12
766.58	704.67
766.763	800.93
766.946	768.16
767.129	700.58
767.312	716.96
767.495	745.63
767.678	632.99
767.861	805.02
768.044	684.19
768.227	710.82
768.41	729.25
768.593	747.68
768.776	770.21
768.959	686.24
769.142	815.26
769.324	776.35
769.507	759.97
769.69	755.87
769.873	706.72
770.056	766.11
770.239	792.73
770.421	731.3
770.604	692.38
770.787	759.97
770.97	673.95
771.152	762.02
771.335	686.24
771.518	780.45
771.7	620.71
771.883	639.14
772.066	602.27
772.248	723.1
772.431	649.38
772.613	678.05
772.796	696.48
772.978	630.95
773.161	725.15
773.343	665.76
773.526	606.37
773.708	571.55
773.891	653.47
774.073	579.75
774.256	657.57
774.438	655.52
774.621	600.23
774.803	563.36
774.985	608.42
775.168	620.71
775.35	596.13
775.532	667.81
775.715	475.3
775.897	614.56
776.079	575.65
776.261	649.38
776.444	598.18
776.626	620.71
776.808	587.94
776.99	544.93
777.173	497.83
777.355	600.23
777.537	546.98
777.719	649.38
777.901	499.88
778.083	501.92
778.265	491.68
778.447	518.31
778.629	508.07
778.811	473.25
778.993	546.98
779.175	536.74
779.357	522.4
779.539	493.73
779.721	530.59
779.903	485.54
780.085	430.24
780.267	442.53
780.449	497.83
780.631	510.11
780.812	551.07
780.994	444.58
781.176	514.21
781.358	397.48
781.54	391.33
781.721	454.82
781.903	442.53
782.085	405.67
782.267	491.68
782.448	409.76
782.63	397.48
782.812	407.72
782.993	377
783.175	405.67
783.357	463.01
783.538	356.52
783.72	348.33
783.901	381.09
784.083	362.66
784.264	440.48
784.446	350.37
784.627	338.09
784.809	428.2
784.99	385.19
785.172	458.92
785.353	356.52
785.535	362.66
785.716	360.61
785.897	305.32
786.079	344.23
786.26	370.85
786.441	336.04
786.623	350.37
786.804	354.47
786.985	338.09
787.167	299.17
787.348	372.9
787.529	295.08
787.71	389.28
787.891	329.89
788.073	346.28
788.254	290.98
788.435	354.47
788.616	366.76
788.797	262.31
788.978	231.59
789.159	309.41
789.34	245.93
789.522	315.56
789.703	256.17
789.884	393.38
790.065	333.99
790.246	317.61
790.427	243.88
790.607	329.89
790.788	237.74
790.969	270.5
791.15	254.12
791.331	352.42
791.512	301.22
791.693	270.5
791.874	266.41
792.054	280.74
792.235	241.83
792.416	329.89
792.597	231.59
792.778	241.83
792.958	219.3
793.139	288.93
793.32	260.26
793.5	133.29
793.681	256.17
793.862	264.36
794.042	178.34
794.223	219.3
794.404	290.98
794.584	274.6
794.765	207.02
794.945	250.02
795.126	260.26
795.306	186.54
795.487	260.26
795.667	204.97
795.848	213.16
796.028	225.45
796.209	272.55
796.389	159.91
796.57	221.35
796.75	170.15
796.93	178.34
797.111	209.06
797.291	213.16
797.471	290.98
797.652	241.83
797.832	235.69
798.012	217.26
798.192	282.79
798.373	174.25
798.553	231.59
798.733	190.63
798.913	209.06
799.093	182.44
799.274	223.4
799.454	243.88
799.634	231.59
799.814	219.3
799.994	243.88
800.174	239.78
800.354	207.02
800.534	217.26
800.714	233.64
800.894	176.3
801.074	166.06
801.254	98.47
801.434	178.34
801.614	143.53
801.794	114.86
801.974	587.94
802.154	204.97
802.334	209.06
802.514	106.67
802.693	211.11
802.873	239.78
803.053	194.73
803.233	227.5
803.413	133.29
803.592	127.14
803.772	262.31
803.952	200.87
804.131	84.14
804.311	159.91
804.491	125.1
804.67	125.1
804.85	137.38
805.03	118.95
805.209	153.77
805.389	100.52
805.568	231.59
805.748	250.02
805.928	186.54
806.107	243.88
806.287	170.15
806.466	196.78
806.646	108.71
806.825	225.45
807.004	121
807.184	186.54
807.363	131.24
807.543	151.72
807.722	135.34
807.901	141.48
808.081	125.1
808.26	30.89
808.439	129.19
808.619	110.76
808.798	129.19
808.977	104.62
809.156	172.2
809.336	129.19
809.515	161.96
809.694	147.62
809.873	161.96
810.052	159.91
810.231	178.34
810.411	135.34
810.59	192.68
810.769	129.19
810.948	161.96
811.127	80.04
811.306	98.47
811.485	143.53
811.664	237.74
811.843	65.71
812.022	80.04
812.201	145.58
812.38	102.57
812.559	90.28
812.737	209.06
812.916	47.27
813.095	53.42
813.274	123.05
813.453	145.58
813.632	229.54
813.811	168.1
813.989	84.14
814.168	75.95
814.347	121
814.526	121
814.704	125.1
814.883	123.05
815.062	192.68
815.24	121
815.419	94.38
815.598	73.9
815.776	116.9
815.955	121
816.133	67.75
816.312	102.57
816.49	121
816.669	90.28
816.847	51.37
817.026	157.86
817.204	102.57
817.383	49.32
817.561	174.25
817.74	129.19
817.918	135.34
818.097	84.14
818.275	178.34
818.453	98.47
818.632	186.54
818.81	159.91
818.988	75.95
819.167	84.14
819.345	67.75
819.523	94.38
819.701	2.22
819.879	141.48
820.058	61.61
820.236	84.14
820.414	71.85
820.592	98.47
820.77	110.76
820.948	84.14
821.127	108.71
821.305	84.14
821.483	121
821.661	96.43
821.839	61.61
822.017	80.04
822.195	127.14
822.373	77.99
822.551	88.23
822.729	75.95
822.907	55.47
823.085	100.52
823.262	129.19
823.44	67.75
823.618	77.99
823.796	118.95
823.974	102.57
824.152	116.9
824.329	114.86
824.507	41.13
824.685	24.75
824.863	141.48
825.04	123.05
825.218	59.56
825.396	106.67
825.574	80.04
825.751	41.13
825.929	43.18
826.107	-22.36
826.284	129.19
826.462	71.85
826.639	118.95
826.817	98.47
826.994	108.71
827.172	69.8
827.349	94.38
827.527	51.37
827.704	32.94
827.882	98.47
828.059	2.22
828.237	47.27
828.414	30.89
828.591	-16.21
828.769	102.57
828.946	75.95
829.124	100.52
829.301	129.19
829.478	80.04
829.655	82.09
829.833	94.38
830.01	37.03
830.187	69.8
830.364	-18.26
830.542	106.67
830.719	51.37
830.896	100.52
831.073	-1.88
831.25	59.56
831.427	34.99
831.604	55.47
831.782	86.19
831.959	116.9
832.136	92.33
832.313	69.8
832.49	45.23
832.667	100.52
832.844	32.94
833.021	80.04
833.198	80.04
833.374	37.03
833.551	75.95
833.728	67.75
833.905	63.66
834.082	166.06
834.259	14.51
834.436	86.19
834.612	26.79
834.789	75.95
834.966	12.46
835.143	121
835.319	39.08
835.496	41.13
835.673	18.6
835.85	73.9
836.026	49.32
836.203	67.75
836.38	24.75
836.556	80.04
836.733	30.89
836.909	73.9
837.086	-1.88
837.262	-12.12
837.439	-1.88
837.616	28.84
837.792	-5.97
837.968	18.6
838.145	-5.97
838.321	2.22
838.498	88.23
838.674	32.94
838.851	4.27
839.027	73.9
839.203	75.95
839.38	-10.07
839.556	47.27
839.732	102.57
839.909	18.6
840.085	34.99
840.261	26.79
840.437	116.9
840.614	-14.17
840.79	84.14
840.966	84.14
841.142	57.51
841.318	22.7
841.494	69.8
841.671	63.66
841.847	49.32
842.023	55.47
842.199	88.23
842.375	30.89
842.551	22.7
842.727	-18.26
842.903	39.08
843.079	24.75
843.255	67.75
843.431	131.24
843.607	73.9
843.783	20.65
843.959	55.47
844.134	-30.55
844.31	86.19
844.486	51.37
844.662	100.52
844.838	-1.88
845.013	28.84
845.189	61.61
845.365	12.46
845.541	24.75
845.716	0.17
845.892	47.27
846.068	-18.26
846.244	10.41
846.419	61.61
846.595	18.6
846.77	-28.5
846.946	63.66
847.122	24.75
847.297	-1.88
847.473	34.99
847.648	-28.5
847.824	133.29
847.999	-24.4
848.175	51.37
848.35	-30.55
848.526	26.79
848.701	4.27
848.876	30.89
849.052	80.04
849.227	-10.07
849.403	14.51
849.578	69.8
849.753	55.47
849.929	32.94
850.104	28.84
850.279	26.79
850.454	-24.4
850.63	28.84
850.805	-1.88
850.98	71.85
851.155	26.79
851.33	39.08
851.505	-79.7
851.681	45.23
851.856	61.61
852.031	8.36
852.206	30.89
852.381	-73.56
852.556	41.13
852.731	8.36
852.906	0.17
853.081	-61.27
853.256	30.89
853.431	0.17
853.606	-8.02
853.781	26.79
853.956	24.75
854.131	24.75
854.305	57.51
854.48	102.57
854.655	-3.93
854.83	-67.41
855.005	-24.4
855.18	-12.12
855.354	-30.55
855.529	67.75
855.704	-32.6
855.879	47.27
856.053	-30.55
856.228	-16.21
856.403	12.46
856.577	-63.32
856.752	-67.41
856.926	80.04
857.101	-65.36
857.276	-71.51
857.45	4.27
857.625	10.41
857.799	-16.21
857.974	-5.97
858.148	-34.64
858.323	77.99
858.497	88.23
858.672	-5.97
858.846	63.66
859.02	71.85
859.195	22.7
859.369	2.22
859.543	-8.02
859.718	-8.02
859.892	-38.74
860.066	6.31
860.241	20.65
860.415	24.75
860.589	2.22
860.763	-22.36
860.938	30.89
861.112	-14.17
861.286	-14.17
861.46	-53.08
861.634	-3.93
861.808	34.99
861.982	-5.97
862.157	32.94
862.331	-1.88
862.505	-20.31
862.679	-14.17
862.853	77.99
863.027	8.36
863.201	-32.6
863.375	-69.46
863.549	12.46
863.722	-5.97
863.896	82.09
864.07	-79.7
864.244	53.42
864.418	-32.6
864.592	-14.17
864.766	41.13
864.939	24.75
865.113	0.17
865.287	104.62
865.461	37.03
865.634	49.32
865.808	49.32
865.982	88.23
866.156	-26.45
866.329	-8.02
866.503	65.71
866.676	22.7
866.85	39.08
867.024	-5.97
867.197	6.31
867.371	0.17
867.544	-38.74
867.718	-26.45
867.891	45.23
868.065	-36.69
868.238	49.32
868.412	43.18
868.585	-65.36
868.759	10.41
868.932	22.7
869.105	-57.17
869.279	-18.26
869.452	-16.21
869.625	37.03
869.799	30.89
869.972	-81.75
870.145	-22.36
870.319	-5.97
870.492	-69.46
870.665	-18.26
870.838	-38.74
871.011	-55.12
871.185	61.61
871.358	-3.93
871.531	82.09
871.704	-16.21
871.877	-24.4
872.05	-42.84
872.223	-10.07
872.396	88.23
872.569	-83.8
872.742	-1.88
872.915	30.89
873.088	-51.03
873.261	18.6
873.434	43.18
873.607	41.13
873.78	-32.6
873.953	-12.12
874.126	12.46
874.299	-3.93
874.471	-34.64
874.644	-44.88
874.817	82.09
874.99	57.51
875.163	-59.22
875.335	37.03
875.508	51.37
875.681	2.22
875.853	-3.93
876.026	24.75
876.199	-10.07
876.371	32.94
876.544	30.89
876.717	-8.02
876.889	55.47
877.062	22.7
877.234	-34.64
877.407	-28.5
877.579	-5.97
877.752	2.22
877.924	30.89
878.097	-102.23
878.269	6.31
878.442	14.51
878.614	-8.02
878.786	47.27
878.959	77.99
879.131	22.7
879.303	-71.51
879.476	49.32
879.648	10.41
879.82	-3.93
879.993	-51.03
880.165	-22.36
880.337	-55.12
880.509	26.79
880.681	-26.45
880.854	55.47
881.026	-1.88
881.198	6.31
881.37	-55.12
881.542	65.71
881.714	-10.07
881.886	-57.17
882.058	-18.26
882.23	-36.69
882.402	-30.55
882.574	2.22
882.746	-38.74
882.918	6.31
883.09	-20.31
883.262	-8.02
883.434	-36.69
883.606	39.08
883.778	6.31
883.95	51.37
884.122	20.65
884.293	55.47
884.465	47.27
884.637	-18.26
884.809	6.31
884.98	2.22
885.152	-18.26
885.324	59.56
885.496	-32.6
885.667	-32.6
885.839	-30.55
886.011	-26.45
886.182	-18.26
886.354	-24.4
886.525	-34.64
886.697	30.89
886.869	59.56
887.04	20.65
887.212	-18.26
887.383	-26.45
887.555	-51.03
887.726	6.31
887.897	-42.84
888.069	18.6
888.24	-42.84
888.412	-26.45
888.583	41.13
888.754	-24.4
888.926	37.03
889.097	-12.12
889.268	-40.79
889.44	63.66
889.611	-32.6
889.782	-116.56
889.953	22.7
890.125	47.27
890.296	-3.93
890.467	-12.12
890.638	-22.36
890.809	-59.22
890.98	16.55
891.151	-28.5
891.323	69.8
891.494	-46.93
891.665	4.27
891.836	77.99
892.007	-1.88
892.178	-22.36
892.349	-20.31
892.52	61.61
892.691	22.7
892.862	14.51
893.032	-42.84
893.203	-55.12
893.374	24.75
893.545	-38.74
893.716	-34.64
893.887	14.51
894.057	-30.55
894.228	55.47
894.399	-40.79
894.57	-22.36
894.74	59.56
894.911	-12.12
895.082	-153.43
895.253	-57.17
895.423	30.89
895.594	-14.17
895.764	-20.31
895.935	-89.94
896.106	16.55
896.276	16.55
896.447	53.42
896.617	6.31
896.788	-67.41
896.958	-30.55
897.129	-5.97
897.299	71.85
897.47	-122.71
897.64	-42.84
897.81	-55.12
897.981	-16.21
898.151	-5.97
898.322	6.31
898.492	-18.26
898.662	8.36
898.832	-71.51
899.003	12.46
899.173	73.9
899.343	-3.93
899.513	45.23
