Data from USB4F104151__259__11-11-50-208.txt Node

Date: Wed Mar 12 11:11:50 EDT 2025
User: louis
Spectrometer: USB4F10415
Trigger mode: 4
Integration Time (sec): 2.000000E-2
Scans to average: 1
Electric dark correction enabled: true
Nonlinearity correction enabled: false
Boxcar width: 0
XAxis mode: Wavelengths
Number of Pixels in Spectrum: 3648
>>>>>Begin Spectral Data<<<<<
178.204	-38.06
178.424	-38.06
178.644	-38.06
178.864	-83.11
179.084	-87.21
179.304	66.39
179.524	23.38
179.744	-74.92
179.964	-38.06
180.184	68.44
180.404	37.72
180.624	-33.96
180.844	15.19
181.064	72.53
181.283	-81.07
181.503	0.85
181.723	-56.49
181.943	-38.06
182.163	-11.43
182.383	13.14
182.602	4.95
182.822	-7.34
183.042	-40.11
183.262	41.81
183.482	17.24
183.701	-40.11
183.921	88.92
184.141	-15.53
184.361	37.72
184.58	11.09
184.8	17.24
185.02	-50.35
185.239	29.52
185.459	29.52
185.679	-38.06
185.898	-9.39
186.118	74.58
186.338	56.15
186.557	21.33
186.777	-60.59
186.997	-7.34
187.216	25.43
187.436	7
187.655	-44.2
187.875	109.4
188.095	107.35
188.314	21.33
188.534	33.62
188.753	29.52
188.973	7
189.192	60.24
189.412	125.78
189.631	23.38
189.851	-19.63
190.07	54.1
190.29	-74.92
190.509	-7.34
190.729	-9.39
190.948	25.43
191.168	80.72
191.387	62.29
191.607	-23.72
191.826	13.14
192.045	-11.43
192.265	-36.01
192.484	13.14
192.704	17.24
192.923	-5.29
193.142	-1.19
193.362	45.91
193.581	-23.72
193.8	-13.48
194.02	66.39
194.239	7
194.458	37.72
194.678	-54.44
194.897	62.29
195.116	35.67
195.335	25.43
195.555	50
195.774	-11.43
195.993	21.33
196.212	39.76
196.432	2.9
196.651	-54.44
196.87	13.14
197.089	4.95
197.308	45.91
197.528	99.16
197.747	2.9
197.966	0.85
198.185	66.39
198.404	-38.06
198.623	41.81
198.842	86.87
199.062	-29.87
199.281	93.01
199.5	15.19
199.719	29.52
199.938	62.29
200.157	56.15
200.376	25.43
200.595	76.63
200.814	13.14
201.033	9.05
201.252	41.81
201.471	7
201.69	29.52
201.909	97.11
202.128	13.14
202.347	82.77
202.566	25.43
202.785	-27.82
203.004	52.05
203.223	-15.53
203.442	45.91
203.661	-25.77
203.879	68.44
204.098	7
204.317	17.24
204.536	93.01
204.755	62.29
204.974	17.24
205.193	45.91
205.411	76.63
205.63	-5.29
205.849	103.25
206.068	17.24
206.287	33.62
206.505	70.48
206.724	66.39
206.943	25.43
207.162	-42.15
207.381	-13.48
207.599	115.54
207.818	43.86
208.037	31.57
208.255	13.14
208.474	-15.53
208.693	-13.48
208.911	56.15
209.13	43.86
209.349	-11.43
209.567	76.63
209.786	45.91
210.005	29.52
210.223	-42.15
210.442	-40.11
210.661	23.38
210.879	21.33
211.098	31.57
211.316	25.43
211.535	7
211.753	4.95
211.972	7
212.191	-42.15
212.409	21.33
212.628	58.2
212.846	33.62
213.065	11.09
213.283	74.58
213.502	2.9
213.72	35.67
213.938	-40.11
214.157	29.52
214.375	56.15
214.594	-40.11
214.812	43.86
215.031	113.49
215.249	-1.19
215.467	101.2
215.686	17.24
215.904	60.24
216.122	-36.01
216.341	97.11
216.559	-5.29
216.778	70.48
216.996	-1.19
217.214	82.77
217.432	21.33
217.651	60.24
217.869	2.9
218.087	15.19
218.306	84.82
218.524	21.33
218.742	21.33
218.96	80.72
219.179	4.95
219.397	7
219.615	-13.48
219.833	2.9
220.051	17.24
220.27	115.54
220.488	-29.87
220.706	62.29
220.924	7
221.142	23.38
221.36	4.95
221.578	50
221.796	-64.68
222.015	62.29
222.233	35.67
222.451	37.72
222.669	0.85
222.887	25.43
223.105	-19.63
223.323	-3.24
223.541	-3.24
223.759	13.14
223.977	62.29
224.195	-3.24
224.413	58.2
224.631	17.24
224.849	105.3
225.067	70.48
225.285	21.33
225.503	70.48
225.721	31.57
225.939	-42.15
226.157	43.86
226.375	82.77
226.592	13.14
226.81	17.24
227.028	121.68
227.246	11.09
227.464	-15.53
227.682	23.38
227.9	47.96
228.117	54.1
228.335	-31.91
228.553	50
228.771	2.9
228.989	107.35
229.206	-1.19
229.424	-29.87
229.642	99.16
229.86	4.95
230.077	29.52
230.295	142.16
230.513	43.86
230.731	47.96
230.948	39.76
231.166	70.48
231.384	2.9
231.601	17.24
231.819	9.05
232.037	41.81
232.254	21.33
232.472	31.57
232.689	4.95
232.907	19.29
233.125	90.96
233.342	78.68
233.56	-56.49
233.777	-11.43
233.995	35.67
234.213	64.34
234.43	11.09
234.648	29.52
234.865	-19.63
235.083	68.44
235.3	19.29
235.518	19.29
235.735	19.29
235.953	76.63
236.17	9.05
236.388	47.96
236.605	11.09
236.822	39.76
237.04	17.24
237.257	52.05
237.475	-48.3
237.692	115.54
237.909	58.2
238.127	88.92
238.344	17.24
238.562	47.96
238.779	27.48
238.996	43.86
239.214	0.85
239.431	-3.24
239.648	11.09
239.865	15.19
240.083	31.57
240.3	68.44
240.517	-11.43
240.735	-74.92
240.952	70.48
241.169	4.95
241.386	-9.39
241.603	-23.72
241.821	29.52
242.038	33.62
242.255	33.62
242.472	13.14
242.689	62.29
242.907	80.72
243.124	37.72
243.341	25.43
243.558	9.05
243.775	29.52
243.992	64.34
244.209	21.33
244.426	56.15
244.643	25.43
244.86	29.52
245.078	19.29
245.295	-76.97
245.512	-7.34
245.729	9.05
245.946	74.58
246.163	19.29
246.38	-36.01
246.597	50
246.814	4.95
247.031	-48.3
247.248	64.34
247.464	15.19
247.681	45.91
247.898	0.85
248.115	66.39
248.332	33.62
248.549	19.29
248.766	95.06
248.983	29.52
249.2	-62.63
249.417	25.43
249.633	-48.3
249.85	78.68
250.067	50
250.284	29.52
250.501	37.72
250.717	105.3
250.934	25.43
251.151	60.24
251.368	105.3
251.585	9.05
251.801	13.14
252.018	21.33
252.235	60.24
252.451	-42.15
252.668	21.33
252.885	-5.29
253.102	35.67
253.318	29.52
253.535	-62.63
253.752	43.86
253.968	29.52
254.185	45.91
254.401	-15.53
254.618	78.68
254.835	-19.63
255.051	76.63
255.268	43.86
255.484	70.48
255.701	29.52
255.917	29.52
256.134	-25.77
256.351	33.62
256.567	7
256.784	-11.43
257	25.43
257.217	-21.67
257.433	-11.43
257.65	103.25
257.866	76.63
258.082	33.62
258.299	27.48
258.515	27.48
258.732	64.34
258.948	60.24
259.165	99.16
259.381	70.48
259.597	33.62
259.814	-42.15
260.03	-117.93
260.246	19.29
260.463	86.87
260.679	39.76
260.895	-42.15
261.112	-52.39
261.328	11.09
261.544	0.85
261.761	2.9
261.977	-13.48
262.193	11.09
262.409	-46.25
262.626	80.72
262.842	-36.01
263.058	9.05
263.274	33.62
263.49	13.14
263.707	39.76
263.923	60.24
264.139	64.34
264.355	-7.34
264.571	86.87
264.787	-60.59
265.004	0.85
265.22	27.48
265.436	66.39
265.652	-3.24
265.868	158.55
266.084	78.68
266.3	-42.15
266.516	-13.48
266.732	-19.63
266.948	54.1
267.164	41.81
267.38	76.63
267.596	7
267.812	74.58
268.028	23.38
268.244	4.95
268.46	62.29
268.676	0.85
268.892	9.05
269.108	4.95
269.324	7
269.54	2.9
269.756	54.1
269.972	-21.67
270.188	7
270.403	54.1
270.619	56.15
270.835	21.33
271.051	25.43
271.267	-15.53
271.483	54.1
271.698	-11.43
271.914	27.48
272.13	52.05
272.346	41.81
272.562	-3.24
272.777	31.57
272.993	29.52
273.209	25.43
273.425	43.86
273.64	-58.54
273.856	41.81
274.072	0.85
274.287	7
274.503	88.92
274.719	60.24
274.934	88.92
275.15	-19.63
275.366	15.19
275.581	7
275.797	82.77
276.012	17.24
276.228	-3.24
276.444	52.05
276.659	72.53
276.875	-19.63
277.09	68.44
277.306	43.86
277.521	15.19
277.737	9.05
277.952	41.81
278.168	72.53
278.383	31.57
278.599	90.96
278.814	45.91
279.03	27.48
279.245	82.77
279.461	-23.72
279.676	41.81
279.892	-64.68
280.107	2.9
280.322	25.43
280.538	11.09
280.753	-46.25
280.969	13.14
281.184	31.57
281.399	15.19
281.615	9.05
281.83	-31.91
282.045	41.81
282.26	17.24
282.476	41.81
282.691	97.11
282.906	21.33
283.122	-11.43
283.337	17.24
283.552	17.24
283.767	-15.53
283.983	37.72
284.198	-5.29
284.413	41.81
284.628	-9.39
284.843	9.05
285.058	50
285.274	-58.54
285.489	125.78
285.704	80.72
285.919	97.11
286.134	-15.53
286.349	37.72
286.564	19.29
286.779	66.39
286.995	33.62
287.21	50
287.425	31.57
287.64	-74.92
287.855	-17.58
288.07	-83.11
288.285	50
288.5	13.14
288.715	107.35
288.93	-42.15
289.145	0.85
289.36	7
289.575	21.33
289.79	25.43
290.004	74.58
290.219	-3.24
290.434	-3.24
290.649	-11.43
290.864	39.76
291.079	11.09
291.294	43.86
291.509	29.52
291.724	-3.24
291.938	-66.73
292.153	78.68
292.368	23.38
292.583	47.96
292.798	52.05
293.012	7
293.227	-15.53
293.442	-5.29
293.657	88.92
293.871	62.29
294.086	70.48
294.301	33.62
294.516	4.95
294.73	15.19
294.945	-79.02
295.16	35.67
295.374	88.92
295.589	72.53
295.804	39.76
296.018	33.62
296.233	101.2
296.447	39.76
296.662	152.4
296.877	-9.39
297.091	52.05
297.306	45.91
297.52	25.43
297.735	13.14
297.949	11.09
298.164	-23.72
298.378	35.67
298.593	70.48
298.807	-11.43
299.022	17.24
299.236	9.05
299.451	31.57
299.665	-11.43
299.88	35.67
300.094	-11.43
300.309	25.43
300.523	33.62
300.737	80.72
300.952	15.19
301.166	45.91
301.381	29.52
301.595	45.91
301.809	29.52
302.024	15.19
302.238	-15.53
302.452	76.63
302.667	4.95
302.881	35.67
303.095	58.2
303.309	56.15
303.524	21.33
303.738	13.14
303.952	-48.3
304.166	47.96
304.381	76.63
304.595	37.72
304.809	11.09
305.023	25.43
305.237	-15.53
305.452	56.15
305.666	86.87
305.88	62.29
306.094	95.06
306.308	35.67
306.522	111.44
306.736	39.76
306.95	-3.24
307.164	9.05
307.379	-42.15
307.593	17.24
307.807	58.2
308.021	11.09
308.235	27.48
308.449	17.24
308.663	-25.77
308.877	15.19
309.091	19.29
309.305	4.95
309.519	4.95
309.733	62.29
309.947	45.91
310.161	13.14
310.374	33.62
310.588	62.29
310.802	9.05
311.016	-1.19
311.23	39.76
311.444	4.95
311.658	113.49
311.872	105.3
312.085	-3.24
312.299	33.62
312.513	21.33
312.727	109.4
312.941	-40.11
313.154	72.53
313.368	29.52
313.582	-3.24
313.796	41.81
314.009	109.4
314.223	15.19
314.437	74.58
314.651	37.72
314.864	-38.06
315.078	45.91
315.292	72.53
315.505	-7.34
315.719	70.48
315.933	37.72
316.146	-58.54
316.36	33.62
316.573	76.63
316.787	107.35
317.001	19.29
317.214	54.1
317.428	-31.91
317.641	-48.3
317.855	-15.53
318.068	4.95
318.282	27.48
318.495	70.48
318.709	52.05
318.922	70.48
319.136	2.9
319.349	60.24
319.563	39.76
319.776	111.44
319.99	54.1
320.203	58.2
320.417	4.95
320.63	62.29
320.843	23.38
321.057	19.29
321.27	123.73
321.483	86.87
321.697	-15.53
321.91	17.24
322.124	25.43
322.337	105.3
322.55	66.39
322.763	76.63
322.977	21.33
323.19	-21.67
323.403	25.43
323.617	50
323.83	76.63
324.043	-7.34
324.256	29.52
324.469	7
324.683	27.48
324.896	-29.87
325.109	95.06
325.322	-36.01
325.535	78.68
325.748	62.29
325.962	74.58
326.175	-40.11
326.388	58.2
326.601	4.95
326.814	78.68
327.027	121.68
327.24	58.2
327.453	25.43
327.666	103.25
327.879	41.81
328.092	29.52
328.305	-7.34
328.518	-1.19
328.731	-23.72
328.944	80.72
329.157	21.33
329.37	-3.24
329.583	76.63
329.796	140.12
330.009	-29.87
330.222	9.05
330.435	33.62
330.648	74.58
330.861	97.11
331.073	88.92
331.286	62.29
331.499	50
331.712	13.14
331.925	15.19
332.138	47.96
332.35	29.52
332.563	19.29
332.776	115.54
332.989	-1.19
333.202	66.39
333.414	41.81
333.627	50
333.84	13.14
334.053	54.1
334.265	29.52
334.478	-11.43
334.691	-23.72
334.903	41.81
335.116	113.49
335.329	90.96
335.541	43.86
335.754	15.19
335.966	29.52
336.179	64.34
336.392	35.67
336.604	58.2
336.817	62.29
337.029	19.29
337.242	66.39
337.454	123.73
337.667	41.81
337.88	-19.63
338.092	21.33
338.305	41.81
338.517	23.38
338.729	29.52
338.942	27.48
339.154	-1.19
339.367	-17.58
339.579	-7.34
339.792	-17.58
340.004	70.48
340.217	11.09
340.429	25.43
340.641	-13.48
340.854	29.52
341.066	0.85
341.278	60.24
341.491	58.2
341.703	74.58
341.915	-42.15
342.128	-17.58
342.34	39.76
342.552	21.33
342.764	41.81
342.977	95.06
343.189	19.29
343.401	39.76
343.613	19.29
343.826	23.38
344.038	-7.34
344.25	31.57
344.462	-21.67
344.674	33.62
344.886	33.62
345.099	74.58
345.311	-7.34
345.523	56.15
345.735	33.62
345.947	41.81
346.159	45.91
346.371	27.48
346.583	68.44
346.795	50
347.007	11.09
347.219	62.29
347.431	9.05
347.643	64.34
347.855	33.62
348.067	74.58
348.279	21.33
348.491	-38.06
348.703	45.91
348.915	47.96
349.127	-1.19
349.339	29.52
349.551	19.29
349.763	72.53
349.975	15.19
350.187	60.24
350.399	-25.77
350.61	19.29
350.822	21.33
351.034	78.68
351.246	84.82
351.458	4.95
351.669	19.29
351.881	66.39
352.093	17.24
352.305	88.92
352.517	52.05
352.728	27.48
352.94	66.39
353.152	-13.48
353.363	-9.39
353.575	105.3
353.787	13.14
353.999	142.16
354.21	142.16
354.422	-1.19
354.633	52.05
354.845	74.58
355.057	62.29
355.268	-5.29
355.48	-9.39
355.692	-9.39
355.903	72.53
356.115	33.62
356.326	17.24
356.538	80.72
356.749	-11.43
356.961	50
357.172	27.48
357.384	52.05
357.595	74.58
357.807	72.53
358.018	-36.01
358.23	60.24
358.441	78.68
358.653	33.62
358.864	-7.34
359.075	35.67
359.287	-17.58
359.498	29.52
359.709	99.16
359.921	41.81
360.132	31.57
360.344	17.24
360.555	7
360.766	117.59
360.977	13.14
361.189	62.29
361.4	60.24
361.611	50
361.823	72.53
362.034	150.36
362.245	31.57
362.456	-7.34
362.667	19.29
362.879	50
363.09	29.52
363.301	29.52
363.512	35.67
363.723	11.09
363.935	47.96
364.146	35.67
364.357	17.24
364.568	29.52
364.779	-44.2
364.99	80.72
365.201	56.15
365.412	-15.53
365.623	-27.82
365.834	43.86
366.045	41.81
366.256	15.19
366.467	13.14
366.678	35.67
366.889	62.29
367.1	76.63
367.311	33.62
367.522	58.2
367.733	23.38
367.944	72.53
368.155	103.25
368.366	52.05
368.577	-21.67
368.788	78.68
368.999	-70.83
369.209	25.43
369.42	25.43
369.631	41.81
369.842	-25.77
370.053	78.68
370.264	-7.34
370.474	17.24
370.685	47.96
370.896	70.48
371.107	88.92
371.317	56.15
371.528	-5.29
371.739	99.16
371.95	101.2
372.16	-5.29
372.371	-5.29
372.582	23.38
372.792	74.58
373.003	47.96
373.214	17.24
373.424	33.62
373.635	70.48
373.846	78.68
374.056	86.87
374.267	64.34
374.477	-54.44
374.688	68.44
374.898	13.14
375.109	-3.24
375.319	70.48
375.53	115.54
375.74	-5.29
375.951	4.95
376.161	17.24
376.372	105.3
376.582	78.68
376.793	-17.58
377.003	58.2
377.214	109.4
377.424	31.57
377.635	47.96
377.845	47.96
378.055	99.16
378.266	47.96
378.476	70.48
378.686	29.52
378.897	25.43
379.107	82.77
379.317	93.01
379.528	7
379.738	93.01
379.948	29.52
380.158	99.16
380.369	43.86
380.579	23.38
380.789	-17.58
380.999	103.25
381.21	47.96
381.42	35.67
381.63	17.24
381.84	47.96
382.05	11.09
382.261	9.05
382.471	-17.58
382.681	-21.67
382.891	78.68
383.101	80.72
383.311	70.48
383.521	64.34
383.731	82.77
383.941	78.68
384.151	62.29
384.361	29.52
384.571	-17.58
384.781	41.81
384.991	37.72
385.201	140.12
385.411	47.96
385.621	80.72
385.831	43.86
386.041	72.53
386.251	80.72
386.461	105.3
386.671	0.85
386.881	43.86
387.091	58.2
387.301	97.11
387.511	-44.2
387.72	2.9
387.93	72.53
388.14	15.19
388.35	9.05
388.56	45.91
388.769	121.68
388.979	47.96
389.189	56.15
389.399	60.24
389.609	86.87
389.818	50
390.028	97.11
390.238	29.52
390.447	31.57
390.657	56.15
390.867	70.48
391.076	23.38
391.286	50
391.496	62.29
391.705	9.05
391.915	70.48
392.125	0.85
392.334	105.3
392.544	52.05
392.753	80.72
392.963	-50.35
393.172	158.55
393.382	41.81
393.591	37.72
393.801	56.15
394.01	50
394.22	86.87
394.429	25.43
394.639	62.29
394.848	45.91
395.058	68.44
395.267	80.72
395.477	80.72
395.686	115.54
395.895	37.72
396.105	45.91
396.314	103.25
396.524	4.95
396.733	58.2
396.942	158.55
397.152	88.92
397.361	156.5
397.57	82.77
397.78	4.95
397.989	123.73
398.198	170.83
398.407	-1.19
398.617	84.82
398.826	31.57
399.035	113.49
399.244	90.96
399.453	119.64
399.663	136.02
399.872	82.77
400.081	72.53
400.29	95.06
400.499	179.03
400.708	146.26
400.917	107.35
401.127	66.39
401.336	156.5
401.545	111.44
401.754	99.16
401.963	95.06
402.172	95.06
402.381	-5.29
402.59	66.39
402.799	86.87
403.008	168.79
403.217	95.06
403.426	88.92
403.635	45.91
403.844	66.39
404.053	66.39
404.262	136.02
404.471	129.88
404.68	162.64
404.888	64.34
405.097	80.72
405.306	97.11
405.515	86.87
405.724	97.11
405.933	37.72
406.142	148.31
406.35	105.3
406.559	168.79
406.768	127.83
406.977	148.31
407.185	197.46
407.394	179.03
407.603	140.12
407.812	131.92
408.02	131.92
408.229	181.07
408.438	160.59
408.646	207.7
408.855	205.65
409.064	191.31
409.272	279.38
409.481	242.51
409.69	191.31
409.898	201.55
410.107	246.61
410.315	287.57
410.524	228.18
410.733	211.79
410.941	187.22
411.15	256.85
411.358	242.51
411.567	271.19
411.775	301.9
411.984	299.86
412.192	332.62
412.401	271.19
412.609	361.3
412.818	426.83
413.026	369.49
413.234	383.82
413.443	353.1
413.651	281.43
413.86	383.82
414.068	404.3
414.276	443.21
414.485	389.97
414.693	527.18
414.901	574.28
415.11	471.89
415.318	469.84
415.526	494.41
415.734	586.57
415.943	580.43
416.151	547.66
416.359	664.4
416.567	566.09
416.776	521.04
416.984	654.16
417.192	658.25
417.4	670.54
417.608	758.6
417.817	801.61
418.025	746.31
418.233	863.05
418.441	777.03
418.649	854.86
418.857	920.39
419.065	865.1
419.273	873.29
419.481	918.34
419.689	1037.13
419.897	1151.81
420.105	1073.99
420.313	1168.2
420.521	1123.14
420.729	1096.52
420.937	1084.23
421.145	1297.22
421.353	1270.59
421.561	1356.61
421.769	1436.48
421.977	1399.62
422.185	1442.62
422.393	1489.73
422.601	1508.16
422.809	1551.17
423.017	1637.18
423.224	1663.8
423.432	1780.54
423.64	1721.15
423.848	1897.27
424.056	1884.98
424.263	1981.24
424.471	2054.97
424.679	2081.59
424.887	2163.51
425.094	2296.63
425.302	2186.04
425.51	2339.63
425.718	2362.16
425.925	2470.7
426.133	2476.85
426.341	2650.92
426.548	2775.85
426.756	2708.27
426.964	2657.07
427.171	2831.15
427.379	3029.8
427.586	3023.66
427.794	3105.57
428.001	3248.93
428.209	3359.52
428.417	3398.43
428.624	3588.89
428.832	3715.87
429.039	3660.57
429.247	3586.85
429.454	3986.2
429.662	4160.28
429.869	4051.74
430.076	4111.13
430.284	4086.55
430.491	4354.83
430.699	4453.14
430.906	4537.1
431.114	4481.81
431.321	4780.81
431.528	4817.68
431.736	5214.98
431.943	5470.98
432.15	5255.94
432.358	5131.02
432.565	5466.88
432.772	5505.79
432.979	5745.41
433.187	5921.53
433.394	5968.63
433.601	6345.46
433.808	6433.52
434.016	6374.13
434.223	6628.08
434.43	7166.7
434.637	6941.42
434.844	7332.58
435.052	7369.44
435.259	7287.53
435.466	7441.12
435.673	7295.72
435.88	7961.31
436.087	7953.12
436.294	8311.51
436.501	8141.53
436.708	8334.04
436.915	8387.29
437.122	8846.03
437.329	8852.17
437.537	9175.75
437.743	9337.54
437.95	9243.34
438.157	9448.13
438.364	9982.65
438.571	10091.2
438.778	10056.38
438.985	10916.53
439.192	10539.7
439.399	10846.9
439.606	10558.13
439.813	11217.58
440.02	11799.2
440.227	11567.78
440.433	11713.19
440.64	12010.14
440.847	12008.09
441.054	12200.6
441.261	13005.45
441.467	12821.14
441.674	12929.68
441.881	13329.03
442.088	13757.06
442.294	13488.78
442.501	13857.41
442.708	13984.38
442.914	14471.8
443.121	15159.92
443.328	14715.51
443.534	15700.58
443.741	15315.56
443.948	14955.12
444.154	16427.61
444.361	16208.48
444.568	16349.79
444.774	16198.24
444.981	16630.36
445.187	16951.89
445.394	17646.15
445.6	17228.37
445.807	19167.79
446.013	18162.24
446.22	18674.23
446.426	19352.11
446.633	19388.97
446.839	20285.98
447.046	19118.64
447.252	20435.49
447.459	20273.7
447.665	20228.64
447.871	20906.52
448.078	22057.48
448.284	20701.72
448.491	21725.71
448.697	22129.16
448.903	22665.72
449.11	22737.4
449.316	22659.58
449.522	22987.25
449.728	23380.46
449.935	23478.77
450.141	23335.41
450.347	24037.86
450.553	22934.01
450.76	23638.51
450.966	24340.96
451.172	23779.82
451.378	24805.85
451.584	24400.35
451.791	24605.15
451.997	24488.42
452.203	24689.12
452.409	24908.25
452.615	24723.93
452.821	24070.63
453.027	23681.52
453.233	24816.09
453.44	23914.98
453.646	24226.28
453.852	24248.8
454.058	24570.33
454.264	23763.43
454.47	24205.8
454.676	23509.49
454.882	24474.08
455.088	22467.07
455.294	22708.73
455.5	22979.06
455.705	23298.55
455.911	22247.94
456.117	21885.45
456.323	21674.51
456.529	20513.31
456.735	21062.16
456.941	20521.5
457.147	20349.47
457.352	19784.23
457.558	19546.67
457.764	19288.62
457.97	19137.07
458.176	18747.96
458.381	18489.92
458.587	17844.81
458.793	17830.47
458.999	16753.24
459.204	18094.66
459.41	17783.37
459.616	16380.51
459.821	16618.07
460.027	16314.97
460.233	15968.87
460.438	15080.05
460.644	15493.74
460.85	14551.67
461.055	14643.83
461.261	14258.81
461.466	13523.59
461.672	13040.27
461.878	13841.03
462.083	12964.5
462.289	12739.22
462.494	12458.65
462.7	12157.6
462.905	11801.25
463.111	12233.37
463.316	12296.86
463.522	11952.8
463.727	11973.28
463.932	11797.15
464.138	11917.98
464.343	11776.67
464.549	11469.48
464.754	11842.21
464.959	11764.39
465.165	11758.24
465.37	11405.99
465.575	10975.92
465.781	11575.97
465.986	11268.78
466.191	11059.88
466.397	10836.66
466.602	10216.12
466.807	10609.33
467.012	10635.96
467.218	10670.77
467.423	10623.67
467.628	10592.95
467.833	11010.73
468.038	10607.28
468.244	10330.81
468.449	10676.91
468.654	10164.92
468.859	10353.34
469.064	10252.98
469.269	9859.77
469.474	9788.1
469.679	10146.49
469.885	9972.41
470.09	9867.97
470.295	9759.42
470.5	9501.38
470.705	9642.69
470.91	9448.13
471.115	9575.11
471.32	9632.45
471.525	9401.03
471.73	9294.54
471.935	9366.21
472.139	8817.36
472.344	8862.41
472.549	8948.43
472.754	8889.04
472.959	8643.28
473.164	8473.3
473.369	8317.65
473.574	8514.26
473.778	8454.87
473.983	8340.18
474.188	8573.65
474.393	7963.36
474.598	8000.22
474.802	7844.57
475.007	7961.31
475.212	7981.79
475.417	7713.5
475.621	7742.18
475.826	7752.42
476.031	7586.53
476.235	7465.7
476.44	7570.15
476.645	7389.92
476.849	7291.62
477.054	7224.04
477.259	7297.77
477.463	7254.76
477.668	7088.87
477.872	7082.73
478.077	6890.22
478.282	6959.85
478.486	6861.55
478.691	6785.77
478.895	6701.81
479.1	6808.3
479.304	6703.86
479.509	6320.88
479.713	6449.91
479.918	6474.48
480.122	6345.46
480.326	6513.39
480.531	6392.56
480.735	6345.46
480.94	6187.77
481.144	6521.59
481.348	6226.68
481.553	6275.83
481.757	6253.3
481.961	6134.52
482.166	6306.55
482.37	6165.24
482.574	6142.71
482.778	6150.9
482.983	6318.84
483.187	6148.86
483.391	6138.62
483.595	6107.9
483.8	6165.24
484.004	6314.74
484.208	6263.54
484.412	5888.76
484.616	6200.05
484.821	6068.98
485.025	6001.4
485.229	6148.86
485.433	6101.75
485.637	6173.43
485.841	6189.81
486.045	6216.44
486.249	6120.18
486.453	6089.46
486.657	6238.97
486.861	6152.95
487.065	6146.81
487.269	6155
487.473	6091.51
487.677	6216.44
487.881	6333.17
488.085	6077.18
488.289	6099.7
488.493	6290.17
488.697	6314.74
488.901	6054.65
489.105	6028.03
489.309	6255.35
489.512	6189.81
489.716	6267.64
489.92	6226.68
490.124	6251.25
490.328	6243.06
490.531	6228.73
490.735	6271.73
490.939	6341.36
491.143	6150.9
491.346	6157.05
491.55	6314.74
491.754	6456.05
491.958	6482.67
492.161	6501.11
492.365	6425.33
492.569	6462.19
492.772	6570.74
492.976	6595.31
493.18	6519.54
493.383	6691.57
493.587	6640.37
493.79	6804.21
493.994	6675.18
494.197	6599.41
494.401	7017.19
494.605	6836.97
494.808	7027.43
495.012	7074.54
495.215	7011.05
495.419	7113.45
495.622	7035.63
495.825	7082.73
496.029	7039.72
496.232	7269.09
496.436	7140.07
496.639	7305.96
496.843	7500.51
497.046	7494.37
497.249	7551.71
497.453	7701.22
497.656	7920.35
497.859	7779.04
498.063	7731.94
498.266	8090.33
498.469	8037.08
498.673	7992.03
498.876	8049.37
499.079	8284.89
499.282	8286.93
499.485	8411.86
499.689	8540.88
499.892	8610.51
500.095	8592.08
500.298	8856.27
500.501	8721.1
500.705	8991.44
500.908	9161.42
501.111	9212.62
501.314	9327.3
501.517	9255.62
501.72	9212.62
501.923	9192.14
502.126	9593.54
502.329	9779.9
502.532	9810.62
502.735	9835.2
502.938	9962.17
503.141	10185.4
503.344	10193.59
503.547	10189.5
503.75	10386.1
503.953	10562.23
504.156	10715.83
504.359	10783.41
504.562	11012.78
504.765	11039.4
504.968	11006.64
505.17	11289.26
505.373	11322.02
505.576	11442.85
505.779	11635.36
505.982	11551.4
506.185	12051.1
506.387	11891.36
506.59	11969.18
506.793	12360.34
506.996	12331.67
507.198	12712.6
507.401	12382.87
507.604	12726.93
507.807	13054.61
508.009	13132.43
508.212	13267.59
508.415	13083.28
508.617	13591.17
508.82	13494.92
509.022	13355.66
509.225	13654.66
509.428	13998.72
509.63	14054.01
509.833	14109.31
510.035	14176.89
510.238	14176.89
510.44	14504.57
510.643	14639.73
510.845	14914.16
511.048	14850.67
511.25	14963.31
511.453	15164.01
511.655	15497.83
511.858	15247.98
512.06	15377
512.262	15823.46
512.465	15628.9
512.667	15790.69
512.87	15956.58
513.072	16294.49
513.274	16644.7
513.477	16835.16
513.679	16693.85
513.881	16933.46
514.084	17158.74
514.286	17164.88
514.488	16919.12
514.69	17599.05
514.893	17517.13
515.095	17850.95
515.297	18264.64
515.499	17820.23
515.701	18309.69
515.904	18770.49
516.106	18514.49
516.308	18758.2
516.51	19071.54
516.712	18991.67
516.914	19339.82
517.116	19470.89
517.318	19817
517.52	19749.42
517.722	19892.77
517.925	20253.22
518.127	20310.56
518.329	20507.16
518.531	20476.44
518.733	20761.11
518.935	20929.05
519.136	20843.03
519.338	21271.06
519.54	21125.65
519.742	21920.26
519.944	21502.48
520.146	21916.17
520.348	22073.86
520.55	22053.38
520.752	22026.76
520.954	22874.62
521.155	22532.61
521.357	22776.31
521.559	22995.45
521.761	23431.66
521.963	23190
522.164	23355.89
522.366	23575.02
522.568	23945.7
522.77	24181.22
522.971	24295.91
523.173	23818.73
523.375	24467.94
523.576	24420.83
523.778	24746.46
523.98	24758.75
524.181	24820.19
524.383	24957.4
524.584	25530.83
524.786	25201.11
524.988	25209.3
525.189	25616.85
525.391	25774.54
525.592	25819.6
525.794	25862.6
525.995	25938.38
526.197	26077.64
526.398	26073.54
526.6	26489.28
526.801	26593.73
527.003	26575.3
527.204	26794.43
527.406	26788.28
527.607	26849.72
527.808	26810.81
528.01	26464.71
528.211	26839.48
528.412	27398.58
528.614	27148.73
528.815	27169.21
529.016	27419.06
529.218	27287.99
529.419	27537.84
529.62	27439.54
529.822	27513.27
530.023	27613.62
530.224	27535.79
530.425	27533.75
530.626	27709.87
530.828	27658.67
531.029	28199.34
531.23	27785.65
531.431	27662.77
531.632	28006.83
531.833	27863.47
532.035	28219.81
532.236	28328.36
532.437	28072.36
532.638	28025.26
532.839	28377.51
533.04	28348.84
533.241	28154.28
533.442	28627.36
533.643	28516.77
533.844	28260.77
534.045	28520.87
534.246	28119.46
534.447	28684.7
534.648	28488.1
534.849	28512.67
535.05	28273.06
535.251	28371.36
535.451	28520.87
535.652	28400.04
535.853	28451.24
536.054	28705.18
536.255	28617.12
536.456	28017.07
536.657	28625.31
536.857	28459.43
537.058	28271.01
537.259	28619.17
537.46	28596.64
537.66	28516.77
537.861	28537.25
538.062	28735.9
538.263	28449.19
538.463	28615.07
538.664	28561.83
538.865	28522.91
539.065	28658.08
539.266	28545.44
539.466	28805.53
539.667	28494.24
539.868	28801.44
540.068	28447.14
540.269	28531.11
540.469	28316.07
540.67	28283.3
540.87	28514.72
541.071	28387.75
541.271	28438.95
541.472	28447.14
541.672	28275.11
541.873	28531.11
542.073	27890.09
542.274	28301.73
542.474	28533.15
542.675	28301.73
542.875	28793.25
543.075	28400.04
543.276	28408.23
543.476	28522.91
543.676	28471.71
543.877	28666.27
544.077	28377.51
544.277	28508.58
544.478	28367.27
544.678	28531.11
544.878	28443.04
545.078	28346.79
545.279	28397.99
545.479	28139.94
545.679	27957.67
545.879	28375.46
546.079	28350.88
546.28	28309.93
546.48	28185
546.68	28567.97
546.88	28015.02
547.08	28361.12
547.28	28211.62
547.48	27951.53
547.68	28266.92
547.88	28172.71
548.081	27926.96
548.281	28334.5
548.481	28305.83
548.681	28529.06
548.881	27896.24
549.081	28043.69
549.28	28084.65
549.48	28271.01
549.68	28078.5
549.88	28391.84
550.08	27933.1
550.28	27963.82
550.48	28090.79
550.68	28209.57
550.88	28064.17
551.08	27822.51
551.279	28182.95
551.479	27851.18
551.679	27877.8
551.879	27879.85
552.079	28076.46
552.278	27478.45
552.478	28148.14
552.678	28004.78
552.878	28148.14
553.077	27730.35
553.277	27652.53
553.477	28180.9
553.676	27630
553.876	27603.38
554.076	27761.07
554.275	27783.6
554.475	27537.84
554.674	27619.76
554.874	27781.55
555.074	27378.1
555.273	27543.99
555.473	27730.35
555.672	27447.73
555.872	27652.53
556.071	27371.96
556.271	27359.67
556.47	27242.93
556.67	27308.47
556.869	27451.83
557.068	27410.87
557.268	27236.79
557.467	27476.4
557.667	27455.92
557.866	27560.37
558.065	27261.37
558.265	26855.87
558.464	27062.71
558.663	27357.62
558.863	26722.75
559.062	27320.76
559.261	26923.45
559.461	27543.99
559.66	26378.69
559.859	26972.6
560.058	26763.71
560.258	26423.75
560.457	26499.52
560.656	26956.22
560.855	26804.67
561.054	26802.62
561.253	26700.22
561.453	26771.9
561.652	26790.33
561.851	26630.59
562.05	26057.16
562.249	26141.13
562.448	26550.72
562.647	26206.66
562.846	26098.12
563.045	26096.07
563.244	25629.13
563.443	26386.88
563.642	25977.29
563.841	25856.46
564.04	25946.57
564.239	26225.09
564.438	25772.49
564.637	25807.31
564.836	25903.56
565.035	25534.93
565.234	25704.91
565.432	25649.61
565.631	25366.99
565.83	25477.58
566.029	25491.92
566.228	25303.51
566.427	25397.71
566.625	25555.41
566.824	24889.82
567.023	25338.32
567.222	24715.74
567.42	25151.96
567.619	24785.37
567.818	24830.43
568.016	24707.55
568.215	25033.18
568.414	24617.44
568.612	24811.99
568.811	24803.8
569.01	24619.49
569.208	24412.64
569.407	24521.18
569.605	24383.97
569.804	24525.28
570.002	24181.22
570.201	24336.87
570.4	23947.75
570.598	23763.43
570.797	23906.79
570.995	23943.66
571.193	23609.84
571.392	23980.52
571.59	23329.27
571.789	23603.69
571.987	23589.36
572.186	23464.43
572.384	23204.34
572.582	23595.5
572.781	23462.38
572.979	23339.51
573.177	23622.12
573.376	23472.62
573.574	22868.47
573.772	23382.51
573.971	23046.65
574.169	22839.8
574.367	22712.83
574.565	22829.56
574.763	23022.07
574.962	22432.26
575.16	22561.28
575.358	22563.33
575.556	22434.3
575.754	22827.51
575.952	22252.03
576.151	22735.35
576.349	22145.54
576.547	22211.07
576.745	22422.02
576.943	22002.18
577.141	22096.39
577.339	22014.47
577.537	21731.85
577.735	21887.5
577.933	21684.75
578.131	21932.55
578.329	21635.6
578.527	21576.2
578.725	21858.82
578.923	21748.23
579.121	21477.9
579.319	21178.9
579.516	21578.25
579.714	21555.72
579.912	21293.58
580.11	21230.1
580.308	21531.15
580.506	20771.35
580.704	20886.04
580.901	21234.19
581.099	21088.79
581.297	20660.76
581.495	20701.72
581.692	20769.3
581.89	20609.56
582.088	20793.88
582.285	20589.08
582.483	20498.97
582.681	20771.35
582.878	20247.07
583.076	19894.82
583.274	20449.82
583.471	20107.81
583.669	20386.33
583.866	20148.77
584.064	20128.29
584.262	20154.91
584.459	20075.04
584.657	20077.09
584.854	20220.45
585.052	19599.91
585.249	20105.76
585.447	19677.74
585.644	19454.51
585.841	19415.6
586.039	19853.86
586.236	19618.35
586.434	19286.58
586.631	19268.14
586.828	19720.74
587.026	19487.28
587.223	19462.7
587.42	19245.62
587.618	19102.26
587.815	18891.32
588.012	18854.45
588.21	19020.34
588.407	18991.67
588.604	18950.71
588.801	18864.69
588.999	18833.97
589.196	18889.27
589.393	18807.35
589.59	18530.87
589.787	18565.69
589.984	18473.53
590.182	18377.28
590.379	18547.26
590.576	18217.54
590.773	18096.71
590.97	17965.64
591.167	18342.46
591.364	18209.34
591.561	18178.62
591.758	18152
591.955	18006.59
592.152	18100.8
592.349	18111.04
592.546	17820.23
592.743	17975.88
592.94	17443.4
593.137	17730.12
593.334	17834.57
593.531	17269.33
593.727	17472.07
593.924	17664.58
594.121	17244.75
594.318	17480.27
594.515	17349.2
594.712	17482.31
594.908	17238.61
595.105	17439.31
595.302	17029.71
595.499	17089.1
595.696	17177.17
595.892	16740.95
596.089	17044.05
596.286	16951.89
596.482	16839.25
596.679	17042
596.876	17021.52
597.072	16564.82
597.269	16861.78
597.466	16398.94
597.662	16419.42
597.859	16611.93
598.055	16507.48
598.252	16163.42
598.448	16388.7
598.645	16007.78
598.841	15897.19
599.038	16224.86
599.234	16245.34
599.431	16257.63
599.627	15944.29
599.824	15983.2
600.02	15850.08
600.217	16052.83
600.413	15698.53
600.609	15766.12
600.806	15733.35
601.002	15721.06
601.198	15776.36
601.395	15549.03
601.591	15628.9
601.787	15534.7
601.984	15254.12
602.18	15348.33
602.376	15362.67
602.572	15409.77
602.769	15325.8
602.965	15297.13
603.161	15309.42
603.357	15161.97
603.553	15082.1
603.75	15104.62
603.946	15155.82
604.142	15305.32
604.338	14801.52
604.534	15010.42
604.73	14723.7
604.926	14899.83
605.122	14770.8
605.318	14635.64
605.514	14799.48
605.71	14506.62
605.906	14574.2
606.102	14559.86
606.298	14469.75
606.494	14365.31
606.69	14477.94
606.886	14488.18
607.082	14178.94
607.278	14336.63
607.474	14320.25
607.67	14209.66
607.866	14221.95
608.062	14307.96
608.257	13931.14
608.453	14156.41
608.649	14041.73
608.845	14170.75
609.041	14094.97
609.236	13914.75
609.432	14023.3
609.628	14011.01
609.824	13881.99
610.019	13759.11
610.215	13640.33
610.411	13812.35
610.606	13912.71
610.802	13759.11
610.998	13677.19
611.193	13904.51
611.389	13705.86
611.584	13671.04
611.78	13677.19
611.976	13699.72
612.171	13568.65
612.367	13705.86
612.562	13535.88
612.758	13351.56
612.953	13103.76
613.149	13275.79
613.344	13437.58
613.539	13556.36
613.735	13359.75
613.93	13453.96
614.126	13316.75
614.321	13279.88
614.517	13052.56
614.712	13222.54
614.907	13050.51
615.103	13073.04
615.298	13230.73
615.493	13331.08
615.688	12905.1
615.884	13085.33
616.079	13011.6
616.274	13079.18
616.47	13046.41
616.665	12851.86
616.86	12896.91
617.055	12677.78
617.25	12944.02
617.445	12905.1
617.641	12518.04
617.836	12774.03
618.031	12862.1
618.226	12540.57
618.421	12528.28
618.616	12749.46
618.811	12585.62
619.006	12712.6
619.201	12530.33
619.396	12634.77
619.591	12008.09
619.786	12505.75
619.981	12262.04
620.176	12130.97
620.371	12065.44
620.566	12210.84
620.761	11963.04
620.956	12239.51
621.151	12120.73
621.346	11944.61
621.541	11805.35
621.735	11946.66
621.93	11860.64
622.125	11791.01
622.32	11444.9
622.515	11725.47
622.709	11481.77
622.904	11553.45
623.099	11313.83
623.294	11365.03
623.488	11211.43
623.683	11430.57
623.878	11172.52
624.072	11176.62
624.267	11225.77
624.462	11233.96
624.656	10990.25
624.851	11010.73
625.046	10924.72
625.24	10920.62
625.435	10750.64
625.629	10945.2
625.824	10683.06
626.018	10451.64
626.213	10506.93
626.407	10572.47
626.602	10418.87
626.796	10508.98
626.991	10365.62
627.185	10279.61
627.38	10146.49
627.574	10179.26
627.768	9837.25
627.963	9835.2
628.157	9632.45
628.352	9900.73
628.546	9702.08
628.74	9738.94
628.935	9790.14
629.129	9816.77
629.323	9685.7
629.517	9638.59
629.712	9630.4
629.906	9398.98
630.1	9405.13
630.294	9458.37
630.489	9364.17
630.683	9382.6
630.877	9028.3
631.071	9083.59
631.265	9290.44
631.459	8897.23
631.653	9179.85
631.848	9145.03
632.042	9042.64
632.236	9005.77
632.43	8637.14
632.624	8921.81
632.818	8911.57
633.012	8653.52
633.206	8612.56
633.4	8760.02
633.594	8501.97
633.788	8686.29
633.982	8499.92
634.176	8442.58
634.369	8467.16
634.563	8250.07
634.757	8397.53
634.951	8346.33
635.145	8303.32
635.339	8311.51
635.533	8061.66
635.726	8145.63
635.92	8147.67
636.114	8024.79
636.308	7946.97
636.501	7965.4
636.695	7930.59
636.889	7871.2
637.083	7893.72
637.276	7705.31
637.47	7637.73
637.664	7754.46
637.857	7639.78
638.051	7643.87
638.244	7473.89
638.438	7582.43
638.632	7607.01
638.825	7547.62
639.019	7588.58
639.212	7279.33
639.406	7353.06
639.599	7398.12
639.793	7344.87
639.986	7213.8
640.18	7189.22
640.373	7115.5
640.567	6996.71
640.76	7076.59
640.954	7154.41
641.147	6777.58
641.34	6847.21
641.534	6918.89
641.727	6955.76
641.92	6957.8
642.114	6806.25
642.307	6705.9
642.5	6564.59
642.694	6509.3
642.887	6570.74
643.08	6562.55
643.273	6464.24
643.467	6603.5
643.66	6666.99
643.853	6402.8
644.046	6396.66
644.239	6499.06
644.432	6232.82
644.626	6329.08
644.819	6281.97
645.012	6310.65
645.205	6380.28
645.398	6218.49
645.591	6286.07
645.784	6167.29
645.977	5966.59
646.17	6165.24
646.363	6060.79
646.556	5980.92
646.749	6226.68
646.942	6038.27
647.135	5870.33
647.328	6007.55
647.521	5817.08
647.714	5704.45
647.907	5679.87
648.099	5845.76
648.292	5722.88
648.485	5694.21
648.678	5749.5
648.871	5550.85
649.064	5536.51
649.256	5708.54
649.449	5556.99
649.642	5554.94
649.835	5595.9
650.027	5511.94
650.22	5382.92
650.413	5419.78
650.605	5374.72
650.798	5382.92
650.991	5315.33
651.183	5348.1
651.376	5133.06
651.568	5210.89
651.761	5204.74
651.954	5264.13
652.146	5235.46
652.339	5202.69
652.531	5131.02
652.724	5071.62
652.916	5012.23
653.109	4854.54
653.301	4924.17
653.494	4993.8
653.686	4891.4
653.879	4981.51
654.071	4764.43
654.263	4903.69
654.456	4827.92
654.648	4938.51
654.84	4772.62
655.033	4698.89
655.225	4741.9
655.417	4766.48
655.61	4725.52
655.802	4582.16
655.994	4649.74
656.186	4629.26
656.379	4596.5
656.571	4655.89
656.763	4412.18
656.955	4487.95
657.148	4485.9
657.34	4533.01
657.532	4383.51
657.724	4473.62
657.916	4475.67
658.108	4395.79
658.3	4360.98
658.492	4291.35
658.684	4248.34
658.876	4397.84
659.068	4356.88
659.26	4217.62
659.452	4387.6
659.644	4213.53
659.836	4180.76
660.028	4344.6
660.22	4115.22
660.412	4154.13
660.604	4066.07
660.796	4074.26
660.988	4064.02
661.18	4090.65
661.372	3834.65
661.563	3996.44
661.755	4014.87
661.947	4029.21
662.139	3916.57
662.331	3867.42
662.522	3980.06
662.714	3924.76
662.906	3935
663.097	3943.19
663.289	3842.84
663.481	3773.21
663.673	3777.31
663.864	3707.68
664.056	3760.92
664.247	3842.84
664.439	3703.58
664.631	3672.86
664.822	3719.96
665.014	3654.43
665.205	3609.37
665.397	3484.45
665.588	3607.33
665.78	3535.65
665.971	3728.16
666.163	3672.86
666.354	3703.58
666.546	3455.78
666.737	3433.25
666.929	3545.89
667.12	3449.63
667.311	3431.2
667.503	3375.91
667.694	3373.86
667.885	3365.67
668.077	3332.9
668.268	3318.56
668.459	3363.62
668.651	3336.99
668.842	3322.66
669.033	3332.9
669.224	3218.21
669.416	3310.37
669.607	3310.37
669.798	3259.17
669.989	3289.89
670.18	3273.51
670.371	3253.03
670.563	3263.27
670.754	3201.83
670.945	3181.35
671.136	3207.97
671.327	3134.25
671.518	3007.27
671.709	3148.58
671.9	2972.46
672.091	3011.37
672.282	3009.32
672.473	3025.7
672.664	3017.51
672.855	3058.47
673.046	2962.22
673.237	3046.18
673.428	2954.02
673.619	3003.18
673.809	2870.06
674	2994.98
674.191	2982.7
674.382	2978.6
674.573	3015.46
674.764	2925.35
674.954	2853.67
675.145	2810.67
675.336	2900.78
675.527	2880.3
675.717	2917.16
675.908	2894.63
676.099	2958.12
676.289	2792.23
676.48	2865.96
676.671	2812.71
676.861	2796.33
677.052	2755.37
677.243	2749.23
677.433	2624.3
677.624	2777.9
677.814	2700.08
678.005	2882.35
678.195	2695.98
678.386	2751.28
678.576	2788.14
678.767	2638.64
678.957	2724.65
679.148	2763.56
679.338	2800.43
679.529	2749.23
679.719	2659.12
679.909	2698.03
680.1	2650.92
680.29	2638.64
680.481	2661.16
680.671	2616.11
680.861	2706.22
681.052	2659.12
681.242	2646.83
681.432	2644.78
681.622	2607.92
681.813	2523.95
682.003	2704.17
682.193	2564.91
682.383	2614.06
682.573	2614.06
682.764	2546.48
682.954	2536.24
683.144	2618.16
683.334	2667.31
683.524	2480.94
683.714	2579.25
683.904	2671.4
684.094	2517.81
684.284	2526
684.474	2532.14
684.664	2587.44
684.854	2577.2
685.044	2429.74
685.234	2503.47
685.424	2546.48
685.614	2448.18
685.804	2388.78
685.994	2411.31
686.184	2421.55
686.374	2353.97
686.564	2446.13
686.753	2466.61
686.943	2421.55
687.133	2382.64
687.323	2370.35
687.513	2364.21
687.702	2335.54
687.892	2296.63
688.082	2302.77
688.272	2384.69
688.461	2370.35
688.651	2370.35
688.841	2296.63
689.03	2298.67
689.22	2224.95
689.41	2231.09
689.599	2243.38
689.789	2229.04
689.979	2224.95
690.168	2169.65
690.358	2186.04
690.547	2089.78
690.737	2097.97
690.926	2227
691.116	2245.43
691.305	2208.56
691.495	2171.7
691.684	2065.21
691.874	2192.18
692.063	2038.58
692.252	2190.13
692.442	2063.16
692.631	2026.29
692.82	2034.49
693.01	2177.84
693.199	2063.16
693.388	2067.25
693.578	2190.13
693.767	2079.54
693.956	2005.81
694.146	2061.11
694.335	2046.77
694.524	2022.2
694.713	1948.47
694.902	2048.82
695.092	1991.48
695.281	2032.44
695.47	1964.86
695.659	2057.01
695.848	2075.45
696.037	1934.14
696.226	1932.09
696.415	2001.72
696.604	1995.57
696.793	1975.1
696.982	1860.41
697.171	1944.38
697.36	1971
697.549	1921.85
697.738	1887.03
697.927	1927.99
698.116	1868.6
698.305	1829.69
698.494	1999.67
698.683	1923.9
698.872	1950.52
699.061	1884.98
699.25	1882.94
699.438	1831.74
699.627	1995.57
699.816	1848.12
700.005	1864.5
700.193	1903.42
700.382	1934.14
700.571	1964.86
700.76	1831.74
700.948	1944.38
701.137	1874.74
701.326	1880.89
701.514	1839.93
701.703	1948.47
701.892	1727.29
702.08	1893.18
702.269	1899.32
702.457	1813.31
702.646	1747.77
702.834	1710.91
703.023	1829.69
703.212	1813.31
703.4	1772.35
703.589	1899.32
703.777	1792.83
703.965	1774.39
704.154	1823.55
704.342	1889.08
704.531	1962.81
704.719	1934.14
704.907	1913.66
705.096	1831.74
705.284	1831.74
705.472	1833.79
705.661	1852.22
705.849	1962.81
706.037	1768.25
706.226	1813.31
706.414	1866.55
706.602	1872.7
706.79	1831.74
706.979	1872.7
707.167	1864.5
707.355	1846.07
707.543	1872.7
707.731	1911.61
707.919	1747.77
708.107	1833.79
708.296	1878.84
708.484	1841.98
708.672	1864.5
708.86	1794.87
709.048	1846.07
709.236	1825.59
709.424	1856.31
709.612	1829.69
709.8	1878.84
709.988	1755.96
710.176	1774.39
710.364	1813.31
710.551	1794.87
710.739	1805.11
710.927	1862.46
711.115	1850.17
711.303	1674.04
711.491	1850.17
711.679	1809.21
711.866	1927.99
712.054	1823.55
712.242	1915.7
712.43	1743.67
712.617	1866.55
712.805	1737.53
712.993	1776.44
713.181	1772.35
713.368	1798.97
713.556	1813.31
713.744	1792.83
713.931	1841.98
714.119	1778.49
714.306	1733.43
714.494	1796.92
714.682	1848.12
714.869	1807.16
715.057	1868.6
715.244	1743.67
715.432	1852.22
715.619	1753.91
715.807	1737.53
715.994	1782.59
716.182	1856.31
716.369	1868.6
716.556	1735.48
716.744	1776.44
716.931	1852.22
717.119	1827.64
717.306	1788.73
717.493	1792.83
717.681	1774.39
717.868	1768.25
718.055	1880.89
718.242	1848.12
718.43	1721.15
718.617	1721.15
718.804	1923.9
718.991	1792.83
719.179	1764.15
719.366	1768.25
719.553	1741.63
719.74	1835.83
719.927	1751.87
720.114	1768.25
720.301	1813.31
720.488	1884.98
720.676	1819.45
720.863	1850.17
721.05	1829.69
721.237	1762.11
721.424	1833.79
721.611	1817.4
721.798	1698.62
721.985	1702.72
722.172	1796.92
722.358	1790.78
722.545	1764.15
722.732	1766.2
722.919	1829.69
723.106	1745.72
723.293	1766.2
723.48	1794.87
723.667	1712.96
723.853	1719.1
724.04	1743.67
724.227	1717.05
724.414	1702.72
724.6	1772.35
724.787	1698.62
724.974	1792.83
725.161	1807.16
725.347	1819.45
725.534	1745.72
725.72	1725.24
725.907	1686.33
726.094	1641.28
726.28	1727.29
726.467	1778.49
726.653	1708.86
726.84	1813.31
727.027	1825.59
727.213	1643.32
727.4	1708.86
727.586	1749.82
727.773	1710.91
727.959	1686.33
728.145	1733.43
728.332	1614.65
728.518	1731.39
728.705	1725.24
728.891	1776.44
729.077	1751.87
729.264	1755.96
729.45	1825.59
729.636	1762.11
729.823	1723.2
730.009	1774.39
730.195	1698.62
730.382	1758.01
730.568	1858.36
730.754	1774.39
730.94	1823.55
731.126	1712.96
731.313	1790.78
731.499	1758.01
731.685	1721.15
731.871	1844.03
732.057	1782.59
732.243	1682.24
732.429	1751.87
732.615	1774.39
732.801	1712.96
732.987	1717.05
733.173	1792.83
733.359	1774.39
733.545	1811.26
733.731	1680.19
733.917	1790.78
734.103	1796.92
734.289	1790.78
734.475	1696.57
734.661	1729.34
734.847	1659.71
735.033	1647.42
735.219	1854.27
735.404	1772.35
735.59	1776.44
735.776	1694.52
735.962	1667.9
736.148	1715
736.333	1755.96
736.519	1698.62
736.705	1758.01
736.89	1651.52
737.076	1592.13
737.262	1667.9
737.447	1659.71
737.633	1694.52
737.819	1751.87
738.004	1682.24
738.19	1735.48
738.375	1624.89
738.561	1743.67
738.747	1680.19
738.932	1665.85
739.118	1653.56
739.303	1690.43
739.489	1698.62
739.674	1618.75
739.859	1590.08
740.045	1620.8
740.23	1610.56
740.416	1649.47
740.601	1622.84
740.786	1583.93
740.972	1661.76
741.157	1585.98
741.342	1471.29
741.528	1575.74
741.713	1598.27
741.898	1688.38
742.084	1624.89
742.269	1512.25
742.454	1583.93
742.639	1651.52
742.824	1602.36
743.01	1520.45
743.195	1573.69
743.38	1633.08
743.565	1600.32
743.75	1557.31
743.935	1555.26
744.12	1571.65
744.305	1606.46
744.49	1522.49
744.675	1471.29
744.86	1483.58
745.045	1479.49
745.23	1522.49
745.415	1565.5
745.6	1510.21
745.785	1481.53
745.97	1409.86
746.155	1514.3
746.34	1420.1
746.525	1446.72
746.71	1524.54
746.895	1397.57
747.079	1440.58
747.264	1502.01
747.449	1438.53
747.634	1448.77
747.819	1340.22
748.003	1479.49
748.188	1311.55
748.373	1340.22
748.557	1364.8
748.742	1393.47
748.927	1452.86
749.111	1252.16
749.296	1295.17
749.481	1286.98
749.665	1354.56
749.85	1332.03
750.034	1291.07
750.219	1448.77
750.404	1254.21
750.588	1278.79
750.773	1295.17
750.957	1323.84
751.141	1209.15
751.326	1254.21
751.51	1252.16
751.695	1168.2
751.879	1293.12
752.064	1258.31
752.248	1182.53
752.432	1186.63
752.617	1207.11
752.801	1123.14
752.985	1164.1
753.17	1250.11
753.354	1227.59
753.538	1233.73
753.722	1168.2
753.907	1209.15
754.091	1133.38
754.275	1139.52
754.459	1069.89
754.643	1196.87
754.828	1123.14
755.012	1100.61
755.196	1084.23
755.38	1008.45
755.564	1084.23
755.748	1059.65
755.932	1026.89
756.116	1094.47
756.3	1024.84
756.484	971.59
756.668	1080.13
756.852	1084.23
757.036	983.88
757.22	983.88
757.404	1053.51
757.588	1022.79
757.772	994.12
757.956	938.82
758.14	1041.22
758.323	942.92
758.507	969.54
758.691	934.73
758.875	1010.5
759.059	944.97
759.242	955.21
759.426	981.83
759.61	928.58
759.794	949.06
759.977	922.44
760.161	955.21
760.345	867.14
760.528	912.2
760.712	973.64
760.895	904.01
761.079	955.21
761.263	863.05
761.446	822.09
761.63	783.18
761.813	863.05
761.997	863.05
762.18	813.9
762.364	881.48
762.547	807.75
762.731	787.27
762.914	805.71
763.098	861
763.281	746.31
763.464	777.03
763.648	901.96
763.831	805.71
764.015	897.86
764.198	832.33
764.381	838.47
764.564	867.14
764.748	811.85
764.931	822.09
765.114	762.7
765.297	822.09
765.481	844.62
765.664	744.27
765.847	842.57
766.03	783.18
766.213	709.45
766.397	740.17
766.58	699.21
766.763	699.21
766.946	697.16
767.129	844.62
767.312	815.94
767.495	697.16
767.678	746.31
767.861	711.5
768.044	701.26
768.227	699.21
768.41	779.08
768.593	750.41
768.776	684.87
768.959	832.33
769.142	797.51
769.324	721.74
769.507	738.12
769.69	781.13
769.873	670.54
770.056	723.79
770.239	725.83
770.421	693.07
770.604	660.3
770.787	703.31
770.97	719.69
771.152	727.88
771.335	707.4
771.518	707.4
771.7	734.03
771.883	676.68
772.066	691.02
772.248	650.06
772.431	670.54
772.613	781.13
772.796	615.24
772.978	705.35
773.161	641.87
773.343	631.63
773.526	594.76
773.708	564.04
773.891	572.24
774.073	643.92
774.256	570.19
774.438	709.45
774.621	643.92
774.803	582.48
774.985	643.92
775.168	613.2
775.35	549.71
775.532	570.19
775.715	609.1
775.897	562
776.079	557.9
776.261	658.25
776.444	613.2
776.626	471.89
776.808	557.9
776.99	523.09
777.173	504.65
777.355	580.43
777.537	619.34
777.719	643.92
777.901	582.48
778.083	508.75
778.265	502.61
778.447	543.57
778.629	459.6
778.811	457.55
778.993	475.98
779.175	500.56
779.357	547.66
779.539	514.89
779.721	564.04
779.903	564.04
780.085	451.41
780.267	447.31
780.449	435.02
780.631	457.55
780.812	504.65
780.994	498.51
781.176	392.02
781.358	480.08
781.54	471.89
781.721	351.06
781.903	447.31
782.085	371.54
782.267	441.17
782.448	404.3
782.63	488.27
782.812	439.12
782.993	500.56
783.175	400.21
783.357	467.79
783.538	471.89
783.72	357.2
783.901	410.45
784.083	402.26
784.264	506.7
784.446	326.48
784.627	373.58
784.809	385.87
784.99	441.17
785.172	410.45
785.353	346.96
785.535	471.89
785.716	396.11
785.897	334.67
786.079	373.58
786.26	389.97
786.441	365.39
786.623	328.53
786.804	428.88
786.985	430.93
787.167	394.06
787.348	291.66
787.529	408.4
787.71	344.91
787.891	299.86
788.073	306
788.254	279.38
788.435	367.44
788.616	398.16
788.797	303.95
788.978	369.49
789.159	310.1
789.34	320.34
789.522	338.77
789.703	273.23
789.884	236.37
790.065	260.95
790.246	306
790.427	330.58
790.607	279.38
790.788	357.2
790.969	355.15
791.15	287.57
791.331	320.34
791.512	293.71
791.693	246.61
791.874	371.54
792.054	246.61
792.235	283.47
792.416	273.23
792.597	238.42
792.778	271.19
792.958	330.58
793.139	244.56
793.32	334.67
793.5	314.19
793.681	346.96
793.862	289.62
794.042	250.71
794.223	328.53
794.404	258.9
794.584	230.23
794.765	240.47
794.945	299.86
795.126	281.43
795.306	260.95
795.487	283.47
795.667	260.95
795.848	207.7
796.028	250.71
796.209	219.99
796.389	275.28
796.57	250.71
796.75	158.55
796.93	252.75
797.111	232.27
797.291	240.47
797.471	234.32
797.652	226.13
797.832	254.8
798.012	248.66
798.192	236.37
798.373	203.6
798.553	244.56
798.733	183.12
798.913	215.89
799.093	242.51
799.274	189.27
799.454	213.84
799.634	275.28
799.814	209.75
799.994	230.23
800.174	224.08
800.354	219.99
800.534	289.62
800.714	174.93
800.894	205.65
801.074	226.13
801.254	181.07
801.434	193.36
801.614	201.55
801.794	152.4
801.974	533.33
802.154	156.5
802.334	133.97
802.514	179.03
802.693	131.92
802.873	244.56
803.053	209.75
803.233	217.94
803.413	226.13
803.592	131.92
803.772	131.92
803.952	156.5
804.131	197.46
804.311	176.98
804.491	179.03
804.67	129.88
804.85	203.6
805.03	170.83
805.209	131.92
805.389	213.84
805.568	205.65
805.748	166.74
805.928	154.45
806.107	162.64
806.287	185.17
806.466	101.2
806.646	176.98
806.825	150.36
807.004	54.1
807.184	158.55
807.363	111.44
807.543	142.16
807.722	164.69
807.901	125.78
808.081	215.89
808.26	119.64
808.439	93.01
808.619	142.16
808.798	93.01
808.977	127.83
809.156	146.26
809.336	183.12
809.515	107.35
809.694	226.13
809.873	203.6
810.052	43.86
810.231	160.59
810.411	138.07
810.59	142.16
810.769	215.89
810.948	142.16
811.127	146.26
811.306	125.78
811.485	160.59
811.664	84.82
811.843	199.51
812.022	113.49
812.201	115.54
812.38	142.16
812.559	189.27
812.737	129.88
812.916	107.35
813.095	103.25
813.274	162.64
813.453	174.93
813.632	115.54
813.811	103.25
813.989	117.59
814.168	121.68
814.347	95.06
814.526	166.74
814.704	127.83
814.883	125.78
815.062	90.96
815.24	88.92
815.419	47.96
815.598	125.78
815.776	158.55
815.955	115.54
816.133	101.2
816.312	111.44
816.49	78.68
816.669	78.68
816.847	129.88
817.026	90.96
817.204	115.54
817.383	93.01
817.561	142.16
817.74	181.07
817.918	123.73
818.097	129.88
818.275	58.2
818.453	105.3
818.632	103.25
818.81	158.55
818.988	13.14
819.167	129.88
819.345	103.25
819.523	101.2
819.701	31.57
819.879	105.3
820.058	133.97
820.236	181.07
820.414	88.92
820.592	33.62
820.77	88.92
820.948	107.35
821.127	70.48
821.305	35.67
821.483	23.38
821.661	74.58
821.839	41.81
822.017	78.68
822.195	99.16
822.373	123.73
822.551	62.29
822.729	39.76
822.907	33.62
823.085	119.64
823.262	99.16
823.44	80.72
823.618	70.48
823.796	150.36
823.974	93.01
824.152	50
824.329	82.77
824.507	78.68
824.685	33.62
824.863	58.2
825.04	-15.53
825.218	99.16
825.396	99.16
825.574	97.11
825.751	52.05
825.929	80.72
826.107	64.34
826.284	68.44
826.462	105.3
826.639	113.49
826.817	37.72
826.994	64.34
827.172	129.88
827.349	136.02
827.527	80.72
827.704	148.31
827.882	172.88
828.059	60.24
828.237	9.05
828.414	54.1
828.591	84.82
828.769	148.31
828.946	33.62
829.124	66.39
829.301	13.14
829.478	11.09
829.655	66.39
829.833	82.77
830.01	58.2
830.187	88.92
830.364	45.91
830.542	156.5
830.719	107.35
830.896	136.02
831.073	2.9
831.25	148.31
831.427	54.1
831.604	47.96
831.782	21.33
831.959	62.29
832.136	72.53
832.313	133.97
832.49	2.9
832.667	107.35
832.844	66.39
833.021	74.58
833.198	0.85
833.374	107.35
833.551	-31.91
833.728	127.83
833.905	70.48
834.082	41.81
834.259	140.12
834.436	107.35
834.612	103.25
834.789	82.77
834.966	66.39
835.143	74.58
835.319	21.33
835.496	13.14
835.673	60.24
835.85	56.15
836.026	72.53
836.203	70.48
836.38	-19.63
836.556	95.06
836.733	97.11
836.909	66.39
837.086	33.62
837.262	-11.43
837.439	41.81
837.616	78.68
837.792	60.24
837.968	41.81
838.145	-21.67
838.321	97.11
838.498	62.29
838.674	95.06
838.851	97.11
839.027	66.39
839.203	31.57
839.38	117.59
839.556	29.52
839.732	37.72
839.909	29.52
840.085	47.96
840.261	29.52
840.437	25.43
840.614	19.29
840.79	121.68
840.966	54.1
841.142	144.21
841.318	-21.67
841.494	56.15
841.671	11.09
841.847	99.16
842.023	4.95
842.199	76.63
842.375	43.86
842.551	33.62
842.727	131.92
842.903	-42.15
843.079	70.48
843.255	105.3
843.431	31.57
843.607	41.81
843.783	-38.06
843.959	72.53
844.134	86.87
844.31	78.68
844.486	39.76
844.662	11.09
844.838	66.39
845.013	66.39
845.189	54.1
845.365	37.72
845.541	17.24
845.716	76.63
845.892	2.9
846.068	78.68
846.244	15.19
846.419	4.95
846.595	13.14
846.77	-3.24
846.946	43.86
847.122	0.85
847.297	39.76
847.473	17.24
847.648	-52.39
847.824	80.72
847.999	25.43
848.175	21.33
848.35	90.96
848.526	66.39
848.701	78.68
848.876	35.67
849.052	84.82
849.227	21.33
849.403	64.34
849.578	76.63
849.753	9.05
849.929	115.54
850.104	13.14
850.279	45.91
850.454	-79.02
850.63	60.24
850.805	23.38
850.98	60.24
851.155	-52.39
851.33	39.76
851.505	45.91
851.681	41.81
851.856	39.76
852.031	-5.29
852.206	-21.67
852.381	4.95
852.556	0.85
852.731	50
852.906	41.81
853.081	-5.29
853.256	41.81
853.431	21.33
853.606	84.82
853.781	-25.77
853.956	17.24
854.131	11.09
854.305	-11.43
854.48	-7.34
854.655	133.97
854.83	0.85
855.005	86.87
855.18	29.52
855.354	37.72
855.529	33.62
855.704	35.67
855.879	78.68
856.053	-29.87
856.228	9.05
856.403	-21.67
856.577	39.76
856.752	-36.01
856.926	9.05
857.101	50
857.276	-97.45
857.45	19.29
857.625	-11.43
857.799	47.96
857.974	66.39
858.148	-31.91
858.323	70.48
858.497	31.57
858.672	-17.58
858.846	62.29
859.02	37.72
859.195	29.52
859.369	-5.29
859.543	50
859.718	68.44
859.892	-11.43
860.066	88.92
860.241	13.14
860.415	23.38
860.589	-85.16
860.763	27.48
860.938	-19.63
861.112	60.24
861.286	70.48
861.46	90.96
861.634	-11.43
861.808	-11.43
861.982	-54.44
862.157	25.43
862.331	23.38
862.505	2.9
862.679	-13.48
862.853	15.19
863.027	17.24
863.201	103.25
863.375	47.96
863.549	-1.19
863.722	23.38
863.896	7
864.07	-27.82
864.244	-11.43
864.418	35.67
864.592	58.2
864.766	-33.96
864.939	-9.39
865.113	-11.43
865.287	90.96
865.461	4.95
865.634	23.38
865.808	101.2
865.982	74.58
866.156	-3.24
866.329	2.9
866.503	39.76
866.676	50
866.85	-7.34
867.024	0.85
867.197	35.67
867.371	58.2
867.544	-31.91
867.718	45.91
867.891	11.09
868.065	11.09
868.238	-29.87
868.412	7
868.585	43.86
868.759	68.44
868.932	-27.82
869.105	-33.96
869.279	25.43
869.452	-31.91
869.625	13.14
869.799	41.81
869.972	13.14
870.145	23.38
870.319	60.24
870.492	-58.54
870.665	-50.35
870.838	41.81
871.011	-1.19
871.185	66.39
871.358	-48.3
871.531	43.86
871.704	-44.2
871.877	41.81
872.05	-15.53
872.223	80.72
872.396	13.14
872.569	21.33
872.742	-25.77
872.915	62.29
873.088	-46.25
873.261	33.62
873.434	-15.53
873.607	11.09
873.78	0.85
873.953	-11.43
874.126	23.38
874.299	25.43
874.471	0.85
874.644	-23.72
874.817	68.44
874.99	88.92
875.163	99.16
875.335	39.76
875.508	-36.01
875.681	15.19
875.853	19.29
876.026	35.67
876.199	33.62
876.371	9.05
876.544	-27.82
876.717	95.06
876.889	39.76
877.062	17.24
877.234	31.57
877.407	21.33
877.579	11.09
877.752	25.43
877.924	39.76
878.097	29.52
878.269	4.95
878.442	35.67
878.614	-15.53
878.786	-23.72
878.959	39.76
879.131	62.29
879.303	-101.55
879.476	4.95
879.648	37.72
879.82	-40.11
879.993	-1.19
880.165	9.05
880.337	-5.29
880.509	47.96
880.681	50
880.854	0.85
881.026	17.24
881.198	84.82
881.37	-13.48
881.542	68.44
881.714	13.14
881.886	13.14
882.058	41.81
882.23	-54.44
882.402	4.95
882.574	74.58
882.746	2.9
882.918	54.1
883.09	0.85
883.262	41.81
883.434	-5.29
883.606	54.1
883.778	-7.34
883.95	47.96
884.122	-11.43
884.293	19.29
884.465	17.24
884.637	52.05
884.809	45.91
884.98	50
885.152	-9.39
885.324	-17.58
885.496	29.52
885.667	95.06
885.839	-9.39
886.011	60.24
886.182	66.39
886.354	43.86
886.525	-3.24
886.697	-7.34
886.869	-64.68
887.04	21.33
887.212	37.72
887.383	21.33
887.555	-64.68
887.726	2.9
887.897	0.85
888.069	37.72
888.24	4.95
888.412	41.81
888.583	31.57
888.754	2.9
888.926	35.67
889.097	74.58
889.268	-76.97
889.44	39.76
889.611	-15.53
889.782	-5.29
889.953	-70.83
890.125	9.05
890.296	15.19
890.467	17.24
890.638	99.16
890.809	35.67
890.98	-58.54
891.151	-44.2
891.323	-19.63
891.494	31.57
891.665	13.14
891.836	11.09
892.007	86.87
892.178	95.06
892.349	39.76
892.52	-3.24
892.691	19.29
892.862	37.72
893.032	19.29
893.203	9.05
893.374	4.95
893.545	43.86
893.716	9.05
893.887	-9.39
894.057	21.33
894.228	25.43
894.399	52.05
894.57	88.92
894.74	-5.29
894.911	72.53
895.082	-33.96
895.253	21.33
895.423	19.29
895.594	68.44
895.764	41.81
895.935	-9.39
896.106	45.91
896.276	21.33
896.447	23.38
896.617	33.62
896.788	11.09
896.958	11.09
897.129	-27.82
897.299	-1.19
897.47	31.57
897.64	-38.06
897.81	9.05
897.981	-15.53
898.151	62.29
898.322	-7.34
898.492	56.15
898.662	-91.31
898.832	15.19
899.003	4.95
899.173	82.77
899.343	27.48
899.513	0.85
