Data from USB4F104151__161__11-08-40-089.txt Node

Date: Wed Mar 12 11:08:40 EDT 2025
User: louis
Spectrometer: USB4F10415
Trigger mode: 4
Integration Time (sec): 2.000000E-2
Scans to average: 1
Electric dark correction enabled: true
Nonlinearity correction enabled: false
Boxcar width: 0
XAxis mode: Wavelengths
Number of Pixels in Spectrum: 3648
>>>>>Begin Spectral Data<<<<<
178.204	-45.57
178.424	-45.57
178.644	-45.57
178.864	-98.81
179.084	-125.44
179.304	-20.99
179.524	-35.33
179.744	19.97
179.964	-27.14
180.184	32.26
180.404	5.63
180.624	50.69
180.844	-37.38
181.064	11.78
181.283	-8.7
181.503	-72.19
181.723	81.41
181.943	-23.04
182.163	108.03
182.383	15.87
182.602	9.73
182.822	50.69
183.042	36.35
183.262	22.02
183.482	40.45
183.701	-45.57
183.921	69.12
184.141	-41.47
184.361	38.4
184.58	-25.09
184.8	-25.09
185.02	13.82
185.239	19.97
185.459	13.82
185.679	11.78
185.898	40.45
186.118	71.17
186.338	62.98
186.557	124.41
186.777	19.97
186.997	19.97
187.216	-37.38
187.436	85.5
187.655	54.78
187.875	30.21
188.095	69.12
188.314	77.31
188.534	42.5
188.753	-39.42
188.973	22.02
189.192	44.54
189.412	1.54
189.631	65.02
189.851	-37.38
190.07	81.41
190.29	42.5
190.509	38.4
190.729	7.68
190.948	85.5
191.168	110.08
191.387	19.97
191.607	-37.38
191.826	-12.8
192.045	17.92
192.265	22.02
192.484	15.87
192.704	-37.38
192.923	-33.28
193.142	13.82
193.362	65.02
193.581	122.37
193.8	15.87
194.02	-8.7
194.239	-4.61
194.458	42.5
194.678	-51.71
194.897	65.02
195.116	75.26
195.335	75.26
195.555	97.79
195.774	44.54
195.993	-47.62
196.212	11.78
196.432	-27.14
196.651	-2.56
196.87	28.16
197.089	19.97
197.308	50.69
197.528	46.59
197.747	28.16
197.966	38.4
198.185	99.84
198.404	9.73
198.623	67.07
198.842	38.4
199.062	52.74
199.281	87.55
199.5	-55.81
199.719	34.3
199.938	65.02
200.157	40.45
200.376	32.26
200.595	44.54
200.814	3.58
201.033	40.45
201.252	36.35
201.471	-6.66
201.69	36.35
201.909	83.45
202.128	19.97
202.347	81.41
202.566	-4.61
202.785	42.5
203.004	-6.66
203.223	93.69
203.442	5.63
203.661	46.59
203.879	5.63
204.098	36.35
204.317	3.58
204.536	36.35
204.755	26.11
204.974	60.93
205.193	-12.8
205.411	62.98
205.63	56.83
205.849	32.26
206.068	-0.51
206.287	-29.18
206.505	19.97
206.724	50.69
206.943	-0.51
207.162	91.65
207.381	11.78
207.599	65.02
207.818	-29.18
208.037	56.83
208.255	-37.38
208.474	-8.7
208.693	26.11
208.911	30.21
209.13	-2.56
209.349	26.11
209.567	-4.61
209.786	128.51
210.005	-53.76
210.223	38.4
210.442	-25.09
210.661	-8.7
210.879	44.54
211.098	-4.61
211.316	38.4
211.535	73.21
211.753	3.58
211.972	15.87
212.191	38.4
212.409	22.02
212.628	30.21
212.846	85.5
213.065	58.88
213.283	116.22
213.502	-2.56
213.72	65.02
213.938	11.78
214.157	-6.66
214.375	122.37
214.594	38.4
214.812	99.84
215.031	48.64
215.249	5.63
215.467	60.93
215.686	-33.28
215.904	103.93
216.122	5.63
216.341	-20.99
216.559	26.11
216.778	-0.51
216.996	54.78
217.214	62.98
217.432	1.54
217.651	48.64
217.869	44.54
218.087	11.78
218.306	36.35
218.524	-2.56
218.742	50.69
218.96	67.07
219.179	-8.7
219.397	15.87
219.615	54.78
219.833	108.03
220.051	13.82
220.27	62.98
220.488	19.97
220.706	-8.7
220.924	19.97
221.142	75.26
221.36	65.02
221.578	-8.7
221.796	54.78
222.015	-25.09
222.233	22.02
222.451	22.02
222.669	11.78
222.887	42.5
223.105	-49.66
223.323	-16.9
223.541	34.3
223.759	93.69
223.977	-33.28
224.195	-16.9
224.413	19.97
224.631	24.06
224.849	36.35
225.067	65.02
225.285	-0.51
225.503	-18.94
225.721	38.4
225.939	40.45
226.157	26.11
226.375	116.22
226.592	-49.66
226.81	-49.66
227.028	3.58
227.246	30.21
227.464	46.59
227.682	19.97
227.9	3.58
228.117	34.3
228.335	3.58
228.553	-4.61
228.771	28.16
228.989	50.69
229.206	3.58
229.424	7.68
229.642	-14.85
229.86	32.26
230.077	34.3
230.295	71.17
230.513	9.73
230.731	97.79
230.948	81.41
231.166	38.4
231.384	118.27
231.601	17.92
231.819	79.36
232.037	-20.99
232.254	36.35
232.472	-23.04
232.689	-6.66
232.907	-23.04
233.125	-2.56
233.342	-25.09
233.56	15.87
233.777	48.64
233.995	36.35
234.213	-41.47
234.43	28.16
234.648	48.64
234.865	-10.75
235.083	9.73
235.3	42.5
235.518	48.64
235.735	56.83
235.953	-2.56
236.17	32.26
236.388	71.17
236.605	36.35
236.822	-33.28
237.04	-4.61
237.257	40.45
237.475	-47.62
237.692	56.83
237.909	50.69
238.127	3.58
238.344	-12.8
238.562	40.45
238.779	-76.29
238.996	36.35
239.214	17.92
239.431	32.26
239.648	-20.99
239.865	50.69
240.083	3.58
240.3	44.54
240.517	48.64
240.735	22.02
240.952	30.21
241.169	38.4
241.386	50.69
241.603	83.45
241.821	5.63
242.038	17.92
242.255	48.64
242.472	32.26
242.689	-10.75
242.907	75.26
243.124	79.36
243.341	101.89
243.558	38.4
243.775	-23.04
243.992	11.78
244.209	17.92
244.426	83.45
244.643	50.69
244.86	-12.8
245.078	79.36
245.295	46.59
245.512	58.88
245.729	-23.04
245.946	105.98
246.163	22.02
246.38	3.58
246.597	15.87
246.814	-37.38
247.031	3.58
247.248	17.92
247.464	46.59
247.681	48.64
247.898	30.21
248.115	44.54
248.332	19.97
248.549	101.89
248.766	38.4
248.983	-4.61
249.2	11.78
249.417	65.02
249.633	-20.99
249.85	71.17
250.067	30.21
250.284	19.97
250.501	122.37
250.717	65.02
250.934	46.59
251.151	9.73
251.368	28.16
251.585	97.79
251.801	-14.85
252.018	-27.14
252.235	3.58
252.451	69.12
252.668	50.69
252.885	79.36
253.102	67.07
253.318	69.12
253.535	9.73
253.752	13.82
253.968	69.12
254.185	26.11
254.401	58.88
254.618	99.84
254.835	-4.61
255.051	71.17
255.268	101.89
255.484	22.02
255.701	40.45
255.917	58.88
256.134	73.21
256.351	71.17
256.567	-10.75
256.784	11.78
257	-78.33
257.217	79.36
257.433	60.93
257.65	67.07
257.866	85.5
258.082	26.11
258.299	77.31
258.515	24.06
258.732	3.58
258.948	9.73
259.165	54.78
259.381	-14.85
259.597	-23.04
259.814	77.31
260.03	46.59
260.246	13.82
260.463	-20.99
260.679	69.12
260.895	48.64
261.112	44.54
261.328	48.64
261.544	-10.75
261.761	71.17
261.977	38.4
262.193	11.78
262.409	32.26
262.626	9.73
262.842	5.63
263.058	52.74
263.274	-29.18
263.49	54.78
263.707	77.31
263.923	-57.86
264.139	7.68
264.355	40.45
264.571	17.92
264.787	-41.47
265.004	67.07
265.22	44.54
265.436	54.78
265.652	-25.09
265.868	44.54
266.084	13.82
266.3	-6.66
266.516	52.74
266.732	17.92
266.948	79.36
267.164	24.06
267.38	30.21
267.596	67.07
267.812	120.32
268.028	5.63
268.244	17.92
268.46	58.88
268.676	93.69
268.892	54.78
269.108	75.26
269.324	89.6
269.54	3.58
269.756	69.12
269.972	75.26
270.188	46.59
270.403	42.5
270.619	-20.99
270.835	28.16
271.051	13.82
271.267	-33.28
271.483	3.58
271.698	95.74
271.914	52.74
272.13	71.17
272.346	11.78
272.562	-23.04
272.777	60.93
272.993	30.21
273.209	-59.9
273.425	32.26
273.64	46.59
273.856	-6.66
274.072	103.93
274.287	15.87
274.503	89.6
274.719	44.54
274.934	-27.14
275.15	-74.24
275.366	11.78
275.581	36.35
275.797	15.87
276.012	24.06
276.228	91.65
276.444	36.35
276.659	69.12
276.875	-27.14
277.09	38.4
277.306	38.4
277.521	69.12
277.737	34.3
277.952	38.4
278.168	67.07
278.383	-12.8
278.599	13.82
278.814	48.64
279.03	-2.56
279.245	77.31
279.461	52.74
279.676	56.83
279.892	122.37
280.107	-10.75
280.322	28.16
280.538	28.16
280.753	34.3
280.969	50.69
281.184	15.87
281.399	24.06
281.615	38.4
281.83	1.54
282.045	65.02
282.26	60.93
282.476	44.54
282.691	69.12
282.906	67.07
283.122	5.63
283.337	67.07
283.552	85.5
283.767	-20.99
283.983	91.65
284.198	24.06
284.413	26.11
284.628	-4.61
284.843	40.45
285.058	99.84
285.274	5.63
285.489	93.69
285.704	24.06
285.919	56.83
286.134	42.5
286.349	30.21
286.564	105.98
286.779	54.78
286.995	34.3
287.21	-68.09
287.425	75.26
287.64	-25.09
287.855	54.78
288.07	13.82
288.285	32.26
288.5	30.21
288.715	38.4
288.93	26.11
289.145	-31.23
289.36	1.54
289.575	32.26
289.79	3.58
290.004	99.84
290.219	105.98
290.434	81.41
290.649	-8.7
290.864	67.07
291.079	3.58
291.294	-29.18
291.509	-25.09
291.724	71.17
291.938	34.3
292.153	7.68
292.368	30.21
292.583	42.5
292.798	26.11
293.012	1.54
293.227	50.69
293.442	46.59
293.657	22.02
293.871	71.17
294.086	50.69
294.301	148.99
294.516	36.35
294.73	3.58
294.945	85.5
295.16	22.02
295.374	58.88
295.589	56.83
295.804	-18.94
296.018	15.87
296.233	38.4
296.447	24.06
296.662	46.59
296.877	-2.56
297.091	9.73
297.306	-8.7
297.52	-10.75
297.735	17.92
297.949	48.64
298.164	71.17
298.378	52.74
298.593	48.64
298.807	26.11
299.022	7.68
299.236	95.74
299.451	38.4
299.665	13.82
299.88	38.4
300.094	-31.23
300.309	3.58
300.523	22.02
300.737	32.26
300.952	26.11
301.166	30.21
301.381	124.41
301.595	5.63
301.809	58.88
302.024	124.41
302.238	42.5
302.452	56.83
302.667	89.6
302.881	44.54
303.095	126.46
303.309	38.4
303.524	17.92
303.738	69.12
303.952	60.93
304.166	128.51
304.381	-4.61
304.595	36.35
304.809	-37.38
305.023	34.3
305.237	-6.66
305.452	99.84
305.666	77.31
305.88	50.69
306.094	58.88
306.308	112.13
306.522	32.26
306.736	112.13
306.95	52.74
307.164	34.3
307.379	91.65
307.593	126.46
307.807	99.84
308.021	3.58
308.235	89.6
308.449	-61.95
308.663	65.02
308.877	105.98
309.091	-12.8
309.305	15.87
309.519	-6.66
309.733	56.83
309.947	17.92
310.161	108.03
310.374	108.03
310.588	22.02
310.802	54.78
311.016	32.26
311.23	32.26
311.444	58.88
311.658	26.11
311.872	26.11
312.085	85.5
312.299	73.21
312.513	-8.7
312.727	132.61
312.941	11.78
313.154	83.45
313.368	112.13
313.582	34.3
313.796	-35.33
314.009	17.92
314.223	169.47
314.437	19.97
314.651	9.73
314.864	48.64
315.078	58.88
315.292	46.59
315.505	42.5
315.719	54.78
315.933	69.12
316.146	83.45
316.36	17.92
316.573	62.98
316.787	19.97
317.001	36.35
317.214	50.69
317.428	44.54
317.641	69.12
317.855	67.07
318.068	52.74
318.282	69.12
318.495	118.27
318.709	42.5
318.922	54.78
319.136	56.83
319.349	89.6
319.563	40.45
319.776	69.12
319.99	7.68
320.203	110.08
320.417	67.07
320.63	46.59
320.843	89.6
321.057	24.06
321.27	-8.7
321.483	99.84
321.697	19.97
321.91	67.07
322.124	58.88
322.337	-18.94
322.55	85.5
322.763	24.06
322.977	52.74
323.19	56.83
323.403	67.07
323.617	22.02
323.83	118.27
324.043	24.06
324.256	54.78
324.469	34.3
324.683	44.54
324.896	50.69
325.109	52.74
325.322	19.97
325.535	58.88
325.748	71.17
325.962	-29.18
326.175	52.74
326.388	101.89
326.601	110.08
326.814	-0.51
327.027	89.6
327.24	79.36
327.453	-16.9
327.666	38.4
327.879	36.35
328.092	22.02
328.305	73.21
328.518	65.02
328.731	69.12
328.944	62.98
329.157	44.54
329.37	65.02
329.583	13.82
329.796	-8.7
330.009	97.79
330.222	54.78
330.435	79.36
330.648	108.03
330.861	46.59
331.073	-2.56
331.286	95.74
331.499	58.88
331.712	-16.9
331.925	42.5
332.138	22.02
332.35	58.88
332.563	-4.61
332.776	54.78
332.989	54.78
333.202	48.64
333.414	79.36
333.627	56.83
333.84	38.4
334.053	97.79
334.265	40.45
334.478	38.4
334.691	105.98
334.903	122.37
335.116	122.37
335.329	62.98
335.541	34.3
335.754	36.35
335.966	77.31
336.179	81.41
336.392	40.45
336.604	46.59
336.817	36.35
337.029	-8.7
337.242	30.21
337.454	83.45
337.667	38.4
337.88	7.68
338.092	85.5
338.305	30.21
338.517	54.78
338.729	50.69
338.942	73.21
339.154	62.98
339.367	75.26
339.579	60.93
339.792	13.82
340.004	108.03
340.217	58.88
340.429	40.45
340.641	-41.47
340.854	77.31
341.066	97.79
341.278	62.98
341.491	120.32
341.703	85.5
341.915	52.74
342.128	-6.66
342.34	-12.8
342.552	65.02
342.764	118.27
342.977	85.5
343.189	114.17
343.401	52.74
343.613	58.88
343.826	71.17
344.038	15.87
344.25	91.65
344.462	17.92
344.674	17.92
344.886	-4.61
345.099	36.35
345.311	87.55
345.523	7.68
345.735	-8.7
345.947	24.06
346.159	52.74
346.371	75.26
346.583	110.08
346.795	67.07
347.007	19.97
347.219	48.64
347.431	73.21
347.643	73.21
347.855	42.5
348.067	28.16
348.279	7.68
348.491	101.89
348.703	101.89
348.915	99.84
349.127	44.54
349.339	24.06
349.551	60.93
349.763	62.98
349.975	105.98
350.187	83.45
350.399	75.26
350.61	138.75
350.822	73.21
351.034	71.17
351.246	19.97
351.458	77.31
351.669	112.13
351.881	97.79
352.093	99.84
352.305	108.03
352.517	3.58
352.728	77.31
352.94	65.02
353.152	79.36
353.363	58.88
353.575	36.35
353.787	28.16
353.999	36.35
354.21	81.41
354.422	73.21
354.633	52.74
354.845	142.85
355.057	-25.09
355.268	-16.9
355.48	95.74
355.692	44.54
355.903	26.11
356.115	65.02
356.326	69.12
356.538	50.69
356.749	89.6
356.961	44.54
357.172	65.02
357.384	91.65
357.595	83.45
357.807	99.84
358.018	-2.56
358.23	46.59
358.441	144.89
358.653	22.02
358.864	89.6
359.075	30.21
359.287	95.74
359.498	73.21
359.709	44.54
359.921	24.06
360.132	11.78
360.344	50.69
360.555	116.22
360.766	79.36
360.977	-39.42
361.189	85.5
361.4	73.21
361.611	144.89
361.823	183.81
362.034	34.3
362.245	-2.56
362.456	50.69
362.667	34.3
362.879	40.45
363.09	13.82
363.301	114.17
363.512	73.21
363.723	52.74
363.935	26.11
364.146	95.74
364.357	87.55
364.568	36.35
364.779	101.89
364.99	118.27
365.201	30.21
365.412	30.21
365.623	60.93
365.834	112.13
366.045	134.65
366.256	128.51
366.467	52.74
366.678	13.82
366.889	19.97
367.1	77.31
367.311	108.03
367.522	32.26
367.733	97.79
367.944	28.16
368.155	85.5
368.366	19.97
368.577	99.84
368.788	36.35
368.999	19.97
369.209	67.07
369.42	71.17
369.631	87.55
369.842	65.02
370.053	56.83
370.264	15.87
370.474	9.73
370.685	79.36
370.896	48.64
371.107	140.8
371.317	48.64
371.528	-23.04
371.739	52.74
371.95	91.65
372.16	81.41
372.371	65.02
372.582	17.92
372.792	50.69
373.003	114.17
373.214	28.16
373.424	97.79
373.635	83.45
373.846	77.31
374.056	114.17
374.267	44.54
374.477	19.97
374.688	79.36
374.898	67.07
375.109	77.31
375.319	110.08
375.53	75.26
375.74	56.83
375.951	97.79
376.161	50.69
376.372	105.98
376.582	75.26
376.793	-12.8
377.003	40.45
377.214	77.31
377.424	97.79
377.635	93.69
377.845	120.32
378.055	5.63
378.266	28.16
378.476	48.64
378.686	101.89
378.897	65.02
379.107	91.65
379.317	138.75
379.528	73.21
379.738	60.93
379.948	40.45
380.158	67.07
380.369	99.84
380.579	75.26
380.789	110.08
380.999	65.02
381.21	153.09
381.42	38.4
381.63	42.5
381.84	83.45
382.05	9.73
382.261	105.98
382.471	128.51
382.681	62.98
382.891	28.16
383.101	56.83
383.311	128.51
383.521	89.6
383.731	65.02
383.941	194.05
384.151	99.84
384.361	89.6
384.571	116.22
384.781	128.51
384.991	110.08
385.201	126.46
385.411	146.94
385.621	87.55
385.831	13.82
386.041	95.74
386.251	50.69
386.461	93.69
386.671	11.78
386.881	24.06
387.091	85.5
387.301	36.35
387.511	30.21
387.72	126.46
387.93	67.07
388.14	52.74
388.35	136.7
388.56	46.59
388.769	87.55
388.979	89.6
389.189	118.27
389.399	103.93
389.609	75.26
389.818	83.45
390.028	134.65
390.238	157.18
390.447	65.02
390.657	155.13
390.867	83.45
391.076	95.74
391.286	40.45
391.496	62.98
391.705	71.17
391.915	140.8
392.125	69.12
392.334	95.74
392.544	142.85
392.753	116.22
392.963	97.79
393.172	99.84
393.382	93.69
393.591	194.05
393.801	81.41
394.01	196.09
394.22	101.89
394.429	91.65
394.639	171.52
394.848	99.84
395.058	62.98
395.267	171.52
395.477	146.94
395.686	151.04
395.895	93.69
396.105	210.43
396.314	169.47
396.524	157.18
396.733	83.45
396.942	142.85
397.152	138.75
397.361	124.41
397.57	128.51
397.78	97.79
397.989	118.27
398.198	173.57
398.407	124.41
398.617	128.51
398.826	134.65
399.035	212.48
399.244	148.99
399.453	202.24
399.663	151.04
399.872	132.61
400.081	237.05
400.29	204.28
400.499	101.89
400.708	251.39
400.917	142.85
401.127	194.05
401.336	108.03
401.545	198.14
401.754	177.66
401.963	185.85
402.172	212.48
402.381	134.65
402.59	153.09
402.799	196.09
403.008	185.85
403.217	286.2
403.426	228.86
403.635	148.99
403.844	161.28
404.053	220.67
404.262	239.1
404.471	253.44
404.68	263.68
404.888	257.53
405.097	200.19
405.306	321.02
405.515	329.21
405.724	273.92
405.933	259.58
406.142	351.74
406.35	314.88
406.559	300.54
406.768	269.82
406.977	361.98
407.185	298.49
407.394	407.03
407.603	314.88
407.812	411.13
408.02	409.08
408.229	396.79
408.438	425.47
408.646	325.12
408.855	435.71
409.064	396.79
409.272	376.31
409.481	515.58
409.69	447.99
409.898	531.96
410.107	548.34
410.315	503.29
410.524	511.48
410.733	585.21
410.941	544.25
411.15	599.54
411.358	636.41
411.567	640.5
411.775	577.02
411.984	622.07
412.192	734.71
412.401	703.99
412.609	855.54
412.818	806.39
413.026	876.02
413.234	855.54
413.443	916.98
413.651	878.07
413.86	957.94
414.068	996.85
414.276	996.85
414.485	1037.81
414.693	1082.86
414.901	1209.84
415.11	1158.64
415.318	1150.45
415.526	1252.84
415.734	1199.6
415.943	1388.01
416.151	1332.72
416.359	1490.41
416.567	1461.74
416.776	1480.17
416.984	1609.19
417.192	1629.67
417.4	1719.78
417.608	1725.93
417.817	1809.89
418.025	1836.52
418.233	1979.87
418.441	1977.83
418.649	2039.26
418.857	2248.16
419.065	2242.01
419.273	2186.72
419.481	2342.36
419.689	2412
419.897	2530.78
420.105	2676.18
420.313	2618.84
420.521	2708.95
420.729	2807.25
420.937	2915.8
421.145	3005.91
421.353	3214.8
421.561	3349.96
421.769	3378.64
421.977	3671.5
422.185	3407.31
422.393	3577.29
422.601	3931.59
422.809	3997.12
423.017	4099.52
423.224	4148.67
423.432	4304.32
423.64	4425.15
423.848	4734.39
424.056	4654.52
424.263	4771.26
424.471	4978.1
424.679	5035.44
424.887	5281.2
425.094	5389.74
425.302	5578.15
425.51	5807.53
425.718	5785
425.925	5889.45
426.133	6241.7
426.341	6391.2
426.548	6741.4
426.756	6757.78
426.964	6804.89
427.171	7306.64
427.379	7450
427.586	7742.86
427.794	7789.96
428.001	8103.3
428.209	8600.96
428.417	8334.72
428.624	8992.12
428.832	8867.19
429.039	8801.66
429.247	8990.07
429.454	9651.56
429.662	10491.23
429.869	9719.15
430.076	10464.61
430.284	10005.86
430.491	10823
430.699	11144.53
430.906	11146.58
431.114	11474.26
431.321	11775.31
431.528	11896.14
431.736	12580.16
431.943	13370.68
432.15	12887.36
432.358	13010.23
432.565	13729.07
432.772	13770.03
432.979	14585.12
433.187	14802.21
433.394	14929.18
433.601	15865.1
433.808	15738.13
434.016	15252.76
434.223	16241.93
434.43	17421.56
434.637	17222.91
434.844	17956.08
435.052	18402.54
435.259	18375.91
435.466	18707.68
435.673	18164.97
435.88	19541.21
436.087	20509.9
436.294	20636.87
436.501	20116.69
436.708	20333.77
436.915	21085.37
437.122	22074.54
437.329	22101.17
437.537	22602.92
437.743	22979.75
437.95	22891.68
438.157	24128.66
438.364	25005.19
438.571	24716.42
438.778	25011.33
438.985	27452.51
439.192	26276.98
439.399	27440.22
439.606	26680.42
439.813	27858.01
440.02	29520.96
440.227	29047.88
440.433	28716.11
440.64	29850.68
440.847	29398.08
441.054	30303.28
441.261	32506.9
441.467	31763.48
441.674	32496.66
441.881	33649.66
442.088	33766.4
442.294	32998.41
442.501	34513.91
442.708	34903.02
442.914	36344.79
443.121	37891.01
443.328	36768.72
443.534	39170.99
443.741	38382.52
443.948	37366.73
444.154	40627.09
444.361	40252.31
444.568	40328.09
444.774	40440.73
444.981	40868.75
445.187	41718.66
445.394	43563.88
445.6	43148.14
445.807	47475.5
446.013	44854.1
446.22	45939.52
446.426	47706.92
446.633	47635.24
446.839	48743.19
447.046	47192.88
447.252	50025.22
447.459	49902.34
447.665	49404.69
447.871	52048.61
448.078	53975.75
448.284	51430.13
448.491	52966.1
448.697	54588.1
448.903	55655.09
449.11	55345.84
449.316	54162.12
449.522	55411.38
449.728	56529.57
449.935	57373.33
450.141	57139.86
450.347	58626.69
450.553	56738.46
450.76	57289.37
450.966	58786.43
451.172	58380.93
451.378	59480.69
451.584	58421.89
451.791	60045.93
451.997	59392.63
452.203	60326.5
452.409	59986.54
452.615	59959.92
452.821	57997.96
453.027	57225.88
453.233	60236.39
453.44	57612.94
453.646	58503.81
453.852	58749.57
454.058	59630.19
454.264	57440.92
454.47	58520.2
454.676	57289.37
454.882	59427.45
455.088	54440.64
455.294	55192.25
455.5	55626.42
455.705	56312.48
455.911	54078.15
456.117	52650.72
456.323	52101.86
456.529	49271.57
456.735	51514.09
456.941	50275.07
457.147	49156.88
457.352	48018.21
457.558	47498.03
457.764	47362.86
457.97	46863.16
458.176	45499.21
458.381	45579.08
458.587	43606.89
458.793	43096.94
458.999	41300.87
459.204	43361.13
459.41	42951.54
459.616	40170.4
459.821	40199.07
460.027	39779.23
460.233	38996.91
460.438	37192.65
460.644	38001.6
460.85	36146.14
461.055	35578.85
461.261	35419.11
461.466	32535.57
461.672	31476.77
461.878	34298.87
462.083	31917.08
462.289	31259.68
462.494	30905.38
462.7	29504.57
462.905	28787.78
463.111	29588.54
463.316	29799.48
463.522	29178.95
463.727	29529.15
463.932	29174.85
464.138	28859.46
464.343	29008.97
464.549	28390.48
464.754	29094.98
464.959	29127.75
465.165	28449.87
465.37	27550.81
465.575	26770.54
465.781	27968.6
465.986	28298.32
466.191	27102.31
466.397	26397.81
466.602	25283.71
466.807	26012.79
467.012	26328.17
467.218	25840.76
467.423	25646.2
467.628	25930.87
467.833	26807.4
468.038	26014.84
468.244	25060.48
468.449	26285.17
468.654	25539.71
468.859	25273.47
469.064	24923.27
469.269	24198.29
469.474	24251.53
469.679	24751.24
469.885	23977.11
470.09	24210.57
470.295	24458.38
470.5	23461.02
470.705	23571.61
470.91	22944.93
471.115	22797.48
471.32	23137.44
471.525	22803.62
471.73	22594.73
471.935	22609.06
472.139	21673.14
472.344	21935.28
472.549	21810.36
472.754	21726.39
472.959	20911.3
473.164	20395.21
473.369	20755.65
473.574	21068.99
473.778	20948.16
473.983	20675.78
474.188	20550.85
474.393	19885.26
474.598	19614.93
474.802	19528.92
475.007	19494.1
475.212	19369.18
475.417	18793.7
475.621	18590.95
475.826	18722.02
476.031	18398.44
476.235	17978.61
476.44	18361.58
476.645	17968.37
476.849	18167.02
477.054	17921.26
477.259	17597.68
477.463	17403.13
477.668	17059.07
477.872	17413.37
478.077	17083.64
478.282	16620.8
478.486	16639.23
478.691	16346.37
478.895	16442.63
479.1	16194.82
479.304	16188.68
479.509	15684.88
479.713	16041.23
479.918	15553.81
480.122	15443.22
480.326	15742.22
480.531	15742.22
480.735	15420.69
480.94	15449.36
481.144	15777.04
481.348	15185.18
481.553	15340.82
481.757	14722.34
481.961	15396.12
482.166	15389.97
482.37	15365.4
482.574	14894.36
482.778	14943.52
482.983	15164.7
483.187	14982.43
483.391	15349.01
483.595	14701.86
483.8	14996.76
484.004	15217.94
484.208	15197.46
484.412	14982.43
484.616	15150.36
484.821	14953.76
485.025	14685.47
485.229	15160.6
485.433	14798.11
485.637	14839.07
485.841	14900.51
486.045	14759.2
486.249	15050.01
486.453	14984.48
486.657	14933.28
486.861	15035.67
487.065	14562.59
487.269	14853.41
487.473	14589.22
487.677	14679.33
487.881	15224.09
488.085	14716.19
488.289	15205.66
488.493	14824.73
488.697	14937.37
488.901	15174.94
489.105	14937.37
489.309	15033.63
489.512	14804.25
489.716	14937.37
489.92	14982.43
490.124	14861.6
490.328	15340.82
490.531	15095.07
490.735	15187.22
490.939	15392.02
491.143	15170.84
491.346	15293.72
491.55	15549.71
491.754	15594.77
491.958	15764.75
492.161	15328.53
492.365	15701.26
492.569	15553.81
492.772	15539.47
492.976	15953.16
493.18	15715.6
493.383	16215.3
493.587	16258.31
493.79	16157.96
493.994	16192.78
494.197	16489.73
494.401	16391.43
494.605	16338.18
494.808	16631.04
495.012	16981.24
495.215	16831.74
495.419	16960.77
495.622	17100.03
495.825	17218.81
496.029	17302.78
496.232	17747.19
496.436	17808.62
496.639	17958.13
496.843	17822.96
497.046	18613.48
497.249	18310.38
497.453	18578.66
497.656	18744.55
497.859	18752.74
498.063	18820.32
498.266	19287.26
498.469	19453.14
498.673	19641.56
498.876	19958.99
499.079	19743.95
499.282	19969.23
499.485	20456.65
499.689	20557
499.892	20753.6
500.095	20972.74
500.298	21349.56
500.501	21175.48
500.705	21740.72
500.908	21902.51
501.111	22482.09
501.314	22330.54
501.517	22379.69
501.72	22713.51
501.923	22578.34
502.126	23372.96
502.329	23811.22
502.532	23526.55
502.735	23708.82
502.938	24329.36
503.141	24671.37
503.344	24837.25
503.547	25121.92
503.75	25300.09
503.953	25488.51
504.156	25535.61
504.359	25959.54
504.562	26096.75
504.765	26406
504.968	27341.92
505.17	26838.12
505.373	27141.22
505.576	27712.6
505.779	27997.27
505.982	27747.42
506.185	28552.27
506.387	28857.42
506.59	29072.45
506.793	29670.46
506.996	29301.82
507.198	30266.42
507.401	30133.3
507.604	30725.16
507.807	30895.14
508.009	31194.15
508.212	31771.68
508.415	31732.76
508.617	31869.98
508.82	32224.28
509.022	31974.42
509.225	33025.03
509.428	33145.86
509.63	33518.59
509.833	33354.76
510.035	34448.37
510.238	34135.03
510.44	34896.88
510.643	35173.35
510.845	35533.79
511.048	35195.88
511.25	35828.7
511.453	35965.92
511.655	37102.54
511.858	36555.73
512.06	37063.63
512.262	37499.84
512.465	37610.43
512.667	38327.22
512.87	38790.06
513.072	38466.49
513.274	39400.36
513.477	39318.44
513.679	39836.58
513.881	40201.11
514.084	40688.53
514.286	40641.43
514.488	40643.48
514.69	42177.4
514.893	41681.8
515.095	41753.47
515.297	42775.41
515.499	42857.33
515.701	43232.11
515.904	43836.26
516.106	43545.45
516.308	44086.11
516.51	44950.35
516.712	44604.25
516.914	45275.98
517.116	45515.59
517.318	45742.92
517.52	46285.63
517.722	46433.08
517.925	46900.02
518.127	47321.9
518.329	47711.02
518.531	47471.4
518.733	48530.2
518.935	48575.26
519.136	48702.23
519.338	49496.84
519.54	49459.98
519.742	50641.66
519.944	50533.12
520.146	51348.21
520.348	51346.16
520.55	51491.57
520.752	51589.87
520.954	52761.31
521.155	52134.63
521.357	52568.8
521.559	52908.76
521.761	53881.55
521.963	53361.36
522.164	54115.01
522.366	54440.64
522.568	54465.22
522.77	54784.7
522.971	55399.09
523.173	54946.49
523.375	55790.25
523.576	55583.41
523.778	55552.69
523.98	56652.45
524.181	56502.95
524.383	56504.99
524.584	57158.3
524.786	57170.58
524.988	57571.99
525.189	57791.12
525.391	57934.48
525.592	58462.85
525.794	58688.13
525.995	58337.93
526.197	58675.84
526.398	58655.36
526.6	58833.53
526.801	59351.67
527.003	59437.69
527.204	59554.42
527.406	59855.47
527.607	59910.77
527.808	60400.23
528.01	59071.1
528.211	60025.45
528.412	60959.33
528.614	60312.17
528.815	60519.01
529.016	61043.29
529.218	60748.39
529.419	61119.07
529.62	60643.94
529.822	61004.38
530.023	60897.89
530.224	61155.93
530.425	61264.47
530.626	60777.06
530.828	60433
531.029	61905.49
531.23	61061.72
531.431	61416.02
531.632	61366.87
531.833	61987.41
532.035	61254.23
532.236	61735.51
532.437	61928.02
532.638	61389.4
532.839	62102.09
533.04	61985.36
533.241	61577.81
533.442	62706.24
533.643	61770.32
533.844	61751.89
534.045	61913.68
534.246	61354.58
534.447	62216.78
534.648	61694.55
534.849	62011.98
535.05	61555.28
535.251	61473.37
535.451	61444.69
535.652	61727.31
535.853	61950.54
536.054	62001.74
536.255	62046.8
536.456	61493.85
536.657	62603.84
536.857	61817.42
537.058	61737.55
537.259	62300.75
537.46	62081.61
537.66	62028.37
537.861	62149.2
538.062	61551.19
538.263	62054.99
538.463	61559.38
538.664	61633.11
538.865	61588.05
539.065	61968.97
539.266	61526.61
539.466	62263.88
539.667	61475.41
539.868	62075.47
540.068	61536.85
540.269	61821.52
540.469	61831.76
540.67	61330.01
540.87	61540.95
541.071	61209.18
541.271	61751.89
541.472	61170.27
541.672	61200.99
541.873	61354.58
542.073	60772.96
542.274	62106.19
542.474	61209.18
542.675	61399.64
542.875	61626.96
543.075	61024.86
543.276	61043.29
543.476	62011.98
543.676	60639.84
543.877	61463.13
544.077	61127.26
544.277	61395.54
544.478	60887.65
544.678	61450.84
544.878	60693.09
545.078	60916.32
545.279	60584.55
545.479	61239.9
545.679	61141.6
545.879	61178.46
546.079	60969.57
546.28	60791.39
546.48	60609.12
546.68	60988
546.88	61026.91
547.08	60920.41
547.28	60719.71
547.48	60371.56
547.68	61069.92
547.88	60207.72
548.081	60981.85
548.281	60775.01
548.481	60811.87
548.681	61250.14
548.881	60738.15
549.081	61184.6
549.28	60437.09
549.48	60762.72
549.68	59968.11
549.88	61338.2
550.08	60725.86
550.28	60875.36
550.48	60488.29
550.68	60809.82
550.88	60217.96
551.08	60469.86
551.279	60578.4
551.479	60162.67
551.679	60600.93
551.879	60066.41
552.079	60594.79
552.278	60011.12
552.478	59961.97
552.678	60258.92
552.878	60519.01
553.077	60365.41
553.277	59894.38
553.477	60463.72
553.676	59873.9
553.876	60119.66
554.076	59900.53
554.275	59939.44
554.475	59214.46
554.674	59761.26
554.874	59830.9
555.074	59333.24
555.273	59839.09
555.473	60015.21
555.672	59495.03
555.872	59470.45
556.071	59724.4
556.271	59495.03
556.47	58980.99
556.67	59146.87
556.869	58974.84
557.068	59376.25
557.268	59202.17
557.467	59175.55
557.667	59200.12
557.866	59116.15
558.065	59054.71
558.265	58571.39
558.464	58552.96
558.663	59320.95
558.863	58266.25
559.062	59497.08
559.261	58473.09
559.461	58798.72
559.66	58079.88
559.859	58892.93
560.058	57897.61
560.258	58387.08
560.457	57789.07
560.656	58999.42
560.855	57715.34
561.054	58036.87
561.253	57537.17
561.453	58225.29
561.652	58018.44
561.851	58122.89
562.05	58102.41
562.249	57744.01
562.448	57678.48
562.647	57571.99
562.846	57485.97
563.045	57385.62
563.244	57023.13
563.443	57678.48
563.642	56625.82
563.841	57070.23
564.04	56627.87
564.239	57463.44
564.438	56513.19
564.637	56644.26
564.836	56861.34
565.035	56341.16
565.234	56656.54
565.432	56115.88
565.631	56439.46
565.83	56136.36
566.029	55765.68
566.228	55956.14
566.427	55743.15
566.625	55947.95
566.824	55456.43
567.023	55861.93
567.222	54553.28
567.42	55777.96
567.619	55571.12
567.818	55397.04
568.016	55179.96
568.215	55343.8
568.414	55333.56
568.612	55493.3
568.811	54618.81
569.01	54586.05
569.208	54137.54
569.407	54653.63
569.605	53867.21
569.804	54549.18
570.002	53637.84
570.201	54282.95
570.4	53650.13
570.598	53564.11
570.797	53658.32
570.995	54024.9
571.193	53267.16
571.392	53318.35
571.59	52826.84
571.789	53637.84
571.987	52943.58
572.186	53211.86
572.384	53027.54
572.582	52738.78
572.781	53109.46
572.979	52413.15
573.177	52089.57
573.376	52734.68
573.574	51897.06
573.772	52450.02
573.971	52370.14
574.169	51608.3
574.367	51620.59
574.565	52314.85
574.763	51370.74
574.962	51421.94
575.16	51067.64
575.358	51483.37
575.556	51124.98
575.754	51583.72
575.952	51090.16
576.151	51229.43
576.349	50666.23
576.547	50572.03
576.745	50328.32
576.943	50787.07
577.141	50330.37
577.339	50574.08
577.537	50260.74
577.735	49935.11
577.933	49703.69
578.131	49881.86
578.329	49789.7
578.527	49181.46
578.725	49494.8
578.923	49535.76
579.121	49019.67
579.319	48786.2
579.516	49320.72
579.714	48984.85
579.912	49099.54
580.11	48554.78
580.308	48599.83
580.506	48702.23
580.704	47696.68
580.901	48329.5
581.099	48597.79
581.297	47821.61
581.495	47831.85
581.692	48331.55
581.89	47563.56
582.088	47874.85
582.285	47450.92
582.483	47823.65
582.681	47436.59
582.878	47090.48
583.076	46848.82
583.274	47182.64
583.471	46115.65
583.669	47153.97
583.866	46654.26
584.064	46572.35
584.262	46048.07
584.459	46805.81
584.657	46058.31
584.854	46463.8
585.052	45339.47
585.249	46103.36
585.447	46021.44
585.644	45812.55
585.841	45189.97
586.039	45638.47
586.236	45005.65
586.434	45142.86
586.631	44909.39
586.828	44929.87
587.026	44858.2
587.223	45046.61
587.42	44520.28
587.618	45046.61
587.815	44034.91
588.012	44122.97
588.21	43858.79
588.407	44507.99
588.604	44208.99
588.801	43610.98
588.999	43598.69
589.196	43803.49
589.393	43717.48
589.59	43357.03
589.787	43350.89
589.984	43264.88
590.182	42607.48
590.379	42908.53
590.576	42593.14
590.773	42668.92
590.97	42523.51
591.167	42406.78
591.364	41995.14
591.561	42550.13
591.758	41649.03
591.955	42339.19
592.152	42058.62
592.349	41448.33
592.546	41716.61
592.743	41894.78
592.94	41530.25
593.137	41421.7
593.334	41436.04
593.531	40768.4
593.727	40752.02
593.924	41151.37
594.121	40262.55
594.318	40711.06
594.515	40330.14
594.712	40440.73
594.908	40221.59
595.105	40416.15
595.302	39867.3
595.499	39881.63
595.696	39744.42
595.892	39558.05
596.089	39521.19
596.286	40082.33
596.482	39257
596.679	39293.86
596.876	39156.65
597.072	39107.5
597.269	38904.75
597.466	39023.53
597.662	38722.48
597.859	38806.45
598.055	38818.74
598.252	38280.12
598.448	38417.33
598.645	38122.43
598.841	37778.37
599.038	38040.51
599.234	38034.36
599.431	37807.04
599.627	37366.73
599.824	37774.27
600.02	37143.5
600.217	37712.83
600.413	36975.56
600.609	37098.44
600.806	36869.07
601.002	37045.19
601.198	36799.44
601.395	36662.22
601.591	36451.28
601.787	36281.3
601.984	36305.88
602.18	36684.75
602.376	35881.95
602.572	36357.08
602.769	36101.08
602.965	35466.21
603.161	35541.99
603.357	35392.48
603.553	35412.96
603.75	35589.09
603.946	35189.74
604.142	35124.2
604.338	34747.37
604.534	35384.29
604.73	34687.98
604.926	34874.35
605.122	34868.2
605.318	34438.13
605.514	34702.32
605.71	34673.65
605.906	34051.06
606.102	34149.37
606.298	34460.66
606.494	33979.39
606.69	33715.2
606.886	34337.78
607.082	33592.32
607.278	33879.04
607.474	33121.29
607.67	33774.59
607.866	33453.06
608.062	33766.4
608.257	33485.83
608.453	33324.04
608.649	33317.89
608.845	32910.35
609.041	33178.63
609.236	33190.92
609.432	32986.12
609.628	32949.26
609.824	32797.71
610.019	32502.8
610.215	32652.3
610.411	32629.77
610.606	32353.3
610.802	32658.45
610.998	32015.38
611.193	32269.33
611.389	32228.37
611.584	32050.2
611.78	31687.71
611.976	32003.1
612.171	31894.55
612.367	31745.05
612.562	31685.66
612.758	31933.46
612.953	31366.18
613.149	32044.06
613.344	31726.62
613.539	32103.45
613.735	31446.05
613.93	31763.48
614.126	31441.95
614.321	31749.15
614.517	31204.39
614.712	31532.06
614.907	31327.27
615.103	31538.21
615.298	31294.5
615.493	31231.01
615.688	30858.28
615.884	31433.76
616.079	30911.53
616.274	30860.33
616.47	31130.66
616.665	30768.17
616.86	30604.33
617.055	30719.02
617.25	30520.37
617.445	30659.63
617.641	30215.22
617.836	30440.5
618.031	30166.07
618.226	30067.77
618.421	29602.88
618.616	30073.91
618.811	29191.23
619.006	29865.02
619.201	29320.26
619.396	29512.77
619.591	28963.91
619.786	29557.82
619.981	28867.66
620.176	29301.82
620.371	28949.57
620.566	28849.22
620.761	28519.5
620.956	28525.64
621.151	28124.24
621.346	28288.08
621.541	27872.34
621.735	28402.77
621.93	27614.3
622.125	27618.39
622.32	27628.63
622.515	27659.35
622.709	27413.6
622.904	27563.1
623.099	27278.43
623.294	27184.23
623.488	26887.27
623.683	26985.57
623.878	26272.88
624.072	26451.05
624.267	26543.21
624.462	26330.22
624.656	26293.36
624.851	25891.96
625.046	25584.76
625.24	25662.58
625.435	25420.92
625.629	25500.79
625.824	25201.79
626.018	25128.06
626.213	24482.95
626.407	24976.51
626.602	24237.2
626.796	24790.15
626.991	24472.71
627.185	24204.43
627.38	23981.2
627.574	23997.59
627.768	23760.02
627.963	23727.25
628.157	23624.86
628.352	23620.76
628.546	23235.74
628.74	23551.13
628.935	23196.83
629.129	22955.17
629.323	22961.31
629.517	22733.99
629.712	22824.1
629.906	22658.21
630.1	22299.82
630.294	22412.46
630.489	22209.71
630.683	22293.68
630.877	21902.51
631.071	21687.48
631.265	21746.87
631.459	21955.76
631.653	21593.27
631.848	21572.79
632.042	21019.84
632.236	21273.79
632.43	21009.6
632.624	21263.55
632.818	21028.03
633.012	20794.56
633.206	20513.99
633.4	20937.92
633.594	20317.39
633.788	20462.79
633.982	20651.2
634.176	20174.03
634.369	20178.12
634.563	20028.62
634.757	19629.27
634.951	19915.98
635.145	19326.17
635.339	19733.71
635.533	19397.85
635.726	19430.62
635.92	19094.75
636.114	19143.9
636.308	18842.85
636.501	18978.01
636.695	18885.86
636.889	18558.18
637.083	18562.28
637.276	18486.5
637.47	18283.75
637.664	18248.94
637.857	18289.9
638.051	18246.89
638.244	17882.35
638.438	18066.67
638.632	17855.73
638.825	17720.56
639.019	17655.03
639.212	17546.48
639.406	17550.58
639.599	17628.4
639.793	17470.71
639.986	17050.88
640.18	16928
640.373	17081.6
640.567	16893.18
640.76	16997.63
640.954	16405.77
641.147	16678.15
641.34	16641.28
641.534	16665.86
641.727	16327.94
641.92	16319.75
642.114	16268.55
642.307	16246.02
642.5	16145.67
642.694	15785.23
642.887	15908.11
643.08	16149.77
643.273	15885.58
643.467	15768.85
643.66	15621.39
643.853	15402.26
644.046	15277.33
644.239	15324.44
644.432	15435.03
644.626	14986.52
644.819	15179.03
645.012	15260.95
645.205	14904.6
645.398	14841.12
645.591	14888.22
645.784	14837.02
645.977	14781.73
646.17	14859.55
646.363	14370.08
646.556	14236.97
646.749	14519.59
646.942	14484.77
647.135	14208.3
647.328	14089.51
647.521	14009.64
647.714	13765.93
647.907	13923.63
648.099	13876.52
648.292	13665.58
648.485	13763.89
648.678	13526.32
648.871	13491.51
649.064	13464.88
649.256	13681.97
649.449	13184.31
649.642	13200.69
649.835	13206.84
650.027	13139.26
650.22	12920.12
650.413	12977.47
650.605	12850.49
650.798	13004.09
650.991	12729.66
651.183	12717.37
651.376	12643.65
651.568	12555.58
651.761	12420.42
651.954	12512.58
652.146	12512.58
652.339	12123.46
652.531	12045.64
652.724	12254.53
652.916	12166.47
653.109	12127.56
653.301	11943.24
653.494	12266.82
653.686	11697.49
653.879	11984.2
654.071	11918.67
654.263	11541.84
654.456	11566.42
654.648	11580.75
654.84	11384.15
655.033	11672.91
655.225	11484.5
655.417	11283.8
655.61	11306.32
655.802	11285.84
655.994	11203.93
656.186	11421.01
656.379	10960.22
656.571	11027.8
656.763	10788.19
656.955	10753.37
657.148	10767.71
657.34	10571.1
657.532	10620.25
657.724	10644.83
657.916	10423.65
658.108	10276.2
658.3	10227.04
658.492	10419.55
658.684	10259.81
658.876	10392.93
659.068	10356.07
659.26	10239.33
659.452	9923.94
659.644	10222.95
659.836	9891.18
660.028	10108.26
660.22	9749.87
660.412	9876.84
660.604	9686.38
660.796	9653.61
660.988	9600.37
661.18	9604.46
661.372	9629.04
661.563	9514.35
661.755	9342.32
661.947	9448.82
662.139	9401.71
662.331	9575.79
662.522	9209.2
662.714	9129.33
662.906	9252.21
663.097	9137.52
663.289	9155.96
663.481	8809.85
663.673	8998.26
663.864	8818.04
664.056	8807.8
664.247	8955.26
664.439	8689.02
664.631	8961.4
664.822	8635.77
665.014	8770.94
665.205	8736.12
665.397	8650.11
665.588	8387.97
665.78	8615.29
665.971	8301.95
666.163	8652.16
666.354	8183.17
666.546	8332.67
666.737	8234.37
666.929	8121.73
667.12	8326.53
667.311	8117.64
667.503	8160.64
667.694	8025.48
667.885	7904.65
668.077	8031.62
668.268	7992.71
668.459	7933.32
668.651	7886.22
668.842	7869.83
669.033	7927.18
669.224	7648.65
669.416	7810.44
669.607	7617.93
669.798	7525.77
669.989	7677.32
670.18	7413.13
670.371	7521.68
670.563	7523.73
670.754	7417.23
670.945	7374.22
671.136	7470.48
671.327	7288.21
671.518	7163.28
671.709	7224.72
671.9	7302.54
672.091	7183.76
672.282	7077.27
672.473	7046.55
672.664	7126.42
672.855	7034.26
673.046	7249.3
673.237	7056.79
673.428	7028.12
673.619	6884.76
673.809	6956.44
674	6837.66
674.191	6825.37
674.382	6747.55
674.573	6876.57
674.764	6802.84
674.954	6880.66
675.145	6788.5
675.336	6684.06
675.527	6614.43
675.717	6593.95
675.908	6546.84
676.099	6520.22
676.289	6530.46
676.48	6708.63
676.671	6243.74
676.861	6426.01
677.052	6346.14
677.243	6206.88
677.433	6333.86
677.624	6346.14
677.814	6299.04
678.005	6360.48
678.195	6165.92
678.386	6292.9
678.576	6233.5
678.767	6077.86
678.957	6251.94
679.148	6170.02
679.338	6077.86
679.529	6067.62
679.719	6180.26
679.909	6073.76
680.1	5924.26
680.29	5942.69
680.481	5850.53
680.671	5909.93
680.861	6043.04
681.052	5797.29
681.242	5875.11
681.432	5969.32
681.622	5629.35
681.813	5887.4
682.003	5877.16
682.193	5719.46
682.383	5782.95
682.573	5752.23
682.764	5762.47
682.954	5692.84
683.144	5592.49
683.334	5668.27
683.524	5686.7
683.714	5539.24
683.904	5543.34
684.094	5789.1
684.284	5625.26
684.474	5684.65
684.664	5500.33
684.854	5557.68
685.044	5522.86
685.234	5352.88
685.424	5578.15
685.614	5256.62
685.804	5330.35
685.994	5369.26
686.184	5270.96
686.374	5373.36
686.564	5154.23
686.753	5182.9
686.943	5182.9
687.133	5266.86
687.323	5217.71
687.513	5168.56
687.702	5156.27
687.892	5062.07
688.082	5000.63
688.272	5215.66
688.461	4945.33
688.651	5043.64
688.841	4963.76
689.03	4931
689.22	4906.42
689.41	4896.18
689.599	4779.45
689.789	4834.74
689.979	4761.02
690.168	4646.33
690.358	4828.6
690.547	4644.28
690.737	4877.75
690.926	4607.42
691.116	4476.35
691.305	4812.21
691.495	4599.23
691.684	4576.7
691.874	4670.9
692.063	4658.62
692.252	4582.84
692.442	4431.29
692.631	4543.93
692.82	4566.46
693.01	4511.16
693.199	4617.66
693.388	4369.85
693.578	4457.92
693.767	4427.2
693.956	4392.38
694.146	4294.08
694.335	4361.66
694.524	4279.74
694.713	4279.74
694.902	4380.09
695.092	4187.58
695.281	4183.49
695.47	4175.3
695.659	4240.83
695.848	4111.81
696.037	4195.78
696.226	4232.64
696.415	4193.73
696.604	4242.88
696.793	4036.03
696.982	4095.43
697.171	4093.38
697.36	4099.52
697.549	3978.69
697.738	3993.03
697.927	4044.23
698.116	4138.43
698.305	4015.55
698.494	4199.87
698.683	3884.48
698.872	3933.64
699.061	3978.69
699.25	3821
699.438	3990.98
699.627	3995.08
699.816	3966.4
700.005	3845.57
700.193	3868.1
700.382	3782.09
700.571	3790.28
700.76	3788.23
700.948	3861.96
701.137	3917.25
701.326	3718.6
701.514	3823.05
701.703	3718.6
701.892	3716.55
702.08	3759.56
702.269	3741.13
702.457	3665.35
702.646	3714.5
702.834	3700.17
703.023	3691.98
703.212	3751.37
703.4	3759.56
703.589	3642.82
703.777	3679.69
703.965	3597.77
704.154	3681.74
704.342	3640.78
704.531	3669.45
704.719	3519.95
704.907	3554.76
705.096	3587.53
705.284	3528.14
705.472	3491.27
705.661	3575.24
705.849	3655.11
706.037	3562.95
706.226	3603.91
706.414	3519.95
706.602	3501.51
706.79	3575.24
706.979	3571.15
707.167	3388.88
707.355	3546.57
707.543	3577.29
707.731	3530.19
707.919	3466.7
708.107	3521.99
708.296	3567.05
708.484	3329.49
708.672	3360.2
708.86	3442.12
709.048	3468.75
709.236	3368.4
709.424	3401.16
709.612	3399.12
709.8	3415.5
709.988	3349.96
710.176	3411.4
710.364	3532.23
710.551	3448.27
710.739	3286.48
710.927	3395.02
711.115	3321.29
711.303	3386.83
711.491	3476.94
711.679	3376.59
711.866	3319.25
712.054	3470.8
712.242	3372.49
712.43	3362.25
712.617	3261.9
712.805	3411.4
712.993	3276.24
713.181	3259.85
713.368	3169.74
713.556	3329.49
713.744	3208.66
713.931	3259.85
714.119	3245.52
714.306	3249.61
714.494	3130.83
714.682	3108.3
714.869	3253.71
715.057	3220.94
715.244	3286.48
715.432	3284.43
715.619	3268.05
715.807	3145.17
715.994	3276.24
716.182	3194.32
716.369	3192.27
716.556	3218.89
716.744	3044.82
716.931	3032.53
717.119	3128.78
717.306	3093.97
717.493	3235.28
717.681	3161.55
717.868	3251.66
718.055	3083.73
718.242	3063.25
718.43	3206.61
718.617	3022.29
718.804	3132.88
718.991	2989.52
719.179	3169.74
719.366	3040.72
719.553	3083.73
719.74	3077.59
719.927	2932.18
720.114	2999.76
720.301	3057.11
720.488	3167.7
720.676	2995.67
720.863	3046.87
721.05	3059.15
721.237	3016.15
721.424	2991.57
721.611	3102.16
721.798	2993.62
721.985	2897.36
722.172	3073.49
722.358	2926.04
722.545	2981.33
722.732	2807.25
722.919	3046.87
723.106	2934.23
723.293	2983.38
723.48	2993.62
723.667	2905.56
723.853	2860.5
724.04	2993.62
724.227	2995.67
724.414	2952.66
724.6	2940.37
724.787	2985.43
724.974	2809.3
725.161	2874.84
725.347	2833.88
725.534	2999.76
725.72	2958.8
725.907	2852.31
726.094	2891.22
726.28	2983.38
726.467	2790.87
726.653	2792.92
726.84	2835.92
727.027	2915.8
727.213	2823.64
727.4	2979.28
727.586	2833.88
727.773	2741.72
727.959	2907.6
728.145	2766.29
728.332	2739.67
728.518	2940.37
728.705	2719.19
728.891	2854.36
729.077	2797.01
729.264	2735.57
729.45	2842.07
729.636	2911.7
729.823	2813.4
730.009	2864.6
730.195	2852.31
730.382	2831.83
730.568	2790.87
730.754	2747.86
730.94	2754.01
731.126	2819.54
731.313	2848.21
731.499	2758.1
731.685	2866.64
731.871	2737.62
732.057	2694.61
732.243	2600.41
732.429	2758.1
732.615	2856.4
732.801	2590.17
732.987	2770.39
733.173	2663.9
733.359	2754.01
733.545	2811.35
733.731	2786.77
733.917	2815.45
734.103	2835.92
734.289	2782.68
734.475	2680.28
734.661	2758.1
734.847	2717.14
735.033	2674.14
735.219	2803.16
735.404	2551.26
735.59	2594.26
735.776	2600.41
735.962	2586.07
736.148	2737.62
736.333	2676.18
736.519	2577.88
736.705	2684.38
736.89	2694.61
737.076	2629.08
737.262	2696.66
737.447	2602.46
737.633	2508.25
737.819	2563.54
738.004	2487.77
738.19	2473.43
738.375	2590.17
738.561	2641.37
738.747	2504.15
738.932	2569.69
739.118	2588.12
739.303	2559.45
739.489	2680.28
739.674	2434.52
739.859	2651.61
740.045	2538.97
740.23	2506.2
740.416	2495.96
740.601	2543.07
740.786	2481.63
740.972	2555.35
741.157	2518.49
741.342	2432.47
741.528	2559.45
741.713	2485.72
741.898	2446.81
742.084	2450.91
742.269	2495.96
742.454	2487.77
742.639	2444.76
742.824	2450.91
743.01	2383.32
743.195	2373.08
743.38	2303.45
743.565	2420.19
743.75	2479.58
743.935	2319.84
744.12	2434.52
744.305	2217.44
744.49	2242.01
744.675	2317.79
744.86	2364.89
745.045	2297.31
745.23	2291.17
745.415	2278.88
745.6	2285.02
745.785	2303.45
745.97	2223.58
746.155	2233.82
746.34	2291.17
746.525	2094.56
746.71	2237.92
746.895	2080.22
747.079	2170.33
747.264	2237.92
747.449	2029.03
747.634	2108.9
747.819	2168.29
748.003	2067.94
748.188	2156
748.373	2059.74
748.557	2143.71
748.742	2029.03
748.927	2074.08
749.111	2106.85
749.296	2084.32
749.481	2072.03
749.665	1953.25
749.85	1951.2
750.034	2045.41
750.219	2055.65
750.404	1928.67
750.588	1934.82
750.773	1861.09
750.957	1832.42
751.141	1912.29
751.326	1932.77
751.51	1902.05
751.695	1859.04
751.879	1891.81
752.064	1897.96
752.248	1900
752.432	1900
752.617	1934.82
752.801	1738.21
752.985	1740.26
753.17	1840.61
753.354	1721.83
753.538	1758.69
753.722	1666.53
753.907	1832.42
754.091	1697.25
754.275	1660.39
754.459	1652.2
754.643	1678.82
754.828	1697.25
755.012	1635.82
755.196	1711.59
755.38	1498.6
755.564	1629.67
755.748	1560.04
755.932	1529.32
756.116	1531.37
756.3	1498.6
756.484	1545.7
756.668	1586.66
756.852	1613.29
757.036	1527.27
757.22	1521.13
757.404	1557.99
757.588	1527.27
757.772	1572.33
757.956	1469.93
758.14	1527.27
758.323	1465.83
758.507	1480.17
758.691	1437.16
758.875	1408.49
759.059	1367.53
759.242	1394.15
759.426	1349.1
759.61	1408.49
759.794	1367.53
759.977	1334.76
760.161	1408.49
760.345	1392.11
760.528	1398.25
760.712	1353.2
760.895	1390.06
761.079	1445.35
761.263	1261.04
761.446	1228.27
761.63	1236.46
761.813	1349.1
761.997	1220.08
762.18	1310.19
762.364	1322.48
762.547	1267.18
762.731	1367.53
762.914	1400.3
763.098	1293.8
763.281	1332.72
763.464	1172.97
763.648	1222.13
763.831	1256.94
764.015	1236.46
764.198	1215.98
764.381	1271.28
764.564	1240.56
764.748	1330.67
764.931	1199.6
765.114	1179.12
765.297	1146.35
765.481	1232.37
765.664	1117.68
765.847	1232.37
766.03	1234.41
766.213	1138.16
766.397	1256.94
766.58	1086.96
766.763	1213.93
766.946	1084.91
767.129	1103.34
767.312	1107.44
767.495	1031.66
767.678	1093.1
767.861	1125.87
768.044	1123.82
768.227	1183.21
768.41	1046
768.593	1148.4
768.776	1166.83
768.959	1074.67
769.142	1084.91
769.324	1111.54
769.507	1048.05
769.69	1062.38
769.873	1109.49
770.056	1183.21
770.239	1070.58
770.421	1043.95
770.604	1078.77
770.787	1078.77
770.97	1039.86
771.152	1132.01
771.335	1009.14
771.518	1041.9
771.7	1058.29
771.883	1035.76
772.066	990.7
772.248	1121.77
772.431	949.75
772.613	976.37
772.796	1095.15
772.978	1054.19
773.161	1023.47
773.343	1052.14
773.526	912.88
773.708	947.7
773.891	935.41
774.073	1025.52
774.256	896.5
774.438	1080.82
774.621	908.79
774.803	1005.04
774.985	869.87
775.168	986.61
775.35	871.92
775.532	931.31
775.715	839.16
775.897	925.17
776.079	914.93
776.261	933.36
776.444	957.94
776.626	896.5
776.808	808.44
776.99	822.77
777.173	908.79
777.355	859.63
777.537	859.63
777.719	873.97
777.901	855.54
778.083	941.55
778.265	835.06
778.447	818.68
778.629	775.67
778.811	871.92
778.993	742.9
779.175	755.19
779.357	790
779.539	728.56
779.721	771.57
779.903	695.8
780.085	693.75
780.267	708.09
780.449	732.66
780.631	749.04
780.812	775.67
780.994	658.93
781.176	630.26
781.358	744.95
781.54	808.44
781.721	593.4
781.903	710.13
782.085	658.93
782.267	654.84
782.448	730.61
782.63	624.12
782.812	679.41
782.993	642.55
783.175	685.56
783.357	744.95
783.538	671.22
783.72	613.88
783.901	605.69
784.083	562.68
784.264	679.41
784.446	611.83
784.627	626.17
784.809	593.4
784.99	626.17
785.172	658.93
785.353	601.59
785.535	601.59
785.716	523.77
785.897	589.3
786.079	552.44
786.26	534.01
786.441	581.11
786.623	615.93
786.804	525.82
786.985	607.73
787.167	509.43
787.348	523.77
787.529	562.68
787.71	609.78
787.891	599.54
788.073	497.14
788.254	482.81
788.435	534.01
788.616	495.1
788.797	538.1
788.978	488.95
789.159	427.51
789.34	472.57
789.522	517.62
789.703	456.19
789.884	531.96
790.065	505.34
790.246	425.47
790.427	443.9
790.607	546.3
790.788	499.19
790.969	378.36
791.15	402.94
791.331	433.66
791.512	491
791.693	429.56
791.874	384.51
792.054	503.29
792.235	413.18
792.416	462.33
792.597	392.7
792.778	482.81
792.958	394.75
793.139	380.41
793.32	368.12
793.5	333.31
793.681	538.1
793.862	398.84
794.042	431.61
794.223	378.36
794.404	443.9
794.584	396.79
794.765	339.45
794.945	372.22
795.126	359.93
795.306	374.27
795.487	435.71
795.667	359.93
795.848	374.27
796.028	327.16
796.209	357.88
796.389	347.64
796.57	392.7
796.75	419.32
796.93	290.3
797.111	351.74
797.291	314.88
797.471	316.92
797.652	347.64
797.832	329.21
798.012	407.03
798.192	355.83
798.373	275.96
798.553	359.93
798.733	316.92
798.913	243.2
799.093	337.4
799.274	253.44
799.454	288.25
799.634	316.92
799.814	372.22
799.994	249.34
800.174	376.31
800.354	345.59
800.534	263.68
800.714	216.57
800.894	359.93
801.074	259.58
801.254	265.72
801.434	374.27
801.614	286.2
801.794	259.58
801.974	697.85
802.154	347.64
802.334	329.21
802.514	343.55
802.693	327.16
802.873	296.44
803.053	284.16
803.233	318.97
803.413	183.81
803.592	318.97
803.772	212.48
803.952	243.2
804.131	284.16
804.311	323.07
804.491	308.73
804.67	241.15
804.85	206.33
805.03	192
805.209	312.83
805.389	265.72
805.568	286.2
805.748	194.05
805.928	333.31
806.107	169.47
806.287	232.96
806.466	261.63
806.646	249.34
806.825	267.77
807.004	235
807.184	206.33
807.363	187.9
807.543	212.48
807.722	194.05
807.901	325.12
808.081	214.52
808.26	230.91
808.439	257.53
808.619	171.52
808.798	216.57
808.977	261.63
809.156	235
809.336	226.81
809.515	308.73
809.694	253.44
809.873	214.52
810.052	259.58
810.231	300.54
810.411	163.33
810.59	290.3
810.769	278.01
810.948	173.57
811.127	200.19
811.306	282.11
811.485	198.14
811.664	155.13
811.843	206.33
812.022	196.09
812.201	192
812.38	232.96
812.559	200.19
812.737	218.62
812.916	216.57
813.095	169.47
813.274	175.61
813.453	189.95
813.632	181.76
813.811	316.92
813.989	194.05
814.168	155.13
814.347	204.28
814.526	253.44
814.704	235
814.883	187.9
815.062	124.41
815.24	245.24
815.419	165.37
815.598	97.79
815.776	175.61
815.955	185.85
816.133	157.18
816.312	200.19
816.49	138.75
816.669	124.41
816.847	181.76
817.026	130.56
817.204	210.43
817.383	212.48
817.561	122.37
817.74	253.44
817.918	196.09
818.097	132.61
818.275	122.37
818.453	161.28
818.632	226.81
818.81	112.13
818.988	204.28
819.167	146.94
819.345	171.52
819.523	130.56
819.701	187.9
819.879	128.51
820.058	151.04
820.236	122.37
820.414	95.74
820.592	81.41
820.77	177.66
820.948	210.43
821.127	138.75
821.305	142.85
821.483	130.56
821.661	110.08
821.839	198.14
822.017	136.7
822.195	220.67
822.373	120.32
822.551	189.95
822.729	148.99
822.907	118.27
823.085	124.41
823.262	132.61
823.44	126.46
823.618	105.98
823.796	112.13
823.974	126.46
824.152	95.74
824.329	128.51
824.507	128.51
824.685	89.6
824.863	120.32
825.04	198.14
825.218	103.93
825.396	132.61
825.574	192
825.751	85.5
825.929	175.61
826.107	185.85
826.284	126.46
826.462	138.75
826.639	185.85
826.817	81.41
826.994	83.45
827.172	67.07
827.349	171.52
827.527	95.74
827.704	99.84
827.882	28.16
828.059	167.42
828.237	56.83
828.414	165.37
828.591	7.68
828.769	196.09
828.946	124.41
829.124	155.13
829.301	101.89
829.478	136.7
829.655	116.22
829.833	97.79
830.01	110.08
830.187	22.02
830.364	108.03
830.542	128.51
830.719	161.28
830.896	116.22
831.073	91.65
831.25	134.65
831.427	85.5
831.604	42.5
831.782	22.02
831.959	140.8
832.136	140.8
832.313	171.52
832.49	118.27
832.667	44.54
832.844	77.31
833.021	132.61
833.198	54.78
833.374	161.28
833.551	15.87
833.728	118.27
833.905	95.74
834.082	83.45
834.259	110.08
834.436	9.73
834.612	19.97
834.789	97.79
834.966	101.89
835.143	136.7
835.319	-20.99
835.496	146.94
835.673	85.5
835.85	126.46
836.026	77.31
836.203	124.41
836.38	83.45
836.556	81.41
836.733	69.12
836.909	42.5
837.086	95.74
837.262	83.45
837.439	95.74
837.616	52.74
837.792	112.13
837.968	65.02
838.145	46.59
838.321	73.21
838.498	44.54
838.674	112.13
838.851	89.6
839.027	83.45
839.203	44.54
839.38	120.32
839.556	73.21
839.732	50.69
839.909	56.83
840.085	79.36
840.261	32.26
840.437	79.36
840.614	1.54
840.79	91.65
840.966	81.41
841.142	3.58
841.318	148.99
841.494	128.51
841.671	81.41
841.847	34.3
842.023	11.78
842.199	62.98
842.375	40.45
842.551	-8.7
842.727	5.63
842.903	120.32
843.079	62.98
843.255	95.74
843.431	17.92
843.607	50.69
843.783	116.22
843.959	79.36
844.134	75.26
844.31	73.21
844.486	75.26
844.662	99.84
844.838	58.88
845.013	42.5
845.189	142.85
845.365	24.06
845.541	105.98
845.716	44.54
845.892	108.03
846.068	-0.51
846.244	7.68
846.419	89.6
846.595	81.41
846.77	28.16
846.946	73.21
847.122	56.83
847.297	44.54
847.473	151.04
847.648	3.58
847.824	101.89
847.999	-20.99
848.175	87.55
848.35	101.89
848.526	105.98
848.701	62.98
848.876	73.21
849.052	52.74
849.227	52.74
849.403	56.83
849.578	36.35
849.753	46.59
849.929	95.74
850.104	79.36
850.279	81.41
850.454	30.21
850.63	105.98
850.805	-12.8
850.98	105.98
851.155	75.26
851.33	75.26
851.505	62.98
851.681	65.02
851.856	62.98
852.031	101.89
852.206	19.97
852.381	22.02
852.556	13.82
852.731	155.13
852.906	-10.75
853.081	77.31
853.256	71.17
853.431	19.97
853.606	-45.57
853.781	17.92
853.956	-8.7
854.131	77.31
854.305	101.89
854.48	52.74
854.655	-4.61
854.83	83.45
855.005	3.58
855.18	62.98
855.354	75.26
855.529	58.88
855.704	40.45
855.879	30.21
856.053	-43.52
856.228	-0.51
856.403	15.87
856.577	13.82
856.752	28.16
856.926	30.21
857.101	17.92
857.276	-12.8
857.45	22.02
857.625	48.64
857.799	-12.8
857.974	19.97
858.148	-10.75
858.323	105.98
858.497	22.02
858.672	40.45
858.846	44.54
859.02	19.97
859.195	48.64
859.369	67.07
859.543	103.93
859.718	32.26
859.892	26.11
860.066	36.35
860.241	-6.66
860.415	28.16
860.589	-25.09
860.763	-2.56
860.938	1.54
861.112	19.97
861.286	-41.47
861.46	58.88
861.634	-16.9
861.808	71.17
861.982	32.26
862.157	15.87
862.331	11.78
862.505	19.97
862.679	-51.71
862.853	46.59
863.027	52.74
863.201	19.97
863.375	19.97
863.549	3.58
863.722	5.63
863.896	42.5
864.07	73.21
864.244	65.02
864.418	-0.51
864.592	67.07
864.766	11.78
864.939	13.82
865.113	7.68
865.287	120.32
865.461	24.06
865.634	85.5
865.808	48.64
865.982	-53.76
866.156	83.45
866.329	1.54
866.503	69.12
866.676	52.74
866.85	-51.71
867.024	9.73
867.197	71.17
867.371	60.93
867.544	15.87
867.718	1.54
867.891	60.93
868.065	44.54
868.238	28.16
868.412	40.45
868.585	46.59
868.759	-55.81
868.932	30.21
869.105	46.59
869.279	50.69
869.452	38.4
869.625	48.64
869.799	1.54
869.972	77.31
870.145	1.54
870.319	75.26
870.492	-29.18
870.665	-0.51
870.838	79.36
871.011	-29.18
871.185	19.97
871.358	26.11
871.531	-25.09
871.704	24.06
871.877	-12.8
872.05	-6.66
872.223	19.97
872.396	52.74
872.569	108.03
872.742	13.82
872.915	126.46
873.088	1.54
873.261	-23.04
873.434	38.4
873.607	44.54
873.78	24.06
873.953	-29.18
874.126	28.16
874.299	13.82
874.471	17.92
874.644	24.06
874.817	-12.8
874.99	-53.76
875.163	-41.47
875.335	36.35
875.508	60.93
875.681	32.26
875.853	-41.47
876.026	73.21
876.199	65.02
876.371	-0.51
876.544	-33.28
876.717	34.3
876.889	28.16
877.062	-49.66
877.234	-29.18
877.407	60.93
877.579	-41.47
877.752	24.06
877.924	58.88
878.097	11.78
878.269	-18.94
878.442	7.68
878.614	-16.9
878.786	28.16
878.959	-4.61
879.131	11.78
879.303	-18.94
879.476	-8.7
879.648	15.87
879.82	22.02
879.993	-12.8
880.165	101.89
880.337	-27.14
880.509	28.16
880.681	-70.14
880.854	22.02
881.026	67.07
881.198	48.64
881.37	-61.95
881.542	15.87
881.714	-59.9
881.886	-0.51
882.058	-10.75
882.23	1.54
882.402	-4.61
882.574	44.54
882.746	1.54
882.918	40.45
883.09	-47.62
883.262	24.06
883.434	56.83
883.606	75.26
883.778	-6.66
883.95	-10.75
884.122	11.78
884.293	-8.7
884.465	34.3
884.637	-10.75
884.809	-33.28
884.98	-14.85
885.152	5.63
885.324	9.73
885.496	-0.51
885.667	13.82
885.839	-29.18
886.011	81.41
886.182	1.54
886.354	22.02
886.525	-37.38
886.697	-10.75
886.869	-20.99
887.04	52.74
887.212	73.21
887.383	9.73
887.555	-61.95
887.726	17.92
887.897	-18.94
888.069	-47.62
888.24	3.58
888.412	24.06
888.583	-14.85
888.754	13.82
888.926	-10.75
889.097	71.17
889.268	-41.47
889.44	15.87
889.611	-25.09
889.782	-16.9
889.953	-12.8
890.125	36.35
890.296	-82.43
890.467	89.6
890.638	15.87
890.809	22.02
890.98	91.65
891.151	32.26
891.323	-29.18
891.494	40.45
891.665	73.21
891.836	-14.85
892.007	28.16
892.178	28.16
892.349	58.88
892.52	-0.51
892.691	50.69
892.862	9.73
893.032	19.97
893.203	-18.94
893.374	22.02
893.545	1.54
893.716	1.54
893.887	48.64
894.057	36.35
894.228	-0.51
894.399	-23.04
894.57	9.73
894.74	-12.8
894.911	7.68
895.082	9.73
895.253	-45.57
895.423	67.07
895.594	22.02
895.764	28.16
895.935	-4.61
896.106	28.16
896.276	13.82
896.447	-14.85
896.617	77.31
896.788	-8.7
896.958	38.4
897.129	11.78
897.299	-33.28
897.47	-20.99
897.64	34.3
897.81	-29.18
897.981	7.68
898.151	7.68
898.322	-18.94
898.492	56.83
898.662	-78.33
898.832	-20.99
899.003	38.4
899.173	19.97
899.343	-12.8
899.513	-0.51
