Data from USB4F104151__291__11-13-02-760.txt Node

Date: Wed Mar 12 11:13:02 EDT 2025
User: louis
Spectrometer: USB4F10415
Trigger mode: 4
Integration Time (sec): 2.000000E-2
Scans to average: 1
Electric dark correction enabled: true
Nonlinearity correction enabled: false
Boxcar width: 0
XAxis mode: Wavelengths
Number of Pixels in Spectrum: 3648
>>>>>Begin Spectral Data<<<<<
178.204	-103.76
178.424	-103.76
178.644	-103.76
178.864	-109.91
179.084	-97.62
179.304	21.16
179.524	6.83
179.744	47.79
179.964	6.83
180.184	-50.52
180.404	-23.89
180.624	-62.8
180.844	33.45
181.064	-7.51
181.283	8.87
181.503	-11.61
181.723	31.4
181.943	-23.89
182.163	-15.7
182.383	-48.47
182.602	25.26
182.822	47.79
183.042	-44.37
183.262	31.4
183.482	12.97
183.701	45.74
183.921	8.87
184.141	4.78
184.361	47.79
184.58	-11.61
184.8	29.35
185.02	-19.8
185.239	43.69
185.459	47.79
185.679	6.83
185.898	31.4
186.118	47.79
186.338	39.59
186.557	-5.46
186.777	-27.99
186.997	35.5
187.216	66.22
187.436	49.83
187.655	74.41
187.875	19.11
188.095	-11.61
188.314	41.64
188.534	103.08
188.753	51.88
188.973	31.4
189.192	19.11
189.412	25.26
189.631	25.26
189.851	-5.46
190.07	4.78
190.29	-40.28
190.509	-1.37
190.729	25.26
190.948	-7.51
191.168	66.22
191.387	66.22
191.607	58.03
191.826	70.31
192.045	4.78
192.265	125.61
192.484	49.83
192.704	74.41
192.923	21.16
193.142	78.51
193.362	55.98
193.581	82.6
193.8	41.64
194.02	-38.23
194.239	-1.37
194.458	-23.89
194.678	41.64
194.897	53.93
195.116	-25.94
195.335	-21.85
195.555	10.92
195.774	-36.18
195.993	25.26
196.212	53.93
196.432	6.83
196.651	49.83
196.87	15.02
197.089	-13.65
197.308	23.21
197.528	55.98
197.747	2.73
197.966	-9.56
198.185	70.31
198.404	0.68
198.623	10.92
198.842	27.31
199.062	-19.8
199.281	68.27
199.5	35.5
199.719	76.46
199.938	21.16
200.157	60.07
200.376	119.46
200.595	51.88
200.814	115.37
201.033	-17.75
201.252	41.64
201.471	27.31
201.69	35.5
201.909	27.31
202.128	19.11
202.347	37.55
202.566	68.27
202.785	15.02
203.004	0.68
203.223	103.08
203.442	25.26
203.661	58.03
203.879	2.73
204.098	27.31
204.317	49.83
204.536	101.03
204.755	19.11
204.974	62.12
205.193	-38.23
205.411	76.46
205.63	-11.61
205.849	43.69
206.068	10.92
206.287	4.78
206.505	33.45
206.724	-52.56
206.943	33.45
207.162	39.59
207.381	51.88
207.599	27.31
207.818	23.21
208.037	31.4
208.255	10.92
208.474	33.45
208.693	-46.42
208.911	72.36
209.13	10.92
209.349	111.27
209.567	0.68
209.786	-17.75
210.005	90.79
210.223	12.97
210.442	0.68
210.661	45.74
210.879	94.89
211.098	23.21
211.316	80.55
211.535	51.88
211.753	25.26
211.972	84.65
212.191	-5.46
212.409	53.93
212.628	23.21
212.846	4.78
213.065	74.41
213.283	39.59
213.502	33.45
213.72	-27.99
213.938	60.07
214.157	-19.8
214.375	0.68
214.594	27.31
214.812	-9.56
215.031	68.27
215.249	21.16
215.467	64.17
215.686	-1.37
215.904	6.83
216.122	37.55
216.341	131.75
216.559	23.21
216.778	105.13
216.996	94.89
217.214	21.16
217.432	-9.56
217.651	-60.76
217.869	10.92
218.087	33.45
218.306	10.92
218.524	-15.7
218.742	6.83
218.96	31.4
219.179	86.7
219.397	23.21
219.615	23.21
219.833	74.41
220.051	29.35
220.27	88.75
220.488	19.11
220.706	10.92
220.924	53.93
221.142	45.74
221.36	49.83
221.578	-42.32
221.796	19.11
222.015	78.51
222.233	2.73
222.451	6.83
222.669	-1.37
222.887	6.83
223.105	-23.89
223.323	4.78
223.541	29.35
223.759	-32.08
223.977	-5.46
224.195	55.98
224.413	-1.37
224.631	2.73
224.849	21.16
225.067	25.26
225.285	-15.7
225.503	49.83
225.721	-64.85
225.939	35.5
226.157	-40.28
226.375	-17.75
226.592	80.55
226.81	25.26
227.028	70.31
227.246	92.84
227.464	33.45
227.682	43.69
227.9	-9.56
228.117	53.93
228.335	39.59
228.553	-13.65
228.771	39.59
228.989	2.73
229.206	53.93
229.424	64.17
229.642	45.74
229.86	15.02
230.077	58.03
230.295	-1.37
230.513	17.07
230.731	80.55
230.948	47.79
231.166	27.31
231.384	31.4
231.601	15.02
231.819	60.07
232.037	37.55
232.254	-13.65
232.472	43.69
232.689	-9.56
232.907	96.94
233.125	35.5
233.342	17.07
233.56	25.26
233.777	31.4
233.995	-19.8
234.213	37.55
234.43	10.92
234.648	-11.61
234.865	88.75
235.083	10.92
235.3	8.87
235.518	103.08
235.735	21.16
235.953	68.27
236.17	-5.46
236.388	53.93
236.605	-36.18
236.822	78.51
237.04	31.4
237.257	-7.51
237.475	64.17
237.692	29.35
237.909	2.73
238.127	62.12
238.344	37.55
238.562	55.98
238.779	-23.89
238.996	-17.75
239.214	39.59
239.431	12.97
239.648	-32.08
239.865	66.22
240.083	72.36
240.3	33.45
240.517	-1.37
240.735	96.94
240.952	62.12
241.169	68.27
241.386	-25.94
241.603	47.79
241.821	-17.75
242.038	15.02
242.255	86.7
242.472	-32.08
242.689	-27.99
242.907	12.97
243.124	12.97
243.341	31.4
243.558	45.74
243.775	-7.51
243.992	-19.8
244.209	72.36
244.426	53.93
244.643	-7.51
244.86	39.59
245.078	49.83
245.295	-13.65
245.512	105.13
245.729	23.21
245.946	-13.65
246.163	10.92
246.38	113.32
246.597	8.87
246.814	62.12
247.031	17.07
247.248	12.97
247.464	55.98
247.681	43.69
247.898	68.27
248.115	41.64
248.332	-17.75
248.549	-44.37
248.766	8.87
248.983	21.16
249.2	19.11
249.417	-1.37
249.633	37.55
249.85	10.92
250.067	70.31
250.284	47.79
250.501	8.87
250.717	23.21
250.934	25.26
251.151	-21.85
251.368	72.36
251.585	17.07
251.801	55.98
252.018	25.26
252.235	27.31
252.451	78.51
252.668	27.31
252.885	27.31
253.102	47.79
253.318	27.31
253.535	8.87
253.752	68.27
253.968	12.97
254.185	70.31
254.401	55.98
254.618	41.64
254.835	49.83
255.051	101.03
255.268	15.02
255.484	-5.46
255.701	43.69
255.917	51.88
256.134	2.73
256.351	-32.08
256.567	-38.23
256.784	82.6
257	-3.41
257.217	47.79
257.433	29.35
257.65	131.75
257.866	51.88
258.082	2.73
258.299	-1.37
258.515	17.07
258.732	55.98
258.948	-3.41
259.165	-42.32
259.381	53.93
259.597	76.46
259.814	49.83
260.03	51.88
260.246	12.97
260.463	86.7
260.679	29.35
260.895	31.4
261.112	62.12
261.328	17.07
261.544	-15.7
261.761	35.5
261.977	-64.85
262.193	92.84
262.409	86.7
262.626	62.12
262.842	0.68
263.058	-62.8
263.274	49.83
263.49	35.5
263.707	-3.41
263.923	0.68
264.139	76.46
264.355	19.11
264.571	45.74
264.787	-21.85
265.004	43.69
265.22	68.27
265.436	68.27
265.652	43.69
265.868	-7.51
266.084	-60.76
266.3	70.31
266.516	25.26
266.732	4.78
266.948	101.03
267.164	6.83
267.38	55.98
267.596	39.59
267.812	101.03
268.028	0.68
268.244	-36.18
268.46	-7.51
268.676	98.99
268.892	4.78
269.108	45.74
269.324	29.35
269.54	-32.08
269.756	35.5
269.972	6.83
270.188	45.74
270.403	19.11
270.619	41.64
270.835	-23.89
271.051	74.41
271.267	88.75
271.483	2.73
271.698	43.69
271.914	80.55
272.13	76.46
272.346	25.26
272.562	72.36
272.777	84.65
272.993	12.97
273.209	33.45
273.425	-17.75
273.64	17.07
273.856	31.4
274.072	10.92
274.287	-44.37
274.503	8.87
274.719	19.11
274.934	64.17
275.15	-17.75
275.366	45.74
275.581	39.59
275.797	-27.99
276.012	-17.75
276.228	12.97
276.444	70.31
276.659	45.74
276.875	19.11
277.09	-9.56
277.306	23.21
277.521	6.83
277.737	-13.65
277.952	29.35
278.168	2.73
278.383	68.27
278.599	8.87
278.814	66.22
279.03	74.41
279.245	84.65
279.461	2.73
279.676	31.4
279.892	8.87
280.107	60.07
280.322	-23.89
280.538	49.83
280.753	-85.33
280.969	17.07
281.184	51.88
281.399	-19.8
281.615	23.21
281.83	-1.37
282.045	-40.28
282.26	-17.75
282.476	37.55
282.691	39.59
282.906	10.92
283.122	25.26
283.337	17.07
283.552	39.59
283.767	64.17
283.983	19.11
284.198	0.68
284.413	-30.04
284.628	6.83
284.843	111.27
285.058	98.99
285.274	-15.7
285.489	-42.32
285.704	74.41
285.919	45.74
286.134	17.07
286.349	31.4
286.564	33.45
286.779	12.97
286.995	-17.75
287.21	15.02
287.425	21.16
287.64	19.11
287.855	-17.75
288.07	55.98
288.285	78.51
288.5	33.45
288.715	45.74
288.93	60.07
289.145	4.78
289.36	37.55
289.575	-17.75
289.79	17.07
290.004	15.02
290.219	33.45
290.434	-23.89
290.649	-13.65
290.864	39.59
291.079	51.88
291.294	58.03
291.509	-13.65
291.724	45.74
291.938	-50.52
292.153	10.92
292.368	23.21
292.583	25.26
292.798	88.75
293.012	64.17
293.227	12.97
293.442	2.73
293.657	70.31
293.871	29.35
294.086	10.92
294.301	64.17
294.516	49.83
294.73	-5.46
294.945	19.11
295.16	43.69
295.374	113.32
295.589	41.64
295.804	-38.23
296.018	41.64
296.233	125.61
296.447	78.51
296.662	29.35
296.877	-5.46
297.091	111.27
297.306	39.59
297.52	17.07
297.735	19.11
297.949	43.69
298.164	43.69
298.378	37.55
298.593	31.4
298.807	33.45
299.022	53.93
299.236	4.78
299.451	-44.37
299.665	-44.37
299.88	78.51
300.094	8.87
300.309	98.99
300.523	27.31
300.737	43.69
300.952	86.7
301.166	76.46
301.381	68.27
301.595	-9.56
301.809	25.26
302.024	43.69
302.238	4.78
302.452	66.22
302.667	41.64
302.881	117.42
303.095	49.83
303.309	-5.46
303.524	25.26
303.738	68.27
303.952	-1.37
304.166	68.27
304.381	-19.8
304.595	70.31
304.809	-13.65
305.023	4.78
305.237	62.12
305.452	31.4
305.666	15.02
305.88	76.46
306.094	66.22
306.308	39.59
306.522	12.97
306.736	51.88
306.95	70.31
307.164	92.84
307.379	58.03
307.593	62.12
307.807	21.16
308.021	29.35
308.235	6.83
308.449	-11.61
308.663	27.31
308.877	98.99
309.091	41.64
309.305	47.79
309.519	64.17
309.733	-15.7
309.947	23.21
310.161	92.84
310.374	-42.32
310.588	-15.7
310.802	-3.41
311.016	39.59
311.23	105.13
311.444	-5.46
311.658	37.55
311.872	2.73
312.085	45.74
312.299	39.59
312.513	37.55
312.727	43.69
312.941	-17.75
313.154	17.07
313.368	-71
313.582	-75.09
313.796	-23.89
314.009	60.07
314.223	10.92
314.437	23.21
314.651	53.93
314.864	82.6
315.078	33.45
315.292	-7.51
315.505	88.75
315.719	31.4
315.933	101.03
316.146	31.4
316.36	31.4
316.573	70.31
316.787	86.7
317.001	35.5
317.214	55.98
317.428	55.98
317.641	23.21
317.855	53.93
318.068	68.27
318.282	-9.56
318.495	51.88
318.709	-1.37
318.922	-9.56
319.136	96.94
319.349	10.92
319.563	64.17
319.776	76.46
319.99	47.79
320.203	62.12
320.417	45.74
320.63	-23.89
320.843	0.68
321.057	137.9
321.27	-46.42
321.483	31.4
321.697	84.65
321.91	58.03
322.124	68.27
322.337	-3.41
322.55	68.27
322.763	35.5
322.977	39.59
323.19	-1.37
323.403	60.07
323.617	-23.89
323.83	111.27
324.043	17.07
324.256	0.68
324.469	64.17
324.683	70.31
324.896	70.31
325.109	109.22
325.322	27.31
325.535	88.75
325.748	55.98
325.962	66.22
326.175	29.35
326.388	66.22
326.601	53.93
326.814	90.79
327.027	92.84
327.24	64.17
327.453	19.11
327.666	23.21
327.879	4.78
328.092	-13.65
328.305	17.07
328.518	-40.28
328.731	12.97
328.944	76.46
329.157	35.5
329.37	-21.85
329.583	51.88
329.796	53.93
330.009	35.5
330.222	31.4
330.435	53.93
330.648	-34.13
330.861	31.4
331.073	60.07
331.286	62.12
331.499	35.5
331.712	23.21
331.925	-7.51
332.138	33.45
332.35	80.55
332.563	8.87
332.776	58.03
332.989	60.07
333.202	39.59
333.414	47.79
333.627	49.83
333.84	70.31
334.053	51.88
334.265	84.65
334.478	33.45
334.691	45.74
334.903	-13.65
335.116	98.99
335.329	39.59
335.541	117.42
335.754	4.78
335.966	105.13
336.179	88.75
336.392	21.16
336.604	129.7
336.817	72.36
337.029	39.59
337.242	29.35
337.454	62.12
337.667	55.98
337.88	-5.46
338.092	33.45
338.305	86.7
338.517	-46.42
338.729	115.37
338.942	82.6
339.154	39.59
339.367	55.98
339.579	66.22
339.792	23.21
340.004	25.26
340.217	53.93
340.429	90.79
340.641	27.31
340.854	-46.42
341.066	-5.46
341.278	62.12
341.491	74.41
341.703	88.75
341.915	125.61
342.128	39.59
342.34	66.22
342.552	25.26
342.764	43.69
342.977	51.88
343.189	64.17
343.401	10.92
343.613	51.88
343.826	0.68
344.038	-13.65
344.25	45.74
344.462	19.11
344.674	-1.37
344.886	31.4
345.099	35.5
345.311	37.55
345.523	23.21
345.735	33.45
345.947	12.97
346.159	15.02
346.371	80.55
346.583	55.98
346.795	49.83
347.007	37.55
347.219	115.37
347.431	2.73
347.643	39.59
347.855	-58.71
348.067	49.83
348.279	19.11
348.491	88.75
348.703	121.51
348.915	105.13
349.127	4.78
349.339	31.4
349.551	45.74
349.763	37.55
349.975	43.69
350.187	94.89
350.399	17.07
350.61	2.73
350.822	60.07
351.034	8.87
351.246	62.12
351.458	127.66
351.669	43.69
351.881	35.5
352.093	66.22
352.305	53.93
352.517	10.92
352.728	80.55
352.94	25.26
353.152	-56.66
353.363	31.4
353.575	74.41
353.787	47.79
353.999	-19.8
354.21	29.35
354.422	88.75
354.633	-23.89
354.845	-34.13
355.057	66.22
355.268	170.66
355.48	53.93
355.692	-27.99
355.903	-1.37
356.115	51.88
356.326	17.07
356.538	72.36
356.749	53.93
356.961	41.64
357.172	39.59
357.384	47.79
357.595	107.18
357.807	51.88
358.018	2.73
358.23	17.07
358.441	60.07
358.653	29.35
358.864	6.83
359.075	60.07
359.287	70.31
359.498	58.03
359.709	-3.41
359.921	-21.85
360.132	82.6
360.344	10.92
360.555	-1.37
360.766	47.79
360.977	64.17
361.189	47.79
361.4	-13.65
361.611	53.93
361.823	103.08
362.034	55.98
362.245	-21.85
362.456	51.88
362.667	129.7
362.879	4.78
363.09	55.98
363.301	35.5
363.512	72.36
363.723	23.21
363.935	19.11
364.146	76.46
364.357	62.12
364.568	107.18
364.779	76.46
364.99	58.03
365.201	10.92
365.412	-5.46
365.623	-34.13
365.834	68.27
366.045	-5.46
366.256	31.4
366.467	72.36
366.678	58.03
366.889	31.4
367.1	31.4
367.311	68.27
367.522	76.46
367.733	19.11
367.944	62.12
368.155	31.4
368.366	2.73
368.577	31.4
368.788	-11.61
368.999	17.07
369.209	53.93
369.42	76.46
369.631	125.61
369.842	60.07
370.053	17.07
370.264	113.32
370.474	55.98
370.685	33.45
370.896	27.31
371.107	47.79
371.317	33.45
371.528	76.46
371.739	47.79
371.95	74.41
372.16	137.9
372.371	-21.85
372.582	35.5
372.792	12.97
373.003	123.56
373.214	82.6
373.424	33.45
373.635	-7.51
373.846	84.65
374.056	84.65
374.267	15.02
374.477	43.69
374.688	39.59
374.898	53.93
375.109	43.69
375.319	47.79
375.53	68.27
375.74	84.65
375.951	29.35
376.161	23.21
376.372	58.03
376.582	21.16
376.793	23.21
377.003	27.31
377.214	74.41
377.424	-7.51
377.635	51.88
377.845	-5.46
378.055	78.51
378.266	74.41
378.476	19.11
378.686	17.07
378.897	70.31
379.107	51.88
379.317	92.84
379.528	39.59
379.738	139.94
379.948	29.35
380.158	25.26
380.369	47.79
380.579	129.7
380.789	55.98
380.999	109.22
381.21	86.7
381.42	92.84
381.63	45.74
381.84	8.87
382.05	51.88
382.261	62.12
382.471	107.18
382.681	58.03
382.891	88.75
383.101	51.88
383.311	64.17
383.521	12.97
383.731	86.7
383.941	80.55
384.151	101.03
384.361	62.12
384.571	86.7
384.781	35.5
384.991	64.17
385.201	82.6
385.411	60.07
385.621	74.41
385.831	96.94
386.041	86.7
386.251	12.97
386.461	119.46
386.671	39.59
386.881	37.55
387.091	51.88
387.301	60.07
387.511	129.7
387.72	88.75
387.93	66.22
388.14	39.59
388.35	-1.37
388.56	86.7
388.769	80.55
388.979	49.83
389.189	27.31
389.399	58.03
389.609	37.55
389.818	129.7
390.028	182.95
390.238	74.41
390.447	45.74
390.657	76.46
390.867	53.93
391.076	37.55
391.286	-3.41
391.496	109.22
391.705	66.22
391.915	107.18
392.125	141.99
392.334	107.18
392.544	51.88
392.753	105.13
392.963	51.88
393.172	113.32
393.382	76.46
393.591	119.46
393.801	29.35
394.01	47.79
394.22	88.75
394.429	119.46
394.639	72.36
394.848	88.75
395.058	29.35
395.267	86.7
395.477	127.66
395.686	121.51
395.895	92.84
396.105	146.09
396.314	15.02
396.524	76.46
396.733	84.65
396.942	129.7
397.152	105.13
397.361	191.14
397.57	101.03
397.78	117.42
397.989	144.04
398.198	137.9
398.407	80.55
398.617	123.56
398.826	74.41
399.035	80.55
399.244	105.13
399.453	121.51
399.663	107.18
399.872	76.46
400.081	101.03
400.29	144.04
400.499	47.79
400.708	88.75
400.917	78.51
401.127	121.51
401.336	156.33
401.545	166.57
401.754	92.84
401.963	164.52
402.172	123.56
402.381	80.55
402.59	123.56
402.799	219.82
403.008	64.17
403.217	174.76
403.426	98.99
403.635	78.51
403.844	101.03
404.053	125.61
404.262	191.14
404.471	199.34
404.68	266.92
404.888	129.7
405.097	96.94
405.306	135.85
405.515	180.9
405.724	191.14
405.933	203.43
406.142	166.57
406.35	211.62
406.559	203.43
406.768	168.62
406.977	189.1
407.185	195.24
407.394	205.48
407.603	176.81
407.812	297.64
408.02	309.93
408.229	238.25
408.438	182.95
408.646	217.77
408.855	242.34
409.064	295.59
409.272	303.78
409.481	314.02
409.69	314.02
409.898	328.36
410.107	352.93
410.315	338.6
410.524	275.11
410.733	395.94
410.941	314.02
411.15	377.51
411.358	326.31
411.567	305.83
411.775	432.8
411.984	408.23
412.192	430.76
412.401	430.76
412.609	563.87
412.818	516.77
413.026	549.54
413.234	549.54
413.443	496.29
413.651	537.25
413.86	658.08
414.068	664.22
414.276	637.6
414.485	602.79
414.693	694.94
414.901	789.15
415.11	752.29
415.318	719.52
415.526	815.77
415.734	799.39
415.943	850.59
416.151	858.78
416.359	871.07
416.567	918.17
416.776	942.75
416.984	948.89
417.192	1006.24
417.4	1100.44
417.608	991.9
417.817	1122.97
418.025	1176.22
418.233	1206.94
418.441	1096.35
418.649	1378.97
418.857	1395.35
419.065	1401.49
419.273	1280.66
419.481	1428.12
419.689	1583.76
419.897	1446.55
420.105	1544.85
420.313	1551
420.521	1739.41
420.729	1628.82
420.937	1858.19
421.145	1829.52
421.353	2046.6
421.561	1997.45
421.769	2073.23
421.977	2165.39
422.185	2110.09
422.393	2292.36
422.601	2462.34
422.809	2304.65
423.017	2380.42
423.224	2577.03
423.432	2628.23
423.64	2538.12
423.848	3011.2
424.056	2730.62
424.263	2947.71
424.471	3084.92
424.679	3086.97
424.887	3281.53
425.094	3453.56
425.302	3304.06
425.51	3592.82
425.718	3486.33
425.925	3594.87
426.133	3652.21
426.341	3926.64
426.548	4203.11
426.756	4209.26
426.964	4256.36
427.171	4397.67
427.379	4477.54
427.586	4545.13
427.794	4815.46
428.001	5040.73
428.209	5151.32
428.417	5089.89
428.624	5405.27
428.832	5589.59
429.039	5229.15
429.247	5427.8
429.454	5868.11
429.662	6351.43
429.869	5943.89
430.076	6525.51
430.284	6064.72
430.491	6324.81
430.699	6877.76
430.906	6896.19
431.114	6806.08
431.321	7205.44
431.528	7225.92
431.736	7602.74
431.943	8022.58
432.15	7713.33
432.358	7969.33
432.565	8497.7
432.772	8374.83
432.979	8870.44
433.187	9015.84
433.394	9056.8
433.601	9609.75
433.808	9558.55
434.016	9439.77
434.223	10056.21
434.43	10500.62
434.637	10236.43
434.844	10930.69
435.052	11063.81
435.259	11178.5
435.466	11217.41
435.673	11246.08
435.88	11883
436.087	12460.52
436.294	12532.2
436.501	11909.62
436.708	12446.19
436.915	12913.13
437.122	13335.01
437.329	13367.77
437.537	13699.55
437.743	14016.98
437.95	13838.81
438.157	14672.33
438.364	15192.51
438.571	15010.25
438.778	14889.42
438.985	16744.88
439.192	16118.2
439.399	16302.51
439.606	16013.75
439.813	16681.39
440.02	17895.83
440.227	17435.04
440.433	17381.79
440.64	18082.2
440.847	18031
441.054	18270.61
441.261	19470.72
441.467	19673.47
441.674	19779.96
441.881	20470.13
442.088	20369.78
442.294	20322.68
442.501	20582.77
442.708	21014.89
442.914	22212.95
443.121	22939.98
443.328	22036.83
443.534	24058.17
443.741	23327.05
443.948	22962.51
444.154	24860.98
444.361	24711.47
444.568	24777.01
444.774	24842.54
444.981	24928.56
445.187	25694.5
445.394	26556.69
445.6	26532.12
445.807	29108.46
446.013	27425.03
446.22	28094.72
446.426	29311.21
446.633	29513.96
446.839	30822.61
447.046	29020.4
447.252	30777.56
447.459	31027.41
447.665	30652.63
447.871	31848.64
448.078	33527.98
448.284	31627.46
448.491	32389.31
448.697	33953.96
448.903	34328.73
449.11	34476.19
449.316	33902.76
449.522	34603.16
449.728	35561.61
449.935	35344.53
450.141	35416.21
450.347	36526.21
450.553	35387.53
450.76	35514.51
450.966	36753.53
451.172	36622.46
451.378	37177.46
451.584	36671.61
451.791	37740.65
451.997	37376.11
452.203	38082.66
452.409	37736.55
452.615	37511.28
452.821	36384.9
453.027	36311.17
453.233	37740.65
453.44	35729.55
453.646	36534.4
453.852	36839.54
454.058	37599.34
454.264	36221.06
454.47	36706.43
454.676	36159.62
454.882	37449.84
455.088	33947.81
455.294	34537.63
455.5	35010.71
455.705	35287.18
455.911	33970.34
456.117	33128.63
456.323	33284.27
456.529	31121.62
456.735	32200.9
456.941	31762.63
457.147	30939.35
457.352	30083.3
457.558	29860.07
457.764	29937.89
457.97	29081.84
458.176	28686.58
458.381	28725.49
458.587	27238.67
458.793	27418.89
458.999	25917.73
459.204	27668.74
459.41	27341.07
459.616	25008.43
459.821	25143.59
460.027	25137.45
460.233	24473.91
460.438	23441.73
460.644	23507.27
460.85	22686.03
461.055	22202.71
461.261	22239.58
461.466	20496.75
461.672	20248.95
461.878	21365.09
462.083	19599.74
462.289	19726.72
462.494	19648.89
462.7	18749.84
462.905	18082.2
463.111	18796.94
463.316	18952.59
463.522	18606.48
463.727	18301.33
463.932	18184.6
464.138	18162.07
464.343	18381.2
464.549	17566.11
464.754	18033.05
464.959	18319.76
465.165	17901.98
465.37	17267.11
465.575	16976.3
465.781	17635.74
465.986	17426.85
466.191	16916.9
466.397	16630.19
466.602	15581.63
466.807	16388.53
467.012	16359.86
467.218	16368.05
467.423	15974.84
467.628	16138.68
467.833	17078.69
468.038	16257.46
468.244	15993.27
468.449	16513.45
468.654	15985.08
468.859	15825.34
469.064	15706.56
469.269	15159.75
469.474	15331.78
469.679	15608.25
469.885	15108.55
470.09	15360.45
470.295	15358.4
470.5	14696.91
470.705	14940.61
470.91	14377.42
471.115	14285.26
471.32	14621.13
471.525	14455.25
471.73	14074.32
471.935	13990.36
472.139	13754.84
472.344	13799.9
472.549	13912.53
472.754	13423.07
472.959	13357.53
473.164	12890.6
473.369	12747.24
473.574	13369.82
473.778	13040.1
473.983	12829.16
474.188	13050.34
474.393	12421.61
474.598	12315.12
474.802	12268.02
475.007	12347.89
475.212	12194.29
475.417	11735.54
475.621	11887.09
475.826	12122.61
476.031	11676.15
476.235	11411.96
476.44	11569.66
476.645	11307.52
476.849	11289.09
477.054	11102.72
477.259	11096.58
477.463	11076.1
477.668	10779.14
477.872	11014.66
478.077	10709.51
478.282	10504.71
478.486	10471.95
478.691	10566.15
478.895	10457.61
479.1	10308.11
479.304	10261.01
479.509	9912.85
479.713	10187.28
479.918	10039.83
480.122	9955.86
480.326	9908.76
480.531	9927.19
480.735	9900.56
480.94	9540.12
481.144	10125.84
481.348	9566.74
481.553	9648.66
481.757	9503.26
481.961	9480.73
482.166	9667.1
482.37	9540.12
482.574	9447.96
482.778	9402.91
482.983	9677.33
483.187	9546.26
483.391	9624.09
483.595	9370.14
483.8	9525.79
484.004	9650.71
484.208	9488.92
484.412	9474.59
484.616	9351.71
484.821	9411.1
485.025	9329.18
485.229	9701.91
485.433	9314.84
485.637	9382.43
485.841	9374.24
486.045	9333.28
486.249	9454.11
486.453	9327.13
486.657	9407
486.861	9327.13
487.065	9226.78
487.269	9423.39
487.473	9343.52
487.677	9570.84
487.881	9497.11
488.085	9474.59
488.289	9546.26
488.493	9501.21
488.697	9706.01
488.901	9456.15
489.105	9466.39
489.309	9273.89
489.512	9585.18
489.716	9544.22
489.92	9681.43
490.124	9378.33
490.328	9863.7
490.531	9689.62
490.735	9609.75
490.939	9712.15
491.143	9587.22
491.346	9720.34
491.55	9962
491.754	9783.83
491.958	9959.95
492.161	9800.21
492.365	9955.86
492.569	9861.65
492.772	9962
492.976	10113.55
493.18	10195.47
493.383	10394.12
493.587	10334.73
493.79	10312.21
493.994	10199.57
494.197	10301.97
494.401	10428.94
494.605	10490.38
494.808	10861.06
495.012	10869.25
495.215	10758.66
495.419	10811.91
495.622	10787.33
495.825	10996.23
496.029	10998.27
496.232	11096.58
496.436	11098.63
496.639	11233.79
496.843	11258.37
497.046	11774.45
497.249	11756.02
497.453	11950.58
497.656	11825.65
497.859	11819.51
498.063	12020.21
498.266	12343.79
498.469	11958.77
498.673	12290.54
498.876	12556.78
499.079	12696.04
499.282	12648.94
499.485	13099.49
499.689	12984.8
499.892	13312.48
500.095	13095.39
500.298	13517.28
500.501	13500.89
500.705	13664.73
500.908	14051.8
501.111	14123.48
501.314	14059.99
501.517	14199.25
501.72	14619.08
501.923	14381.52
502.126	14809.54
502.329	14969.29
502.532	15083.97
502.735	15296.96
502.938	15432.13
503.141	15649.21
503.344	16071.09
503.547	15626.68
503.75	16091.57
503.953	16214.45
504.156	16509.36
504.359	16456.11
504.562	16908.71
504.765	17082.79
504.968	17428.9
505.17	17275.3
505.373	17377.7
505.576	17498.53
505.779	17865.11
505.982	17695.13
506.185	18110.87
506.387	18452.88
506.59	18522.51
506.793	18786.7
506.996	18878.86
507.198	19284.36
507.401	19210.63
507.604	19331.46
507.807	19652.99
508.009	20285.81
508.212	19843.45
508.415	20289.91
508.617	20232.57
508.82	20664.69
509.022	20640.11
509.225	21162.34
509.428	21209.45
509.63	21320.04
509.833	21404
510.035	22012.25
510.238	21872.99
510.44	22145.37
510.643	22581.59
510.845	22899.02
511.048	22643.03
511.25	22878.54
511.453	23085.39
511.655	24041.79
511.858	23646.53
512.06	23859.52
512.262	23728.45
512.465	24338.74
512.667	24643.89
512.87	24961.33
513.072	24641.84
513.274	25354.54
513.477	25340.2
513.679	25477.41
513.881	25809.18
514.084	26376.47
514.286	26151.2
514.488	26427.67
514.69	27248.91
514.893	26896.66
515.095	27175.18
515.297	27769.09
515.499	27697.41
515.701	27971.84
515.904	28098.81
516.106	28315.9
516.308	28854.51
516.51	29124.85
516.712	29288.68
516.914	29458.67
517.116	29982.95
517.318	29528.3
517.52	30054.62
517.722	29921.51
517.925	30658.77
518.127	30961.87
518.329	31291.6
518.531	30976.21
518.733	31596.74
518.935	31834.31
519.136	32063.68
519.338	32633.02
519.54	32121.02
519.742	32696.5
519.944	32839.86
520.146	33435.82
520.348	33374.38
520.55	33282.22
520.752	33927.33
520.954	34300.06
521.155	34181.28
521.357	34693.27
521.559	34807.96
521.761	35268.75
521.963	34982.04
522.164	35348.62
522.366	35393.68
522.568	35989.64
522.77	36307.07
522.971	36417.66
523.173	36323.46
523.375	36608.12
523.576	36673.66
523.778	36823.16
523.98	37269.62
524.181	37140.6
524.383	37265.52
524.584	37648.49
524.786	38078.57
524.988	37933.16
525.189	38109.29
525.391	38355.04
525.592	38537.31
525.794	38897.75
525.995	38957.14
526.197	38781.02
526.398	39043.16
526.6	39563.34
526.801	39346.26
527.003	39479.38
527.204	39921.74
527.406	39862.35
527.607	39891.02
527.808	40310.85
528.01	39241.81
528.211	40048.71
528.412	40443.97
528.614	40317
528.815	40681.53
529.016	40689.73
529.218	40407.11
529.419	40603.71
529.62	40693.82
529.822	40464.45
530.023	40792.12
530.224	41097.27
530.425	41091.13
530.626	41001.02
530.828	40767.55
531.029	41656.37
531.23	40904.76
531.431	40896.57
531.632	41052.22
531.833	41508.91
532.035	41033.78
532.236	41426.99
532.437	41713.71
532.638	41054.26
532.839	41676.85
533.04	41486.39
533.241	41173.05
533.442	42313.76
533.643	41574.45
533.844	41746.48
534.045	42143.78
534.246	41685.04
534.447	42068.01
534.648	41871.4
534.849	41603.12
535.05	41386.04
535.251	41986.09
535.451	41418.8
535.652	41613.36
535.853	41680.94
536.054	41887.79
536.255	42061.86
536.456	41584.69
536.657	42319.91
536.857	41633.84
537.058	41713.71
537.259	42143.78
537.46	41984.04
537.66	41902.12
537.861	41586.74
538.062	41326.64
538.263	41959.47
538.463	41615.41
538.664	41859.12
538.865	41740.33
539.065	42215.46
539.266	41797.68
539.466	41785.39
539.667	41494.58
539.868	42276.9
540.068	41463.86
540.269	41605.17
540.469	41955.37
540.67	41525.3
540.87	41904.17
541.071	41637.94
541.271	41795.63
541.472	41709.61
541.672	41781.29
541.873	41394.23
542.073	40923.19
542.274	42090.54
542.474	41281.59
542.675	41332.79
542.875	41797.68
543.075	41703.47
543.276	41211.96
543.476	41541.68
543.676	41185.33
543.877	41345.08
544.077	41564.21
544.277	41685.04
544.478	41576.5
544.678	41682.99
544.878	41472.05
545.078	41558.06
545.279	41381.94
545.479	40912.95
545.679	41453.62
545.879	41676.85
546.079	41488.43
546.28	41453.62
546.48	41207.86
546.68	41295.92
546.88	41582.64
547.08	41218.1
547.28	41615.41
547.48	41013.3
547.68	41189.43
547.88	41162.81
548.081	41398.32
548.281	41519.15
548.481	41193.53
548.681	41119.8
548.881	41629.74
549.081	41168.95
549.28	41332.79
549.48	41369.65
549.68	41277.49
549.88	41171
550.08	41127.99
550.28	41064.5
550.48	40984.63
550.68	41447.47
550.88	40699.97
551.08	40984.63
551.279	41340.98
551.479	40874.04
551.679	40616
551.879	40738.88
552.079	41048.12
552.278	40804.41
552.478	40886.33
552.678	41377.84
552.878	41099.32
553.077	40548.42
553.277	40534.08
553.477	41426.99
553.676	40538.18
553.876	40949.82
554.076	40718.4
554.275	40747.07
554.475	40165.45
554.674	40806.46
554.874	40732.73
555.074	40542.27
555.273	40771.64
555.473	40638.53
555.672	40276.04
555.872	40697.92
556.071	40779.84
556.271	40751.16
556.47	40593.47
556.67	40214.6
556.869	40386.63
557.068	40677.44
557.268	40271.94
557.467	40480.83
557.667	40386.63
557.866	40425.54
558.065	39694.41
558.265	39979.08
558.464	39653.45
558.663	40349.76
558.863	39766.09
559.062	40276.04
559.261	39528.53
559.461	40077.38
559.66	39452.75
559.859	39923.79
560.058	39487.57
560.258	39868.49
560.457	39409.75
560.656	39718.99
560.855	39395.41
561.054	39280.72
561.253	39260.24
561.453	39258.2
561.652	39395.41
561.851	39581.77
562.05	39055.45
562.249	39155.8
562.448	39368.79
562.647	39485.52
562.846	38914.14
563.045	39180.37
563.244	38828.12
563.443	38834.27
563.642	38072.42
563.841	38807.64
564.04	37986.41
564.239	38957.14
564.438	38226.02
564.637	38647.9
564.836	38543.45
565.035	37978.22
565.234	38373.47
565.432	38183.01
565.631	38119.53
565.83	38264.93
566.029	37736.55
566.228	37826.67
566.427	37841
566.625	37720.17
566.824	37468.27
567.023	38017.13
567.222	37099.64
567.42	37705.84
567.619	37501.04
567.818	37642.35
568.016	37341.3
568.215	37347.44
568.414	37109.88
568.612	37339.25
568.811	37193.84
569.01	37103.73
569.208	36325.5
569.407	37052.53
569.605	36798.59
569.804	37027.96
570.002	36231.3
570.201	36853.88
570.4	36237.44
570.598	36268.16
570.797	36198.53
570.995	36505.73
571.193	35893.38
571.392	36622.46
571.59	35821.7
571.789	36137.09
571.987	35805.32
572.186	36102.28
572.384	35528.84
572.582	35676.3
572.781	35537.04
572.979	35291.28
573.177	35602.57
573.376	35696.78
573.574	35453.07
573.772	35471.5
573.971	35168.4
574.169	34961.56
574.367	34828.44
574.565	34941.08
574.763	34570.4
574.962	34705.56
575.16	34267.3
575.358	34607.26
575.556	34357.41
575.754	34560.16
575.952	34072.74
576.151	34470.04
576.349	34033.83
576.547	34044.07
576.745	34119.84
576.943	33996.96
577.141	34193.57
577.339	33839.27
577.537	33751.21
577.735	33683.62
577.933	33450.16
578.131	33679.53
578.329	33562.79
578.527	33194.16
578.725	33214.64
578.923	33566.89
579.121	33159.34
579.319	32981.17
579.516	33368.24
579.714	33208.5
579.912	33032.37
580.11	32641.21
580.308	32751.8
580.506	32915.64
580.704	31920.32
580.901	32962.74
581.099	32594.11
581.297	32178.37
581.495	32391.36
581.692	32573.63
581.89	31942.85
582.088	32235.71
582.285	31615.18
582.483	31932.61
582.681	31971.52
582.878	31891.65
583.076	31430.86
583.274	31840.45
583.471	31359.18
583.669	31539.4
583.866	30968.02
584.064	31488.2
584.262	31148.24
584.459	31473.87
584.657	31064.27
584.854	31221.97
585.052	30482.65
585.249	31162.58
585.447	30918.87
585.644	30771.41
585.841	30728.41
586.039	30583
586.236	30372.06
586.434	30759.13
586.631	30294.24
586.828	30345.44
587.026	30636.25
587.223	30404.83
587.42	29984.99
587.618	30017.76
587.815	29640.93
588.012	29944.03
588.21	29608.17
588.407	29853.92
588.604	29466.86
588.801	29214.96
588.999	29278.44
589.196	29288.68
589.393	29223.15
589.59	29307.12
589.787	28903.67
589.984	29108.46
590.182	28692.72
590.379	28932.34
590.576	28938.48
590.773	28932.34
590.97	28727.54
591.167	28721.4
591.364	28375.29
591.561	28739.83
591.758	28231.93
591.955	28002.56
592.152	28360.95
592.349	28010.75
592.546	28002.56
592.743	27681.03
592.94	27920.64
593.137	27816.19
593.334	27549.96
593.531	27396.36
593.727	27760.9
593.924	27556.1
594.121	27146.51
594.318	27562.25
594.515	26558.74
594.712	27447.56
594.908	26954
595.105	27144.46
595.302	26947.86
595.499	26902.8
595.696	26915.09
595.892	26644.76
596.089	26702.1
596.286	26573.08
596.482	26493.21
596.679	26310.94
596.876	26175.77
597.072	26302.75
597.269	26433.82
597.466	26018.08
597.662	25901.34
597.859	25958.69
598.055	26161.44
598.252	25868.58
598.448	26022.17
598.645	25692.45
598.841	25446.69
599.038	25952.54
599.234	25426.21
599.431	25227.56
599.627	25313.58
599.824	25135.4
600.02	25061.68
600.217	25245.99
600.413	25004.33
600.609	24992.05
600.806	24721.71
601.002	24801.58
601.198	24619.31
601.395	24445.24
601.591	24623.41
601.787	24705.33
601.984	23937.34
602.18	24408.37
602.376	24123.71
602.572	24004.92
602.769	24080.7
602.965	24062.27
603.161	24129.85
603.357	23914.81
603.553	24168.76
603.75	24009.02
603.946	23667.01
604.142	24082.75
604.338	23228.74
604.534	23445.83
604.73	23329.09
604.926	23167.31
605.122	23079.24
605.318	23253.32
605.514	23359.81
605.71	23083.34
605.906	22991.18
606.102	23003.47
606.298	22944.08
606.494	22796.62
606.69	23058.76
606.886	22837.58
607.082	22411.6
607.278	22663.5
607.474	22290.77
607.67	22802.77
607.866	22313.3
608.062	22485.33
608.257	22333.78
608.453	22200.66
608.649	22610.26
608.845	22036.83
609.041	22245.72
609.236	22255.96
609.432	22096.22
609.628	22237.53
609.824	21979.48
610.019	21813.6
610.215	22178.14
610.411	21942.62
610.606	21760.35
610.802	21942.62
610.998	21741.92
611.193	21746.01
611.389	21739.87
611.584	21797.21
611.78	21422.44
611.976	21426.53
612.171	21664.1
612.367	21627.23
612.562	21477.73
612.758	21061.99
612.953	21248.36
613.149	21449.06
613.344	20971.88
613.539	21662.05
613.735	21248.36
613.93	21197.16
614.126	20932.97
614.321	21285.22
614.517	21295.46
614.712	21023.08
614.907	20947.31
615.103	20932.97
615.298	21016.94
615.493	21072.23
615.688	20593.01
615.884	21129.58
616.079	20683.12
616.274	21098.86
616.47	20808.05
616.665	20705.65
616.86	20646.26
617.055	20515.19
617.25	20361.59
617.445	20556.15
617.641	20357.49
617.836	20783.47
618.031	20019.58
618.226	20330.87
618.421	19906.94
618.616	20230.52
618.811	20185.46
619.006	20361.59
619.201	19816.83
619.396	19976.57
619.591	19659.13
619.786	19820.92
619.981	19153.29
620.176	19607.94
620.371	19231.11
620.566	19523.97
620.761	19112.33
620.956	19339.65
621.151	19173.77
621.346	19280.26
621.541	18833.8
621.735	19155.33
621.93	18510.22
622.125	18934.15
622.32	18626.96
622.515	18755.98
622.709	18489.74
622.904	18432.4
623.099	17992.09
623.294	18375.06
623.488	18002.33
623.683	18301.33
623.878	17922.46
624.072	18039.19
624.267	17820.06
624.462	17334.69
624.656	17455.52
624.851	17367.46
625.046	17328.55
625.24	17342.88
625.435	17093.03
625.629	16947.62
625.824	17119.65
626.018	16884.14
626.213	16587.18
626.407	16943.53
626.602	16533.93
626.796	16605.61
626.991	16499.12
627.185	16292.27
627.38	16392.62
627.574	16339.38
627.768	16206.26
627.963	16071.09
628.157	16021.94
628.352	16019.89
628.546	15581.63
628.74	15976.89
628.935	15305.15
629.129	15542.72
629.323	15368.64
629.517	15436.22
629.712	15335.87
629.906	15286.72
630.1	15053.25
630.294	15325.63
630.489	15176.13
630.683	15221.19
630.877	14807.5
631.071	14834.12
631.265	14762.44
631.459	14666.19
631.653	14324.18
631.848	14485.97
632.042	14358.99
632.236	14574.03
632.43	14084.56
632.624	14504.4
632.818	14201.3
633.012	13881.81
633.206	13988.31
633.4	13758.94
633.594	13677.02
633.788	13822.42
633.982	13582.81
634.176	13597.15
634.369	13457.89
634.563	13468.13
634.757	13306.34
634.951	13373.92
635.145	13517.28
635.339	13302.24
635.533	13072.87
635.726	13199.84
635.92	12857.83
636.114	12843.49
636.308	12923.37
636.501	12630.51
636.695	12853.73
636.889	12569.07
637.083	12349.93
637.276	12272.11
637.47	12454.38
637.664	12538.35
637.857	12444.14
638.051	12296.69
638.244	12227.06
638.438	11971.06
638.632	12233.2
638.825	11930.1
639.019	12057.07
639.212	11839.99
639.406	11694.58
639.599	11874.81
639.793	11733.5
639.986	11414.01
640.18	11690.49
640.373	11563.51
640.567	11414.01
640.76	11395.58
640.954	11457.02
641.147	11309.57
641.34	11213.31
641.534	11213.31
641.727	11241.98
641.92	11213.31
642.114	10990.08
642.307	11180.54
642.5	10809.86
642.694	10684.94
642.887	10637.83
643.08	10707.46
643.273	10734.09
643.467	10650.12
643.66	10676.74
643.853	10598.92
644.046	10406.41
644.239	10416.65
644.432	10441.23
644.626	10299.92
644.819	10265.1
645.012	10459.66
645.205	10050.07
645.398	10277.39
645.591	10142.22
645.784	10099.22
645.977	9845.27
646.17	9947.67
646.363	9744.92
646.556	9703.96
646.749	9751.06
646.942	9767.45
647.135	9511.45
647.328	9654.81
647.521	9495.07
647.714	9435.67
647.907	9175.58
648.099	9368.09
648.292	9525.79
648.485	9445.91
648.678	9114.14
648.871	9181.73
649.064	9239.07
649.256	9222.69
649.449	9228.83
649.642	9183.77
649.835	8978.98
650.027	8829.48
650.22	8802.85
650.413	8813.09
650.605	8790.56
650.798	8696.36
650.991	8563.24
651.183	8501.8
651.376	8507.94
651.568	8602.15
651.761	8571.43
651.954	8583.72
652.146	8553
652.339	8448.55
652.531	8487.47
652.724	8149.55
652.916	8176.17
653.109	8215.09
653.301	8276.52
653.494	8200.75
653.686	7987.76
653.879	8124.97
654.071	7936.56
654.263	7821.88
654.456	7965.23
654.648	7973.42
654.84	7744.05
655.033	7852.59
655.225	7793.2
655.417	7543.35
655.61	7592.5
655.802	7735.86
655.994	7463.48
656.186	7633.46
656.379	7594.55
656.571	7432.76
656.763	7285.31
656.955	7252.54
657.148	7469.62
657.34	7354.94
657.532	7326.27
657.724	7182.91
657.916	7158.33
658.108	7295.55
658.3	7078.46
658.492	7182.91
658.684	6943.3
658.876	6935.1
659.068	7072.32
659.26	7070.27
659.452	6888
659.644	6873.67
659.836	6720.07
660.028	6865.47
660.22	6642.25
660.412	6965.82
660.604	6818.37
660.796	6648.39
660.988	6537.8
661.18	6726.21
661.372	6351.43
661.563	6627.91
661.755	6464.07
661.947	6453.83
662.139	6459.98
662.331	6384.2
662.522	6257.23
662.714	6343.24
662.906	6273.61
663.097	6165.07
663.289	6191.69
663.481	6124.11
663.673	6210.12
663.864	6146.64
664.056	6044.24
664.247	6097.49
664.439	5966.42
664.631	5970.51
664.822	5980.75
665.014	6001.23
665.205	5823.06
665.397	5915.22
665.588	5790.29
665.78	5720.66
665.971	5843.54
666.163	5915.22
666.354	5665.36
666.546	5677.65
666.737	5581.4
666.929	5749.33
667.12	5640.79
667.311	5700.18
667.503	5558.87
667.694	5511.77
667.885	5601.88
668.077	5507.67
668.268	5603.93
668.459	5513.81
668.651	5628.5
668.842	5331.55
669.033	5329.5
669.224	5354.07
669.416	5347.93
669.607	5276.25
669.798	5298.78
669.989	5245.53
670.18	5388.89
670.371	5198.43
670.563	5266.01
670.754	5227.1
670.945	5239.39
671.136	5175.9
671.327	5081.69
671.518	5161.56
671.709	5270.11
671.9	5206.62
672.091	5059.17
672.282	5083.74
672.473	5042.78
672.664	4971.1
672.855	4866.66
673.046	5050.97
673.237	5153.37
673.428	4854.37
673.619	4846.18
673.809	4811.36
674	4772.45
674.191	4745.83
674.382	4860.51
674.573	4790.88
674.764	4856.42
674.954	4762.21
675.145	4643.43
675.336	4727.39
675.527	4678.24
675.717	4676.2
675.908	4788.83
676.099	4641.38
676.289	4541.03
676.48	4657.76
676.671	4571.75
676.861	4559.46
677.052	4518.5
677.243	4461.16
677.433	4504.17
677.624	4463.21
677.814	4610.66
678.005	4389.48
678.195	4561.51
678.386	4518.5
678.576	4282.99
678.767	4414.06
678.957	4483.69
679.148	4495.97
679.338	4489.83
679.529	4414.06
679.719	4346.47
679.909	4467.3
680.1	4338.28
680.29	4344.42
680.481	4375.14
680.671	4145.77
680.861	4301.42
681.052	4264.55
681.242	4293.23
681.432	4285.03
681.622	4233.83
681.813	4223.59
682.003	4174.44
682.193	4125.29
682.383	4221.55
682.573	4192.87
682.764	4129.39
682.954	4262.51
683.144	4129.39
683.334	4059.76
683.524	4162.16
683.714	4059.76
683.904	4043.37
684.094	4057.71
684.284	4039.28
684.474	4119.15
684.664	4029.04
684.854	4102.76
685.044	4055.66
685.234	4037.23
685.424	3897.97
685.614	4033.13
685.804	4057.71
685.994	3840.62
686.184	3924.59
686.374	3990.13
686.564	3904.11
686.753	3957.36
686.943	3857.01
687.133	3930.73
687.323	3832.43
687.513	3699.31
687.702	3836.53
687.892	3699.31
688.082	3801.71
688.272	3816.05
688.461	3873.39
688.651	3766.9
688.841	3658.35
689.03	3580.53
689.22	3564.15
689.41	3895.92
689.599	3498.61
689.789	3568.24
689.979	3623.54
690.168	3623.54
690.358	3615.35
690.547	3502.71
690.737	3617.4
690.926	3496.57
691.116	3414.65
691.305	3469.94
691.495	3562.1
691.684	3543.67
691.874	3564.15
692.063	3334.78
692.252	3291.77
692.442	3488.37
692.631	3293.82
692.82	3316.34
693.01	3326.58
693.199	3252.86
693.388	3428.98
693.578	3271.29
693.767	3299.96
693.956	3226.23
694.146	3189.37
694.335	3195.51
694.524	3263.1
694.713	3267.19
694.902	3193.47
695.092	3115.64
695.281	3082.88
695.47	3140.22
695.659	3103.36
695.848	3058.3
696.037	3132.03
696.226	3068.54
696.415	3023.48
696.604	3000.96
696.793	3052.16
696.982	3089.02
697.171	3035.77
697.36	2914.94
697.549	3062.4
697.738	2986.62
697.927	2949.76
698.116	3074.68
698.305	2904.7
698.494	2796.16
698.683	2869.89
698.872	2851.46
699.061	2800.26
699.25	2900.61
699.438	2964.09
699.627	2886.27
699.816	3017.34
700.005	2796.16
700.193	2943.61
700.382	2988.67
700.571	2814.59
700.76	2783.87
700.948	2847.36
701.137	2949.76
701.326	2876.03
701.514	2761.34
701.703	2828.93
701.892	2755.2
702.08	2806.4
702.269	2724.48
702.457	2796.16
702.646	2919.04
702.834	2753.15
703.023	2740.86
703.212	2757.25
703.4	2769.54
703.589	2706.05
703.777	2855.55
703.965	2736.77
704.154	2693.76
704.342	2689.67
704.531	2769.54
704.719	2632.32
704.907	2736.77
705.096	2673.28
705.284	2706.05
705.472	2624.13
705.661	2704
705.849	2806.4
706.037	2755.2
706.226	2624.13
706.414	2683.52
706.602	2675.33
706.79	2671.23
706.979	2691.71
707.167	2749.06
707.355	2718.34
707.543	2693.76
707.731	2687.62
707.919	2765.44
708.107	2732.67
708.296	2742.91
708.484	2572.93
708.672	2652.8
708.86	2615.94
709.048	2601.6
709.236	2536.07
709.424	2529.92
709.612	2525.83
709.8	2615.94
709.988	2660.99
710.176	2603.65
710.364	2683.52
710.551	2673.28
710.739	2660.99
710.927	2708.1
711.115	2552.45
711.303	2546.31
711.491	2601.6
711.679	2603.65
711.866	2534.02
712.054	2515.59
712.242	2599.56
712.43	2634.37
712.617	2669.19
712.805	2574.98
712.993	2589.32
713.181	2562.69
713.368	2568.84
713.556	2538.12
713.744	2503.3
713.931	2636.42
714.119	2525.83
714.306	2527.88
714.494	2550.4
714.682	2560.64
714.869	2544.26
715.057	2503.3
715.244	2574.98
715.432	2568.84
715.619	2531.97
715.807	2470.53
715.994	2634.37
716.182	2603.65
716.369	2509.44
716.556	2505.35
716.744	2497.16
716.931	2503.3
717.119	2538.12
717.306	2521.73
717.493	2515.59
717.681	2587.27
717.868	2448.01
718.055	2515.59
718.242	2587.27
718.43	2577.03
718.617	2624.13
718.804	2417.29
718.991	2484.87
719.179	2630.27
719.366	2521.73
719.553	2484.87
719.74	2593.41
719.927	2599.56
720.114	2599.56
720.301	2591.36
720.488	2538.12
720.676	2609.79
720.863	2458.25
721.05	2445.96
721.237	2472.58
721.424	2511.49
721.611	2513.54
721.798	2519.68
721.985	2486.92
722.172	2540.16
722.358	2413.19
722.545	2407.05
722.732	2400.9
722.919	2511.49
723.106	2474.63
723.293	2480.77
723.48	2476.68
723.667	2355.85
723.853	2482.82
724.04	2501.25
724.227	2570.88
724.414	2450.05
724.6	2409.09
724.787	2421.38
724.974	2458.25
725.161	2450.05
725.347	2478.72
725.534	2466.44
725.72	2419.33
725.907	2456.2
726.094	2488.96
726.28	2353.8
726.467	2501.25
726.653	2542.21
726.84	2515.59
727.027	2550.4
727.213	2534.02
727.4	2513.54
727.586	2452.1
727.773	2503.3
727.959	2466.44
728.145	2529.92
728.332	2421.38
728.518	2378.37
728.705	2425.48
728.891	2579.08
729.077	2644.61
729.264	2480.77
729.45	2441.86
729.636	2558.6
729.823	2464.39
730.009	2439.81
730.195	2450.05
730.382	2552.45
730.568	2474.63
730.754	2470.53
730.94	2630.27
731.126	2556.55
731.313	2501.25
731.499	2474.63
731.685	2558.6
731.871	2521.73
732.057	2497.16
732.243	2564.74
732.429	2546.31
732.615	2474.63
732.801	2482.82
732.987	2589.32
733.173	2409.09
733.359	2439.81
733.545	2566.79
733.731	2523.78
733.917	2554.5
734.103	2478.72
734.289	2419.33
734.475	2546.31
734.661	2468.48
734.847	2568.84
735.033	2572.93
735.219	2482.82
735.404	2421.38
735.59	2433.67
735.776	2366.09
735.962	2423.43
736.148	2454.15
736.333	2497.16
736.519	2460.29
736.705	2554.5
736.89	2353.8
737.076	2560.64
737.262	2427.53
737.447	2427.53
737.633	2306.7
737.819	2402.95
738.004	2513.54
738.19	2572.93
738.375	2431.62
738.561	2472.58
738.747	2476.68
738.932	2398.85
739.118	2384.52
739.303	2384.52
739.489	2570.88
739.674	2372.23
739.859	2343.56
740.045	2382.47
740.23	2439.81
740.416	2333.32
740.601	2335.37
740.786	2312.84
740.972	2335.37
741.157	2423.43
741.342	2318.98
741.528	2282.12
741.713	2341.51
741.898	2292.36
742.084	2296.46
742.269	2325.13
742.454	2325.13
742.639	2323.08
742.824	2347.65
743.01	2316.94
743.195	2251.4
743.38	2167.43
743.565	2318.98
743.75	2292.36
743.935	2216.58
744.12	2308.74
744.305	2167.43
744.49	2126.47
744.675	2181.77
744.86	2259.59
745.045	2210.44
745.23	2118.28
745.415	2253.45
745.6	2263.69
745.785	2149
745.97	2132.62
746.155	2138.76
746.34	2179.72
746.525	2075.27
746.71	2138.76
746.895	2069.13
747.079	2116.23
747.264	2050.7
747.449	2101.9
747.634	2136.71
747.819	2091.66
748.003	2079.37
748.188	1913.49
748.373	2024.08
748.557	1901.2
748.742	1948.3
748.927	2034.32
749.111	1880.72
749.296	1909.39
749.481	1909.39
749.665	1968.78
749.85	1952.4
750.034	1860.24
750.219	1860.24
750.404	1911.44
750.588	1888.91
750.773	1809.04
750.957	1933.97
751.141	1878.67
751.326	1739.41
751.51	1768.08
751.695	1852.05
751.879	1835.66
752.064	1862.29
752.248	1723.02
752.432	1833.61
752.617	1663.63
752.801	1759.89
752.985	1737.36
753.17	1710.74
753.354	1696.4
753.538	1714.83
753.722	1649.3
753.907	1610.39
754.091	1686.16
754.275	1677.97
754.459	1634.96
754.643	1639.06
754.828	1725.07
755.012	1565.33
755.196	1540.76
755.38	1600.15
755.564	1569.43
755.748	1565.33
755.932	1641.11
756.116	1602.19
756.3	1438.36
756.484	1483.41
756.668	1591.95
756.852	1497.75
757.036	1454.74
757.22	1473.17
757.404	1487.51
757.588	1460.88
757.772	1397.4
757.956	1485.46
758.14	1518.23
758.323	1378.97
758.507	1364.63
758.691	1372.82
758.875	1434.26
759.059	1436.31
759.242	1352.34
759.426	1278.62
759.61	1274.52
759.794	1317.53
759.977	1356.44
760.161	1399.45
760.345	1278.62
760.528	1292.95
760.712	1288.85
760.895	1309.33
761.079	1266.33
761.263	1188.5
761.446	1286.81
761.63	1227.42
761.813	1249.94
761.997	1309.33
762.18	1245.85
762.364	1249.94
762.547	1120.92
762.731	1233.56
762.914	1297.05
763.098	1309.33
763.281	1258.14
763.464	1227.42
763.648	1225.37
763.831	1227.42
764.015	1186.46
764.198	1157.79
764.381	1135.26
764.564	1141.4
764.748	1153.69
764.931	1208.98
765.114	1176.22
765.297	1204.89
765.481	1155.74
765.664	1125.02
765.847	1206.94
766.03	1086.11
766.213	1198.74
766.397	1208.98
766.58	1057.43
766.763	1094.3
766.946	1063.58
767.129	1149.59
767.312	1057.43
767.495	1145.5
767.678	1043.1
767.861	1075.87
768.044	1092.25
768.227	1043.1
768.41	1067.67
768.593	1094.3
768.776	965.28
768.959	969.37
769.142	1016.48
769.324	1088.15
769.507	1039
769.69	1047.19
769.873	1043.1
770.056	1036.95
770.239	1118.87
770.421	1122.97
770.604	1036.95
770.787	1024.67
770.97	1022.62
771.152	897.69
771.335	957.08
771.518	975.52
771.7	1106.59
771.883	1000.09
772.066	942.75
772.248	998.04
772.431	928.41
772.613	1012.38
772.796	971.42
772.978	940.7
773.161	961.18
773.343	948.89
773.526	932.51
773.708	934.56
773.891	932.51
774.073	871.07
774.256	897.69
774.438	940.7
774.621	885.41
774.803	850.59
774.985	848.54
775.168	930.46
775.35	832.16
775.532	860.83
775.715	832.16
775.897	817.82
776.079	903.84
776.261	858.78
776.444	682.66
776.626	834.21
776.808	866.97
776.99	840.35
777.173	760.48
777.355	789.15
777.537	774.81
777.719	856.73
777.901	856.73
778.083	789.15
778.265	834.21
778.447	766.62
778.629	744.1
778.811	750.24
778.993	744.1
779.175	752.29
779.357	645.79
779.539	705.18
779.721	701.09
779.903	791.2
780.085	740
780.267	651.94
780.449	727.71
780.631	711.33
780.812	799.39
780.994	735.9
781.176	668.32
781.358	555.68
781.54	582.31
781.721	647.84
781.903	647.84
782.085	694.94
782.267	725.66
782.448	631.46
782.63	594.59
782.812	582.31
782.993	604.83
783.175	631.46
783.357	684.7
783.538	598.69
783.72	559.78
783.901	690.85
784.083	514.72
784.264	596.64
784.446	541.35
784.627	600.74
784.809	580.26
784.99	535.2
785.172	508.58
785.353	578.21
785.535	637.6
785.716	504.48
785.897	504.48
786.079	531.11
786.26	539.3
786.441	567.97
786.623	588.45
786.804	613.03
786.985	527.01
787.167	516.77
787.348	590.5
787.529	492.2
787.71	524.96
787.891	522.91
788.073	496.29
788.254	486.05
788.435	490.15
788.616	469.67
788.797	426.66
788.978	508.58
789.159	410.28
789.34	481.96
789.522	422.56
789.703	443.04
789.884	379.56
790.065	393.89
790.246	414.37
790.427	475.81
790.607	500.39
790.788	359.08
790.969	404.13
791.15	402.08
791.331	430.76
791.512	430.76
791.693	402.08
791.874	408.23
792.054	408.23
792.235	397.99
792.416	408.23
792.597	383.65
792.778	465.57
792.958	422.56
793.139	389.8
793.32	434.85
793.5	412.32
793.681	400.04
793.862	414.37
794.042	397.99
794.223	344.74
794.404	422.56
794.584	381.6
794.765	375.46
794.945	357.03
795.126	430.76
795.306	385.7
795.487	326.31
795.667	314.02
795.848	420.52
796.028	320.17
796.209	305.83
796.389	414.37
796.57	373.41
796.75	314.02
796.93	363.17
797.111	295.59
797.291	354.98
797.471	299.69
797.652	318.12
797.832	316.07
798.012	404.13
798.192	365.22
798.373	316.07
798.553	363.17
798.733	330.41
798.913	221.86
799.093	221.86
799.274	299.69
799.454	359.08
799.634	271.01
799.814	344.74
799.994	287.4
800.174	338.6
800.354	361.13
800.534	287.4
800.714	350.89
800.894	328.36
801.074	172.71
801.254	309.93
801.434	283.3
801.614	283.3
801.794	264.87
801.974	645.79
802.154	228.01
802.334	342.69
802.514	209.58
802.693	264.87
802.873	273.06
803.053	299.69
803.233	219.82
803.413	297.64
803.592	228.01
803.772	215.72
803.952	244.39
804.131	228.01
804.311	281.25
804.491	254.63
804.67	225.96
804.85	250.53
805.03	193.19
805.209	238.25
805.389	191.14
805.568	303.78
805.748	217.77
805.928	228.01
806.107	207.53
806.287	217.77
806.466	213.67
806.646	244.39
806.825	185
807.004	199.34
807.184	293.54
807.363	320.17
807.543	201.38
807.722	256.68
807.901	246.44
808.081	277.16
808.26	199.34
808.439	289.45
808.619	195.24
808.798	203.43
808.977	236.2
809.156	199.34
809.336	203.43
809.515	240.3
809.694	219.82
809.873	236.2
810.052	201.38
810.231	279.21
810.411	268.97
810.59	228.01
810.769	207.53
810.948	209.58
811.127	197.29
811.306	162.47
811.485	166.57
811.664	275.11
811.843	199.34
812.022	230.06
812.201	242.34
812.38	203.43
812.559	139.94
812.737	234.15
812.916	121.51
813.095	213.67
813.274	199.34
813.453	219.82
813.632	236.2
813.811	170.66
813.989	148.14
814.168	185
814.347	166.57
814.526	127.66
814.704	195.24
814.883	305.83
815.062	154.28
815.24	150.18
815.419	121.51
815.598	129.7
815.776	103.08
815.955	158.38
816.133	195.24
816.312	217.77
816.49	148.14
816.669	90.79
816.847	215.72
817.026	98.99
817.204	133.8
817.383	238.25
817.561	160.42
817.74	201.38
817.918	197.29
818.097	152.23
818.275	191.14
818.453	207.53
818.632	115.37
818.81	84.65
818.988	154.28
819.167	197.29
819.345	162.47
819.523	160.42
819.701	141.99
819.879	168.62
820.058	217.77
820.236	166.57
820.414	139.94
820.592	164.52
820.77	133.8
820.948	152.23
821.127	121.51
821.305	123.56
821.483	58.03
821.661	176.81
821.839	223.91
822.017	191.14
822.195	82.6
822.373	105.13
822.551	174.76
822.729	131.75
822.907	176.81
823.085	154.28
823.262	88.75
823.44	135.85
823.618	94.89
823.796	109.22
823.974	111.27
824.152	109.22
824.329	193.19
824.507	94.89
824.685	141.99
824.863	125.61
825.04	148.14
825.218	123.56
825.396	144.04
825.574	137.9
825.751	148.14
825.929	88.75
826.107	96.94
826.284	154.28
826.462	133.8
826.639	39.59
826.817	78.51
826.994	199.34
827.172	133.8
827.349	197.29
827.527	47.79
827.704	137.9
827.882	68.27
828.059	127.66
828.237	113.32
828.414	113.32
828.591	68.27
828.769	105.13
828.946	82.6
829.124	109.22
829.301	160.42
829.478	125.61
829.655	109.22
829.833	135.85
830.01	125.61
830.187	111.27
830.364	33.45
830.542	119.46
830.719	105.13
830.896	131.75
831.073	115.37
831.25	96.94
831.427	125.61
831.604	82.6
831.782	70.31
831.959	74.41
832.136	101.03
832.313	123.56
832.49	43.69
832.667	15.02
832.844	55.98
833.021	90.79
833.198	74.41
833.374	154.28
833.551	84.65
833.728	62.12
833.905	101.03
834.082	49.83
834.259	127.66
834.436	137.9
834.612	152.23
834.789	109.22
834.966	58.03
835.143	146.09
835.319	64.17
835.496	84.65
835.673	90.79
835.85	109.22
836.026	60.07
836.203	195.24
836.38	133.8
836.556	103.08
836.733	70.31
836.909	144.04
837.086	66.22
837.262	96.94
837.439	141.99
837.616	119.46
837.792	113.32
837.968	131.75
838.145	88.75
838.321	29.35
838.498	139.94
838.674	64.17
838.851	19.11
839.027	43.69
839.203	23.21
839.38	119.46
839.556	111.27
839.732	158.38
839.909	109.22
840.085	68.27
840.261	47.79
840.437	156.33
840.614	-7.51
840.79	101.03
840.966	23.21
841.142	55.98
841.318	25.26
841.494	121.51
841.671	84.65
841.847	58.03
842.023	68.27
842.199	64.17
842.375	109.22
842.551	51.88
842.727	25.26
842.903	78.51
843.079	117.42
843.255	80.55
843.431	27.31
843.607	64.17
843.783	2.73
843.959	80.55
844.134	76.46
844.31	129.7
844.486	-7.51
844.662	121.51
844.838	68.27
845.013	35.5
845.189	60.07
845.365	70.31
845.541	21.16
845.716	84.65
845.892	96.94
846.068	92.84
846.244	105.13
846.419	117.42
846.595	94.89
846.77	10.92
846.946	82.6
847.122	109.22
847.297	-11.61
847.473	43.69
847.648	94.89
847.824	94.89
847.999	4.78
848.175	27.31
848.35	74.41
848.526	76.46
848.701	162.47
848.876	84.65
849.052	49.83
849.227	25.26
849.403	10.92
849.578	4.78
849.753	64.17
849.929	8.87
850.104	70.31
850.279	72.36
850.454	74.41
850.63	8.87
850.805	53.93
850.98	92.84
851.155	92.84
851.33	-5.46
851.505	80.55
851.681	58.03
851.856	51.88
852.031	4.78
852.206	-3.41
852.381	76.46
852.556	64.17
852.731	60.07
852.906	10.92
853.081	35.5
853.256	72.36
853.431	39.59
853.606	0.68
853.781	12.97
853.956	58.03
854.131	58.03
854.305	4.78
854.48	27.31
854.655	19.11
854.83	60.07
855.005	31.4
855.18	47.79
855.354	23.21
855.529	10.92
855.704	47.79
855.879	41.64
856.053	98.99
856.228	125.61
856.403	19.11
856.577	2.73
856.752	29.35
856.926	45.74
857.101	-17.75
857.276	41.64
857.45	33.45
857.625	90.79
857.799	37.55
857.974	21.16
858.148	43.69
858.323	6.83
858.497	58.03
858.672	84.65
858.846	6.83
859.02	90.79
859.195	25.26
859.369	74.41
859.543	64.17
859.718	17.07
859.892	12.97
860.066	-23.89
860.241	17.07
860.415	-32.08
860.589	-3.41
860.763	76.46
860.938	35.5
861.112	70.31
861.286	62.12
861.46	-40.28
861.634	103.08
861.808	31.4
861.982	-19.8
862.157	-5.46
862.331	-3.41
862.505	60.07
862.679	-46.42
862.853	60.07
863.027	84.65
863.201	64.17
863.375	78.51
863.549	92.84
863.722	27.31
863.896	-38.23
864.07	39.59
864.244	15.02
864.418	31.4
864.592	15.02
864.766	45.74
864.939	60.07
865.113	-15.7
865.287	43.69
865.461	-13.65
865.634	31.4
865.808	8.87
865.982	-19.8
866.156	4.78
866.329	-66.9
866.503	17.07
866.676	-23.89
866.85	4.78
867.024	21.16
867.197	33.45
867.371	25.26
867.544	-15.7
867.718	10.92
867.891	47.79
868.065	49.83
868.238	121.51
868.412	53.93
868.585	82.6
868.759	6.83
868.932	-1.37
869.105	-97.62
869.279	53.93
869.452	31.4
869.625	60.07
869.799	31.4
869.972	-38.23
870.145	39.59
870.319	53.93
870.492	25.26
870.665	-27.99
870.838	29.35
871.011	31.4
871.185	72.36
871.358	4.78
871.531	64.17
871.704	0.68
871.877	39.59
872.05	-52.56
872.223	-44.37
872.396	2.73
872.569	-7.51
872.742	37.55
872.915	47.79
873.088	6.83
873.261	27.31
873.434	47.79
873.607	68.27
873.78	84.65
873.953	-5.46
874.126	35.5
874.299	-30.04
874.471	-7.51
874.644	33.45
874.817	90.79
874.99	64.17
875.163	25.26
875.335	33.45
875.508	6.83
875.681	53.93
875.853	-27.99
876.026	51.88
876.199	-3.41
876.371	-32.08
876.544	-58.71
876.717	-9.56
876.889	-27.99
877.062	2.73
877.234	-5.46
877.407	43.69
877.579	-17.75
877.752	60.07
877.924	47.79
878.097	103.08
878.269	8.87
878.442	78.51
878.614	-1.37
878.786	35.5
878.959	47.79
879.131	43.69
879.303	-68.95
879.476	29.35
879.648	23.21
879.82	15.02
879.993	-21.85
880.165	35.5
880.337	-19.8
880.509	6.83
880.681	23.21
880.854	21.16
881.026	55.98
881.198	8.87
881.37	15.02
881.542	-34.13
881.714	-11.61
881.886	66.22
882.058	12.97
882.23	-30.04
882.402	-19.8
882.574	2.73
882.746	17.07
882.918	17.07
883.09	-68.95
883.262	84.65
883.434	0.68
883.606	113.32
883.778	-9.56
883.95	72.36
884.122	23.21
884.293	41.64
884.465	-38.23
884.637	53.93
884.809	-13.65
884.98	43.69
885.152	12.97
885.324	-27.99
885.496	35.5
885.667	60.07
885.839	53.93
886.011	-3.41
886.182	-34.13
886.354	2.73
886.525	17.07
886.697	-21.85
886.869	12.97
887.04	10.92
887.212	27.31
887.383	27.31
887.555	55.98
887.726	0.68
887.897	-1.37
888.069	51.88
888.24	23.21
888.412	23.21
888.583	33.45
888.754	-1.37
888.926	4.78
889.097	29.35
889.268	-7.51
889.44	-1.37
889.611	-5.46
889.782	21.16
889.953	-46.42
890.125	33.45
890.296	-56.66
890.467	19.11
890.638	17.07
890.809	2.73
890.98	47.79
891.151	-25.94
891.323	74.41
891.494	70.31
891.665	45.74
891.836	53.93
892.007	15.02
892.178	8.87
892.349	6.83
892.52	47.79
892.691	12.97
892.862	-62.8
893.032	6.83
893.203	-1.37
893.374	-17.75
893.545	-9.56
893.716	-38.23
893.887	39.59
894.057	70.31
894.228	15.02
894.399	-52.56
894.57	-19.8
894.74	15.02
894.911	-46.42
895.082	37.55
895.253	-40.28
895.423	6.83
895.594	29.35
895.764	6.83
895.935	43.69
896.106	-1.37
896.276	-17.75
896.447	43.69
896.617	43.69
896.788	37.55
896.958	51.88
897.129	37.55
897.299	25.26
897.47	-81.24
897.64	23.21
897.81	27.31
897.981	0.68
898.151	101.03
898.322	66.22
898.492	-27.99
898.662	-34.13
898.832	80.55
899.003	-21.85
899.173	31.4
899.343	31.4
899.513	29.35
