Data from USB4F104151__269__11-12-06-146.txt Node

Date: Wed Mar 12 11:12:06 EDT 2025
User: louis
Spectrometer: USB4F10415
Trigger mode: 4
Integration Time (sec): 2.000000E-2
Scans to average: 1
Electric dark correction enabled: true
Nonlinearity correction enabled: false
Boxcar width: 0
XAxis mode: Wavelengths
Number of Pixels in Spectrum: 3648
>>>>>Begin Spectral Data<<<<<
178.204	-108.54
178.424	-108.54
178.644	-108.54
178.864	-155.65
179.084	-133.12
179.304	24.58
179.524	47.1
179.744	-116.73
179.964	-4.1
180.184	6.14
180.404	34.82
180.624	38.91
180.844	26.62
181.064	-40.96
181.283	-51.2
181.503	0
181.723	34.82
181.943	-67.58
182.163	59.39
182.383	6.14
182.602	-4.1
182.822	-22.53
183.042	-20.48
183.262	12.29
183.482	-12.29
183.701	-4.1
183.921	92.16
184.141	22.53
184.361	71.68
184.58	22.53
184.8	38.91
185.02	-43.01
185.239	43.01
185.459	-32.77
185.679	32.77
185.898	-67.58
186.118	98.3
186.338	-4.1
186.557	-53.25
186.777	75.77
186.997	-24.58
187.216	26.62
187.436	10.24
187.655	30.72
187.875	67.58
188.095	-47.1
188.314	2.05
188.534	98.3
188.753	-24.58
188.973	8.19
189.192	14.34
189.412	51.2
189.631	-65.53
189.851	8.19
190.07	34.82
190.29	34.82
190.509	12.29
190.729	14.34
190.948	61.44
191.168	126.97
191.387	67.58
191.607	22.53
191.826	73.73
192.045	-8.19
192.265	59.39
192.484	14.34
192.704	-22.53
192.923	14.34
193.142	-8.19
193.362	-94.21
193.581	-88.06
193.8	51.2
194.02	55.3
194.239	-69.63
194.458	34.82
194.678	71.68
194.897	-22.53
195.116	-10.24
195.335	-2.05
195.555	-69.63
195.774	-26.62
195.993	-4.1
196.212	6.14
196.432	-14.34
196.651	55.3
196.87	-79.87
197.089	-30.72
197.308	-53.25
197.528	26.62
197.747	-22.53
197.966	34.82
198.185	43.01
198.404	6.14
198.623	-20.48
198.842	71.68
199.062	-30.72
199.281	-16.38
199.5	2.05
199.719	-45.06
199.938	61.44
200.157	47.1
200.376	-12.29
200.595	24.58
200.814	47.1
201.033	79.87
201.252	-36.86
201.471	-18.43
201.69	2.05
201.909	-90.11
202.128	-12.29
202.347	106.49
202.566	22.53
202.785	20.48
203.004	-18.43
203.223	28.67
203.442	-8.19
203.661	6.14
203.879	18.43
204.098	-18.43
204.317	-55.3
204.536	0
204.755	-67.58
204.974	71.68
205.193	-8.19
205.411	59.39
205.63	2.05
205.849	-14.34
206.068	43.01
206.287	-100.35
206.505	38.91
206.724	-10.24
206.943	32.77
207.162	26.62
207.381	-59.39
207.599	-26.62
207.818	-20.48
208.037	-6.14
208.255	18.43
208.474	8.19
208.693	43.01
208.911	-38.91
209.13	92.16
209.349	-6.14
209.567	18.43
209.786	-6.14
210.005	14.34
210.223	63.49
210.442	-2.05
210.661	-10.24
210.879	10.24
211.098	12.29
211.316	-34.82
211.535	2.05
211.753	18.43
211.972	51.2
212.191	-36.86
212.409	-104.45
212.628	-57.34
212.846	69.63
213.065	12.29
213.283	79.87
213.502	-38.91
213.72	12.29
213.938	-47.1
214.157	30.72
214.375	8.19
214.594	-51.2
214.812	32.77
215.031	-67.58
215.249	38.91
215.467	49.15
215.686	6.14
215.904	8.19
216.122	-20.48
216.341	2.05
216.559	100.35
216.778	43.01
216.996	14.34
217.214	67.58
217.432	16.38
217.651	-51.2
217.869	16.38
218.087	8.19
218.306	55.3
218.524	20.48
218.742	0
218.96	-10.24
219.179	-67.58
219.397	45.06
219.615	38.91
219.833	47.1
220.051	-10.24
220.27	53.25
220.488	-8.19
220.706	-38.91
220.924	34.82
221.142	-61.44
221.36	24.58
221.578	-22.53
221.796	40.96
222.015	-67.58
222.233	-14.34
222.451	22.53
222.669	-4.1
222.887	63.49
223.105	8.19
223.323	-18.43
223.541	-18.43
223.759	-12.29
223.977	0
224.195	61.44
224.413	-6.14
224.631	-18.43
224.849	26.62
225.067	79.87
225.285	-16.38
225.503	10.24
225.721	14.34
225.939	-38.91
226.157	-2.05
226.375	77.82
226.592	-22.53
226.81	69.63
227.028	-12.29
227.246	51.2
227.464	12.29
227.682	-10.24
227.9	79.87
228.117	-102.4
228.335	24.58
228.553	67.58
228.771	-65.53
228.989	47.1
229.206	-10.24
229.424	-8.19
229.642	-36.86
229.86	-32.77
230.077	-8.19
230.295	-16.38
230.513	22.53
230.731	-2.05
230.948	-20.48
231.166	-28.67
231.384	-22.53
231.601	10.24
231.819	20.48
232.037	-57.34
232.254	-26.62
232.472	-8.19
232.689	43.01
232.907	-6.14
233.125	-77.82
233.342	28.67
233.56	14.34
233.777	-4.1
233.995	30.72
234.213	2.05
234.43	4.1
234.648	26.62
234.865	-43.01
235.083	26.62
235.3	-12.29
235.518	-26.62
235.735	47.1
235.953	47.1
236.17	-12.29
236.388	-4.1
236.605	-32.77
236.822	-49.15
237.04	-6.14
237.257	38.91
237.475	47.1
237.692	86.01
237.909	71.68
238.127	-34.82
238.344	40.96
238.562	26.62
238.779	-10.24
238.996	30.72
239.214	2.05
239.431	67.58
239.648	-61.44
239.865	22.53
240.083	20.48
240.3	-24.58
240.517	-28.67
240.735	-10.24
240.952	-32.77
241.169	-14.34
241.386	-55.3
241.603	26.62
241.821	-36.86
242.038	-32.77
242.255	47.1
242.472	-18.43
242.689	-40.96
242.907	-10.24
243.124	-77.82
243.341	-34.82
243.558	-4.1
243.775	-4.1
243.992	-34.82
244.209	-18.43
244.426	-34.82
244.643	102.4
244.86	4.1
245.078	59.39
245.295	-22.53
245.512	73.73
245.729	16.38
245.946	-12.29
246.163	10.24
246.38	-53.25
246.597	4.1
246.814	-16.38
247.031	67.58
247.248	30.72
247.464	-10.24
247.681	-43.01
247.898	2.05
248.115	-75.77
248.332	-71.68
248.549	28.67
248.766	8.19
248.983	10.24
249.2	-45.06
249.417	-2.05
249.633	-100.35
249.85	-12.29
250.067	-47.1
250.284	26.62
250.501	-49.15
250.717	20.48
250.934	-92.16
251.151	24.58
251.368	-24.58
251.585	-4.1
251.801	-8.19
252.018	-14.34
252.235	-14.34
252.451	71.68
252.668	24.58
252.885	10.24
253.102	28.67
253.318	0
253.535	8.19
253.752	-16.38
253.968	-28.67
254.185	-22.53
254.401	38.91
254.618	6.14
254.835	-45.06
255.051	-8.19
255.268	40.96
255.484	12.29
255.701	-26.62
255.917	22.53
256.134	-47.1
256.351	2.05
256.567	-65.53
256.784	-14.34
257	20.48
257.217	12.29
257.433	6.14
257.65	-4.1
257.866	59.39
258.082	-92.16
258.299	47.1
258.515	-8.19
258.732	34.82
258.948	10.24
259.165	16.38
259.381	-53.25
259.597	-18.43
259.814	28.67
260.03	-36.86
260.246	4.1
260.463	55.3
260.679	-36.86
260.895	18.43
261.112	34.82
261.328	-51.2
261.544	20.48
261.761	81.92
261.977	-20.48
262.193	-12.29
262.409	-38.91
262.626	20.48
262.842	10.24
263.058	-77.82
263.274	34.82
263.49	4.1
263.707	61.44
263.923	-77.82
264.139	-4.1
264.355	8.19
264.571	20.48
264.787	-2.05
265.004	53.25
265.22	4.1
265.436	-8.19
265.652	22.53
265.868	20.48
266.084	-10.24
266.3	65.54
266.516	16.38
266.732	-20.48
266.948	63.49
267.164	-14.34
267.38	-63.49
267.596	12.29
267.812	-30.72
268.028	12.29
268.244	10.24
268.46	28.67
268.676	53.25
268.892	40.96
269.108	-16.38
269.324	36.86
269.54	-18.43
269.756	-28.67
269.972	-55.3
270.188	51.2
270.403	-57.34
270.619	-22.53
270.835	20.48
271.051	-4.1
271.267	-65.53
271.483	-63.49
271.698	-36.86
271.914	43.01
272.13	69.63
272.346	71.68
272.562	-8.19
272.777	-18.43
272.993	-32.77
273.209	38.91
273.425	6.14
273.64	-55.3
273.856	32.77
274.072	4.1
274.287	-8.19
274.503	-18.43
274.719	-2.05
274.934	-2.05
275.15	-67.58
275.366	40.96
275.581	8.19
275.797	26.62
276.012	22.53
276.228	4.1
276.444	43.01
276.659	-12.29
276.875	43.01
277.09	-22.53
277.306	43.01
277.521	45.06
277.737	26.62
277.952	65.54
278.168	-4.1
278.383	102.4
278.599	-14.34
278.814	28.67
279.03	45.06
279.245	47.1
279.461	-88.06
279.676	36.86
279.892	-10.24
280.107	-57.34
280.322	-71.68
280.538	40.96
280.753	-12.29
280.969	26.62
281.184	-59.39
281.399	-18.43
281.615	22.53
281.83	40.96
282.045	-65.53
282.26	26.62
282.476	14.34
282.691	18.43
282.906	-6.14
283.122	10.24
283.337	-20.48
283.552	122.88
283.767	12.29
283.983	90.11
284.198	-28.67
284.413	6.14
284.628	26.62
284.843	-8.19
285.058	10.24
285.274	-10.24
285.489	4.1
285.704	-22.53
285.919	-8.19
286.134	-4.1
286.349	12.29
286.564	-26.62
286.779	36.86
286.995	-12.29
287.21	-2.05
287.425	-2.05
287.64	51.2
287.855	34.82
288.07	6.14
288.285	-47.1
288.5	77.82
288.715	83.97
288.93	14.34
289.145	-51.2
289.36	30.72
289.575	-12.29
289.79	55.3
290.004	22.53
290.219	-30.72
290.434	-18.43
290.649	2.05
290.864	51.2
291.079	45.06
291.294	38.91
291.509	2.05
291.724	61.44
291.938	-10.24
292.153	38.91
292.368	-20.48
292.583	14.34
292.798	-6.14
293.012	-6.14
293.227	83.97
293.442	-34.82
293.657	18.43
293.871	22.53
294.086	-10.24
294.301	43.01
294.516	14.34
294.73	43.01
294.945	-18.43
295.16	63.49
295.374	4.1
295.589	63.49
295.804	-2.05
296.018	-6.14
296.233	24.58
296.447	53.25
296.662	-40.96
296.877	79.87
297.091	45.06
297.306	-18.43
297.52	18.43
297.735	-12.29
297.949	24.58
298.164	8.19
298.378	-18.43
298.593	-10.24
298.807	-6.14
299.022	4.1
299.236	51.2
299.451	57.34
299.665	77.82
299.88	-4.1
300.094	59.39
300.309	10.24
300.523	86.01
300.737	-26.62
300.952	-26.62
301.166	92.16
301.381	-2.05
301.595	-22.53
301.809	81.92
302.024	14.34
302.238	-2.05
302.452	81.92
302.667	-6.14
302.881	18.43
303.095	65.54
303.309	24.58
303.524	-10.24
303.738	-16.38
303.952	-45.06
304.166	2.05
304.381	-22.53
304.595	34.82
304.809	10.24
305.023	-49.15
305.237	79.87
305.452	40.96
305.666	-34.82
305.88	6.14
306.094	18.43
306.308	55.3
306.522	53.25
306.736	2.05
306.95	10.24
307.164	22.53
307.379	6.14
307.593	45.06
307.807	116.73
308.021	0
308.235	10.24
308.449	-12.29
308.663	14.34
308.877	38.91
309.091	2.05
309.305	-2.05
309.519	-30.72
309.733	75.77
309.947	-59.39
310.161	28.67
310.374	102.4
310.588	-6.14
310.802	-110.59
311.016	-20.48
311.23	6.14
311.444	34.82
311.658	-61.44
311.872	38.91
312.085	-10.24
312.299	8.19
312.513	-14.34
312.727	75.77
312.941	20.48
313.154	-34.82
313.368	16.38
313.582	-24.58
313.796	-49.15
314.009	0
314.223	55.3
314.437	6.14
314.651	96.25
314.864	20.48
315.078	-20.48
315.292	-36.86
315.505	-30.72
315.719	-53.25
315.933	63.49
316.146	53.25
316.36	-20.48
316.573	83.97
316.787	-49.15
317.001	-20.48
317.214	-43.01
317.428	-6.14
317.641	-69.63
317.855	14.34
318.068	4.1
318.282	55.3
318.495	83.97
318.709	75.77
318.922	-53.25
319.136	20.48
319.349	22.53
319.563	2.05
319.776	-18.43
319.99	57.34
320.203	22.53
320.417	-51.2
320.63	96.25
320.843	20.48
321.057	90.11
321.27	24.58
321.483	24.58
321.697	32.77
321.91	61.44
322.124	6.14
322.337	-36.86
322.55	-10.24
322.763	69.63
322.977	-10.24
323.19	-73.73
323.403	8.19
323.617	18.43
323.83	-20.48
324.043	-30.72
324.256	20.48
324.469	-4.1
324.683	24.58
324.896	-38.91
325.109	14.34
325.322	-12.29
325.535	47.1
325.748	10.24
325.962	8.19
326.175	-28.67
326.388	32.77
326.601	34.82
326.814	-26.62
327.027	34.82
327.24	98.3
327.453	-10.24
327.666	49.15
327.879	14.34
328.092	92.16
328.305	30.72
328.518	51.2
328.731	43.01
328.944	36.86
329.157	67.58
329.37	-47.1
329.583	-55.3
329.796	114.69
330.009	-8.19
330.222	30.72
330.435	-38.91
330.648	-16.38
330.861	2.05
331.073	24.58
331.286	6.14
331.499	57.34
331.712	-24.58
331.925	-79.87
332.138	14.34
332.35	4.1
332.563	51.2
332.776	61.44
332.989	-47.1
333.202	-6.14
333.414	0
333.627	-10.24
333.84	-8.19
334.053	12.29
334.265	67.58
334.478	14.34
334.691	28.67
334.903	24.58
335.116	-2.05
335.329	30.72
335.541	-38.91
335.754	73.73
335.966	63.49
336.179	34.82
336.392	4.1
336.604	16.38
336.817	34.82
337.029	20.48
337.242	34.82
337.454	-32.77
337.667	10.24
337.88	98.3
338.092	-22.53
338.305	-30.72
338.517	26.62
338.729	36.86
338.942	96.25
339.154	-24.58
339.367	-8.19
339.579	18.43
339.792	69.63
340.004	-14.34
340.217	-59.39
340.429	57.34
340.641	-10.24
340.854	55.3
341.066	49.15
341.278	-18.43
341.491	-12.29
341.703	-32.77
341.915	26.62
342.128	-18.43
342.34	36.86
342.552	-49.15
342.764	-4.1
342.977	18.43
343.189	-14.34
343.401	49.15
343.613	45.06
343.826	53.25
344.038	71.68
344.25	14.34
344.462	-86.01
344.674	51.2
344.886	-43.01
345.099	57.34
345.311	34.82
345.523	18.43
345.735	16.38
345.947	-22.53
346.159	-22.53
346.371	-24.58
346.583	47.1
346.795	120.83
347.007	26.62
347.219	-14.34
347.431	-4.1
347.643	28.67
347.855	45.06
348.067	71.68
348.279	-14.34
348.491	26.62
348.703	100.35
348.915	-55.3
349.127	-30.72
349.339	-26.62
349.551	-16.38
349.763	67.58
349.975	-18.43
350.187	43.01
350.399	49.15
350.61	40.96
350.822	2.05
351.034	0
351.246	104.45
351.458	6.14
351.669	22.53
351.881	45.06
352.093	0
352.305	53.25
352.517	4.1
352.728	38.91
352.94	12.29
353.152	51.2
353.363	36.86
353.575	-40.96
353.787	36.86
353.999	124.93
354.21	79.87
354.422	-4.1
354.633	2.05
354.845	34.82
355.057	53.25
355.268	96.25
355.48	18.43
355.692	32.77
355.903	28.67
356.115	10.24
356.326	10.24
356.538	-24.58
356.749	24.58
356.961	-63.49
357.172	43.01
357.384	30.72
357.595	26.62
357.807	32.77
358.018	38.91
358.23	-6.14
358.441	63.49
358.653	83.97
358.864	-12.29
359.075	40.96
359.287	38.91
359.498	0
359.709	55.3
359.921	90.11
360.132	43.01
360.344	30.72
360.555	-14.34
360.766	34.82
360.977	67.58
361.189	90.11
361.4	12.29
361.611	0
361.823	86.01
362.034	86.01
362.245	-63.49
362.456	18.43
362.667	-22.53
362.879	10.24
363.09	38.91
363.301	26.62
363.512	6.14
363.723	-2.05
363.935	-16.38
364.146	51.2
364.357	-6.14
364.568	2.05
364.779	-26.62
364.99	104.45
365.201	-2.05
365.412	88.06
365.623	32.77
365.834	69.63
366.045	69.63
366.256	79.87
366.467	14.34
366.678	16.38
366.889	-20.48
367.1	106.49
367.311	-4.1
367.522	73.73
367.733	43.01
367.944	49.15
368.155	10.24
368.366	-24.58
368.577	32.77
368.788	100.35
368.999	32.77
369.209	43.01
369.42	6.14
369.631	24.58
369.842	28.67
370.053	-24.58
370.264	22.53
370.474	-43.01
370.685	22.53
370.896	-6.14
371.107	47.1
371.317	2.05
371.528	51.2
371.739	65.54
371.95	2.05
372.16	-34.82
372.371	112.64
372.582	18.43
372.792	-18.43
373.003	59.39
373.214	47.1
373.424	24.58
373.635	32.77
373.846	47.1
374.056	38.91
374.267	6.14
374.477	20.48
374.688	67.58
374.898	-18.43
375.109	-28.67
375.319	-32.77
375.53	122.88
375.74	12.29
375.951	-38.91
376.161	-40.96
376.372	67.58
376.582	4.1
376.793	36.86
377.003	-12.29
377.214	18.43
377.424	10.24
377.635	10.24
377.845	22.53
378.055	32.77
378.266	47.1
378.476	75.77
378.686	-4.1
378.897	30.72
379.107	-6.14
379.317	12.29
379.528	-28.67
379.738	120.83
379.948	-2.05
380.158	116.73
380.369	2.05
380.579	36.86
380.789	63.49
380.999	6.14
381.21	-47.1
381.42	4.1
381.63	51.2
381.84	6.14
382.05	59.39
382.261	53.25
382.471	8.19
382.681	14.34
382.891	59.39
383.101	57.34
383.311	20.48
383.521	-6.14
383.731	-2.05
383.941	47.1
384.151	65.54
384.361	16.38
384.571	-38.91
384.781	14.34
384.991	92.16
385.201	71.68
385.411	18.43
385.621	-30.72
385.831	28.67
386.041	45.06
386.251	-12.29
386.461	90.11
386.671	20.48
386.881	45.06
387.091	38.91
387.301	104.45
387.511	-26.62
387.72	108.54
387.93	34.82
388.14	10.24
388.35	24.58
388.56	45.06
388.769	30.72
388.979	24.58
389.189	77.82
389.399	69.63
389.609	12.29
389.818	0
390.028	-38.91
390.238	102.4
390.447	12.29
390.657	90.11
390.867	2.05
391.076	51.2
391.286	36.86
391.496	-22.53
391.705	-18.43
391.915	30.72
392.125	51.2
392.334	32.77
392.544	16.38
392.753	14.34
392.963	36.86
393.172	51.2
393.382	24.58
393.591	83.97
393.801	67.58
394.01	28.67
394.22	65.54
394.429	47.1
394.639	38.91
394.848	65.54
395.058	75.77
395.267	92.16
395.477	69.63
395.686	116.73
395.895	69.63
396.105	53.25
396.314	30.72
396.524	51.2
396.733	51.2
396.942	20.48
397.152	26.62
397.361	155.65
397.57	133.12
397.78	10.24
397.989	86.01
398.198	86.01
398.407	8.19
398.617	65.54
398.826	79.87
399.035	71.68
399.244	73.73
399.453	47.1
399.663	38.91
399.872	51.2
400.081	83.97
400.29	88.06
400.499	16.38
400.708	116.73
400.917	47.1
401.127	116.73
401.336	30.72
401.545	163.84
401.754	129.02
401.963	141.31
402.172	73.73
402.381	120.83
402.59	112.64
402.799	4.1
403.008	227.32
403.217	165.89
403.426	163.84
403.635	75.77
403.844	83.97
404.053	167.93
404.262	67.58
404.471	141.31
404.68	110.59
404.888	118.78
405.097	149.5
405.306	137.21
405.515	120.83
405.724	122.88
405.933	139.26
406.142	155.65
406.35	157.69
406.559	126.97
406.768	120.83
406.977	141.31
407.185	124.93
407.394	178.17
407.603	167.93
407.812	227.32
408.02	190.46
408.229	172.03
408.438	198.65
408.646	139.26
408.855	239.61
409.064	198.65
409.272	196.61
409.481	180.22
409.69	276.48
409.898	192.51
410.107	186.37
410.315	260.09
410.524	276.48
410.733	266.24
410.941	290.81
411.15	227.32
411.358	303.1
411.567	301.05
411.775	346.11
411.984	315.39
412.192	258.04
412.401	315.39
412.609	432.12
412.818	378.87
413.026	483.32
413.234	511.99
413.443	372.73
413.651	350.2
413.86	555
414.068	483.32
414.276	528.38
414.485	493.56
414.693	526.33
414.901	622.58
415.11	546.81
415.318	557.05
415.526	600.05
415.734	604.15
415.943	620.53
416.151	696.31
416.359	724.98
416.567	700.41
416.776	757.75
416.984	829.43
417.192	774.13
417.4	909.3
417.608	847.86
417.817	854
418.025	851.96
418.233	954.35
418.441	909.3
418.649	913.39
418.857	1101.81
419.065	1114.1
419.273	1155.05
419.481	1052.66
419.689	1230.83
419.897	1273.84
420.105	1343.47
420.313	1341.42
420.521	1423.34
420.729	1400.81
420.937	1398.76
421.145	1417.19
421.353	1540.07
421.561	1693.67
421.769	1740.77
421.977	1705.96
422.185	1685.48
422.393	1773.54
422.601	1931.23
422.809	1867.75
423.017	1947.62
423.224	1974.24
423.432	2086.88
423.64	2140.13
423.848	2222.05
424.056	2299.87
424.263	2435.03
424.471	2318.3
424.679	2562.01
424.887	2486.23
425.094	2697.17
425.302	2701.27
425.51	2881.49
425.718	2811.86
425.925	2877.4
426.133	3051.47
426.341	3241.93
426.548	3301.33
426.756	3336.14
426.964	3416.01
427.171	3573.71
427.379	3618.76
427.586	3676.1
427.794	3819.46
428.001	4016.07
428.209	4153.28
428.417	4165.57
428.624	4374.46
428.832	4446.14
429.039	4448.19
429.247	4450.24
429.454	4861.88
429.662	5191.6
429.869	4777.91
430.076	5167.03
430.284	5103.54
430.491	5257.14
430.699	5619.63
430.906	5502.89
431.114	5605.29
431.321	5681.07
431.528	5777.32
431.736	6387.61
431.943	6627.23
432.15	6502.3
432.358	6453.15
432.565	6758.3
432.772	6731.67
432.979	7169.94
433.187	7133.08
433.394	7409.55
433.601	7667.59
433.808	7681.93
434.016	7649.16
434.223	7907.21
434.43	8609.66
434.637	8347.52
434.844	8863.61
435.052	9217.91
435.259	8933.24
435.466	9090.93
435.673	8830.84
435.88	9566.06
436.087	10073.96
436.294	10178.4
436.501	9908.07
436.708	10114.92
436.915	10475.36
437.122	10893.15
437.329	10897.24
437.537	11089.75
437.743	11261.78
437.95	11319.12
438.157	11966.28
438.364	12394.31
438.571	12154.69
438.778	12408.64
438.985	13487.92
439.192	13084.47
439.399	13293.37
439.606	13002.55
439.813	13559.6
440.02	14534.43
440.227	14303.01
440.433	14163.75
440.64	14772
440.847	14696.22
441.054	14753.57
441.261	15902.48
441.467	15560.47
441.674	15910.67
441.881	16531.2
442.088	16633.6
442.294	16287.5
442.501	16756.48
442.708	17110.78
442.914	17706.74
443.121	18480.87
443.328	18261.74
443.534	19668.69
443.741	18765.54
443.948	18628.32
444.154	19885.78
444.361	19701.46
444.568	19773.14
444.774	20053.71
444.981	20262.6
445.187	21040.83
445.394	21526.2
445.6	21219
445.807	23332.51
446.013	22154.93
446.22	22857.38
446.426	23477.91
446.633	24014.48
446.839	24305.29
447.046	23402.14
447.252	25085.57
447.459	24927.88
447.665	24948.36
447.871	25804.41
448.078	27113.06
448.284	25785.97
448.491	26482.28
448.697	27457.12
448.903	27881.05
449.11	27846.23
449.316	27399.77
449.522	27852.38
449.728	28597.84
449.935	29261.38
450.141	29048.39
450.347	30006.84
450.553	28630.6
450.76	28769.86
450.966	29632.06
451.172	29238.85
451.378	30178.87
451.584	29251.14
451.791	30492.21
451.997	30260.79
452.203	30879.27
452.409	30762.54
452.615	30758.44
452.821	29400.64
453.027	29144.64
453.233	30817.83
453.44	29517.37
453.646	29548.09
453.852	29773.37
454.058	30328.37
454.264	29351.49
454.47	29982.26
454.676	29457.98
454.882	30344.75
455.088	27856.47
455.294	27965.01
455.5	28601.93
455.705	28868.17
455.911	27336.29
456.117	27080.29
456.323	26703.46
456.529	25042.56
456.735	26449.52
456.941	25714.3
457.147	25429.63
457.352	24714.89
457.558	23930.51
457.764	24299.15
457.97	23686.81
458.176	23277.21
458.381	23475.87
458.587	22066.86
458.793	22210.22
458.999	21108.41
459.204	22511.27
459.41	21941.94
459.616	20682.44
459.821	20336.33
460.027	20420.3
460.233	19912.4
460.438	18999.01
460.644	18833.12
460.85	18257.64
461.055	18048.75
461.261	17909.49
461.466	16830.21
461.672	15980.3
461.878	17735.41
462.083	16199.43
462.289	15830.8
462.494	15838.99
462.7	15021.85
462.905	14501.67
463.111	15269.65
463.316	15079.19
463.522	14921.5
463.727	14898.97
463.932	14815.01
464.138	14638.88
464.343	14792.48
464.549	14477.09
464.754	14880.54
464.959	14862.11
465.165	14892.83
465.37	13967.15
465.575	13463.35
465.781	14468.9
465.986	14251.81
466.191	13717.29
466.397	13502.26
466.602	12775.23
466.807	13190.97
467.012	13287.22
467.218	13309.75
467.423	13102.9
467.628	13330.23
467.833	13584.18
468.038	13197.11
468.244	12980.03
468.449	13330.23
468.654	12805.95
468.859	12832.57
469.064	12803.9
469.269	12343.11
469.474	12388.16
469.679	12511.04
469.885	12351.3
470.09	12302.15
470.295	12193.61
470.5	11927.37
470.705	12054.34
470.91	11771.72
471.115	11681.61
471.32	11837.26
471.525	11824.97
471.73	11468.62
471.935	11378.51
472.139	10983.26
472.344	11302.74
472.549	11040.6
472.754	10671.97
472.959	10680.16
473.164	10436.45
473.369	10346.34
473.574	10676.06
473.778	10655.58
473.983	10526.56
474.188	10471.26
474.393	10033
474.598	10073.96
474.802	10098.53
475.007	9848.68
475.212	9987.94
475.417	9715.56
475.621	9598.83
475.826	9553.77
476.031	9414.51
476.235	9361.27
476.44	9410.42
476.645	9140.08
476.849	9207.67
477.054	9031.54
477.259	8923
477.463	9031.54
477.668	8793.98
477.872	8841.08
478.077	8744.83
478.282	8423.3
478.486	8441.73
478.691	8142.72
478.895	8454.01
479.1	8241.03
479.304	8144.77
479.509	8095.62
479.713	8331.14
479.918	8040.33
480.122	7892.87
480.326	8054.66
480.531	7982.98
480.735	7978.89
480.94	7792.52
481.144	8040.33
481.348	7935.88
481.553	7927.69
481.757	7704.46
481.961	7954.31
482.166	8034.18
482.37	7929.74
482.574	7679.88
482.778	7559.05
482.983	7786.38
483.187	7729.03
483.391	7702.41
483.595	7702.41
483.8	7647.12
484.004	7829.38
484.208	7786.38
484.412	7733.13
484.616	7694.22
484.821	7704.46
485.025	7628.68
485.229	7786.38
485.433	7587.72
485.637	7450.51
485.841	7618.44
486.045	7663.5
486.249	7858.06
486.453	7679.88
486.657	7700.36
486.861	7905.16
487.065	7561.1
487.269	7634.83
487.473	7432.08
487.677	7612.3
487.881	7757.71
488.085	7726.99
488.289	7561.1
488.493	7624.59
488.697	7823.24
488.901	7774.09
489.105	7696.27
489.309	7616.4
489.512	7860.1
489.716	7794.57
489.92	7815.05
490.124	7716.75
490.328	7896.97
490.531	7982.98
490.735	7786.38
490.939	7933.83
491.143	7913.35
491.346	7956.36
491.55	7999.37
491.754	8064.9
491.958	7911.3
492.161	8105.86
492.365	8200.07
492.569	8048.52
492.772	7909.26
492.976	8128.39
493.18	8183.68
493.383	8210.31
493.587	8191.88
493.79	8531.84
493.994	8425.34
494.197	8521.6
494.401	8609.66
494.605	8284.03
494.808	8718.2
495.012	8576.89
495.215	8767.35
495.419	8847.23
495.622	8765.31
495.825	9052.02
496.029	8916.86
496.232	8998.77
496.436	9009.01
496.639	9314.16
496.843	9111.41
497.046	9246.58
497.249	9484.14
497.453	9420.66
497.656	9656.17
497.859	9752.43
498.063	9826.15
498.266	10006.38
498.469	9967.46
498.673	9959.27
498.876	10061.67
499.079	10381.15
499.282	10348.39
499.485	10663.77
499.689	10510.18
499.892	10692.44
500.095	10506.08
500.298	10950.49
500.501	11069.27
500.705	11325.27
500.908	11333.46
501.111	11310.93
501.314	11394.9
501.517	11573.07
501.72	11669.33
501.923	11638.61
502.126	12152.65
502.329	12228.42
502.532	12296
502.735	12433.22
502.938	12709.69
503.141	12545.86
503.344	12904.25
503.547	12760.89
503.75	13115.19
503.953	13365.04
504.156	13115.19
504.359	13324.08
504.562	13408.05
504.765	13872.94
504.968	13715.25
505.17	14247.72
505.373	14171.94
505.576	14477.09
505.779	14544.67
505.982	14610.21
506.185	14792.48
506.387	14800.67
506.59	14939.93
506.793	15191.83
506.996	15517.46
507.198	15621.91
507.401	15376.15
507.604	15826.7
507.807	16391.94
508.009	16205.58
508.212	16264.97
508.415	16391.94
508.617	16475.91
508.82	17084.16
509.022	16707.33
509.225	17407.73
509.428	17315.58
509.63	17512.18
509.833	17358.58
510.035	17985.26
510.238	17809.14
510.44	18063.08
510.643	18456.29
510.845	18403.05
511.048	18605.8
511.25	18826.98
511.453	18611.94
511.655	19578.58
511.858	19257.05
512.06	19336.92
512.262	19627.73
512.465	19502.81
512.667	20147.92
512.87	20514.5
513.072	20219.6
513.274	20907.71
513.477	20786.88
513.679	21159.61
513.881	21268.16
514.084	21309.11
514.286	21397.18
514.488	21438.14
514.69	22245.04
514.893	22079.15
515.095	21974.7
515.297	22326.96
515.499	22453.93
515.701	22871.72
515.904	22867.62
516.106	23025.31
516.308	23299.74
516.51	23326.36
516.712	23658.13
516.914	23918.23
517.116	24446.6
517.318	24338.06
517.52	24227.47
517.722	24399.5
517.925	25001.6
518.127	25257.6
518.329	25476.73
518.531	25349.76
518.733	25835.13
518.935	25986.68
519.136	25982.58
519.338	26449.52
519.54	26576.49
519.742	27057.76
519.944	26861.16
520.146	27223.65
520.348	27549.28
520.55	27588.19
520.752	27692.63
520.954	28290.64
521.155	27838.04
521.357	28653.13
521.559	28216.91
521.761	28931.65
521.963	28816.97
522.164	29183.55
522.366	28989
522.568	29636.16
522.77	29591.1
522.971	29916.73
523.173	30295.6
523.375	30246.45
523.576	30428.72
523.778	30410.29
523.98	30664.24
524.181	30858.79
524.383	30852.65
524.584	31303.2
524.786	31327.78
524.988	31260.19
525.189	31632.93
525.391	31655.45
525.592	32321.04
525.794	32108.05
525.995	32525.84
526.197	32153.11
526.398	32540.18
526.6	32405.01
526.801	32210.45
527.003	32884.23
527.204	32710.16
527.406	33033.74
527.607	33193.48
527.808	33611.26
528.01	32611.85
528.211	33392.13
528.412	33758.72
528.614	33607.17
528.815	33852.92
529.016	34262.52
529.218	33478.15
529.419	33957.37
529.62	34012.67
529.822	34094.58
530.023	33867.26
530.224	34168.31
530.425	33973.75
530.626	33691.13
530.828	34035.19
531.029	34762.22
531.23	34254.33
531.431	34356.72
531.632	34747.89
531.833	34799.08
532.035	35059.18
532.236	34434.55
532.437	34747.89
532.638	34729.45
532.839	35026.41
533.04	35093.99
533.241	34649.58
533.442	35003.88
533.643	35069.42
533.844	34921.96
534.045	34936.3
534.246	34733.55
534.447	35249.64
534.648	35134.95
534.849	35196.39
535.05	34731.5
535.251	35286.5
535.451	35053.03
535.652	35212.77
535.853	34758.13
536.054	35190.25
536.255	35200.49
536.456	34944.49
536.657	35427.81
536.857	34870.76
537.058	34872.81
537.259	35567.07
537.46	35470.82
537.66	35241.45
537.861	34905.58
538.062	35266.02
538.263	35057.13
538.463	34856.43
538.664	34874.86
538.865	35159.53
539.065	35601.89
539.266	34723.31
539.466	35431.91
539.667	34498.03
539.868	35194.34
540.068	34913.77
540.269	34786.8
540.469	35089.9
540.67	35118.57
540.87	35079.66
541.071	35118.57
541.271	35210.73
541.472	35161.58
541.672	35216.87
541.873	34780.65
542.073	34731.5
542.274	35421.67
542.474	34999.79
542.675	34528.75
542.875	35167.72
543.075	34987.5
543.276	34702.83
543.476	34887.15
543.676	34622.96
543.877	34602.48
544.077	34823.66
544.277	34987.5
544.478	34645.49
544.678	35153.38
544.878	34901.48
545.078	34897.39
545.279	34627.06
545.479	34924.01
545.679	35108.33
545.879	35020.27
546.079	34872.81
546.28	34717.17
546.48	34743.79
546.68	34751.98
546.88	34672.11
547.08	34983.4
547.28	34665.97
547.48	34471.41
547.68	34786.8
547.88	34706.93
548.081	34682.35
548.281	34520.56
548.481	34895.34
548.681	34782.7
548.881	34561.52
549.081	34522.61
549.28	34348.53
549.48	34921.96
549.68	34278.9
549.88	34704.88
550.08	34594.29
550.28	34448.88
550.48	34225.65
550.68	34764.27
550.88	34639.34
551.08	34532.85
551.279	34358.77
551.479	34571.76
551.679	34541.04
551.879	34553.33
552.079	34530.8
552.278	34162.17
552.478	34403.83
552.678	34430.45
552.878	34543.09
553.077	34178.55
553.277	33981.95
553.477	34495.99
553.676	34194.93
553.876	34348.53
554.076	34270.71
554.275	34033.14
554.475	33820.16
554.674	34072.06
554.874	34217.46
555.074	33828.35
555.273	33990.14
555.473	34532.85
555.672	33936.89
555.872	34186.74
556.071	34088.44
556.271	34012.67
556.47	34045.43
556.67	33818.11
556.869	33365.51
557.068	33740.29
557.268	33265.16
557.467	33340.93
557.667	33525.25
557.866	33912.31
558.065	33705.47
558.265	33381.89
558.464	33310.21
558.663	33682.94
558.863	33156.61
559.062	33668.61
559.261	33160.71
559.461	33437.19
559.66	33050.12
559.859	33113.61
560.058	32699.92
560.258	33066.5
560.457	32849.42
560.656	32988.68
560.855	32787.98
561.054	33105.41
561.253	32663.05
561.453	32708.11
561.652	32855.56
561.851	32650.77
562.05	32648.72
562.249	32339.47
562.448	32951.82
562.647	32497.17
562.846	32210.45
563.045	32613.9
563.244	32063
563.443	32603.66
563.642	32149.01
563.841	32024.09
564.04	32032.28
564.239	31876.63
564.438	31936.02
564.637	31561.25
564.836	32034.33
565.035	31471.14
565.234	31776.28
565.432	31415.84
565.631	31508
565.83	31628.83
566.029	31464.99
566.228	31280.67
566.427	31462.94
566.625	31086.12
566.824	30662.19
567.023	31344.16
567.222	30772.78
567.42	31411.74
567.619	30793.26
567.818	30811.69
568.016	30531.12
568.215	30701.1
568.414	30395.95
568.612	30733.87
568.811	30189.11
569.01	30410.29
569.208	29929.02
569.407	30729.77
569.605	29863.48
569.804	30418.48
570.002	29849.14
570.201	30062.13
570.4	29984.31
570.598	29716.03
570.797	29687.35
570.995	29998.65
571.193	29460.03
571.392	29713.98
571.59	29097.54
571.789	29525.57
571.987	29605.44
572.186	29201.99
572.384	29058.63
572.582	29369.92
572.781	29247.04
572.979	28810.82
573.177	28886.6
573.376	29046.34
573.574	28636.75
573.772	28933.7
573.971	28653.13
574.169	28544.59
574.367	28483.15
574.565	28716.62
574.763	28341.84
574.962	28208.72
575.16	27661.91
575.358	28079.7
575.556	27850.33
575.754	28261.97
575.952	27962.97
576.151	27811.42
576.349	27332.19
576.547	27754.07
576.745	27555.42
576.943	27588.19
577.141	27287.14
577.339	27522.65
577.537	27139.68
577.735	27147.87
577.933	26891.88
578.131	27088.48
578.329	27192.93
578.527	26592.87
578.725	26975.84
578.923	27250.27
579.121	26603.11
579.319	26556.01
579.516	26973.8
579.714	26517.1
579.912	26570.35
580.11	26287.73
580.308	26406.51
580.506	26347.12
580.704	25923.19
580.901	26244.72
581.099	26445.42
581.297	25964.15
581.495	26003.06
581.692	26361.45
581.89	25978.48
582.088	25806.45
582.285	25468.54
582.483	25824.89
582.681	26148.47
582.878	25702.01
583.076	25157.25
583.274	25255.55
583.471	25304.7
583.669	25419.39
583.866	25181.82
584.064	25388.67
584.262	24708.74
584.459	24891.01
584.657	24813.19
584.854	24923.78
585.052	24716.93
585.249	24917.64
585.447	24784.52
585.644	24491.66
585.841	24864.39
586.039	24559.24
586.236	24413.84
586.434	24366.73
586.631	24376.97
586.828	24172.18
587.026	24104.59
587.223	24260.24
587.42	23955.09
587.618	24145.55
587.815	24102.54
588.012	23985.81
588.21	23477.91
588.407	23711.38
588.604	23238.3
588.801	23623.32
588.999	23492.25
589.196	23285.4
589.393	23525.02
589.59	23287.45
589.787	23260.83
589.984	23264.92
590.182	23183.01
590.379	23236.25
590.576	22947.49
590.773	22699.69
590.97	22865.57
591.167	22613.67
591.364	22476.46
591.561	22634.15
591.758	22552.23
591.955	22595.24
592.152	22648.49
592.349	22271.66
592.546	22378.15
592.743	22222.51
592.94	21909.17
593.137	22363.82
593.334	22085.29
593.531	21716.66
593.727	21839.54
593.924	22062.77
594.121	21501.62
594.318	21872.31
594.515	21583.54
594.712	21739.19
594.908	21380.79
595.105	21661.37
595.302	21421.75
595.499	21499.58
595.696	21378.75
595.892	21098.17
596.089	21259.96
596.286	21270.2
596.482	21079.74
596.679	20889.28
596.876	21317.31
597.072	21030.59
597.269	20844.23
597.466	20793.03
597.662	20639.43
597.859	20979.39
598.055	20694.72
598.252	20395.72
598.448	20367.05
598.645	20330.19
598.841	20084.43
599.038	20541.13
599.234	20225.74
599.431	19951.31
599.627	19963.6
599.824	20072.14
600.02	19699.41
600.217	19945.17
600.413	19719.89
600.609	19719.89
600.806	19687.12
601.002	19873.49
601.198	19515.09
601.395	19496.66
601.591	19392.22
601.787	19445.46
601.984	19525.33
602.18	19549.91
602.376	19265.24
602.572	18984.67
602.769	19179.23
602.965	18896.61
603.161	19285.72
603.357	19107.55
603.553	19074.78
603.75	18939.61
603.946	18747.11
604.142	18861.79
604.338	18530.02
604.534	18437.86
604.73	18595.56
604.926	18329.32
605.122	18407.14
605.318	18484.97
605.514	18362.09
605.71	18257.64
605.906	18208.49
606.102	18407.14
606.298	18206.44
606.494	18194.15
606.69	18022.12
606.886	18126.57
607.082	17796.85
607.278	18075.37
607.474	17706.74
607.67	17809.14
607.866	17481.46
608.062	17739.51
608.257	17610.48
608.453	17860.34
608.649	17798.9
608.845	17667.83
609.041	17680.11
609.236	17794.8
609.432	17348.34
609.628	17413.88
609.824	17381.11
610.019	17260.28
610.215	17590
610.411	17348.34
610.606	17422.07
610.802	17223.42
610.998	17088.25
611.193	17323.77
611.389	17110.78
611.584	17092.35
611.78	17229.56
611.976	16981.76
612.171	17022.72
612.367	17053.44
612.562	16887.55
612.758	16750.34
612.953	16649.99
613.149	16860.93
613.344	16826.11
613.539	16828.16
613.735	16426.76
613.93	16676.61
614.126	16523.01
614.321	16897.79
614.517	16668.42
614.712	16750.34
614.907	16561.92
615.103	16660.23
615.298	16432.9
615.493	16561.92
615.688	16260.87
615.884	16766.72
616.079	16350.98
616.274	16410.37
616.47	16410.37
616.665	16369.41
616.86	16002.83
617.055	16017.16
617.25	15949.58
617.445	16166.67
617.641	16072.46
617.836	16258.82
618.031	15718.16
618.226	16203.53
618.421	15697.68
618.616	15800.08
618.811	15621.91
619.006	15920.91
619.201	15720.21
619.396	15912.72
619.591	15308.57
619.786	15703.82
619.981	15329.05
620.176	15429.4
620.371	15116.06
620.566	15464.21
620.761	15206.17
620.956	15185.69
621.151	15083.29
621.346	15367.96
621.541	14872.35
621.735	15017.75
621.93	14489.38
622.125	14868.25
622.32	14493.47
622.515	14669.6
622.709	14419.75
622.904	14436.13
623.099	14294.82
623.294	14358.31
623.488	14255.91
623.683	14389.03
623.878	14047.02
624.072	14149.42
624.267	13748.01
624.462	13991.72
624.656	13649.71
624.851	13809.45
625.046	13688.62
625.24	13485.87
625.435	13487.92
625.629	13434.67
625.824	13168.44
626.018	13408.05
626.213	12873.53
626.407	12951.35
626.602	13014.84
626.796	13377.33
626.991	13074.23
627.185	13143.86
627.38	12717.89
627.574	12701.5
627.768	12646.21
627.963	12562.24
628.157	12347.2
628.352	12715.84
628.546	12306.24
628.74	12488.51
628.935	12119.88
629.129	12236.61
629.323	12123.98
629.517	12033.86
629.712	12240.71
629.906	11863.88
630.1	11855.69
630.294	12015.43
630.489	11712.33
630.683	11837.26
630.877	11646.8
631.071	11419.47
631.265	11636.56
631.459	11288.4
631.653	11257.68
631.848	11298.64
632.042	11460.43
632.236	11382.61
632.43	11018.07
632.624	11136.85
632.818	11028.31
633.012	10925.91
633.206	10712.92
633.4	10770.27
633.594	10747.74
633.788	10829.66
633.982	10766.17
634.176	10694.49
634.369	10536.8
634.563	10424.16
634.757	10389.35
634.951	10491.74
635.145	10379.11
635.339	10354.53
635.533	10278.76
635.726	10116.97
635.92	10135.4
636.114	10016.62
636.308	10069.86
636.501	9983.85
636.695	10147.69
636.889	9916.26
637.083	9822.06
637.276	9738.09
637.47	9918.31
637.664	9535.34
637.857	9820.01
638.051	9721.71
638.244	9527.15
638.438	9607.02
638.632	9598.83
638.825	9367.41
639.019	9514.86
639.212	9373.55
639.406	9359.22
639.599	9201.52
639.793	9205.62
639.986	9056.12
640.18	9201.52
640.373	8970.1
640.567	8902.52
640.76	8992.63
640.954	8779.64
641.147	8978.3
641.34	8683.39
641.534	8767.35
641.727	8537.98
641.92	8738.68
642.114	8609.66
642.307	8664.96
642.5	8472.45
642.694	8365.95
642.887	8347.52
643.08	8521.6
643.273	8402.82
643.467	8263.55
643.66	8116.1
643.853	8101.76
644.046	8079.24
644.239	8304.51
644.432	8175.49
644.626	7929.74
644.819	8062.85
645.012	7958.41
645.205	7929.74
645.398	7655.31
645.591	7757.71
645.784	7925.64
645.977	7745.42
646.17	7767.95
646.363	7638.92
646.556	7475.09
646.749	7620.49
646.942	7573.39
647.135	7460.75
647.328	7403.41
647.521	7354.26
647.714	7303.06
647.907	7440.27
648.099	7270.29
648.292	7317.39
648.485	7372.69
648.678	7237.52
648.871	7028.63
649.064	6997.91
649.256	7274.39
649.449	7049.11
649.642	6959
649.835	6915.99
650.027	6836.12
650.22	6889.37
650.413	6762.39
650.605	6696.86
650.798	6645.66
650.991	6741.91
651.183	6817.69
651.376	6565.79
651.568	6612.89
651.761	6655.9
651.954	6549.4
652.146	6666.14
652.339	6473.63
652.531	6477.73
652.724	6406.05
652.916	6297.5
653.109	6213.54
653.301	6260.64
653.494	6332.32
653.686	6162.34
653.879	6371.23
654.071	6301.6
654.263	6143.91
654.456	6152.1
654.648	6166.43
654.84	6012.84
655.033	5973.92
655.225	6059.94
655.417	5947.3
655.61	6109.09
655.802	5892.01
655.994	5760.94
656.186	5941.16
656.379	5906.34
656.571	5818.28
656.763	5836.71
656.955	5603.24
657.148	5744.55
657.34	5740.46
657.532	5617.58
657.724	5808.04
657.916	5726.12
658.108	5707.69
658.3	5453.74
658.492	5494.7
658.684	5410.73
658.876	5380.01
659.068	5429.17
659.26	5365.68
659.452	5275.57
659.644	5314.48
659.836	5369.77
660.028	5345.2
660.22	5246.9
660.412	5167.03
660.604	5138.35
660.796	5081.01
660.988	5105.59
661.18	5064.63
661.372	5015.48
661.563	5164.98
661.755	5003.19
661.947	5054.39
662.139	5031.86
662.331	5035.96
662.522	4933.56
662.714	4984.76
662.906	4872.12
663.097	4986.8
663.289	4818.87
663.481	4757.43
663.673	4796.34
663.864	4802.49
664.056	4652.98
664.247	4728.76
664.439	4620.22
664.631	4589.5
664.822	4667.32
665.014	4700.09
665.205	4669.37
665.397	4599.74
665.588	4491.2
665.78	4468.67
665.971	4622.27
666.163	4364.22
666.354	4353.98
666.546	4437.95
666.737	4501.44
666.929	4294.59
667.12	4388.8
667.311	4257.73
667.503	4296.64
667.694	4327.36
667.885	4208.58
668.077	4296.64
668.268	4122.56
668.459	4224.96
668.651	4173.76
668.842	4255.68
669.033	4220.86
669.224	4241.34
669.416	4292.54
669.607	4196.29
669.798	4081.6
669.989	4083.65
670.18	4075.46
670.371	4016.07
670.563	3952.58
670.754	3901.38
670.945	4022.21
671.136	4048.83
671.327	4069.31
671.518	3856.33
671.709	3796.93
671.9	4016.07
672.091	3950.53
672.282	3868.61
672.473	3968.96
672.664	3745.73
672.855	3698.63
673.046	3872.71
673.237	3825.61
673.428	3815.37
673.619	3647.43
673.809	3727.3
674	3682.25
674.191	3694.54
674.382	3782.6
674.573	3680.2
674.764	3676.1
674.954	3649.48
675.145	3428.3
675.336	3733.45
675.527	3602.38
675.717	3626.95
675.908	3557.32
676.099	3592.14
676.289	3555.27
676.48	3487.69
676.671	3536.84
676.861	3520.46
677.052	3438.54
677.243	3411.92
677.433	3452.88
677.624	3569.61
677.814	3432.4
678.005	3469.26
678.195	3352.52
678.386	3409.87
678.576	3405.77
678.767	3340.24
678.957	3454.92
679.148	3362.76
679.338	3330
679.529	3282.89
679.719	3317.71
679.909	3444.68
680.1	3266.51
680.29	3409.87
680.481	3373
680.671	3303.37
680.861	3286.99
681.052	3282.89
681.242	3209.17
681.432	3170.26
681.622	3276.75
681.813	3153.87
682.003	3266.51
682.193	3231.69
682.383	3246.03
682.573	3192.78
682.764	3096.53
682.954	3123.15
683.144	3180.5
683.334	3160.02
683.524	3200.98
683.714	3192.78
683.904	3028.95
684.094	3143.63
684.284	3012.56
684.474	3123.15
684.664	3174.35
684.854	3041.23
685.044	3088.34
685.234	2957.27
685.424	3117.01
685.614	3002.32
685.804	2949.07
685.994	3069.91
686.184	2994.13
686.374	3008.47
686.564	2906.07
686.753	2949.07
686.943	2881.49
687.133	3020.75
687.323	2875.35
687.513	2828.24
687.702	2844.63
687.892	2865.11
688.082	2865.11
688.272	2791.38
688.461	2848.72
688.651	2840.53
688.841	2803.67
689.03	2705.37
689.22	2775
689.41	2717.65
689.599	2711.51
689.789	2791.38
689.979	2680.79
690.168	2725.85
690.358	2621.4
690.547	2795.48
690.737	2664.41
690.926	2709.46
691.116	2682.84
691.305	2648.02
691.495	2615.26
691.684	2613.21
691.874	2559.96
692.063	2463.71
692.252	2682.84
692.442	2611.16
692.631	2588.63
692.82	2547.67
693.01	2643.93
693.199	2541.53
693.388	2508.76
693.578	2482.14
693.767	2416.6
693.956	2418.65
694.146	2523.1
694.335	2418.65
694.524	2465.75
694.713	2414.56
694.902	2443.23
695.092	2508.76
695.281	2385.88
695.47	2447.32
695.659	2256.86
695.848	2340.83
696.037	2295.77
696.226	2330.59
696.415	2402.27
696.604	2398.17
696.793	2373.6
696.982	2457.56
697.171	2408.41
697.36	2420.7
697.549	2365.4
697.738	2363.36
697.927	2373.6
698.116	2336.73
698.305	2340.83
698.494	2363.36
698.683	2394.08
698.872	2361.31
699.061	2394.08
699.25	2289.63
699.438	2322.4
699.627	2224.09
699.816	2414.56
700.005	2258.91
700.193	2488.28
700.382	2414.56
700.571	2287.58
700.76	2277.34
700.948	2346.97
701.137	2238.43
701.326	2277.34
701.514	2342.88
701.703	2375.64
701.892	2273.25
702.08	2215.9
702.269	2441.18
702.457	2226.14
702.646	2285.53
702.834	2291.68
703.023	2215.9
703.212	2203.61
703.4	2320.35
703.589	2267.1
703.777	2191.33
703.965	2252.77
704.154	2310.11
704.342	2168.8
704.531	2295.77
704.719	2187.23
704.907	2314.2
705.096	2125.79
705.284	2189.28
705.472	2125.79
705.661	2205.66
705.849	2334.68
706.037	2189.28
706.226	2355.16
706.414	2265.05
706.602	2230.24
706.79	2273.25
706.979	2246.62
707.167	2156.51
707.355	2269.15
707.543	2234.33
707.731	2244.57
707.919	2191.33
708.107	2195.42
708.296	2107.36
708.484	2195.42
708.672	2168.8
708.86	2277.34
709.048	2217.95
709.236	2152.42
709.424	2142.18
709.612	2400.22
709.8	2232.29
709.988	2226.14
710.176	2215.9
710.364	2144.22
710.551	2217.95
710.739	2250.72
710.927	2097.12
711.115	2140.13
711.303	2260.96
711.491	2250.72
711.679	2168.8
711.866	2111.46
712.054	2267.1
712.242	2115.55
712.43	2226.14
712.617	2222.05
712.805	2215.9
712.993	2129.89
713.181	2170.85
713.368	2201.57
713.556	2201.57
713.744	2209.76
713.931	2263.01
714.119	2189.28
714.306	2209.76
714.494	2152.42
714.682	2185.18
714.869	2111.46
715.057	2164.7
715.244	2172.89
715.432	2156.51
715.619	2115.55
715.807	2181.09
715.994	2064.35
716.182	2144.22
716.369	2226.14
716.556	2037.73
716.744	2222.05
716.931	2099.17
717.119	2267.1
717.306	2176.99
717.493	2144.22
717.681	2199.52
717.868	2095.07
718.055	2011.11
718.242	2154.46
718.43	2129.89
718.617	2088.93
718.804	2041.82
718.991	2176.99
719.179	2131.94
719.366	2275.29
719.553	2160.61
719.74	2207.71
719.927	2084.83
720.114	2136.03
720.301	2185.18
720.488	2095.07
720.676	2185.18
720.863	2156.51
721.05	2078.69
721.237	2052.06
721.424	2082.78
721.611	2215.9
721.798	2035.68
721.985	2109.41
722.172	2031.59
722.358	2176.99
722.545	2058.21
722.732	2058.21
722.919	2054.11
723.106	2072.54
723.293	2033.63
723.48	2195.42
723.667	2127.84
723.853	2056.16
724.04	2125.79
724.227	2103.26
724.414	2060.26
724.6	2074.59
724.787	2201.57
724.974	2150.37
725.161	2054.11
725.347	1998.82
725.534	1964
725.72	2025.44
725.907	2070.5
726.094	2097.12
726.28	2013.15
726.467	1980.39
726.653	2093.02
726.84	2179.04
727.027	2115.55
727.213	2041.82
727.4	2117.6
727.586	2105.31
727.773	2082.78
727.959	2015.2
728.145	2119.65
728.332	1994.72
728.518	2213.85
728.705	2066.4
728.891	2058.21
729.077	2101.22
729.264	2080.74
729.45	1996.77
729.636	2125.79
729.823	2000.87
730.009	2019.3
730.195	2156.51
730.382	2115.55
730.568	1984.48
730.754	2103.26
730.94	2133.98
731.126	1984.48
731.313	2179.04
731.499	2064.35
731.685	2027.49
731.871	2025.44
732.057	2045.92
732.243	2099.17
732.429	2105.31
732.615	2117.6
732.801	2095.07
732.987	2015.2
733.173	2136.03
733.359	2007.01
733.545	2111.46
733.731	2052.06
733.917	2025.44
734.103	1947.62
734.289	2068.45
734.475	2029.54
734.661	2107.36
734.847	2156.51
735.033	2050.02
735.219	2021.35
735.404	1996.77
735.59	2066.4
735.776	1972.19
735.962	2017.25
736.148	1972.19
736.333	2002.91
736.519	2054.11
736.705	2060.26
736.89	2004.96
737.076	2066.4
737.262	2004.96
737.447	1898.47
737.633	1902.56
737.819	1996.77
738.004	1947.62
738.19	2054.11
738.375	1947.62
738.561	1974.24
738.747	1976.29
738.932	1910.75
739.118	1998.82
739.303	1951.71
739.489	1910.75
739.674	1923.04
739.859	1998.82
740.045	1871.84
740.23	1906.66
740.416	1974.24
740.601	1992.67
740.786	1888.23
740.972	1859.56
741.157	1929.19
741.342	1877.99
741.528	1875.94
741.713	1824.74
741.898	1937.38
742.084	1859.56
742.269	1839.08
742.454	1695.72
742.639	1896.42
742.824	1822.69
743.01	1847.27
743.195	1812.45
743.38	1785.83
743.565	1880.04
743.75	1832.93
743.935	1804.26
744.12	1691.62
744.305	1724.39
744.49	1800.16
744.675	1748.97
744.86	1804.26
745.045	1800.16
745.23	1724.39
745.415	1722.34
745.6	1740.77
745.785	1755.11
745.97	1701.86
746.155	1689.57
746.34	1683.43
746.525	1595.37
746.71	1701.86
746.895	1689.57
747.079	1705.96
747.264	1708.01
747.449	1648.61
747.634	1794.02
747.819	1570.79
748.003	1632.23
748.188	1589.22
748.373	1638.38
748.557	1574.89
748.742	1564.65
748.927	1538.02
749.111	1558.5
749.296	1632.23
749.481	1611.75
749.665	1548.26
749.85	1511.4
750.034	1628.14
750.219	1476.59
750.404	1447.91
750.588	1560.55
750.773	1490.92
750.957	1527.78
751.141	1429.48
751.326	1464.3
751.51	1468.39
751.695	1470.44
751.879	1449.96
752.064	1472.49
752.248	1394.67
752.432	1398.76
752.617	1452.01
752.801	1320.94
752.985	1331.18
753.17	1396.71
753.354	1239.02
753.538	1370.09
753.722	1284.08
753.907	1341.42
754.091	1341.42
754.275	1320.94
754.459	1322.99
754.643	1394.67
754.828	1286.12
755.012	1232.88
755.196	1259.5
755.38	1265.64
755.564	1150.96
755.748	1249.26
755.932	1275.88
756.116	1173.49
756.3	1159.15
756.484	1288.17
756.668	1142.77
756.852	1193.97
757.036	1181.68
757.22	1173.49
757.404	1206.25
757.588	1144.81
757.772	1134.57
757.956	1079.28
758.14	1077.23
758.323	1101.81
758.507	1159.15
758.691	1085.42
758.875	1173.49
759.059	1183.73
759.242	1101.81
759.426	1036.27
759.61	1136.62
759.794	1107.95
759.977	1021.94
760.161	1128.43
760.345	1030.13
760.528	1097.71
760.712	1032.18
760.895	1071.09
761.079	1034.22
761.263	974.83
761.446	1069.04
761.63	1003.5
761.813	997.36
761.997	1015.79
762.18	1030.13
762.364	1054.7
762.547	890.87
762.731	1015.79
762.914	1030.13
763.098	897.01
763.281	997.36
763.464	972.79
763.648	1017.84
763.831	903.15
764.015	987.12
764.198	944.11
764.381	937.97
764.564	894.96
764.748	903.15
764.931	946.16
765.114	978.93
765.297	876.53
765.481	890.87
765.664	907.25
765.847	937.97
766.03	940.02
766.213	878.58
766.397	944.11
766.58	903.15
766.763	880.63
766.946	845.81
767.129	927.73
767.312	845.81
767.495	894.96
767.678	851.96
767.861	868.34
768.044	802.8
768.227	860.15
768.41	921.59
768.593	888.82
768.776	864.24
768.959	827.38
769.142	862.19
769.324	911.35
769.507	923.63
769.69	776.18
769.873	774.13
770.056	884.72
770.239	839.67
770.421	841.72
770.604	806.9
770.787	753.65
770.97	825.33
771.152	770.04
771.335	788.47
771.518	788.47
771.7	802.8
771.883	815.09
772.066	841.72
772.248	741.36
772.431	757.75
772.613	808.95
772.796	743.41
772.978	757.75
773.161	829.43
773.343	774.13
773.526	673.78
773.708	698.36
773.891	612.34
774.073	690.17
774.256	731.12
774.438	724.98
774.621	595.96
774.803	698.36
774.985	767.99
775.168	690.17
775.35	686.07
775.532	702.45
775.715	661.49
775.897	710.65
776.079	565.24
776.261	630.77
776.444	692.21
776.626	704.5
776.808	616.44
776.99	612.34
777.173	696.31
777.355	563.19
777.537	636.92
777.719	716.79
777.901	569.34
778.083	567.29
778.265	546.81
778.447	595.96
778.629	600.05
778.811	557.05
778.993	634.87
779.175	624.63
779.357	555
779.539	534.52
779.721	645.11
779.903	559.1
780.085	567.29
780.267	571.38
780.449	567.29
780.631	604.15
780.812	561.14
780.994	593.91
781.176	544.76
781.358	530.42
781.54	438.27
781.721	477.18
781.903	511.99
782.085	561.14
782.267	487.42
782.448	538.62
782.63	468.98
782.812	489.46
782.993	432.12
783.175	495.61
783.357	479.22
783.538	454.65
783.72	511.99
783.901	477.18
784.083	483.32
784.264	497.66
784.446	507.9
784.627	481.27
784.809	518.14
784.99	468.98
785.172	460.79
785.353	489.46
785.535	454.65
785.716	444.41
785.897	444.41
786.079	344.06
786.26	499.7
786.441	444.41
786.623	333.82
786.804	442.36
786.985	411.64
787.167	430.07
787.348	389.11
787.529	399.35
787.71	456.7
787.891	391.16
788.073	374.78
788.254	376.83
788.435	303.1
788.616	385.02
788.797	350.2
788.978	442.36
789.159	378.87
789.34	413.69
789.522	348.15
789.703	309.24
789.884	425.98
790.065	397.31
790.246	344.06
790.427	370.68
790.607	321.53
790.788	395.26
790.969	292.86
791.15	270.33
791.331	315.39
791.512	286.72
791.693	331.77
791.874	323.58
792.054	360.44
792.235	309.24
792.416	307.2
792.597	346.11
792.778	342.01
792.958	262.14
793.139	337.91
793.32	321.53
793.5	315.39
793.681	337.91
793.862	258.04
794.042	251.9
794.223	264.19
794.404	235.52
794.584	282.62
794.765	239.61
794.945	282.62
795.126	268.28
795.306	262.14
795.487	262.14
795.667	339.96
795.848	352.25
796.028	288.76
796.209	278.52
796.389	276.48
796.57	323.58
796.75	321.53
796.93	178.17
797.111	305.15
797.291	249.85
797.471	290.81
797.652	274.43
797.832	245.76
798.012	268.28
798.192	225.28
798.373	221.18
798.553	296.96
798.733	237.56
798.913	292.86
799.093	292.86
799.274	266.24
799.454	251.9
799.634	266.24
799.814	253.95
799.994	239.61
800.174	247.8
800.354	272.38
800.534	247.8
800.714	301.05
800.894	167.93
801.074	161.79
801.254	303.1
801.434	256
801.614	219.13
801.794	178.17
801.974	604.15
802.154	219.13
802.334	282.62
802.514	184.32
802.693	202.75
802.873	219.13
803.053	192.51
803.233	262.14
803.413	120.83
803.592	145.41
803.772	202.75
803.952	167.93
804.131	227.32
804.311	227.32
804.491	233.47
804.67	169.98
804.85	163.84
805.03	139.26
805.209	219.13
805.389	135.17
805.568	239.61
805.748	186.37
805.928	196.61
806.107	155.65
806.287	143.36
806.466	217.08
806.646	176.13
806.825	165.89
807.004	153.6
807.184	188.41
807.363	163.84
807.543	159.74
807.722	186.37
807.901	200.7
808.081	200.7
808.26	98.3
808.439	243.71
808.619	165.89
808.798	118.78
808.977	186.37
809.156	159.74
809.336	153.6
809.515	176.13
809.694	126.97
809.873	133.12
810.052	202.75
810.231	190.46
810.411	120.83
810.59	145.41
810.769	141.31
810.948	135.17
811.127	104.45
811.306	96.25
811.485	55.3
811.664	202.75
811.843	135.17
812.022	194.56
812.201	186.37
812.38	137.21
812.559	81.92
812.737	112.64
812.916	120.83
813.095	165.89
813.274	122.88
813.453	120.83
813.632	129.02
813.811	167.93
813.989	83.97
814.168	141.31
814.347	149.5
814.526	88.06
814.704	192.51
814.883	172.03
815.062	151.55
815.24	163.84
815.419	112.64
815.598	135.17
815.776	69.63
815.955	90.11
816.133	153.6
816.312	110.59
816.49	88.06
816.669	200.7
816.847	88.06
817.026	90.11
817.204	71.68
817.383	108.54
817.561	143.36
817.74	157.69
817.918	169.98
818.097	104.45
818.275	67.58
818.453	75.77
818.632	178.17
818.81	92.16
818.988	165.89
819.167	61.44
819.345	73.73
819.523	155.65
819.701	73.73
819.879	71.68
820.058	59.39
820.236	59.39
820.414	59.39
820.592	81.92
820.77	53.25
820.948	145.41
821.127	106.49
821.305	131.07
821.483	88.06
821.661	104.45
821.839	122.88
822.017	57.34
822.195	112.64
822.373	122.88
822.551	155.65
822.729	167.93
822.907	30.72
823.085	88.06
823.262	57.34
823.44	77.82
823.618	118.78
823.796	6.14
823.974	49.15
824.152	86.01
824.329	116.73
824.507	20.48
824.685	100.35
824.863	-20.48
825.04	47.1
825.218	83.97
825.396	129.02
825.574	100.35
825.751	22.53
825.929	137.21
826.107	75.77
826.284	53.25
826.462	90.11
826.639	120.83
826.817	120.83
826.994	40.96
827.172	79.87
827.349	69.63
827.527	77.82
827.704	36.86
827.882	73.73
828.059	51.2
828.237	18.43
828.414	126.97
828.591	77.82
828.769	69.63
828.946	57.34
829.124	81.92
829.301	36.86
829.478	100.35
829.655	45.06
829.833	73.73
830.01	131.07
830.187	77.82
830.364	-4.1
830.542	104.45
830.719	67.58
830.896	133.12
831.073	53.25
831.25	61.44
831.427	94.21
831.604	94.21
831.782	-26.62
831.959	151.55
832.136	112.64
832.313	104.45
832.49	-26.62
832.667	83.97
832.844	53.25
833.021	32.77
833.198	88.06
833.374	118.78
833.551	14.34
833.728	63.49
833.905	59.39
834.082	-6.14
834.259	63.49
834.436	104.45
834.612	2.05
834.789	75.77
834.966	28.67
835.143	20.48
835.319	-6.14
835.496	34.82
835.673	51.2
835.85	102.4
836.026	83.97
836.203	53.25
836.38	71.68
836.556	116.73
836.733	75.77
836.909	96.25
837.086	38.91
837.262	-18.43
837.439	112.64
837.616	-14.34
837.792	55.3
837.968	61.44
838.145	-43.01
838.321	38.91
838.498	75.77
838.674	36.86
838.851	59.39
839.027	83.97
839.203	40.96
839.38	2.05
839.556	43.01
839.732	43.01
839.909	12.29
840.085	28.67
840.261	-2.05
840.437	-26.62
840.614	36.86
840.79	59.39
840.966	81.92
841.142	-10.24
841.318	83.97
841.494	20.48
841.671	79.87
841.847	16.38
842.023	-43.01
842.199	49.15
842.375	22.53
842.551	-40.96
842.727	4.1
842.903	36.86
843.079	51.2
843.255	-8.19
843.431	30.72
843.607	61.44
843.783	-26.62
843.959	2.05
844.134	40.96
844.31	2.05
844.486	2.05
844.662	122.88
844.838	55.3
845.013	26.62
845.189	40.96
845.365	8.19
845.541	10.24
845.716	79.87
845.892	75.77
846.068	-2.05
846.244	12.29
846.419	12.29
846.595	-63.49
846.77	14.34
846.946	34.82
847.122	-10.24
847.297	18.43
847.473	104.45
847.648	22.53
847.824	47.1
847.999	53.25
848.175	0
848.35	-8.19
848.526	81.92
848.701	22.53
848.876	43.01
849.052	73.73
849.227	32.77
849.403	26.62
849.578	22.53
849.753	6.14
849.929	6.14
850.104	57.34
850.279	40.96
850.454	18.43
850.63	45.06
850.805	63.49
850.98	28.67
851.155	45.06
851.33	38.91
851.505	49.15
851.681	86.01
851.856	-8.19
852.031	47.1
852.206	16.38
852.381	16.38
852.556	6.14
852.731	67.58
852.906	4.1
853.081	-47.1
853.256	16.38
853.431	0
853.606	-2.05
853.781	6.14
853.956	55.3
854.131	14.34
854.305	-24.58
854.48	65.54
854.655	-55.3
854.83	22.53
855.005	26.62
855.18	40.96
855.354	0
855.529	-6.14
855.704	-24.58
855.879	57.34
856.053	-83.97
856.228	14.34
856.403	-18.43
856.577	18.43
856.752	-59.39
856.926	28.67
857.101	-28.67
857.276	-16.38
857.45	-16.38
857.625	-10.24
857.799	0
857.974	94.21
858.148	-83.97
858.323	43.01
858.497	-59.39
858.672	10.24
858.846	-26.62
859.02	-32.77
859.195	10.24
859.369	-38.91
859.543	2.05
859.718	36.86
859.892	-55.3
860.066	8.19
860.241	-26.62
860.415	-14.34
860.589	-32.77
860.763	55.3
860.938	36.86
861.112	10.24
861.286	-10.24
861.46	12.29
861.634	18.43
861.808	32.77
861.982	-73.73
862.157	8.19
862.331	26.62
862.505	12.29
862.679	-53.25
862.853	-10.24
863.027	-24.58
863.201	38.91
863.375	-18.43
863.549	20.48
863.722	4.1
863.896	-10.24
864.07	-83.97
864.244	-6.14
864.418	-6.14
864.592	-2.05
864.766	-43.01
864.939	-32.77
865.113	-18.43
865.287	-10.24
865.461	-51.2
865.634	-83.97
865.808	2.05
865.982	-26.62
866.156	4.1
866.329	18.43
866.503	79.87
866.676	30.72
866.85	22.53
867.024	-24.58
867.197	0
867.371	26.62
867.544	30.72
867.718	-22.53
867.891	4.1
868.065	14.34
868.238	2.05
868.412	6.14
868.585	22.53
868.759	-8.19
868.932	-4.1
869.105	-30.72
869.279	6.14
869.452	-57.34
869.625	20.48
869.799	30.72
869.972	-28.67
870.145	2.05
870.319	-47.1
870.492	-34.82
870.665	96.25
870.838	22.53
871.011	-59.39
871.185	-40.96
871.358	12.29
871.531	45.06
871.704	24.58
871.877	-34.82
872.05	-22.53
872.223	-61.44
872.396	38.91
872.569	98.3
872.742	14.34
872.915	49.15
873.088	-28.67
873.261	38.91
873.434	40.96
873.607	-2.05
873.78	16.38
873.953	-4.1
874.126	10.24
874.299	-18.43
874.471	-12.29
874.644	-34.82
874.817	34.82
874.99	16.38
875.163	-51.2
875.335	30.72
875.508	-30.72
875.681	10.24
875.853	18.43
876.026	-75.77
876.199	-43.01
876.371	-14.34
876.544	49.15
876.717	63.49
876.889	8.19
877.062	-26.62
877.234	-43.01
877.407	-8.19
877.579	-40.96
877.752	32.77
877.924	-18.43
878.097	40.96
878.269	-4.1
878.442	36.86
878.614	71.68
878.786	8.19
878.959	-2.05
879.131	49.15
879.303	-45.06
879.476	-22.53
879.648	-61.44
879.82	6.14
879.993	-24.58
880.165	-36.86
880.337	-18.43
880.509	10.24
880.681	-67.58
880.854	133.12
881.026	-2.05
881.198	51.2
881.37	-88.06
881.542	-108.54
881.714	26.62
881.886	0
882.058	-67.58
882.23	34.82
882.402	-20.48
882.574	26.62
882.746	2.05
882.918	2.05
883.09	57.34
883.262	-4.1
883.434	-34.82
883.606	-34.82
883.778	-75.77
883.95	-24.58
884.122	36.86
884.293	57.34
884.465	-38.91
884.637	18.43
884.809	20.48
884.98	4.1
885.152	-16.38
885.324	-43.01
885.496	57.34
885.667	34.82
885.839	-53.25
886.011	106.49
886.182	71.68
886.354	16.38
886.525	30.72
886.697	-34.82
886.869	-4.1
887.04	-131.07
887.212	-12.29
887.383	22.53
887.555	12.29
887.726	92.16
887.897	6.14
888.069	14.34
888.24	-18.43
888.412	12.29
888.583	-61.44
888.754	22.53
888.926	10.24
889.097	-38.91
889.268	28.67
889.44	34.82
889.611	-53.25
889.782	-22.53
889.953	-4.1
890.125	-6.14
890.296	8.19
890.467	-40.96
890.638	-59.39
890.809	-22.53
890.98	-14.34
891.151	12.29
891.323	16.38
891.494	-4.1
891.665	-12.29
891.836	0
892.007	32.77
892.178	83.97
892.349	-2.05
892.52	12.29
892.691	-6.14
892.862	-34.82
893.032	-94.21
893.203	-20.48
893.374	8.19
893.545	0
893.716	20.48
893.887	43.01
894.057	-43.01
894.228	-8.19
894.399	-43.01
894.57	16.38
894.74	-22.53
894.911	-8.19
895.082	14.34
895.253	-2.05
895.423	-12.29
895.594	-38.91
895.764	22.53
895.935	32.77
896.106	-10.24
896.276	-34.82
896.447	-38.91
896.617	-98.3
896.788	-4.1
896.958	24.58
897.129	-67.58
897.299	-24.58
897.47	4.1
897.64	-30.72
897.81	-26.62
897.981	-100.35
898.151	2.05
898.322	26.62
898.492	53.25
898.662	14.34
898.832	-47.1
899.003	12.29
899.173	20.48
899.343	-24.58
899.513	6.14
