Data from USB4F104151__169__11-08-56-347.txt Node

Date: Wed Mar 12 11:08:56 EDT 2025
User: louis
Spectrometer: USB4F10415
Trigger mode: 4
Integration Time (sec): 2.000000E-2
Scans to average: 1
Electric dark correction enabled: true
Nonlinearity correction enabled: false
Boxcar width: 0
XAxis mode: Wavelengths
Number of Pixels in Spectrum: 3648
>>>>>Begin Spectral Data<<<<<
178.204	-90.96
178.424	-90.96
178.644	-90.96
178.864	-84.82
179.084	-90.96
179.304	9.39
179.524	-15.19
179.744	-35.67
179.964	-17.24
180.184	17.58
180.404	17.58
180.624	5.29
180.844	17.58
181.064	-25.43
181.283	15.53
181.503	11.43
181.723	-0.85
181.943	-54.1
182.163	29.87
182.383	-23.38
182.602	13.48
182.822	-41.81
183.042	42.15
183.262	-54.1
183.482	76.97
183.701	36.01
183.921	-47.96
184.141	-2.9
184.361	109.74
184.58	17.58
184.8	17.58
185.02	15.53
185.239	-31.57
185.459	83.11
185.679	1.19
185.898	36.01
186.118	60.59
186.338	27.82
186.557	40.11
186.777	-45.91
186.997	3.24
187.216	-13.14
187.436	36.01
187.655	83.11
187.875	27.82
188.095	27.82
188.314	44.2
188.534	46.25
188.753	17.58
188.973	-25.43
189.192	-21.33
189.412	33.96
189.631	13.48
189.851	31.91
190.07	33.96
190.29	29.87
190.509	58.54
190.729	-11.09
190.948	48.3
191.168	101.55
191.387	95.4
191.607	-47.96
191.826	-2.9
192.045	-19.29
192.265	-9.05
192.484	-29.52
192.704	-37.72
192.923	-29.52
193.142	85.16
193.362	-13.14
193.581	19.63
193.8	36.01
194.02	56.49
194.239	-39.76
194.458	7.34
194.678	29.87
194.897	74.92
195.116	25.77
195.335	-60.24
195.555	-33.62
195.774	42.15
195.993	3.24
196.212	3.24
196.432	11.43
196.651	76.97
196.87	-13.14
197.089	74.92
197.308	-23.38
197.528	3.24
197.747	50.35
197.966	13.48
198.185	3.24
198.404	-54.1
198.623	52.39
198.842	36.01
199.062	54.44
199.281	42.15
199.5	25.77
199.719	-4.95
199.938	5.29
200.157	17.58
200.376	76.97
200.595	42.15
200.814	-9.05
201.033	9.39
201.252	87.21
201.471	-2.9
201.69	-23.38
201.909	36.01
202.128	11.43
202.347	31.91
202.566	21.67
202.785	64.68
203.004	-4.95
203.223	103.59
203.442	-56.15
203.661	7.34
203.879	1.19
204.098	7.34
204.317	-0.85
204.536	58.54
204.755	-29.52
204.974	40.11
205.193	19.63
205.411	58.54
205.63	-45.91
205.849	33.96
206.068	7.34
206.287	-23.38
206.505	101.55
206.724	15.53
206.943	5.29
207.162	33.96
207.381	40.11
207.599	81.07
207.818	-0.85
208.037	25.77
208.255	-27.48
208.474	13.48
208.693	58.54
208.911	25.77
209.13	85.16
209.349	36.01
209.567	60.59
209.786	68.78
210.005	17.58
210.223	17.58
210.442	13.48
210.661	19.63
210.879	-4.95
211.098	21.67
211.316	-0.85
211.535	40.11
211.753	-11.09
211.972	46.25
212.191	56.49
212.409	3.24
212.628	83.11
212.846	-11.09
213.065	54.44
213.283	97.45
213.502	68.78
213.72	-27.48
213.938	68.78
214.157	-4.95
214.375	31.91
214.594	-21.33
214.812	-29.52
215.031	31.91
215.249	9.39
215.467	7.34
215.686	9.39
215.904	146.6
216.122	52.39
216.341	101.55
216.559	-2.9
216.778	44.2
216.996	62.63
217.214	23.72
217.432	105.64
217.651	17.58
217.869	105.64
218.087	70.83
218.306	-9.05
218.524	50.35
218.742	-31.57
218.96	15.53
219.179	-58.2
219.397	95.4
219.615	29.87
219.833	52.39
220.051	-82.77
220.27	66.73
220.488	7.34
220.706	33.96
220.924	19.63
221.142	-4.95
221.36	-33.62
221.578	83.11
221.796	33.96
222.015	11.43
222.233	62.63
222.451	101.55
222.669	25.77
222.887	83.11
223.105	-39.76
223.323	42.15
223.541	-19.29
223.759	25.77
223.977	11.43
224.195	27.82
224.413	19.63
224.631	3.24
224.849	3.24
225.067	150.7
225.285	15.53
225.503	-9.05
225.721	-54.1
225.939	13.48
226.157	-84.82
226.375	70.83
226.592	-21.33
226.81	-4.95
227.028	72.87
227.246	-2.9
227.464	19.63
227.682	81.07
227.9	76.97
228.117	-13.14
228.335	-31.57
228.553	-25.43
228.771	31.91
228.989	40.11
229.206	-45.91
229.424	76.97
229.642	50.35
229.86	21.67
230.077	62.63
230.295	23.72
230.513	-0.85
230.731	42.15
230.948	-58.2
231.166	48.3
231.384	44.2
231.601	97.45
231.819	103.59
232.037	-29.52
232.254	5.29
232.472	44.2
232.689	-7
232.907	64.68
233.125	23.72
233.342	56.49
233.56	1.19
233.777	-23.38
233.995	9.39
234.213	29.87
234.43	79.02
234.648	33.96
234.865	9.39
235.083	19.63
235.3	-2.9
235.518	36.01
235.735	68.78
235.953	40.11
236.17	7.34
236.388	11.43
236.605	-15.19
236.822	25.77
237.04	29.87
237.257	93.35
237.475	-25.43
237.692	29.87
237.909	31.91
238.127	48.3
238.344	46.25
238.562	13.48
238.779	-58.2
238.996	44.2
239.214	128.17
239.431	46.25
239.648	-2.9
239.865	-2.9
240.083	9.39
240.3	19.63
240.517	105.64
240.735	11.43
240.952	9.39
241.169	42.15
241.386	-47.96
241.603	48.3
241.821	76.97
242.038	60.59
242.255	46.25
242.472	-2.9
242.689	46.25
242.907	48.3
243.124	58.54
243.341	-29.52
243.558	-11.09
243.775	-2.9
243.992	25.77
244.209	-4.95
244.426	124.07
244.643	25.77
244.86	54.44
245.078	52.39
245.295	-2.9
245.512	74.92
245.729	62.63
245.946	-13.14
246.163	31.91
246.38	17.58
246.597	-13.14
246.814	15.53
247.031	68.78
247.248	23.72
247.464	56.49
247.681	-4.95
247.898	50.35
248.115	56.49
248.332	13.48
248.549	144.55
248.766	36.01
248.983	72.87
249.2	33.96
249.417	-0.85
249.633	23.72
249.85	33.96
250.067	31.91
250.284	-19.29
250.501	-4.95
250.717	-41.81
250.934	-2.9
251.151	-15.19
251.368	3.24
251.585	52.39
251.801	13.48
252.018	3.24
252.235	113.83
252.451	95.4
252.668	17.58
252.885	27.82
253.102	23.72
253.318	17.58
253.535	38.06
253.752	48.3
253.968	5.29
254.185	25.77
254.401	27.82
254.618	38.06
254.835	38.06
255.051	58.54
255.268	74.92
255.484	58.54
255.701	11.43
255.917	7.34
256.134	-11.09
256.351	46.25
256.567	3.24
256.784	52.39
257	7.34
257.217	60.59
257.433	54.44
257.65	31.91
257.866	89.26
258.082	58.54
258.299	-15.19
258.515	3.24
258.732	19.63
258.948	17.58
259.165	5.29
259.381	48.3
259.597	33.96
259.814	36.01
260.03	52.39
260.246	48.3
260.463	56.49
260.679	81.07
260.895	-66.39
261.112	17.58
261.328	-25.43
261.544	64.68
261.761	58.54
261.977	150.7
262.193	33.96
262.409	21.67
262.626	11.43
262.842	25.77
263.058	89.26
263.274	1.19
263.49	11.43
263.707	21.67
263.923	13.48
264.139	31.91
264.355	72.87
264.571	36.01
264.787	-52.05
265.004	85.16
265.22	64.68
265.436	9.39
265.652	21.67
265.868	31.91
266.084	15.53
266.3	23.72
266.516	19.63
266.732	64.68
266.948	29.87
267.164	64.68
267.38	79.02
267.596	76.97
267.812	91.31
268.028	31.91
268.244	-43.86
268.46	56.49
268.676	19.63
268.892	99.5
269.108	40.11
269.324	31.91
269.54	-33.62
269.756	97.45
269.972	-25.43
270.188	56.49
270.403	42.15
270.619	56.49
270.835	68.78
271.051	21.67
271.267	19.63
271.483	74.92
271.698	25.77
271.914	44.2
272.13	25.77
272.346	40.11
272.562	-29.52
272.777	46.25
272.993	-7
273.209	9.39
273.425	3.24
273.64	-23.38
273.856	87.21
274.072	-15.19
274.287	-13.14
274.503	11.43
274.719	60.59
274.934	19.63
275.15	64.68
275.366	68.78
275.581	3.24
275.797	17.58
276.012	-27.48
276.228	-33.62
276.444	-25.43
276.659	19.63
276.875	27.82
277.09	27.82
277.306	29.87
277.521	25.77
277.737	9.39
277.952	89.26
278.168	9.39
278.383	44.2
278.599	23.72
278.814	38.06
279.03	56.49
279.245	56.49
279.461	-54.1
279.676	58.54
279.892	44.2
280.107	44.2
280.322	58.54
280.538	23.72
280.753	42.15
280.969	-27.48
281.184	31.91
281.399	72.87
281.615	42.15
281.83	23.72
282.045	21.67
282.26	23.72
282.476	31.91
282.691	79.02
282.906	13.48
283.122	-15.19
283.337	-21.33
283.552	93.35
283.767	1.19
283.983	-15.19
284.198	7.34
284.413	97.45
284.628	-13.14
284.843	46.25
285.058	19.63
285.274	48.3
285.489	-29.52
285.704	-7
285.919	56.49
286.134	-33.62
286.349	-2.9
286.564	-15.19
286.779	58.54
286.995	68.78
287.21	-33.62
287.425	21.67
287.64	-25.43
287.855	27.82
288.07	42.15
288.285	-35.67
288.5	79.02
288.715	11.43
288.93	27.82
289.145	-15.19
289.36	27.82
289.575	101.55
289.79	25.77
290.004	-54.1
290.219	64.68
290.434	7.34
290.649	52.39
290.864	25.77
291.079	109.74
291.294	58.54
291.509	17.58
291.724	50.35
291.938	58.54
292.153	-13.14
292.368	31.91
292.583	-19.29
292.798	107.69
293.012	33.96
293.227	-0.85
293.442	-74.58
293.657	38.06
293.871	107.69
294.086	-29.52
294.301	13.48
294.516	-45.91
294.73	38.06
294.945	81.07
295.16	68.78
295.374	-21.33
295.589	136.36
295.804	54.44
296.018	15.53
296.233	-47.96
296.447	44.2
296.662	83.11
296.877	56.49
297.091	40.11
297.306	58.54
297.52	23.72
297.735	-17.24
297.949	-11.09
298.164	9.39
298.378	66.73
298.593	-50
298.807	36.01
299.022	-19.29
299.236	83.11
299.451	27.82
299.665	81.07
299.88	72.87
300.094	9.39
300.309	11.43
300.523	9.39
300.737	-15.19
300.952	31.91
301.166	11.43
301.381	-37.72
301.595	42.15
301.809	50.35
302.024	76.97
302.238	-17.24
302.452	-11.09
302.667	-95.06
302.881	44.2
303.095	19.63
303.309	21.67
303.524	36.01
303.738	119.98
303.952	58.54
304.166	27.82
304.381	-11.09
304.595	48.3
304.809	-13.14
305.023	64.68
305.237	44.2
305.452	36.01
305.666	19.63
305.88	68.78
306.094	15.53
306.308	29.87
306.522	29.87
306.736	76.97
306.95	3.24
307.164	7.34
307.379	48.3
307.593	46.25
307.807	11.43
308.021	3.24
308.235	-9.05
308.449	27.82
308.663	-11.09
308.877	60.59
309.091	111.78
309.305	60.59
309.519	11.43
309.733	68.78
309.947	42.15
310.161	109.74
310.374	99.5
310.588	21.67
310.802	19.63
311.016	31.91
311.23	-21.33
311.444	7.34
311.658	27.82
311.872	99.5
312.085	27.82
312.299	50.35
312.513	76.97
312.727	-4.95
312.941	11.43
313.154	3.24
313.368	99.5
313.582	31.91
313.796	23.72
314.009	-9.05
314.223	60.59
314.437	15.53
314.651	9.39
314.864	31.91
315.078	-17.24
315.292	-23.38
315.505	-15.19
315.719	62.63
315.933	48.3
316.146	15.53
316.36	36.01
316.573	101.55
316.787	33.96
317.001	11.43
317.214	-17.24
317.428	91.31
317.641	-35.67
317.855	111.78
318.068	15.53
318.282	11.43
318.495	25.77
318.709	36.01
318.922	-9.05
319.136	60.59
319.349	89.26
319.563	25.77
319.776	56.49
319.99	-62.29
320.203	13.48
320.417	-27.48
320.63	54.44
320.843	68.78
321.057	46.25
321.27	48.3
321.483	3.24
321.697	44.2
321.91	68.78
322.124	119.98
322.337	13.48
322.55	58.54
322.763	85.16
322.977	-4.95
323.19	3.24
323.403	54.44
323.617	17.58
323.83	79.02
324.043	-17.24
324.256	48.3
324.469	36.01
324.683	95.4
324.896	11.43
325.109	93.35
325.322	-2.9
325.535	79.02
325.748	128.17
325.962	40.11
326.175	19.63
326.388	146.6
326.601	85.16
326.814	-13.14
327.027	52.39
327.24	-39.76
327.453	-11.09
327.666	119.98
327.879	60.59
328.092	62.63
328.305	33.96
328.518	-15.19
328.731	-0.85
328.944	25.77
329.157	126.12
329.37	15.53
329.583	40.11
329.796	85.16
330.009	23.72
330.222	9.39
330.435	27.82
330.648	113.83
330.861	40.11
331.073	38.06
331.286	31.91
331.499	-0.85
331.712	72.87
331.925	79.02
332.138	68.78
332.35	19.63
332.563	-29.52
332.776	81.07
332.989	58.54
333.202	-19.29
333.414	-52.05
333.627	68.78
333.84	17.58
334.053	68.78
334.265	-11.09
334.478	36.01
334.691	85.16
334.903	64.68
335.116	3.24
335.329	60.59
335.541	5.29
335.754	68.78
335.966	-35.67
336.179	21.67
336.392	-13.14
336.604	40.11
336.817	44.2
337.029	23.72
337.242	19.63
337.454	68.78
337.667	-64.34
337.88	42.15
338.092	79.02
338.305	101.55
338.517	-52.05
338.729	58.54
338.942	74.92
339.154	11.43
339.367	-2.9
339.579	122.02
339.792	44.2
340.004	58.54
340.217	19.63
340.429	109.74
340.641	48.3
340.854	62.63
341.066	15.53
341.278	42.15
341.491	31.91
341.703	56.49
341.915	126.12
342.128	54.44
342.34	79.02
342.552	36.01
342.764	-33.62
342.977	-2.9
343.189	117.93
343.401	3.24
343.613	21.67
343.826	23.72
344.038	3.24
344.25	25.77
344.462	-9.05
344.674	72.87
344.886	31.91
345.099	64.68
345.311	-29.52
345.523	-33.62
345.735	-68.44
345.947	25.77
346.159	111.78
346.371	-9.05
346.583	46.25
346.795	36.01
347.007	7.34
347.219	33.96
347.431	54.44
347.643	29.87
347.855	66.73
348.067	187.56
348.279	-9.05
348.491	50.35
348.703	91.31
348.915	19.63
349.127	13.48
349.339	-9.05
349.551	-4.95
349.763	87.21
349.975	40.11
350.187	27.82
350.399	42.15
350.61	95.4
350.822	60.59
351.034	-9.05
351.246	50.35
351.458	76.97
351.669	79.02
351.881	36.01
352.093	7.34
352.305	44.2
352.517	29.87
352.728	72.87
352.94	-0.85
353.152	17.58
353.363	15.53
353.575	68.78
353.787	64.68
353.999	27.82
354.21	72.87
354.422	68.78
354.633	15.53
354.845	115.88
355.057	21.67
355.268	54.44
355.48	70.83
355.692	42.15
355.903	87.21
356.115	46.25
356.326	5.29
356.538	38.06
356.749	56.49
356.961	83.11
357.172	36.01
357.384	11.43
357.595	130.22
357.807	38.06
358.018	38.06
358.23	-13.14
358.441	56.49
358.653	83.11
358.864	29.87
359.075	-23.38
359.287	21.67
359.498	52.39
359.709	-25.43
359.921	3.24
360.132	-11.09
360.344	33.96
360.555	-7
360.766	31.91
360.977	60.59
361.189	42.15
361.4	42.15
361.611	9.39
361.823	-17.24
362.034	101.55
362.245	-0.85
362.456	29.87
362.667	-2.9
362.879	-4.95
363.09	52.39
363.301	-7
363.512	62.63
363.723	27.82
363.935	54.44
364.146	52.39
364.357	-21.33
364.568	36.01
364.779	17.58
364.99	93.35
365.201	-0.85
365.412	115.88
365.623	48.3
365.834	-39.76
366.045	38.06
366.256	70.83
366.467	81.07
366.678	31.91
366.889	-7
367.1	17.58
367.311	79.02
367.522	42.15
367.733	97.45
367.944	31.91
368.155	-29.52
368.366	23.72
368.577	64.68
368.788	50.35
368.999	-25.43
369.209	62.63
369.42	-0.85
369.631	-4.95
369.842	31.91
370.053	31.91
370.264	101.55
370.474	19.63
370.685	44.2
370.896	40.11
371.107	68.78
371.317	87.21
371.528	3.24
371.739	93.35
371.95	48.3
372.16	58.54
372.371	33.96
372.582	68.78
372.792	44.2
373.003	48.3
373.214	89.26
373.424	56.49
373.635	38.06
373.846	91.31
374.056	76.97
374.267	79.02
374.477	29.87
374.688	5.29
374.898	13.48
375.109	81.07
375.319	62.63
375.53	99.5
375.74	7.34
375.951	130.22
376.161	23.72
376.372	81.07
376.582	21.67
376.793	3.24
377.003	25.77
377.214	68.78
377.424	89.26
377.635	117.93
377.845	48.3
378.055	33.96
378.266	58.54
378.476	31.91
378.686	52.39
378.897	99.5
379.107	56.49
379.317	101.55
379.528	19.63
379.738	42.15
379.948	54.44
380.158	101.55
380.369	33.96
380.579	101.55
380.789	44.2
380.999	54.44
381.21	99.5
381.42	54.44
381.63	74.92
381.84	36.01
382.05	85.16
382.261	29.87
382.471	85.16
382.681	56.49
382.891	7.34
383.101	44.2
383.311	31.91
383.521	15.53
383.731	3.24
383.941	89.26
384.151	33.96
384.361	33.96
384.571	36.01
384.781	48.3
384.991	58.54
385.201	76.97
385.411	79.02
385.621	85.16
385.831	128.17
386.041	128.17
386.251	83.11
386.461	109.74
386.671	-19.29
386.881	101.55
387.091	-9.05
387.301	101.55
387.511	68.78
387.72	58.54
387.93	83.11
388.14	105.64
388.35	17.58
388.56	21.67
388.769	81.07
388.979	76.97
389.189	62.63
389.399	64.68
389.609	31.91
389.818	113.83
390.028	19.63
390.238	-25.43
390.447	3.24
390.657	29.87
390.867	-31.57
391.076	68.78
391.286	76.97
391.496	23.72
391.705	64.68
391.915	40.11
392.125	72.87
392.334	87.21
392.544	13.48
392.753	52.39
392.963	46.25
393.172	11.43
393.382	109.74
393.591	91.31
393.801	44.2
394.01	154.79
394.22	40.11
394.429	72.87
394.639	93.35
394.848	117.93
395.058	64.68
395.267	62.63
395.477	132.26
395.686	91.31
395.895	122.02
396.105	148.65
396.314	64.68
396.524	40.11
396.733	72.87
396.942	95.4
397.152	117.93
397.361	83.11
397.57	11.43
397.78	52.39
397.989	109.74
398.198	101.55
398.407	70.83
398.617	33.96
398.826	113.83
399.035	56.49
399.244	156.84
399.453	87.21
399.663	87.21
399.872	68.78
400.081	93.35
400.29	173.22
400.499	128.17
400.708	130.22
400.917	111.78
401.127	44.2
401.336	115.88
401.545	162.98
401.754	76.97
401.963	64.68
402.172	115.88
402.381	99.5
402.59	113.83
402.799	169.13
403.008	132.26
403.217	132.26
403.426	99.5
403.635	103.59
403.844	89.26
404.053	144.55
404.262	36.01
404.471	140.46
404.68	134.31
404.888	46.25
405.097	158.89
405.306	130.22
405.515	91.31
405.724	144.55
405.933	162.98
406.142	140.46
406.35	130.22
406.559	154.79
406.768	167.08
406.977	179.37
407.185	158.89
407.394	103.59
407.603	117.93
407.812	220.33
408.02	230.57
408.229	195.75
408.438	183.46
408.646	191.66
408.855	152.74
409.064	169.13
409.272	165.03
409.481	208.04
409.69	216.23
409.898	199.85
410.107	218.28
410.315	281.77
410.524	244.9
410.733	259.24
410.941	289.96
411.15	310.44
411.358	318.63
411.567	296.1
411.775	341.16
411.984	275.62
412.192	365.73
412.401	296.1
412.609	375.97
412.818	345.25
413.026	453.8
413.234	326.82
413.443	318.63
413.651	435.36
413.86	410.79
414.068	498.85
414.276	480.42
414.485	476.32
414.693	523.43
414.901	625.83
415.11	576.67
415.318	525.47
415.526	640.16
415.734	646.3
415.943	572.58
416.151	701.6
416.359	629.92
416.567	763.04
416.776	722.08
416.984	748.7
417.192	828.57
417.4	806.05
417.608	773.28
417.817	799.9
418.025	908.44
418.233	959.64
418.441	926.88
418.649	1021.08
418.857	961.69
419.065	1117.34
419.273	1070.23
419.481	1070.23
419.689	1191.06
419.897	1229.98
420.105	1234.07
420.313	1252.5
420.521	1236.12
420.729	1256.6
420.937	1277.08
421.145	1510.55
421.353	1442.96
421.561	1485.97
421.769	1526.93
421.977	1614.99
422.185	1653.91
422.393	1778.83
422.601	1852.56
422.809	1907.85
423.017	1830.03
423.224	1881.23
423.432	1930.38
423.64	1899.66
423.848	2176.14
424.056	2075.79
424.263	2237.58
424.471	2409.61
424.679	2389.13
424.887	2372.74
425.094	2475.14
425.302	2563.2
425.51	2612.35
425.718	2479.24
425.925	2770.05
426.133	2776.19
426.341	2978.94
426.548	3071.1
426.756	3103.87
426.964	3214.46
427.171	3435.64
427.379	3421.3
427.586	3402.87
427.794	3533.94
428.001	3681.39
428.209	3861.62
428.417	3789.94
428.624	4000.88
428.832	4158.57
429.039	4041.84
429.247	3933.29
429.454	4648.04
429.662	4709.47
429.869	4447.33
430.076	4832.35
430.284	4787.3
430.491	4879.46
430.699	5168.22
430.906	5106.78
431.114	4895.84
431.321	5334.11
431.528	5356.63
431.736	5772.37
431.943	6126.67
432.15	6073.42
432.358	5995.6
432.565	6358.09
432.772	6214.73
432.979	6526.02
433.187	6616.13
433.394	6734.92
433.601	7212.09
433.808	7257.15
434.016	7205.95
434.223	7511.1
434.43	7971.89
434.637	7763
434.844	8248.36
435.052	8393.77
435.259	8356.91
435.466	8438.83
435.673	8363.05
435.88	8844.32
436.087	9280.54
436.294	9344.03
436.501	9157.66
436.708	9262.11
436.915	9610.26
437.122	9907.22
437.329	9958.42
437.537	10349.58
437.743	10443.79
437.95	10308.62
438.157	10972.16
438.364	11451.39
438.571	11273.21
438.778	11361.28
438.985	12409.84
439.192	11883.51
439.399	12035.06
439.606	12018.68
439.813	12723.18
440.02	13693.91
440.227	13188.07
440.433	13063.14
440.64	13587.42
440.847	13515.74
441.054	13900.76
441.261	14541.77
441.467	14474.19
441.674	14869.45
441.881	15186.88
442.088	15289.28
442.294	15481.79
442.501	15608.76
442.708	15797.18
442.914	16477.1
443.121	17144.74
443.328	17034.15
443.534	17888.15
443.741	17572.77
443.948	17023.91
444.154	18602.89
444.361	18389.91
444.568	18529.17
444.774	18602.89
444.981	18764.68
445.187	19032.97
445.394	20030.33
445.6	19669.89
445.807	21791.58
446.013	20552.56
446.22	20943.72
446.426	21945.18
446.633	22178.65
446.839	22541.14
447.046	21719.9
447.252	23194.44
447.459	23323.46
447.665	23026.51
447.871	23999.29
448.078	24908.59
448.284	23694.15
448.491	24408.89
448.697	25367.34
448.903	25844.51
449.11	25881.38
449.316	24984.37
449.522	25744.16
449.728	26376.98
449.935	26407.7
450.141	26903.31
450.347	27284.23
450.553	26325.78
450.76	26503.96
450.966	27517.7
451.172	27386.63
451.378	27650.82
451.584	27450.12
451.791	27876.1
451.997	27640.58
452.203	28320.51
452.409	28025.6
452.615	27937.54
452.821	26751.76
453.027	26860.3
453.233	28001.02
453.44	26944.27
453.646	27208.46
453.852	27366.15
454.058	27732.74
454.264	26759.95
454.47	27644.68
454.676	26506.01
454.882	27755.27
455.088	25045.8
455.294	25510.69
455.5	26049.31
455.705	26192.67
455.911	24972.08
456.117	24515.38
456.323	24349.5
456.529	23116.62
456.735	23941.95
456.941	23235.4
457.147	22948.68
457.352	22192.98
457.558	21791.58
457.764	22133.59
457.97	21496.67
458.176	20910.96
458.381	21078.89
458.587	19999.61
458.793	20120.44
458.999	19028.87
459.204	20319.09
459.41	19995.51
459.616	18463.63
459.821	18412.43
460.027	18447.25
460.233	18008.98
460.438	16974.76
460.644	17251.24
460.85	16489.39
461.055	16253.87
461.261	16206.77
461.466	15045.57
461.672	14703.56
461.878	15621.05
462.083	14822.34
462.289	14332.88
462.494	14113.75
462.7	13390.81
462.905	13286.37
463.111	13644.76
463.316	13892.57
463.522	13532.12
463.727	13509.6
463.932	13315.04
464.138	13521.88
464.343	13427.68
464.549	12981.22
464.754	13448.16
464.959	13206.5
465.165	13265.89
465.37	12583.91
465.575	12217.33
465.781	12747.75
465.986	12991.46
466.191	12583.91
466.397	12121.07
466.602	11664.38
466.807	11961.33
467.012	12041.2
467.218	11803.64
467.423	11676.66
467.628	11899.89
467.833	12237.81
468.038	11965.43
468.244	11463.68
468.449	11969.52
468.654	11443.2
468.859	11619.32
469.064	11598.84
469.269	11066.37
469.474	10947.59
469.679	11453.44
469.885	10775.56
470.09	11228.16
470.295	11101.19
470.5	10667.02
470.705	10898.44
470.91	10712.07
471.115	10249.23
471.32	10630.15
471.525	10685.45
471.73	10353.68
471.935	10431.5
472.139	9870.36
472.344	10120.21
472.549	9999.38
472.754	10044.43
472.959	9636.89
473.164	9413.66
473.369	9468.95
473.574	9694.23
473.778	9698.33
473.983	9335.84
474.188	9483.29
474.393	8905.76
474.598	9311.26
474.802	8952.87
475.007	9116.7
475.212	8795.17
475.417	8598.57
475.621	8645.67
475.826	8440.87
476.031	8614.95
476.235	8342.57
476.44	8342.57
476.645	8184.88
476.849	8096.82
477.054	8039.47
477.259	8125.49
477.463	8137.77
477.668	7855.15
477.872	7928.88
478.077	7752.76
478.282	7623.73
478.486	7623.73
478.691	7435.32
478.895	7572.54
479.1	7640.12
479.304	7558.2
479.509	7310.4
479.713	7228.48
479.918	7283.77
480.122	7015.49
480.326	7115.84
480.531	7298.11
480.735	6992.96
480.94	7097.41
481.144	7468.09
481.348	6982.72
481.553	7156.8
481.757	6935.62
481.961	6857.79
482.166	7105.6
482.37	6814.79
482.574	6964.29
482.778	6999.1
482.983	6992.96
483.187	7101.5
483.391	7078.97
483.595	6952
483.8	6773.83
484.004	6947.9
484.208	6921.28
484.412	6878.27
484.616	6810.69
484.821	6992.96
485.025	6872.13
485.229	7023.68
485.433	6833.22
485.637	6890.56
485.841	6829.12
486.045	6845.51
486.249	7019.58
486.453	6802.5
486.657	6894.66
486.861	6788.16
487.065	6704.2
487.269	7013.44
487.473	6878.27
487.677	6976.58
487.881	7050.3
488.085	6790.21
488.289	6937.66
488.493	6886.47
488.697	6827.07
488.901	7074.88
489.105	6831.17
489.309	7023.68
489.512	6911.04
489.716	7003.2
489.92	7054.4
490.124	6997.06
490.328	7060.54
490.531	7074.88
490.735	7169.09
490.939	7146.56
491.143	7048.26
491.346	6915.14
491.55	7191.61
491.754	7289.92
491.958	7130.17
492.161	7175.23
492.365	7285.82
492.569	7218.24
492.772	7253.05
492.976	7281.72
493.18	7328.83
493.383	7507
493.587	7369.79
493.79	7580.73
493.994	7511.1
494.197	7719.99
494.401	7461.94
494.605	7584.82
494.808	7844.91
495.012	7707.7
495.215	8016.94
495.419	7939.12
495.622	7922.74
495.825	8125.49
496.029	7992.37
496.232	8174.64
496.436	8115.25
496.639	8408.11
496.843	8242.22
497.046	8518.7
497.249	8694.82
497.453	8569.9
497.656	8741.93
497.859	8735.78
498.063	8608.81
498.266	8885.28
498.469	8905.76
498.673	9073.7
498.876	9401.37
499.079	9448.47
499.282	9323.55
499.485	9505.82
499.689	9634.84
499.892	9649.18
500.095	9573.4
500.298	9864.21
500.501	9837.59
500.705	10216.46
500.908	10400.78
501.111	10419.21
501.314	10423.31
501.517	10525.71
501.72	10581
501.923	10583.05
502.126	10867.72
502.329	10923.01
502.532	11047.94
502.735	11127.81
502.938	11625.47
503.141	11271.17
503.344	11746.3
503.547	11488.25
503.75	11705.34
503.953	12016.63
504.156	12205.04
504.359	12239.86
504.562	12067.83
504.765	12389.36
504.968	12620.78
505.17	12573.67
505.373	12858.34
505.576	12878.82
505.779	13140.96
505.982	13188.07
506.185	13317.09
506.387	13611.99
506.59	13554.65
506.793	13788.12
506.996	13745.11
507.198	14261.2
507.401	14166.99
507.604	14379.98
507.807	14377.94
508.009	14554.06
508.212	14775.24
508.415	15010.76
508.617	15164.36
508.82	14961.61
509.022	15272.9
509.225	15643.58
509.428	15633.34
509.63	15762.36
509.833	15840.18
510.035	16337.84
510.238	16110.52
510.44	16223.16
510.643	16554.93
510.845	16982.95
511.048	16667.56
511.25	16995.24
511.453	17183.65
511.655	17546.14
511.858	17376.16
512.06	17691.55
512.262	17935.26
512.465	17750.94
512.667	18006.94
512.87	18277.27
513.072	18412.43
513.274	18901.9
513.477	18807.69
513.679	19145.61
513.881	19301.25
514.084	19391.36
514.286	19360.64
514.488	19897.21
514.69	20118.39
514.893	20444.02
515.095	20097.91
515.297	20306.8
515.499	20489.07
515.701	20982.63
515.904	20839.28
516.106	20962.15
516.308	21232.49
516.51	21648.22
516.712	21500.77
516.914	22068.06
517.116	22238.04
517.318	22264.66
517.52	22311.77
517.722	22680.4
517.925	23067.47
518.127	23184.2
518.329	23325.51
518.531	22987.6
518.733	23604.03
518.935	23673.67
519.136	23917.37
519.338	24261.43
519.54	24384.31
519.742	24662.83
519.944	24652.59
520.146	25312.04
520.348	25404.2
520.55	25250.6
520.752	25537.32
520.954	25850.66
521.155	25969.44
521.357	26166.04
521.559	26823.44
521.761	26864.4
521.963	26805.01
522.164	26852.11
522.366	27282.19
522.568	27505.41
522.77	27267.85
522.971	27970.3
523.173	27822.85
523.375	28121.85
523.576	27984.64
523.778	27661.06
523.98	28388.09
524.181	28451.58
524.383	28783.35
524.584	28824.31
524.786	28771.06
524.988	28781.3
525.189	29254.38
525.391	29864.67
525.592	29528.81
525.794	30046.94
525.995	30059.23
526.197	29772.52
526.398	29836
526.6	30493.4
526.801	30345.95
527.003	30239.45
527.204	30687.96
527.406	30851.8
527.607	30855.89
527.808	31240.91
528.01	30747.35
528.211	31070.93
528.412	31310.54
528.614	31445.71
528.815	31371.98
529.016	32088.77
529.218	31455.95
529.419	31533.77
529.62	31824.58
529.822	31320.78
530.023	31351.5
530.224	31902.4
530.425	31982.27
530.626	31806.15
530.828	31920.84
531.029	32119.49
531.23	31918.79
531.431	32355
531.632	32076.48
531.833	32545.47
532.035	32348.86
532.236	32232.13
532.437	32393.92
532.638	32389.82
532.839	32572.09
533.04	32414.4
533.241	32252.61
533.442	33071.79
533.643	32596.67
533.844	32258.75
534.045	32680.63
534.246	32221.89
534.447	32686.78
534.648	32381.63
534.849	32803.51
535.05	32344.77
535.251	32623.29
535.451	32363.2
535.652	33088.18
535.853	32918.2
536.054	32484.03
536.255	33194.67
536.456	32465.6
536.657	32858.81
536.857	32645.82
537.058	32670.39
537.259	32832.18
537.46	33022.64
537.66	32578.23
537.861	32656.06
538.062	32815.8
538.263	33233.58
538.463	32680.63
538.664	32989.88
538.865	32926.39
539.065	32860.85
539.266	32242.37
539.466	32647.86
539.667	32588.47
539.868	33161.9
540.068	32813.75
540.269	32887.48
540.469	33075.89
540.67	32553.66
540.87	32576.19
541.071	32641.72
541.271	32795.32
541.472	32641.72
541.672	32543.42
541.873	32488.12
542.073	32078.53
542.274	32930.48
542.474	32778.93
542.675	32465.6
542.875	33079.99
543.075	33014.45
543.276	32244.41
543.476	32608.95
543.676	32434.88
543.877	32711.35
544.077	32328.38
544.277	32451.26
544.478	32484.03
544.678	32567.99
544.878	32228.03
545.078	32567.99
545.279	32223.93
545.479	32096.96
545.679	32520.89
545.879	32512.7
546.079	32629.43
546.28	32588.47
546.48	32248.51
546.68	32623.29
546.88	32727.74
547.08	32664.25
547.28	32346.81
547.48	32244.41
547.68	32289.47
547.88	31863.49
548.081	32123.58
548.281	32293.57
548.481	32338.62
548.681	32608.95
548.881	32318.14
549.081	32066.24
549.28	32328.38
549.48	32328.38
549.68	32312
549.88	32109.25
550.08	31922.88
550.28	32432.83
550.48	32045.76
550.68	32404.16
550.88	32148.16
551.08	32260.8
551.279	32338.62
551.479	32072.39
551.679	32432.83
551.879	31888.07
552.079	32080.58
552.278	32051.91
552.478	32223.93
552.678	32281.28
552.878	32350.91
553.077	32068.29
553.277	31918.79
553.477	32121.54
553.676	32033.47
553.876	31797.96
554.076	31890.12
554.275	31961.79
554.475	31388.36
554.674	31914.69
554.874	31935.17
555.074	31834.82
555.273	32088.77
555.473	31691.46
555.672	31591.11
555.872	31607.5
556.071	31318.73
556.271	31869.64
556.47	31453.9
556.67	31187.66
556.869	31417.04
557.068	31273.68
557.268	31105.74
557.467	31402.7
557.667	31378.12
557.866	31199.95
558.065	31091.41
558.265	31249.1
558.464	31158.99
558.663	31298.25
558.863	30751.45
559.062	31394.51
559.261	31015.63
559.461	31470.28
559.66	30546.65
559.859	31267.53
560.058	30870.23
560.258	30907.09
560.457	30368.48
560.656	30378.72
560.855	30388.95
561.054	30757.59
561.253	30452.44
561.453	30522.07
561.652	30663.38
561.851	30491.35
562.05	30397.15
562.249	29995.74
562.448	30261.98
562.647	30380.76
562.846	30106.34
563.045	29899.49
563.244	29725.41
563.443	30053.09
563.642	29590.25
563.841	29934.31
564.04	29950.69
564.239	29936.35
564.438	29160.17
564.637	29790.95
564.836	29772.52
565.035	29217.52
565.234	29442.79
565.432	29313.77
565.631	29176.56
565.83	29545.19
566.029	28949.23
566.228	28959.47
566.427	28793.59
566.625	28906.23
566.824	28838.64
567.023	29268.72
567.222	28474.1
567.42	28488.44
567.619	28453.62
567.818	28652.28
568.016	28713.72
568.215	28199.68
568.414	28355.32
568.612	28553.97
568.811	27964.16
569.01	28173.05
569.208	27566.85
569.407	28132.09
569.605	28052.22
569.804	27740.93
570.002	27515.65
570.201	27757.32
570.4	27519.75
570.598	27702.02
570.797	27157.26
570.995	27593.48
571.193	26985.23
571.392	27122.44
571.59	26780.43
571.789	27009.81
571.987	26848.02
572.186	26952.46
572.384	26759.95
572.582	26694.42
572.781	26706.71
572.979	26530.58
573.177	26675.99
573.376	26690.32
573.574	26522.39
573.772	26546.97
573.971	26282.78
574.169	26024.73
574.367	26168.09
574.565	25864.99
574.763	25918.24
574.962	25918.24
575.16	25854.75
575.358	26264.35
575.556	25334.57
575.754	26096.41
575.952	25338.66
576.151	25615.14
576.349	25094.96
576.547	24984.37
576.745	25285.42
576.943	25316.14
577.141	25150.25
577.339	25178.92
577.537	24668.98
577.735	24951.6
577.933	24408.89
578.131	24769.33
578.329	24509.24
578.527	24744.75
578.725	24533.81
578.923	24726.32
579.121	24425.27
579.319	24228.66
579.516	24492.85
579.714	24339.26
579.912	24062.78
580.11	24025.92
580.308	23837.5
580.506	24218.43
580.704	23878.46
580.901	24251.19
581.099	24294.2
581.297	23810.88
581.495	23614.27
581.692	23733.06
581.89	23405.38
582.088	23698.24
582.285	23526.21
582.483	23417.67
582.681	23104.33
582.878	23309.13
583.076	23106.38
583.274	23337.8
583.471	23159.63
583.669	23094.09
583.866	23036.75
584.064	22950.73
584.262	22426.45
584.459	23057.23
584.657	22870.86
584.854	23034.7
585.052	22291.29
585.249	22332.25
585.447	22489.94
585.644	22027.1
585.841	22152.02
586.039	22283.09
586.236	22201.18
586.434	22285.14
586.631	22102.87
586.828	21973.85
587.026	21973.85
587.223	21965.66
587.42	21578.59
587.618	21693.28
587.815	21660.51
588.012	21621.6
588.21	21693.28
588.407	21877.6
588.604	21355.36
588.801	21246.82
588.999	21177.19
589.196	21113.7
589.393	21201.77
589.59	21160.81
589.787	21250.92
589.984	21062.51
590.182	20763.5
590.379	21019.5
590.576	20568.94
590.773	20833.13
590.97	20415.35
591.167	20802.41
591.364	20691.82
591.561	20415.35
591.758	20284.28
591.955	20210.55
592.152	20611.95
592.349	20337.52
592.546	20456.31
592.743	20280.18
592.94	19907.45
593.137	20093.82
593.334	20132.73
593.531	19952.51
593.727	20007.8
593.924	19893.12
594.121	19489.67
594.318	19723.13
594.515	19401.6
594.712	19716.99
594.908	19356.55
595.105	19547.01
595.302	19299.2
595.499	19315.59
595.696	19094.41
595.892	19190.66
596.089	19372.93
596.286	19266.44
596.482	19258.24
596.679	19090.31
596.876	18916.23
597.072	18742.16
597.269	18971.53
597.466	18430.87
597.662	18760.59
597.859	18791.31
598.055	18932.62
598.252	18758.54
598.448	18365.33
598.645	18350.99
598.841	18133.91
599.038	18500.5
599.234	18318.23
599.431	18117.53
599.627	18049.94
599.824	18193.3
600.02	17900.44
600.217	18152.34
600.413	18019.22
600.609	17865.63
600.806	17798.04
601.002	17916.83
601.198	17802.14
601.395	17589.15
601.591	17445.79
601.787	17558.43
601.984	17453.98
602.18	17646.49
602.376	17435.55
602.572	17345.44
602.769	17370.02
602.965	17451.94
603.161	17095.59
603.357	16987.05
603.553	17165.22
603.75	17122.21
603.946	17091.49
604.142	16966.57
604.338	16671.66
604.534	16864.17
604.73	16604.08
604.926	16892.84
605.122	16618.41
605.318	16493.49
605.514	16403.38
605.71	16401.33
605.906	16655.28
606.102	16591.79
606.298	16583.6
606.494	16206.77
606.69	16370.61
606.886	16358.32
607.082	16169.91
607.278	16470.96
607.474	15995.83
607.67	16055.22
607.866	16149.43
608.062	16090.04
608.257	15846.33
608.453	16100.28
608.649	16038.84
608.845	16155.57
609.041	15606.72
609.236	15694.78
609.432	15776.7
609.628	15649.72
609.824	15715.26
610.019	15502.27
610.215	15737.79
610.411	15664.06
610.606	15612.86
610.802	15590.33
610.998	15215.55
611.193	15567.81
611.389	15483.84
611.584	15311.81
611.78	15223.75
611.976	15473.6
612.171	15410.11
612.367	15145.92
612.562	15066.05
612.758	15133.64
612.953	15000.52
613.149	15283.14
613.344	14883.78
613.539	15274.95
613.735	15059.91
613.93	14975.94
614.126	14908.36
614.321	14928.84
614.517	14898.12
614.712	14986.18
614.907	14678.99
615.103	14961.61
615.298	14576.59
615.493	14918.6
615.688	14554.06
615.884	14830.54
616.079	14678.99
616.274	14781.39
616.47	14625.74
616.665	14660.55
616.86	14650.32
617.055	14519.25
617.25	14433.23
617.445	14482.38
617.641	14248.91
617.836	14486.48
618.031	14037.97
618.226	14379.98
618.421	14343.12
618.616	14371.79
618.811	13829.08
619.006	14216.15
619.201	13632.47
619.396	14199.76
619.591	13585.37
619.786	14058.45
619.981	13738.97
620.176	13814.74
620.371	13560.8
620.566	13593.56
620.761	13648.86
620.956	13517.79
621.151	13374.43
621.346	13562.84
621.541	13257.7
621.735	13372.38
621.93	13097.95
622.125	13208.55
622.32	13016.04
622.515	12995.56
622.709	12944.36
622.904	12981.22
623.099	12721.13
623.294	12790.76
623.488	12751.85
623.683	12874.73
623.878	12477.42
624.072	12426.22
624.267	12555.24
624.462	12399.6
624.656	12219.38
624.851	12444.65
625.046	12258.29
625.24	12266.48
625.435	11906.04
625.629	12090.35
625.824	11883.51
626.018	12153.84
626.213	11680.76
626.407	11865.08
626.602	11746.3
626.796	11590.65
626.991	11664.38
627.185	11580.41
627.38	11406.33
627.574	11547.64
627.768	11320.32
627.963	11150.34
628.157	11066.37
628.352	11217.92
628.546	10994.69
628.74	11176.96
628.935	10968.07
629.129	10976.26
629.323	10841.09
629.517	10951.68
629.712	10853.38
629.906	10552.33
630.1	10574.86
630.294	10619.91
630.489	10718.22
630.683	10370.06
630.877	10345.48
631.071	10318.86
631.265	10370.06
631.459	10181.65
631.653	10206.22
631.848	10091.54
632.042	9921.56
632.236	10136.59
632.43	9968.66
632.624	9851.92
632.818	9784.34
633.012	9755.67
633.206	9581.59
633.4	9864.21
633.594	9528.35
633.788	9747.48
633.982	9514.01
634.176	9473.05
634.369	9346.08
634.563	9395.23
634.757	9235.49
634.951	9430.04
635.145	9266.21
635.339	9176.09
635.533	9116.7
635.726	9165.85
635.92	8954.91
636.114	8868.9
636.308	8989.73
636.501	8942.63
636.695	8764.45
636.889	8838.18
637.083	8797.22
637.276	8555.56
637.47	8770.6
637.664	8602.66
637.857	8494.12
638.051	8629.29
638.244	8426.54
638.438	8551.46
638.632	8444.97
638.825	8399.91
639.019	8475.69
639.212	8092.72
639.406	8221.74
639.599	8256.56
639.793	8307.76
639.986	8018.99
640.18	8121.39
640.373	8021.04
640.567	7975.98
640.76	7926.83
640.954	7922.74
641.147	7707.7
641.34	7746.61
641.534	7810.1
641.727	7763
641.92	7646.26
642.114	7715.89
642.307	7605.3
642.5	7564.34
642.694	7474.23
642.887	7484.47
643.08	7607.35
643.273	7302.2
643.467	7394.36
643.66	7220.28
643.853	7414.84
644.046	7300.16
644.239	7345.21
644.432	7160.89
644.626	7183.42
644.819	7314.49
645.012	7136.32
645.205	7027.78
645.398	6939.71
645.591	7007.3
645.784	6822.98
645.977	6773.83
646.17	6855.75
646.363	6798.4
646.556	6739.01
646.749	6689.86
646.942	6530.12
647.135	6628.42
647.328	6548.55
647.521	6642.76
647.714	6380.62
647.907	6614.09
648.099	6562.89
648.292	6390.86
648.485	6386.76
648.678	6456.39
648.871	6294.6
649.064	6390.86
649.256	6505.54
649.449	5954.64
649.642	6249.55
649.835	6085.71
650.027	6108.24
650.22	5983.31
650.413	6245.45
650.605	6065.23
650.798	6087.76
650.991	5878.86
651.183	5944.4
651.376	5866.58
651.568	5747.79
651.761	5903.44
651.954	5725.27
652.146	5712.98
652.339	5751.89
652.531	5760.08
652.724	5737.56
652.916	5626.96
653.109	5581.91
653.301	5715.03
653.494	5696.6
653.686	5637.2
653.879	5643.35
654.071	5536.85
654.263	5467.22
654.456	5504.09
654.648	5442.65
654.84	5311.58
655.033	5287
655.225	5377.11
655.417	5243.99
655.61	5377.11
655.802	5360.73
655.994	5200.99
656.186	5270.62
656.379	5106.78
656.571	5139.55
656.763	5096.54
656.955	5168.22
657.148	5051.49
657.34	5008.48
657.532	4895.84
657.724	4928.61
657.916	5117.02
658.108	4854.88
658.3	4951.14
658.492	4971.61
658.684	4848.74
658.876	4715.62
659.068	4756.58
659.26	4891.74
659.452	4783.2
659.644	4707.43
659.836	4754.53
660.028	4750.43
660.22	4437.09
660.412	4807.78
660.604	4535.4
660.796	4545.64
660.988	4502.63
661.18	4516.97
661.372	4564.07
661.563	4598.88
661.755	4541.54
661.947	4480.1
662.139	4226.15
662.331	4324.46
662.522	4396.14
662.714	4371.56
662.906	4496.49
663.097	4340.84
663.289	4232.3
663.481	4375.66
663.673	4277.35
663.864	4252.78
664.056	4166.76
664.247	4099.18
664.439	4152.43
664.631	4191.34
664.822	4148.33
665.014	4101.23
665.205	4054.12
665.397	4138.09
665.588	4125.8
665.78	4062.32
665.971	3970.16
666.163	4056.17
666.354	3896.43
666.546	4080.75
666.737	3841.14
666.929	3953.77
667.12	3953.77
667.311	3951.73
667.503	3726.45
667.694	3828.85
667.885	3785.84
668.077	3783.79
668.268	3791.98
668.459	3679.35
668.651	3716.21
668.842	3728.5
669.033	3841.14
669.224	3740.79
669.416	3738.74
669.607	3845.23
669.798	3728.5
669.989	3755.12
670.18	3697.78
670.371	3626.1
670.563	3642.48
670.754	3624.05
670.945	3634.29
671.136	3607.67
671.327	3722.35
671.518	3501.17
671.709	3622
671.9	3529.84
672.091	3624.05
672.282	3521.65
672.473	3652.72
672.664	3529.84
672.855	3710.07
673.046	3558.52
673.237	3499.13
673.428	3468.41
673.619	3441.78
673.809	3406.97
674	3439.73
674.191	3429.49
674.382	3325.05
674.573	3421.3
674.764	3318.9
674.954	3380.34
675.145	3372.15
675.336	3333.24
675.527	3265.66
675.717	3277.94
675.908	3271.8
676.099	3310.71
676.289	3259.51
676.48	3198.07
676.671	3251.32
676.861	3382.39
677.052	3191.93
677.243	3325.05
677.433	3241.08
677.624	3216.51
677.814	3146.87
678.005	3173.5
678.195	3177.59
678.386	3200.12
678.576	3120.25
678.767	3284.09
678.957	2952.32
679.148	3218.55
679.338	3226.75
679.529	3185.79
679.719	3214.46
679.909	3122.3
680.1	3087.48
680.29	3144.83
680.481	3251.32
680.671	3124.35
680.861	3026.04
681.052	3124.35
681.242	3048.57
681.432	3101.82
681.622	3003.52
681.813	3003.52
682.003	3042.43
682.193	3114.11
682.383	3161.21
682.573	2976.89
682.764	3040.38
682.954	2890.88
683.144	2870.4
683.334	3017.85
683.524	2995.32
683.714	2974.85
683.904	2933.89
684.094	3021.95
684.284	2909.31
684.474	2978.94
684.664	2985.09
684.854	3077.24
685.044	2888.83
685.234	2940.03
685.424	2868.35
685.614	2911.36
685.804	2927.74
685.994	2925.69
686.184	2944.13
686.374	2901.12
686.564	2911.36
686.753	2899.07
686.943	2735.23
687.133	2835.58
687.323	2878.59
687.513	2849.92
687.702	2802.82
687.892	2833.54
688.082	2882.69
688.272	2808.96
688.461	2821.25
688.651	2751.62
688.841	2708.61
689.03	2808.96
689.22	2808.96
689.41	2718.85
689.599	2751.62
689.789	2700.42
689.979	2706.56
690.168	2641.03
690.358	2645.12
690.547	2544.77
690.737	2684.03
690.926	2632.83
691.116	2479.24
691.305	2593.92
691.495	2593.92
691.684	2591.88
691.874	2600.07
692.063	2559.11
692.252	2550.92
692.442	2645.12
692.631	2442.37
692.82	2571.4
693.01	2532.48
693.199	2546.82
693.388	2460.81
693.578	2491.52
693.767	2501.76
693.956	2516.1
694.146	2501.76
694.335	2350.21
694.524	2462.85
694.713	2397.32
694.902	2493.57
695.092	2342.02
695.281	2366.6
695.47	2423.94
695.659	2276.49
695.848	2352.26
696.037	2460.81
696.226	2321.54
696.415	2305.16
696.604	2464.9
696.793	2401.41
696.982	2405.51
697.171	2415.75
697.36	2227.34
697.549	2272.39
697.738	2278.54
697.927	2321.54
698.116	2329.74
698.305	2370.69
698.494	2454.66
698.683	2325.64
698.872	2415.75
699.061	2321.54
699.25	2290.82
699.438	2331.78
699.627	2241.67
699.816	2364.55
700.005	2305.16
700.193	2256.01
700.382	2202.76
700.571	2249.86
700.76	2145.42
700.948	2395.27
701.137	2342.02
701.326	2301.06
701.514	2208.9
701.703	2354.31
701.892	2251.91
702.08	2186.38
702.269	2327.69
702.457	2262.15
702.646	2270.34
702.834	2296.97
703.023	2243.72
703.212	2309.26
703.4	2270.34
703.589	2253.96
703.777	2313.35
703.965	2198.67
704.154	2210.95
704.342	2264.2
704.531	2276.49
704.719	2229.38
704.907	2317.45
705.096	2305.16
705.284	2239.62
705.472	2268.3
705.661	2276.49
705.849	2178.19
706.037	2159.75
706.226	2167.95
706.414	2260.1
706.602	2296.97
706.79	2229.38
706.979	2225.29
707.167	2294.92
707.355	2213
707.543	2301.06
707.731	2323.59
707.919	2229.38
708.107	2227.34
708.296	2116.75
708.484	2296.97
708.672	2227.34
708.86	2153.61
709.048	2202.76
709.236	2292.87
709.424	2290.82
709.612	2256.01
709.8	2344.07
709.988	2352.26
710.176	2272.39
710.364	2333.83
710.551	2196.62
710.739	2235.53
710.927	2266.25
711.115	2258.06
711.303	2325.64
711.491	2206.86
711.679	2247.82
711.866	2299.02
712.054	2194.57
712.242	2227.34
712.43	2219.14
712.617	2253.96
712.805	2323.59
712.993	2184.33
713.181	2256.01
713.368	2290.82
713.556	2272.39
713.744	2086.03
713.931	2268.3
714.119	2143.37
714.306	2251.91
714.494	2313.35
714.682	2161.8
714.869	2237.58
715.057	2274.44
715.244	2196.62
715.432	2348.17
715.619	2270.34
715.807	2221.19
715.994	2153.61
716.182	2278.54
716.369	2239.62
716.556	2296.97
716.744	2296.97
716.931	2184.33
717.119	2229.38
717.306	2167.95
717.493	2268.3
717.681	2286.73
717.868	2243.72
718.055	2200.71
718.242	2208.9
718.43	2327.69
718.617	2233.48
718.804	2264.2
718.991	2352.26
719.179	2276.49
719.366	2167.95
719.553	2301.06
719.74	2319.5
719.927	2180.23
720.114	2333.83
720.301	2272.39
720.488	2219.14
720.676	2194.57
720.863	2319.5
721.05	2278.54
721.237	2073.74
721.424	2231.43
721.611	2333.83
721.798	2282.63
721.985	2202.76
722.172	2348.17
722.358	2284.68
722.545	2227.34
722.732	2219.14
722.919	2376.84
723.106	2215.05
723.293	2391.17
723.48	2116.75
723.667	2301.06
723.853	2321.54
724.04	2296.97
724.227	2247.82
724.414	2292.87
724.6	2307.21
724.787	2274.44
724.974	2376.84
725.161	2399.37
725.347	2116.75
725.534	2354.31
725.72	2249.86
725.907	2284.68
726.094	2163.85
726.28	2249.86
726.467	2149.51
726.653	2106.51
726.84	2380.93
727.027	2174.09
727.213	2303.11
727.4	2237.58
727.586	2192.52
727.773	2155.66
727.959	2223.24
728.145	2223.24
728.332	2210.95
728.518	2188.43
728.705	2262.15
728.891	2323.59
729.077	2247.82
729.264	2176.14
729.45	2266.25
729.636	2284.68
729.823	2167.95
730.009	2354.31
730.195	2243.72
730.382	2313.35
730.568	2346.12
730.754	2251.91
730.94	2280.58
731.126	2376.84
731.313	2462.85
731.499	2227.34
731.685	2253.96
731.871	2274.44
732.057	2124.94
732.243	2323.59
732.429	2194.57
732.615	2337.93
732.801	2241.67
732.987	2227.34
733.173	2227.34
733.359	2430.09
733.545	2319.5
733.731	2260.1
733.917	2337.93
734.103	2225.29
734.289	2157.71
734.475	2233.48
734.661	2290.82
734.847	2260.1
735.033	2124.94
735.219	2395.27
735.404	2210.95
735.59	2301.06
735.776	2167.95
735.962	2278.54
736.148	2296.97
736.333	2243.72
736.519	2278.54
736.705	2208.9
736.89	2305.16
737.076	2206.86
737.262	2223.24
737.447	2165.9
737.633	2180.23
737.819	2202.76
738.004	2137.23
738.19	2266.25
738.375	2237.58
738.561	2163.85
738.747	2264.2
738.932	2159.75
739.118	2270.34
739.303	2120.84
739.489	2161.8
739.674	2192.52
739.859	2079.88
740.045	2280.58
740.23	2253.96
740.416	2149.51
740.601	2161.8
740.786	2137.23
740.972	2024.59
741.157	2208.9
741.342	2051.21
741.528	2149.51
741.713	2106.51
741.898	2022.54
742.084	2077.83
742.269	2112.65
742.454	2098.31
742.639	2178.19
742.824	2032.78
743.01	2161.8
743.195	2110.6
743.38	2090.12
743.565	2051.21
743.75	2008.2
743.935	1944.72
744.12	1985.68
744.305	2014.35
744.49	1965.2
744.675	2096.27
744.86	2036.88
745.045	1942.67
745.23	1895.57
745.415	1959.05
745.6	1965.2
745.785	2026.64
745.97	2012.3
746.155	1989.77
746.34	1985.68
746.525	1950.86
746.71	1924.24
746.895	1834.13
747.079	1811.6
747.264	1846.41
747.449	1873.04
747.634	1838.22
747.819	1891.47
748.003	1760.4
748.188	1776.78
748.373	1705.1
748.557	1934.48
748.742	1930.38
748.927	1748.11
749.111	1797.26
749.296	1713.3
749.481	1688.72
749.665	1703.06
749.85	1678.48
750.034	1692.82
750.219	1746.06
750.404	1768.59
750.588	1799.31
750.773	1612.95
750.957	1651.86
751.141	1664.15
751.326	1660.05
751.51	1651.86
751.695	1600.66
751.879	1496.21
752.064	1596.56
752.248	1664.15
752.432	1569.94
752.617	1567.89
752.801	1600.66
752.985	1561.75
753.17	1526.93
753.354	1604.75
753.538	1571.99
753.722	1502.36
753.907	1498.26
754.091	1463.44
754.275	1518.74
754.459	1457.3
754.643	1481.88
754.828	1379.48
755.012	1422.48
755.196	1301.65
755.38	1383.57
755.564	1526.93
755.748	1383.57
755.932	1361.05
756.116	1416.34
756.3	1397.91
756.484	1279.13
756.668	1324.18
756.852	1248.41
757.036	1367.19
757.22	1350.81
757.404	1381.53
757.588	1305.75
757.772	1283.22
757.956	1320.09
758.14	1285.27
758.323	1264.79
758.507	1334.42
758.691	1242.26
758.875	1221.78
759.059	1150.11
759.242	1191.06
759.426	1223.83
759.61	1301.65
759.794	1146.01
759.977	1219.74
760.161	1262.74
760.345	1156.25
760.528	1174.68
760.712	1186.97
760.895	1270.94
761.079	1143.96
761.263	1154.2
761.446	1135.77
761.63	1107.1
761.813	1131.67
761.997	1115.29
762.18	1129.63
762.364	1266.84
762.547	1096.86
762.731	1129.63
762.914	1172.63
763.098	998.56
763.281	1072.28
763.464	1047.71
763.648	1094.81
763.831	1162.39
764.015	1055.9
764.198	1082.52
764.381	1074.33
764.564	1084.57
764.748	1016.99
764.931	1045.66
765.114	1100.95
765.297	1045.66
765.481	1045.66
765.664	1076.38
765.847	965.79
766.03	998.56
766.213	978.08
766.397	920.73
766.58	1002.65
766.763	1057.95
766.946	1055.9
767.129	961.69
767.312	982.17
767.495	935.07
767.678	959.64
767.861	918.68
768.044	998.56
768.227	928.92
768.41	935.07
768.593	1014.94
768.776	1025.18
768.959	924.83
769.142	953.5
769.324	961.69
769.507	910.49
769.69	890.01
769.873	926.88
770.056	1029.27
770.239	943.26
770.421	898.2
770.604	890.01
770.787	961.69
770.97	967.84
771.152	883.87
771.335	842.91
771.518	818.33
771.7	816.29
771.883	928.92
772.066	896.16
772.248	787.61
772.431	857.25
772.613	791.71
772.796	881.82
772.978	875.68
773.161	894.11
773.343	775.33
773.526	810.14
773.708	765.09
773.891	801.95
774.073	769.18
774.256	752.8
774.438	838.81
774.621	703.65
774.803	765.09
774.985	748.7
775.168	840.86
775.35	767.13
775.532	793.76
775.715	717.98
775.897	699.55
776.079	750.75
776.261	771.23
776.444	730.27
776.626	799.9
776.808	642.21
776.99	705.7
777.173	709.79
777.355	683.17
777.537	849.05
777.719	699.55
777.901	769.18
778.083	679.07
778.265	693.41
778.447	734.37
778.629	750.75
778.811	681.12
778.993	636.06
779.175	720.03
779.357	666.78
779.539	537.76
779.721	693.41
779.903	638.11
780.085	674.98
780.267	550.05
780.449	629.92
780.631	683.17
780.812	603.3
780.994	629.92
781.176	525.47
781.358	681.12
781.54	504.99
781.721	537.76
781.903	586.91
782.085	670.88
782.267	584.87
782.448	539.81
782.63	556.19
782.812	504.99
782.993	535.71
783.175	472.23
783.357	517.28
783.538	517.28
783.72	548
783.901	523.43
784.083	535.71
784.264	560.29
784.446	457.89
784.627	509.09
784.809	496.8
784.99	517.28
785.172	447.65
785.353	404.64
785.535	496.8
785.716	427.17
785.897	502.95
786.079	502.95
786.26	494.76
786.441	455.84
786.623	500.9
786.804	402.6
786.985	441.51
787.167	494.76
787.348	441.51
787.529	414.88
787.71	470.18
787.891	529.57
788.073	425.12
788.254	375.97
788.435	421.03
788.616	515.23
788.797	429.22
788.978	341.16
789.159	423.08
789.34	373.92
789.522	468.13
789.703	447.65
789.884	412.84
790.065	341.16
790.246	359.59
790.427	384.16
790.607	429.22
790.788	380.07
790.969	396.45
791.15	343.21
791.331	326.82
791.512	425.12
791.693	330.92
791.874	341.16
792.054	390.31
792.235	357.54
792.416	304.29
792.597	312.49
792.778	410.79
792.958	441.51
793.139	373.92
793.32	343.21
793.5	373.92
793.681	416.93
793.862	328.87
794.042	287.91
794.223	306.34
794.404	371.88
794.584	328.87
794.765	318.63
794.945	388.26
795.126	369.83
795.306	294.05
795.487	298.15
795.667	253.09
795.848	283.81
796.028	347.3
796.209	386.21
796.389	308.39
796.57	361.64
796.75	257.19
796.93	222.38
797.111	304.29
797.291	259.24
797.471	224.42
797.652	298.15
797.832	281.77
798.012	283.81
798.192	337.06
798.373	224.42
798.553	253.09
798.733	363.69
798.913	337.06
799.093	339.11
799.274	269.48
799.454	359.59
799.634	308.39
799.814	298.15
799.994	273.57
800.174	279.72
800.354	339.11
800.534	283.81
800.714	326.82
800.894	249
801.074	242.85
801.254	269.48
801.434	281.77
801.614	257.19
801.794	234.66
801.974	664.74
802.154	228.52
802.334	255.14
802.514	277.67
802.693	249
802.873	171.18
803.053	269.48
803.233	228.52
803.413	257.19
803.592	220.33
803.772	218.28
803.952	240.81
804.131	156.84
804.311	238.76
804.491	189.61
804.67	160.94
804.85	214.18
805.03	224.42
805.209	289.96
805.389	148.65
805.568	179.37
805.748	183.46
805.928	238.76
806.107	103.59
806.287	271.53
806.466	244.9
806.646	224.42
806.825	205.99
807.004	240.81
807.184	177.32
807.363	232.62
807.543	242.85
807.722	205.99
807.901	220.33
808.081	165.03
808.26	193.7
808.439	191.66
808.619	193.7
808.798	126.12
808.977	220.33
809.156	181.42
809.336	277.67
809.515	181.42
809.694	222.38
809.873	199.85
810.052	154.79
810.231	158.89
810.411	105.64
810.59	175.27
810.769	136.36
810.948	175.27
811.127	103.59
811.306	117.93
811.485	101.55
811.664	158.89
811.843	185.51
812.022	167.08
812.201	238.76
812.38	154.79
812.559	169.13
812.737	179.37
812.916	124.07
813.095	220.33
813.274	185.51
813.453	165.03
813.632	117.93
813.811	117.93
813.989	150.7
814.168	158.89
814.347	89.26
814.526	265.38
814.704	244.9
814.883	232.62
815.062	113.83
815.24	146.6
815.419	167.08
815.598	158.89
815.776	138.41
815.955	220.33
816.133	138.41
816.312	169.13
816.49	175.27
816.669	216.23
816.847	119.98
817.026	146.6
817.204	171.18
817.383	111.78
817.561	130.22
817.74	150.7
817.918	91.31
818.097	99.5
818.275	160.94
818.453	144.55
818.632	144.55
818.81	171.18
818.988	56.49
819.167	201.9
819.345	150.7
819.523	158.89
819.701	156.84
819.879	134.31
820.058	187.56
820.236	117.93
820.414	183.46
820.592	134.31
820.77	173.22
820.948	136.36
821.127	52.39
821.305	162.98
821.483	107.69
821.661	154.79
821.839	183.46
822.017	97.45
822.195	146.6
822.373	162.98
822.551	144.55
822.729	126.12
822.907	79.02
823.085	142.5
823.262	154.79
823.44	126.12
823.618	150.7
823.796	146.6
823.974	130.22
824.152	130.22
824.329	105.64
824.507	183.46
824.685	130.22
824.863	111.78
825.04	85.16
825.218	169.13
825.396	115.88
825.574	113.83
825.751	72.87
825.929	85.16
826.107	124.07
826.284	146.6
826.462	109.74
826.639	144.55
826.817	72.87
826.994	177.32
827.172	42.15
827.349	171.18
827.527	179.37
827.704	56.49
827.882	134.31
828.059	87.21
828.237	68.78
828.414	105.64
828.591	113.83
828.769	97.45
828.946	42.15
829.124	138.41
829.301	146.6
829.478	72.87
829.655	48.3
829.833	89.26
830.01	117.93
830.187	117.93
830.364	50.35
830.542	66.73
830.719	173.22
830.896	58.54
831.073	64.68
831.25	109.74
831.427	130.22
831.604	142.5
831.782	70.83
831.959	85.16
832.136	87.21
832.313	42.15
832.49	95.4
832.667	62.63
832.844	85.16
833.021	74.92
833.198	91.31
833.374	109.74
833.551	150.7
833.728	128.17
833.905	109.74
834.082	62.63
834.259	109.74
834.436	109.74
834.612	81.07
834.789	117.93
834.966	13.48
835.143	81.07
835.319	62.63
835.496	115.88
835.673	81.07
835.85	-2.9
836.026	56.49
836.203	76.97
836.38	89.26
836.556	89.26
836.733	93.35
836.909	44.2
837.086	11.43
837.262	9.39
837.439	87.21
837.616	107.69
837.792	95.4
837.968	72.87
838.145	36.01
838.321	56.49
838.498	-4.95
838.674	68.78
838.851	40.11
839.027	60.59
839.203	54.44
839.38	146.6
839.556	113.83
839.732	132.26
839.909	33.96
840.085	117.93
840.261	15.53
840.437	46.25
840.614	89.26
840.79	66.73
840.966	68.78
841.142	64.68
841.318	62.63
841.494	126.12
841.671	142.5
841.847	76.97
842.023	19.63
842.199	97.45
842.375	122.02
842.551	87.21
842.727	15.53
842.903	138.41
843.079	-17.24
843.255	68.78
843.431	46.25
843.607	76.97
843.783	-7
843.959	103.59
844.134	89.26
844.31	1.19
844.486	64.68
844.662	40.11
844.838	21.67
845.013	72.87
845.189	7.34
845.365	72.87
845.541	29.87
845.716	56.49
845.892	52.39
846.068	60.59
846.244	-43.86
846.419	97.45
846.595	42.15
846.77	89.26
846.946	79.02
847.122	93.35
847.297	107.69
847.473	64.68
847.648	79.02
847.824	81.07
847.999	95.4
848.175	95.4
848.35	72.87
848.526	109.74
848.701	31.91
848.876	68.78
849.052	62.63
849.227	36.01
849.403	74.92
849.578	17.58
849.753	97.45
849.929	46.25
850.104	15.53
850.279	36.01
850.454	136.36
850.63	72.87
850.805	70.83
850.98	11.43
851.155	-19.29
851.33	87.21
851.505	29.87
851.681	119.98
851.856	46.25
852.031	25.77
852.206	58.54
852.381	40.11
852.556	95.4
852.731	31.91
852.906	27.82
853.081	31.91
853.256	7.34
853.431	40.11
853.606	-21.33
853.781	62.63
853.956	-0.85
854.131	44.2
854.305	19.63
854.48	-0.85
854.655	33.96
854.83	42.15
855.005	-2.9
855.18	23.72
855.354	11.43
855.529	50.35
855.704	-4.95
855.879	81.07
856.053	9.39
856.228	48.3
856.403	72.87
856.577	54.44
856.752	23.72
856.926	40.11
857.101	27.82
857.276	-27.48
857.45	52.39
857.625	-17.24
857.799	33.96
857.974	113.83
858.148	9.39
858.323	13.48
858.497	-0.85
858.672	50.35
858.846	40.11
859.02	52.39
859.195	-4.95
859.369	167.08
859.543	76.97
859.718	13.48
859.892	3.24
860.066	62.63
860.241	-17.24
860.415	-13.14
860.589	46.25
860.763	21.67
860.938	-31.57
861.112	66.73
861.286	9.39
861.46	70.83
861.634	3.24
861.808	33.96
861.982	-33.62
862.157	50.35
862.331	23.72
862.505	-7
862.679	79.02
862.853	23.72
863.027	50.35
863.201	19.63
863.375	27.82
863.549	-9.05
863.722	83.11
863.896	17.58
864.07	79.02
864.244	31.91
864.418	9.39
864.592	9.39
864.766	79.02
864.939	66.73
865.113	15.53
865.287	66.73
865.461	64.68
865.634	9.39
865.808	40.11
865.982	3.24
866.156	72.87
866.329	-25.43
866.503	-2.9
866.676	74.92
866.85	-25.43
867.024	48.3
867.197	-9.05
867.371	52.39
867.544	13.48
867.718	-31.57
867.891	87.21
868.065	-7
868.238	33.96
868.412	48.3
868.585	-17.24
868.759	-60.24
868.932	48.3
869.105	-27.48
869.279	95.4
869.452	-68.44
869.625	60.59
869.799	70.83
869.972	-19.29
870.145	-23.38
870.319	66.73
870.492	27.82
870.665	-43.86
870.838	29.87
871.011	38.06
871.185	17.58
871.358	23.72
871.531	23.72
871.704	21.67
871.877	46.25
872.05	31.91
872.223	48.3
872.396	97.45
872.569	-0.85
872.742	23.72
872.915	9.39
873.088	58.54
873.261	25.77
873.434	25.77
873.607	-4.95
873.78	66.73
873.953	36.01
874.126	-0.85
874.299	46.25
874.471	15.53
874.644	29.87
874.817	9.39
874.99	83.11
875.163	1.19
875.335	85.16
875.508	60.59
875.681	89.26
875.853	5.29
876.026	-13.14
876.199	52.39
876.371	7.34
876.544	44.2
876.717	-11.09
876.889	48.3
877.062	70.83
877.234	-31.57
877.407	56.49
877.579	11.43
877.752	23.72
877.924	-4.95
878.097	38.06
878.269	-15.19
878.442	-19.29
878.614	44.2
878.786	68.78
878.959	50.35
879.131	-4.95
879.303	-31.57
879.476	-0.85
879.648	29.87
879.82	-25.43
879.993	46.25
880.165	-7
880.337	-54.1
880.509	-4.95
880.681	-45.91
880.854	-45.91
881.026	-45.91
881.198	89.26
881.37	38.06
881.542	40.11
881.714	44.2
881.886	40.11
882.058	29.87
882.23	85.16
882.402	-27.48
882.574	46.25
882.746	36.01
882.918	74.92
883.09	23.72
883.262	-19.29
883.434	5.29
883.606	25.77
883.778	-23.38
883.95	79.02
884.122	19.63
884.293	44.2
884.465	-45.91
884.637	7.34
884.809	-15.19
884.98	1.19
885.152	1.19
885.324	72.87
885.496	33.96
885.667	5.29
885.839	-86.87
886.011	40.11
886.182	54.44
886.354	56.49
886.525	31.91
886.697	-4.95
886.869	36.01
887.04	29.87
887.212	-33.62
887.383	62.63
887.555	15.53
887.726	13.48
887.897	31.91
888.069	-39.76
888.24	-0.85
888.412	-19.29
888.583	-70.48
888.754	7.34
888.926	-74.58
889.097	64.68
889.268	-31.57
889.44	1.19
889.611	44.2
889.782	3.24
889.953	1.19
890.125	99.5
890.296	-0.85
890.467	1.19
890.638	3.24
890.809	70.83
890.98	48.3
891.151	19.63
891.323	44.2
891.494	27.82
891.665	-11.09
891.836	91.31
892.007	31.91
892.178	3.24
892.349	-19.29
892.52	7.34
892.691	-0.85
892.862	54.44
893.032	27.82
893.203	64.68
893.374	38.06
893.545	7.34
893.716	-56.15
893.887	46.25
894.057	-50
894.228	60.59
894.399	7.34
894.57	33.96
894.74	27.82
894.911	-13.14
895.082	3.24
895.253	38.06
895.423	-33.62
895.594	66.73
895.764	13.48
895.935	54.44
896.106	15.53
896.276	-54.1
896.447	15.53
896.617	-9.05
896.788	3.24
896.958	-0.85
897.129	-15.19
897.299	-88.92
897.47	31.91
897.64	105.64
897.81	9.39
897.981	42.15
898.151	42.15
898.322	36.01
898.492	3.24
898.662	-50
898.832	-17.24
899.003	15.53
899.173	68.78
899.343	-43.86
899.513	-47.96
