Data from USB4F104151__159__11-08-33-889.txt Node

Date: Wed Mar 12 11:08:33 EDT 2025
User: louis
Spectrometer: USB4F10415
Trigger mode: 4
Integration Time (sec): 2.000000E-2
Scans to average: 1
Electric dark correction enabled: true
Nonlinearity correction enabled: false
Boxcar width: 0
XAxis mode: Wavelengths
Number of Pixels in Spectrum: 3648
>>>>>Begin Spectral Data<<<<<
178.204	-124.76
178.424	-124.76
178.644	-124.76
178.864	-73.56
179.084	-83.8
179.304	-42.84
179.524	22.7
179.744	30.89
179.964	4.27
180.184	-14.17
180.404	-3.93
180.624	-69.46
180.844	-18.26
181.064	53.42
181.283	-10.07
181.503	30.89
181.723	16.55
181.943	-71.51
182.163	61.61
182.383	-34.64
182.602	61.61
182.822	12.46
183.042	22.7
183.262	49.32
183.482	0.17
183.701	-3.93
183.921	20.65
184.141	8.36
184.361	73.9
184.58	34.99
184.8	-20.31
185.02	-34.64
185.239	53.42
185.459	4.27
185.679	121
185.898	-14.17
186.118	-20.31
186.338	10.41
186.557	53.42
186.777	-12.12
186.997	-34.64
187.216	-22.36
187.436	53.42
187.655	-5.97
187.875	57.51
188.095	8.36
188.314	30.89
188.534	8.36
188.753	94.38
188.973	24.75
189.192	47.27
189.412	12.46
189.631	59.56
189.851	-22.36
190.07	-8.02
190.29	4.27
190.509	-18.26
190.729	-10.07
190.948	6.31
191.168	102.57
191.387	-32.6
191.607	34.99
191.826	100.52
192.045	34.99
192.265	20.65
192.484	26.79
192.704	-5.97
192.923	-89.94
193.142	12.46
193.362	18.6
193.581	37.03
193.8	-3.93
194.02	-8.02
194.239	8.36
194.458	34.99
194.678	-8.02
194.897	-75.6
195.116	8.36
195.335	-22.36
195.555	-20.31
195.774	2.22
195.993	57.51
196.212	-1.88
196.432	53.42
196.651	-42.84
196.87	-30.55
197.089	45.23
197.308	12.46
197.528	43.18
197.747	4.27
197.966	51.37
198.185	88.23
198.404	32.94
198.623	-26.45
198.842	10.41
199.062	16.55
199.281	69.8
199.5	4.27
199.719	37.03
199.938	34.99
200.157	10.41
200.376	86.19
200.595	-14.17
200.814	26.79
201.033	67.75
201.252	-5.97
201.471	-26.45
201.69	20.65
201.909	-22.36
202.128	131.24
202.347	116.9
202.566	-55.12
202.785	-12.12
203.004	-104.28
203.223	73.9
203.442	45.23
203.661	30.89
203.879	-1.88
204.098	-3.93
204.317	-28.5
204.536	-61.27
204.755	22.7
204.974	-55.12
205.193	0.17
205.411	88.23
205.63	-28.5
205.849	53.42
206.068	-40.79
206.287	55.47
206.505	2.22
206.724	102.57
206.943	28.84
207.162	-24.4
207.381	-14.17
207.599	49.32
207.818	10.41
208.037	30.89
208.255	-44.88
208.474	61.61
208.693	61.61
208.911	12.46
209.13	22.7
209.349	32.94
209.567	-34.64
209.786	12.46
210.005	-22.36
210.223	-36.69
210.442	-5.97
210.661	63.66
210.879	-44.88
211.098	20.65
211.316	39.08
211.535	57.51
211.753	41.13
211.972	26.79
212.191	0.17
212.409	-1.88
212.628	-20.31
212.846	12.46
213.065	-46.93
213.283	8.36
213.502	-46.93
213.72	53.42
213.938	6.31
214.157	45.23
214.375	47.27
214.594	-10.07
214.812	18.6
215.031	-18.26
215.249	-32.6
215.467	-46.93
215.686	41.13
215.904	24.75
216.122	-44.88
216.341	67.75
216.559	18.6
216.778	16.55
216.996	-28.5
217.214	0.17
217.432	47.27
217.651	32.94
217.869	26.79
218.087	8.36
218.306	28.84
218.524	43.18
218.742	2.22
218.96	4.27
219.179	-14.17
219.397	10.41
219.615	-36.69
219.833	-20.31
220.051	37.03
220.27	47.27
220.488	4.27
220.706	39.08
220.924	12.46
221.142	-22.36
221.36	18.6
221.578	88.23
221.796	-48.98
222.015	28.84
222.233	20.65
222.451	-53.08
222.669	-18.26
222.887	-1.88
223.105	2.22
223.323	80.04
223.541	12.46
223.759	55.47
223.977	-16.21
224.195	59.56
224.413	26.79
224.631	12.46
224.849	-5.97
225.067	127.14
225.285	59.56
225.503	-22.36
225.721	-12.12
225.939	94.38
226.157	28.84
226.375	51.37
226.592	0.17
226.81	-1.88
227.028	-28.5
227.246	57.51
227.464	-16.21
227.682	-24.4
227.9	2.22
228.117	6.31
228.335	26.79
228.553	2.22
228.771	49.32
228.989	45.23
229.206	39.08
229.424	-48.98
229.642	-46.93
229.86	-16.21
230.077	26.79
230.295	59.56
230.513	-30.55
230.731	65.71
230.948	-3.93
231.166	69.8
231.384	-28.5
231.601	-8.02
231.819	41.13
232.037	37.03
232.254	-28.5
232.472	45.23
232.689	67.75
232.907	10.41
233.125	34.99
233.342	16.55
233.56	6.31
233.777	-1.88
233.995	4.27
234.213	61.61
234.43	32.94
234.648	67.75
234.865	-57.17
235.083	22.7
235.3	8.36
235.518	106.67
235.735	-24.4
235.953	-20.31
236.17	-36.69
236.388	6.31
236.605	47.27
236.822	-40.79
237.04	-16.21
237.257	-10.07
237.475	8.36
237.692	84.14
237.909	4.27
238.127	37.03
238.344	41.13
238.562	26.79
238.779	12.46
238.996	22.7
239.214	37.03
239.431	30.89
239.648	32.94
239.865	43.18
240.083	57.51
240.3	41.13
240.517	53.42
240.735	12.46
240.952	90.28
241.169	123.05
241.386	59.56
241.603	-32.6
241.821	0.17
242.038	45.23
242.255	30.89
242.472	-59.22
242.689	-8.02
242.907	55.47
243.124	77.99
243.341	-16.21
243.558	-40.79
243.775	10.41
243.992	-48.98
244.209	73.9
244.426	67.75
244.643	16.55
244.86	-59.22
245.078	55.47
245.295	47.27
245.512	-63.32
245.729	77.99
245.946	24.75
246.163	37.03
246.38	4.27
246.597	-3.93
246.814	-24.4
247.031	-32.6
247.248	61.61
247.464	90.28
247.681	61.61
247.898	12.46
248.115	18.6
248.332	-8.02
248.549	4.27
248.766	14.51
248.983	88.23
249.2	-38.74
249.417	49.32
249.633	45.23
249.85	4.27
250.067	-10.07
250.284	4.27
250.501	-61.27
250.717	51.37
250.934	-24.4
251.151	-22.36
251.368	-1.88
251.585	65.71
251.801	80.04
252.018	75.95
252.235	-3.93
252.451	-89.94
252.668	53.42
252.885	-38.74
253.102	-22.36
253.318	53.42
253.535	-65.36
253.752	0.17
253.968	114.86
254.185	-1.88
254.401	-12.12
254.618	24.75
254.835	-30.55
255.051	45.23
255.268	49.32
255.484	88.23
255.701	39.08
255.917	30.89
256.134	16.55
256.351	53.42
256.567	-1.88
256.784	43.18
257	-1.88
257.217	-3.93
257.433	24.75
257.65	28.84
257.866	53.42
258.082	-30.55
258.299	45.23
258.515	2.22
258.732	8.36
258.948	-91.99
259.165	37.03
259.381	53.42
259.597	12.46
259.814	59.56
260.03	-1.88
260.246	-22.36
260.463	-26.45
260.679	65.71
260.895	-14.17
261.112	-12.12
261.328	39.08
261.544	37.03
261.761	86.19
261.977	14.51
262.193	4.27
262.409	14.51
262.626	51.37
262.842	41.13
263.058	8.36
263.274	24.75
263.49	65.71
263.707	49.32
263.923	16.55
264.139	59.56
264.355	110.76
264.571	71.85
264.787	55.47
265.004	12.46
265.22	37.03
265.436	-28.5
265.652	94.38
265.868	-12.12
266.084	18.6
266.3	82.09
266.516	12.46
266.732	51.37
266.948	-51.03
267.164	110.76
267.38	30.89
267.596	75.95
267.812	24.75
268.028	-32.6
268.244	4.27
268.46	18.6
268.676	6.31
268.892	37.03
269.108	10.41
269.324	-16.21
269.54	-67.41
269.756	57.51
269.972	10.41
270.188	-16.21
270.403	0.17
270.619	6.31
270.835	0.17
271.051	75.95
271.267	45.23
271.483	49.32
271.698	-46.93
271.914	-53.08
272.13	55.47
272.346	-3.93
272.562	16.55
272.777	49.32
272.993	41.13
273.209	59.56
273.425	22.7
273.64	-5.97
273.856	43.18
274.072	55.47
274.287	49.32
274.503	32.94
274.719	26.79
274.934	-3.93
275.15	2.22
275.366	51.37
275.581	49.32
275.797	-40.79
276.012	-14.17
276.228	-38.74
276.444	16.55
276.659	34.99
276.875	-8.02
277.09	30.89
277.306	16.55
277.521	32.94
277.737	24.75
277.952	8.36
278.168	34.99
278.383	-20.31
278.599	10.41
278.814	0.17
279.03	0.17
279.245	65.71
279.461	-53.08
279.676	32.94
279.892	4.27
280.107	2.22
280.322	41.13
280.538	65.71
280.753	22.7
280.969	32.94
281.184	-16.21
281.399	59.56
281.615	-28.5
281.83	45.23
282.045	-12.12
282.26	24.75
282.476	20.65
282.691	6.31
282.906	-48.98
283.122	12.46
283.337	6.31
283.552	10.41
283.767	-22.36
283.983	67.75
284.198	-8.02
284.413	51.37
284.628	-65.36
284.843	0.17
285.058	77.99
285.274	61.61
285.489	-3.93
285.704	10.41
285.919	8.36
286.134	16.55
286.349	-10.07
286.564	84.14
286.779	67.75
286.995	59.56
287.21	18.6
287.425	41.13
287.64	0.17
287.855	0.17
288.07	63.66
288.285	37.03
288.5	20.65
288.715	-53.08
288.93	26.79
289.145	65.71
289.36	8.36
289.575	-8.02
289.79	6.31
290.004	-1.88
290.219	59.56
290.434	34.99
290.649	73.9
290.864	18.6
291.079	-40.79
291.294	4.27
291.509	32.94
291.724	32.94
291.938	51.37
292.153	-36.69
292.368	47.27
292.583	10.41
292.798	2.22
293.012	-8.02
293.227	14.51
293.442	57.51
293.657	-14.17
293.871	63.66
294.086	-63.32
294.301	75.95
294.516	37.03
294.73	-32.6
294.945	-8.02
295.16	32.94
295.374	77.99
295.589	-65.36
295.804	-1.88
296.018	10.41
296.233	77.99
296.447	10.41
296.662	30.89
296.877	32.94
297.091	30.89
297.306	24.75
297.52	20.65
297.735	-12.12
297.949	-12.12
298.164	2.22
298.378	10.41
298.593	34.99
298.807	-65.36
299.022	61.61
299.236	-18.26
299.451	-16.21
299.665	-22.36
299.88	26.79
300.094	-1.88
300.309	16.55
300.523	57.51
300.737	80.04
300.952	84.14
301.166	8.36
301.381	80.04
301.595	-28.5
301.809	57.51
302.024	-38.74
302.238	-44.88
302.452	22.7
302.667	30.89
302.881	32.94
303.095	55.47
303.309	37.03
303.524	32.94
303.738	-30.55
303.952	4.27
304.166	47.27
304.381	12.46
304.595	14.51
304.809	10.41
305.023	57.51
305.237	41.13
305.452	57.51
305.666	47.27
305.88	88.23
306.094	39.08
306.308	0.17
306.522	39.08
306.736	37.03
306.95	14.51
307.164	8.36
307.379	2.22
307.593	8.36
307.807	26.79
308.021	-3.93
308.235	-32.6
308.449	-14.17
308.663	73.9
308.877	41.13
309.091	69.8
309.305	53.42
309.519	-26.45
309.733	73.9
309.947	-12.12
310.161	-5.97
310.374	10.41
310.588	20.65
310.802	86.19
311.016	-16.21
311.23	-8.02
311.444	-65.36
311.658	57.51
311.872	18.6
312.085	65.71
312.299	82.09
312.513	80.04
312.727	24.75
312.941	-40.79
313.154	18.6
313.368	28.84
313.582	18.6
313.796	-57.17
314.009	63.66
314.223	30.89
314.437	39.08
314.651	6.31
314.864	57.51
315.078	8.36
315.292	-87.89
315.505	65.71
315.719	34.99
315.933	-26.45
316.146	39.08
316.36	-14.17
316.573	32.94
316.787	-65.36
317.001	94.38
317.214	-69.46
317.428	45.23
317.641	-8.02
317.855	8.36
318.068	-51.03
318.282	82.09
318.495	108.71
318.709	22.7
318.922	-10.07
319.136	92.33
319.349	102.57
319.563	-5.97
319.776	51.37
319.99	-8.02
320.203	32.94
320.417	69.8
320.63	28.84
320.843	8.36
321.057	37.03
321.27	57.51
321.483	-38.74
321.697	4.27
321.91	20.65
322.124	28.84
322.337	-14.17
322.55	-16.21
322.763	51.37
322.977	4.27
323.19	26.79
323.403	82.09
323.617	59.56
323.83	84.14
324.043	28.84
324.256	63.66
324.469	18.6
324.683	69.8
324.896	32.94
325.109	61.61
325.322	16.55
325.535	49.32
325.748	71.85
325.962	45.23
326.175	-3.93
326.388	37.03
326.601	4.27
326.814	53.42
327.027	77.99
327.24	63.66
327.453	-51.03
327.666	86.19
327.879	32.94
328.092	-24.4
328.305	32.94
328.518	24.75
328.731	65.71
328.944	49.32
329.157	51.37
329.37	168.1
329.583	82.09
329.796	80.04
330.009	20.65
330.222	-48.98
330.435	106.67
330.648	-8.02
330.861	6.31
331.073	24.75
331.286	-24.4
331.499	22.7
331.712	37.03
331.925	51.37
332.138	10.41
332.35	49.32
332.563	30.89
332.776	67.75
332.989	-22.36
333.202	-51.03
333.414	41.13
333.627	24.75
333.84	-30.55
334.053	8.36
334.265	14.51
334.478	-10.07
334.691	61.61
334.903	10.41
335.116	10.41
335.329	55.47
335.541	4.27
335.754	102.57
335.966	-42.84
336.179	-30.55
336.392	57.51
336.604	16.55
336.817	4.27
337.029	20.65
337.242	-24.4
337.454	147.62
337.667	-3.93
337.88	45.23
338.092	18.6
338.305	-16.21
338.517	43.18
338.729	20.65
338.942	6.31
339.154	32.94
339.367	12.46
339.579	-3.93
339.792	102.57
340.004	108.71
340.217	92.33
340.429	-3.93
340.641	-28.5
340.854	59.56
341.066	-3.93
341.278	12.46
341.491	16.55
341.703	-12.12
341.915	57.51
342.128	16.55
342.34	-22.36
342.552	4.27
342.764	22.7
342.977	45.23
343.189	77.99
343.401	28.84
343.613	2.22
343.826	-20.31
344.038	14.51
344.25	47.27
344.462	-59.22
344.674	53.42
344.886	16.55
345.099	59.56
345.311	-12.12
345.523	-8.02
345.735	47.27
345.947	71.85
346.159	-14.17
346.371	51.37
346.583	-24.4
346.795	61.61
347.007	28.84
347.219	37.03
347.431	10.41
347.643	61.61
347.855	-77.65
348.067	-10.07
348.279	57.51
348.491	34.99
348.703	18.6
348.915	57.51
349.127	10.41
349.339	63.66
349.551	49.32
349.763	84.14
349.975	-1.88
350.187	47.27
350.399	61.61
350.61	26.79
350.822	53.42
351.034	34.99
351.246	-38.74
351.458	-24.4
351.669	-3.93
351.881	51.37
352.093	102.57
352.305	96.43
352.517	37.03
352.728	0.17
352.94	16.55
353.152	-3.93
353.363	4.27
353.575	88.23
353.787	0.17
353.999	-32.6
354.21	18.6
354.422	28.84
354.633	24.75
354.845	-28.5
355.057	14.51
355.268	8.36
355.48	61.61
355.692	-20.31
355.903	75.95
356.115	55.47
356.326	41.13
356.538	0.17
356.749	32.94
356.961	116.9
357.172	49.32
357.384	-16.21
357.595	75.95
357.807	45.23
358.018	67.75
358.23	133.29
358.441	82.09
358.653	49.32
358.864	-20.31
359.075	-8.02
359.287	20.65
359.498	125.1
359.709	80.04
359.921	59.56
360.132	65.71
360.344	12.46
360.555	6.31
360.766	10.41
360.977	20.65
361.189	10.41
361.4	20.65
361.611	-16.21
361.823	12.46
362.034	100.52
362.245	114.86
362.456	-26.45
362.667	47.27
362.879	30.89
363.09	4.27
363.301	88.23
363.512	39.08
363.723	55.47
363.935	69.8
364.146	22.7
364.357	71.85
364.568	69.8
364.779	-5.97
364.99	77.99
365.201	-102.23
365.412	71.85
365.623	37.03
365.834	43.18
366.045	88.23
366.256	63.66
366.467	45.23
366.678	34.99
366.889	18.6
367.1	82.09
367.311	77.99
367.522	4.27
367.733	75.95
367.944	43.18
368.155	8.36
368.366	37.03
368.577	16.55
368.788	41.13
368.999	-8.02
369.209	8.36
369.42	112.81
369.631	41.13
369.842	67.75
370.053	-30.55
370.264	77.99
370.474	43.18
370.685	71.85
370.896	49.32
371.107	24.75
371.317	84.14
371.528	10.41
371.739	104.62
371.95	-5.97
372.16	34.99
372.371	61.61
372.582	12.46
372.792	61.61
373.003	14.51
373.214	4.27
373.424	57.51
373.635	-26.45
373.846	39.08
374.056	41.13
374.267	-3.93
374.477	43.18
374.688	139.43
374.898	63.66
375.109	-3.93
375.319	32.94
375.53	86.19
375.74	30.89
375.951	59.56
376.161	37.03
376.372	30.89
376.582	-16.21
376.793	12.46
377.003	34.99
377.214	-12.12
377.424	43.18
377.635	43.18
377.845	-16.21
378.055	45.23
378.266	4.27
378.476	34.99
378.686	34.99
378.897	26.79
379.107	133.29
379.317	34.99
379.528	39.08
379.738	84.14
379.948	39.08
380.158	92.33
380.369	51.37
380.579	61.61
380.789	-12.12
380.999	96.43
381.21	98.47
381.42	14.51
381.63	92.33
381.84	75.95
382.05	77.99
382.261	61.61
382.471	51.37
382.681	30.89
382.891	98.47
383.101	82.09
383.311	-10.07
383.521	90.28
383.731	45.23
383.941	75.95
384.151	88.23
384.361	59.56
384.571	86.19
384.781	77.99
384.991	-20.31
385.201	77.99
385.411	106.67
385.621	73.9
385.831	12.46
386.041	86.19
386.251	32.94
386.461	108.71
386.671	127.14
386.881	90.28
387.091	-12.12
387.301	98.47
387.511	18.6
387.72	28.84
387.93	10.41
388.14	57.51
388.35	32.94
388.56	73.9
388.769	49.32
388.979	137.38
389.189	16.55
389.399	108.71
389.609	106.67
389.818	12.46
390.028	90.28
390.238	100.52
390.447	47.27
390.657	98.47
390.867	22.7
391.076	39.08
391.286	96.43
391.496	131.24
391.705	12.46
391.915	108.71
392.125	63.66
392.334	47.27
392.544	114.86
392.753	18.6
392.963	10.41
393.172	16.55
393.382	12.46
393.591	102.57
393.801	125.1
394.01	90.28
394.22	63.66
394.429	45.23
394.639	45.23
394.848	88.23
395.058	112.81
395.267	88.23
395.477	100.52
395.686	65.71
395.895	129.19
396.105	141.48
396.314	77.99
396.524	114.86
396.733	71.85
396.942	30.89
397.152	106.67
397.361	133.29
397.57	75.95
397.78	90.28
397.989	53.42
398.198	108.71
398.407	45.23
398.617	102.57
398.826	84.14
399.035	110.76
399.244	114.86
399.453	102.57
399.663	149.67
399.872	153.77
400.081	61.61
400.29	139.43
400.499	118.95
400.708	194.73
400.917	139.43
401.127	61.61
401.336	108.71
401.545	202.92
401.754	145.58
401.963	137.38
402.172	141.48
402.381	86.19
402.59	137.38
402.799	151.72
403.008	143.53
403.217	176.3
403.426	96.43
403.635	92.33
403.844	104.62
404.053	200.87
404.262	143.53
404.471	178.34
404.68	204.97
404.888	231.59
405.097	161.96
405.306	168.1
405.515	184.49
405.724	159.91
405.933	196.78
406.142	217.26
406.35	295.08
406.559	229.54
406.768	192.68
406.977	245.93
407.185	274.6
407.394	235.69
407.603	202.92
407.812	233.64
408.02	256.17
408.229	290.98
408.438	274.6
408.646	262.31
408.855	250.02
409.064	286.89
409.272	272.55
409.481	327.85
409.69	258.21
409.898	364.71
410.107	295.08
410.315	438.44
410.524	325.8
410.733	389.28
410.941	417.96
411.15	450.72
411.358	420
411.567	405.67
411.775	475.3
411.984	497.83
412.192	442.53
412.401	610.47
412.609	567.46
412.818	508.07
413.026	510.11
413.234	569.51
413.443	676
413.651	604.32
413.86	626.85
414.068	716.96
414.276	669.86
414.485	780.45
414.693	706.72
414.901	731.3
415.11	864.41
415.318	798.88
415.526	864.41
415.734	946.33
415.943	925.85
416.151	1005.72
416.359	966.81
416.567	1067.16
416.776	1061.02
416.984	1116.31
417.192	1157.27
417.4	1198.23
417.608	1175.7
417.817	1173.66
418.025	1249.43
418.233	1333.4
418.441	1372.31
418.649	1400.98
418.857	1480.85
419.065	1575.06
419.273	1454.23
419.481	1517.72
419.689	1740.94
419.897	1792.14
420.105	1816.72
420.313	1786
420.521	1886.35
420.729	2007.18
420.937	2023.56
421.145	2070.67
421.353	2224.26
421.561	2195.59
421.769	2416.77
421.977	2412.68
422.185	2402.44
422.393	2504.84
422.601	2809.98
422.809	2756.74
423.017	2670.72
423.224	2910.33
423.432	3068.03
423.64	2998.4
423.848	3213.43
424.056	3233.91
424.263	3350.65
424.471	3432.57
424.679	3483.77
424.887	3659.89
425.094	3661.94
425.302	3756.15
425.51	3971.18
425.718	3977.33
425.925	4100.2
426.133	4302.95
426.341	4511.85
426.548	4585.57
426.756	4671.59
426.964	4657.25
427.171	5120.09
427.379	5038.17
427.586	5288.03
427.794	5415
428.001	5718.1
428.209	5869.65
428.417	5822.55
428.624	6170.7
428.832	6279.24
429.039	6154.32
429.247	6182.99
429.454	6711.36
429.662	7135.29
429.869	6531.14
430.076	7106.62
430.284	6924.35
430.491	7381.05
430.699	7749.68
430.906	7802.93
431.114	7708.73
431.321	8081.46
431.528	8110.13
431.736	8523.82
431.943	9211.93
432.15	8785.96
432.358	9082.91
432.565	9742.36
432.772	9433.11
432.979	10037.27
433.187	10074.13
433.394	10027.03
433.601	10862.6
433.808	10960.9
434.016	10950.66
434.223	11282.43
434.43	12144.63
434.637	11991.03
434.844	12509.16
435.052	12808.17
435.259	12656.62
435.466	12890.09
435.673	12648.43
435.88	13656.03
436.087	14131.16
436.294	14067.67
436.501	13746.14
436.708	14432.21
436.915	14417.87
437.122	15284.16
437.329	15308.74
437.537	15550.4
437.743	15886.26
437.95	15898.55
438.157	16756.65
438.364	17463.2
438.571	17303.46
438.778	17280.93
438.985	18636.69
439.192	18261.91
439.399	18823.05
439.606	18366.35
439.813	19361.67
440.02	20619.12
440.227	20260.73
440.433	19869.56
440.64	20750.19
440.847	20547.44
441.054	20805.49
441.261	22753.1
441.467	21978.97
441.674	22693.71
441.881	23416.65
442.088	23299.91
442.294	22992.72
442.501	23752.51
442.708	24121.15
442.914	25181.99
443.121	26289.95
443.328	25575.2
443.534	27223.82
443.741	26588.95
443.948	26337.05
444.154	28116.73
444.361	28055.29
444.568	28442.36
444.774	28073.73
444.981	28536.57
445.187	29187.82
445.394	30572.25
445.6	30213.85
445.807	32995
446.013	31368.91
446.22	31981.25
446.426	33306.29
446.633	33625.77
446.839	34604.7
447.046	32790.2
447.252	34582.17
447.459	35085.97
447.665	35051.16
447.871	36560.51
448.078	37836.39
448.284	35925.64
448.491	37434.99
448.697	38573.66
448.903	39302.74
449.11	39120.47
449.316	38252.13
449.522	38979.16
449.728	40293.96
449.935	40248.9
450.141	40379.97
450.347	41348.66
450.553	39749.2
450.76	40564.29
450.966	41633.33
451.172	41252.41
451.378	41877.04
451.584	41463.35
451.791	42386.98
451.997	42098.22
452.203	43079.19
452.409	42997.27
452.615	42604.06
452.821	40719.93
453.027	40564.29
453.233	42444.32
453.44	41377.33
453.646	41332.28
453.852	41408.05
454.058	42438.18
454.264	40640.06
454.47	41561.65
454.676	40420.93
454.882	41725.49
455.088	37959.27
455.294	38870.62
455.5	39181.91
455.705	39808.59
455.911	38307.43
456.117	37437.04
456.323	36525.69
456.529	34541.21
456.735	36087.43
456.941	35491.47
457.147	34733.72
457.352	33691.3
457.558	33232.56
457.764	33607.34
457.97	32638.65
458.176	32151.23
458.381	31940.29
458.587	30277.34
458.793	30594.78
458.999	28407.55
459.204	31045.33
459.41	30332.64
459.616	28049.15
459.821	27809.54
460.027	27612.93
460.233	27234.06
460.438	26140.44
460.644	26185.5
460.85	24774.45
461.055	24526.64
461.261	24454.97
461.466	22800.21
461.672	22144.86
461.878	23820.1
462.083	22009.69
462.289	21933.92
462.494	21641.06
462.7	20629.36
462.905	19986.3
463.111	20905.84
463.316	20789.1
463.522	20369.27
463.727	20375.41
463.932	20428.66
464.138	20017.02
464.343	20410.23
464.549	19539.84
464.754	20289.4
464.959	20281.21
465.165	20027.26
465.37	19124.1
465.575	18814.86
465.781	19601.28
465.986	19773.31
466.191	18931.59
466.397	18661.26
466.602	17336.23
466.807	18407.31
467.012	18270.1
467.218	18280.34
467.423	17895.32
467.628	18272.15
467.833	18870.15
468.038	17932.19
468.244	17915.8
468.449	18294.68
468.654	17782.68
468.859	17524.64
469.064	17538.98
469.269	17037.22
469.474	16914.34
469.679	17076.13
469.885	16324.53
470.09	16873.39
470.295	17072.04
470.5	16474.03
470.705	16476.08
470.91	16183.22
471.115	16015.29
471.32	16541.61
471.525	16201.65
471.73	15747
471.935	15775.67
472.139	15181.76
472.344	15241.15
472.549	15245.25
472.754	14915.53
472.959	14698.44
473.164	14372.82
473.369	14245.84
473.574	14643.15
473.778	14561.23
473.983	14378.96
474.188	14725.07
474.393	13869.02
474.598	13922.26
474.802	13914.07
475.007	13723.61
475.212	13604.83
475.417	13094.88
475.621	13103.07
475.826	13131.75
476.031	12873.7
476.235	12521.45
476.44	12859.37
476.645	12541.93
476.849	12599.27
477.054	12398.57
477.259	12150.77
477.463	12322.8
477.668	11948.02
477.872	11935.73
478.077	11851.77
478.282	11536.38
478.486	11732.98
478.691	11481.08
478.895	11552.76
479.1	11417.6
479.304	11337.73
479.509	11190.27
479.713	11255.81
479.918	11194.37
480.122	10758.15
480.326	10883.08
480.531	10971.14
480.735	10864.64
480.94	10704.9
481.144	11046.91
481.348	10610.7
481.553	10885.12
481.757	10608.65
481.961	10688.52
482.166	10870.79
482.37	10833.93
482.574	10614.79
482.778	10389.52
482.983	10665.99
483.187	10586.12
483.391	10645.51
483.595	10596.36
483.8	10252.3
484.004	10381.32
484.208	10782.73
484.412	10536.97
484.616	10561.55
484.821	10639.37
485.025	10412.04
485.229	10539.02
485.433	10491.91
485.637	10491.91
485.841	10500.11
486.045	10545.16
486.249	10582.03
486.453	10285.07
486.657	10473.48
486.861	10665.99
487.065	10217.49
487.269	10321.93
487.473	10377.23
487.677	10555.4
487.881	10731.53
488.085	10469.39
488.289	10506.25
488.493	10410
488.697	10709
488.901	10805.25
489.105	10500.11
489.309	10606.6
489.512	10663.94
489.716	10620.94
489.92	10807.3
490.124	10739.72
490.328	10692.62
490.531	10838.02
490.735	10825.73
490.939	10747.91
491.143	10862.6
491.346	10874.88
491.55	10971.14
491.754	10919.94
491.958	10962.95
492.161	11073.54
492.365	11214.85
492.569	11075.59
492.772	11012.1
492.976	11345.92
493.18	11284.48
493.383	11380.73
493.587	11257.85
493.79	11657.21
493.994	11091.97
494.197	11620.35
494.401	11696.12
494.605	11931.64
494.808	11878.39
495.012	11925.49
495.215	11896.82
495.419	12085.23
495.622	12195.82
495.825	12156.91
496.029	12163.06
496.232	12623.85
496.436	12335.09
496.639	12896.23
496.843	12472.3
497.046	12808.17
497.249	13195.23
497.453	13201.38
497.656	13187.04
497.859	13332.45
498.063	13381.6
498.266	13813.72
498.469	13572.06
498.673	13848.54
498.876	14071.76
499.079	14129.11
499.282	14294.99
499.485	14565.32
499.689	14575.56
499.892	14888.9
500.095	14624.72
500.298	15079.36
500.501	15056.84
500.705	15429.57
500.908	15636.41
501.111	15792.06
501.314	15888.31
501.517	16234.42
501.72	16355.25
501.923	16115.64
502.126	16723.88
502.329	16830.38
502.532	17029.03
502.735	17137.57
502.938	17325.99
503.141	17264.55
503.344	17678.24
503.547	17588.13
503.75	17872.79
503.953	18306.96
504.156	18317.2
504.359	18497.42
504.562	18702.22
504.765	18868.11
504.968	19199.88
505.17	19306.37
505.373	19507.07
505.576	19703.68
505.779	19949.43
505.982	19748.73
506.185	20309.88
506.387	20426.61
506.59	20537.2
506.793	20813.68
506.996	21086.06
507.198	21593.95
507.401	21499.75
507.604	21874.52
507.807	22239.06
508.009	22284.12
508.212	22134.62
508.415	22490.96
508.617	22781.78
508.82	23105.35
509.022	23117.64
509.225	23392.07
509.428	23838.53
509.63	23985.98
509.833	23766.85
510.035	24887.09
510.238	24459.06
510.44	24719.15
510.643	25198.38
510.845	25179.95
511.048	25061.16
511.25	25745.19
511.453	26205.98
511.655	26492.69
511.858	26408.73
512.06	26572.57
512.262	27084.56
512.465	27205.39
512.667	27295.5
512.87	27997.95
513.072	27481.86
513.274	28327.67
513.477	28423.93
513.679	28690.16
513.881	28935.92
514.084	29359.85
514.286	29439.72
514.488	29425.39
514.69	30150.37
514.893	30365.4
515.095	30332.64
515.297	30693.08
515.499	30775
515.701	30895.83
515.904	31135.44
516.106	31567.56
516.308	32005.83
516.51	32356.03
516.712	32038.59
516.914	32786.1
517.116	33046.19
517.318	33326.77
517.52	33535.66
517.722	33703.59
517.925	33980.07
518.127	34475.68
518.329	34088.61
518.531	34432.67
518.733	35096.21
518.935	35755.66
519.136	35348.11
519.338	36079.24
519.54	36007.56
519.742	36570.75
519.944	36847.22
520.146	37256.82
520.348	37029.49
520.55	37650.03
520.752	37674.6
520.954	37951.08
521.155	37906.02
521.357	38403.68
521.559	38452.83
521.761	39335.51
521.963	39128.66
522.164	39534.16
522.366	39591.5
522.568	39980.62
522.77	40046.15
522.971	40904.25
523.173	40445.51
523.375	40629.82
523.576	41047.61
523.778	41043.51
523.98	41270.84
524.181	41735.73
524.383	41467.44
524.584	42231.33
524.786	41918
524.988	41954.86
525.189	42792.48
525.391	43091.48
525.592	43040.28
525.794	43001.37
525.995	43181.59
526.197	43566.61
526.398	43652.62
526.6	43836.94
526.801	44013.07
527.003	43820.56
527.204	43836.94
527.406	44494.34
527.607	43990.54
527.808	44733.95
528.01	43755.02
528.211	44391.94
528.412	45039.1
528.614	44969.47
528.815	44563.97
529.016	45737.46
529.218	44910.08
529.419	45139.45
529.62	45303.29
529.822	45282.81
530.023	45313.53
530.224	45458.93
530.425	45624.82
530.626	45000.19
530.828	45098.49
531.029	46370.28
531.23	45387.25
531.431	45487.6
531.632	45712.88
531.833	45964.78
532.035	45649.39
532.236	46050.8
532.437	46368.23
532.638	45762.03
532.839	46030.32
533.04	46157.29
533.241	46022.12
533.442	46949.85
533.643	46140.91
533.844	46042.6
534.045	45864.43
534.246	46028.27
534.447	46259.69
534.648	46458.34
534.849	46640.61
535.05	45551.09
535.251	46104.04
535.451	46120.43
535.652	46235.11
535.853	46261.74
536.054	46577.12
536.255	46206.44
536.456	45997.55
536.657	47179.23
536.857	46284.26
537.058	46114.28
537.259	46603.75
537.46	46605.8
537.66	45929.97
537.861	46071.28
538.062	45997.55
538.263	46585.32
538.463	46110.19
538.664	46097.9
538.865	46317.03
539.065	46534.12
539.266	45741.55
539.466	46777.82
539.667	46085.61
539.868	46507.49
540.068	45790.7
540.269	46110.19
540.469	46108.14
540.67	45907.44
540.87	46179.82
541.071	46327.27
541.271	46104.04
541.472	45839.86
541.672	45565.43
541.873	45886.96
542.073	45432.31
542.274	46175.72
542.474	45856.24
542.675	45415.93
542.875	45852.14
543.075	46011.88
543.276	45401.59
543.476	46163.43
543.676	45721.07
543.877	46415.33
544.077	45827.57
544.277	45805.04
544.478	45952.49
544.678	46140.91
544.878	45626.87
545.078	45981.17
545.279	45925.87
545.479	45733.36
545.679	45858.29
545.879	45512.18
546.079	45749.74
546.28	45673.97
546.48	45374.97
546.68	45559.28
546.88	45737.46
547.08	45651.44
547.28	45211.13
547.48	45196.79
547.68	46003.69
547.88	45469.17
548.081	45897.2
548.281	45037.05
548.481	45272.57
548.681	45876.72
548.881	45272.57
549.081	45630.96
549.28	45202.94
549.48	45626.87
549.68	45479.41
549.88	45741.55
550.08	45395.45
550.28	45706.74
550.48	45291
550.68	45686.26
550.88	45053.44
551.08	45387.25
551.279	45155.83
551.479	45024.76
551.679	45186.55
551.879	45168.12
552.079	45274.62
552.278	44750.34
552.478	44916.22
552.678	44987.9
552.878	45200.89
553.077	44873.21
553.277	44914.17
553.477	45716.98
553.676	44576.26
553.876	44942.84
554.076	44772.86
554.275	44467.72
554.475	44156.42
554.674	44805.63
554.874	44617.22
555.074	44185.1
555.273	44858.88
555.473	44973.56
555.672	44205.58
555.872	44353.03
556.071	44850.69
556.271	44688.9
556.47	44353.03
556.67	43884.05
556.869	44682.75
557.068	44328.45
557.268	44025.35
557.467	44480
557.667	44283.4
557.866	44109.32
558.065	43869.71
558.265	44031.5
558.464	43490.84
558.663	44066.31
558.863	43357.72
559.062	44770.82
559.261	43697.68
559.461	44189.19
559.66	43025.95
559.859	43832.85
560.058	43560.47
560.258	43509.27
560.457	42966.56
560.656	43314.71
560.855	43128.34
561.054	43529.75
561.253	43013.66
561.453	43181.59
561.652	43294.23
561.851	43429.4
562.05	43210.26
562.249	42327.59
562.448	43058.71
562.647	43071
562.846	42681.89
563.045	43044.38
563.244	42370.6
563.443	42800.67
563.642	42343.97
563.841	42472.99
564.04	42360.36
564.239	42716.7
564.438	41926.19
564.637	42217
564.836	42507.81
565.035	41539.12
565.234	42202.66
565.432	41711.15
565.631	41633.33
565.83	41911.85
566.029	41113.14
566.228	41229.88
566.427	41145.91
566.625	41207.35
566.824	40658.49
567.023	41623.09
567.222	40703.55
567.42	41305.65
567.619	40648.25
567.818	40711.74
568.016	40633.92
568.215	40683.07
568.414	40711.74
568.612	41016.89
568.811	40388.16
569.01	40541.76
569.208	40175.17
569.407	40867.39
569.605	40091.21
569.804	40369.73
570.002	39730.76
570.201	40371.78
570.4	39423.57
570.598	39720.52
570.797	39306.83
570.995	39634.51
571.193	39294.55
571.392	39900.75
571.59	39450.19
571.789	39376.47
571.987	39171.67
572.186	39495.25
572.384	38977.11
572.582	39290.45
572.781	38764.12
572.979	38674.01
573.177	38766.17
573.376	39147.09
573.574	38245.99
573.772	38549.09
573.971	38334.05
574.169	37844.59
574.367	37758.57
574.565	38219.36
574.763	38172.26
574.962	37660.27
575.16	37615.21
575.358	37582.45
575.556	37351.02
575.754	37787.24
575.952	37174.9
576.151	37619.31
576.349	37135.99
576.547	37260.91
576.745	37267.06
576.943	37312.11
577.141	36910.71
577.339	37195.38
577.537	36691.58
577.735	36882.04
577.933	36474.49
578.131	36484.73
578.329	36888.18
578.527	36279.94
578.725	35950.21
578.923	36292.22
579.121	36122.24
579.319	36128.39
579.516	36009.61
579.714	36005.51
579.912	35884.68
580.11	35767.94
580.308	35454.61
580.506	35258
580.704	34973.33
580.901	35462.8
581.099	35655.31
581.297	35403.41
581.495	35169.94
581.692	35477.13
581.89	34698.91
582.088	35077.78
582.285	34864.79
582.483	35024.53
582.681	34547.36
582.878	34539.16
583.076	34479.77
583.274	34526.88
583.471	33969.83
583.669	34246.3
583.866	33799.85
584.064	34246.3
584.262	33642.15
584.459	34135.71
584.657	33734.31
584.854	33838.76
585.052	33279.66
585.249	33670.82
585.447	33273.52
585.644	33341.1
585.841	33410.73
586.039	33265.33
586.236	32896.69
586.434	33003.19
586.631	33019.57
586.828	32800.44
587.026	32999.09
587.223	32761.53
587.42	32241.34
587.618	32663.22
587.815	32085.7
588.012	32140.99
588.21	32227.01
588.407	32335.55
588.604	31993.54
588.801	32044.74
588.999	31766.21
589.196	31626.95
589.393	31508.17
589.59	31788.74
589.787	31532.75
589.984	31502.03
590.182	31004.37
590.379	31479.5
590.576	30775
590.773	31004.37
590.97	30758.61
591.167	31074
591.364	30416.6
591.561	30721.75
591.758	30387.93
591.955	30693.08
592.152	30781.14
592.349	30602.97
592.546	30359.26
592.743	30314.2
592.94	30031.58
593.137	30148.32
593.334	30435.03
593.531	29781.73
593.727	29789.92
593.924	29896.42
594.121	29562.6
594.318	30037.73
594.515	29413.1
594.712	29871.84
594.908	28960.5
595.105	29648.61
595.302	28985.07
595.499	29259.5
595.696	29052.66
595.892	28802.8
596.089	28864.24
596.286	29042.42
596.482	28708.6
596.679	28876.53
596.876	28624.63
597.072	28266.24
597.269	28323.58
597.466	28104.45
597.662	28231.42
597.859	28081.92
598.055	28303.1
598.252	27911.94
598.448	27608.84
598.645	27803.39
598.841	27580.17
599.038	27801.35
599.234	27737.86
599.431	27416.33
599.627	27457.29
599.824	27461.38
600.02	27135.76
600.217	27334.41
600.413	27268.87
600.609	27035.41
600.806	27088.65
601.002	26961.68
601.198	26842.9
601.395	26681.11
601.591	26760.98
601.787	26445.59
601.984	26378.01
602.18	26892.05
602.376	26023.71
602.572	26228.51
602.769	26021.66
602.965	25935.65
603.161	25986.85
603.357	25937.69
603.553	25843.49
603.75	25851.68
603.946	25571.11
604.142	25544.48
604.338	25091.88
604.534	25423.65
604.73	25245.48
604.926	25177.9
605.122	25583.4
605.318	24995.63
605.514	24932.14
605.71	25089.84
605.906	24819.5
606.102	24887.09
606.298	24817.46
606.494	24661.81
606.69	24854.32
606.886	24590.13
607.082	24371
607.278	24626.99
607.474	24297.27
607.67	24315.7
607.866	24016.7
608.062	24471.35
608.257	24104.76
608.453	24149.82
608.649	24323.9
608.845	24080.19
609.041	23842.62
609.236	23785.28
609.432	23676.74
609.628	23940.93
609.824	24129.34
610.019	23463.75
610.215	23766.85
610.411	23861.05
610.606	23461.7
610.802	23568.2
610.998	23340.87
611.193	23613.25
611.389	23334.73
611.584	23387.97
611.78	23363.4
611.976	23215.94
612.171	23146.31
612.367	23097.16
612.562	23011.15
612.758	22890.32
612.953	22824.78
613.149	23045.96
613.344	22755.15
613.539	22937.42
613.735	22873.93
613.93	22949.71
614.126	22650.71
614.321	22998.86
614.517	22656.85
614.712	22738.77
614.907	22968.14
615.103	22722.38
615.298	22390.61
615.493	22597.46
615.688	22411.09
615.884	22845.26
616.079	22347.61
616.274	22327.13
616.47	22136.66
616.665	22171.48
616.86	22161.24
617.055	22257.5
617.25	22312.79
617.445	22249.3
617.641	21897.05
617.836	22191.96
618.031	21696.35
618.226	21978.97
618.421	21802.85
618.616	21989.21
618.811	21247.85
619.006	21868.38
619.201	21116.78
619.396	21731.17
619.591	20971.37
619.786	21524.32
619.981	21041
620.176	21155.69
620.371	21020.52
620.566	20997.99
620.761	20754.29
620.956	20922.22
621.151	20696.94
621.346	20676.46
621.541	20418.42
621.735	20412.28
621.93	20203.38
622.125	20227.96
622.32	19910.52
622.515	20057.98
622.709	19969.91
622.904	19867.52
623.099	19754.88
623.294	19670.91
623.488	19488.64
623.683	19376
623.878	18997.13
624.072	19263.36
624.267	19197.83
624.462	18884.49
624.656	18569.1
624.851	18716.56
625.046	18567.06
625.24	18751.37
625.435	18173.85
625.629	18259.86
625.824	18243.48
626.018	18175.89
626.213	17852.31
626.407	17739.68
626.602	17688.48
626.796	17956.76
626.991	17592.22
627.185	17541.02
627.38	17473.44
627.574	17242.02
627.768	17436.58
627.963	17139.62
628.157	17156
628.352	17123.24
628.546	16617.39
628.74	17254.31
628.935	16725.93
629.129	16809.9
629.323	16361.39
629.517	16414.64
629.712	16312.24
629.906	16236.47
630.1	16054.2
630.294	16127.92
630.489	15943.61
630.683	16377.78
630.877	15906.74
631.071	15587.26
631.265	15814.59
631.459	15603.64
631.653	15347.65
631.848	15505.34
632.042	15558.59
632.236	15437.76
632.43	14999.49
632.624	15151.04
632.818	14809.03
633.012	14901.19
633.206	14929.86
633.4	14821.32
633.594	14886.86
633.788	14972.87
633.982	14712.78
634.176	14616.52
634.369	14507.98
634.563	14546.89
634.757	14206.93
634.951	14501.84
635.145	14137.3
635.339	14352.34
635.533	14120.92
635.726	14331.86
635.92	13842.39
636.114	13832.15
636.308	13826.01
636.501	13887.45
636.695	13639.64
636.889	13504.48
637.083	13160.42
637.276	13615.07
637.47	13365.21
637.664	13471.71
637.857	13430.75
638.051	13375.45
638.244	13015.01
638.438	12976.1
638.632	12976.1
638.825	12759.02
639.019	12752.87
639.212	12591.08
639.406	12877.8
639.599	12673
639.793	12564.46
639.986	12449.77
640.18	12722.15
640.373	12417.01
640.567	12283.89
640.76	12410.86
640.954	12054.51
641.147	12167.15
641.34	11997.17
641.534	11925.49
641.727	11841.53
641.92	11874.29
642.114	11929.59
642.307	11782.13
642.5	11657.21
642.694	11444.22
642.887	11528.19
643.08	11618.3
643.273	11362.3
643.467	11370.49
643.66	11278.33
643.853	11124.74
644.046	11231.23
644.239	11231.23
644.432	10999.81
644.626	11229.18
644.819	11096.07
645.012	10827.78
645.205	10862.6
645.398	10911.75
645.591	10682.38
645.784	10833.93
645.977	10672.14
646.17	10713.1
646.363	10516.49
646.556	10108.94
646.749	10254.35
646.942	10520.59
647.135	10430.48
647.328	10104.85
647.521	10272.78
647.714	9992.21
647.907	10084.37
648.099	10084.37
648.292	9930.77
648.485	9910.29
648.678	9855
648.871	9902.1
649.064	9803.8
649.256	9633.82
649.449	9676.82
649.642	9623.58
649.835	9545.75
650.027	9408.54
650.22	9687.06
650.413	9383.96
650.605	9439.26
650.798	9334.81
650.991	9410.59
651.183	9285.66
651.376	9130.02
651.568	9056.29
651.761	8984.61
651.954	9048.1
652.146	9017.38
652.339	8933.41
652.531	8845.35
652.724	8953.89
652.916	8740.9
653.109	8671.27
653.301	8818.72
653.494	8818.72
653.686	8480.81
653.879	8622.12
654.071	8409.13
654.263	8388.65
654.456	8523.82
654.648	8462.38
654.84	8345.64
655.033	8298.54
655.225	8321.07
655.417	8280.11
655.61	8230.96
655.802	8263.72
655.994	7989.3
656.186	8056.88
656.379	7989.3
656.571	7974.96
656.763	7958.58
656.955	7854.13
657.148	7972.91
657.34	7948.34
657.532	7757.88
657.724	7757.88
657.916	7632.95
658.108	7684.15
658.3	7596.09
658.492	7702.58
658.684	7563.32
658.876	7448.63
659.068	7239.74
659.26	7448.63
659.452	7364.67
659.644	7372.86
659.836	7313.47
660.028	7348.28
660.22	7077.95
660.412	7211.07
660.604	6926.4
660.796	7094.33
660.988	7057.47
661.18	7098.43
661.372	7080
661.563	7135.29
661.755	6891.59
661.947	6950.98
662.139	6834.24
662.331	6844.48
662.522	6801.47
662.714	6770.76
662.906	6709.32
663.097	6629.45
663.289	6709.32
663.481	6570.05
663.673	6854.72
663.864	6500.42
664.056	6465.61
664.247	6334.54
664.439	6486.09
664.631	6287.43
664.822	6244.43
665.014	6393.93
665.205	6305.87
665.397	6242.38
665.588	6213.71
665.78	6244.43
665.971	6199.37
666.163	6219.85
666.354	6131.79
666.546	6137.93
666.737	5996.62
666.929	5992.53
667.12	5935.18
667.311	5834.83
667.503	5654.61
667.694	6015.05
667.885	5867.6
668.077	5963.86
668.268	5824.59
668.459	5849.17
668.651	5814.35
668.842	5777.49
669.033	5574.74
669.224	5691.48
669.416	5752.91
669.607	5695.57
669.798	5480.54
669.989	5578.84
670.18	5541.97
670.371	5619.8
670.563	5425.24
670.754	5507.16
670.945	5433.43
671.136	5302.36
671.327	5435.48
671.518	5349.47
671.709	5222.49
671.9	5257.31
672.091	5443.67
672.282	5324.89
672.473	5222.49
672.664	5285.98
672.855	5191.77
673.046	5279.83
673.237	5236.83
673.428	5159
673.619	5173.34
673.809	5173.34
674	5062.75
674.191	4952.16
674.382	5029.98
674.573	5103.71
674.764	5009.5
674.954	5054.56
675.145	5025.89
675.336	4876.38
675.527	4921.44
675.717	4964.45
675.908	4802.66
676.099	4989.02
676.289	4925.54
676.48	4806.75
676.671	4708.45
676.861	4782.18
677.052	4849.76
677.243	4730.98
677.433	4696.16
677.624	4825.19
677.814	4720.74
678.005	4677.73
678.195	4798.56
678.386	4780.13
678.576	4728.93
678.767	4595.81
678.957	4604
679.148	4661.35
679.338	4532.33
679.529	4612.2
679.719	4546.66
679.909	4677.73
680.1	4460.65
680.29	4669.54
680.481	4526.18
680.671	4610.15
680.861	4532.33
681.052	4558.95
681.242	4434.02
681.432	4640.87
681.622	4401.26
681.813	4364.39
682.003	4368.49
682.193	4368.49
682.383	4278.38
682.573	4489.32
682.764	4225.13
682.954	4288.62
683.144	4221.03
683.334	4218.99
683.524	4345.96
683.714	4251.75
683.904	4200.55
684.094	4075.63
684.284	4210.79
684.474	4198.51
684.664	4122.73
684.854	4325.48
685.044	4237.42
685.234	4046.96
685.424	4032.62
685.614	4147.31
685.804	4120.68
685.994	4137.07
686.184	4104.3
686.374	4051.05
686.564	3983.47
686.753	3919.98
686.943	3913.84
687.133	4051.05
687.323	3958.89
687.513	3879.02
687.702	3817.58
687.892	3819.63
688.082	3883.12
688.272	3919.98
688.461	3829.87
688.651	3850.35
688.841	3846.26
689.03	3934.32
689.22	3752.05
689.41	3719.28
689.599	3866.74
689.789	3756.15
689.979	3700.85
690.168	3772.53
690.358	3563.64
690.547	3657.84
690.737	3661.94
690.926	3551.35
691.116	3600.5
691.305	3674.23
691.495	3620.98
691.684	3444.85
691.874	3559.54
692.063	3520.63
692.252	3584.12
692.442	3461.24
692.631	3487.86
692.82	3580.02
693.01	3391.61
693.199	3434.61
693.388	3391.61
693.578	3407.99
693.767	3473.53
693.956	3446.9
694.146	3383.42
694.335	3371.13
694.524	3377.27
694.713	3321.98
694.902	3248.25
695.092	3233.91
695.281	3248.25
695.47	3358.84
695.659	3321.98
695.848	3137.66
696.037	3248.25
696.226	3188.86
696.415	3268.73
696.604	3362.94
696.793	3119.23
696.982	3186.81
697.171	3195
697.36	3223.67
697.549	2988.16
697.738	3168.38
697.927	3104.89
698.116	3133.56
698.305	3094.65
698.494	3098.75
698.683	3055.74
698.872	3221.63
699.061	3172.47
699.25	3080.32
699.438	3035.26
699.627	3000.44
699.816	3004.54
700.005	3002.49
700.193	2988.16
700.382	3080.32
700.571	3010.68
700.76	3045.5
700.948	2969.73
701.137	3002.49
701.326	3012.73
701.514	3108.99
701.703	3004.54
701.892	2973.82
702.08	3016.83
702.269	3010.68
702.457	2883.71
702.646	2963.58
702.834	2863.23
703.023	2863.23
703.212	2869.37
703.4	2965.63
703.589	2859.14
703.777	2947.2
703.965	2879.61
704.154	2922.62
704.342	2883.71
704.531	2885.76
704.719	2756.74
704.907	2900.09
705.096	2900.09
705.284	2871.42
705.472	2787.46
705.661	2877.57
705.849	2926.72
706.037	2769.02
706.226	2785.41
706.414	2930.81
706.602	2703.49
706.79	2846.85
706.979	2795.65
707.167	2814.08
707.355	2865.28
707.543	2814.08
707.731	2801.79
707.919	2756.74
708.107	2670.72
708.296	2728.07
708.484	2840.7
708.672	2826.37
708.86	2828.42
709.048	2822.27
709.236	2818.18
709.424	2850.94
709.612	2734.21
709.8	2852.99
709.988	2834.56
710.176	2771.07
710.364	2799.74
710.551	2861.18
710.739	2738.3
710.927	2656.39
711.115	2818.18
711.303	2787.46
711.491	2822.27
711.679	2728.07
711.866	2820.22
712.054	2744.45
712.242	2715.78
712.43	2738.3
712.617	2758.78
712.805	2748.54
712.993	2691.2
713.181	2656.39
713.368	2805.89
713.556	2775.17
713.744	2723.97
713.931	2664.58
714.119	2623.62
714.306	2713.73
714.494	2691.2
714.682	2707.59
714.869	2631.81
715.057	2633.86
715.244	2687.11
715.432	2744.45
715.619	2861.18
715.807	2662.53
715.994	2756.74
716.182	2654.34
716.369	2674.82
716.556	2680.96
716.744	2644.1
716.931	2756.74
717.119	2814.08
717.306	2789.5
717.493	2691.2
717.681	2709.63
717.868	2660.48
718.055	2726.02
718.242	2629.76
718.43	2703.49
718.617	2549.89
718.804	2664.58
718.991	2658.43
719.179	2623.62
719.366	2799.74
719.553	2683.01
719.74	2515.08
719.927	2631.81
720.114	2660.48
720.301	2586.76
720.488	2766.98
720.676	2689.15
720.863	2705.54
721.05	2701.44
721.237	2631.81
721.424	2582.66
721.611	2740.35
721.798	2494.6
721.985	2621.57
722.172	2525.32
722.358	2592.9
722.545	2766.98
722.732	2551.94
722.919	2666.63
723.106	2441.35
723.293	2625.67
723.48	2664.58
723.667	2564.23
723.853	2594.95
724.04	2660.48
724.227	2652.29
724.414	2691.2
724.6	2594.95
724.787	2529.41
724.974	2726.02
725.161	2564.23
725.347	2556.04
725.534	2734.21
725.72	2597
725.907	2623.62
726.094	2611.33
726.28	2580.61
726.467	2484.36
726.653	2504.84
726.84	2545.8
727.027	2642.05
727.213	2599.04
727.4	2597
727.586	2625.67
727.773	2689.15
727.959	2660.48
728.145	2609.28
728.332	2523.27
728.518	2609.28
728.705	2644.1
728.891	2592.9
729.077	2689.15
729.264	2537.6
729.45	2478.21
729.636	2625.67
729.823	2584.71
730.009	2572.42
730.195	2623.62
730.382	2478.21
730.568	2474.12
730.754	2592.9
730.94	2523.27
731.126	2551.94
731.313	2656.39
731.499	2672.77
731.685	2535.56
731.871	2519.17
732.057	2551.94
732.243	2597
732.429	2482.31
732.615	2601.09
732.801	2633.86
732.987	2476.16
733.173	2629.76
733.359	2517.12
733.545	2590.85
733.731	2474.12
733.917	2560.13
734.103	2560.13
734.289	2695.3
734.475	2494.6
734.661	2441.35
734.847	2424.97
735.033	2547.84
735.219	2527.36
735.404	2605.19
735.59	2482.31
735.776	2523.27
735.962	2584.71
736.148	2478.21
736.333	2527.36
736.519	2537.6
736.705	2523.27
736.89	2564.23
737.076	2496.64
737.262	2433.16
737.447	2551.94
737.633	2379.91
737.819	2510.98
738.004	2470.02
738.19	2338.95
738.375	2502.79
738.561	2443.4
738.747	2449.54
738.932	2498.69
739.118	2453.64
739.303	2379.91
739.489	2402.44
739.674	2449.54
739.859	2453.64
740.045	2402.44
740.23	2367.62
740.416	2523.27
740.601	2347.14
740.786	2418.82
740.972	2435.21
741.157	2359.43
741.342	2310.28
741.528	2445.45
741.713	2443.4
741.898	2406.53
742.084	2416.77
742.269	2334.86
742.454	2367.62
742.639	2373.77
742.824	2261.13
743.01	2379.91
743.195	2291.85
743.38	2351.24
743.565	2271.37
743.75	2293.9
743.935	2300.04
744.12	2338.95
744.305	2347.14
744.49	2248.84
744.675	2201.74
744.86	2171.02
745.045	2195.59
745.23	2402.44
745.415	2220.17
745.6	2285.7
745.785	2191.5
745.97	2130.06
746.155	2154.63
746.34	2162.83
746.525	2035.85
746.71	2265.22
746.895	2085
747.079	2087.05
747.264	2066.57
747.449	2105.48
747.634	2156.68
747.819	2156.68
748.003	2003.08
748.188	2068.62
748.373	2015.37
748.557	2074.76
748.742	2076.81
748.927	1933.45
749.111	2015.37
749.296	2013.32
749.481	2062.48
749.665	1935.5
749.85	1902.73
750.034	1939.6
750.219	1919.12
750.404	1886.35
750.588	1849.49
750.773	1790.1
750.957	1810.58
751.141	1763.47
751.326	1867.92
751.51	1757.33
751.695	1779.86
751.879	1845.39
752.064	1783.95
752.248	1878.16
752.432	1757.33
752.617	1769.62
752.801	1761.42
752.985	1747.09
753.17	1763.47
753.354	1650.83
753.538	1673.36
753.722	1667.22
753.907	1611.92
754.091	1781.9
754.275	1638.55
754.459	1609.87
754.643	1685.65
754.828	1665.17
755.012	1636.5
755.196	1517.72
755.38	1618.07
755.564	1656.98
755.748	1523.86
755.932	1611.92
756.116	1648.79
756.3	1435.8
756.484	1566.87
756.668	1534.1
756.852	1478.8
757.036	1456.28
757.22	1521.81
757.404	1491.09
757.588	1452.18
757.772	1487
757.956	1558.67
758.14	1450.13
758.323	1376.41
758.507	1364.12
758.691	1339.54
758.875	1400.98
759.059	1317.01
759.242	1384.6
759.426	1460.37
759.61	1271.96
759.794	1345.69
759.977	1337.49
760.161	1306.77
760.345	1351.83
760.528	1302.68
760.712	1286.3
760.895	1321.11
761.079	1380.5
761.263	1294.49
761.446	1212.57
761.63	1257.62
761.813	1325.21
761.997	1288.34
762.18	1300.63
762.364	1282.2
762.547	1231
762.731	1323.16
762.914	1288.34
763.098	1192.09
763.281	1292.44
763.464	1245.34
763.648	1169.56
763.831	1284.25
764.015	1257.62
764.198	1237.14
764.381	1194.14
764.564	1241.24
764.748	1151.13
764.931	1224.86
765.114	1124.51
765.297	1253.53
765.481	1169.56
765.664	997.53
765.847	1151.13
766.03	1183.9
766.213	1149.08
766.397	1114.27
766.58	1128.6
766.763	1161.37
766.946	1093.79
767.129	1081.5
767.312	1054.87
767.495	1081.5
767.678	979.1
767.861	1026.2
768.044	1106.07
768.227	1106.07
768.41	1093.79
768.593	1110.17
768.776	1089.69
768.959	1177.75
769.142	1034.39
769.324	1052.83
769.507	1071.26
769.69	1155.23
769.873	989.34
770.056	1079.45
770.239	1122.46
770.421	1046.68
770.604	1095.83
770.787	923.8
770.97	1015.96
771.152	1032.35
771.335	975
771.518	1085.59
771.7	1038.49
771.883	970.91
772.066	991.39
772.248	977.05
772.431	979.1
772.613	868.51
772.796	975
772.978	968.86
773.161	1005.72
773.343	970.91
773.526	987.29
773.708	958.62
773.891	845.98
774.073	972.96
774.256	907.42
774.438	948.38
774.621	899.23
774.803	958.62
774.985	911.52
775.168	868.51
775.35	850.08
775.532	882.85
775.715	905.37
775.897	821.41
776.079	848.03
776.261	833.69
776.444	841.89
776.626	798.88
776.808	872.61
776.99	745.63
777.173	866.46
777.355	839.84
777.537	807.07
777.719	757.92
777.901	807.07
778.083	784.54
778.265	749.73
778.447	845.98
778.629	723.1
778.811	805.02
778.993	710.82
779.175	786.59
779.357	698.53
779.539	729.25
779.721	723.1
779.903	751.78
780.085	655.52
780.267	780.45
780.449	702.62
780.631	671.9
780.812	698.53
780.994	698.53
781.176	702.62
781.358	721.06
781.54	632.99
781.721	690.34
781.903	663.71
782.085	645.28
782.267	676
782.448	610.47
782.63	661.66
782.812	600.23
782.993	624.8
783.175	688.29
783.357	569.51
783.538	632.99
783.72	602.27
783.901	557.22
784.083	626.85
784.264	520.35
784.446	594.08
784.627	544.93
784.809	479.4
784.99	553.12
785.172	587.94
785.353	534.69
785.535	546.98
785.716	522.4
785.897	530.59
786.079	512.16
786.26	536.74
786.441	536.74
786.623	465.06
786.804	450.72
786.985	585.89
787.167	463.01
787.348	567.46
787.529	536.74
787.71	506.02
787.891	524.45
788.073	422.05
788.254	467.11
788.435	469.16
788.616	456.87
788.797	471.2
788.978	528.55
789.159	467.11
789.34	493.73
789.522	485.54
789.703	487.59
789.884	440.48
790.065	471.2
790.246	420
790.427	426.15
790.607	432.29
790.788	553.12
790.969	393.38
791.15	420
791.331	401.57
791.512	473.25
791.693	391.33
791.874	385.19
792.054	481.44
792.235	415.91
792.416	340.13
792.597	327.85
792.778	370.85
792.958	438.44
793.139	364.71
793.32	405.67
793.5	399.52
793.681	415.91
793.862	430.24
794.042	428.2
794.223	368.81
794.404	370.85
794.584	295.08
794.765	354.47
794.945	340.13
795.126	317.61
795.306	432.29
795.487	368.81
795.667	303.27
795.848	305.32
796.028	370.85
796.209	366.76
796.389	321.7
796.57	311.46
796.75	264.36
796.93	387.24
797.111	295.08
797.291	352.42
797.471	331.94
797.652	323.75
797.832	311.46
798.012	352.42
798.192	336.04
798.373	286.89
798.553	286.89
798.733	338.09
798.913	266.41
799.093	272.55
799.274	282.79
799.454	348.33
799.634	245.93
799.814	352.42
799.994	221.35
800.174	297.13
800.354	252.07
800.534	274.6
800.714	301.22
800.894	340.13
801.074	327.85
801.254	311.46
801.434	215.21
801.614	303.27
801.794	250.02
801.974	587.94
802.154	299.17
802.334	223.4
802.514	317.61
802.693	272.55
802.873	241.83
803.053	344.23
803.233	301.22
803.413	313.51
803.592	305.32
803.772	239.78
803.952	346.28
804.131	274.6
804.311	233.64
804.491	207.02
804.67	262.31
804.85	217.26
805.03	147.62
805.209	254.12
805.389	268.45
805.568	256.17
805.748	243.88
805.928	186.54
806.107	229.54
806.287	196.78
806.466	207.02
806.646	170.15
806.825	215.21
807.004	237.74
807.184	209.06
807.363	196.78
807.543	149.67
807.722	204.97
807.901	192.68
808.081	200.87
808.26	209.06
808.439	196.78
808.619	217.26
808.798	137.38
808.977	225.45
809.156	254.12
809.336	170.15
809.515	159.91
809.694	184.49
809.873	254.12
810.052	188.58
810.231	241.83
810.411	221.35
810.59	227.5
810.769	192.68
810.948	186.54
811.127	157.86
811.306	168.1
811.485	204.97
811.664	288.93
811.843	125.1
812.022	209.06
812.201	200.87
812.38	182.44
812.559	151.72
812.737	227.5
812.916	186.54
813.095	157.86
813.274	221.35
813.453	159.91
813.632	213.16
813.811	151.72
813.989	147.62
814.168	266.41
814.347	188.58
814.526	159.91
814.704	276.65
814.883	172.2
815.062	92.33
815.24	168.1
815.419	168.1
815.598	131.24
815.776	118.95
815.955	209.06
816.133	137.38
816.312	143.53
816.49	180.39
816.669	123.05
816.847	247.97
817.026	129.19
817.204	164.01
817.383	123.05
817.561	118.95
817.74	149.67
817.918	166.06
818.097	188.58
818.275	77.99
818.453	155.82
818.632	121
818.81	184.49
818.988	176.3
819.167	223.4
819.345	135.34
819.523	172.2
819.701	32.94
819.879	133.29
820.058	198.82
820.236	170.15
820.414	69.8
820.592	114.86
820.77	123.05
820.948	116.9
821.127	225.45
821.305	223.4
821.483	137.38
821.661	112.81
821.839	102.57
822.017	90.28
822.195	123.05
822.373	161.96
822.551	131.24
822.729	112.81
822.907	102.57
823.085	82.09
823.262	139.43
823.44	112.81
823.618	170.15
823.796	149.67
823.974	57.51
824.152	75.95
824.329	77.99
824.507	86.19
824.685	155.82
824.863	77.99
825.04	114.86
825.218	86.19
825.396	135.34
825.574	157.86
825.751	106.67
825.929	94.38
826.107	141.48
826.284	100.52
826.462	84.14
826.639	118.95
826.817	110.76
826.994	65.71
827.172	43.18
827.349	192.68
827.527	149.67
827.704	143.53
827.882	26.79
828.059	98.47
828.237	77.99
828.414	98.47
828.591	71.85
828.769	139.43
828.946	92.33
829.124	65.71
829.301	92.33
829.478	121
829.655	108.71
829.833	49.32
830.01	45.23
830.187	151.72
830.364	94.38
830.542	53.42
830.719	143.53
830.896	57.51
831.073	125.1
831.25	149.67
831.427	141.48
831.604	112.81
831.782	110.76
831.959	92.33
832.136	49.32
832.313	108.71
832.49	90.28
832.667	108.71
832.844	90.28
833.021	92.33
833.198	108.71
833.374	73.9
833.551	75.95
833.728	6.31
833.905	51.37
834.082	77.99
834.259	43.18
834.436	30.89
834.612	24.75
834.789	61.61
834.966	96.43
835.143	137.38
835.319	-36.69
835.496	84.14
835.673	51.37
835.85	41.13
836.026	39.08
836.203	96.43
836.38	73.9
836.556	96.43
836.733	118.95
836.909	121
837.086	69.8
837.262	96.43
837.439	61.61
837.616	86.19
837.792	186.54
837.968	14.51
838.145	10.41
838.321	92.33
838.498	10.41
838.674	80.04
838.851	65.71
839.027	110.76
839.203	67.75
839.38	61.61
839.556	67.75
839.732	69.8
839.909	45.23
840.085	110.76
840.261	94.38
840.437	61.61
840.614	32.94
840.79	71.85
840.966	151.72
841.142	-12.12
841.318	77.99
841.494	61.61
841.671	43.18
841.847	55.47
842.023	102.57
842.199	73.9
842.375	143.53
842.551	69.8
842.727	-28.5
842.903	96.43
843.079	65.71
843.255	114.86
843.431	47.27
843.607	77.99
843.783	80.04
843.959	106.67
844.134	-48.98
844.31	14.51
844.486	-22.36
844.662	61.61
844.838	2.22
845.013	80.04
845.189	73.9
845.365	0.17
845.541	12.46
845.716	61.61
845.892	16.55
846.068	94.38
846.244	51.37
846.419	22.7
846.595	-30.55
846.77	20.65
846.946	41.13
847.122	65.71
847.297	53.42
847.473	133.29
847.648	45.23
847.824	57.51
847.999	-12.12
848.175	63.66
848.35	-26.45
848.526	116.9
848.701	55.47
848.876	49.32
849.052	-1.88
849.227	71.85
849.403	2.22
849.578	16.55
849.753	75.95
849.929	100.52
850.104	-22.36
850.279	32.94
850.454	69.8
850.63	69.8
850.805	-5.97
850.98	71.85
851.155	-24.4
851.33	53.42
851.505	22.7
851.681	57.51
851.856	57.51
852.031	30.89
852.206	6.31
852.381	32.94
852.556	49.32
852.731	41.13
852.906	26.79
853.081	34.99
853.256	49.32
853.431	12.46
853.606	-44.88
853.781	84.14
853.956	55.47
854.131	41.13
854.305	20.65
854.48	14.51
854.655	-16.21
854.83	65.71
855.005	75.95
855.18	41.13
855.354	-3.93
855.529	92.33
855.704	-1.88
855.879	20.65
856.053	80.04
856.228	45.23
856.403	-65.36
856.577	49.32
856.752	12.46
856.926	49.32
857.101	4.27
857.276	-18.26
857.45	2.22
857.625	53.42
857.799	22.7
857.974	2.22
858.148	-16.21
858.323	86.19
858.497	65.71
858.672	-16.21
858.846	-1.88
859.02	-32.6
859.195	-8.02
859.369	22.7
859.543	8.36
859.718	20.65
859.892	6.31
860.066	26.79
860.241	53.42
860.415	-34.64
860.589	84.14
860.763	26.79
860.938	-26.45
861.112	12.46
861.286	-12.12
861.46	20.65
861.634	-32.6
861.808	28.84
861.982	53.42
862.157	20.65
862.331	-61.27
862.505	34.99
862.679	-22.36
862.853	22.7
863.027	26.79
863.201	69.8
863.375	0.17
863.549	0.17
863.722	-22.36
863.896	10.41
864.07	51.37
864.244	32.94
864.418	55.47
864.592	32.94
864.766	-10.07
864.939	-73.56
865.113	0.17
865.287	12.46
865.461	-24.4
865.634	-22.36
865.808	16.55
865.982	69.8
866.156	-22.36
866.329	-94.04
866.503	53.42
866.676	-10.07
866.85	6.31
867.024	59.56
867.197	20.65
867.371	34.99
867.544	-16.21
867.718	-59.22
867.891	32.94
868.065	49.32
868.238	41.13
868.412	16.55
868.585	16.55
868.759	6.31
868.932	28.84
869.105	51.37
869.279	-8.02
869.452	-10.07
869.625	26.79
869.799	32.94
869.972	-12.12
870.145	77.99
870.319	2.22
870.492	-16.21
870.665	-38.74
870.838	-12.12
871.011	-61.27
871.185	18.6
871.358	10.41
871.531	41.13
871.704	10.41
871.877	80.04
872.05	20.65
872.223	-1.88
872.396	24.75
872.569	2.22
872.742	-22.36
872.915	47.27
873.088	-5.97
873.261	-57.17
873.434	10.41
873.607	28.84
873.78	34.99
873.953	-12.12
874.126	0.17
874.299	63.66
874.471	12.46
874.644	-18.26
874.817	-28.5
874.99	55.47
875.163	-20.31
875.335	24.75
875.508	4.27
875.681	59.56
875.853	-8.02
876.026	24.75
876.199	-3.93
876.371	-20.31
876.544	20.65
876.717	10.41
876.889	-26.45
877.062	75.95
877.234	-16.21
877.407	-40.79
877.579	22.7
877.752	-20.31
877.924	-12.12
878.097	-16.21
878.269	-30.55
878.442	63.66
878.614	4.27
878.786	0.17
878.959	20.65
879.131	-18.26
879.303	-20.31
879.476	6.31
879.648	16.55
879.82	-3.93
879.993	24.75
880.165	63.66
880.337	-38.74
880.509	-16.21
880.681	18.6
880.854	16.55
881.026	10.41
881.198	-20.31
881.37	-14.17
881.542	49.32
881.714	-44.88
881.886	-24.4
882.058	0.17
882.23	51.37
882.402	-44.88
882.574	8.36
882.746	24.75
882.918	0.17
883.09	-34.64
883.262	18.6
883.434	-57.17
883.606	-14.17
883.778	18.6
883.95	108.71
884.122	-51.03
884.293	80.04
884.465	12.46
884.637	34.99
884.809	-32.6
884.98	41.13
885.152	28.84
885.324	12.46
885.496	22.7
885.667	45.23
885.839	-34.64
886.011	28.84
886.182	63.66
886.354	2.22
886.525	2.22
886.697	4.27
886.869	51.37
887.04	20.65
887.212	-48.98
887.383	-1.88
887.555	92.33
887.726	16.55
887.897	-46.93
888.069	16.55
888.24	24.75
888.412	-59.22
888.583	18.6
888.754	-18.26
888.926	-69.46
889.097	-32.6
889.268	-3.93
889.44	12.46
889.611	-3.93
889.782	-34.64
889.953	-51.03
890.125	59.56
890.296	41.13
890.467	32.94
890.638	-24.4
890.809	-85.84
890.98	-14.17
891.151	28.84
891.323	-48.98
891.494	-22.36
891.665	14.51
891.836	-32.6
892.007	45.23
892.178	-12.12
892.349	-44.88
892.52	-28.5
892.691	-38.74
892.862	6.31
893.032	-10.07
893.203	55.47
893.374	6.31
893.545	-3.93
893.716	2.22
893.887	-26.45
894.057	-34.64
894.228	-12.12
894.399	-98.13
894.57	-3.93
894.74	-38.74
894.911	-69.46
895.082	-16.21
895.253	82.09
895.423	-14.17
895.594	6.31
895.764	-22.36
895.935	-14.17
896.106	-20.31
896.276	20.65
896.447	32.94
896.617	-57.17
896.788	20.65
896.958	32.94
897.129	-42.84
897.299	-16.21
897.47	-16.21
897.64	-28.5
897.81	-14.17
897.981	24.75
898.151	39.08
898.322	12.46
898.492	67.75
898.662	-24.4
898.832	47.27
899.003	-32.6
899.173	57.51
899.343	-98.13
899.513	-5.97
