Data from USB4F104151__287__11-12-58-041.txt Node

Date: Wed Mar 12 11:12:58 EDT 2025
User: louis
Spectrometer: USB4F10415
Trigger mode: 4
Integration Time (sec): 2.000000E-2
Scans to average: 1
Electric dark correction enabled: true
Nonlinearity correction enabled: false
Boxcar width: 0
XAxis mode: Wavelengths
Number of Pixels in Spectrum: 3648
>>>>>Begin Spectral Data<<<<<
178.204	-79.87
178.424	-79.87
178.644	-79.87
178.864	-40.96
179.084	-36.86
179.304	8.19
179.524	-2.05
179.744	24.58
179.964	28.67
180.184	36.86
180.404	32.77
180.624	-28.67
180.844	2.05
181.064	-32.77
181.283	-20.48
181.503	-43.01
181.723	-6.14
181.943	-14.34
182.163	63.49
182.383	0
182.602	20.48
182.822	63.49
183.042	63.49
183.262	-65.54
183.482	143.36
183.701	43.01
183.921	16.38
184.141	30.72
184.361	67.58
184.58	12.29
184.8	43.01
185.02	-79.87
185.239	24.58
185.459	40.96
185.679	57.34
185.898	8.19
186.118	36.86
186.338	16.38
186.557	73.73
186.777	-75.77
186.997	4.1
187.216	45.06
187.436	26.62
187.655	81.92
187.875	77.82
188.095	-2.05
188.314	73.73
188.534	32.77
188.753	98.3
188.973	0
189.192	49.15
189.412	65.54
189.631	-10.24
189.851	18.43
190.07	88.06
190.29	53.25
190.509	8.19
190.729	47.1
190.948	94.21
191.168	133.12
191.387	49.15
191.607	24.58
191.826	51.2
192.045	-10.24
192.265	49.15
192.484	-16.38
192.704	18.43
192.923	-26.62
193.142	61.44
193.362	12.29
193.581	24.58
193.8	-53.25
194.02	24.58
194.239	8.19
194.458	49.15
194.678	6.14
194.897	12.29
195.116	-20.48
195.335	34.82
195.555	67.58
195.774	4.1
195.993	47.1
196.212	61.44
196.432	10.24
196.651	122.88
196.87	38.91
197.089	94.21
197.308	40.96
197.528	94.21
197.747	18.43
197.966	57.34
198.185	81.92
198.404	57.34
198.623	92.16
198.842	69.63
199.062	61.44
199.281	40.96
199.5	32.77
199.719	43.01
199.938	38.91
200.157	38.91
200.376	28.67
200.595	57.34
200.814	49.15
201.033	4.1
201.252	71.68
201.471	75.77
201.69	90.11
201.909	32.77
202.128	4.1
202.347	10.24
202.566	83.97
202.785	38.91
203.004	32.77
203.223	106.49
203.442	-24.58
203.661	65.54
203.879	-20.48
204.098	108.54
204.317	10.24
204.536	36.86
204.755	-22.53
204.974	86.01
205.193	114.69
205.411	98.3
205.63	-20.48
205.849	8.19
206.068	40.96
206.287	6.14
206.505	77.82
206.724	77.82
206.943	53.25
207.162	20.48
207.381	32.77
207.599	6.14
207.818	-6.14
208.037	22.53
208.255	20.48
208.474	6.14
208.693	92.16
208.911	45.06
209.13	108.54
209.349	51.2
209.567	59.39
209.786	61.44
210.005	16.38
210.223	120.83
210.442	22.53
210.661	22.53
210.879	8.19
211.098	-38.91
211.316	22.53
211.535	88.06
211.753	14.34
211.972	118.78
212.191	32.77
212.409	-2.05
212.628	16.38
212.846	8.19
213.065	28.67
213.283	71.68
213.502	53.25
213.72	24.58
213.938	65.54
214.157	47.1
214.375	122.88
214.594	38.91
214.812	28.67
215.031	34.82
215.249	77.82
215.467	43.01
215.686	110.59
215.904	75.77
216.122	4.1
216.341	90.11
216.559	45.06
216.778	-8.19
216.996	43.01
217.214	55.3
217.432	67.58
217.651	16.38
217.869	71.68
218.087	-6.14
218.306	61.44
218.524	139.26
218.742	53.25
218.96	61.44
219.179	67.58
219.397	96.25
219.615	88.06
219.833	92.16
220.051	30.72
220.27	63.49
220.488	67.58
220.706	51.2
220.924	18.43
221.142	-12.29
221.36	-34.82
221.578	24.58
221.796	-16.38
222.015	49.15
222.233	-24.58
222.451	36.86
222.669	30.72
222.887	16.38
223.105	61.44
223.323	36.86
223.541	22.53
223.759	16.38
223.977	47.1
224.195	47.1
224.413	131.07
224.631	77.82
224.849	47.1
225.067	122.88
225.285	53.25
225.503	-4.1
225.721	6.14
225.939	40.96
226.157	-12.29
226.375	81.92
226.592	65.54
226.81	65.54
227.028	14.34
227.246	116.73
227.464	16.38
227.682	96.25
227.9	30.72
228.117	77.82
228.335	79.87
228.553	-10.24
228.771	18.43
228.989	34.82
229.206	69.63
229.424	53.25
229.642	88.06
229.86	12.29
230.077	0
230.295	36.86
230.513	0
230.731	63.49
230.948	73.73
231.166	14.34
231.384	6.14
231.601	-8.19
231.819	28.67
232.037	18.43
232.254	-24.58
232.472	63.49
232.689	45.06
232.907	131.07
233.125	24.58
233.342	49.15
233.56	18.43
233.777	-26.62
233.995	14.34
234.213	32.77
234.43	86.01
234.648	18.43
234.865	55.3
235.083	131.07
235.3	24.58
235.518	75.77
235.735	55.3
235.953	106.49
236.17	65.54
236.388	30.72
236.605	40.96
236.822	6.14
237.04	28.67
237.257	59.39
237.475	26.62
237.692	75.77
237.909	81.92
238.127	-18.43
238.344	81.92
238.562	18.43
238.779	-32.77
238.996	12.29
239.214	2.05
239.431	57.34
239.648	47.1
239.865	-4.1
240.083	61.44
240.3	-4.1
240.517	53.25
240.735	-40.96
240.952	61.44
241.169	65.54
241.386	14.34
241.603	0
241.821	-12.29
242.038	96.25
242.255	34.82
242.472	49.15
242.689	36.86
242.907	75.77
243.124	98.3
243.341	69.63
243.558	67.58
243.775	18.43
243.992	-14.34
244.209	94.21
244.426	94.21
244.643	51.2
244.86	75.77
245.078	65.54
245.295	-10.24
245.512	49.15
245.729	43.01
245.946	0
246.163	4.1
246.38	53.25
246.597	67.58
246.814	-28.67
247.031	75.77
247.248	90.11
247.464	12.29
247.681	69.63
247.898	73.73
248.115	45.06
248.332	20.48
248.549	81.92
248.766	69.63
248.983	155.65
249.2	-45.06
249.417	71.68
249.633	28.67
249.85	61.44
250.067	65.54
250.284	8.19
250.501	75.77
250.717	67.58
250.934	-8.19
251.151	147.45
251.368	49.15
251.585	151.55
251.801	45.06
252.018	18.43
252.235	38.91
252.451	59.39
252.668	4.1
252.885	43.01
253.102	98.3
253.318	45.06
253.535	73.73
253.752	22.53
253.968	30.72
254.185	67.58
254.401	53.25
254.618	45.06
254.835	28.67
255.051	61.44
255.268	57.34
255.484	79.87
255.701	43.01
255.917	133.12
256.134	-18.43
256.351	18.43
256.567	88.06
256.784	-8.19
257	-26.62
257.217	141.31
257.433	-6.14
257.65	34.82
257.866	86.01
258.082	57.34
258.299	-18.43
258.515	108.54
258.732	40.96
258.948	36.86
259.165	16.38
259.381	47.1
259.597	51.2
259.814	51.2
260.03	-6.14
260.246	96.25
260.463	112.64
260.679	90.11
260.895	73.73
261.112	-26.62
261.328	88.06
261.544	0
261.761	198.65
261.977	53.25
262.193	6.14
262.409	67.58
262.626	43.01
262.842	40.96
263.058	47.1
263.274	-6.14
263.49	32.77
263.707	59.39
263.923	4.1
264.139	43.01
264.355	53.25
264.571	143.36
264.787	26.62
265.004	51.2
265.22	22.53
265.436	45.06
265.652	8.19
265.868	110.59
266.084	-26.62
266.3	57.34
266.516	-63.49
266.732	108.54
266.948	77.82
267.164	14.34
267.38	81.92
267.596	-22.53
267.812	57.34
268.028	53.25
268.244	49.15
268.46	0
268.676	63.49
268.892	47.1
269.108	-10.24
269.324	43.01
269.54	116.73
269.756	6.14
269.972	-16.38
270.188	69.63
270.403	-14.34
270.619	-59.39
270.835	0
271.051	47.1
271.267	14.34
271.483	14.34
271.698	61.44
271.914	77.82
272.13	-4.1
272.346	12.29
272.562	116.73
272.777	83.97
272.993	6.14
273.209	63.49
273.425	10.24
273.64	51.2
273.856	61.44
274.072	30.72
274.287	59.39
274.503	49.15
274.719	14.34
274.934	53.25
275.15	38.91
275.366	45.06
275.581	40.96
275.797	36.86
276.012	24.58
276.228	81.92
276.444	43.01
276.659	122.88
276.875	63.49
277.09	0
277.306	51.2
277.521	20.48
277.737	57.34
277.952	32.77
278.168	28.67
278.383	49.15
278.599	88.06
278.814	45.06
279.03	135.17
279.245	49.15
279.461	28.67
279.676	32.77
279.892	-2.05
280.107	16.38
280.322	-6.14
280.538	0
280.753	0
280.969	6.14
281.184	38.91
281.399	53.25
281.615	-8.19
281.83	38.91
282.045	59.39
282.26	24.58
282.476	63.49
282.691	51.2
282.906	-18.43
283.122	51.2
283.337	14.34
283.552	47.1
283.767	28.67
283.983	73.73
284.198	135.17
284.413	38.91
284.628	43.01
284.843	20.48
285.058	69.63
285.274	90.11
285.489	57.34
285.704	53.25
285.919	32.77
286.134	43.01
286.349	-16.38
286.564	51.2
286.779	8.19
286.995	65.54
287.21	20.48
287.425	18.43
287.64	69.63
287.855	69.63
288.07	-57.34
288.285	61.44
288.5	40.96
288.715	26.62
288.93	8.19
289.145	40.96
289.36	90.11
289.575	18.43
289.79	59.39
290.004	79.87
290.219	73.73
290.434	14.34
290.649	-22.53
290.864	18.43
291.079	47.1
291.294	57.34
291.509	45.06
291.724	102.4
291.938	28.67
292.153	86.01
292.368	43.01
292.583	26.62
292.798	47.1
293.012	83.97
293.227	159.74
293.442	71.68
293.657	81.92
293.871	75.77
294.086	28.67
294.301	67.58
294.516	14.34
294.73	79.87
294.945	-49.15
295.16	24.58
295.374	79.87
295.589	38.91
295.804	-2.05
296.018	45.06
296.233	55.3
296.447	65.54
296.662	28.67
296.877	92.16
297.091	32.77
297.306	-40.96
297.52	-4.1
297.735	28.67
297.949	-38.91
298.164	96.25
298.378	14.34
298.593	47.1
298.807	2.05
299.022	40.96
299.236	77.82
299.451	36.86
299.665	45.06
299.88	38.91
300.094	122.88
300.309	34.82
300.523	55.3
300.737	-8.19
300.952	38.91
301.166	98.3
301.381	16.38
301.595	10.24
301.809	90.11
302.024	51.2
302.238	57.34
302.452	-10.24
302.667	61.44
302.881	53.25
303.095	75.77
303.309	112.64
303.524	96.25
303.738	43.01
303.952	18.43
304.166	20.48
304.381	10.24
304.595	92.16
304.809	51.2
305.023	124.93
305.237	51.2
305.452	49.15
305.666	28.67
305.88	-24.58
306.094	110.59
306.308	45.06
306.522	43.01
306.736	22.53
306.95	36.86
307.164	36.86
307.379	30.72
307.593	55.3
307.807	102.4
308.021	65.54
308.235	55.3
308.449	86.01
308.663	45.06
308.877	133.12
309.091	38.91
309.305	73.73
309.519	-16.38
309.733	92.16
309.947	-2.05
310.161	126.97
310.374	94.21
310.588	79.87
310.802	-10.24
311.016	10.24
311.23	40.96
311.444	57.34
311.658	59.39
311.872	120.83
312.085	102.4
312.299	157.69
312.513	10.24
312.727	55.3
312.941	36.86
313.154	86.01
313.368	49.15
313.582	8.19
313.796	57.34
314.009	-12.29
314.223	133.12
314.437	-24.58
314.651	26.62
314.864	55.3
315.078	77.82
315.292	55.3
315.505	40.96
315.719	14.34
315.933	-2.05
316.146	40.96
316.36	51.2
316.573	59.39
316.787	59.39
317.001	73.73
317.214	-40.96
317.428	83.97
317.641	20.48
317.855	57.34
318.068	-49.15
318.282	73.73
318.495	63.49
318.709	61.44
318.922	36.86
319.136	104.45
319.349	65.54
319.563	131.07
319.776	63.49
319.99	-40.96
320.203	69.63
320.417	40.96
320.63	53.25
320.843	65.54
321.057	57.34
321.27	36.86
321.483	104.45
321.697	133.12
321.91	36.86
322.124	94.21
322.337	104.45
322.55	38.91
322.763	34.82
322.977	32.77
323.19	73.73
323.403	30.72
323.617	61.44
323.83	90.11
324.043	88.06
324.256	18.43
324.469	-12.29
324.683	88.06
324.896	40.96
325.109	34.82
325.322	73.73
325.535	88.06
325.748	69.63
325.962	63.49
326.175	81.92
326.388	-28.67
326.601	83.97
326.814	73.73
327.027	100.35
327.24	118.78
327.453	26.62
327.666	30.72
327.879	61.44
328.092	90.11
328.305	45.06
328.518	73.73
328.731	16.38
328.944	73.73
329.157	-30.72
329.37	79.87
329.583	59.39
329.796	88.06
330.009	-26.62
330.222	71.68
330.435	63.49
330.648	73.73
330.861	26.62
331.073	59.39
331.286	47.1
331.499	53.25
331.712	2.05
331.925	-43.01
332.138	77.82
332.35	104.45
332.563	32.77
332.776	28.67
332.989	71.68
333.202	43.01
333.414	69.63
333.627	63.49
333.84	2.05
334.053	65.54
334.265	34.82
334.478	73.73
334.691	-8.19
334.903	-16.38
335.116	47.1
335.329	73.73
335.541	88.06
335.754	63.49
335.966	110.59
336.179	30.72
336.392	26.62
336.604	38.91
336.817	102.4
337.029	88.06
337.242	71.68
337.454	2.05
337.667	-2.05
337.88	73.73
338.092	94.21
338.305	90.11
338.517	22.53
338.729	61.44
338.942	73.73
339.154	36.86
339.367	73.73
339.579	8.19
339.792	79.87
340.004	71.68
340.217	-8.19
340.429	116.73
340.641	-4.1
340.854	61.44
341.066	88.06
341.278	61.44
341.491	75.77
341.703	47.1
341.915	77.82
342.128	40.96
342.34	14.34
342.552	49.15
342.764	14.34
342.977	104.45
343.189	10.24
343.401	57.34
343.613	20.48
343.826	45.06
344.038	-10.24
344.25	47.1
344.462	40.96
344.674	106.49
344.886	-8.19
345.099	83.97
345.311	61.44
345.523	79.87
345.735	14.34
345.947	79.87
346.159	67.58
346.371	69.63
346.583	65.54
346.795	90.11
347.007	-4.1
347.219	108.54
347.431	-6.14
347.643	-4.1
347.855	14.34
348.067	151.55
348.279	61.44
348.491	61.44
348.703	57.34
348.915	139.26
349.127	71.68
349.339	45.06
349.551	-2.05
349.763	49.15
349.975	106.49
350.187	71.68
350.399	67.58
350.61	86.01
350.822	59.39
351.034	30.72
351.246	131.07
351.458	61.44
351.669	88.06
351.881	182.27
352.093	71.68
352.305	77.82
352.517	77.82
352.728	155.65
352.94	67.58
353.152	104.45
353.363	57.34
353.575	24.58
353.787	61.44
353.999	145.41
354.21	100.35
354.422	71.68
354.633	92.16
354.845	90.11
355.057	16.38
355.268	-4.1
355.48	43.01
355.692	-18.43
355.903	57.34
356.115	6.14
356.326	-8.19
356.538	110.59
356.749	49.15
356.961	-14.34
357.172	65.54
357.384	30.72
357.595	124.93
357.807	71.68
358.018	40.96
358.23	-12.29
358.441	114.69
358.653	124.93
358.864	45.06
359.075	79.87
359.287	90.11
359.498	36.86
359.709	49.15
359.921	22.53
360.132	10.24
360.344	131.07
360.555	28.67
360.766	47.1
360.977	28.67
361.189	90.11
361.4	108.54
361.611	71.68
361.823	100.35
362.034	83.97
362.245	65.54
362.456	147.45
362.667	32.77
362.879	94.21
363.09	92.16
363.301	22.53
363.512	36.86
363.723	-18.43
363.935	24.58
364.146	75.77
364.357	45.06
364.568	81.92
364.779	0
364.99	83.97
365.201	20.48
365.412	141.31
365.623	-36.86
365.834	77.82
366.045	73.73
366.256	69.63
366.467	100.35
366.678	0
366.889	120.83
367.1	67.58
367.311	77.82
367.522	63.49
367.733	126.97
367.944	77.82
368.155	40.96
368.366	77.82
368.577	94.21
368.788	65.54
368.999	40.96
369.209	-12.29
369.42	83.97
369.631	112.64
369.842	102.4
370.053	30.72
370.264	69.63
370.474	47.1
370.685	90.11
370.896	59.39
371.107	4.1
371.317	88.06
371.528	43.01
371.739	118.78
371.95	108.54
372.16	71.68
372.371	-10.24
372.582	6.14
372.792	12.29
373.003	149.5
373.214	133.12
373.424	53.25
373.635	102.4
373.846	38.91
374.056	16.38
374.267	18.43
374.477	108.54
374.688	96.25
374.898	102.4
375.109	-4.1
375.319	40.96
375.53	59.39
375.74	77.82
375.951	38.91
376.161	43.01
376.372	79.87
376.582	26.62
376.793	122.88
377.003	55.3
377.214	69.63
377.424	2.05
377.635	47.1
377.845	-4.1
378.055	38.91
378.266	43.01
378.476	81.92
378.686	79.87
378.897	-24.58
379.107	73.73
379.317	106.49
379.528	36.86
379.738	81.92
379.948	16.38
380.158	81.92
380.369	16.38
380.579	61.44
380.789	0
380.999	81.92
381.21	90.11
381.42	147.45
381.63	-4.1
381.84	26.62
382.05	110.59
382.261	59.39
382.471	90.11
382.681	49.15
382.891	137.21
383.101	40.96
383.311	-6.14
383.521	77.82
383.731	94.21
383.941	77.82
384.151	18.43
384.361	30.72
384.571	63.49
384.781	65.54
384.991	90.11
385.201	118.78
385.411	14.34
385.621	81.92
385.831	22.53
386.041	-40.96
386.251	-47.1
386.461	67.58
386.671	43.01
386.881	83.97
387.091	94.21
387.301	118.78
387.511	75.77
387.72	67.58
387.93	53.25
388.14	-26.62
388.35	59.39
388.56	90.11
388.769	110.59
388.979	90.11
389.189	73.73
389.399	86.01
389.609	83.97
389.818	61.44
390.028	90.11
390.238	110.59
390.447	22.53
390.657	77.82
390.867	8.19
391.076	145.41
391.286	79.87
391.496	102.4
391.705	32.77
391.915	106.49
392.125	102.4
392.334	65.54
392.544	139.26
392.753	116.73
392.963	102.4
393.172	153.6
393.382	92.16
393.591	86.01
393.801	86.01
394.01	143.36
394.22	141.31
394.429	79.87
394.639	86.01
394.848	116.73
395.058	79.87
395.267	73.73
395.477	116.73
395.686	96.25
395.895	143.36
396.105	157.69
396.314	81.92
396.524	102.4
396.733	118.78
396.942	114.69
397.152	53.25
397.361	133.12
397.57	131.07
397.78	96.25
397.989	79.87
398.198	167.93
398.407	38.91
398.617	86.01
398.826	94.21
399.035	135.17
399.244	8.19
399.453	63.49
399.663	45.06
399.872	112.64
400.081	129.02
400.29	139.26
400.499	88.06
400.708	28.67
400.917	75.77
401.127	106.49
401.336	120.83
401.545	153.6
401.754	169.98
401.963	161.79
402.172	114.69
402.381	106.49
402.59	88.06
402.799	110.59
403.008	122.88
403.217	180.22
403.426	188.41
403.635	200.7
403.844	167.93
404.053	116.73
404.262	141.31
404.471	153.6
404.68	131.07
404.888	200.7
405.097	215.04
405.306	151.55
405.515	188.41
405.724	122.88
405.933	126.97
406.142	188.41
406.35	253.95
406.559	178.17
406.768	155.65
406.977	280.57
407.185	243.71
407.394	165.89
407.603	210.94
407.812	165.89
408.02	200.7
408.229	276.48
408.438	239.61
408.646	270.33
408.855	307.2
409.064	188.41
409.272	280.57
409.481	360.44
409.69	294.91
409.898	165.89
410.107	327.67
410.315	321.53
410.524	354.3
410.733	307.2
410.941	272.38
411.15	419.83
411.358	423.93
411.567	452.6
411.775	342.01
411.984	421.88
412.192	505.85
412.401	464.89
412.609	446.46
412.818	493.56
413.026	471.03
413.234	530.42
413.443	598.01
413.651	552.95
413.86	626.68
414.068	630.77
414.276	641.01
414.485	622.58
414.693	741.36
414.901	786.42
415.11	741.36
415.318	757.75
415.526	712.69
415.734	727.03
415.943	811
416.151	811
416.359	899.06
416.567	905.2
416.776	919.54
416.984	946.16
417.192	1032.18
417.4	1026.03
417.608	913.39
417.817	1007.6
418.025	1054.7
418.233	1091.57
418.441	1230.83
418.649	1275.88
418.857	1263.6
419.065	1253.36
419.273	1298.41
419.481	1353.71
419.689	1458.15
419.897	1523.69
420.105	1546.22
420.313	1607.66
420.521	1654.76
420.729	1595.37
420.937	1751.01
421.145	1810.4
421.353	1845.22
421.561	1937.38
421.769	2035.68
421.977	2007.01
422.185	2037.73
422.393	2254.81
422.601	2322.4
422.809	2346.97
423.017	2318.3
423.224	2367.45
423.432	2453.47
423.64	2480.09
423.848	2686.94
424.056	2699.22
424.263	2856.92
424.471	2869.2
424.679	2871.25
424.887	3139.54
425.094	3170.26
425.302	3215.31
425.51	3319.76
425.718	3344.33
425.925	3485.64
426.133	3631.05
426.341	3870.66
426.548	3948.48
426.756	3852.23
426.964	4063.17
427.171	4202.43
427.379	4304.83
427.586	4239.3
427.794	4433.85
428.001	4634.55
428.209	5091.25
428.417	4947.89
428.624	5193.65
428.832	5261.23
429.039	5193.65
429.247	5244.85
429.454	5801.9
429.662	6045.6
429.869	5615.53
430.076	6100.9
430.284	5871.53
430.491	6055.84
430.699	6481.82
430.906	6537.12
431.114	6733.72
431.321	6688.67
431.528	7059.35
431.736	7282.58
431.943	7526.29
432.15	7520.14
432.358	7649.16
432.565	8050.57
432.772	8075.14
432.979	8519.55
433.187	8392.58
433.394	8662.91
433.601	9289.59
433.808	9265.01
434.016	9068.41
434.223	9385.84
434.43	9953.13
434.637	9994.09
434.844	10346.34
435.052	10729.31
435.259	10588
435.466	10714.97
435.673	10663.77
435.88	11396.95
436.087	11960.14
436.294	11888.46
436.501	11638.61
436.708	11933.51
436.915	12427.07
437.122	12595.01
437.329	12676.93
437.537	13180.73
437.743	13371.19
437.95	13254.45
438.157	14040.87
438.364	14602.02
438.571	14065.45
438.778	14702.37
438.985	15976.2
439.192	15359.77
439.399	15453.97
439.606	15406.87
439.813	16324.36
440.02	17176.31
440.227	16717.57
440.433	16690.95
440.64	17123.07
440.847	17168.12
441.054	17473.27
441.261	18712.29
441.467	18433.77
441.674	18710.24
441.881	19549.91
442.088	19408.6
442.294	18990.81
442.501	19893.97
442.708	20082.38
442.914	21141.18
443.121	21829.3
443.328	21157.57
443.534	22709.93
443.741	22042.29
443.948	21724.85
444.154	23482.01
444.361	23187.1
444.568	23318.17
444.774	23783.06
444.981	23568.02
445.187	24516.23
445.394	25208.45
445.6	25200.26
445.807	27539.04
446.013	26359.41
446.22	26908.26
446.426	27889.24
446.633	28038.74
446.839	28675.66
447.046	27727.45
447.252	29054.53
447.459	29070.92
447.665	28831.3
447.871	30244.4
448.078	31524.38
448.284	29910.58
448.491	30991.91
448.697	32255.51
448.903	32892.43
449.11	32925.19
449.316	32048.66
449.522	32859.66
449.728	33795.58
449.935	33910.27
450.141	33697.28
450.347	34745.84
450.553	33598.98
450.76	33904.12
450.966	34850.28
451.172	34530.8
451.378	35300.84
451.584	34838
451.791	35505.63
451.997	35546.59
452.203	36013.53
452.409	35982.81
452.615	35771.87
452.821	34516.47
453.027	34067.96
453.233	36046.3
453.44	34729.45
453.646	34495.99
453.852	35024.36
454.058	35562.98
454.264	34074.1
454.47	35085.8
454.676	34350.58
454.882	35296.74
455.088	32382.48
455.294	32544.27
455.5	33181.19
455.705	33703.42
455.911	32077.33
456.117	31508
456.323	30789.16
456.529	29509.18
456.735	30500.4
456.941	29746.75
457.147	29267.52
457.352	28268.11
457.558	28003.92
457.764	28124.75
457.97	27633.24
458.176	27031.14
458.381	26881.64
458.587	25888.37
458.793	25460.35
458.999	24293.01
459.204	26429.04
459.41	25536.12
459.616	23637.66
459.821	23451.29
460.027	23568.02
460.233	23168.67
460.438	22087.34
460.644	22263.47
460.85	21065.41
461.055	20618.95
461.261	20815.55
461.466	19201.75
461.672	18788.07
461.878	20219.6
462.083	18683.62
462.289	18470.63
462.494	18292.46
462.7	17700.59
462.905	17067.77
463.111	17733.36
463.316	17370.87
463.522	17354.49
463.727	17102.59
463.932	17235.7
464.138	17262.33
464.343	17116.92
464.549	16574.21
464.754	17254.14
464.959	16854.78
465.165	17080.06
465.37	16258.82
465.575	15873.81
465.781	16459.52
465.986	16594.69
466.191	15787.79
466.397	15793.93
466.602	14872.35
466.807	15267.61
467.012	15437.59
467.218	15212.31
467.423	14991.13
467.628	15423.25
467.833	15963.92
468.038	15392.53
468.244	14935.84
468.449	15482.64
468.654	15163.16
468.859	15025.95
469.064	14931.74
469.269	14290.73
469.474	14298.92
469.679	14589.73
469.885	13877.04
470.09	14458.66
470.295	14118.7
470.5	13956.91
470.705	14042.92
470.91	13643.57
471.115	13711.15
471.32	13723.44
471.525	13852.46
471.73	13274.93
471.935	13225.78
472.139	12840.76
472.344	13049.66
472.549	12934.97
472.754	12842.81
472.959	12506.95
473.164	12277.57
473.369	12132.17
473.574	12228.42
473.778	12439.36
473.983	12050.25
474.188	12123.97
474.393	11806.54
474.598	11781.96
474.802	11532.11
475.007	11497.3
475.212	11614.03
475.417	11005.78
475.621	11085.65
475.826	11341.65
476.031	10757.98
476.235	10516.32
476.44	10831.71
476.645	10454.88
476.849	10800.99
477.054	10383.2
477.259	10338.15
477.463	10319.71
477.668	10102.63
477.872	10057.57
478.077	10035.05
478.282	9801.58
478.486	9719.66
478.691	9789.29
478.895	9465.71
479.1	9678.7
479.304	9484.14
479.509	9369.46
479.713	9619.31
479.918	9236.34
480.122	9152.37
480.326	9518.96
480.531	9170.8
480.735	9205.62
480.94	9138.04
481.144	9267.06
481.348	8961.91
481.553	9205.62
481.757	8959.86
481.961	9052.02
482.166	9125.75
482.37	9103.22
482.574	8732.54
482.778	8912.76
482.983	9025.4
483.187	8904.57
483.391	9076.6
483.595	8830.84
483.8	8775.55
484.004	9019.25
484.208	9062.26
484.412	8908.66
484.616	8970.1
484.821	8957.82
485.025	8902.52
485.229	8841.08
485.433	8929.14
485.637	9039.73
485.841	8900.47
486.045	8748.92
486.249	8861.56
486.453	8984.44
486.657	8896.38
486.861	9002.87
487.065	8648.57
487.269	9033.59
487.473	8640.38
487.677	8863.61
487.881	9111.41
488.085	8847.22
488.289	8918.9
488.493	8877.94
488.697	8978.29
488.901	9090.93
489.105	8869.75
489.309	8902.52
489.512	9070.45
489.716	9049.97
489.92	8953.72
490.124	9086.84
490.328	9279.35
490.531	9318.26
490.735	9168.76
490.939	8998.77
491.143	9011.06
491.346	9310.07
491.55	9230.2
491.754	9197.43
491.958	9351.03
492.161	9324.4
492.365	9398.13
492.569	9260.91
492.772	9455.47
492.976	9262.96
493.18	9545.58
493.383	9559.92
493.587	9531.25
493.79	9805.67
493.994	9760.62
494.197	9910.12
494.401	9946.98
494.605	9883.5
494.808	9985.9
495.012	10184.55
495.215	10166.12
495.419	10030.95
495.622	10135.4
495.825	10280.8
496.029	10364.77
496.232	10497.89
496.436	10440.54
496.639	10757.98
496.843	10633.05
497.046	10979.16
497.249	11087.7
497.453	11042.65
497.656	11061.08
497.859	11024.22
498.063	11401.04
498.266	11685.71
498.469	11284.31
498.673	11673.42
498.876	11646.8
499.079	11910.99
499.282	12003.14
499.485	12095.3
499.689	12339.01
499.892	12355.4
500.095	12443.46
500.298	12838.72
500.501	12599.1
500.705	12902.2
500.908	13182.77
501.111	13313.84
501.314	13428.53
501.517	13444.91
501.72	13571.89
501.923	13465.39
502.126	13864.75
502.329	14157.61
502.532	14352.16
502.735	14333.73
502.938	14382.88
503.141	14786.33
503.344	14935.84
503.547	14919.45
503.75	15093.53
503.953	15316.76
504.156	15537.94
504.359	15630.1
504.562	15550.23
504.765	16068.36
504.968	16152.33
505.17	16396.04
505.373	16297.74
505.576	16496.39
505.779	16828.16
505.982	16719.62
506.185	17116.92
506.387	17286.9
506.59	17463.03
506.793	17520.37
506.996	17626.87
507.198	18194.15
507.401	17886.96
507.604	18427.62
507.807	18439.91
508.009	18986.72
508.212	18804.45
508.415	19087.07
508.617	19271.39
508.82	19193.56
509.022	19433.18
509.225	19773.14
509.428	19807.95
509.63	20229.84
509.833	20176.59
510.035	20600.52
510.238	20430.54
510.44	20750.02
510.643	21343.93
510.845	21286.59
511.048	21075.65
511.25	21714.61
511.453	21743.28
511.655	22412.97
511.858	22376.11
512.06	22359.72
512.262	22691.49
512.465	22623.91
512.667	23135.9
512.87	23264.92
513.072	23211.68
513.274	23547.54
513.477	24147.6
513.679	23895.7
513.881	24522.38
514.084	24372.88
514.286	24403.6
514.488	24979.07
514.69	25468.54
514.893	25476.73
515.095	25482.88
515.297	26156.66
515.499	26033.78
515.701	26207.86
515.904	26558.06
516.106	26795.62
516.308	27000.42
516.51	27342.43
516.712	27217.5
516.914	27309.66
517.116	28096.08
517.318	28161.62
517.52	28239.44
517.722	28472.91
517.925	28722.76
518.127	29107.78
518.329	29161.03
518.531	28634.7
518.733	29513.28
518.935	29666.88
519.136	29769.27
519.338	30348.85
519.54	30635.56
519.742	30676.52
519.944	30889.51
520.146	31184.42
520.348	31376.93
520.55	31559.2
520.752	31698.46
520.954	32017.94
521.155	31616.54
521.357	32417.3
521.559	32562.7
521.761	33076.74
521.963	32738.83
522.164	32964.1
522.366	33256.96
522.568	33758.72
522.77	33584.64
522.971	34383.35
523.173	33994.23
523.375	34260.47
523.576	34393.59
523.778	34248.18
523.98	34940.39
524.181	34850.28
524.383	34917.87
524.584	35509.73
524.786	35476.96
524.988	35415.52
525.189	35925.47
525.391	35935.71
525.592	35958.24
525.794	36154.84
525.995	36431.32
526.197	36468.18
526.398	36537.81
526.6	36648.4
526.801	36703.7
527.003	37033.42
527.204	36939.21
527.406	37205.45
527.607	37680.58
527.808	37615.04
528.01	37031.37
528.211	37451.2
528.412	38030.78
528.614	37766.59
528.815	37635.52
529.016	38571.44
529.218	37715.39
529.419	38192.57
529.62	38213.05
529.822	38114.75
530.023	38270.39
530.224	38323.64
530.425	37803.46
530.626	38077.88
530.828	37916.09
531.029	38987.18
531.23	38202.81
531.431	38405.56
531.632	38548.92
531.833	38718.9
532.035	38079.93
532.236	38514.1
532.437	38854.06
532.638	38788.53
532.839	38880.69
533.04	39204.27
533.241	38565.3
533.442	39204.27
533.643	38815.15
533.844	38897.07
534.045	38974.89
534.246	38507.96
534.447	38886.83
534.648	39280.04
534.849	38895.02
535.05	38374.84
535.251	39083.44
535.451	38942.13
535.652	38798.77
535.853	38628.79
536.054	38839.73
536.255	38993.32
536.456	38761.9
536.657	39634.34
536.857	39081.39
537.058	38520.24
537.259	39407.01
537.46	39153.07
537.66	38892.97
537.861	39155.11
538.062	38817.2
538.263	38948.27
538.463	39237.03
538.664	38677.94
538.865	38866.35
539.065	39136.68
539.266	38559.16
539.466	39069.1
539.667	38409.65
539.868	39421.35
540.068	38778.29
540.269	39122.35
540.469	39077.29
540.67	38970.8
540.87	38880.69
541.071	38733.23
541.271	39331.24
541.472	38751.66
541.672	38802.86
541.873	38575.54
542.073	38139.32
542.274	39077.29
542.474	38852.02
542.675	38548.92
542.875	39189.93
543.075	38989.23
543.276	38356.41
543.476	39005.61
543.676	38208.95
543.877	38987.18
544.077	38950.32
544.277	38819.25
544.478	38665.65
544.678	38811.06
544.878	38346.17
545.078	38657.46
545.279	39015.85
545.479	38477.24
545.679	38352.31
545.879	38528.44
546.079	38352.31
546.28	38634.93
546.48	38249.91
546.68	38573.49
546.88	38745.52
547.08	38417.85
547.28	38176.19
547.48	38430.13
547.68	38272.44
547.88	38127.03
548.081	38510
548.281	38389.17
548.481	38124.99
548.681	38686.13
548.881	38602.16
549.081	38239.67
549.28	38196.67
549.48	38553.01
549.68	38876.59
549.88	38905.26
550.08	38350.26
550.28	38325.69
550.48	38008.25
550.68	38579.64
550.88	38030.78
551.08	38596.02
551.279	38352.31
551.479	38249.91
551.679	38278.58
551.879	38024.64
552.079	38593.97
552.278	37756.35
552.478	38139.32
552.678	38004.16
552.878	38503.86
553.077	38084.03
553.277	38127.03
553.477	38632.88
553.676	37877.18
553.876	38249.91
554.076	37977.53
554.275	37742.02
554.475	37733.82
554.674	38172.09
554.874	37742.02
555.074	37508.55
555.273	38139.32
555.473	37948.86
555.672	37545.41
555.872	37643.71
556.071	37717.44
556.271	37975.48
556.47	37367.24
556.67	37357
556.869	36984.27
557.068	37696.96
557.268	37053.9
557.467	37539.27
557.667	37391.81
557.866	37514.69
558.065	36941.26
558.265	36984.27
558.464	36904.4
558.663	37580.23
558.863	36900.3
559.062	37406.15
559.261	37107.15
559.461	37307.85
559.66	36685.26
559.859	37037.51
560.058	36718.03
560.258	36926.92
560.457	36445.65
560.656	36867.53
560.855	36576.72
561.054	36683.22
561.253	36419.03
561.453	36459.99
561.652	36599.25
561.851	36926.92
562.05	36312.53
562.249	36509.14
562.448	36722.13
562.647	35988.95
562.846	36443.6
563.045	36554.19
563.244	35886.56
563.443	36294.1
563.642	35540.45
563.841	36036.06
564.04	35726.81
564.239	36152.79
564.438	35513.83
564.637	36013.53
564.836	35825.12
565.035	35321.32
565.234	35534.31
565.432	35409.38
565.631	35141.1
565.83	35126.76
566.029	35071.46
566.228	35169.77
566.427	35425.76
566.625	34854.38
566.824	34502.13
567.023	35257.83
567.222	34575.86
567.42	35214.82
567.619	34891.24
567.818	34956.78
568.016	34541.04
568.215	35010.03
568.414	34307.57
568.612	34749.93
568.811	34473.46
569.01	34203.13
569.208	34211.32
569.407	34475.51
569.605	33955.32
569.804	34153.97
570.002	33844.73
570.201	34567.66
570.4	33541.63
570.598	33779.2
570.797	33750.52
570.995	34051.58
571.193	33330.69
571.392	33936.89
571.59	33498.62
571.789	33021.45
571.987	33318.4
572.186	33136.13
572.384	32964.1
572.582	33326.6
572.781	33232.39
572.979	32671.25
573.177	33138.18
573.376	32785.93
573.574	32570.89
573.772	32593.42
573.971	32595.47
574.169	32523.79
574.367	32132.63
574.565	32732.68
574.763	32261.65
574.962	32019.99
575.16	32013.85
575.358	32196.12
575.556	31854.11
575.754	32372.24
575.952	31598.11
576.151	32122.39
576.349	31677.98
576.547	31471.14
576.745	31630.88
576.943	31555.1
577.141	31432.22
577.339	31458.85
577.537	31524.38
577.735	31378.98
577.933	30766.63
578.131	31186.47
578.329	30686.76
578.527	30414.38
578.725	30522.93
578.923	31010.34
579.121	30809.64
579.319	30897.7
579.516	30772.78
579.714	30643.76
579.912	30475.82
580.11	30254.64
580.308	30168.63
580.506	30623.28
580.704	30174.77
580.901	30377.52
581.099	30469.68
581.297	29677.12
581.495	29654.59
581.692	30006.84
581.89	29615.68
582.088	29963.83
582.285	29312.58
582.483	29961.78
582.681	29414.98
582.878	29591.1
583.076	28958.28
583.274	29505.09
583.471	28741.19
583.669	29191.75
583.866	28991.05
584.064	29550.14
584.262	28733
584.459	29027.91
584.657	28456.53
584.854	28984.9
585.052	28182.1
585.249	28450.38
585.447	28350.03
585.644	28298.83
585.841	28563.02
586.039	28597.84
586.236	27907.67
586.434	27997.78
586.631	27870.81
586.828	28016.21
587.026	27817.56
587.223	27512.41
587.42	27876.95
587.618	27680.35
587.815	27393.63
588.012	27305.57
588.21	27287.14
588.407	27500.12
588.604	27115.11
588.801	27008.61
588.999	27326.05
589.196	26981.99
589.393	27176.55
589.59	26943.08
589.787	26711.66
589.984	26496.62
590.182	26357.36
590.379	26775.14
590.576	26529.39
590.773	26754.66
590.97	26541.67
591.167	26257.01
591.364	26101.36
591.561	26134.13
591.758	25904.76
591.955	25847.41
592.152	26259.06
592.349	25910.9
592.546	26037.87
592.743	26318.45
592.94	25456.25
593.137	25810.55
593.334	25650.81
593.531	25446.01
593.727	25527.93
593.924	25624.18
594.121	24948.36
594.318	25366.14
594.515	25298.56
594.712	25247.36
594.908	25065.09
595.105	25009.79
595.302	24931.97
595.499	25015.94
595.696	24460.94
595.892	24641.16
596.089	24702.6
596.286	24522.38
596.482	24596.1
596.679	24430.22
596.876	24667.78
597.072	24190.61
597.269	24104.59
597.466	23750.29
597.662	24180.37
597.859	24080.02
598.055	23852.69
598.252	23817.88
598.448	23746.2
598.645	23602.84
598.841	23537.3
599.038	23568.02
599.234	23367.32
599.431	23197.34
599.627	23367.32
599.824	23531.16
600.02	23152.29
600.217	23416.47
600.413	23207.58
600.609	23096.99
600.806	22791.84
601.002	22824.61
601.198	22632.1
601.395	22904.48
601.591	22841
601.787	22607.53
601.984	22222.51
602.18	22877.86
602.376	22329
602.572	22521.51
602.769	21980.85
602.965	22150.83
603.161	22255.28
603.357	22118.06
603.553	21984.94
603.75	22126.25
603.946	22073.01
604.142	22025.9
604.338	21509.82
604.534	21702.32
604.73	21167.8
604.926	21667.51
605.122	21690.04
605.318	21479.1
605.514	21169.85
605.71	21388.99
605.906	21388.99
606.102	21370.55
606.298	21276.35
606.494	21178.04
606.69	20864.71
606.886	21300.92
607.082	20825.79
607.278	21012.16
607.474	20750.02
607.67	21055.17
607.866	20485.83
608.062	20930.24
608.257	20897.47
608.453	20516.55
608.649	20862.66
608.845	20467.4
609.041	20410.06
609.236	20420.3
609.432	20655.81
609.628	20534.98
609.824	20575.94
610.019	20375.24
610.215	20088.53
610.411	20534.98
610.606	19883.73
610.802	20109.01
610.998	20229.84
611.193	19998.41
611.389	19887.82
611.584	19957.46
611.78	19810
611.976	19711.7
612.171	19791.57
612.367	19672.79
612.562	20033.23
612.758	19474.13
612.953	19529.43
613.149	19818.19
613.344	19801.81
613.539	19877.58
613.735	19582.68
613.93	19850.96
614.126	19400.41
614.321	19922.64
614.517	19189.47
614.712	19490.52
614.907	19166.94
615.103	19535.57
615.298	19140.32
615.493	19658.45
615.688	19039.97
615.884	19345.11
616.079	18939.61
616.274	19197.66
616.47	19025.63
616.665	19107.55
616.86	19009.25
617.055	19093.21
617.25	18818.78
617.445	18978.53
617.641	18560.74
617.836	19011.29
618.031	18675.43
618.226	18554.6
618.421	18665.19
618.616	18732.77
618.811	18339.56
619.006	18693.86
619.201	18099.95
619.396	18278.12
619.591	17981.17
619.786	18210.54
619.981	17889.01
620.176	18056.94
620.371	17716.98
620.566	18087.66
620.761	17770.22
620.956	17848.05
621.151	17565.43
621.346	17690.35
621.541	17299.19
621.735	17590
621.93	17387.25
622.125	17477.37
622.32	17196.79
622.515	17280.76
622.709	16924.41
622.904	17176.31
623.099	16774.91
623.294	16879.36
623.488	16471.81
623.683	16414.47
623.878	16287.5
624.072	16121.61
624.267	16402.18
624.462	16383.75
624.656	15945.48
624.851	16121.61
625.046	15832.85
625.24	15951.63
625.435	15912.72
625.629	15820.56
625.824	15691.54
626.018	15775.5
626.213	15486.74
626.407	15521.56
626.602	15081.24
626.796	15476.5
626.991	15281.94
627.185	14921.5
627.38	14984.99
627.574	14939.93
627.768	14755.61
627.963	14702.37
628.157	14495.52
628.352	14864.16
628.546	14587.68
628.74	14761.76
628.935	14264.1
629.129	14468.9
629.323	14288.68
629.517	14276.39
629.712	13971.24
629.906	13997.87
630.1	13842.22
630.294	14044.97
630.489	13954.86
630.683	13766.45
630.877	13584.18
631.071	13682.48
631.265	13549.36
631.459	13373.24
631.653	13487.92
631.848	13530.93
632.042	13047.61
632.236	13221.69
632.43	13041.46
632.624	13070.14
632.818	12934.97
633.012	12752.7
633.206	12791.61
633.4	12949.31
633.594	12742.46
633.788	12683.07
633.982	12625.73
634.176	12537.66
634.369	12287.81
634.563	12377.92
634.757	12132.17
634.951	12209.99
635.145	12080.97
635.339	12177.22
635.533	12076.87
635.726	12087.11
635.92	12074.82
636.114	11874.12
636.308	11876.17
636.501	11759.44
636.695	11642.7
636.889	11689.81
637.083	11585.36
637.276	11415.38
637.47	11575.12
637.664	11671.37
637.857	11415.38
638.051	11147.09
638.244	11368.27
638.438	11388.75
638.632	11269.97
638.825	11186.01
639.019	10868.57
639.212	10925.91
639.406	11034.46
639.599	11071.32
639.793	11157.33
639.986	10825.56
640.18	10639.2
640.373	10887
640.567	10399.59
640.76	10573.66
640.954	10399.59
641.147	10737.5
641.34	10278.76
641.534	10375.01
641.727	10350.43
641.92	10325.86
642.114	10375.01
642.307	10123.11
642.5	10012.52
642.694	9697.13
642.887	9887.59
643.08	9938.79
643.273	10006.38
643.467	9850.73
643.66	9578.35
643.853	9656.17
644.046	9672.56
644.239	9506.67
644.432	9566.06
644.626	9580.4
644.819	9332.59
645.012	9396.08
645.205	9373.55
645.398	9322.35
645.591	9305.97
645.784	9119.6
645.977	9135.99
646.17	9092.98
646.363	8933.24
646.556	9117.56
646.749	8923
646.942	8994.68
647.135	8773.5
647.328	8789.88
647.521	8703.87
647.714	8619.9
647.907	8646.52
648.099	8656.76
648.292	8662.91
648.485	8468.35
648.678	8474.49
648.871	8454.01
649.064	8286.08
649.256	8400.77
649.449	8333.18
649.642	8279.94
649.835	8275.84
650.027	8230.79
650.22	8286.08
650.413	7956.36
650.605	8138.63
650.798	8212.35
650.991	8019.85
651.183	8128.39
651.376	7769.99
651.568	7751.56
651.761	7892.87
651.954	7833.48
652.146	7788.43
652.339	7702.41
652.531	7606.16
652.724	7524.24
652.916	7290.77
653.109	7450.51
653.301	7616.4
653.494	7532.43
653.686	7235.47
653.879	7634.83
654.071	7427.98
654.263	7305.1
654.456	7266.19
654.648	7280.53
654.84	7028.63
655.033	7024.53
655.225	7063.44
655.417	7120.79
655.61	6965.14
655.802	7071.64
655.994	6965.14
656.186	7159.7
656.379	6895.51
656.571	6834.07
656.763	6901.65
656.955	6676.38
657.148	6657.95
657.34	6807.45
657.532	6774.68
657.724	6703
657.916	6651.8
658.108	6584.22
658.3	6664.09
658.492	6623.13
658.684	6535.07
658.876	6377.37
659.068	6494.11
659.26	6279.07
659.452	6268.83
659.644	6371.23
659.836	6397.85
660.028	6354.85
660.22	6252.45
660.412	6086.56
660.604	6254.5
660.796	6217.63
660.988	6045.6
661.18	5994.4
661.372	5926.82
661.563	6037.41
661.755	5957.54
661.947	5988.26
662.139	5851.05
662.331	5879.72
662.522	5754.79
662.714	5865.38
662.906	5853.09
663.097	5717.93
663.289	5791.66
663.481	5820.33
663.673	5695.4
663.864	5674.92
664.056	5566.38
664.247	5527.47
664.439	5492.65
664.631	5611.43
664.822	5638.06
665.014	5402.54
665.205	5447.6
665.397	5527.47
665.588	5341.1
665.78	5367.73
665.971	5406.64
666.163	5472.17
666.354	5226.42
666.546	5222.32
666.737	5265.33
666.929	5232.56
667.12	5197.74
667.311	5148.59
667.503	4865.97
667.694	5203.89
667.885	5154.74
668.077	4923.32
668.268	5068.72
668.459	5005.24
668.651	5091.25
668.842	4923.32
669.033	4812.73
669.224	4908.98
669.416	4992.95
669.607	4849.59
669.798	4843.45
669.989	4876.21
670.18	4884.41
670.371	5019.57
670.563	4802.49
670.754	4908.98
670.945	4861.88
671.136	4739
671.327	4685.75
671.518	4724.66
671.709	4603.83
671.9	4818.87
672.091	4693.94
672.282	4642.75
672.473	4571.07
672.664	4739
672.855	4575.16
673.046	4618.17
673.237	4614.07
673.428	4601.79
673.619	4579.26
673.809	4440
674	4360.13
674.191	4550.59
674.382	4337.6
674.573	4364.22
674.764	4440
674.954	4569.02
675.145	4290.49
675.336	4184
675.527	4304.83
675.717	4220.86
675.908	4263.87
676.099	4292.54
676.289	4321.21
676.48	4276.16
676.671	4233.15
676.861	4128.7
677.052	4071.36
677.243	4157.38
677.433	4130.75
677.624	4239.3
677.814	4044.74
678.005	4214.72
678.195	4079.55
678.386	4130.75
678.576	4077.51
678.767	4120.51
678.957	4231.1
679.148	4128.7
679.338	3991.49
679.529	4083.65
679.719	4106.18
679.909	4163.52
680.1	3966.92
680.29	3930.05
680.481	4054.98
680.671	3913.67
680.861	3960.77
681.052	3936.2
681.242	3907.52
681.432	3985.35
681.622	3915.72
681.813	3930.05
682.003	3887.04
682.193	3905.48
682.383	3878.85
682.573	3813.32
682.764	3700.68
682.954	3760.07
683.144	3860.42
683.334	3852.23
683.524	3889.09
683.714	3928
683.904	3815.37
684.094	3774.41
684.284	3694.54
684.474	3784.65
684.664	3735.49
684.854	3727.3
685.044	3686.34
685.234	3698.63
685.424	3690.44
685.614	3678.15
685.804	3678.15
685.994	3710.92
686.184	3581.9
686.374	3696.58
686.564	3563.47
686.753	3497.93
686.943	3534.79
687.133	3530.7
687.323	3577.8
687.513	3596.23
687.702	3518.41
687.892	3518.41
688.082	3594.19
688.272	3520.46
688.461	3473.36
688.651	3491.79
688.841	3420.11
689.03	3395.53
689.22	3448.78
689.41	3381.2
689.599	3344.33
689.789	3395.53
689.979	3223.5
690.168	3334.09
690.358	3325.9
690.547	3162.06
690.737	3338.19
690.926	3198.93
691.116	3235.79
691.305	3258.32
691.495	3231.69
691.684	3170.26
691.874	3223.5
692.063	3280.85
692.252	3252.17
692.442	3149.78
692.631	3051.47
692.82	3194.83
693.01	3168.21
693.199	3045.33
693.388	3006.42
693.578	2969.55
693.767	2998.23
693.956	3022.8
694.146	3051.47
694.335	3020.75
694.524	2971.6
694.713	3047.38
694.902	2926.55
695.092	2928.6
695.281	2885.59
695.47	2971.6
695.659	2856.92
695.848	2957.27
696.037	2885.59
696.226	2908.12
696.415	2795.48
696.604	2961.36
696.793	2863.06
696.982	2883.54
697.171	2895.83
697.36	2865.11
697.549	2762.71
697.738	2736.09
697.927	2701.27
698.116	2764.76
698.305	2793.43
698.494	2727.89
698.683	2779.09
698.872	2754.52
699.061	2744.28
699.25	2719.7
699.438	2682.84
699.627	2662.36
699.816	2695.13
700.005	2672.6
700.193	2752.47
700.382	2697.17
700.571	2633.69
700.76	2617.3
700.948	2543.58
701.137	2611.16
701.326	2658.26
701.514	2598.87
701.703	2656.22
701.892	2672.6
702.08	2768.85
702.269	2705.37
702.457	2629.59
702.646	2701.27
702.834	2535.39
703.023	2519
703.212	2432.99
703.4	2498.52
703.589	2461.66
703.777	2611.16
703.965	2519
704.154	2525.15
704.342	2586.58
704.531	2574.3
704.719	2504.67
704.907	2523.1
705.096	2535.39
705.284	2645.98
705.472	2637.78
705.661	2637.78
705.849	2551.77
706.037	2469.85
706.226	2461.66
706.414	2564.06
706.602	2596.82
706.79	2555.86
706.979	2389.98
707.167	2596.82
707.355	2512.86
707.543	2457.56
707.731	2389.98
707.919	2529.24
708.107	2422.75
708.296	2416.6
708.484	2478.04
708.672	2451.42
708.86	2426.84
709.048	2465.75
709.236	2371.55
709.424	2457.56
709.612	2418.65
709.8	2400.22
709.988	2424.8
710.176	2498.52
710.364	2455.51
710.551	2404.32
710.739	2447.32
710.927	2453.47
711.115	2455.51
711.303	2408.41
711.491	2463.71
711.679	2357.21
711.866	2400.22
712.054	2394.08
712.242	2432.99
712.43	2459.61
712.617	2410.46
712.805	2349.02
712.993	2394.08
713.181	2283.49
713.368	2377.69
713.556	2400.22
713.744	2455.51
713.931	2367.45
714.119	2402.27
714.306	2375.64
714.494	2349.02
714.682	2459.61
714.869	2398.17
715.057	2465.75
715.244	2355.16
715.432	2484.19
715.619	2369.5
715.807	2396.12
715.994	2471.9
716.182	2310.11
716.369	2412.51
716.556	2414.56
716.744	2449.37
716.931	2318.3
717.119	2312.16
717.306	2342.88
717.493	2349.02
717.681	2463.71
717.868	2326.49
718.055	2424.8
718.242	2408.41
718.43	2387.93
718.617	2357.21
718.804	2267.1
718.991	2414.56
719.179	2398.17
719.366	2260.96
719.553	2465.75
719.74	2332.64
719.927	2295.77
720.114	2394.08
720.301	2387.93
720.488	2365.4
720.676	2402.27
720.863	2387.93
721.05	2418.65
721.237	2459.61
721.424	2256.86
721.611	2351.07
721.798	2295.77
721.985	2328.54
722.172	2332.64
722.358	2256.86
722.545	2310.11
722.732	2422.75
722.919	2381.79
723.106	2406.36
723.293	2250.72
723.48	2365.4
723.667	2375.64
723.853	2359.26
724.04	2396.12
724.227	2373.6
724.414	2285.53
724.6	2303.96
724.787	2430.94
724.974	2371.55
725.161	2396.12
725.347	2473.95
725.534	2394.08
725.72	2392.03
725.907	2355.16
726.094	2461.66
726.28	2387.93
726.467	2400.22
726.653	2248.67
726.84	2373.6
727.027	2377.69
727.213	2250.72
727.4	2398.17
727.586	2500.57
727.773	2502.62
727.959	2369.5
728.145	2381.79
728.332	2414.56
728.518	2428.89
728.705	2351.07
728.891	2342.88
729.077	2447.32
729.264	2406.36
729.45	2375.64
729.636	2371.55
729.823	2492.38
730.009	2371.55
730.195	2396.12
730.382	2385.88
730.568	2521.05
730.754	2359.26
730.94	2416.6
731.126	2488.28
731.313	2414.56
731.499	2215.9
731.685	2471.9
731.871	2414.56
732.057	2414.56
732.243	2365.4
732.429	2375.64
732.615	2297.82
732.801	2508.76
732.987	2416.6
733.173	2346.97
733.359	2512.86
733.545	2400.22
733.731	2346.97
733.917	2432.99
734.103	2443.23
734.289	2338.78
734.475	2439.13
734.661	2566.1
734.847	2445.27
735.033	2445.27
735.219	2469.85
735.404	2469.85
735.59	2412.51
735.776	2371.55
735.962	2367.45
736.148	2330.59
736.333	2381.79
736.519	2392.03
736.705	2414.56
736.89	2398.17
737.076	2394.08
737.262	2320.35
737.447	2404.32
737.633	2451.42
737.819	2473.95
738.004	2396.12
738.19	2443.23
738.375	2344.92
738.561	2457.56
738.747	2412.51
738.932	2441.18
739.118	2467.8
739.303	2396.12
739.489	2252.77
739.674	2349.02
739.859	2314.2
740.045	2312.16
740.23	2422.75
740.416	2265.05
740.601	2381.79
740.786	2338.78
740.972	2402.27
741.157	2363.36
741.342	2416.6
741.528	2351.07
741.713	2381.79
741.898	2279.39
742.084	2365.4
742.269	2246.62
742.454	2316.25
742.639	2316.25
742.824	2263.01
743.01	2144.22
743.195	2267.1
743.38	2222.05
743.565	2248.67
743.75	2289.63
743.935	2211.81
744.12	2258.91
744.305	2070.5
744.49	2232.29
744.675	2207.71
744.86	2185.18
745.045	2316.25
745.23	2148.32
745.415	2197.47
745.6	2205.66
745.785	2150.37
745.97	2232.29
746.155	2185.18
746.34	2228.19
746.525	2185.18
746.71	2031.58
746.895	2113.5
747.079	2172.89
747.264	2080.74
747.449	2101.22
747.634	2000.87
747.819	1990.63
748.003	1953.76
748.188	2056.16
748.373	2052.06
748.557	2068.45
748.742	1959.91
748.927	2000.87
749.111	1972.19
749.296	1976.29
749.481	1953.76
749.665	2025.44
749.85	1986.53
750.034	2007.01
750.219	1882.08
750.404	1773.54
750.588	1863.65
750.773	1826.79
750.957	1937.38
751.141	1785.83
751.326	1869.8
751.51	1822.69
751.695	1826.79
751.879	1804.26
752.064	1806.31
752.248	1781.73
752.432	1736.68
752.617	1701.86
752.801	1810.4
752.985	1859.56
753.17	1748.97
753.354	1783.78
753.538	1765.35
753.722	1646.57
753.907	1656.81
754.091	1644.52
754.275	1761.25
754.459	1699.81
754.643	1548.26
754.828	1640.42
755.012	1662.95
755.196	1560.55
755.38	1632.23
755.564	1546.22
755.748	1490.92
755.932	1509.35
756.116	1517.54
756.3	1566.7
756.484	1425.39
756.668	1538.02
756.852	1427.43
757.036	1519.59
757.22	1413.1
757.404	1511.4
757.588	1513.45
757.772	1503.21
757.956	1396.71
758.14	1447.91
758.323	1482.73
758.507	1411.05
758.691	1425.39
758.875	1384.43
759.059	1366
759.242	1275.88
759.426	1429.48
759.61	1355.76
759.794	1275.88
759.977	1400.81
760.161	1396.71
760.345	1329.13
760.528	1437.67
760.712	1341.42
760.895	1368.04
761.079	1355.76
761.263	1249.26
761.446	1292.27
761.63	1392.62
761.813	1298.41
761.997	1357.8
762.18	1239.02
762.364	1251.31
762.547	1193.97
762.731	1232.88
762.914	1218.54
763.098	1294.32
763.281	1292.27
763.464	1132.53
763.648	1234.93
763.831	1259.5
764.015	1245.16
764.198	1224.69
764.381	1212.4
764.564	1284.08
764.748	1372.14
764.931	1220.59
765.114	1181.68
765.297	1173.49
765.481	1058.8
765.664	1124.33
765.847	1183.73
766.03	1239.02
766.213	1073.14
766.397	1071.09
766.58	1056.75
766.763	1114.1
766.946	1155.05
767.129	1130.48
767.312	976.88
767.495	1134.57
767.678	1167.34
767.861	1054.7
768.044	1085.42
768.227	1105.9
768.41	1134.57
768.593	1032.18
768.776	1077.23
768.959	1110
769.142	1157.1
769.324	995.31
769.507	958.45
769.69	1132.53
769.873	1122.29
770.056	1122.29
770.239	1071.09
770.421	1069.04
770.604	983.02
770.787	1007.6
770.97	1075.18
771.152	1060.85
771.335	966.64
771.518	987.12
771.7	989.17
771.883	1054.7
772.066	1005.55
772.248	937.97
772.431	980.98
772.613	999.41
772.796	974.83
772.978	972.79
773.161	1019.89
773.343	948.21
773.526	907.25
773.708	899.06
773.891	874.48
774.073	882.67
774.256	851.96
774.438	927.73
774.621	954.35
774.803	829.43
774.985	870.39
775.168	880.63
775.35	854
775.532	915.44
775.715	839.67
775.897	849.91
776.079	813.04
776.261	864.24
776.444	888.82
776.626	821.24
776.808	778.23
776.99	784.37
777.173	856.05
777.355	798.71
777.537	811
777.719	774.13
777.901	870.39
778.083	767.99
778.265	745.46
778.447	729.08
778.629	784.37
778.811	786.42
778.993	745.46
779.175	851.96
779.357	761.84
779.539	716.79
779.721	753.65
779.903	696.31
780.085	700.41
780.267	688.12
780.449	749.56
780.631	677.88
780.812	772.08
780.994	737.27
781.176	606.2
781.358	667.64
781.54	653.3
781.721	720.88
781.903	681.97
782.085	653.3
782.267	620.53
782.448	657.4
782.63	661.49
782.812	692.21
782.993	630.77
783.175	626.68
783.357	686.07
783.538	600.05
783.72	581.62
783.901	698.36
784.083	649.21
784.264	598.01
784.446	536.57
784.627	571.38
784.809	540.66
784.99	575.48
785.172	501.75
785.353	520.18
785.535	538.62
785.716	573.43
785.897	538.62
786.079	516.09
786.26	577.53
786.441	585.72
786.623	458.74
786.804	446.46
786.985	542.71
787.167	520.18
787.348	477.18
787.529	522.23
787.71	483.32
787.891	526.33
788.073	538.62
788.254	481.27
788.435	491.51
788.616	509.94
788.797	448.51
788.978	516.09
789.159	532.47
789.34	409.59
789.522	454.65
789.703	497.66
789.884	501.75
790.065	509.94
790.246	452.6
790.427	501.75
790.607	481.27
790.788	532.47
790.969	354.3
791.15	456.7
791.331	421.88
791.512	389.11
791.693	489.46
791.874	403.45
792.054	462.84
792.235	415.74
792.416	432.12
792.597	378.87
792.778	450.55
792.958	423.93
793.139	438.27
793.32	354.3
793.5	403.45
793.681	385.02
793.862	372.73
794.042	350.2
794.223	346.11
794.404	399.35
794.584	342.01
794.765	342.01
794.945	395.26
795.126	440.31
795.306	458.74
795.487	368.63
795.667	380.92
795.848	362.49
796.028	333.82
796.209	311.29
796.389	319.48
796.57	256
796.75	393.21
796.93	346.11
797.111	325.63
797.291	342.01
797.471	366.59
797.652	391.16
797.832	325.63
798.012	405.5
798.192	303.1
798.373	309.24
798.553	313.34
798.733	284.67
798.913	319.48
799.093	317.44
799.274	286.72
799.454	339.96
799.634	278.52
799.814	292.86
799.994	352.25
800.174	327.67
800.354	348.15
800.534	313.34
800.714	339.96
800.894	372.73
801.074	251.9
801.254	258.04
801.434	233.47
801.614	274.43
801.794	229.37
801.974	677.88
802.154	192.51
802.334	288.76
802.514	268.28
802.693	270.33
802.873	286.72
803.053	301.05
803.233	311.29
803.413	305.15
803.592	215.04
803.772	262.14
803.952	253.95
804.131	307.2
804.311	274.43
804.491	313.34
804.67	208.89
804.85	323.58
805.03	317.44
805.209	260.09
805.389	184.32
805.568	301.05
805.748	225.28
805.928	233.47
806.107	280.57
806.287	237.56
806.466	286.72
806.646	282.62
806.825	198.65
807.004	235.52
807.184	231.42
807.363	217.08
807.543	241.66
807.722	247.8
807.901	192.51
808.081	315.39
808.26	208.89
808.439	266.24
808.619	233.47
808.798	178.17
808.977	282.62
809.156	180.22
809.336	190.46
809.515	188.41
809.694	219.13
809.873	200.7
810.052	251.9
810.231	219.13
810.411	253.95
810.59	241.66
810.769	176.13
810.948	190.46
811.127	219.13
811.306	215.04
811.485	225.28
811.664	276.48
811.843	206.84
812.022	198.65
812.201	217.08
812.38	184.32
812.559	249.85
812.737	212.99
812.916	309.24
813.095	153.6
813.274	200.7
813.453	210.94
813.632	147.45
813.811	258.04
813.989	186.37
814.168	192.51
814.347	292.86
814.526	167.93
814.704	204.8
814.883	217.08
815.062	194.56
815.24	221.18
815.419	192.51
815.598	225.28
815.776	184.32
815.955	133.12
816.133	110.59
816.312	163.84
816.49	135.17
816.669	219.13
816.847	174.08
817.026	186.37
817.204	141.31
817.383	159.74
817.561	174.08
817.74	151.55
817.918	165.89
818.097	194.56
818.275	235.52
818.453	231.42
818.632	161.79
818.81	135.17
818.988	110.59
819.167	131.07
819.345	147.45
819.523	210.94
819.701	270.33
819.879	131.07
820.058	176.13
820.236	212.99
820.414	184.32
820.592	178.17
820.77	184.32
820.948	186.37
821.127	126.97
821.305	194.56
821.483	153.6
821.661	165.89
821.839	137.21
822.017	198.65
822.195	153.6
822.373	235.52
822.551	157.69
822.729	133.12
822.907	129.02
823.085	118.78
823.262	143.36
823.44	188.41
823.618	153.6
823.796	94.21
823.974	108.54
824.152	108.54
824.329	114.69
824.507	155.65
824.685	194.56
824.863	118.78
825.04	149.5
825.218	149.5
825.396	116.73
825.574	180.22
825.751	200.7
825.929	178.17
826.107	208.89
826.284	86.01
826.462	108.54
826.639	167.93
826.817	180.22
826.994	116.73
827.172	69.63
827.349	202.75
827.527	69.63
827.704	129.02
827.882	145.41
828.059	108.54
828.237	98.3
828.414	124.93
828.591	116.73
828.769	141.31
828.946	65.54
829.124	90.11
829.301	202.75
829.478	151.55
829.655	88.06
829.833	114.69
830.01	108.54
830.187	112.64
830.364	98.3
830.542	90.11
830.719	122.88
830.896	139.26
831.073	96.25
831.25	151.55
831.427	212.99
831.604	16.38
831.782	16.38
831.959	116.73
832.136	92.16
832.313	86.01
832.49	143.36
832.667	147.45
832.844	98.3
833.021	114.69
833.198	114.69
833.374	176.13
833.551	94.21
833.728	100.35
833.905	126.97
834.082	53.25
834.259	61.44
834.436	57.34
834.612	90.11
834.789	126.97
834.966	118.78
835.143	147.45
835.319	83.97
835.496	135.17
835.673	116.73
835.85	63.49
836.026	133.12
836.203	120.83
836.38	114.69
836.556	129.02
836.733	122.88
836.909	110.59
837.086	161.79
837.262	38.91
837.439	49.15
837.616	88.06
837.792	92.16
837.968	65.54
838.145	106.49
838.321	53.25
838.498	90.11
838.674	61.44
838.851	184.32
839.027	102.4
839.203	71.68
839.38	71.68
839.556	73.73
839.732	126.97
839.909	57.34
840.085	180.22
840.261	104.45
840.437	12.29
840.614	49.15
840.79	47.1
840.966	100.35
841.142	155.65
841.318	86.01
841.494	98.3
841.671	145.41
841.847	92.16
842.023	4.1
842.199	77.82
842.375	163.84
842.551	75.77
842.727	4.1
842.903	129.02
843.079	106.49
843.255	90.11
843.431	-16.38
843.607	102.4
843.783	38.91
843.959	94.21
844.134	120.83
844.31	75.77
844.486	18.43
844.662	131.07
844.838	59.39
845.013	55.3
845.189	30.72
845.365	86.01
845.541	120.83
845.716	112.64
845.892	151.55
846.068	145.41
846.244	106.49
846.419	51.2
846.595	32.77
846.77	92.16
846.946	94.21
847.122	104.45
847.297	30.72
847.473	143.36
847.648	57.34
847.824	24.58
847.999	61.44
848.175	40.96
848.35	131.07
848.526	141.31
848.701	79.87
848.876	63.49
849.052	90.11
849.227	26.62
849.403	92.16
849.578	79.87
849.753	98.3
849.929	135.17
850.104	45.06
850.279	131.07
850.454	110.59
850.63	24.58
850.805	49.15
850.98	98.3
851.155	45.06
851.33	92.16
851.505	-18.43
851.681	98.3
851.856	55.3
852.031	126.97
852.206	49.15
852.381	63.49
852.556	118.78
852.731	75.77
852.906	90.11
853.081	65.54
853.256	22.53
853.431	51.2
853.606	57.34
853.781	2.05
853.956	20.48
854.131	94.21
854.305	59.39
854.48	114.69
854.655	26.62
854.83	4.1
855.005	100.35
855.18	92.16
855.354	22.53
855.529	106.49
855.704	53.25
855.879	57.34
856.053	83.97
856.228	49.15
856.403	-12.29
856.577	102.4
856.752	57.34
856.926	83.97
857.101	20.48
857.276	38.91
857.45	20.48
857.625	36.86
857.799	61.44
857.974	24.58
858.148	49.15
858.323	47.1
858.497	65.54
858.672	-14.34
858.846	45.06
859.02	86.01
859.195	24.58
859.369	22.53
859.543	18.43
859.718	-24.58
859.892	47.1
860.066	26.62
860.241	106.49
860.415	26.62
860.589	-8.19
860.763	90.11
860.938	24.58
861.112	92.16
861.286	65.54
861.46	112.64
861.634	43.01
861.808	57.34
861.982	-20.48
862.157	55.3
862.331	53.25
862.505	81.92
862.679	34.82
862.853	65.54
863.027	-12.29
863.201	124.93
863.375	135.17
863.549	-2.05
863.722	59.39
863.896	24.58
864.07	-10.24
864.244	63.49
864.418	20.48
864.592	83.97
864.766	16.38
864.939	71.68
865.113	96.25
865.287	100.35
865.461	-34.82
865.634	69.63
865.808	18.43
865.982	94.21
866.156	55.3
866.329	-10.24
866.503	73.73
866.676	69.63
866.85	28.67
867.024	20.48
867.197	55.3
867.371	83.97
867.544	53.25
867.718	24.58
867.891	18.43
868.065	51.2
868.238	43.01
868.412	53.25
868.585	45.06
868.759	28.67
868.932	-32.77
869.105	12.29
869.279	45.06
869.452	40.96
869.625	-12.29
869.799	30.72
869.972	47.1
870.145	49.15
870.319	28.67
870.492	110.59
870.665	45.06
870.838	71.68
871.011	69.63
871.185	43.01
871.358	-47.1
871.531	77.82
871.704	49.15
871.877	120.83
872.05	90.11
872.223	81.92
872.396	61.44
872.569	90.11
872.742	71.68
872.915	26.62
873.088	45.06
873.261	49.15
873.434	28.67
873.607	-2.05
873.78	22.53
873.953	137.21
874.126	8.19
874.299	45.06
874.471	4.1
874.644	53.25
874.817	32.77
874.99	24.58
875.163	10.24
875.335	47.1
875.508	10.24
875.681	16.38
875.853	-10.24
876.026	8.19
876.199	36.86
876.371	-24.58
876.544	38.91
876.717	75.77
876.889	36.86
877.062	63.49
877.234	47.1
877.407	43.01
877.579	-20.48
877.752	51.2
877.924	38.91
878.097	110.59
878.269	38.91
878.442	6.14
878.614	88.06
878.786	90.11
878.959	90.11
879.131	18.43
879.303	77.82
879.476	-45.06
879.648	8.19
879.82	10.24
879.993	36.86
880.165	79.87
880.337	34.82
880.509	-53.25
880.681	-30.72
880.854	38.91
881.026	45.06
881.198	86.01
881.37	32.77
881.542	-10.24
881.714	6.14
881.886	-43.01
882.058	-40.96
882.23	32.77
882.402	-32.77
882.574	20.48
882.746	69.63
882.918	49.15
883.09	-34.82
883.262	69.63
883.434	57.34
883.606	24.58
883.778	98.3
883.95	34.82
884.122	24.58
884.293	71.68
884.465	40.96
884.637	86.01
884.809	-26.62
884.98	77.82
885.152	32.77
885.324	-4.1
885.496	40.96
885.667	-47.1
885.839	77.82
886.011	36.86
886.182	4.1
886.354	59.39
886.525	51.2
886.697	55.3
886.869	8.19
887.04	79.87
887.212	-10.24
887.383	94.21
887.555	2.05
887.726	26.62
887.897	-16.38
888.069	28.67
888.24	40.96
888.412	20.48
888.583	36.86
888.754	18.43
888.926	-12.29
889.097	26.62
889.268	-26.62
889.44	40.96
889.611	71.68
889.782	47.1
889.953	16.38
890.125	112.64
890.296	22.53
890.467	2.05
890.638	0
890.809	28.67
890.98	59.39
891.151	81.92
891.323	79.87
891.494	36.86
891.665	0
891.836	63.49
892.007	-16.38
892.178	-4.1
892.349	38.91
892.52	-8.19
892.691	45.06
892.862	28.67
893.032	8.19
893.203	34.82
893.374	30.72
893.545	-4.1
893.716	-28.67
893.887	81.92
894.057	-10.24
894.228	-32.77
894.399	88.06
894.57	-51.2
894.74	106.49
894.911	63.49
895.082	59.39
895.253	45.06
895.423	2.05
895.594	-36.86
895.764	30.72
895.935	-24.58
896.106	32.77
896.276	18.43
896.447	-4.1
896.617	-55.3
896.788	-18.43
896.958	-4.1
897.129	4.1
897.299	83.97
897.47	94.21
897.64	-6.14
897.81	-10.24
897.981	20.48
898.151	30.72
898.322	81.92
898.492	18.43
898.662	49.15
898.832	-34.82
899.003	16.38
899.173	63.49
899.343	4.1
899.513	26.62
