Data from USB4F104151__275__11-12-15-365.txt Node

Date: Wed Mar 12 11:12:15 EDT 2025
User: louis
Spectrometer: USB4F10415
Trigger mode: 4
Integration Time (sec): 2.000000E-2
Scans to average: 1
Electric dark correction enabled: true
Nonlinearity correction enabled: false
Boxcar width: 0
XAxis mode: Wavelengths
Number of Pixels in Spectrum: 3648
>>>>>Begin Spectral Data<<<<<
178.204	-75.26
178.424	-75.26
178.644	-75.26
178.864	-36.35
179.084	-126.46
179.304	-42.5
179.524	-38.4
179.744	16.9
179.964	27.14
180.184	-7.68
180.404	-30.21
180.624	53.76
180.844	31.23
181.064	-7.68
181.283	0.51
181.503	25.09
181.723	-28.16
181.943	-58.88
182.163	68.09
182.383	2.56
182.602	90.62
182.822	55.81
183.042	102.91
183.262	0.51
183.482	14.85
183.701	10.75
183.921	61.95
184.141	35.33
184.361	61.95
184.58	8.7
184.8	78.33
185.02	57.86
185.239	35.33
185.459	98.81
185.679	107.01
185.898	-28.16
186.118	-15.87
186.338	25.09
186.557	45.57
186.777	37.38
186.997	37.38
187.216	-7.68
187.436	29.18
187.655	41.47
187.875	61.95
188.095	49.66
188.314	82.43
188.534	41.47
188.753	33.28
188.973	14.85
189.192	16.9
189.412	-7.68
189.631	18.94
189.851	-9.73
190.07	43.52
190.29	-7.68
190.509	-36.35
190.729	-24.06
190.948	64
191.168	115.2
191.387	-28.16
191.607	-7.68
191.826	-11.78
192.045	45.57
192.265	37.38
192.484	66.05
192.704	-22.02
192.923	33.28
193.142	23.04
193.362	12.8
193.581	-3.58
193.8	-40.45
194.02	18.94
194.239	61.95
194.458	20.99
194.678	-75.26
194.897	45.57
195.116	8.7
195.335	61.95
195.555	64
195.774	70.14
195.993	8.7
196.212	-40.45
196.432	-30.21
196.651	-26.11
196.87	29.18
197.089	86.53
197.308	31.23
197.528	55.81
197.747	25.09
197.966	12.8
198.185	61.95
198.404	25.09
198.623	74.24
198.842	-26.11
199.062	-9.73
199.281	45.57
199.5	111.1
199.719	76.29
199.938	16.9
200.157	55.81
200.376	0.51
200.595	74.24
200.814	59.9
201.033	-13.82
201.252	64
201.471	70.14
201.69	18.94
201.909	-9.73
202.128	23.04
202.347	78.33
202.566	29.18
202.785	43.52
203.004	-11.78
203.223	107.01
203.442	-11.78
203.661	-17.92
203.879	-28.16
204.098	-11.78
204.317	2.56
204.536	23.04
204.755	8.7
204.974	6.66
205.193	-54.78
205.411	61.95
205.63	64
205.849	61.95
206.068	35.33
206.287	-19.97
206.505	55.81
206.724	14.85
206.943	10.75
207.162	41.47
207.381	31.23
207.599	10.75
207.818	27.14
208.037	8.7
208.255	14.85
208.474	6.66
208.693	43.52
208.911	10.75
209.13	18.94
209.349	57.86
209.567	14.85
209.786	70.14
210.005	-11.78
210.223	-9.73
210.442	41.47
210.661	78.33
210.879	61.95
211.098	59.9
211.316	-36.35
211.535	35.33
211.753	-26.11
211.972	41.47
212.191	18.94
212.409	-5.63
212.628	-3.58
212.846	0.51
213.065	70.14
213.283	8.7
213.502	49.66
213.72	-7.68
213.938	16.9
214.157	23.04
214.375	66.05
214.594	35.33
214.812	33.28
215.031	86.53
215.249	-71.17
215.467	98.81
215.686	-5.63
215.904	18.94
216.122	59.9
216.341	74.24
216.559	86.53
216.778	84.48
216.996	39.42
217.214	-30.21
217.432	-15.87
217.651	12.8
217.869	70.14
218.087	0.51
218.306	20.99
218.524	57.86
218.742	-28.16
218.96	82.43
219.179	12.8
219.397	-7.68
219.615	12.8
219.833	45.57
220.051	35.33
220.27	47.62
220.488	74.24
220.706	12.8
220.924	10.75
221.142	-3.58
221.36	-60.93
221.578	18.94
221.796	-15.87
222.015	-3.58
222.233	-46.59
222.451	12.8
222.669	29.18
222.887	-17.92
223.105	-50.69
223.323	43.52
223.541	-9.73
223.759	86.53
223.977	98.81
224.195	80.38
224.413	59.9
224.631	16.9
224.849	39.42
225.067	102.91
225.285	37.38
225.503	64
225.721	2.56
225.939	12.8
226.157	86.53
226.375	61.95
226.592	98.81
226.81	23.04
227.028	64
227.246	135.68
227.464	49.66
227.682	66.05
227.9	25.09
228.117	23.04
228.335	59.9
228.553	-9.73
228.771	4.61
228.989	49.66
229.206	51.71
229.424	12.8
229.642	0.51
229.86	-9.73
230.077	55.81
230.295	-9.73
230.513	12.8
230.731	100.86
230.948	43.52
231.166	68.09
231.384	45.57
231.601	20.99
231.819	6.66
232.037	-9.73
232.254	53.76
232.472	-1.54
232.689	29.18
232.907	-62.98
233.125	33.28
233.342	-30.21
233.56	35.33
233.777	-5.63
233.995	43.52
234.213	64
234.43	53.76
234.648	-13.82
234.865	10.75
235.083	41.47
235.3	12.8
235.518	78.33
235.735	94.72
235.953	84.48
236.17	-38.4
236.388	72.19
236.605	47.62
236.822	66.05
237.04	27.14
237.257	-24.06
237.475	20.99
237.692	76.29
237.909	25.09
238.127	29.18
238.344	-40.45
238.562	53.76
238.779	16.9
238.996	-7.68
239.214	-9.73
239.431	23.04
239.648	16.9
239.865	23.04
240.083	47.62
240.3	14.85
240.517	49.66
240.735	70.14
240.952	12.8
241.169	41.47
241.386	39.42
241.603	41.47
241.821	12.8
242.038	94.72
242.255	8.7
242.472	20.99
242.689	61.95
242.907	18.94
243.124	-17.92
243.341	41.47
243.558	-26.11
243.775	12.8
243.992	29.18
244.209	14.85
244.426	-17.92
244.643	41.47
244.86	51.71
245.078	45.57
245.295	23.04
245.512	-36.35
245.729	-13.82
245.946	35.33
246.163	68.09
246.38	-7.68
246.597	-7.68
246.814	-50.69
247.031	49.66
247.248	23.04
247.464	33.28
247.681	18.94
247.898	14.85
248.115	55.81
248.332	20.99
248.549	61.95
248.766	51.71
248.983	57.86
249.2	45.57
249.417	-38.4
249.633	70.14
249.85	12.8
250.067	-22.02
250.284	4.61
250.501	4.61
250.717	82.43
250.934	-50.69
251.151	53.76
251.368	96.77
251.585	12.8
251.801	-46.59
252.018	55.81
252.235	68.09
252.451	-15.87
252.668	76.29
252.885	78.33
253.102	94.72
253.318	-11.78
253.535	25.09
253.752	-38.4
253.968	82.43
254.185	72.19
254.401	6.66
254.618	66.05
254.835	-7.68
255.051	37.38
255.268	49.66
255.484	33.28
255.701	-11.78
255.917	-9.73
256.134	25.09
256.351	12.8
256.567	-15.87
256.784	121.34
257	8.7
257.217	45.57
257.433	4.61
257.65	43.52
257.866	35.33
258.082	10.75
258.299	-75.26
258.515	-13.82
258.732	51.71
258.948	-7.68
259.165	49.66
259.381	-13.82
259.597	78.33
259.814	-3.58
260.03	29.18
260.246	66.05
260.463	59.9
260.679	45.57
260.895	6.66
261.112	37.38
261.328	59.9
261.544	43.52
261.761	84.48
261.977	43.52
262.193	-17.92
262.409	33.28
262.626	45.57
262.842	-1.54
263.058	45.57
263.274	-42.5
263.49	12.8
263.707	23.04
263.923	25.09
264.139	16.9
264.355	49.66
264.571	39.42
264.787	14.85
265.004	-28.16
265.22	88.57
265.436	57.86
265.652	43.52
265.868	-3.58
266.084	-34.3
266.3	74.24
266.516	-13.82
266.732	74.24
266.948	61.95
267.164	47.62
267.38	72.19
267.596	72.19
267.812	70.14
268.028	31.23
268.244	70.14
268.46	-9.73
268.676	-34.3
268.892	31.23
269.108	47.62
269.324	33.28
269.54	2.56
269.756	59.9
269.972	-42.5
270.188	12.8
270.403	-50.69
270.619	-87.55
270.835	33.28
271.051	-54.78
271.267	29.18
271.483	49.66
271.698	-36.35
271.914	-11.78
272.13	18.94
272.346	33.28
272.562	-58.88
272.777	100.86
272.993	33.28
273.209	-19.97
273.425	18.94
273.64	41.47
273.856	100.86
274.072	6.66
274.287	92.67
274.503	92.67
274.719	29.18
274.934	33.28
275.15	8.7
275.366	59.9
275.581	14.85
275.797	8.7
276.012	39.42
276.228	0.51
276.444	33.28
276.659	20.99
276.875	33.28
277.09	43.52
277.306	43.52
277.521	39.42
277.737	-36.35
277.952	27.14
278.168	74.24
278.383	104.96
278.599	82.43
278.814	-17.92
279.03	6.66
279.245	57.86
279.461	86.53
279.676	57.86
279.892	-24.06
280.107	10.75
280.322	25.09
280.538	14.85
280.753	-19.97
280.969	76.29
281.184	41.47
281.399	31.23
281.615	55.81
281.83	-40.45
282.045	23.04
282.26	-22.02
282.476	90.62
282.691	8.7
282.906	64
283.122	47.62
283.337	-7.68
283.552	49.66
283.767	43.52
283.983	88.57
284.198	8.7
284.413	-11.78
284.628	-44.54
284.843	37.38
285.058	16.9
285.274	-24.06
285.489	27.14
285.704	35.33
285.919	18.94
286.134	72.19
286.349	96.77
286.564	41.47
286.779	74.24
286.995	94.72
287.21	25.09
287.425	-89.6
287.64	-19.97
287.855	4.61
288.07	35.33
288.285	37.38
288.5	8.7
288.715	-11.78
288.93	-50.69
289.145	20.99
289.36	-22.02
289.575	-3.58
289.79	45.57
290.004	64
290.219	41.47
290.434	25.09
290.649	-5.63
290.864	6.66
291.079	-9.73
291.294	23.04
291.509	12.8
291.724	86.53
291.938	70.14
292.153	-11.78
292.368	-7.68
292.583	113.15
292.798	47.62
293.012	-15.87
293.227	16.9
293.442	29.18
293.657	33.28
293.871	16.9
294.086	41.47
294.301	55.81
294.516	-62.98
294.73	29.18
294.945	-36.35
295.16	90.62
295.374	16.9
295.589	8.7
295.804	74.24
296.018	8.7
296.233	35.33
296.447	61.95
296.662	45.57
296.877	61.95
297.091	109.05
297.306	41.47
297.52	-40.45
297.735	70.14
297.949	-32.26
298.164	121.34
298.378	-5.63
298.593	-54.78
298.807	-36.35
299.022	-11.78
299.236	14.85
299.451	59.9
299.665	78.33
299.88	64
300.094	27.14
300.309	84.48
300.523	27.14
300.737	-3.58
300.952	61.95
301.166	39.42
301.381	16.9
301.595	-30.21
301.809	2.56
302.024	12.8
302.238	45.57
302.452	-3.58
302.667	-34.3
302.881	57.86
303.095	8.7
303.309	74.24
303.524	-9.73
303.738	8.7
303.952	6.66
304.166	82.43
304.381	29.18
304.595	-1.54
304.809	-28.16
305.023	-1.54
305.237	51.71
305.452	49.66
305.666	55.81
305.88	98.81
306.094	-9.73
306.308	2.56
306.522	31.23
306.736	4.61
306.95	92.67
307.164	78.33
307.379	47.62
307.593	37.38
307.807	-3.58
308.021	31.23
308.235	-1.54
308.449	-40.45
308.663	66.05
308.877	76.29
309.091	111.1
309.305	76.29
309.519	-3.58
309.733	31.23
309.947	27.14
310.161	41.47
310.374	-19.97
310.588	25.09
310.802	25.09
311.016	27.14
311.23	4.61
311.444	6.66
311.658	29.18
311.872	88.57
312.085	84.48
312.299	-7.68
312.513	41.47
312.727	55.81
312.941	-5.63
313.154	113.15
313.368	41.47
313.582	72.19
313.796	39.42
314.009	45.57
314.223	20.99
314.437	29.18
314.651	31.23
314.864	-24.06
315.078	-40.45
315.292	31.23
315.505	-13.82
315.719	4.61
315.933	117.25
316.146	25.09
316.36	49.66
316.573	12.8
316.787	49.66
317.001	39.42
317.214	-7.68
317.428	27.14
317.641	6.66
317.855	51.71
318.068	94.72
318.282	-7.68
318.495	6.66
318.709	4.61
318.922	20.99
319.136	43.52
319.349	43.52
319.563	20.99
319.776	51.71
319.99	10.75
320.203	35.33
320.417	6.66
320.63	-24.06
320.843	57.86
321.057	-54.78
321.27	43.52
321.483	78.33
321.697	70.14
321.91	57.86
322.124	139.77
322.337	8.7
322.55	66.05
322.763	20.99
322.977	37.38
323.19	20.99
323.403	92.67
323.617	94.72
323.83	61.95
324.043	-3.58
324.256	20.99
324.469	14.85
324.683	4.61
324.896	59.9
325.109	35.33
325.322	-5.63
325.535	72.19
325.748	80.38
325.962	37.38
326.175	47.62
326.388	6.66
326.601	57.86
326.814	72.19
327.027	39.42
327.24	127.49
327.453	-32.26
327.666	-9.73
327.879	86.53
328.092	70.14
328.305	25.09
328.518	29.18
328.731	31.23
328.944	41.47
329.157	4.61
329.37	66.05
329.583	37.38
329.796	72.19
330.009	41.47
330.222	45.57
330.435	82.43
330.648	80.38
330.861	41.47
331.073	29.18
331.286	154.11
331.499	35.33
331.712	47.62
331.925	-3.58
332.138	33.28
332.35	76.29
332.563	33.28
332.776	64
332.989	49.66
333.202	86.53
333.414	4.61
333.627	55.81
333.84	45.57
334.053	37.38
334.265	16.9
334.478	-65.02
334.691	-3.58
334.903	-5.63
335.116	35.33
335.329	-11.78
335.541	16.9
335.754	76.29
335.966	20.99
336.179	59.9
336.392	59.9
336.604	41.47
336.817	96.77
337.029	12.8
337.242	-28.16
337.454	111.1
337.667	16.9
337.88	64
338.092	29.18
338.305	86.53
338.517	18.94
338.729	35.33
338.942	-24.06
339.154	64
339.367	25.09
339.579	4.61
339.792	8.7
340.004	76.29
340.217	59.9
340.429	18.94
340.641	55.81
340.854	68.09
341.066	4.61
341.278	16.9
341.491	57.86
341.703	12.8
341.915	57.86
342.128	47.62
342.34	100.86
342.552	45.57
342.764	-17.92
342.977	12.8
343.189	64
343.401	86.53
343.613	20.99
343.826	-9.73
344.038	90.62
344.25	41.47
344.462	6.66
344.674	14.85
344.886	55.81
345.099	88.57
345.311	-3.58
345.523	76.29
345.735	-28.16
345.947	57.86
346.159	51.71
346.371	16.9
346.583	45.57
346.795	-13.82
347.007	57.86
347.219	25.09
347.431	29.18
347.643	59.9
347.855	43.52
348.067	61.95
348.279	-30.21
348.491	-1.54
348.703	25.09
348.915	64
349.127	39.42
349.339	49.66
349.551	-24.06
349.763	66.05
349.975	-19.97
350.187	-1.54
350.399	10.75
350.61	-1.54
350.822	-28.16
351.034	18.94
351.246	49.66
351.458	39.42
351.669	51.71
351.881	74.24
352.093	43.52
352.305	23.04
352.517	18.94
352.728	98.81
352.94	20.99
353.152	70.14
353.363	-7.68
353.575	45.57
353.787	35.33
353.999	0.51
354.21	25.09
354.422	16.9
354.633	55.81
354.845	61.95
355.057	23.04
355.268	100.86
355.48	-36.35
355.692	-15.87
355.903	64
356.115	0.51
356.326	-9.73
356.538	76.29
356.749	53.76
356.961	92.67
357.172	102.91
357.384	35.33
357.595	66.05
357.807	78.33
358.018	37.38
358.23	53.76
358.441	47.62
358.653	-5.63
358.864	55.81
359.075	16.9
359.287	-3.58
359.498	39.42
359.709	102.91
359.921	78.33
360.132	39.42
360.344	66.05
360.555	78.33
360.766	14.85
360.977	-7.68
361.189	41.47
361.4	35.33
361.611	92.67
361.823	51.71
362.034	20.99
362.245	6.66
362.456	20.99
362.667	41.47
362.879	23.04
363.09	113.15
363.301	-13.82
363.512	-7.68
363.723	82.43
363.935	20.99
364.146	109.05
364.357	121.34
364.568	53.76
364.779	57.86
364.99	51.71
365.201	74.24
365.412	102.91
365.623	8.7
365.834	78.33
366.045	59.9
366.256	16.9
366.467	47.62
366.678	16.9
366.889	-5.63
367.1	51.71
367.311	100.86
367.522	72.19
367.733	86.53
367.944	47.62
368.155	16.9
368.366	47.62
368.577	72.19
368.788	92.67
368.999	10.75
369.209	25.09
369.42	102.91
369.631	94.72
369.842	80.38
370.053	10.75
370.264	55.81
370.474	-30.21
370.685	20.99
370.896	49.66
371.107	57.86
371.317	98.81
371.528	4.61
371.739	98.81
371.95	4.61
372.16	51.71
372.371	80.38
372.582	23.04
372.792	35.33
373.003	31.23
373.214	80.38
373.424	31.23
373.635	16.9
373.846	66.05
374.056	51.71
374.267	57.86
374.477	94.72
374.688	68.09
374.898	16.9
375.109	6.66
375.319	20.99
375.53	70.14
375.74	51.71
375.951	49.66
376.161	57.86
376.372	39.42
376.582	70.14
376.793	66.05
377.003	74.24
377.214	29.18
377.424	41.47
377.635	-32.26
377.845	-22.02
378.055	139.77
378.266	-3.58
378.476	-40.45
378.686	-34.3
378.897	-19.97
379.107	47.62
379.317	35.33
379.528	37.38
379.738	33.28
379.948	16.9
380.158	55.81
380.369	55.81
380.579	55.81
380.789	117.25
380.999	55.81
381.21	68.09
381.42	27.14
381.63	25.09
381.84	37.38
382.05	14.85
382.261	78.33
382.471	-11.78
382.681	37.38
382.891	129.53
383.101	29.18
383.311	8.7
383.521	20.99
383.731	84.48
383.941	68.09
384.151	23.04
384.361	-3.58
384.571	45.57
384.781	98.81
384.991	74.24
385.201	121.34
385.411	51.71
385.621	37.38
385.831	23.04
386.041	29.18
386.251	78.33
386.461	55.81
386.671	47.62
386.881	4.61
387.091	61.95
387.301	119.29
387.511	37.38
387.72	27.14
387.93	37.38
388.14	70.14
388.35	6.66
388.56	72.19
388.769	57.86
388.979	39.42
389.189	57.86
389.399	66.05
389.609	107.01
389.818	84.48
390.028	74.24
390.238	61.95
390.447	14.85
390.657	29.18
390.867	55.81
391.076	78.33
391.286	72.19
391.496	72.19
391.705	0.51
391.915	96.77
392.125	102.91
392.334	45.57
392.544	119.29
392.753	61.95
392.963	0.51
393.172	82.43
393.382	-7.68
393.591	74.24
393.801	55.81
394.01	107.01
394.22	64
394.429	64
394.639	123.39
394.848	72.19
395.058	39.42
395.267	59.9
395.477	96.77
395.686	29.18
395.895	59.9
396.105	66.05
396.314	82.43
396.524	72.19
396.733	72.19
396.942	49.66
397.152	35.33
397.361	109.05
397.57	68.09
397.78	8.7
397.989	90.62
398.198	135.68
398.407	88.57
398.617	86.53
398.826	35.33
399.035	-11.78
399.244	113.15
399.453	57.86
399.663	88.57
399.872	88.57
400.081	0.51
400.29	164.35
400.499	174.59
400.708	127.49
400.917	27.14
401.127	117.25
401.336	66.05
401.545	135.68
401.754	94.72
401.963	64
402.172	78.33
402.381	80.38
402.59	117.25
402.799	68.09
403.008	162.3
403.217	141.82
403.426	217.6
403.635	88.57
403.844	88.57
404.053	135.68
404.262	164.35
404.471	104.96
404.68	137.73
404.888	107.01
405.097	170.49
405.306	164.35
405.515	113.15
405.724	139.77
405.933	88.57
406.142	174.59
406.35	147.97
406.559	135.68
406.768	113.15
406.977	238.08
407.185	102.91
407.394	248.32
407.603	217.6
407.812	215.55
408.02	231.93
408.229	211.45
408.438	172.54
408.646	197.12
408.855	209.4
409.064	209.4
409.272	227.84
409.481	262.65
409.69	223.74
409.898	213.5
410.107	248.32
410.315	260.6
410.524	328.19
410.733	291.32
410.941	320
411.15	309.76
411.358	330.23
411.567	463.35
411.775	326.14
411.984	399.87
412.192	352.76
412.401	401.91
412.609	410.11
412.818	444.92
413.026	438.78
413.234	526.84
413.443	516.6
413.651	418.3
413.86	528.89
414.068	532.98
414.276	571.9
414.485	606.71
414.693	625.14
414.901	633.33
415.11	588.28
415.318	571.9
415.526	688.63
415.734	686.58
415.943	690.68
416.151	735.73
416.359	745.97
416.567	813.56
416.776	811.51
416.984	795.12
417.192	838.13
417.4	836.08
417.608	899.57
417.817	887.28
418.025	874.99
418.233	1098.22
418.441	1038.83
418.649	1151.47
418.857	1167.85
419.065	1077.74
419.273	1208.81
419.481	1184.24
419.689	1147.37
419.897	1341.93
420.105	1356.27
420.313	1487.34
420.521	1511.91
420.729	1442.28
420.937	1546.73
421.145	1561.06
421.353	1702.37
421.561	1706.47
421.769	1876.45
421.977	1804.77
422.185	1823.2
422.393	1837.54
422.601	2087.39
422.809	2056.67
423.017	2015.71
423.224	2154.98
423.432	2261.47
423.64	2226.65
423.848	2445.79
424.056	2404.83
424.263	2456.03
424.471	2519.51
424.679	2593.24
424.887	2697.69
425.094	2834.9
425.302	2779.61
425.51	2802.13
425.718	2937.3
425.925	2943.44
426.133	3142.1
426.341	3318.22
426.548	3549.64
426.756	3371.47
426.964	3516.87
427.171	3797.45
427.379	3871.17
427.586	3916.23
427.794	3926.47
428.001	4266.43
428.209	4235.71
428.417	4442.56
428.624	4569.53
428.832	4610.49
429.039	4692.41
429.247	4616.63
429.454	5261.74
429.662	5450.16
429.869	5038.52
430.076	5339.57
430.284	5278.13
430.491	5312.94
430.699	5695.91
430.906	5794.22
431.114	5931.43
431.321	6048.16
431.528	6152.61
431.736	6529.44
431.943	6859.16
432.15	6613.4
432.358	6801.82
432.565	6939.03
432.772	7092.63
432.979	7520.65
433.187	7426.45
433.394	7655.82
433.601	8188.29
433.808	8165.76
434.016	7932.29
434.223	8481.15
434.43	9091.45
434.637	8798.59
434.844	9144.69
435.052	9425.26
435.259	9519.47
435.466	9492.85
435.673	9515.37
435.88	10062.18
436.087	10596.7
436.294	10553.69
436.501	10316.13
436.708	10355.04
436.915	10953.05
437.122	11473.23
437.329	11272.53
437.537	11458.9
437.743	11948.36
437.95	11669.84
438.157	12290.37
438.364	12853.56
438.571	12607.81
438.778	13025.59
438.985	14125.35
439.192	13338.93
439.399	13855.02
439.606	13740.33
439.813	14549.28
440.02	15354.13
440.227	15135
440.433	14811.42
440.64	15239.45
440.847	15388.95
441.054	15655.19
441.261	16570.63
441.467	16382.21
441.674	16658.69
441.881	17334.52
442.088	17150.2
442.294	17033.47
442.501	17447.16
442.708	18131.18
442.914	18567.4
443.121	19478.74
443.328	18999.52
443.534	20459.72
443.741	19542.23
443.948	19278.04
444.154	20660.42
444.361	20832.45
444.568	20965.57
444.774	20865.22
444.981	20996.29
445.187	21672.12
445.394	22296.75
445.6	22132.91
445.807	24223.89
446.013	23367.84
446.22	23728.28
446.426	24588.42
446.633	25041.03
446.839	25907.32
447.046	24613
447.252	26153.07
447.459	26003.57
447.665	26022
447.871	26757.22
448.078	28219.47
448.284	26667.11
448.491	28020.82
448.697	28502.09
448.903	28917.83
449.11	29136.96
449.316	28389.45
449.522	29085.76
449.728	29956.15
449.935	30359.6
450.141	29911.1
450.347	30935.08
450.553	29806.65
450.76	30228.53
450.966	31115.3
451.172	30750.76
451.378	31330.34
451.584	30791.72
451.791	31479.84
451.997	31449.12
452.203	31989.78
452.409	31723.55
452.615	31817.75
452.821	30656.56
453.027	30511.15
453.233	32061.46
453.44	30646.32
453.646	30791.72
453.852	30902.31
454.058	31653.92
454.264	30400.56
454.47	31166.5
454.676	30681.13
454.882	31696.92
455.088	28573.77
455.294	28878.92
455.5	29216.83
455.705	29890.62
455.911	28672.07
456.117	27899.99
456.323	27668.57
456.529	26374.25
456.735	27381.85
456.941	26478.7
457.147	26130.55
457.352	25518.2
457.558	24895.62
457.764	25063.55
457.97	24707.21
458.176	24014.99
458.381	24172.69
458.587	22845.6
458.793	22870.18
458.999	21698.74
459.204	23459.99
459.41	22737.06
459.616	20848.83
459.821	21190.84
460.027	21098.69
460.233	20797.63
460.438	19626.2
460.644	19609.81
460.85	18946.27
461.055	18579.68
461.261	18643.17
461.466	17068.28
461.672	16572.68
461.878	17799.41
462.083	16623.87
462.289	16335.11
462.494	16238.86
462.7	15632.66
462.905	15042.84
463.111	15628.56
463.316	15720.72
463.522	15255.83
463.727	15716.62
463.932	15378.71
464.138	15196.44
464.343	15282.45
464.549	14905.63
464.754	15479.06
464.959	15014.17
465.165	14881.05
465.37	14367.01
465.575	14022.95
465.781	14637.34
465.986	14647.58
466.191	14268.71
466.397	14000.43
466.602	13115.7
466.807	13902.12
467.012	13912.36
467.218	13549.87
467.423	13568.3
467.628	13660.46
467.833	14207.27
468.038	13412.66
468.244	13267.25
468.449	13689.14
468.654	13259.06
468.859	13027.64
469.064	13177.14
469.269	12597.57
469.474	12659.01
469.679	13037.88
469.885	12624.19
470.09	12812.6
470.295	12792.12
470.5	12263.75
470.705	12325.19
470.91	11977.03
471.115	12106.06
471.32	12114.25
471.525	12218.69
471.73	11895.11
471.935	11970.89
472.139	11462.99
472.344	11598.16
472.549	11460.95
472.754	11344.21
472.959	11161.94
473.164	10920.28
473.369	10656.09
473.574	11120.98
473.778	10924.38
473.983	10727.77
474.188	10869.08
474.393	10334.56
474.598	10443.1
474.802	10318.18
475.007	10312.03
475.212	10391.91
475.417	9965.93
475.621	9716.08
475.826	9877.87
476.031	9650.54
476.235	9568.62
476.44	9630.06
476.645	9300.34
476.849	9402.74
477.054	9363.83
477.259	9267.57
477.463	9218.42
477.668	9116.02
477.872	9202.04
478.077	9175.41
478.282	8860.02
478.486	8714.62
478.691	8679.8
478.895	8409.47
479.1	8704.38
479.304	8507.77
479.509	8339.84
479.713	8569.21
479.918	8194.43
480.122	8157.57
480.326	8245.63
480.531	8249.73
480.735	8028.55
480.94	8221.06
481.144	8350.08
481.348	8022.41
481.553	8147.33
481.757	7926.15
481.961	8139.14
482.166	8124.8
482.37	8026.5
482.574	7948.68
482.778	8124.8
482.983	8094.08
483.187	7965.06
483.391	8153.48
483.595	7932.29
483.8	7745.93
484.004	8173.96
484.208	8221.06
484.412	8022.41
484.616	7784.84
484.821	8057.22
485.025	7829.9
485.229	8018.31
485.433	7930.25
485.637	7950.73
485.841	7868.81
486.045	7823.75
486.249	8057.22
486.453	7874.95
486.657	7911.82
486.861	7844.23
487.065	7831.94
487.269	7901.58
487.473	7795.08
487.677	8012.17
487.881	7981.45
488.085	7866.76
488.289	8120.71
488.493	8069.51
488.697	7924.1
488.901	7940.49
489.105	7795.08
489.309	8122.76
489.512	8087.94
489.716	8098.18
489.92	8202.63
490.124	7958.92
490.328	8270.21
490.531	7981.45
490.735	8176
490.939	8270.21
491.143	8237.44
491.346	7969.16
491.55	8268.16
491.754	8153.48
491.958	8157.57
492.161	8425.86
492.365	8323.46
492.569	8266.11
492.772	8376.7
492.976	8497.53
493.18	8366.46
493.383	8487.29
493.587	8647.04
493.79	8718.71
493.994	8524.16
494.197	8708.48
494.401	8528.25
494.605	8798.59
494.808	8862.07
495.012	8800.63
495.215	8913.27
495.419	9165.17
495.622	8964.47
495.825	9304.43
496.029	9259.38
496.232	9189.75
496.436	9589.1
496.639	9482.61
496.843	9492.85
497.046	9654.64
497.249	9804.14
497.453	9783.66
497.656	10041.7
497.859	9896.3
498.063	10088.81
498.266	10371.43
498.469	10137.96
498.673	10496.35
498.876	10584.41
499.079	10602.85
499.282	10588.51
499.485	10994.01
499.689	11020.63
499.892	11051.35
500.095	10922.33
500.298	11325.78
500.501	11327.83
500.705	11358.55
500.908	11708.75
501.111	11743.56
501.314	11868.49
501.517	12085.58
501.72	11997.51
501.923	11913.55
502.126	12431.68
502.329	12689.73
502.532	12525.89
502.735	12788.03
502.938	12826.94
503.141	13097.27
503.344	13271.35
503.547	13308.21
503.75	13539.63
503.953	13484.34
504.156	13846.83
504.359	13867.31
504.562	14098.73
504.765	14399.78
504.968	14418.21
505.17	14498.08
505.373	14573.86
505.576	14881.05
505.779	14995.74
505.982	15055.13
506.185	15333.65
506.387	15452.44
506.59	15515.92
506.793	16042.25
506.996	15515.92
507.198	16331.01
507.401	16189.7
507.604	16275.72
507.807	16670.98
508.009	16707.84
508.212	16339.21
508.415	17051.9
508.617	17174.78
508.82	17379.57
509.022	17252.6
509.225	17692.91
509.428	18016.49
509.63	18043.12
509.833	18106.6
510.035	18673.89
510.238	18366.7
510.44	18864.35
510.643	19001.57
510.845	18860.26
511.048	18675.94
511.25	19433.69
511.453	19736.79
511.655	20203.72
511.858	19681.49
512.06	20115.66
512.262	20199.63
512.465	20340.94
512.667	20715.72
512.87	21096.64
513.072	20879.55
513.274	21645.49
513.477	21317.82
513.679	21614.77
513.881	21747.89
514.084	22218.92
514.286	21989.55
514.488	22032.56
514.69	22894.75
514.893	22929.57
515.095	22915.23
515.297	23210.14
515.499	23466.14
515.701	23576.73
515.904	23881.88
516.106	24166.54
516.308	24318.09
516.51	24658.06
516.712	24627.34
516.914	24959.11
517.116	25145.47
517.318	25030.79
517.52	25618.55
517.722	25436.28
517.925	25960.56
518.127	26298.48
518.329	26529.9
518.531	26474.6
518.733	26601.58
518.935	26980.45
519.136	27146.34
519.338	27508.83
519.54	27885.65
519.742	28061.78
519.944	28004.44
520.146	28479.57
520.348	28590.16
520.55	28917.83
520.752	29089.86
520.954	29554.75
521.155	29265.99
521.357	29634.62
521.559	29898.81
521.761	30316.59
521.963	30064.69
522.164	30343.22
522.366	30769.19
522.568	31049.77
522.77	31340.58
522.971	31303.71
523.173	31199.27
523.375	31557.66
523.576	31776.8
523.778	31934.49
523.98	32178.2
524.181	32229.4
524.383	32391.19
524.584	33003.53
524.786	33122.31
524.988	32563.22
525.189	33318.92
525.391	33779.71
525.592	33554.43
525.794	33808.38
525.995	33728.51
526.197	33914.87
526.398	33841.15
526.6	34152.44
526.801	34301.94
527.003	34684.91
527.204	34574.32
527.406	35057.64
527.607	34797.55
527.808	35074.02
528.01	34699.25
528.211	35078.12
528.412	35409.89
528.614	35338.21
528.815	35436.52
529.016	35917.79
529.218	35708.9
529.419	35491.81
529.62	36055
529.822	35639.26
530.023	35928.03
530.224	35790.81
530.425	35803.1
530.626	36138.97
530.828	36032.47
531.029	36667.34
531.23	36091.87
531.431	36147.16
531.632	36577.23
531.833	36677.58
532.035	36493.27
532.236	36593.62
532.437	36911.05
532.638	36378.58
532.839	36782.03
533.04	36425.68
533.241	36583.38
533.442	37154.76
533.643	37177.29
533.844	36745.17
534.045	36704.21
534.246	36956.11
534.447	37386.18
534.648	37349.32
534.849	37095.37
535.05	37005.26
535.251	37117.9
535.451	36974.54
535.652	37441.48
535.853	36706.26
536.054	37386.18
536.255	37384.13
536.456	36863.95
536.657	37658.56
536.857	37167.05
537.058	36794.32
537.259	37619.65
537.46	37412.81
537.66	37312.45
537.861	36964.3
538.062	37343.17
538.263	37240.78
538.463	37672.9
538.664	37169.1
538.865	37212.1
539.065	37578.69
539.266	37091.27
539.466	37595.07
539.667	36874.19
539.868	37527.49
540.068	37279.69
540.269	36962.25
540.469	37361.61
540.67	37179.34
540.87	37603.27
541.071	37242.82
541.271	37087.18
541.472	37330.89
541.672	37349.32
541.873	37332.93
542.073	36693.97
542.274	37158.86
542.474	36853.71
542.675	37001.16
542.875	37091.27
543.075	37236.68
543.276	36943.82
543.476	37521.35
543.676	37003.21
543.877	37160.9
544.077	36974.54
544.277	37179.34
544.478	36886.48
544.678	37119.95
544.878	37070.79
545.078	37328.84
545.279	36636.62
545.479	36544.47
545.679	36956.11
545.879	37009.36
546.079	37230.54
546.28	36970.44
546.48	36409.3
546.68	37095.37
546.88	37332.93
547.08	36890.57
547.28	36753.36
547.48	36861.9
547.68	37167.05
547.88	36323.29
548.081	36661.2
548.281	37136.33
548.481	36681.68
548.681	36429.78
548.881	36786.13
549.081	36956.11
549.28	36929.48
549.48	37078.99
549.68	36485.08
549.88	37435.33
550.08	36448.21
550.28	36888.53
550.48	36548.56
550.68	36689.87
550.88	36444.12
551.08	36689.87
551.279	36435.92
551.479	36300.76
551.679	36597.71
551.879	36671.44
552.079	36872.14
552.278	36603.86
552.478	36550.61
552.678	36460.5
552.878	36808.65
553.077	36349.91
553.277	36188.12
553.477	36775.89
553.676	36655.06
553.876	36106.2
554.076	36011.99
554.275	36153.3
554.475	36120.54
554.674	36067.29
554.874	36616.15
555.074	36251.61
555.273	36454.36
555.473	36513.75
555.672	36009.95
555.872	36024.28
556.071	36122.58
556.271	36151.26
556.47	35827.68
556.67	35846.11
556.869	35889.12
557.068	35624.93
557.268	35600.35
557.467	36091.87
557.667	35977.18
557.866	35850.2
558.065	35403.75
558.265	35340.26
558.464	35289.06
558.663	35686.37
558.863	35112.94
559.062	35649.5
559.261	35512.29
559.461	35227.62
559.66	34981.87
559.859	34990.06
560.058	34836.46
560.258	34756.59
560.457	34691.05
560.656	35219.43
560.855	34920.43
561.054	35174.38
561.253	34383.86
561.453	34594.8
561.652	34519.03
561.851	34703.34
562.05	34580.46
562.249	34521.07
562.448	34668.53
562.647	34271.22
562.846	33933.31
563.045	34111.48
563.244	33820.67
563.443	34451.44
563.642	33669.12
563.841	34011.13
564.04	33703.93
564.239	34260.98
564.438	33587.2
564.637	34023.42
564.836	33474.56
565.035	33146.89
565.234	33724.41
565.432	33474.56
565.631	33325.06
565.83	33351.68
566.029	33077.26
566.228	32884.75
566.427	32964.62
566.625	32493.58
566.824	32331.79
567.023	32851.98
567.222	32501.78
567.42	32768.01
567.619	32426
567.818	32593.93
568.016	32378.9
568.215	32223.25
568.414	32114.71
568.612	32485.39
568.811	31811.61
569.01	32356.37
569.208	31598.62
569.407	31934.49
569.605	31397.92
569.804	32096.28
570.002	31406.11
570.201	31924.25
570.4	31363.11
570.598	31039.53
570.797	31254.56
570.995	31447.07
571.193	30894.12
571.392	31660.06
571.59	30742.57
571.789	31154.21
571.987	30842.92
572.186	31006.76
572.384	30244.91
572.582	30541.87
572.781	30691.37
572.979	30355.5
573.177	30152.76
573.376	30564.4
573.574	30251.06
573.772	30146.61
573.971	29913.14
574.169	29732.92
574.367	29675.58
574.565	30195.76
574.763	29720.63
574.962	29493.31
575.16	29104.2
575.358	29460.54
575.556	29182.02
575.754	29667.39
575.952	29034.56
576.151	29290.56
576.349	29055.04
576.547	28985.41
576.745	28733.51
576.943	29102.15
577.141	28778.57
577.339	28682.31
577.537	28616.78
577.735	28657.74
577.933	28414.03
578.131	28665.93
578.329	28078.16
578.527	28100.69
578.725	27914.33
578.923	28164.18
579.121	28006.48
579.319	27906.13
579.516	27631.71
579.714	27867.22
579.912	27676.76
580.11	27619.42
580.308	27666.52
580.506	27654.23
580.704	26898.53
580.901	27160.67
581.099	27646.04
581.297	27238.5
581.495	27017.32
581.692	27342.94
581.89	26968.16
582.088	27009.12
582.285	27002.98
582.483	26974.31
582.681	26849.38
582.878	26640.49
583.076	26550.38
583.274	26898.53
583.471	26394.73
583.669	26613.87
583.866	25723
584.064	26304.62
584.262	25815.16
584.459	26222.7
584.657	26108.02
584.854	26384.49
585.052	25450.62
585.249	26218.61
585.447	25733.24
585.644	25444.48
585.841	25585.79
586.039	25933.94
586.236	25249.92
586.434	25057.41
586.631	25233.53
586.828	25378.94
587.026	25219.2
587.223	25182.34
587.42	24957.06
587.618	25053.31
587.815	24567.95
588.012	24760.45
588.21	24592.52
588.407	24621.19
588.604	24598.66
588.801	24453.26
588.999	24125.58
589.196	24217.74
589.393	24412.3
589.59	24176.78
589.787	23894.16
589.984	23824.53
590.182	23799.96
590.379	24156.3
590.576	23965.84
590.773	23756.95
590.97	23634.07
591.167	23605.4
591.364	23515.29
591.561	23654.55
591.758	23400.6
591.955	23398.55
592.152	23220.38
592.349	23365.79
592.546	23136.41
592.743	23193.76
592.94	22692.01
593.137	23244.96
593.334	23003.3
593.531	22687.91
593.727	22747.3
593.924	22644.9
594.121	22503.59
594.318	22667.43
594.515	22544.55
594.712	22450.35
594.908	22636.71
595.105	22522.02
595.302	22278.32
595.499	22384.81
595.696	21971.12
595.892	21997.74
596.089	22227.12
596.286	22085.81
596.482	21657.78
596.679	21739.7
596.876	21598.39
597.072	21627.06
597.269	21776.56
597.466	21590.2
597.662	21475.51
597.859	21588.15
598.055	21407.93
598.252	21147.84
598.448	21397.69
598.645	21225.66
598.841	20828.35
599.038	21135.55
599.234	21317.82
599.431	20695.24
599.627	20574.41
599.824	21047.49
600.02	20447.43
600.217	20969.66
600.413	20521.16
600.609	20306.12
600.806	20431.05
601.002	20435.14
601.198	20439.24
601.395	20031.69
601.591	20291.79
601.787	20463.82
601.984	20039.89
602.18	20328.65
602.376	20189.39
602.572	19740.88
602.769	19929.3
602.965	19601.62
603.161	19876.05
603.357	19734.74
603.553	19380.44
603.75	19667.16
603.946	19357.91
604.142	19665.11
604.338	19290.33
604.534	19194.08
604.73	19140.83
604.926	19161.31
605.122	19230.94
605.318	18997.47
605.514	19005.66
605.71	18761.95
605.906	18737.38
606.102	18946.27
606.298	18979.04
606.494	18677.99
606.69	18909.41
606.886	18510.05
607.082	18561.25
607.278	18792.67
607.474	18559.2
607.67	18456.81
607.866	18000.11
608.062	18516.2
608.257	18114.8
608.453	18268.39
608.649	18524.39
608.845	18301.16
609.041	18178.28
609.236	18168.04
609.432	18221.29
609.628	18043.12
609.824	17983.73
610.019	17862.9
610.215	17881.33
610.411	18073.84
610.606	17987.82
610.802	17596.66
610.998	17910
611.193	17780.98
611.389	17885.42
611.584	17545.46
611.78	17381.62
611.976	17674.48
612.171	17809.65
612.367	17664.24
612.562	17189.11
612.758	17199.35
612.953	17211.64
613.149	17502.45
613.344	17174.78
613.539	17602.8
613.735	17119.48
613.93	17189.11
614.126	17064.19
614.321	17273.08
614.517	17078.52
614.712	17056
614.907	17207.55
615.103	16972.03
615.298	16955.65
615.493	17148.15
615.688	16824.58
615.884	17086.72
616.079	16867.58
616.274	16740.61
616.47	16552.2
616.665	16703.75
616.86	16670.98
617.055	16584.96
617.25	16609.54
617.445	16806.14
617.641	16634.11
617.836	16453.89
618.031	16546.05
618.226	16568.58
618.421	16218.38
618.616	16517.38
618.811	16199.94
619.006	16351.49
619.201	16447.75
619.396	16245
619.591	15784.21
619.786	16218.38
619.981	15591.7
620.176	16011.53
620.371	15587.6
620.566	15642.9
620.761	15646.99
620.956	15667.47
621.151	15298.84
621.346	15651.09
621.541	15272.21
621.735	15374.61
621.93	15186.2
622.125	15319.32
622.32	15059.23
622.515	15036.7
622.709	14813.47
622.904	14885.15
623.099	14680.35
623.294	14889.24
623.488	14762.27
623.683	14737.7
623.878	14526.75
624.072	14307.62
624.267	14342.44
624.462	14334.25
624.656	14022.95
624.851	14457.12
625.046	14090.54
625.24	13920.56
625.435	13560.11
625.629	14014.76
625.824	13848.88
626.018	13660.46
626.213	13662.51
626.407	13568.3
626.602	13386.04
626.796	13386.04
626.991	13457.71
627.185	13318.45
627.38	13230.39
627.574	13181.24
627.768	13003.07
627.963	13056.31
628.157	13044.02
628.352	12884.28
628.546	12495.17
628.74	12783.93
628.935	12618.05
629.129	12505.41
629.323	12482.88
629.517	12314.95
629.712	12325.19
629.906	12200.26
630.1	11997.51
630.294	11995.46
630.489	11813.2
630.683	12097.86
630.877	11764.04
631.071	11993.42
631.265	11991.37
631.459	11712.85
631.653	11755.85
631.848	11549.01
632.042	11542.86
632.236	11614.54
632.43	11557.2
632.624	11499.86
632.818	11254.1
633.012	11129.17
633.206	11272.53
633.4	11200.85
633.594	11047.26
633.788	11057.5
633.982	10987.86
634.176	11094.36
634.369	10965.34
634.563	10740.06
634.757	10883.42
634.951	10811.74
635.145	10666.33
635.339	10811.74
635.533	10391.91
635.726	10695
635.92	10547.55
636.114	10498.4
636.308	10332.51
636.501	10242.4
636.695	10279.27
636.889	10094.95
637.083	10072.42
637.276	10189.16
637.47	9996.65
637.664	9990.5
637.857	10074.47
638.051	9898.34
638.244	9857.39
638.438	9722.22
638.632	9820.52
638.825	9750.89
639.019	9566.57
639.212	9521.52
639.406	9640.3
639.599	9365.87
639.793	9412.98
639.986	9335.15
640.18	9275.76
640.373	9169.27
640.567	8948.09
640.76	9113.97
640.954	9066.87
641.147	9015.67
641.34	9001.33
641.534	8960.38
641.727	8921.46
641.92	8905.08
642.114	8831.35
642.307	8939.9
642.5	8534.4
642.694	8503.68
642.887	8464.77
643.08	8589.69
643.273	8778.11
643.467	8626.56
643.66	8470.91
643.853	8475.01
644.046	8098.18
644.239	8239.49
644.432	8290.69
644.626	8368.51
644.819	8167.81
645.012	8139.14
645.205	8317.31
645.398	7975.3
645.591	7891.34
645.784	8006.02
645.977	7764.36
646.17	7877
646.363	7659.92
646.556	7733.64
646.749	7764.36
646.942	7784.84
647.135	7551.37
647.328	7528.85
647.521	7696.78
647.714	7481.74
647.907	7610.76
648.099	7471.5
648.292	7500.17
648.485	7287.18
648.678	7160.21
648.871	7365.01
649.064	7311.76
649.256	7371.15
649.449	7195.03
649.642	7197.07
649.835	7139.73
650.027	7102.87
650.22	6904.21
650.413	6965.65
650.605	7010.71
650.798	7061.91
650.991	6875.54
651.183	6865.3
651.376	6896.02
651.568	6816.15
651.761	6611.36
651.954	6664.6
652.146	6666.65
652.339	6683.03
652.531	6734.23
652.724	6680.99
652.916	6523.29
653.109	6556.06
653.301	6470.05
653.494	6502.81
653.686	6250.91
653.879	6457.76
654.071	6484.38
654.263	6195.62
654.456	6242.72
654.648	6216.1
654.84	6238.62
655.033	6140.32
655.225	6242.72
655.417	6226.34
655.61	6076.84
655.802	5974.44
655.994	5976.48
656.186	6011.3
656.379	5892.52
656.571	5837.22
656.763	5900.71
656.955	5796.26
657.148	5659.05
657.34	5693.87
657.532	5822.89
657.724	5601.71
657.916	5738.92
658.108	5550.51
658.3	5583.27
658.492	5552.56
658.684	5407.15
658.876	5472.68
659.068	5501.36
659.26	5458.35
659.452	5409.2
659.644	5390.77
659.836	5476.78
660.028	5419.44
660.22	5300.66
660.412	5267.89
660.604	5427.63
660.796	5382.57
660.988	5161.39
661.18	5317.04
661.372	5120.43
661.563	5077.43
661.755	5136.82
661.947	5067.19
662.139	5022.13
662.331	4942.26
662.522	4843.96
662.714	5102
662.906	4874.68
663.097	4911.54
663.289	4862.39
663.481	4848.05
663.673	4846.01
663.864	4725.18
664.056	4823.48
664.247	4790.71
664.439	4776.38
664.631	4735.42
664.822	4833.72
665.014	4702.65
665.205	4757.94
665.397	4618.68
665.588	4766.14
665.78	4645.31
665.971	4510.14
666.163	4587.96
666.354	4538.81
666.546	4698.55
666.737	4559.29
666.929	4399.55
667.12	4555.19
667.311	4346.3
667.503	4364.73
667.694	4473.28
667.885	4360.64
668.077	4272.57
668.268	4278.72
668.459	4415.93
668.651	4317.63
668.842	4254.14
669.033	4178.37
669.224	4235.71
669.416	4202.94
669.607	4112.83
669.798	4170.18
669.989	4204.99
670.18	4196.8
670.371	4180.42
670.563	4104.64
670.754	4184.51
670.945	4024.77
671.136	4108.74
671.327	4174.27
671.518	3903.94
671.709	4133.31
671.9	3893.7
672.091	4030.91
672.282	3944.9
672.473	3844.55
672.664	3905.99
672.855	3893.7
673.046	3867.08
673.237	3946.95
673.428	3834.31
673.619	3912.13
673.809	3789.25
674	3922.37
674.191	3707.34
674.382	3754.44
674.573	3715.53
674.764	3783.11
674.954	3668.42
675.145	3719.62
675.336	3713.48
675.527	3695.05
675.717	3742.15
675.908	3611.08
676.099	3582.41
676.289	3725.77
676.48	3652.04
676.671	3715.53
676.861	3602.89
677.052	3465.68
677.243	3514.83
677.433	3465.68
677.624	3451.34
677.814	3566.03
678.005	3506.63
678.195	3559.88
678.386	3432.91
678.576	3471.82
678.767	3490.25
678.957	3422.67
679.148	3443.15
679.338	3373.52
679.529	3408.33
679.719	3457.48
679.909	3381.71
680.1	3498.44
680.29	3371.47
680.481	3383.76
680.671	3355.08
680.861	3365.32
681.052	3428.81
681.242	3244.49
681.432	3350.99
681.622	3256.78
681.813	3310.03
682.003	3275.21
682.193	3301.84
682.383	3285.45
682.573	3273.17
682.764	3262.93
682.954	3404.24
683.144	3205.58
683.334	3264.97
683.524	3273.17
683.714	3240.4
683.904	3097.04
684.094	3158.48
684.284	3236.3
684.474	3051.99
684.664	3256.78
684.854	3047.89
685.044	3168.72
685.234	3023.31
685.424	3133.9
685.614	2955.73
685.804	3015.12
685.994	3076.56
686.184	3064.27
686.374	3064.27
686.564	3045.84
686.753	3013.07
686.943	3008.98
687.133	3045.84
687.323	2998.74
687.513	2982.35
687.702	2994.64
687.892	3082.7
688.082	2912.72
688.272	2925.01
688.461	2963.92
688.651	2984.4
688.841	2900.44
689.03	2912.72
689.22	2849.24
689.41	2822.61
689.599	2990.55
689.789	2841.04
689.979	2800.09
690.168	2785.75
690.358	2798.04
690.547	2822.61
690.737	2755.03
690.926	2703.83
691.116	2640.34
691.305	2814.42
691.495	2712.02
691.684	2658.78
691.874	2728.41
692.063	2677.21
692.252	2662.87
692.442	2552.28
692.631	2662.87
692.82	2787.8
693.01	2609.62
693.199	2677.21
693.388	2539.99
693.578	2537.95
693.767	2621.91
693.956	2593.24
694.146	2617.82
694.335	2634.2
694.524	2470.36
694.713	2654.68
694.902	2566.62
695.092	2425.31
695.281	2576.86
695.47	2669.02
695.659	2542.04
695.848	2542.04
696.037	2542.04
696.226	2472.41
696.415	2503.13
696.604	2593.24
696.793	2443.74
696.982	2423.26
697.171	2574.81
697.36	2550.23
697.549	2513.37
697.738	2474.46
697.927	2537.95
698.116	2560.47
698.305	2499.03
698.494	2431.45
698.683	2539.99
698.872	2623.96
699.061	2415.07
699.25	2431.45
699.438	2402.78
699.627	2343.39
699.816	2396.64
700.005	2380.25
700.193	2466.27
700.382	2456.03
700.571	2449.88
700.76	2546.14
700.948	2466.27
701.137	2439.64
701.326	2324.96
701.514	2396.64
701.703	2488.79
701.892	2488.79
702.08	2496.99
702.269	2474.46
702.457	2466.27
702.646	2449.88
702.834	2390.49
703.023	2460.12
703.212	2353.63
703.4	2394.59
703.589	2421.21
703.777	2521.56
703.965	2365.92
704.154	2509.27
704.342	2458.07
704.531	2464.22
704.719	2410.97
704.907	2384.35
705.096	2415.07
705.284	2329.05
705.472	2398.68
705.661	2445.79
705.849	2417.12
706.037	2298.33
706.226	2392.54
706.414	2410.97
706.602	2390.49
706.79	2417.12
706.979	2376.16
707.167	2460.12
707.355	2320.86
707.543	2435.55
707.731	2517.47
707.919	2320.86
708.107	2431.45
708.296	2343.39
708.484	2306.52
708.672	2435.55
708.86	2419.16
709.048	2419.16
709.236	2398.68
709.424	2318.81
709.612	2382.3
709.8	2312.67
709.988	2400.73
710.176	2361.82
710.364	2316.76
710.551	2331.1
710.739	2392.54
710.927	2384.35
711.115	2296.28
711.303	2439.64
711.491	2310.62
711.679	2386.4
711.866	2415.07
712.054	2398.68
712.242	2312.67
712.43	2501.08
712.617	2402.78
712.805	2292.19
712.993	2408.92
713.181	2247.13
713.368	2335.2
713.556	2331.1
713.744	2341.34
713.931	2335.2
714.119	2404.83
714.306	2445.79
714.494	2306.52
714.682	2251.23
714.869	2408.92
715.057	2322.91
715.244	2349.53
715.432	2351.58
715.619	2365.92
715.807	2302.43
715.994	2345.44
716.182	2314.72
716.369	2273.76
716.556	2470.36
716.744	2292.19
716.931	2415.07
717.119	2318.81
717.306	2367.96
717.493	2400.73
717.681	2353.63
717.868	2236.89
718.055	2226.65
718.242	2449.88
718.43	2394.59
718.617	2400.73
718.804	2408.92
718.991	2423.26
719.179	2318.81
719.366	2370.01
719.553	2347.48
719.74	2384.35
719.927	2314.72
720.114	2390.49
720.301	2343.39
720.488	2296.28
720.676	2394.59
720.863	2279.9
721.05	2261.47
721.237	2200.03
721.424	2398.68
721.611	2355.68
721.798	2382.3
721.985	2304.48
722.172	2273.76
722.358	2390.49
722.545	2175.45
722.732	2261.47
722.919	2228.7
723.106	2269.66
723.293	2292.19
723.48	2337.24
723.667	2458.07
723.853	2294.24
724.04	2306.52
724.227	2392.54
724.414	2349.53
724.6	2427.35
724.787	2320.86
724.974	2224.61
725.161	2214.37
725.347	2343.39
725.534	2263.52
725.72	2349.53
725.907	2214.37
726.094	2228.7
726.28	2341.34
726.467	2234.85
726.653	2302.43
726.84	2267.61
727.027	2359.77
727.213	2255.33
727.4	2300.38
727.586	2298.33
727.773	2263.52
727.959	2279.9
728.145	2161.12
728.332	2240.99
728.518	2175.45
728.705	2306.52
728.891	2275.81
729.077	2234.85
729.264	2281.95
729.45	2279.9
729.636	2261.47
729.823	2195.93
730.009	2345.44
730.195	2243.04
730.382	2257.37
730.568	2234.85
730.754	2333.15
730.94	2290.14
731.126	2263.52
731.313	2318.81
731.499	2255.33
731.685	2417.12
731.871	2249.18
732.057	2185.69
732.243	2380.25
732.429	2265.57
732.615	2195.93
732.801	2312.67
732.987	2339.29
733.173	2118.11
733.359	2234.85
733.545	2290.14
733.731	2322.91
733.917	2191.84
734.103	2267.61
734.289	2267.61
734.475	2189.79
734.661	2228.7
734.847	2232.8
735.033	2267.61
735.219	2318.81
735.404	2204.13
735.59	2247.13
735.776	2157.02
735.962	2300.38
736.148	2316.76
736.333	2165.21
736.519	2105.82
736.705	2152.93
736.89	2202.08
737.076	2187.74
737.262	2124.26
737.447	2193.89
737.633	2152.93
737.819	2232.8
738.004	2171.36
738.19	2177.5
738.375	2152.93
738.561	2116.06
738.747	2109.92
738.932	2175.45
739.118	2097.63
739.303	2220.51
739.489	2130.4
739.674	2105.82
739.859	2193.89
740.045	2068.96
740.23	2114.02
740.416	1995.23
740.601	2079.2
740.786	2058.72
740.972	2095.58
741.157	2028
741.342	2077.15
741.528	2056.67
741.713	2050.53
741.898	2066.91
742.084	2011.62
742.269	2150.88
742.454	1982.95
742.639	2081.25
742.824	2028
743.01	2032.1
743.195	2023.91
743.38	2021.86
743.565	1925.6
743.75	2034.14
743.935	1976.8
744.12	2001.38
744.305	1868.26
744.49	1858.02
744.675	1892.84
744.86	1864.16
745.045	1878.5
745.23	1982.95
745.415	1939.94
745.6	1815.01
745.785	1894.88
745.97	1952.23
746.155	1890.79
746.34	1909.22
746.525	1944.03
746.71	1972.71
746.895	1808.87
747.079	1749.48
747.264	1747.43
747.449	1901.03
747.634	1772
747.819	1853.92
748.003	1866.21
748.188	1784.29
748.373	1737.19
748.557	1645.03
748.742	1741.29
748.927	1755.62
749.111	1696.23
749.296	1683.94
749.481	1716.71
749.665	1614.31
749.85	1567.21
750.034	1722.85
750.219	1581.54
750.404	1618.41
750.588	1624.55
750.773	1544.68
750.957	1667.56
751.141	1593.83
751.326	1526.25
751.51	1556.97
751.695	1593.83
751.879	1573.35
752.064	1528.3
752.248	1577.45
752.432	1452.52
752.617	1550.82
752.801	1579.5
752.985	1442.28
753.17	1352.17
753.354	1520.1
753.538	1546.73
753.722	1438.19
753.907	1448.43
754.091	1368.56
754.275	1356.27
754.459	1444.33
754.643	1393.13
754.828	1485.29
755.012	1378.79
755.196	1360.36
755.38	1288.68
755.564	1370.6
755.748	1311.21
755.932	1331.69
756.116	1352.17
756.3	1368.56
756.484	1303.02
756.668	1417.71
756.852	1323.5
757.036	1327.6
757.22	1237.49
757.404	1237.49
757.588	1325.55
757.772	1319.4
757.956	1219.05
758.14	1356.27
758.323	1208.81
758.507	1227.25
758.691	1243.63
758.875	1169.9
759.059	1284.59
759.242	1188.33
759.426	1151.47
759.61	1118.7
759.794	1143.28
759.977	1262.06
760.161	1186.29
760.345	1122.8
760.528	1122.8
760.712	1151.47
760.895	1159.66
761.079	1128.94
761.263	1143.28
761.446	1090.03
761.63	1114.61
761.813	1026.54
761.997	1036.78
762.18	1040.88
762.364	1126.89
762.547	1028.59
762.731	1032.69
762.914	1012.21
763.098	1034.74
763.281	1008.11
763.464	1096.18
763.648	1036.78
763.831	1112.56
764.015	1081.84
764.198	1032.69
764.381	1096.18
764.564	1036.78
764.748	1053.17
764.931	1051.12
765.114	1006.06
765.297	969.2
765.481	1055.22
765.664	899.57
765.847	942.58
766.03	1006.06
766.213	1018.35
766.397	950.77
766.58	893.43
766.763	1071.6
766.946	897.52
767.129	967.15
767.312	897.52
767.495	987.63
767.678	938.48
767.861	952.82
768.044	885.23
768.227	895.47
768.41	915.95
768.593	893.43
768.776	901.62
768.959	907.76
769.142	967.15
769.324	909.81
769.507	903.67
769.69	870.9
769.873	924.15
770.056	918
770.239	891.38
770.421	938.48
770.604	864.75
770.787	829.94
770.97	862.71
771.152	823.8
771.335	889.33
771.518	872.95
771.7	963.06
771.883	874.99
772.066	905.71
772.248	926.19
772.431	825.84
772.613	885.23
772.796	793.08
772.978	813.56
773.161	815.6
773.343	805.36
773.526	821.75
773.708	717.3
773.891	770.55
774.073	829.94
774.256	791.03
774.438	786.93
774.621	717.3
774.803	729.59
774.985	817.65
775.168	717.3
775.35	680.44
775.532	786.93
775.715	788.98
775.897	741.88
776.079	782.84
776.261	772.6
776.444	760.31
776.626	684.53
776.808	723.44
776.99	647.67
777.173	653.81
777.355	700.92
777.537	666.1
777.719	627.19
777.901	633.33
778.083	692.73
778.265	643.57
778.447	694.77
778.629	664.05
778.811	680.44
778.993	731.64
779.175	621.05
779.357	637.43
779.539	580.09
779.721	725.49
779.903	647.67
780.085	627.19
780.267	651.77
780.449	612.85
780.631	653.81
780.812	666.1
780.994	610.81
781.176	569.85
781.358	713.21
781.54	629.24
781.721	582.14
781.903	664.05
782.085	524.79
782.267	588.28
782.448	532.98
782.63	541.18
782.812	516.6
782.993	592.37
783.175	592.37
783.357	457.21
783.538	567.8
783.72	557.56
783.901	481.78
784.083	549.37
784.264	604.66
784.446	512.5
784.627	524.79
784.809	502.26
784.99	483.83
785.172	481.78
785.353	457.21
785.535	457.21
785.716	414.2
785.897	455.16
786.079	481.78
786.26	430.59
786.441	449.02
786.623	426.49
786.804	365.05
786.985	438.78
787.167	438.78
787.348	391.67
787.529	494.07
787.71	467.45
787.891	469.5
788.073	379.39
788.254	414.2
788.435	487.93
788.616	414.2
788.797	422.39
788.978	395.77
789.159	444.92
789.34	432.63
789.522	455.16
789.703	442.87
789.884	397.82
790.065	383.48
790.246	320
790.427	399.87
790.607	381.43
790.788	334.33
790.969	379.39
791.15	422.39
791.331	344.57
791.512	406.01
791.693	336.38
791.874	375.29
792.054	340.47
792.235	412.15
792.416	383.48
792.597	358.91
792.778	401.91
792.958	324.09
793.139	340.47
793.32	410.11
793.5	344.57
793.681	377.34
793.862	393.72
794.042	352.76
794.223	283.13
794.404	330.23
794.584	268.8
794.765	330.23
794.945	354.81
795.126	303.61
795.306	309.76
795.487	291.32
795.667	262.65
795.848	268.8
796.028	311.8
796.209	320
796.389	309.76
796.57	268.8
796.75	233.98
796.93	334.33
797.111	242.17
797.291	256.51
797.471	301.56
797.652	260.6
797.832	307.71
798.012	262.65
798.192	326.14
798.373	305.66
798.553	186.88
798.733	295.42
798.913	320
799.093	336.38
799.274	264.7
799.454	324.09
799.634	285.18
799.814	320
799.994	322.04
800.174	254.46
800.354	244.22
800.534	209.4
800.714	266.75
800.894	209.4
801.074	205.31
801.254	264.7
801.434	281.08
801.614	272.89
801.794	195.07
801.974	653.81
802.154	248.32
802.334	291.32
802.514	205.31
802.693	240.12
802.873	164.35
803.053	231.93
803.233	283.13
803.413	207.36
803.592	131.58
803.772	217.6
803.952	174.59
804.131	236.03
804.311	152.06
804.491	209.4
804.67	227.84
804.85	221.69
805.03	205.31
805.209	225.79
805.389	229.88
805.568	225.79
805.748	211.45
805.928	203.26
806.107	250.36
806.287	188.93
806.466	221.69
806.646	197.12
806.825	252.41
807.004	182.78
807.184	123.39
807.363	276.99
807.543	250.36
807.722	193.02
807.901	268.8
808.081	262.65
808.26	176.64
808.439	217.6
808.619	158.21
808.798	141.82
808.977	199.16
809.156	197.12
809.336	168.45
809.515	223.74
809.694	158.21
809.873	238.08
810.052	109.05
810.231	190.97
810.411	207.36
810.59	217.6
810.769	168.45
810.948	193.02
811.127	213.5
811.306	115.2
811.485	195.07
811.664	227.84
811.843	107.01
812.022	166.4
812.201	193.02
812.38	219.64
812.559	158.21
812.737	207.36
812.916	145.92
813.095	174.59
813.274	176.64
813.453	129.53
813.632	197.12
813.811	182.78
813.989	84.48
814.168	143.87
814.347	47.62
814.526	152.06
814.704	180.73
814.883	186.88
815.062	135.68
815.24	147.97
815.419	141.82
815.598	170.49
815.776	154.11
815.955	203.26
816.133	133.63
816.312	123.39
816.49	84.48
816.669	182.78
816.847	166.4
817.026	168.45
817.204	113.15
817.383	244.22
817.561	174.59
817.74	111.1
817.918	170.49
818.097	219.64
818.275	125.44
818.453	217.6
818.632	176.64
818.81	115.2
818.988	121.34
819.167	154.11
819.345	131.58
819.523	129.53
819.701	125.44
819.879	139.77
820.058	80.38
820.236	156.16
820.414	51.71
820.592	150.01
820.77	170.49
820.948	41.47
821.127	100.86
821.305	143.87
821.483	117.25
821.661	145.92
821.839	74.24
822.017	131.58
822.195	131.58
822.373	100.86
822.551	104.96
822.729	174.59
822.907	113.15
823.085	129.53
823.262	104.96
823.44	86.53
823.618	102.91
823.796	94.72
823.974	100.86
824.152	188.93
824.329	31.23
824.507	156.16
824.685	127.49
824.863	147.97
825.04	104.96
825.218	162.3
825.396	123.39
825.574	104.96
825.751	125.44
825.929	104.96
826.107	152.06
826.284	139.77
826.462	115.2
826.639	162.3
826.817	147.97
826.994	70.14
827.172	107.01
827.349	109.05
827.527	66.05
827.704	102.91
827.882	154.11
828.059	88.57
828.237	57.86
828.414	72.19
828.591	20.99
828.769	68.09
828.946	76.29
829.124	170.49
829.301	41.47
829.478	39.42
829.655	74.24
829.833	111.1
830.01	152.06
830.187	68.09
830.364	66.05
830.542	117.25
830.719	154.11
830.896	16.9
831.073	96.77
831.25	74.24
831.427	133.63
831.604	35.33
831.782	78.33
831.959	178.69
832.136	68.09
832.313	119.29
832.49	113.15
832.667	74.24
832.844	94.72
833.021	68.09
833.198	61.95
833.374	131.58
833.551	6.66
833.728	88.57
833.905	135.68
834.082	74.24
834.259	33.28
834.436	104.96
834.612	78.33
834.789	115.2
834.966	74.24
835.143	-7.68
835.319	-24.06
835.496	96.77
835.673	111.1
835.85	158.21
836.026	123.39
836.203	158.21
836.38	84.48
836.556	82.43
836.733	107.01
836.909	139.77
837.086	66.05
837.262	78.33
837.439	59.9
837.616	166.4
837.792	66.05
837.968	141.82
838.145	20.99
838.321	76.29
838.498	55.81
838.674	111.1
838.851	123.39
839.027	68.09
839.203	70.14
839.38	72.19
839.556	47.62
839.732	86.53
839.909	41.47
840.085	43.52
840.261	59.9
840.437	51.71
840.614	76.29
840.79	117.25
840.966	29.18
841.142	57.86
841.318	20.99
841.494	61.95
841.671	-38.4
841.847	78.33
842.023	-1.54
842.199	57.86
842.375	80.38
842.551	47.62
842.727	49.66
842.903	121.34
843.079	51.71
843.255	66.05
843.431	31.23
843.607	68.09
843.783	-36.35
843.959	102.91
844.134	29.18
844.31	51.71
844.486	92.67
844.662	33.28
844.838	31.23
845.013	150.01
845.189	74.24
845.365	64
845.541	39.42
845.716	-9.73
845.892	88.57
846.068	66.05
846.244	-24.06
846.419	125.44
846.595	59.9
846.77	113.15
846.946	74.24
847.122	41.47
847.297	55.81
847.473	39.42
847.648	82.43
847.824	127.49
847.999	-40.45
848.175	23.04
848.35	-34.3
848.526	33.28
848.701	35.33
848.876	37.38
849.052	39.42
849.227	4.61
849.403	12.8
849.578	86.53
849.753	78.33
849.929	53.76
850.104	55.81
850.279	74.24
850.454	68.09
850.63	86.53
850.805	55.81
850.98	104.96
851.155	88.57
851.33	-1.54
851.505	51.71
851.681	43.52
851.856	-28.16
852.031	66.05
852.206	12.8
852.381	88.57
852.556	64
852.731	25.09
852.906	98.81
853.081	61.95
853.256	123.39
853.431	90.62
853.606	-3.58
853.781	47.62
853.956	29.18
854.131	33.28
854.305	6.66
854.48	43.52
854.655	39.42
854.83	33.28
855.005	70.14
855.18	18.94
855.354	4.61
855.529	125.44
855.704	-36.35
855.879	25.09
856.053	57.86
856.228	55.81
856.403	-13.82
856.577	76.29
856.752	51.71
856.926	53.76
857.101	-24.06
857.276	20.99
857.45	-3.58
857.625	55.81
857.799	0.51
857.974	98.81
858.148	-48.64
858.323	68.09
858.497	68.09
858.672	29.18
858.846	49.66
859.02	70.14
859.195	6.66
859.369	20.99
859.543	68.09
859.718	12.8
859.892	20.99
860.066	16.9
860.241	4.61
860.415	70.14
860.589	29.18
860.763	123.39
860.938	-3.58
861.112	59.9
861.286	-56.83
861.46	12.8
861.634	35.33
861.808	59.9
861.982	-58.88
862.157	82.43
862.331	16.9
862.505	-30.21
862.679	14.85
862.853	27.14
863.027	45.57
863.201	41.47
863.375	-11.78
863.549	61.95
863.722	57.86
863.896	20.99
864.07	6.66
864.244	57.86
864.418	49.66
864.592	72.19
864.766	-19.97
864.939	51.71
865.113	-75.26
865.287	133.63
865.461	31.23
865.634	47.62
865.808	49.66
865.982	-1.54
866.156	23.04
866.329	-9.73
866.503	96.77
866.676	61.95
866.85	-30.21
867.024	29.18
867.197	80.38
867.371	27.14
867.544	10.75
867.718	25.09
867.891	94.72
868.065	31.23
868.238	2.56
868.412	43.52
868.585	18.94
868.759	-34.3
868.932	0.51
869.105	-32.26
869.279	33.28
869.452	8.7
869.625	18.94
869.799	43.52
869.972	20.99
870.145	23.04
870.319	53.76
870.492	45.57
870.665	72.19
870.838	-44.54
871.011	-52.74
871.185	80.38
871.358	78.33
871.531	72.19
871.704	57.86
871.877	76.29
872.05	39.42
872.223	-50.69
872.396	39.42
872.569	-13.82
872.742	-26.11
872.915	-1.54
873.088	-73.21
873.261	29.18
873.434	-5.63
873.607	61.95
873.78	74.24
873.953	-1.54
874.126	12.8
874.299	-13.82
874.471	-40.45
874.644	14.85
874.817	45.57
874.99	-7.68
875.163	0.51
875.335	-15.87
875.508	-50.69
875.681	-46.59
875.853	14.85
876.026	35.33
876.199	49.66
876.371	88.57
876.544	45.57
876.717	72.19
876.889	-9.73
877.062	70.14
877.234	43.52
877.407	-7.68
877.579	61.95
877.752	6.66
877.924	43.52
878.097	-11.78
878.269	49.66
878.442	-13.82
878.614	55.81
878.786	25.09
878.959	18.94
879.131	86.53
879.303	0.51
879.476	-32.26
879.648	35.33
879.82	14.85
879.993	-7.68
880.165	10.75
880.337	25.09
880.509	18.94
880.681	6.66
880.854	14.85
881.026	33.28
881.198	61.95
881.37	-44.54
881.542	-19.97
881.714	-19.97
881.886	2.56
882.058	25.09
882.23	4.61
882.402	-13.82
882.574	8.7
882.746	31.23
882.918	33.28
883.09	33.28
883.262	4.61
883.434	-7.68
883.606	-19.97
883.778	-1.54
883.95	23.04
884.122	25.09
884.293	47.62
884.465	18.94
884.637	51.71
884.809	-13.82
884.98	10.75
885.152	-3.58
885.324	121.34
885.496	31.23
885.667	4.61
885.839	-9.73
886.011	-22.02
886.182	8.7
886.354	45.57
886.525	45.57
886.697	45.57
886.869	-26.11
887.04	18.94
887.212	68.09
887.383	2.56
887.555	12.8
887.726	74.24
887.897	-91.65
888.069	33.28
888.24	41.47
888.412	-32.26
888.583	-3.58
888.754	33.28
888.926	20.99
889.097	6.66
889.268	-11.78
889.44	57.86
889.611	-7.68
889.782	-28.16
889.953	49.66
890.125	33.28
890.296	-17.92
890.467	6.66
890.638	-7.68
890.809	18.94
890.98	-1.54
891.151	23.04
891.323	-36.35
891.494	4.61
891.665	-19.97
891.836	-56.83
892.007	-17.92
892.178	-60.93
892.349	57.86
892.52	10.75
892.691	33.28
892.862	8.7
893.032	-75.26
893.203	4.61
893.374	43.52
893.545	57.86
893.716	8.7
893.887	6.66
894.057	-24.06
894.228	-26.11
894.399	-3.58
894.57	39.42
894.74	-36.35
894.911	16.9
895.082	-52.74
895.253	-54.78
895.423	-24.06
895.594	25.09
895.764	-15.87
895.935	-17.92
896.106	-9.73
896.276	-15.87
896.447	-15.87
896.617	43.52
896.788	-67.07
896.958	20.99
897.129	2.56
897.299	45.57
897.47	-11.78
897.64	41.47
897.81	-58.88
897.981	-17.92
898.151	-5.63
898.322	-50.69
898.492	-30.21
898.662	-15.87
898.832	90.62
899.003	-44.54
899.173	47.62
899.343	23.04
899.513	-17.92
