Data from USB4F104151__132__11-07-47-580.txt Node

Date: Wed Mar 12 11:07:47 EDT 2025
User: louis
Spectrometer: USB4F10415
Trigger mode: 4
Integration Time (sec): 2.000000E-2
Scans to average: 1
Electric dark correction enabled: true
Nonlinearity correction enabled: false
Boxcar width: 0
XAxis mode: Wavelengths
Number of Pixels in Spectrum: 3648
>>>>>Begin Spectral Data<<<<<
178.204	-41.13
178.424	-41.13
178.644	-41.13
178.864	-100.52
179.084	-45.23
179.304	-26.79
179.524	16.21
179.744	46.93
179.964	18.26
180.184	10.07
180.404	14.17
180.624	-12.46
180.844	-49.32
181.064	-18.6
181.283	1.88
181.503	3.93
181.723	-4.27
181.943	-12.46
182.163	3.93
182.383	-59.56
182.602	59.22
182.822	22.36
183.042	10.07
183.262	-26.79
183.482	-4.27
183.701	-0.17
183.921	-10.41
184.141	-61.61
184.361	85.84
184.58	10.07
184.8	5.97
185.02	-2.22
185.239	-4.27
185.459	5.97
185.679	69.46
185.898	-53.42
186.118	-84.14
186.338	3.93
186.557	81.75
186.777	-26.79
186.997	-28.84
187.216	67.41
187.436	18.26
187.655	30.55
187.875	5.97
188.095	30.55
188.314	36.69
188.534	44.88
188.753	5.97
188.973	12.12
189.192	-20.65
189.412	10.07
189.631	-2.22
189.851	-39.08
190.07	-18.6
190.29	10.07
190.509	8.02
190.729	-77.99
190.948	44.88
191.168	38.74
191.387	-16.55
191.607	-28.84
191.826	57.17
192.045	-26.79
192.265	3.93
192.484	61.27
192.704	-51.37
192.923	12.12
193.142	79.7
193.362	53.08
193.581	69.46
193.8	51.03
194.02	38.74
194.239	26.45
194.458	12.12
194.678	18.26
194.897	-2.22
195.116	16.21
195.335	-26.79
195.555	32.6
195.774	34.64
195.993	-22.7
196.212	18.26
196.432	-4.27
196.651	1.88
196.87	20.31
197.089	61.27
197.308	10.07
197.528	-51.37
197.747	-22.7
197.966	-41.13
198.185	71.51
198.404	24.4
198.623	38.74
198.842	28.5
199.062	12.12
199.281	-0.17
199.5	-16.55
199.719	38.74
199.938	38.74
200.157	-6.31
200.376	69.46
200.595	20.31
200.814	38.74
201.033	-0.17
201.252	12.12
201.471	18.26
201.69	16.21
201.909	5.97
202.128	-47.27
202.347	-20.65
202.566	26.45
202.785	-37.03
203.004	38.74
203.223	-12.46
203.442	38.74
203.661	8.02
203.879	-75.95
204.098	24.4
204.317	14.17
204.536	12.12
204.755	40.79
204.974	-22.7
205.193	-39.08
205.411	12.12
205.63	28.5
205.849	104.28
206.068	20.31
206.287	30.55
206.505	30.55
206.724	-20.65
206.943	26.45
207.162	-10.41
207.381	-4.27
207.599	32.6
207.818	18.26
208.037	-0.17
208.255	28.5
208.474	-55.47
208.693	40.79
208.911	69.46
209.13	32.6
209.349	26.45
209.567	14.17
209.786	91.99
210.005	-4.27
210.223	5.97
210.442	-26.79
210.661	38.74
210.879	63.32
211.098	53.08
211.316	14.17
211.535	57.17
211.753	-14.51
211.972	77.65
212.191	-8.36
212.409	30.55
212.628	-0.17
212.846	-28.84
213.065	59.22
213.283	18.26
213.502	-51.37
213.72	10.07
213.938	38.74
214.157	5.97
214.375	53.08
214.594	16.21
214.812	3.93
215.031	16.21
215.249	-84.14
215.467	53.08
215.686	40.79
215.904	10.07
216.122	1.88
216.341	67.41
216.559	-37.03
216.778	30.55
216.996	67.41
217.214	-39.08
217.432	38.74
217.651	-24.75
217.869	30.55
218.087	-32.94
218.306	32.6
218.524	5.97
218.742	10.07
218.96	-2.22
219.179	-30.89
219.397	40.79
219.615	89.94
219.833	63.32
220.051	-0.17
220.27	51.03
220.488	42.84
220.706	48.98
220.924	10.07
221.142	38.74
221.36	10.07
221.578	30.55
221.796	38.74
222.015	32.6
222.233	46.93
222.451	42.84
222.669	1.88
222.887	20.31
223.105	16.21
223.323	-2.22
223.541	-12.46
223.759	26.45
223.977	22.36
224.195	-10.41
224.413	75.6
224.631	-2.22
224.849	24.4
225.067	5.97
225.285	32.6
225.503	16.21
225.721	8.02
225.939	38.74
226.157	-63.66
226.375	55.12
226.592	34.64
226.81	38.74
227.028	-20.65
227.246	124.76
227.464	-43.18
227.682	51.03
227.9	-2.22
228.117	118.61
228.335	-24.75
228.553	10.07
228.771	69.46
228.989	77.65
229.206	-26.79
229.424	-32.94
229.642	14.17
229.86	24.4
230.077	-10.41
230.295	42.84
230.513	87.89
230.731	8.02
230.948	-10.41
231.166	-32.94
231.384	40.79
231.601	24.4
231.819	5.97
232.037	51.03
232.254	8.02
232.472	16.21
232.689	-18.6
232.907	79.7
233.125	67.41
233.342	5.97
233.56	-6.31
233.777	-22.7
233.995	36.69
234.213	3.93
234.43	-2.22
234.648	-8.36
234.865	55.12
235.083	38.74
235.3	38.74
235.518	59.22
235.735	57.17
235.953	28.5
236.17	-30.89
236.388	-45.23
236.605	-4.27
236.822	55.12
237.04	-14.51
237.257	18.26
237.475	5.97
237.692	53.08
237.909	8.02
238.127	-12.46
238.344	22.36
238.562	16.21
238.779	-14.51
238.996	32.6
239.214	104.28
239.431	102.23
239.648	-34.99
239.865	28.5
240.083	-18.6
240.3	55.12
240.517	-10.41
240.735	40.79
240.952	34.64
241.169	30.55
241.386	10.07
241.603	28.5
241.821	-6.31
242.038	24.4
242.255	-14.51
242.472	-10.41
242.689	40.79
242.907	24.4
243.124	-20.65
243.341	-22.7
243.558	-10.41
243.775	14.17
243.992	-18.6
244.209	14.17
244.426	94.04
244.643	-12.46
244.86	48.98
245.078	-4.27
245.295	5.97
245.512	12.12
245.729	-53.42
245.946	44.88
246.163	28.5
246.38	42.84
246.597	81.75
246.814	-12.46
247.031	-14.51
247.248	-0.17
247.464	-10.41
247.681	96.08
247.898	120.66
248.115	28.5
248.332	-84.14
248.549	34.64
248.766	79.7
248.983	67.41
249.2	22.36
249.417	-18.6
249.633	40.79
249.85	61.27
250.067	100.18
250.284	18.26
250.501	36.69
250.717	3.93
250.934	34.64
251.151	22.36
251.368	-22.7
251.585	-14.51
251.801	-26.79
252.018	-39.08
252.235	55.12
252.451	34.64
252.668	34.64
252.885	16.21
253.102	28.5
253.318	16.21
253.535	-18.6
253.752	-61.61
253.968	-12.46
254.185	44.88
254.401	5.97
254.618	40.79
254.835	44.88
255.051	10.07
255.268	-4.27
255.484	59.22
255.701	10.07
255.917	75.6
256.134	-63.66
256.351	-28.84
256.567	38.74
256.784	16.21
257	-28.84
257.217	-53.42
257.433	57.17
257.65	87.89
257.866	63.32
258.082	34.64
258.299	-2.22
258.515	81.75
258.732	14.17
258.948	-26.79
259.165	36.69
259.381	-22.7
259.597	32.6
259.814	10.07
260.03	38.74
260.246	-28.84
260.463	73.56
260.679	42.84
260.895	18.26
261.112	8.02
261.328	48.98
261.544	-0.17
261.761	65.36
261.977	30.55
262.193	38.74
262.409	-22.7
262.626	87.89
262.842	26.45
263.058	-20.65
263.274	-2.22
263.49	75.6
263.707	26.45
263.923	61.27
264.139	18.26
264.355	5.97
264.571	71.51
264.787	71.51
265.004	61.27
265.22	-6.31
265.436	-4.27
265.652	-2.22
265.868	75.6
266.084	1.88
266.3	30.55
266.516	18.26
266.732	36.69
266.948	5.97
267.164	26.45
267.38	63.32
267.596	91.99
267.812	53.08
268.028	57.17
268.244	-10.41
268.46	26.45
268.676	77.65
268.892	77.65
269.108	-45.23
269.324	3.93
269.54	55.12
269.756	-18.6
269.972	-10.41
270.188	-18.6
270.403	63.32
270.619	-10.41
270.835	36.69
271.051	20.31
271.267	40.79
271.483	69.46
271.698	55.12
271.914	-55.47
272.13	-30.89
272.346	34.64
272.562	59.22
272.777	28.5
272.993	-73.9
273.209	87.89
273.425	16.21
273.64	5.97
273.856	53.08
274.072	94.04
274.287	-22.7
274.503	26.45
274.719	26.45
274.934	14.17
275.15	65.36
275.366	-22.7
275.581	77.65
275.797	24.4
276.012	73.56
276.228	34.64
276.444	20.31
276.659	65.36
276.875	-26.79
277.09	57.17
277.306	-14.51
277.521	36.69
277.737	16.21
277.952	28.5
278.168	8.02
278.383	-18.6
278.599	38.74
278.814	14.17
279.03	-55.47
279.245	38.74
279.461	12.12
279.676	36.69
279.892	30.55
280.107	-24.75
280.322	-41.13
280.538	42.84
280.753	65.36
280.969	32.6
281.184	46.93
281.399	91.99
281.615	-6.31
281.83	-2.22
282.045	48.98
282.26	-75.95
282.476	14.17
282.691	-20.65
282.906	-8.36
283.122	-59.56
283.337	3.93
283.552	48.98
283.767	-6.31
283.983	51.03
284.198	91.99
284.413	-2.22
284.628	-0.17
284.843	40.79
285.058	55.12
285.274	44.88
285.489	32.6
285.704	118.61
285.919	-77.99
286.134	57.17
286.349	42.84
286.564	12.12
286.779	38.74
286.995	71.51
287.21	-41.13
287.425	-20.65
287.64	-39.08
287.855	38.74
288.07	-16.55
288.285	-12.46
288.5	34.64
288.715	118.61
288.93	38.74
289.145	-4.27
289.36	42.84
289.575	55.12
289.79	53.08
290.004	5.97
290.219	34.64
290.434	91.99
290.649	-20.65
290.864	65.36
291.079	67.41
291.294	44.88
291.509	44.88
291.724	28.5
291.938	18.26
292.153	5.97
292.368	-24.75
292.583	38.74
292.798	-24.75
293.012	42.84
293.227	-32.94
293.442	53.08
293.657	83.8
293.871	-2.22
294.086	16.21
294.301	175.95
294.516	36.69
294.73	51.03
294.945	-32.94
295.16	-32.94
295.374	16.21
295.589	26.45
295.804	18.26
296.018	-28.84
296.233	75.6
296.447	-18.6
296.662	38.74
296.877	46.93
297.091	28.5
297.306	28.5
297.52	32.6
297.735	-22.7
297.949	38.74
298.164	24.4
298.378	5.97
298.593	-63.66
298.807	12.12
299.022	-0.17
299.236	145.24
299.451	14.17
299.665	20.31
299.88	5.97
300.094	-34.99
300.309	14.17
300.523	83.8
300.737	55.12
300.952	34.64
301.166	67.41
301.381	22.36
301.595	-10.41
301.809	-34.99
302.024	24.4
302.238	69.46
302.452	-10.41
302.667	-2.22
302.881	40.79
303.095	-26.79
303.309	59.22
303.524	-45.23
303.738	22.36
303.952	-0.17
304.166	73.56
304.381	-22.7
304.595	96.08
304.809	-0.17
305.023	46.93
305.237	-4.27
305.452	-2.22
305.666	65.36
305.88	73.56
306.094	-10.41
306.308	30.55
306.522	-26.79
306.736	30.55
306.95	22.36
307.164	1.88
307.379	18.26
307.593	30.55
307.807	1.88
308.021	14.17
308.235	-12.46
308.449	75.6
308.663	24.4
308.877	81.75
309.091	96.08
309.305	16.21
309.519	53.08
309.733	-4.27
309.947	-18.6
310.161	26.45
310.374	-37.03
310.588	46.93
310.802	28.5
311.016	-47.27
311.23	26.45
311.444	59.22
311.658	-0.17
311.872	53.08
312.085	98.13
312.299	75.6
312.513	51.03
312.727	67.41
312.941	36.69
313.154	12.12
313.368	-6.31
313.582	32.6
313.796	10.07
314.009	63.32
314.223	122.71
314.437	-43.18
314.651	63.32
314.864	34.64
315.078	3.93
315.292	16.21
315.505	-69.8
315.719	48.98
315.933	22.36
316.146	22.36
316.36	-6.31
316.573	94.04
316.787	42.84
317.001	77.65
317.214	-37.03
317.428	69.46
317.641	14.17
317.855	53.08
318.068	59.22
318.282	-45.23
318.495	83.8
318.709	112.47
318.922	-2.22
319.136	48.98
319.349	22.36
319.563	51.03
319.776	-2.22
319.99	-39.08
320.203	71.51
320.417	-10.41
320.63	69.46
320.843	75.6
321.057	10.07
321.27	28.5
321.483	38.74
321.697	104.28
321.91	-22.7
322.124	91.99
322.337	14.17
322.55	32.6
322.763	-16.55
322.977	-6.31
323.19	22.36
323.403	-18.6
323.617	5.97
323.83	30.55
324.043	32.6
324.256	5.97
324.469	38.74
324.683	118.61
324.896	42.84
325.109	24.4
325.322	-14.51
325.535	18.26
325.748	126.8
325.962	-22.7
326.175	-8.36
326.388	10.07
326.601	-14.51
326.814	98.13
327.027	53.08
327.24	67.41
327.453	-10.41
327.666	110.42
327.879	59.22
328.092	14.17
328.305	-6.31
328.518	-12.46
328.731	-4.27
328.944	-18.6
329.157	18.26
329.37	-2.22
329.583	67.41
329.796	34.64
330.009	-41.13
330.222	22.36
330.435	-2.22
330.648	63.32
330.861	46.93
331.073	57.17
331.286	8.02
331.499	53.08
331.712	-34.99
331.925	28.5
332.138	-4.27
332.35	30.55
332.563	-8.36
332.776	57.17
332.989	-37.03
333.202	85.84
333.414	36.69
333.627	30.55
333.84	-4.27
334.053	36.69
334.265	24.4
334.478	59.22
334.691	-22.7
334.903	63.32
335.116	-26.79
335.329	38.74
335.541	22.36
335.754	124.76
335.966	10.07
336.179	59.22
336.392	16.21
336.604	51.03
336.817	89.94
337.029	42.84
337.242	-49.32
337.454	26.45
337.667	124.76
337.88	100.18
338.092	124.76
338.305	83.8
338.517	40.79
338.729	96.08
338.942	73.56
339.154	12.12
339.367	67.41
339.579	46.93
339.792	5.97
340.004	38.74
340.217	48.98
340.429	30.55
340.641	-0.17
340.854	-4.27
341.066	55.12
341.278	91.99
341.491	79.7
341.703	28.5
341.915	48.98
342.128	24.4
342.34	14.17
342.552	40.79
342.764	5.97
342.977	57.17
343.189	20.31
343.401	-0.17
343.613	22.36
343.826	8.02
344.038	-51.37
344.25	116.56
344.462	18.26
344.674	32.6
344.886	116.56
345.099	53.08
345.311	26.45
345.523	73.56
345.735	26.45
345.947	83.8
346.159	59.22
346.371	83.8
346.583	-4.27
346.795	36.69
347.007	12.12
347.219	61.27
347.431	94.04
347.643	-6.31
347.855	-51.37
348.067	96.08
348.279	-24.75
348.491	75.6
348.703	102.23
348.915	-10.41
349.127	77.65
349.339	44.88
349.551	-2.22
349.763	44.88
349.975	-0.17
350.187	73.56
350.399	53.08
350.61	46.93
350.822	44.88
351.034	59.22
351.246	24.4
351.458	-12.46
351.669	38.74
351.881	120.66
352.093	98.13
352.305	20.31
352.517	51.03
352.728	32.6
352.94	48.98
353.152	-88.23
353.363	10.07
353.575	-4.27
353.787	42.84
353.999	65.36
354.21	38.74
354.422	10.07
354.633	57.17
354.845	34.64
355.057	24.4
355.268	73.56
355.48	94.04
355.692	-0.17
355.903	32.6
356.115	5.97
356.326	1.88
356.538	81.75
356.749	102.23
356.961	34.64
357.172	36.69
357.384	65.36
357.595	18.26
357.807	63.32
358.018	38.74
358.23	-2.22
358.441	69.46
358.653	89.94
358.864	32.6
359.075	61.27
359.287	-14.51
359.498	46.93
359.709	-10.41
359.921	42.84
360.132	32.6
360.344	73.56
360.555	55.12
360.766	-28.84
360.977	40.79
361.189	55.12
361.4	81.75
361.611	-2.22
361.823	83.8
362.034	30.55
362.245	14.17
362.456	34.64
362.667	38.74
362.879	-30.89
363.09	26.45
363.301	24.4
363.512	34.64
363.723	38.74
363.935	26.45
364.146	44.88
364.357	-24.75
364.568	94.04
364.779	20.31
364.99	36.69
365.201	55.12
365.412	128.85
365.623	48.98
365.834	-10.41
366.045	48.98
366.256	46.93
366.467	44.88
366.678	12.12
366.889	-10.41
367.1	32.6
367.311	-2.22
367.522	-22.7
367.733	20.31
367.944	10.07
368.155	-22.7
368.366	40.79
368.577	71.51
368.788	32.6
368.999	36.69
369.209	51.03
369.42	104.28
369.631	53.08
369.842	22.36
370.053	14.17
370.264	18.26
370.474	-2.22
370.685	-10.41
370.896	40.79
371.107	38.74
371.317	5.97
371.528	-14.51
371.739	124.76
371.95	-14.51
372.16	40.79
372.371	10.07
372.582	32.6
372.792	-4.27
373.003	20.31
373.214	-8.36
373.424	34.64
373.635	18.26
373.846	30.55
374.056	38.74
374.267	51.03
374.477	8.02
374.688	87.89
374.898	22.36
375.109	61.27
375.319	14.17
375.53	114.52
375.74	71.51
375.951	1.88
376.161	28.5
376.372	36.69
376.582	30.55
376.793	141.14
377.003	-32.94
377.214	5.97
377.424	79.7
377.635	40.79
377.845	67.41
378.055	87.89
378.266	-26.79
378.476	96.08
378.686	34.64
378.897	96.08
379.107	8.02
379.317	79.7
379.528	75.6
379.738	32.6
379.948	-47.27
380.158	55.12
380.369	14.17
380.579	16.21
380.789	-22.7
380.999	38.74
381.21	20.31
381.42	85.84
381.63	85.84
381.84	67.41
382.05	51.03
382.261	-0.17
382.471	77.65
382.681	42.84
382.891	20.31
383.101	77.65
383.311	81.75
383.521	61.27
383.731	16.21
383.941	1.88
384.151	5.97
384.361	10.07
384.571	10.07
384.781	-41.13
384.991	87.89
385.201	51.03
385.411	34.64
385.621	1.88
385.831	-12.46
386.041	14.17
386.251	30.55
386.461	28.5
386.671	26.45
386.881	32.6
387.091	40.79
387.301	87.89
387.511	55.12
387.72	87.89
387.93	106.32
388.14	-10.41
388.35	51.03
388.56	104.28
388.769	36.69
388.979	30.55
389.189	110.42
389.399	67.41
389.609	61.27
389.818	55.12
390.028	57.17
390.238	22.36
390.447	38.74
390.657	-26.79
390.867	-24.75
391.076	32.6
391.286	32.6
391.496	89.94
391.705	-20.65
391.915	83.8
392.125	71.51
392.334	5.97
392.544	114.52
392.753	-4.27
392.963	59.22
393.172	5.97
393.382	112.47
393.591	87.89
393.801	122.71
394.01	100.18
394.22	71.51
394.429	120.66
394.639	48.98
394.848	71.51
395.058	55.12
395.267	59.22
395.477	-10.41
395.686	75.6
395.895	67.41
396.105	81.75
396.314	141.14
396.524	16.21
396.733	85.84
396.942	46.93
397.152	79.7
397.361	139.09
397.57	40.79
397.78	67.41
397.989	135
398.198	75.6
398.407	20.31
398.617	79.7
398.826	77.65
399.035	-4.27
399.244	85.84
399.453	75.6
399.663	42.84
399.872	34.64
400.081	106.32
400.29	75.6
400.499	114.52
400.708	34.64
400.917	57.17
401.127	118.61
401.336	69.46
401.545	108.37
401.754	96.08
401.963	167.76
402.172	169.81
402.381	192.34
402.59	20.31
402.799	91.99
403.008	46.93
403.217	112.47
403.426	94.04
403.635	83.8
403.844	120.66
404.053	141.14
404.262	126.8
404.471	202.58
404.68	128.85
404.888	102.23
405.097	102.23
405.306	91.99
405.515	143.19
405.724	89.94
405.933	143.19
406.142	135
406.35	141.14
406.559	149.33
406.768	157.52
406.977	182.1
407.185	178
407.394	225.11
407.603	184.15
407.812	171.86
408.02	124.76
408.229	180.05
408.438	149.33
408.646	116.56
408.855	178
409.064	218.96
409.272	173.91
409.481	184.15
409.69	194.39
409.898	214.87
410.107	196.43
410.315	233.3
410.524	317.26
410.733	241.49
410.941	243.54
411.15	171.86
411.358	307.02
411.567	327.5
411.775	272.21
411.984	268.11
412.192	360.27
412.401	272.21
412.609	374.61
412.818	358.22
413.026	335.7
413.234	374.61
413.443	390.99
413.651	317.26
413.86	413.52
414.068	431.95
414.276	436.05
414.485	470.86
414.693	526.16
414.901	530.25
415.11	575.31
415.318	460.62
415.526	579.4
415.734	591.69
415.943	595.79
416.151	634.7
416.359	618.32
416.567	726.86
416.776	661.32
416.984	677.71
417.192	712.52
417.4	712.52
417.608	757.58
417.817	782.15
418.025	866.12
418.233	943.94
418.441	884.55
418.649	894.79
418.857	925.51
419.065	999.24
419.273	986.95
419.481	1038.15
419.689	1091.4
419.897	1167.17
420.105	1091.4
420.313	1169.22
420.521	1283.91
420.729	1208.13
420.937	1269.57
421.145	1261.38
421.353	1455.94
421.561	1382.21
421.769	1451.84
421.977	1541.95
422.185	1531.71
422.393	1623.87
422.601	1752.89
422.809	1802.04
423.017	1752.89
423.224	1689.4
423.432	1879.86
423.64	1761.08
423.848	2002.74
424.056	1984.31
424.263	2252.59
424.471	2195.25
424.679	2215.73
424.887	2262.83
425.094	2428.72
425.302	2416.43
425.51	2498.35
425.718	2584.37
425.925	2631.47
426.133	2563.89
426.341	2879.27
426.548	3016.49
426.756	2903.85
426.964	2903.85
427.171	3147.56
427.379	3174.18
427.586	3325.73
427.794	3372.83
428.001	3520.29
428.209	3692.32
428.417	3520.29
428.624	3807
428.832	3925.79
429.039	3925.79
429.247	3870.49
429.454	4232.98
429.662	4714.25
429.869	4263.7
430.076	4568.85
430.284	4521.74
430.491	4587.28
430.699	4808.46
430.906	4943.63
431.114	5033.74
431.321	5244.68
431.528	5213.96
431.736	5633.79
431.943	5912.32
432.15	5662.46
432.358	5646.08
432.565	6145.78
432.772	5986.04
432.979	6502.13
433.187	6291.19
433.394	6520.56
433.601	6780.65
433.808	6987.5
434.016	6821.61
434.223	7124.71
434.43	7802.59
434.637	7569.12
434.844	7896.8
435.052	8152.79
435.259	8074.97
435.466	8206.04
435.673	8136.41
435.88	8599.25
436.087	9217.74
436.294	9123.53
436.501	8847.05
436.708	9064.14
436.915	9266.89
437.122	9660.1
437.329	9680.58
437.537	9877.18
437.743	10518.2
437.95	10098.36
438.157	10598.07
438.364	11194.03
438.571	10579.64
438.778	11159.21
438.985	12113.56
439.192	11652.77
439.399	11845.28
439.606	11597.48
439.813	12166.81
440.02	12859.03
440.227	12836.5
440.433	12850.83
440.64	13422.22
440.847	12953.23
441.054	13524.61
441.261	14341.75
441.467	14270.08
441.674	14179.96
441.881	14950
442.088	14941.81
442.294	14923.38
442.501	15255.15
442.708	15365.74
442.914	16088.67
443.121	16674.39
443.328	16016.99
443.534	17544.78
443.741	16954.96
443.948	16655.96
444.154	17841.73
444.361	17874.5
444.568	18118.21
444.774	18163.26
444.981	18185.79
445.187	18736.7
445.394	19559.98
445.6	19093.04
445.807	21050.9
446.013	20287.01
446.22	20358.69
446.426	21089.81
446.633	21749.26
446.839	22287.87
447.046	21073.43
447.252	22480.38
447.459	22504.96
447.665	22459.9
447.871	23614.96
448.078	24442.34
448.284	23014.9
448.491	24124.9
448.697	24770.01
448.903	25173.46
449.11	25275.86
449.316	24741.34
449.522	25239
449.728	26080.71
449.935	26209.73
450.141	25968.07
450.347	26934.71
450.553	25978.31
450.76	26314.18
450.966	27233.72
451.172	26791.36
451.378	27272.63
451.584	26774.97
451.791	27618.74
451.997	27211.19
452.203	27973.03
452.409	27934.12
452.615	27600.3
452.821	26643.9
453.027	26408.39
453.233	27833.77
453.44	26484.16
453.646	26506.69
453.852	27125.18
454.058	27452.85
454.264	26387.91
454.47	27270.58
454.676	26607.04
454.882	27256.25
455.088	24980.95
455.294	25454.03
455.5	25630.16
455.705	26043.85
455.911	24722.91
456.117	24546.78
456.323	23926.25
456.529	22887.93
456.735	23535.09
456.941	23338.48
457.147	22719.99
457.352	21972.49
457.558	21954.05
457.764	21806.6
457.97	21663.24
458.176	21227.03
458.381	21143.06
458.587	20006.44
458.793	19908.13
458.999	18914.87
459.204	20258.34
459.41	19750.44
459.616	18427.45
459.821	18343.49
460.027	18290.24
460.233	17946.18
460.438	17393.23
460.644	17636.94
460.85	16662.1
461.055	16377.44
461.261	16236.13
461.466	14939.76
461.672	14839.41
461.878	15765.09
462.083	14769.78
462.289	14411.39
462.494	14253.69
462.7	13516.42
462.905	13153.93
463.111	13627.01
463.316	13782.66
463.522	13506.18
463.727	13424.26
463.932	13350.54
464.138	13356.68
464.343	13325.96
464.549	13166.22
464.754	13616.77
464.959	13155.98
465.165	13168.27
465.37	12652.18
465.575	12437.14
465.781	12482.2
465.986	13121.17
466.191	12351.13
466.397	12289.69
466.602	11511.46
466.807	12134.04
467.012	12238.49
467.218	12033.69
467.423	11878.05
467.628	12162.72
467.833	12490.39
468.038	11941.54
468.244	11552.42
468.449	12285.59
468.654	11693.73
468.859	11536.04
469.064	11646.63
469.269	11056.81
469.474	11308.71
469.679	11654.82
469.885	11275.95
470.09	11232.94
470.295	11060.91
470.5	10839.73
470.705	11239.08
470.91	10815.15
471.115	10614.45
471.32	10886.83
471.525	10679.99
471.73	10409.65
471.935	10438.33
472.139	10032.83
472.344	10333.88
472.549	10266.3
472.754	10022.59
472.959	9834.18
473.164	9737.92
473.369	9608.9
473.574	9862.85
473.778	9557.7
473.983	9676.48
474.188	9473.73
474.393	9121.48
474.598	9293.51
474.802	9250.5
475.007	9125.58
475.212	9158.35
475.417	8851.15
475.621	8572.63
475.826	8918.73
476.031	8287.96
476.235	8509.14
476.44	8601.3
476.645	8562.39
476.849	8548.05
477.054	8343.25
477.259	8400.6
477.463	8193.75
477.668	8054.49
477.872	8160.98
478.077	8160.98
478.282	7763.68
478.486	7976.67
478.691	7937.76
478.895	7753.44
479.1	7737.06
479.304	7730.91
479.509	7421.67
479.713	7671.52
479.918	7524.07
480.122	7218.92
480.326	7433.96
480.531	7397.09
480.735	7175.91
480.94	7184.1
481.144	7356.13
481.348	7182.06
481.553	7229.16
481.757	7149.29
481.961	7214.82
482.166	7276.26
482.37	7155.43
482.574	6983.4
482.778	7057.13
482.983	7290.6
483.187	7085.8
483.391	7188.2
483.595	7079.66
483.8	7108.33
484.004	7220.97
484.208	7225.06
484.412	7114.47
484.616	7155.43
484.821	7151.34
485.025	7186.15
485.229	7231.21
485.433	7349.99
485.637	6989.55
485.841	7288.55
486.045	7030.51
486.249	7339.75
486.453	7073.51
486.657	7180.01
486.861	7083.75
487.065	6987.5
487.269	7128.81
487.473	6985.45
487.677	7114.47
487.881	7188.2
488.085	7112.42
488.289	7292.65
488.493	7184.1
488.697	7208.68
488.901	7048.94
489.105	7005.93
489.309	7292.65
489.512	7151.34
489.716	7378.66
489.92	7382.76
490.124	7128.81
490.328	7487.2
490.531	7270.12
490.735	7311.08
490.939	7503.59
491.143	7362.28
491.346	7323.37
491.55	7393
491.754	7378.66
491.958	7538.4
492.161	7530.21
492.365	7751.39
492.569	7720.67
492.772	7575.27
492.976	7798.49
493.18	7800.54
493.383	7804.64
493.587	7874.27
493.79	7894.75
493.994	7851.74
494.197	7939.8
494.401	7962.33
494.605	7800.54
494.808	8077.02
495.012	8019.67
495.215	7978.72
495.419	8203.99
495.622	8251.1
495.825	8363.73
496.029	8187.61
496.232	8541.91
496.436	8591.06
496.639	8679.12
496.843	8845.01
497.046	9047.76
497.249	9096.91
497.453	8980.17
497.656	8926.93
497.859	9105.1
498.063	9070.28
498.266	9440.97
498.469	9385.67
498.673	9537.22
498.876	9588.42
499.079	9674.43
499.282	9887.42
499.485	9912
499.689	10161.85
499.892	10077.88
500.095	10225.34
500.298	10450.61
500.501	10327.74
500.705	10507.96
500.908	10849.97
501.111	10829.49
501.314	10835.63
501.517	10933.93
501.72	11022
501.923	10944.17
502.126	11409.06
502.329	11531.94
502.532	11730.59
502.735	11654.82
502.938	11949.73
503.141	12293.79
503.344	12228.25
503.547	12318.36
503.75	12424.86
503.953	12695.19
504.156	12715.67
504.359	12725.91
504.562	12856.98
504.765	13307.53
504.968	13016.72
505.17	13452.94
505.373	13469.32
505.576	13807.23
505.779	13772.42
505.982	13979.26
506.185	14431.87
506.387	13919.87
506.59	14450.3
506.793	14651
506.996	14493.3
507.198	14814.84
507.401	15040.11
507.604	15101.55
507.807	15425.13
508.009	15234.67
508.212	15578.73
508.415	15750.76
508.617	15926.88
508.82	16092.77
509.022	16135.78
509.225	16492.12
509.428	16516.7
509.63	16660.06
509.833	16688.73
510.035	17008.21
510.238	17186.38
510.44	17225.29
510.643	17591.88
510.845	17569.35
511.048	17690.18
511.25	18241.09
511.453	18249.28
511.655	18810.42
511.858	18505.27
512.06	18748.98
512.262	19099.19
512.465	18906.68
512.667	19392.05
512.87	19746.34
513.072	19574.31
513.274	20000.29
513.477	20231.71
513.679	20053.54
513.881	20622.87
514.084	20727.32
514.286	20622.87
514.488	20854.3
514.69	21610
514.893	21528.08
515.095	21526.03
515.297	22062.6
515.499	22263.3
515.701	22367.74
515.904	22631.93
516.106	22597.12
516.308	22765.05
516.51	22965.75
516.712	23105.01
516.914	23266.8
517.116	23817.71
517.318	23856.62
517.52	24184.29
517.722	23942.63
517.925	24251.88
518.127	24780.25
518.329	25044.44
518.531	24903.13
518.733	25456.08
518.935	25451.98
519.136	25345.49
519.338	25984.46
519.54	25963.98
519.742	26297.8
519.944	26621.38
520.146	26764.73
520.348	27059.64
520.55	27026.87
520.752	26949.05
520.954	27776.43
521.155	27561.39
521.357	27956.65
521.559	28345.76
521.761	28777.89
521.963	28667.3
522.164	28579.23
522.366	28806.56
522.568	29371.8
522.77	29396.37
522.971	29638.03
523.173	29715.86
523.375	29834.64
523.576	29949.32
523.778	30162.31
523.98	30702.98
524.181	30637.44
524.383	30625.15
524.584	30954.88
524.786	31024.51
524.988	30950.78
525.189	31772.02
525.391	31790.45
525.592	31761.78
525.794	31944.05
525.995	32159.08
526.197	31999.34
526.398	32468.33
526.6	32324.97
526.801	32288.1
527.003	32791.9
527.204	32630.12
527.406	33047.9
527.607	33021.28
527.808	33125.72
528.01	32738.66
528.211	33115.48
528.412	33549.65
528.614	33717.59
528.815	33789.27
529.016	34200.91
529.218	33672.53
529.419	34051.41
529.62	34032.97
529.822	33865.04
530.023	34028.88
530.224	34264.39
530.425	34420.04
530.626	34241.87
530.828	34069.84
531.029	34903.36
531.23	34649.41
531.431	34618.69
531.632	34538.82
531.833	34485.58
532.035	34764.1
532.236	34796.87
532.437	35159.36
532.638	34762.05
532.839	35048.77
533.04	35001.66
533.241	34848.07
533.442	35194.17
533.643	35353.91
533.844	34946.37
534.045	35382.59
534.246	35145.02
534.447	35419.45
534.648	35001.66
534.849	35327.29
535.05	35290.43
535.251	35472.7
535.451	35046.72
535.652	35165.5
535.853	35282.23
536.054	35196.22
536.255	35444.02
536.456	35044.67
536.657	35761.46
536.857	35439.93
537.058	35200.32
537.259	35609.91
537.46	35583.29
537.66	35573.05
537.861	35720.5
538.062	35296.57
538.263	35585.33
538.463	35366.2
538.664	35288.38
538.865	35757.36
539.065	35700.02
539.266	35706.16
539.466	35603.77
539.667	35077.44
539.868	36164.91
540.068	35462.46
540.269	35560.76
540.469	35601.72
540.67	35278.14
540.87	35433.78
541.071	35609.91
541.271	35757.36
541.472	35607.86
541.672	35368.25
541.873	35423.54
542.073	35097.92
542.274	35820.85
542.474	35607.86
542.675	35269.95
542.875	35568.95
543.075	35370.3
543.276	35138.88
543.476	35538.23
543.676	35523.9
543.877	35675.44
544.077	35478.84
544.277	35474.74
544.478	35704.12
544.678	35556.66
544.878	35175.74
545.078	35599.67
545.279	34852.16
545.479	35892.53
545.679	35708.21
545.879	35245.37
546.079	35898.67
546.28	35120.45
546.48	35321.15
546.68	35489.08
546.88	35495.22
547.08	35360.06
547.28	35497.27
547.48	35249.47
547.68	35558.71
547.88	35177.79
548.081	35800.37
548.281	35431.74
548.481	35343.67
548.681	35437.88
548.881	35591.48
549.081	35509.56
549.28	35120.45
549.48	35228.99
549.68	35366.2
549.88	35876.15
550.08	34950.46
550.28	35564.85
550.48	35183.93
550.68	35095.87
550.88	35274.04
551.08	35183.93
551.279	35396.92
551.479	35011.9
551.679	35415.35
551.879	35220.8
552.079	35788.08
552.278	34872.64
552.478	35343.67
552.678	35636.53
552.878	35368.25
553.077	35083.58
553.277	34862.4
553.477	35783.99
553.676	35069.25
553.876	35102.01
554.076	35185.98
554.275	34630.98
554.475	34561.35
554.674	35267.9
554.874	35296.57
555.074	34811.2
555.273	35011.9
555.473	35028.29
555.672	34852.16
555.872	34889.02
556.071	34895.17
556.271	34948.42
556.47	34897.22
556.67	34479.43
556.869	34692.42
557.068	35114.3
557.268	34504.01
557.467	34510.15
557.667	34385.22
557.866	34354.51
558.065	34397.51
558.265	34213.2
558.464	33774.93
558.663	34682.18
558.863	34016.59
559.062	35003.71
559.261	33916.24
559.461	34886.98
559.66	34020.69
559.859	34571.59
560.058	33631.57
560.258	33940.82
560.457	34153.8
560.656	34225.48
560.855	33840.46
561.054	33996.11
561.253	33582.42
561.453	33903.95
561.652	33998.16
561.851	34051.41
562.05	33850.7
562.249	33508.69
562.448	33660.24
562.647	33488.21
562.846	33394.01
563.045	33525.08
563.244	33060.19
563.443	33684.82
563.642	33084.76
563.841	32972.13
564.04	33004.89
564.239	32951.65
564.438	32892.26
564.637	33201.5
564.836	32789.86
565.035	32621.92
565.234	32982.37
565.432	32769.38
565.631	32648.55
565.83	32732.51
566.029	32345.45
566.228	32230.76
566.427	32292.2
566.625	32482.66
566.824	31784.3
567.023	32314.73
567.222	31642.99
567.42	32372.07
567.619	31784.3
567.818	32095.6
568.016	31913.33
568.215	32034.16
568.414	31710.58
568.612	31995.25
568.811	31532.4
569.01	31636.85
569.208	31411.57
569.407	31579.51
569.605	31131
569.804	31581.56
570.002	30903.68
570.201	31458.68
570.4	31020.41
570.598	30371.21
570.797	30928.25
570.995	30885.25
571.193	30625.15
571.392	30989.69
571.59	30293.38
571.789	30477.7
571.987	30555.52
572.186	30657.92
572.384	29967.76
572.582	30535.04
572.781	30578.05
572.979	30068.11
573.177	30029.2
573.376	30336.39
573.574	30064.01
573.772	30086.54
573.971	29578.64
574.169	29875.6
574.367	29638.03
574.565	29824.4
574.763	29363.61
574.962	29441.43
575.16	29177.24
575.358	29328.79
575.556	28896.67
575.754	29932.94
575.952	28900.76
576.151	29336.98
576.349	28884.38
576.547	28763.55
576.745	28759.45
576.943	29009.31
577.141	28949.92
577.339	28786.08
577.537	28655.01
577.735	28446.12
577.933	28499.36
578.131	28353.96
578.329	28339.62
578.527	28063.15
578.725	28159.4
578.923	28310.95
579.121	27880.88
579.319	27940.27
579.516	27981.23
579.714	27997.61
579.912	27856.3
580.11	27778.48
580.308	27944.36
580.506	27538.87
580.704	27151.8
580.901	27839.92
581.099	27694.51
581.297	27110.84
581.495	26942.91
581.692	27764.14
581.89	27268.53
582.088	27209.14
582.285	27000.25
582.483	27012.54
582.681	26983.87
582.878	26930.62
583.076	26443.2
583.274	27121.08
583.471	26596.8
583.669	26764.73
583.866	26174.92
584.064	26828.22
584.262	26260.93
584.459	26510.78
584.657	26424.77
584.854	26453.44
585.052	25861.58
585.249	26093
585.447	26025.42
585.644	25615.82
585.841	25818.57
586.039	25968.07
586.236	25728.46
586.434	25683.41
586.631	25345.49
586.828	25771.47
587.026	25404.88
587.223	25787.85
587.42	25019.86
587.618	25226.71
587.815	25155.03
588.012	25355.73
588.21	24964.57
588.407	25171.41
588.604	25122.26
588.801	24698.33
588.999	24821.21
589.196	24765.92
589.393	24618.46
589.59	24704.48
589.787	24618.46
589.984	24284.64
590.182	24364.51
590.379	24616.41
590.576	24315.36
590.773	24391.14
590.97	24147.43
591.167	24221.16
591.364	24126.95
591.561	24194.53
591.758	23873
591.955	23776.75
592.152	24229.35
592.349	23303.67
592.546	23782.89
592.743	23637.48
592.94	23455.22
593.137	23418.35
593.334	23356.91
593.531	22803.96
593.727	23467.5
593.924	23234.03
594.121	23141.88
594.318	23268.85
594.515	22957.56
594.712	23008.76
594.908	22971.89
595.105	22963.7
595.302	22435.33
595.499	23115.25
595.696	22871.54
595.892	22451.71
596.089	22756.86
596.286	22418.94
596.482	22353.41
596.679	22187.52
596.876	22251.01
597.072	22326.78
597.269	22578.68
597.466	21925.38
597.662	21933.57
597.859	21956.1
598.055	21995.01
598.252	22007.3
598.448	21851.66
598.645	21558.8
598.841	21448.21
599.038	21704.2
599.234	21720.59
599.431	21321.23
599.627	21321.23
599.824	21233.17
600.02	21437.97
600.217	21347.86
600.413	21358.1
600.609	21132.82
600.806	21210.64
601.002	21014.04
601.198	21165.59
601.395	20936.21
601.591	20860.44
601.787	20790.81
601.984	20629.02
602.18	21018.13
602.376	20594.2
602.572	20487.71
602.769	20706.84
602.965	20418.08
603.161	20272.67
603.357	20514.33
603.553	20559.39
603.75	20262.43
603.946	19951.14
604.142	20241.95
604.338	19840.55
604.534	20039.2
604.73	19721.77
604.926	19920.42
605.122	19801.64
605.318	19564.07
605.514	19703.34
605.71	19703.34
605.906	19713.58
606.102	19623.47
606.298	19476.01
606.494	19523.12
606.69	19650.09
606.886	19494.44
607.082	19224.11
607.278	19289.65
607.474	18929.2
607.67	19117.62
607.866	19131.95
608.062	19308.08
608.257	19086.9
608.453	19123.76
608.649	19136.05
608.845	18998.84
609.041	18789.94
609.236	19031.6
609.432	18648.63
609.628	19000.88
609.824	18781.75
610.019	18648.63
610.215	18617.91
610.411	18568.76
610.606	18507.32
610.802	18589.24
610.998	18599.48
611.193	18503.23
611.389	18529.85
611.584	18499.13
611.78	18411.07
611.976	18687.54
612.171	18349.63
612.367	18286.14
612.562	18060.87
612.758	18306.62
612.953	18302.53
613.149	18167.36
613.344	17952.32
613.539	18306.62
613.735	18083.39
613.93	18153.02
614.126	17806.92
614.321	18269.76
614.517	18013.76
614.712	17856.07
614.907	17737.29
615.103	18239.04
615.298	18026.05
615.493	17968.71
615.688	17684.04
615.884	18138.69
616.079	17653.32
616.274	17880.64
616.47	17716.81
616.665	17651.27
616.86	17446.48
617.055	17579.59
617.25	17350.22
617.445	17802.82
617.641	17542.73
617.836	17718.85
618.031	17116.75
618.226	17512.01
618.421	16997.97
618.616	17368.65
618.811	16924.24
619.006	17380.94
619.201	16531.03
619.396	16928.34
619.591	16940.63
619.786	16981.59
619.981	16445.02
620.176	16713.3
620.371	16418.39
620.566	17045.07
620.761	16565.85
620.956	16875.09
621.151	16283.23
621.346	16502.36
621.541	16045.66
621.735	16211.55
621.93	15945.31
622.125	16055.9
622.32	16025.18
622.515	16055.9
622.709	15857.25
622.904	16080.48
623.099	15552.1
623.294	15875.68
623.488	15431.27
623.683	15644.26
623.878	15466.09
624.072	15251.05
624.267	15373.93
624.462	15283.82
624.656	14823.03
624.851	15212.14
625.046	15101.55
625.24	14722.68
625.435	14792.31
625.629	14794.36
625.824	14681.72
626.018	14651
626.213	14378.62
626.407	14460.54
626.602	14286.46
626.796	14257.79
626.991	14177.92
627.185	14022.27
627.38	14286.46
627.574	14007.94
627.768	13805.19
627.963	13698.69
628.157	13717.12
628.352	13975.17
628.546	13387.4
628.74	13586.05
628.935	13565.57
629.129	13221.52
629.323	13287.05
629.517	13356.68
629.712	13278.86
629.906	13303.43
630.1	13094.54
630.294	12957.33
630.489	12924.56
630.683	13065.87
630.877	12707.48
631.071	12820.11
631.265	12750.48
631.459	12545.69
631.653	12643.99
631.848	12596.89
632.042	12494.49
632.236	12347.03
632.43	12400.28
632.624	12375.7
632.818	12218.01
633.012	12150.43
633.206	12043.93
633.4	12043.93
633.594	11724.45
633.788	12068.51
633.982	11996.83
634.176	12052.13
634.369	11871.9
634.563	11617.96
634.757	11683.49
634.951	11663.01
635.145	11488.93
635.339	11605.67
635.533	11361.96
635.726	11372.2
635.92	11214.51
636.114	11155.12
636.308	11196.07
636.501	11050.67
636.695	11151.02
636.889	11017.9
637.083	10884.78
637.276	10880.69
637.47	10856.11
637.664	10587.83
637.857	10852.02
638.051	10870.45
638.244	10626.74
638.438	10485.43
638.632	10571.44
638.825	10364.6
639.019	10452.66
639.212	10137.27
639.406	10434.23
639.599	10380.98
639.793	10270.39
639.986	9961.15
640.18	10081.98
640.373	9891.52
640.567	10081.98
640.76	9926.33
640.954	10036.92
641.147	9686.72
641.34	9598.66
641.534	9748.16
641.727	9694.91
641.92	9766.59
642.114	9524.93
642.307	9746.11
642.5	9688.77
642.694	9455.3
642.887	9414.34
643.08	9467.59
643.273	9148.11
643.467	9334.47
643.66	9299.66
643.853	9111.24
644.046	9094.86
644.239	9141.96
644.432	9023.18
644.626	9014.99
644.819	9094.86
645.012	8769.23
645.205	9086.67
645.398	8810.19
645.591	8816.33
645.784	8677.07
645.977	8693.46
646.17	8713.94
646.363	8652.5
646.556	8459.99
646.749	8496.85
646.942	8439.51
647.135	8529.62
647.328	8335.06
647.521	8263.38
647.714	8257.24
647.907	8255.19
648.099	8249.05
648.292	8290.01
648.485	8146.65
648.678	8087.26
648.871	8015.58
649.064	8009.44
649.256	7956.19
649.449	7902.94
649.642	7755.49
649.835	7583.46
650.027	7775.97
650.22	7765.73
650.413	7829.21
650.605	7442.15
650.798	7755.49
650.991	7464.68
651.183	7603.94
651.376	7581.41
651.568	7620.32
651.761	7476.96
651.954	7335.65
652.146	7423.72
652.339	7331.56
652.531	7358.18
652.724	7263.97
652.916	7100.14
653.109	7147.24
653.301	7202.54
653.494	7194.34
653.686	6983.4
653.879	6979.31
654.071	6969.07
654.263	6934.25
654.456	6901.48
654.648	7085.8
654.84	6813.42
655.033	6901.48
655.225	6663.92
655.417	6833.9
655.61	6725.36
655.802	6866.67
655.994	6803.18
656.186	6713.07
656.379	6829.81
656.571	6571.76
656.763	6434.55
656.955	6514.42
657.148	6569.71
657.34	6495.99
657.532	6358.77
657.724	6477.55
657.916	6383.35
658.108	6305.53
658.3	6438.64
658.492	6311.67
658.684	6205.17
658.876	6225.65
659.068	6119.16
659.26	6135.54
659.452	6211.32
659.644	6201.08
659.836	6166.26
660.028	5961.47
660.22	5914.36
660.412	6047.48
660.604	5924.6
660.796	5994.23
660.988	5940.99
661.18	5836.54
661.372	5785.34
661.563	5824.25
661.755	5838.59
661.947	5822.2
662.139	5676.8
662.331	5625.6
662.522	5482.24
662.714	5465.86
662.906	5631.74
663.097	5613.31
663.289	5564.16
663.481	5508.87
663.673	5371.65
663.864	5484.29
664.056	5406.47
664.247	5220.1
664.439	5238.53
664.631	5312.26
664.822	5367.56
665.014	5299.97
665.205	5402.37
665.397	5109.51
665.588	5218.05
665.78	5109.51
665.971	5160.71
666.163	5265.16
666.354	5103.37
666.546	5191.43
666.737	5093.13
666.929	5230.34
667.12	5117.7
667.311	5003.02
667.503	5003.02
667.694	5029.64
667.885	4935.43
668.077	4923.15
668.268	4960.01
668.459	4806.41
668.651	4804.36
668.842	4830.99
669.033	4740.88
669.224	4802.32
669.416	4933.39
669.607	4663.05
669.798	4820.75
669.989	4738.83
670.18	4695.82
670.371	4609.81
670.563	4689.68
670.754	4661.01
670.945	4513.55
671.136	4615.95
671.327	4581.14
671.518	4570.9
671.709	4681.49
671.9	4613.9
672.091	4402.96
672.282	4517.65
672.473	4368.15
672.664	4402.96
672.855	4230.93
673.046	4372.24
673.237	4480.78
673.428	4413.2
673.619	4390.67
673.809	4394.77
674	4368.15
674.191	4319
674.382	4241.17
674.573	4325.14
674.764	4212.5
674.954	4210.45
675.145	4157.21
675.336	4280.08
675.527	4101.91
675.717	4054.81
675.908	4179.73
676.099	4161.3
676.289	4120.34
676.48	4085.53
676.671	4106.01
676.861	4009.75
677.052	4056.86
677.243	3958.55
677.433	4007.7
677.624	4126.49
677.814	4044.57
678.005	4028.18
678.195	4032.28
678.386	3983.13
678.576	3981.08
678.767	3987.22
678.957	3874.59
679.148	3962.65
679.338	3880.73
679.529	3809.05
679.719	3907.35
679.909	4003.61
680.1	3927.83
680.29	3917.59
680.481	3905.31
680.671	3944.22
680.861	3858.2
681.052	3970.84
681.242	3964.7
681.432	3852.06
681.622	3696.41
681.813	3677.98
682.003	3854.11
682.193	3753.76
682.383	3880.73
682.573	3669.79
682.764	3774.24
682.954	3729.18
683.144	3817.24
683.334	3708.7
683.524	3819.29
683.714	3669.79
683.904	3675.93
684.094	3737.37
684.284	3573.53
684.474	3827.48
684.664	3788.57
684.854	3764
685.044	3587.87
685.234	3624.73
685.424	3733.28
685.614	3618.59
685.804	3596.06
685.994	3467.04
686.184	3649.31
686.374	3622.69
686.564	3452.7
686.753	3462.94
686.943	3512.1
687.133	3424.03
687.323	3467.04
687.513	3462.94
687.702	3464.99
687.892	3516.19
688.082	3444.51
688.272	3342.11
688.461	3428.13
688.651	3317.54
688.841	3399.46
689.03	3411.75
689.22	3299.11
689.41	3264.29
689.599	3397.41
689.789	3346.21
689.979	3286.82
690.168	3266.34
690.358	3145.51
690.547	3301.15
690.737	3239.72
690.926	3235.62
691.116	3299.11
691.305	3387.17
691.495	3221.28
691.684	3174.18
691.874	3202.85
692.063	3110.69
692.252	3229.48
692.442	3213.09
692.631	3016.49
692.82	3143.46
693.01	2934.57
693.199	3139.37
693.388	3053.35
693.578	3036.97
693.767	3012.39
693.956	3127.08
694.146	2977.58
694.335	3071.78
694.524	3012.39
694.713	2977.58
694.902	3022.63
695.092	2965.29
695.281	2891.56
695.47	2903.85
695.659	2959.14
695.848	2971.43
696.037	2838.31
696.226	2862.89
696.415	2873.13
696.604	2975.53
696.793	2805.55
696.982	3006.25
697.171	2942.76
697.36	2920.23
697.549	2881.32
697.738	2905.9
697.927	2772.78
698.116	2819.88
698.305	2838.31
698.494	2821.93
698.683	2889.51
698.872	2946.86
699.061	2826.03
699.25	2836.27
699.438	2877.23
699.627	2811.69
699.816	2766.64
700.005	2881.32
700.193	2807.59
700.382	2699.05
700.571	2795.31
700.76	2897.71
700.948	2752.3
701.137	2823.98
701.326	2813.74
701.514	2838.31
701.703	2629.42
701.892	2807.59
702.08	2852.65
702.269	2850.6
702.457	2854.7
702.646	2838.31
702.834	2658.09
703.023	2803.5
703.212	2756.4
703.4	2789.16
703.589	2606.89
703.777	2823.98
703.965	2828.07
704.154	2842.41
704.342	2678.57
704.531	2713.39
704.719	2651.95
704.907	2717.48
705.096	2709.29
705.284	2780.97
705.472	2694.96
705.661	2801.45
705.849	2811.69
706.037	2697
706.226	2762.54
706.414	2735.92
706.602	2651.95
706.79	2844.46
706.979	2791.21
707.167	2762.54
707.355	2658.09
707.543	2664.24
707.731	2799.4
707.919	2635.57
708.107	2672.43
708.296	2539.31
708.484	2707.24
708.672	2778.92
708.86	2625.33
709.048	2768.68
709.236	2770.73
709.424	2610.99
709.612	2600.75
709.8	2772.78
709.988	2713.39
710.176	2694.96
710.364	2633.52
710.551	2639.66
710.739	2557.74
710.927	2703.15
711.115	2580.27
711.303	2563.89
711.491	2676.52
711.679	2692.91
711.866	2582.32
712.054	2635.57
712.242	2621.23
712.43	2625.33
712.617	2467.63
712.805	2727.72
712.993	2621.23
713.181	2596.65
713.368	2674.48
713.556	2592.56
713.744	2578.22
713.931	2520.88
714.119	2567.98
714.306	2711.34
714.494	2567.98
714.682	2537.26
714.869	2477.87
715.057	2709.29
715.244	2567.98
715.432	2498.35
715.619	2488.11
715.807	2576.17
715.994	2522.93
716.182	2672.43
716.369	2580.27
716.556	2602.8
716.744	2666.28
716.931	2510.64
717.119	2551.6
717.306	2567.98
717.493	2510.64
717.681	2670.38
717.868	2541.36
718.055	2629.42
718.242	2608.94
718.43	2537.26
718.617	2512.69
718.804	2461.49
718.991	2516.78
719.179	2447.15
719.366	2506.54
719.553	2492.21
719.74	2574.13
719.927	2293.55
720.114	2447.15
720.301	2496.3
720.488	2533.17
720.676	2391.86
720.863	2506.54
721.05	2457.39
721.237	2473.78
721.424	2641.71
721.611	2486.06
721.798	2586.41
721.985	2377.52
722.172	2527.02
722.358	2414.38
722.545	2465.58
722.732	2506.54
722.919	2578.22
723.106	2438.96
723.293	2400.05
723.48	2357.04
723.667	2354.99
723.853	2434.86
724.04	2381.62
724.227	2445.1
724.414	2402.1
724.6	2408.24
724.787	2455.34
724.974	2461.49
725.161	2422.58
725.347	2381.62
725.534	2314.03
725.72	2404.14
725.907	2395.95
726.094	2455.34
726.28	2326.32
726.467	2340.66
726.653	2406.19
726.84	2336.56
727.027	2475.82
727.213	2406.19
727.4	2361.14
727.586	2365.23
727.773	2357.04
727.959	2467.63
728.145	2484.02
728.332	2371.38
728.518	2484.02
728.705	2402.1
728.891	2363.19
729.077	2314.03
729.264	2395.95
729.45	2404.14
729.636	2402.1
729.823	2354.99
730.009	2344.75
730.195	2387.76
730.382	2365.23
730.568	2336.56
730.754	2387.76
730.94	2342.71
731.126	2412.34
731.313	2311.99
731.499	2320.18
731.685	2246.45
731.871	2344.75
732.057	2404.14
732.243	2373.43
732.429	2322.23
732.615	2381.62
732.801	2418.48
732.987	2322.23
733.173	2426.67
733.359	2414.38
733.545	2352.95
733.731	2291.51
733.917	2445.1
734.103	2340.66
734.289	2389.81
734.475	2332.47
734.661	2344.75
734.847	2299.7
735.033	2346.8
735.219	2258.74
735.404	2408.24
735.59	2395.95
735.776	2307.89
735.962	2348.85
736.148	2271.03
736.333	2367.28
736.519	2289.46
736.705	2414.38
736.89	2410.29
737.076	2228.02
737.262	2207.54
737.447	2320.18
737.633	2344.75
737.819	2283.31
738.004	2223.92
738.19	2289.46
738.375	2213.68
738.561	2326.32
738.747	2283.31
738.932	2119.48
739.118	2127.67
739.303	2289.46
739.489	2307.89
739.674	2160.44
739.859	2066.23
740.045	2158.39
740.23	2238.26
740.416	2242.36
740.601	2209.59
740.786	2053.94
740.972	2182.96
741.157	2182.96
741.342	2137.91
741.528	2162.48
741.713	2125.62
741.898	2123.57
742.084	2047.8
742.269	2023.22
742.454	2119.48
742.639	2148.15
742.824	2051.89
743.01	2047.8
743.195	2012.98
743.38	2002.74
743.565	2055.99
743.75	2080.57
743.935	1898.3
744.12	2148.15
744.305	2064.18
744.49	1910.58
744.675	1974.07
744.86	1912.63
745.045	1998.65
745.23	1931.06
745.415	1957.69
745.6	1984.31
745.785	1869.62
745.97	1937.21
746.155	1996.6
746.34	1865.53
746.525	1953.59
746.71	1896.25
746.895	1789.75
747.079	1969.98
747.264	1830.71
747.449	1879.86
747.634	1943.35
747.819	1873.72
748.003	1756.99
748.188	1869.62
748.373	1896.25
748.557	1683.26
748.742	1789.75
748.927	1722.17
749.111	1693.5
749.296	1873.72
749.481	1816.38
749.665	1834.81
749.85	1681.21
750.034	1711.93
750.219	1681.21
750.404	1584.96
750.588	1642.3
750.773	1668.92
750.957	1636.16
751.141	1703.74
751.326	1660.73
751.51	1595.2
751.695	1623.87
751.879	1609.53
752.064	1593.15
752.248	1591.1
752.432	1541.95
752.617	1627.96
752.801	1558.33
752.985	1582.91
753.17	1541.95
753.354	1439.55
753.538	1445.7
753.722	1414.98
753.907	1457.98
754.091	1447.74
754.275	1451.84
754.459	1570.62
754.643	1503.04
754.828	1425.22
755.012	1374.02
755.196	1468.22
755.38	1300.29
755.564	1378.11
755.748	1359.68
755.932	1449.79
756.116	1410.88
756.3	1380.16
756.484	1455.94
756.668	1331.01
756.852	1365.82
757.036	1302.34
757.22	1296.19
757.404	1322.82
757.588	1365.82
757.772	1337.15
757.956	1296.19
758.14	1288
758.323	1234.75
758.507	1216.32
758.691	1288
758.875	1281.86
759.059	1222.47
759.242	1228.61
759.426	1218.37
759.61	1208.13
759.794	1263.43
759.977	1249.09
760.161	1171.27
760.345	1244.99
760.528	1163.08
760.712	1298.24
760.895	1161.03
761.079	1195.84
761.263	1111.88
761.446	1072.96
761.63	1099.59
761.813	1103.68
761.997	1087.3
762.18	1070.92
762.364	1138.5
762.547	1046.34
762.731	1048.39
762.914	1150.79
763.098	1165.12
763.281	1046.34
763.464	1111.88
763.648	1111.88
763.831	1134.4
764.015	1046.34
764.198	991.05
764.381	999.24
764.564	1015.62
764.748	1077.06
764.931	1058.63
765.114	1046.34
765.297	1027.91
765.481	1009.48
765.664	1081.16
765.847	1056.58
766.03	1019.72
766.213	1005.38
766.397	1021.77
766.58	911.18
766.763	995.14
766.946	976.71
767.129	925.51
767.312	962.37
767.495	921.42
767.678	909.13
767.861	976.71
768.044	898.89
768.227	960.33
768.41	948.04
768.593	972.61
768.776	929.61
768.959	931.66
769.142	1034.05
769.324	864.07
769.507	954.18
769.69	952.13
769.873	917.32
770.056	827.21
770.239	931.66
770.421	907.08
770.604	874.31
770.787	888.65
770.97	913.22
771.152	802.63
771.335	880.46
771.518	821.06
771.7	890.7
771.883	880.46
772.066	900.94
772.248	921.42
772.431	839.5
772.613	833.35
772.796	792.39
772.978	851.78
773.161	849.74
773.343	819.02
773.526	859.98
773.708	843.59
773.891	778.06
774.073	798.54
774.256	747.34
774.438	810.82
774.621	778.06
774.803	728.91
774.985	749.39
775.168	845.64
775.35	724.81
775.532	769.87
775.715	745.29
775.897	702.28
776.079	778.06
776.261	679.75
776.444	702.28
776.626	700.23
776.808	724.81
776.99	696.14
777.173	700.23
777.355	728.91
777.537	649.04
777.719	638.8
777.901	747.34
778.083	677.71
778.265	657.23
778.447	677.71
778.629	614.22
778.811	661.32
778.993	649.04
779.175	634.7
779.357	696.14
779.539	591.69
779.721	630.6
779.903	651.08
780.085	577.36
780.267	610.12
780.449	624.46
780.631	538.45
780.812	530.25
780.994	517.97
781.176	640.84
781.358	612.17
781.54	591.69
781.721	597.84
781.903	587.6
782.085	634.7
782.267	542.54
782.448	530.25
782.63	550.73
782.812	560.97
782.993	565.07
783.175	464.72
783.357	575.31
783.538	499.53
783.72	470.86
783.901	505.68
784.083	456.53
784.264	491.34
784.446	544.59
784.627	470.86
784.809	520.01
784.99	499.53
785.172	538.45
785.353	421.71
785.535	481.1
785.716	489.29
785.897	425.81
786.079	534.35
786.26	489.29
786.441	499.53
786.623	485.2
786.804	497.49
786.985	456.53
787.167	517.97
787.348	472.91
787.529	468.81
787.71	458.57
787.891	464.72
788.073	436.05
788.254	438.09
788.435	415.57
788.616	425.81
788.797	495.44
788.978	434
789.159	427.85
789.34	530.25
789.522	350.03
789.703	343.89
789.884	401.23
790.065	393.04
790.246	380.75
790.427	378.7
790.607	393.04
790.788	425.81
790.969	329.55
791.15	419.66
791.331	311.12
791.512	341.84
791.693	395.09
791.874	382.8
792.054	358.22
792.235	384.85
792.416	421.71
792.597	272.21
792.778	315.22
792.958	333.65
793.139	300.88
793.32	354.13
793.5	302.93
793.681	354.13
793.862	294.74
794.042	278.35
794.223	358.22
794.404	341.84
794.584	347.98
794.765	304.98
794.945	229.2
795.126	333.65
795.306	350.03
795.487	335.7
795.667	284.5
795.848	286.54
796.028	264.02
796.209	323.41
796.389	331.6
796.57	272.21
796.75	307.02
796.93	341.84
797.111	270.16
797.291	296.78
797.471	329.55
797.652	374.61
797.832	259.92
798.012	290.64
798.192	282.45
798.373	194.39
798.553	274.26
798.733	276.31
798.913	266.07
799.093	327.5
799.274	280.4
799.454	233.3
799.634	206.67
799.814	247.63
799.994	282.45
800.174	304.98
800.354	243.54
800.534	200.53
800.714	243.54
800.894	202.58
801.074	341.84
801.254	284.5
801.434	206.67
801.614	382.8
801.794	188.24
801.974	563.02
802.154	178
802.334	276.31
802.514	216.91
802.693	202.58
802.873	229.2
803.053	171.86
803.233	302.93
803.413	218.96
803.592	145.24
803.772	216.91
803.952	272.21
804.131	175.95
804.311	268.11
804.491	239.44
804.67	231.25
804.85	241.49
805.03	251.73
805.209	231.25
805.389	247.63
805.568	212.82
805.748	249.68
805.928	235.35
806.107	257.87
806.287	208.72
806.466	169.81
806.646	255.83
806.825	229.2
807.004	188.24
807.184	135
807.363	261.97
807.543	227.15
807.722	202.58
807.901	173.91
808.081	186.19
808.26	208.72
808.439	241.49
808.619	268.11
808.798	214.87
808.977	235.35
809.156	239.44
809.336	212.82
809.515	130.9
809.694	225.11
809.873	120.66
810.052	171.86
810.231	180.05
810.411	149.33
810.59	175.95
810.769	171.86
810.948	180.05
811.127	106.32
811.306	94.04
811.485	186.19
811.664	245.59
811.843	175.95
812.022	110.42
812.201	141.14
812.38	202.58
812.559	171.86
812.737	214.87
812.916	169.81
813.095	139.09
813.274	132.95
813.453	167.76
813.632	108.37
813.811	137.04
813.989	151.38
814.168	210.77
814.347	184.15
814.526	221.01
814.704	163.67
814.883	157.52
815.062	208.72
815.24	91.99
815.419	116.56
815.598	139.09
815.776	67.41
815.955	151.38
816.133	165.71
816.312	110.42
816.49	128.85
816.669	91.99
816.847	91.99
817.026	169.81
817.204	98.13
817.383	151.38
817.561	184.15
817.74	141.14
817.918	210.77
818.097	178
818.275	151.38
818.453	124.76
818.632	102.23
818.81	104.28
818.988	42.84
819.167	149.33
819.345	169.81
819.523	135
819.701	182.1
819.879	137.04
820.058	96.08
820.236	69.46
820.414	112.47
820.592	171.86
820.77	200.53
820.948	157.52
821.127	139.09
821.305	120.66
821.483	114.52
821.661	61.27
821.839	75.6
822.017	75.6
822.195	65.36
822.373	175.95
822.551	135
822.729	112.47
822.907	63.32
823.085	110.42
823.262	79.7
823.44	59.22
823.618	87.89
823.796	128.85
823.974	102.23
824.152	190.29
824.329	122.71
824.507	120.66
824.685	89.94
824.863	104.28
825.04	126.8
825.218	161.62
825.396	83.8
825.574	106.32
825.751	135
825.929	110.42
826.107	132.95
826.284	85.84
826.462	100.18
826.639	81.75
826.817	106.32
826.994	71.51
827.172	110.42
827.349	108.37
827.527	124.76
827.704	128.85
827.882	122.71
828.059	81.75
828.237	28.5
828.414	126.8
828.591	71.51
828.769	83.8
828.946	81.75
829.124	102.23
829.301	145.24
829.478	153.43
829.655	118.61
829.833	8.02
830.01	44.88
830.187	196.43
830.364	163.67
830.542	81.75
830.719	94.04
830.896	71.51
831.073	28.5
831.25	175.95
831.427	67.41
831.604	102.23
831.782	48.98
831.959	63.32
832.136	28.5
832.313	79.7
832.49	112.47
832.667	8.02
832.844	61.27
833.021	65.36
833.198	34.64
833.374	91.99
833.551	16.21
833.728	124.76
833.905	51.03
834.082	51.03
834.259	73.56
834.436	79.7
834.612	155.47
834.789	5.97
834.966	22.36
835.143	46.93
835.319	75.6
835.496	44.88
835.673	34.64
835.85	87.89
836.026	32.6
836.203	85.84
836.38	77.65
836.556	34.64
836.733	34.64
836.909	143.19
837.086	38.74
837.262	130.9
837.439	75.6
837.616	96.08
837.792	87.89
837.968	30.55
838.145	53.08
838.321	24.4
838.498	-2.22
838.674	55.12
838.851	65.36
839.027	34.64
839.203	46.93
839.38	143.19
839.556	112.47
839.732	96.08
839.909	73.56
840.085	44.88
840.261	30.55
840.437	44.88
840.614	85.84
840.79	130.9
840.966	96.08
841.142	46.93
841.318	12.12
841.494	16.21
841.671	81.75
841.847	-39.08
842.023	69.46
842.199	108.37
842.375	87.89
842.551	108.37
842.727	42.84
842.903	38.74
843.079	26.45
843.255	79.7
843.431	26.45
843.607	55.12
843.783	1.88
843.959	34.64
844.134	26.45
844.31	-4.27
844.486	104.28
844.662	5.97
844.838	116.56
845.013	79.7
845.189	128.85
845.365	120.66
845.541	30.55
845.716	128.85
845.892	48.98
846.068	8.02
846.244	69.46
846.419	14.17
846.595	-39.08
846.77	85.84
846.946	102.23
847.122	-6.31
847.297	22.36
847.473	94.04
847.648	26.45
847.824	-18.6
847.999	10.07
848.175	20.31
848.35	108.37
848.526	100.18
848.701	61.27
848.876	104.28
849.052	18.26
849.227	-18.6
849.403	38.74
849.578	44.88
849.753	36.69
849.929	59.22
850.104	59.22
850.279	63.32
850.454	67.41
850.63	59.22
850.805	24.4
850.98	61.27
851.155	24.4
851.33	61.27
851.505	-0.17
851.681	98.13
851.856	44.88
852.031	57.17
852.206	75.6
852.381	46.93
852.556	-16.55
852.731	34.64
852.906	59.22
853.081	102.23
853.256	83.8
853.431	139.09
853.606	-28.84
853.781	120.66
853.956	24.4
854.131	126.8
854.305	-12.46
854.48	40.79
854.655	-6.31
854.83	-34.99
855.005	-34.99
855.18	-45.23
855.354	63.32
855.529	-8.36
855.704	20.31
855.879	-2.22
856.053	1.88
856.228	-39.08
856.403	-37.03
856.577	69.46
856.752	-37.03
856.926	67.41
857.101	14.17
857.276	87.89
857.45	102.23
857.625	-0.17
857.799	59.22
857.974	1.88
858.148	24.4
858.323	-24.75
858.497	18.26
858.672	5.97
858.846	-4.27
859.02	67.41
859.195	40.79
859.369	48.98
859.543	-8.36
859.718	22.36
859.892	22.36
860.066	85.84
860.241	22.36
860.415	-55.47
860.589	1.88
860.763	18.26
860.938	-30.89
861.112	14.17
861.286	-4.27
861.46	61.27
861.634	30.55
861.808	81.75
861.982	-2.22
862.157	28.5
862.331	-18.6
862.505	-4.27
862.679	-18.6
862.853	22.36
863.027	83.8
863.201	67.41
863.375	-45.23
863.549	65.36
863.722	91.99
863.896	10.07
864.07	36.69
864.244	30.55
864.418	51.03
864.592	85.84
864.766	32.6
864.939	38.74
865.113	-51.37
865.287	69.46
865.461	28.5
865.634	18.26
865.808	18.26
865.982	20.31
866.156	34.64
866.329	-14.51
866.503	-20.65
866.676	8.02
866.85	-22.7
867.024	-30.89
867.197	38.74
867.371	44.88
867.544	44.88
867.718	51.03
867.891	-55.47
868.065	36.69
868.238	-45.23
868.412	16.21
868.585	-30.89
868.759	-26.79
868.932	75.6
869.105	-4.27
869.279	22.36
869.452	46.93
869.625	22.36
869.799	34.64
869.972	-18.6
870.145	8.02
870.319	46.93
870.492	26.45
870.665	-41.13
870.838	40.79
871.011	-8.36
871.185	-2.22
871.358	28.5
871.531	-20.65
871.704	34.64
871.877	26.45
872.05	-16.55
872.223	22.36
872.396	5.97
872.569	57.17
872.742	30.55
872.915	-88.23
873.088	-18.6
873.261	42.84
873.434	-57.51
873.607	-49.32
873.78	8.02
873.953	40.79
874.126	18.26
874.299	-10.41
874.471	14.17
874.644	16.21
874.817	77.65
874.99	16.21
875.163	-71.85
875.335	108.37
875.508	46.93
875.681	5.97
875.853	-34.99
876.026	55.12
876.199	46.93
876.371	8.02
876.544	32.6
876.717	-14.51
876.889	-16.55
877.062	-18.6
877.234	-43.18
877.407	51.03
877.579	-22.7
877.752	67.41
877.924	-14.51
878.097	24.4
878.269	18.26
878.442	-10.41
878.614	44.88
878.786	55.12
878.959	-41.13
879.131	-22.7
879.303	1.88
879.476	18.26
879.648	73.56
879.82	-43.18
879.993	10.07
880.165	34.64
880.337	5.97
880.509	-22.7
880.681	-12.46
880.854	42.84
881.026	8.02
881.198	51.03
881.37	-26.79
881.542	12.12
881.714	38.74
881.886	24.4
882.058	26.45
882.23	-30.89
882.402	-22.7
882.574	34.64
882.746	22.36
882.918	32.6
883.09	-51.37
883.262	22.36
883.434	-84.14
883.606	-14.51
883.778	-18.6
883.95	69.46
884.122	141.14
884.293	-39.08
884.465	8.02
884.637	-30.89
884.809	-43.18
884.98	81.75
885.152	-28.84
885.324	12.12
885.496	26.45
885.667	24.4
885.839	12.12
886.011	85.84
886.182	-10.41
886.354	26.45
886.525	-14.51
886.697	14.17
886.869	69.46
887.04	53.08
887.212	44.88
887.383	69.46
887.555	57.17
887.726	40.79
887.897	38.74
888.069	-34.99
888.24	-28.84
888.412	-12.46
888.583	40.79
888.754	38.74
888.926	-37.03
889.097	36.69
889.268	26.45
889.44	77.65
889.611	20.31
889.782	-18.6
889.953	-26.79
890.125	-4.27
890.296	20.31
890.467	14.17
890.638	14.17
890.809	44.88
890.98	-16.55
891.151	18.26
891.323	-22.7
891.494	30.55
891.665	28.5
891.836	32.6
892.007	-10.41
892.178	-57.51
892.349	-6.31
892.52	8.02
892.691	22.36
892.862	59.22
893.032	-16.55
893.203	5.97
893.374	36.69
893.545	77.65
893.716	38.74
893.887	-12.46
894.057	16.21
894.228	8.02
894.399	1.88
894.57	1.88
894.74	28.5
894.911	24.4
895.082	-2.22
895.253	-14.51
895.423	5.97
895.594	36.69
895.764	-8.36
895.935	-96.43
896.106	44.88
896.276	-26.79
896.447	1.88
896.617	53.08
896.788	1.88
896.958	18.26
897.129	46.93
897.299	48.98
897.47	5.97
897.64	46.93
897.81	10.07
897.981	28.5
898.151	-26.79
898.322	-4.27
898.492	-16.55
898.662	-30.89
898.832	16.21
899.003	3.93
899.173	75.6
899.343	-28.84
899.513	20.31
