Data from USB4F104151__273__11-12-14-125.txt Node

Date: Wed Mar 12 11:12:14 EDT 2025
User: louis
Spectrometer: USB4F10415
Trigger mode: 4
Integration Time (sec): 2.000000E-2
Scans to average: 1
Electric dark correction enabled: true
Nonlinearity correction enabled: false
Boxcar width: 0
XAxis mode: Wavelengths
Number of Pixels in Spectrum: 3648
>>>>>Begin Spectral Data<<<<<
178.204	-65.02
178.424	-65.02
178.644	-65.02
178.864	-136.7
179.084	-99.84
179.304	-1.54
179.524	-7.68
179.744	12.8
179.964	-7.68
180.184	-44.54
180.404	47.62
180.624	-3.58
180.844	47.62
181.064	-52.74
181.283	45.57
181.503	23.04
181.723	-58.88
181.943	-9.73
182.163	72.19
182.383	-5.63
182.602	45.57
182.822	53.76
183.042	-9.73
183.262	-44.54
183.482	10.75
183.701	-3.58
183.921	14.85
184.141	8.7
184.361	64
184.58	109.05
184.8	14.85
185.02	-13.82
185.239	29.18
185.459	-1.54
185.679	61.95
185.898	10.75
186.118	61.95
186.338	-3.58
186.557	55.81
186.777	51.71
186.997	47.62
187.216	2.56
187.436	10.75
187.655	45.57
187.875	27.14
188.095	78.33
188.314	39.42
188.534	152.06
188.753	18.94
188.973	55.81
189.192	57.86
189.412	72.19
189.631	57.86
189.851	23.04
190.07	68.09
190.29	-9.73
190.509	-46.59
190.729	39.42
190.948	68.09
191.168	102.91
191.387	8.7
191.607	-1.54
191.826	14.85
192.045	-1.54
192.265	-13.82
192.484	57.86
192.704	31.23
192.923	23.04
193.142	61.95
193.362	-24.06
193.581	8.7
193.8	-34.3
194.02	31.23
194.239	20.99
194.458	29.18
194.678	-3.58
194.897	55.81
195.116	43.52
195.335	12.8
195.555	-11.78
195.774	39.42
195.993	20.99
196.212	68.09
196.432	8.7
196.651	53.76
196.87	12.8
197.089	76.29
197.308	31.23
197.528	43.52
197.747	35.33
197.966	0.51
198.185	25.09
198.404	82.43
198.623	76.29
198.842	66.05
199.062	4.61
199.281	68.09
199.5	33.28
199.719	23.04
199.938	4.61
200.157	41.47
200.376	55.81
200.595	33.28
200.814	23.04
201.033	25.09
201.252	-5.63
201.471	49.66
201.69	33.28
201.909	43.52
202.128	-11.78
202.347	39.42
202.566	-50.69
202.785	84.48
203.004	-71.17
203.223	59.9
203.442	41.47
203.661	16.9
203.879	12.8
204.098	43.52
204.317	-24.06
204.536	45.57
204.755	111.1
204.974	33.28
205.193	33.28
205.411	98.81
205.63	-26.11
205.849	8.7
206.068	78.33
206.287	-44.54
206.505	92.67
206.724	0.51
206.943	4.61
207.162	43.52
207.381	61.95
207.599	84.48
207.818	31.23
208.037	-52.74
208.255	33.28
208.474	33.28
208.693	41.47
208.911	41.47
209.13	-17.92
209.349	80.38
209.567	-9.73
209.786	27.14
210.005	57.86
210.223	37.38
210.442	27.14
210.661	64
210.879	-3.58
211.098	-24.06
211.316	-19.97
211.535	47.62
211.753	-46.59
211.972	16.9
212.191	-1.54
212.409	18.94
212.628	23.04
212.846	27.14
213.065	47.62
213.283	20.99
213.502	61.95
213.72	51.71
213.938	-13.82
214.157	80.38
214.375	-40.45
214.594	4.61
214.812	12.8
215.031	-58.88
215.249	2.56
215.467	39.42
215.686	-1.54
215.904	35.33
216.122	-3.58
216.341	12.8
216.559	64
216.778	43.52
216.996	35.33
217.214	16.9
217.432	8.7
217.651	61.95
217.869	-26.11
218.087	29.18
218.306	31.23
218.524	109.05
218.742	16.9
218.96	-1.54
219.179	59.9
219.397	23.04
219.615	104.96
219.833	29.18
220.051	-19.97
220.27	64
220.488	59.9
220.706	74.24
220.924	4.61
221.142	55.81
221.36	29.18
221.578	37.38
221.796	10.75
222.015	10.75
222.233	-22.02
222.451	-3.58
222.669	18.94
222.887	4.61
223.105	2.56
223.323	43.52
223.541	23.04
223.759	55.81
223.977	-1.54
224.195	51.71
224.413	8.7
224.631	72.19
224.849	82.43
225.067	53.76
225.285	14.85
225.503	49.66
225.721	12.8
225.939	31.23
226.157	8.7
226.375	84.48
226.592	6.66
226.81	-17.92
227.028	55.81
227.246	49.66
227.464	68.09
227.682	29.18
227.9	41.47
228.117	-22.02
228.335	80.38
228.553	37.38
228.771	92.67
228.989	49.66
229.206	47.62
229.424	-11.78
229.642	-48.64
229.86	55.81
230.077	12.8
230.295	55.81
230.513	35.33
230.731	27.14
230.948	96.77
231.166	43.52
231.384	45.57
231.601	6.66
231.819	-3.58
232.037	-13.82
232.254	39.42
232.472	16.9
232.689	8.7
232.907	100.86
233.125	70.14
233.342	8.7
233.56	35.33
233.777	-9.73
233.995	-36.35
234.213	41.47
234.43	14.85
234.648	70.14
234.865	8.7
235.083	100.86
235.3	14.85
235.518	39.42
235.735	45.57
235.953	82.43
236.17	27.14
236.388	-48.64
236.605	33.28
236.822	66.05
237.04	80.38
237.257	20.99
237.475	-13.82
237.692	76.29
237.909	82.43
238.127	31.23
238.344	35.33
238.562	115.2
238.779	14.85
238.996	37.38
239.214	61.95
239.431	68.09
239.648	51.71
239.865	57.86
240.083	45.57
240.3	-15.87
240.517	-26.11
240.735	23.04
240.952	-11.78
241.169	94.72
241.386	-36.35
241.603	23.04
241.821	25.09
242.038	35.33
242.255	37.38
242.472	113.15
242.689	-9.73
242.907	59.9
243.124	35.33
243.341	61.95
243.558	-30.21
243.775	14.85
243.992	27.14
244.209	39.42
244.426	23.04
244.643	-17.92
244.86	12.8
245.078	23.04
245.295	-13.82
245.512	45.57
245.729	57.86
245.946	82.43
246.163	31.23
246.38	14.85
246.597	43.52
246.814	18.94
247.031	-26.11
247.248	29.18
247.464	-3.58
247.681	78.33
247.898	16.9
248.115	70.14
248.332	31.23
248.549	88.57
248.766	129.53
248.983	68.09
249.2	74.24
249.417	154.11
249.633	37.38
249.85	4.61
250.067	84.48
250.284	66.05
250.501	-7.68
250.717	25.09
250.934	39.42
251.151	45.57
251.368	64
251.585	98.81
251.801	-11.78
252.018	43.52
252.235	2.56
252.451	-15.87
252.668	18.94
252.885	47.62
253.102	-7.68
253.318	102.91
253.535	6.66
253.752	14.85
253.968	66.05
254.185	49.66
254.401	-3.58
254.618	2.56
254.835	6.66
255.051	74.24
255.268	-19.97
255.484	25.09
255.701	31.23
255.917	78.33
256.134	4.61
256.351	66.05
256.567	14.85
256.784	74.24
257	31.23
257.217	35.33
257.433	27.14
257.65	109.05
257.866	64
258.082	35.33
258.299	59.9
258.515	92.67
258.732	55.81
258.948	45.57
259.165	-38.4
259.381	27.14
259.597	-24.06
259.814	-34.3
260.03	41.47
260.246	-11.78
260.463	68.09
260.679	98.81
260.895	20.99
261.112	29.18
261.328	59.9
261.544	-13.82
261.761	-34.3
261.977	-1.54
262.193	-19.97
262.409	113.15
262.626	55.81
262.842	-13.82
263.058	-30.21
263.274	49.66
263.49	68.09
263.707	43.52
263.923	37.38
264.139	10.75
264.355	10.75
264.571	74.24
264.787	35.33
265.004	6.66
265.22	4.61
265.436	49.66
265.652	31.23
265.868	57.86
266.084	43.52
266.3	41.47
266.516	-7.68
266.732	-30.21
266.948	12.8
267.164	66.05
267.38	0.51
267.596	84.48
267.812	139.77
268.028	80.38
268.244	64
268.46	14.85
268.676	61.95
268.892	88.57
269.108	49.66
269.324	8.7
269.54	14.85
269.756	41.47
269.972	-9.73
270.188	86.53
270.403	49.66
270.619	76.29
270.835	104.96
271.051	49.66
271.267	33.28
271.483	23.04
271.698	-19.97
271.914	-26.11
272.13	70.14
272.346	94.72
272.562	10.75
272.777	4.61
272.993	-1.54
273.209	59.9
273.425	10.75
273.64	-1.54
273.856	2.56
274.072	35.33
274.287	6.66
274.503	33.28
274.719	-65.02
274.934	72.19
275.15	10.75
275.366	-40.45
275.581	37.38
275.797	-44.54
276.012	27.14
276.228	57.86
276.444	8.7
276.659	6.66
276.875	33.28
277.09	23.04
277.306	23.04
277.521	39.42
277.737	70.14
277.952	35.33
278.168	74.24
278.383	86.53
278.599	57.86
278.814	49.66
279.03	27.14
279.245	29.18
279.461	8.7
279.676	113.15
279.892	-28.16
280.107	-28.16
280.322	31.23
280.538	80.38
280.753	31.23
280.969	74.24
281.184	100.86
281.399	78.33
281.615	12.8
281.83	-28.16
282.045	-44.54
282.26	39.42
282.476	61.95
282.691	78.33
282.906	70.14
283.122	57.86
283.337	43.52
283.552	45.57
283.767	51.71
283.983	82.43
284.198	82.43
284.413	14.85
284.628	23.04
284.843	66.05
285.058	53.76
285.274	-32.26
285.489	-17.92
285.704	66.05
285.919	59.9
286.134	39.42
286.349	43.52
286.564	135.68
286.779	43.52
286.995	-9.73
287.21	10.75
287.425	61.95
287.64	0.51
287.855	74.24
288.07	-13.82
288.285	113.15
288.5	90.62
288.715	68.09
288.93	31.23
289.145	0.51
289.36	78.33
289.575	88.57
289.79	39.42
290.004	23.04
290.219	-30.21
290.434	35.33
290.649	41.47
290.864	51.71
291.079	-24.06
291.294	-17.92
291.509	70.14
291.724	45.57
291.938	39.42
292.153	107.01
292.368	-1.54
292.583	12.8
292.798	-50.69
293.012	37.38
293.227	-13.82
293.442	51.71
293.657	82.43
293.871	70.14
294.086	66.05
294.301	31.23
294.516	64
294.73	31.23
294.945	-56.83
295.16	49.66
295.374	84.48
295.589	51.71
295.804	-9.73
296.018	6.66
296.233	25.09
296.447	51.71
296.662	-46.59
296.877	10.75
297.091	86.53
297.306	33.28
297.52	33.28
297.735	57.86
297.949	64
298.164	14.85
298.378	61.95
298.593	57.86
298.807	-3.58
299.022	37.38
299.236	88.57
299.451	14.85
299.665	6.66
299.88	121.34
300.094	-1.54
300.309	45.57
300.523	29.18
300.737	33.28
300.952	8.7
301.166	55.81
301.381	41.47
301.595	23.04
301.809	-17.92
302.024	27.14
302.238	86.53
302.452	12.8
302.667	-26.11
302.881	0.51
303.095	55.81
303.309	0.51
303.524	-36.35
303.738	18.94
303.952	66.05
304.166	41.47
304.381	-81.41
304.595	80.38
304.809	51.71
305.023	31.23
305.237	-22.02
305.452	49.66
305.666	72.19
305.88	76.29
306.094	39.42
306.308	-22.02
306.522	23.04
306.736	27.14
306.95	64
307.164	-32.26
307.379	-24.06
307.593	25.09
307.807	41.47
308.021	-38.4
308.235	-11.78
308.449	90.62
308.663	74.24
308.877	12.8
309.091	16.9
309.305	-26.11
309.519	-11.78
309.733	35.33
309.947	31.23
310.161	61.95
310.374	96.77
310.588	66.05
310.802	-19.97
311.016	53.76
311.23	49.66
311.444	6.66
311.658	6.66
311.872	-17.92
312.085	78.33
312.299	92.67
312.513	80.38
312.727	80.38
312.941	-5.63
313.154	-32.26
313.368	49.66
313.582	43.52
313.796	66.05
314.009	70.14
314.223	133.63
314.437	51.71
314.651	61.95
314.864	2.56
315.078	6.66
315.292	117.25
315.505	23.04
315.719	141.82
315.933	78.33
316.146	35.33
316.36	6.66
316.573	102.91
316.787	25.09
317.001	-1.54
317.214	39.42
317.428	72.19
317.641	37.38
317.855	-15.87
318.068	47.62
318.282	72.19
318.495	64
318.709	61.95
318.922	6.66
319.136	84.48
319.349	61.95
319.563	68.09
319.776	96.77
319.99	43.52
320.203	94.72
320.417	57.86
320.63	0.51
320.843	78.33
321.057	29.18
321.27	90.62
321.483	55.81
321.697	35.33
321.91	113.15
322.124	29.18
322.337	49.66
322.55	2.56
322.763	39.42
322.977	70.14
323.19	12.8
323.403	37.38
323.617	16.9
323.83	41.47
324.043	59.9
324.256	8.7
324.469	57.86
324.683	88.57
324.896	51.71
325.109	47.62
325.322	45.57
325.535	84.48
325.748	90.62
325.962	129.53
326.175	33.28
326.388	82.43
326.601	127.49
326.814	61.95
327.027	84.48
327.24	55.81
327.453	18.94
327.666	49.66
327.879	0.51
328.092	16.9
328.305	70.14
328.518	55.81
328.731	80.38
328.944	53.76
329.157	45.57
329.37	-3.58
329.583	92.67
329.796	16.9
330.009	41.47
330.222	45.57
330.435	64
330.648	61.95
330.861	68.09
331.073	133.63
331.286	29.18
331.499	4.61
331.712	23.04
331.925	68.09
332.138	29.18
332.35	10.75
332.563	-28.16
332.776	-22.02
332.989	-17.92
333.202	72.19
333.414	-40.45
333.627	61.95
333.84	10.75
334.053	96.77
334.265	14.85
334.478	27.14
334.691	57.86
334.903	61.95
335.116	82.43
335.329	31.23
335.541	102.91
335.754	33.28
335.966	31.23
336.179	-32.26
336.392	96.77
336.604	61.95
336.817	76.29
337.029	23.04
337.242	4.61
337.454	35.33
337.667	96.77
337.88	45.57
338.092	100.86
338.305	35.33
338.517	-30.21
338.729	61.95
338.942	98.81
339.154	18.94
339.367	53.76
339.579	51.71
339.792	55.81
340.004	20.99
340.217	107.01
340.429	96.77
340.641	51.71
340.854	72.19
341.066	45.57
341.278	27.14
341.491	8.7
341.703	92.67
341.915	72.19
342.128	111.1
342.34	-1.54
342.552	-67.07
342.764	27.14
342.977	49.66
343.189	37.38
343.401	27.14
343.613	0.51
343.826	29.18
344.038	61.95
344.25	96.77
344.462	76.29
344.674	37.38
344.886	45.57
345.099	33.28
345.311	-11.78
345.523	31.23
345.735	-9.73
345.947	68.09
346.159	80.38
346.371	80.38
346.583	61.95
346.795	53.76
347.007	18.94
347.219	61.95
347.431	35.33
347.643	59.9
347.855	66.05
348.067	70.14
348.279	-5.63
348.491	51.71
348.703	2.56
348.915	76.29
349.127	-13.82
349.339	84.48
349.551	100.86
349.763	113.15
349.975	49.66
350.187	74.24
350.399	115.2
350.61	41.47
350.822	43.52
351.034	51.71
351.246	119.29
351.458	107.01
351.669	25.09
351.881	96.77
352.093	55.81
352.305	14.85
352.517	78.33
352.728	25.09
352.94	51.71
353.152	-71.17
353.363	-13.82
353.575	82.43
353.787	90.62
353.999	39.42
354.21	18.94
354.422	59.9
354.633	39.42
354.845	57.86
355.057	43.52
355.268	70.14
355.48	57.86
355.692	12.8
355.903	53.76
356.115	20.99
356.326	2.56
356.538	143.87
356.749	61.95
356.961	111.1
357.172	82.43
357.384	-22.02
357.595	29.18
357.807	39.42
358.018	-1.54
358.23	86.53
358.441	57.86
358.653	80.38
358.864	-1.54
359.075	55.81
359.287	-36.35
359.498	78.33
359.709	-5.63
359.921	41.47
360.132	33.28
360.344	37.38
360.555	10.75
360.766	20.99
360.977	70.14
361.189	66.05
361.4	35.33
361.611	137.73
361.823	43.52
362.034	-36.35
362.245	20.99
362.456	53.76
362.667	72.19
362.879	12.8
363.09	80.38
363.301	100.86
363.512	35.33
363.723	104.96
363.935	72.19
364.146	70.14
364.357	35.33
364.568	29.18
364.779	-19.97
364.99	68.09
365.201	35.33
365.412	57.86
365.623	4.61
365.834	23.04
366.045	10.75
366.256	47.62
366.467	20.99
366.678	74.24
366.889	84.48
367.1	20.99
367.311	-15.87
367.522	94.72
367.733	31.23
367.944	68.09
368.155	72.19
368.366	57.86
368.577	55.81
368.788	61.95
368.999	18.94
369.209	35.33
369.42	70.14
369.631	18.94
369.842	57.86
370.053	23.04
370.264	16.9
370.474	45.57
370.685	111.1
370.896	61.95
371.107	39.42
371.317	70.14
371.528	-5.63
371.739	37.38
371.95	37.38
372.16	61.95
372.371	31.23
372.582	72.19
372.792	100.86
373.003	57.86
373.214	68.09
373.424	18.94
373.635	-15.87
373.846	104.96
374.056	156.16
374.267	104.96
374.477	66.05
374.688	80.38
374.898	94.72
375.109	66.05
375.319	25.09
375.53	51.71
375.74	111.1
375.951	84.48
376.161	-9.73
376.372	88.57
376.582	113.15
376.793	45.57
377.003	33.28
377.214	90.62
377.424	41.47
377.635	88.57
377.845	6.66
378.055	16.9
378.266	88.57
378.476	70.14
378.686	70.14
378.897	64
379.107	43.52
379.317	39.42
379.528	-24.06
379.738	-30.21
379.948	0.51
380.158	127.49
380.369	55.81
380.579	14.85
380.789	61.95
380.999	47.62
381.21	49.66
381.42	131.58
381.63	27.14
381.84	125.44
382.05	96.77
382.261	35.33
382.471	72.19
382.681	80.38
382.891	4.61
383.101	104.96
383.311	27.14
383.521	109.05
383.731	20.99
383.941	96.77
384.151	51.71
384.361	82.43
384.571	64
384.781	129.53
384.991	74.24
385.201	57.86
385.411	51.71
385.621	6.66
385.831	49.66
386.041	68.09
386.251	4.61
386.461	72.19
386.671	70.14
386.881	127.49
387.091	78.33
387.301	94.72
387.511	8.7
387.72	37.38
387.93	29.18
388.14	18.94
388.35	23.04
388.56	47.62
388.769	-7.68
388.979	137.73
389.189	-7.68
389.399	109.05
389.609	14.85
389.818	76.29
390.028	16.9
390.238	10.75
390.447	10.75
390.657	94.72
390.867	47.62
391.076	72.19
391.286	80.38
391.496	27.14
391.705	51.71
391.915	43.52
392.125	29.18
392.334	51.71
392.544	47.62
392.753	70.14
392.963	59.9
393.172	74.24
393.382	51.71
393.591	53.76
393.801	86.53
394.01	98.81
394.22	80.38
394.429	113.15
394.639	78.33
394.848	90.62
395.058	68.09
395.267	37.38
395.477	88.57
395.686	111.1
395.895	131.58
396.105	121.34
396.314	115.2
396.524	96.77
396.733	29.18
396.942	115.2
397.152	143.87
397.361	107.01
397.57	64
397.78	145.92
397.989	131.58
398.198	98.81
398.407	84.48
398.617	45.57
398.826	104.96
399.035	143.87
399.244	104.96
399.453	178.69
399.663	86.53
399.872	84.48
400.081	68.09
400.29	115.2
400.499	145.92
400.708	139.77
400.917	4.61
401.127	84.48
401.336	117.25
401.545	193.02
401.754	78.33
401.963	100.86
402.172	127.49
402.381	80.38
402.59	188.93
402.799	78.33
403.008	57.86
403.217	141.82
403.426	72.19
403.635	113.15
403.844	102.91
404.053	107.01
404.262	82.43
404.471	90.62
404.68	129.53
404.888	160.25
405.097	88.57
405.306	90.62
405.515	180.73
405.724	113.15
405.933	80.38
406.142	248.32
406.35	201.21
406.559	156.16
406.768	154.11
406.977	203.26
407.185	178.69
407.394	188.93
407.603	193.02
407.812	160.25
408.02	219.64
408.229	201.21
408.438	211.45
408.646	186.88
408.855	150.01
409.064	199.16
409.272	285.18
409.481	262.65
409.69	274.94
409.898	276.99
410.107	313.85
410.315	322.04
410.524	330.23
410.733	315.9
410.941	330.23
411.15	256.51
411.358	414.2
411.567	334.33
411.775	381.43
411.984	375.29
412.192	338.43
412.401	424.44
412.609	350.71
412.818	510.46
413.026	530.94
413.234	432.63
413.443	430.59
413.651	492.02
413.86	487.93
414.068	530.94
414.276	535.03
414.485	496.12
414.693	592.37
414.901	594.42
415.11	666.1
415.318	627.19
415.526	639.48
415.734	690.68
415.943	725.49
416.151	690.68
416.359	752.12
416.567	786.93
416.776	813.56
416.984	834.04
417.192	715.25
417.4	825.84
417.608	930.29
417.817	979.44
418.025	918
418.233	999.92
418.441	1038.83
418.649	1063.41
418.857	1096.18
419.065	1157.61
419.273	1096.18
419.481	1165.81
419.689	1280.49
419.897	1337.84
420.105	1325.55
420.313	1343.98
420.521	1485.29
420.729	1438.19
420.937	1448.43
421.145	1661.41
421.353	1634.79
421.561	1739.24
421.769	1745.38
421.977	1825.25
422.185	1917.41
422.393	1905.12
422.601	2075.1
422.809	1991.14
423.017	2159.07
423.224	2265.57
423.432	2261.47
423.64	2193.89
423.848	2251.23
424.056	2374.11
424.263	2435.55
424.471	2521.56
424.679	2515.42
424.887	2830.8
425.094	2732.5
425.302	2808.28
425.51	2922.96
425.718	2918.87
425.925	3017.17
426.133	3125.71
426.341	3275.21
426.548	3545.55
426.756	3439.05
426.964	3627.46
427.171	3881.41
427.379	3797.45
427.586	3985.86
427.794	3862.98
428.001	4258.24
428.209	4481.47
428.417	4231.62
428.624	4499.9
428.832	4669.88
429.039	4567.48
429.247	4569.53
429.454	4970.93
429.662	5314.99
429.869	4981.17
430.076	5333.42
430.284	5271.98
430.491	5411.25
430.699	5765.54
430.906	5732.78
431.114	5820.84
431.321	6097.31
431.528	5966.24
431.736	6635.93
431.943	6918.55
432.15	6635.93
432.358	6758.81
432.565	7092.63
432.772	7043.48
432.979	7526.8
433.187	7594.38
433.394	7561.61
433.601	8227.2
433.808	8063.36
434.016	8089.99
434.223	8339.84
434.43	8964.47
434.637	8706.43
434.844	9296.24
435.052	9308.53
435.259	9398.64
435.466	9353.59
435.673	9294.19
435.88	9980.26
436.087	10686.81
436.294	10486.11
436.501	10150.25
436.708	10277.22
436.915	10748.25
437.122	11284.82
437.329	11141.46
437.537	11503.95
437.743	11936.07
437.95	11749.71
438.157	12339.52
438.364	12579.14
438.571	12628.29
438.778	12769.6
438.985	13754.67
439.192	13304.12
439.399	13543.73
439.606	13537.59
439.813	14541.09
440.02	15026.46
440.227	14774.56
440.433	14770.46
440.64	15182.1
440.847	15184.15
441.054	15444.24
441.261	16548.1
441.467	16304.39
441.674	16554.24
441.881	17131.77
442.088	16892.16
442.294	17099
442.501	17469.69
442.708	17813.74
442.914	18497.77
443.121	19308.76
443.328	18534.63
443.534	19886.29
443.741	19456.22
443.948	19278.04
444.154	20832.45
444.361	20838.59
444.568	20523.21
444.774	20875.46
444.981	20916.42
445.187	21405.88
445.394	22390.95
445.6	22147.25
445.807	24283.28
446.013	23031.97
446.22	23427.23
446.426	24545.42
446.633	24430.73
446.839	25565.31
447.046	24277.13
447.252	25979
447.459	25784.44
447.665	25804.92
447.871	26800.23
448.078	27916.37
448.284	26701.93
448.491	27308.13
448.697	28530.76
448.903	28880.97
449.11	29169.73
449.316	28301.39
449.522	28874.82
449.728	29794.36
449.935	29976.63
450.141	29796.41
450.347	30218.29
450.553	29560.89
450.76	29974.58
450.966	30695.47
451.172	30216.24
451.378	31154.21
451.584	30629.93
451.791	31434.78
451.997	31150.12
452.203	31703.07
452.409	31784.99
452.615	31627.29
452.821	30562.35
453.027	30091.32
453.233	31541.28
453.44	30103.6
453.646	30976.04
453.852	30992.42
454.058	31322.15
454.264	30355.5
454.47	31143.97
454.676	30197.81
454.882	31361.06
455.088	28594.25
455.294	29038.66
455.5	28971.08
455.705	29597.76
455.911	28598.35
456.117	27906.13
456.323	27631.71
456.529	26361.97
456.735	27349.09
456.941	26546.28
457.147	25913.46
457.352	25213.06
457.558	24877.19
457.764	24733.83
457.97	24270.99
458.176	23849.11
458.381	23908.5
458.587	22605.99
458.793	22573.22
458.999	21397.69
459.204	23183.52
459.41	22378.67
459.616	20859.07
459.821	20893.89
460.027	20863.17
460.233	20408.52
460.438	19478.74
460.644	19564.76
460.85	18630.88
461.055	18432.23
461.261	18587.88
461.466	17129.72
461.672	16560.39
461.878	17983.73
462.083	16859.39
462.289	16195.85
462.494	16021.77
462.7	15368.47
462.905	15167.77
463.111	15538.45
463.316	15665.42
463.522	15288.6
463.727	15233.3
463.932	15208.73
464.138	15063.32
464.343	15190.3
464.549	14844.19
464.754	14928.16
464.959	15094.04
465.165	14969.12
465.37	14192.94
465.575	13867.31
465.781	14444.84
465.986	14475.56
466.191	14035.24
466.397	13758.77
466.602	13275.45
466.807	13549.87
467.012	13642.03
467.218	13685.04
467.423	13429.04
467.628	13596.98
467.833	14000.43
468.038	13701.42
468.244	13150.52
468.449	13687.09
468.654	13134.14
468.859	13300.02
469.064	13136.18
469.269	12589.38
469.474	12548.42
469.679	12736.83
469.885	12368.2
470.09	12659.01
470.295	12562.75
470.5	11921.74
470.705	12493.12
470.91	12208.45
471.115	11934.03
471.32	12030.28
471.525	11956.55
471.73	11774.28
471.935	11671.89
472.139	11338.07
472.344	11266.39
472.549	11424.08
472.754	11307.35
472.959	10914.14
473.164	10715.48
473.369	10625.37
473.574	10953.05
473.778	10664.29
473.983	10928.47
474.188	10811.74
474.393	10320.23
474.598	10510.69
474.802	10262.88
475.007	10152.29
475.212	10129.77
475.417	9750.89
475.621	9783.66
475.826	9834.86
476.031	9804.14
476.235	9417.07
476.44	9810.28
476.645	9421.17
476.849	9462.13
477.054	9281.91
477.259	9220.47
477.463	9023.86
477.668	8796.54
477.872	9068.92
478.077	8909.18
478.282	8655.23
478.486	8692.09
478.691	8333.7
478.895	8638.84
479.1	8436.1
479.304	8370.56
479.509	8221.06
479.713	8454.53
479.918	8237.44
480.122	8329.6
480.326	8477.05
480.531	8116.61
480.735	8190.34
480.94	8171.91
481.144	8339.84
481.348	7950.73
481.553	8167.81
481.757	7821.7
481.961	8018.31
482.166	8069.51
482.37	8028.55
482.574	7872.9
482.778	8016.26
482.983	8083.84
483.187	7999.88
483.391	7709.07
483.595	7815.56
483.8	7694.73
484.004	7967.11
484.208	7846.28
484.412	7877
484.616	7711.11
484.821	7809.42
485.025	7727.5
485.229	7819.66
485.433	7852.42
485.637	7840.14
485.841	7702.92
486.045	7829.9
486.249	7743.88
486.453	7788.94
486.657	7885.19
486.861	7801.22
487.065	7647.63
487.269	7797.13
487.473	7647.63
487.677	7856.52
487.881	7752.07
488.085	7733.64
488.289	7795.08
488.493	7702.92
488.697	7715.21
488.901	7877
489.105	7874.95
489.309	8010.12
489.512	7827.85
489.716	7971.21
489.92	8128.9
490.124	7930.25
490.328	8057.22
490.531	7848.33
490.735	8057.22
490.939	8106.37
491.143	8083.84
491.346	8075.65
491.55	8157.57
491.754	8167.81
491.958	8188.29
492.161	8352.13
492.365	8141.19
492.569	8282.5
492.772	8335.74
492.976	8305.03
493.18	8352.13
493.383	8522.11
493.587	8358.27
493.79	8671.61
493.994	8356.22
494.197	8593.79
494.401	8948.09
494.605	8673.66
494.808	8784.25
495.012	8860.02
495.215	8853.88
495.419	9013.62
495.622	8927.61
495.825	8868.22
496.029	9144.69
496.232	9433.46
496.436	9296.24
496.639	9548.14
496.843	9460.08
497.046	9777.51
497.249	9777.51
497.453	9734.51
497.656	9996.65
497.859	9967.98
498.063	10088.81
498.266	10039.65
498.469	10137.96
498.673	10219.88
498.876	10336.61
499.079	10608.99
499.282	10664.29
499.485	10834.27
499.689	10795.36
499.892	10879.32
500.095	11094.36
500.298	11278.68
500.501	11012.44
500.705	11432.27
500.908	11581.78
501.111	11704.65
501.314	11753.8
501.517	11991.37
501.72	12194.12
501.923	11856.2
502.126	12224.84
502.329	12521.79
502.532	12640.58
502.735	12714.3
502.938	12980.54
503.141	12990.78
503.344	13158.71
503.547	13332.79
503.75	13328.69
503.953	13582.64
504.156	13859.12
504.359	13904.17
504.562	13758.77
504.765	14211.37
504.968	14205.22
505.17	14618.91
505.373	14260.52
505.576	14735.65
505.779	14723.36
505.982	14946.59
506.185	15079.71
506.387	15218.97
506.59	15321.37
506.793	15743.25
506.996	15663.38
507.198	16046.35
507.401	16032.01
507.604	16191.75
507.807	16570.63
508.009	16603.39
508.212	16652.55
508.415	16957.69
508.617	17094.91
508.82	17283.32
509.022	17103.1
509.225	17658.1
509.428	17742.07
509.63	17758.45
509.833	17938.67
510.035	18176.23
510.238	18327.78
510.44	18698.47
510.643	18856.16
510.845	18893.02
511.048	18895.07
511.25	19189.98
511.453	18960.61
511.655	19972.3
511.858	19562.71
512.06	19982.54
512.262	20267.21
512.465	20299.98
512.667	20465.86
512.87	20897.99
513.072	20768.96
513.274	21225.66
513.477	21231.8
513.679	21682.36
513.881	21696.69
514.084	21827.76
514.286	22073.52
514.488	21991.6
514.69	22704.29
514.893	22755.49
515.095	22794.4
515.297	23003.3
515.499	22872.23
515.701	23167.13
515.904	23814.29
516.106	23896.21
516.308	24041.62
516.51	24629.38
516.712	24553.61
516.914	24817.8
517.116	24987.78
517.318	25196.67
517.52	25739.38
517.722	25503.87
517.925	25784.44
518.127	26153.07
518.329	26226.8
518.531	26280.05
518.733	26660.97
518.935	26986.6
519.136	26933.35
519.338	27324.51
519.54	27664.47
519.742	27709.53
519.944	27691.1
520.146	28299.34
520.348	28330.06
520.55	28815.43
520.752	28633.16
520.954	29212.74
521.155	29007.94
521.357	29157.44
521.559	29433.92
521.761	30140.47
521.963	29941.82
522.164	30152.76
522.366	30474.29
522.568	30808.11
522.77	31109.16
522.971	31465.5
523.173	31127.59
523.375	31461.41
523.576	31553.57
523.778	31846.43
523.98	31965.21
524.181	32079.89
524.383	32194.58
524.584	32841.74
524.786	32526.35
524.988	32303.12
525.189	32972.81
525.391	33110.02
525.592	33275.91
525.794	33308.68
525.995	33806.33
526.197	33835
526.398	33740.8
526.6	33941.5
526.801	34250.74
527.003	34336.76
527.204	34437.11
527.406	34648.05
527.607	34555.89
527.808	35051.5
528.01	34328.56
528.211	34770.93
528.412	35557.35
528.614	35250.15
528.815	35078.12
529.016	35850.2
529.218	35235.81
529.419	35676.13
529.62	35610.59
529.822	35543.01
530.023	35817.44
530.224	35663.84
530.425	35917.79
530.626	35547.11
530.828	35571.68
531.029	36259.8
531.23	36016.09
531.431	36040.67
531.632	36435.92
531.833	36351.96
532.035	36210.65
532.236	36308.95
532.437	36767.69
532.638	36204.5
532.839	36392.92
533.04	36417.49
533.241	36206.55
533.442	36843.47
533.643	36759.5
533.844	36827.09
534.045	36863.95
534.246	36456.4
534.447	36634.58
534.648	36712.4
534.849	36786.13
535.05	36679.63
535.251	36827.09
535.451	37017.55
535.652	36802.51
535.853	37048.27
536.054	36933.58
536.255	37001.16
536.456	36444.12
536.657	37324.74
536.857	36536.27
537.058	36499.41
537.259	37543.88
537.46	36874.19
537.66	36718.54
537.861	37009.36
538.062	36454.36
538.263	36958.16
538.463	36622.29
538.664	37220.3
538.865	36839.37
539.065	37449.67
539.266	36710.35
539.466	37251.02
539.667	36765.65
539.868	37451.72
540.068	36986.83
540.269	37003.21
540.469	36937.68
540.67	36939.72
540.87	36822.99
541.071	36806.61
541.271	37187.53
541.472	36964.3
541.672	36562.9
541.873	36761.55
542.073	36458.45
542.274	37015.5
542.474	36435.92
542.675	36880.33
542.875	37050.31
543.075	37042.12
543.276	36444.12
543.476	37142.47
543.676	36468.69
543.877	36904.91
544.077	36851.66
544.277	36888.53
544.478	36876.24
544.678	37203.91
544.878	36638.67
545.078	36968.4
545.279	36552.66
545.479	36556.75
545.679	36902.86
545.879	36863.95
546.079	36904.91
546.28	36822.99
546.48	36308.95
546.68	36769.74
546.88	36560.85
547.08	36693.97
547.28	36489.17
547.48	36231.13
547.68	36493.27
547.88	36411.35
548.081	36687.82
548.281	36761.55
548.481	36480.98
548.681	36769.74
548.881	36573.14
549.081	36411.35
549.28	36458.45
549.48	36923.34
549.68	36440.02
549.88	36851.66
550.08	36480.98
550.28	36577.23
550.48	36372.44
550.68	36736.98
550.88	36151.26
551.08	36552.66
551.279	36388.82
551.479	36179.93
551.679	36124.63
551.879	36454.36
552.079	36368.34
552.278	35825.63
552.478	36298.71
552.678	36411.35
552.878	36698.06
553.077	36294.61
553.277	36009.95
553.477	36929.48
553.676	36104.15
553.876	36202.46
554.076	36007.9
554.275	35684.32
554.475	35495.91
554.674	36558.8
554.874	36296.66
555.074	35891.16
555.273	35622.88
555.473	36087.77
555.672	35860.44
555.872	36050.91
556.071	35618.78
556.271	35979.23
556.47	36016.09
556.67	35389.41
556.869	35463.14
557.068	35919.84
557.268	35375.08
557.467	35495.91
557.667	35424.23
557.866	35405.8
558.065	35489.76
558.265	35377.12
558.464	35012.59
558.663	35184.62
558.863	34906.09
559.062	35459.04
559.261	34662.38
559.461	35223.53
559.66	34684.91
559.859	35012.59
560.058	34785.26
560.258	34818.03
560.457	34209.78
560.656	34756.59
560.855	34818.03
561.054	34506.74
561.253	34445.3
561.453	34557.94
561.652	34406.39
561.851	34443.25
562.05	34215.93
562.249	34326.52
562.448	34504.69
562.647	33808.38
562.846	34017.27
563.045	33947.64
563.244	33738.75
563.443	34154.49
563.642	33564.67
563.841	33732.61
564.04	33509.38
564.239	34058.23
564.438	33511.42
564.637	33499.14
564.836	33703.93
565.035	33345.54
565.234	33497.09
565.432	33452.03
565.631	33071.11
565.83	33144.84
566.029	32774.16
566.228	32976.9
566.427	32311.31
566.625	32759.82
566.824	32366.61
567.023	32702.48
567.222	32118.81
567.42	32442.38
567.619	32104.47
567.818	31940.63
568.016	32192.53
568.215	32092.18
568.414	31885.34
568.612	32350.23
568.811	32110.61
569.01	31639.58
569.208	31518.75
569.407	31776.8
569.605	31332.39
569.804	31461.41
570.002	31186.98
570.201	31475.74
570.4	31184.93
570.598	31076.39
570.797	30965.8
570.995	31301.67
571.193	30386.22
571.392	31121.45
571.59	30752.81
571.789	30728.24
571.987	30576.69
572.186	30636.08
572.384	30294.07
572.582	30588.97
572.781	30076.98
572.979	30089.27
573.177	30249.01
573.376	30052.41
573.574	29898.81
573.772	29986.87
573.971	29685.82
574.169	29724.73
574.367	29501.5
574.565	29632.57
574.763	29507.65
574.962	29061.19
575.16	29182.02
575.358	29356.1
575.556	28975.17
575.754	29376.58
575.952	29118.53
576.151	28993.61
576.349	28653.64
576.547	28753.99
576.745	29163.59
576.943	28727.37
577.141	28702.79
577.339	28498
577.537	28598.35
577.735	28168.27
577.933	28104.79
578.131	28229.71
578.329	27957.33
578.527	28074.07
578.725	27822.17
578.923	28102.74
579.121	27471.96
579.319	27557.98
579.516	27727.96
579.714	27572.32
579.912	27314.27
580.11	27357.28
580.308	27615.32
580.506	27273.31
580.704	27005.03
580.901	27390.05
581.099	27248.74
581.297	26632.3
581.495	26929.25
581.692	26847.33
581.89	26730.6
582.088	26783.85
582.285	26703.98
582.483	26660.97
582.681	26613.87
582.878	26632.3
583.076	26120.31
583.274	26599.53
583.471	25987.19
583.669	26185.84
583.866	25927.8
584.064	26302.57
584.262	25794.68
584.459	25892.98
584.657	25743.48
584.854	26110.07
585.052	25055.36
585.249	25727.1
585.447	25628.79
585.644	25147.52
585.841	25591.93
586.039	25475.2
586.236	25014.4
586.434	25510.01
586.631	24885.38
586.828	25239.68
587.026	25180.29
587.223	24721.54
587.42	24733.83
587.618	24526.99
587.815	24635.53
588.012	24680.58
588.21	24434.83
588.407	24459.4
588.604	24461.45
588.801	24137.87
588.999	24336.52
589.196	24162.45
589.393	24400.01
589.59	23990.42
589.787	23830.68
589.984	23789.72
590.182	23642.26
590.379	23812.24
590.576	23767.19
590.773	23523.48
590.97	23480.47
591.167	23687.32
591.364	23328.92
591.561	23339.16
591.758	23275.68
591.955	23175.33
592.152	23136.41
592.349	23054.5
592.546	23165.09
592.743	22997.15
592.94	22579.37
593.137	22751.4
593.334	22937.76
593.531	22536.36
593.727	22708.39
593.924	22655.14
594.121	22284.46
594.318	22554.79
594.515	22247.6
594.712	22483.11
594.908	22347.95
595.105	22022.32
595.302	21815.48
595.499	22317.23
595.696	21788.85
595.892	21569.72
596.089	22159.53
596.286	21954.74
596.482	21743.8
596.679	21508.28
596.876	21774.52
597.072	21641.4
597.269	21348.54
597.466	21299.39
597.662	21465.27
597.859	21444.79
598.055	21223.61
598.252	21090.49
598.448	21151.93
598.645	20900.03
598.841	20865.22
599.038	20783.3
599.234	20908.22
599.431	20685
599.627	20701.38
599.824	20986.05
600.02	20287.69
600.217	20918.46
600.413	20406.47
600.609	20195.53
600.806	20230.35
601.002	20406.47
601.198	20207.82
601.395	20072.65
601.591	19794.13
601.787	20461.77
601.984	19798.23
602.18	20005.07
602.376	19671.25
602.572	19931.34
602.769	19525.85
602.965	19433.69
603.161	19675.35
603.357	19497.17
603.553	19122.4
603.75	19548.37
603.946	19075.29
604.142	19298.52
604.338	19042.53
604.534	19065.05
604.73	19067.1
604.926	18956.51
605.122	19089.63
605.318	19034.33
605.514	18702.56
605.71	18976.99
605.906	18518.25
606.102	18673.89
606.298	18917.6
606.494	18780.39
606.69	18729.19
606.886	18790.63
607.082	18182.38
607.278	18223.34
607.474	18460.9
607.67	18458.85
607.866	18264.3
608.062	18518.25
608.257	18059.5
608.453	17916.14
608.649	18004.21
608.845	18200.81
609.041	17813.74
609.236	18057.45
609.432	17819.89
609.628	17883.38
609.824	18000.11
610.019	17699.06
610.215	17879.28
610.411	17672.43
610.606	17651.95
610.802	17672.43
610.998	17807.6
611.193	17541.36
611.389	17563.89
611.584	17395.96
611.78	17475.83
611.976	17344.76
612.171	17410.29
612.367	17484.02
612.562	17213.69
612.758	17170.68
612.953	17142.01
613.149	17537.27
613.344	17236.22
613.539	17576.18
613.735	17105.15
613.93	16920.83
614.126	17131.77
614.321	17303.8
614.517	17242.36
614.712	16972.03
614.907	16867.58
615.103	17047.8
615.298	16853.25
615.493	16916.73
615.688	16572.68
615.884	17021.18
616.079	16480.52
616.274	16843.01
616.47	16562.44
616.665	16849.15
616.86	16525.57
617.055	16597.25
617.25	16556.29
617.445	16656.64
617.641	16302.34
617.836	16634.11
618.031	16130.31
618.226	16449.8
618.421	16136.46
618.616	16441.61
618.811	16089.35
619.006	16320.77
619.201	15778.06
619.396	15937.8
619.591	15872.27
619.786	15960.33
619.981	15724.82
620.176	15810.83
620.371	15438.1
620.566	15534.35
620.761	15354.13
620.956	15687.95
621.151	15255.83
621.346	15304.98
621.541	15354.13
621.735	15192.34
621.93	14965.02
622.125	14981.4
622.32	14758.17
622.515	14997.79
622.709	14946.59
622.904	14598.43
623.099	14686.5
623.294	14809.37
623.488	14301.48
623.683	14592.29
623.878	14313.77
624.072	14192.94
624.267	14248.23
624.462	14324.01
624.656	13836.59
624.851	14057.77
625.046	13887.79
625.24	13619.5
625.435	13666.61
625.629	13781.29
625.824	13519.15
626.018	13715.76
626.213	13445.43
626.407	13359.41
626.602	13214.01
626.796	13412.66
626.991	13285.69
627.185	13322.55
627.38	12833.08
627.574	12998.97
627.768	12673.34
627.963	12927.29
628.157	12593.47
628.352	12790.08
628.546	12456.26
628.74	12708.16
628.935	12603.71
629.129	12697.92
629.323	12269.89
629.517	12300.61
629.712	12140.87
629.906	12169.54
630.1	12132.68
630.294	12126.53
630.489	12126.53
630.683	12085.58
630.877	11796.81
631.071	11542.86
631.265	11751.76
631.459	11536.72
631.653	11540.82
631.848	11440.47
632.042	11446.61
632.236	11499.86
632.43	11391.31
632.624	11411.79
632.818	11260.24
633.012	11274.58
633.206	11082.07
633.4	11237.72
633.594	10852.7
633.788	11016.54
633.982	10879.32
634.176	10877.27
634.369	10879.32
634.563	10750.3
634.757	10617.18
634.951	10877.27
635.145	10490.21
635.339	10625.37
635.533	10469.73
635.726	10439.01
635.92	10180.96
636.114	10170.72
636.308	10477.92
636.501	10275.17
636.695	10131.81
636.889	9867.63
637.083	10084.71
637.276	10062.18
637.47	9857.39
637.664	9896.3
637.857	9986.41
638.051	9746.8
638.244	9630.06
638.438	9658.73
638.632	9828.71
638.825	9363.83
639.019	9603.44
639.212	9501.04
639.406	9476.46
639.599	9515.37
639.793	9247.09
639.986	9374.06
640.18	9380.21
640.373	9097.59
640.567	9144.69
640.76	9238.9
640.954	9001.33
641.147	9019.77
641.34	8937.85
641.534	8794.49
641.727	8925.56
641.92	8864.12
642.114	8802.68
642.307	8907.13
642.5	8655.23
642.694	8655.23
642.887	8567.17
643.08	8518.01
643.273	8483.2
643.467	8597.88
643.66	8401.28
643.853	8278.4
644.046	8079.75
644.239	8247.68
644.432	8432
644.626	8128.9
644.819	8243.59
645.012	8120.71
645.205	8067.46
645.398	8165.76
645.591	7790.99
645.784	8001.93
645.977	7825.8
646.17	7971.21
646.363	7657.87
646.556	7594.38
646.749	7707.02
646.942	7700.87
647.135	7446.93
647.328	7664.01
647.521	7434.64
647.714	7235.99
647.907	7596.43
648.099	7418.25
648.292	7352.72
648.485	7299.47
648.678	7182.74
648.871	7027.09
649.064	7250.32
649.256	7100.82
649.449	7125.4
649.642	7188.88
649.835	7092.63
650.027	6949.27
650.22	7004.57
650.413	6932.89
650.605	6871.45
650.798	6865.3
650.991	6723.99
651.183	7076.24
651.376	6648.22
651.568	6785.43
651.761	6629.79
651.954	6840.73
652.146	6697.37
652.339	6685.08
652.531	6707.61
652.724	6566.3
652.916	6441.37
653.109	6371.74
653.301	6291.87
653.494	6551.96
653.686	6392.22
653.879	6431.13
654.071	6148.51
654.263	6203.81
654.456	6164.9
654.648	6218.15
654.84	6109.6
655.033	6078.88
655.225	6107.55
655.417	5990.82
655.61	6044.07
655.802	6046.12
655.994	5908.9
656.186	6027.68
656.379	5980.58
656.571	5990.82
656.763	5788.07
656.955	5775.78
657.148	5884.33
657.34	5704.1
657.532	5683.63
657.724	5728.68
657.916	5730.73
658.108	5687.72
658.3	5556.65
658.492	5753.26
658.684	5618.09
658.876	5607.85
659.068	5441.96
659.26	5511.6
659.452	5333.42
659.644	5355.95
659.836	5370.29
660.028	5423.53
660.22	5204.4
660.412	5382.57
660.604	5341.61
660.796	5300.66
660.988	5118.39
661.18	5222.83
661.372	5204.4
661.563	5188.02
661.755	5157.3
661.947	5073.33
662.139	4985.27
662.331	5142.96
662.522	4966.84
662.714	5116.34
662.906	4917.68
663.097	5034.42
663.289	4778.42
663.481	4874.68
663.673	4813.24
663.864	4794.81
664.056	4788.66
664.247	4807.09
664.439	4684.22
664.631	4846.01
664.822	4858.29
665.014	4700.6
665.205	4600.25
665.397	4614.59
665.588	4579.77
665.78	4547
665.971	4522.43
666.163	4565.43
666.354	4606.39
666.546	4532.67
666.737	4456.89
666.929	4501.95
667.12	4440.51
667.311	4501.95
667.503	4606.39
667.694	4426.17
667.885	4321.73
668.077	4233.66
668.268	4278.72
668.459	4424.12
668.651	4217.28
668.842	4155.84
669.033	4250.05
669.224	4284.86
669.416	4161.98
669.607	4250.05
669.798	4311.49
669.989	4051.39
670.18	4278.72
670.371	4096.45
670.563	4028.87
670.754	4080.07
670.945	4108.74
671.136	4092.35
671.327	4032.96
671.518	3961.28
671.709	4012.48
671.9	4024.77
672.091	3942.85
672.282	4008.39
672.473	3930.56
672.664	3897.8
672.855	3809.73
673.046	3912.13
673.237	3918.28
673.428	3858.89
673.619	3951.04
673.809	3887.56
674	3729.86
674.191	3840.45
674.382	3705.29
674.573	3566.03
674.764	3703.24
674.954	3678.66
675.145	3668.42
675.336	3676.62
675.527	3758.53
675.717	3682.76
675.908	3766.73
676.099	3781.06
676.289	3563.98
676.48	3723.72
676.671	3537.35
676.861	3586.51
677.052	3574.22
677.243	3484.11
677.433	3609.03
677.624	3688.9
677.814	3559.88
678.005	3561.93
678.195	3553.74
678.386	3594.7
678.576	3606.98
678.767	3516.87
678.957	3621.32
679.148	3508.68
679.338	3490.25
679.529	3426.76
679.719	3410.38
679.909	3527.11
680.1	3369.42
680.29	3387.85
680.481	3373.52
680.671	3406.28
680.861	3357.13
681.052	3439.05
681.242	3293.65
681.432	3396.04
681.622	3285.45
681.813	3269.07
682.003	3312.08
682.193	3279.31
682.383	3267.02
682.573	3367.37
682.764	3269.07
682.954	3406.28
683.144	3295.69
683.334	3320.27
683.524	3312.08
683.714	3301.84
683.904	3127.76
684.094	3205.58
684.284	3221.97
684.474	3295.69
684.664	3230.16
684.854	3203.54
685.044	3185.1
685.234	3258.83
685.424	3170.77
685.614	3140.05
685.804	3207.63
685.994	3187.15
686.184	3152.34
686.374	3189.2
686.564	3097.04
686.753	3092.94
686.943	3049.94
687.133	3082.7
687.323	3160.53
687.513	2929.11
687.702	2892.24
687.892	3056.08
688.082	2970.07
688.272	2980.31
688.461	2871.76
688.651	2939.35
688.841	2939.35
689.03	2894.29
689.22	3000.79
689.41	2853.33
689.599	2820.56
689.789	3086.8
689.979	2894.29
690.168	2873.81
690.358	2779.61
690.547	2787.8
690.737	2918.87
690.926	2771.41
691.116	2677.21
691.305	2757.08
691.495	2867.67
691.684	2834.9
691.874	2847.19
692.063	2748.89
692.252	2795.99
692.442	2752.98
692.631	2726.36
692.82	2800.09
693.01	2662.87
693.199	2621.91
693.388	2656.73
693.578	2472.41
693.767	2662.87
693.956	2671.06
694.146	2656.73
694.335	2626.01
694.524	2554.33
694.713	2552.28
694.902	2650.58
695.092	2591.19
695.281	2605.53
695.47	2607.58
695.659	2617.82
695.848	2519.51
696.037	2630.1
696.226	2531.8
696.415	2574.81
696.604	2605.53
696.793	2470.36
696.982	2439.64
697.171	2492.89
697.36	2552.28
697.549	2656.73
697.738	2478.55
697.927	2447.83
698.116	2548.19
698.305	2449.88
698.494	2486.75
698.683	2470.36
698.872	2589.14
699.061	2341.34
699.25	2544.09
699.438	2378.2
699.627	2439.64
699.816	2441.69
700.005	2523.61
700.193	2466.27
700.382	2496.99
700.571	2417.12
700.76	2466.27
700.948	2462.17
701.137	2517.47
701.326	2570.71
701.514	2458.07
701.703	2529.75
701.892	2546.14
702.08	2603.48
702.269	2447.83
702.457	2468.31
702.646	2341.34
702.834	2406.88
703.023	2492.89
703.212	2562.52
703.4	2542.04
703.589	2419.16
703.777	2408.92
703.965	2552.28
704.154	2521.56
704.342	2458.07
704.531	2363.87
704.719	2507.23
704.907	2472.41
705.096	2378.2
705.284	2413.02
705.472	2361.82
705.661	2433.5
705.849	2617.82
706.037	2505.18
706.226	2480.6
706.414	2505.18
706.602	2496.99
706.79	2445.79
706.979	2558.42
707.167	2372.06
707.355	2447.83
707.543	2361.82
707.731	2595.29
707.919	2415.07
708.107	2501.08
708.296	2451.93
708.484	2546.14
708.672	2410.97
708.86	2462.17
709.048	2218.46
709.236	2578.9
709.424	2464.22
709.612	2425.31
709.8	2503.13
709.988	2501.08
710.176	2408.92
710.364	2410.97
710.551	2456.03
710.739	2439.64
710.927	2329.05
711.115	2421.21
711.303	2519.51
711.491	2425.31
711.679	2406.88
711.866	2429.4
712.054	2486.75
712.242	2384.35
712.43	2433.5
712.617	2413.02
712.805	2453.98
712.993	2419.16
713.181	2349.53
713.368	2415.07
713.556	2392.54
713.744	2370.01
713.931	2384.35
714.119	2284
714.306	2562.52
714.494	2402.78
714.682	2400.73
714.869	2365.92
715.057	2413.02
715.244	2294.24
715.432	2527.71
715.619	2482.65
715.807	2357.72
715.994	2359.77
716.182	2392.54
716.369	2392.54
716.556	2443.74
716.744	2384.35
716.931	2263.52
717.119	2503.13
717.306	2374.11
717.493	2324.96
717.681	2351.58
717.868	2406.88
718.055	2361.82
718.242	2308.57
718.43	2421.21
718.617	2343.39
718.804	2419.16
718.991	2333.15
719.179	2415.07
719.366	2286.05
719.553	2468.31
719.74	2400.73
719.927	2359.77
720.114	2376.16
720.301	2279.9
720.488	2451.93
720.676	2322.91
720.863	2406.88
721.05	2425.31
721.237	2353.63
721.424	2410.97
721.611	2496.99
721.798	2431.45
721.985	2347.48
722.172	2496.99
722.358	2359.77
722.545	2478.55
722.732	2314.72
722.919	2316.76
723.106	2410.97
723.293	2396.64
723.48	2320.86
723.667	2415.07
723.853	2296.28
724.04	2488.79
724.227	2339.29
724.414	2197.98
724.6	2357.72
724.787	2357.72
724.974	2322.91
725.161	2292.19
725.347	2263.52
725.534	2384.35
725.72	2388.44
725.907	2372.06
726.094	2400.73
726.28	2208.22
726.467	2333.15
726.653	2425.31
726.84	2427.35
727.027	2413.02
727.213	2390.49
727.4	2345.44
727.586	2443.74
727.773	2390.49
727.959	2294.24
728.145	2320.86
728.332	2290.14
728.518	2353.63
728.705	2322.91
728.891	2277.85
729.077	2374.11
729.264	2306.52
729.45	2417.12
729.636	2470.36
729.823	2398.68
730.009	2296.28
730.195	2355.68
730.382	2202.08
730.568	2402.78
730.754	2408.92
730.94	2355.68
731.126	2447.83
731.313	2339.29
731.499	2437.59
731.685	2230.75
731.871	2363.87
732.057	2263.52
732.243	2376.16
732.429	2310.62
732.615	2304.48
732.801	2263.52
732.987	2400.73
733.173	2400.73
733.359	2324.96
733.545	2316.76
733.731	2259.42
733.917	2290.14
734.103	2370.01
734.289	2296.28
734.475	2388.44
734.661	2361.82
734.847	2267.61
735.033	2353.63
735.219	2292.19
735.404	2347.48
735.59	2245.09
735.776	2232.8
735.962	2243.04
736.148	2316.76
736.333	2372.06
736.519	2165.21
736.705	2251.23
736.89	2247.13
737.076	2296.28
737.262	2306.52
737.447	2234.85
737.633	2249.18
737.819	2259.42
738.004	2173.41
738.19	2214.37
738.375	2142.69
738.561	2214.37
738.747	2261.47
738.932	2138.59
739.118	2154.98
739.303	2230.75
739.489	2308.57
739.674	2312.67
739.859	2171.36
740.045	2136.54
740.23	2163.17
740.416	2103.78
740.601	2120.16
740.786	2179.55
740.972	2163.17
741.157	2187.74
741.342	2101.73
741.528	2208.22
741.713	2204.13
741.898	1999.33
742.084	2101.73
742.269	2120.16
742.454	2089.44
742.639	2062.82
742.824	2105.82
743.01	2109.92
743.195	2079.2
743.38	2030.05
743.565	2052.58
743.75	2001.38
743.935	2046.43
744.12	2058.72
744.305	1976.8
744.49	1991.14
744.675	1958.37
744.86	1987.04
745.045	1974.75
745.23	1991.14
745.415	1935.84
745.6	2003.43
745.785	1982.95
745.97	1980.9
746.155	1874.4
746.34	1860.07
746.525	1931.75
746.71	1999.33
746.895	1866.21
747.079	1831.4
747.264	1907.17
747.449	1929.7
747.634	1870.31
747.819	1882.6
748.003	1802.72
748.188	1829.35
748.373	1849.83
748.557	1896.93
748.742	1788.39
748.927	1769.96
749.111	1800.68
749.296	1767.91
749.481	1772
749.665	1735.14
749.85	1718.76
750.034	1677.8
750.219	1667.56
750.404	1718.76
750.588	1581.54
750.773	1585.64
750.957	1726.95
751.141	1679.85
751.326	1685.99
751.51	1700.33
751.695	1591.78
751.879	1659.37
752.064	1628.65
752.248	1591.78
752.432	1640.93
752.617	1688.04
752.801	1550.82
752.985	1556.97
753.17	1473
753.354	1528.3
753.538	1636.84
753.722	1522.15
753.907	1602.02
754.091	1489.39
754.275	1509.86
754.459	1481.19
754.643	1491.43
754.828	1460.71
755.012	1458.67
755.196	1454.57
755.38	1350.12
755.564	1423.85
755.748	1360.36
755.932	1386.99
756.116	1417.71
756.3	1403.37
756.484	1405.42
756.668	1350.12
756.852	1360.36
757.036	1307.12
757.22	1374.7
757.404	1315.31
757.588	1327.6
757.772	1331.69
757.956	1282.54
758.14	1247.72
758.323	1282.54
758.507	1235.44
758.691	1290.73
758.875	1264.11
759.059	1298.92
759.242	1219.05
759.426	1296.88
759.61	1260.01
759.794	1204.72
759.977	1309.16
760.161	1255.92
760.345	1237.49
760.528	1194.48
760.712	1159.66
760.895	1208.81
761.079	1128.94
761.263	1118.7
761.446	1104.37
761.63	1217.01
761.813	1151.47
761.997	1231.34
762.18	1153.52
762.364	1124.85
762.547	1069.55
762.731	1034.74
762.914	1065.46
763.098	1087.98
763.281	1063.41
763.464	1128.94
763.648	1102.32
763.831	1006.06
764.015	1057.26
764.198	1223.15
764.381	1114.61
764.564	1161.71
764.748	1137.13
764.931	1036.78
765.114	1087.98
765.297	1028.59
765.481	1006.06
765.664	1028.59
765.847	1073.65
766.03	1008.11
766.213	1094.13
766.397	1038.83
766.58	948.72
766.763	1014.26
766.946	987.63
767.129	993.78
767.312	1012.21
767.495	993.78
767.678	985.58
767.861	1055.22
768.044	971.25
768.227	1020.4
768.41	1022.45
768.593	948.72
768.776	932.34
768.959	938.48
769.142	1006.06
769.324	950.77
769.507	956.91
769.69	940.53
769.873	946.67
770.056	944.63
770.239	1016.3
770.421	891.38
770.604	866.8
770.787	973.3
770.97	948.72
771.152	965.11
771.335	899.57
771.518	883.19
771.7	817.65
771.883	934.39
772.066	895.47
772.248	950.77
772.431	854.51
772.613	831.99
772.796	903.67
772.978	897.52
773.161	807.41
773.343	924.15
773.526	854.51
773.708	825.84
773.891	772.6
774.073	879.09
774.256	817.65
774.438	827.89
774.621	819.7
774.803	772.6
774.985	782.84
775.168	844.28
775.35	782.84
775.532	784.88
775.715	756.21
775.897	741.88
776.079	705.01
776.261	778.74
776.444	723.44
776.626	737.78
776.808	729.59
776.99	805.36
777.173	725.49
777.355	668.15
777.537	801.27
777.719	657.91
777.901	735.73
778.083	690.68
778.265	645.62
778.447	707.06
778.629	788.98
778.811	637.43
778.993	725.49
779.175	573.94
779.357	748.02
779.539	698.87
779.721	725.49
779.903	713.21
780.085	705.01
780.267	682.49
780.449	635.38
780.631	614.9
780.812	692.73
780.994	547.32
781.176	600.57
781.358	528.89
781.54	551.42
781.721	616.95
781.903	571.9
782.085	541.18
782.267	569.85
782.448	502.26
782.63	514.55
782.812	612.85
782.993	602.61
783.175	494.07
783.357	586.23
783.538	559.61
783.72	557.56
783.901	604.66
784.083	535.03
784.264	506.36
784.446	545.27
784.627	496.12
784.809	516.6
784.99	461.3
785.172	485.88
785.353	514.55
785.535	471.54
785.716	481.78
785.897	516.6
786.079	520.7
786.26	506.36
786.441	451.07
786.623	401.91
786.804	442.87
786.985	479.74
787.167	463.35
787.348	399.87
787.529	399.87
787.71	430.59
787.891	444.92
788.073	487.93
788.254	453.11
788.435	440.83
788.616	475.64
788.797	365.05
788.978	428.54
789.159	389.63
789.34	442.87
789.522	367.1
789.703	365.05
789.884	395.77
790.065	371.19
790.246	383.48
790.427	311.8
790.607	463.35
790.788	375.29
790.969	363
791.15	408.06
791.331	436.73
791.512	344.57
791.693	363
791.874	389.63
792.054	381.43
792.235	424.44
792.416	307.71
792.597	352.76
792.778	420.35
792.958	360.95
793.139	363
793.32	395.77
793.5	305.66
793.681	342.52
793.862	420.35
794.042	426.49
794.223	365.05
794.404	299.52
794.584	291.32
794.765	354.81
794.945	410.11
795.126	307.71
795.306	377.34
795.487	354.81
795.667	305.66
795.848	317.95
796.028	287.23
796.209	399.87
796.389	344.57
796.57	324.09
796.75	190.97
796.93	401.91
797.111	324.09
797.291	250.36
797.471	391.67
797.652	287.23
797.832	248.32
798.012	279.04
798.192	289.28
798.373	252.41
798.553	295.42
798.733	283.13
798.913	260.6
799.093	336.38
799.274	262.65
799.454	301.56
799.634	305.66
799.814	193.02
799.994	276.99
800.174	279.04
800.354	276.99
800.534	229.88
800.714	295.42
800.894	221.69
801.074	162.3
801.254	279.04
801.434	252.41
801.614	238.08
801.794	250.36
801.974	580.09
802.154	240.12
802.334	281.08
802.514	223.74
802.693	260.6
802.873	246.27
803.053	213.5
803.233	270.84
803.413	164.35
803.592	213.5
803.772	266.75
803.952	117.25
804.131	240.12
804.311	166.4
804.491	293.37
804.67	268.8
804.85	184.83
805.03	231.93
805.209	236.03
805.389	184.83
805.568	197.12
805.748	264.7
805.928	246.27
806.107	236.03
806.287	166.4
806.466	238.08
806.646	248.32
806.825	199.16
807.004	150.01
807.184	231.93
807.363	207.36
807.543	133.63
807.722	244.22
807.901	207.36
808.081	203.26
808.26	168.45
808.439	260.6
808.619	221.69
808.798	180.73
808.977	184.83
809.156	244.22
809.336	215.55
809.515	227.84
809.694	176.64
809.873	270.84
810.052	197.12
810.231	207.36
810.411	186.88
810.59	276.99
810.769	225.79
810.948	219.64
811.127	152.06
811.306	133.63
811.485	141.82
811.664	236.03
811.843	117.25
812.022	172.54
812.201	150.01
812.38	195.07
812.559	178.69
812.737	156.16
812.916	111.1
813.095	186.88
813.274	180.73
813.453	199.16
813.632	168.45
813.811	137.73
813.989	57.86
814.168	207.36
814.347	160.25
814.526	137.73
814.704	164.35
814.883	219.64
815.062	82.43
815.24	129.53
815.419	137.73
815.598	182.78
815.776	193.02
815.955	172.54
816.133	160.25
816.312	121.34
816.49	104.96
816.669	129.53
816.847	166.4
817.026	213.5
817.204	139.77
817.383	199.16
817.561	111.1
817.74	80.38
817.918	143.87
818.097	203.26
818.275	150.01
818.453	174.59
818.632	135.68
818.81	231.93
818.988	119.29
819.167	80.38
819.345	180.73
819.523	125.44
819.701	55.81
819.879	129.53
820.058	121.34
820.236	170.49
820.414	139.77
820.592	43.52
820.77	111.1
820.948	133.63
821.127	117.25
821.305	166.4
821.483	109.05
821.661	164.35
821.839	170.49
822.017	147.97
822.195	141.82
822.373	125.44
822.551	172.54
822.729	201.21
822.907	195.07
823.085	143.87
823.262	219.64
823.44	123.39
823.618	145.92
823.796	107.01
823.974	64
824.152	141.82
824.329	96.77
824.507	80.38
824.685	84.48
824.863	102.91
825.04	88.57
825.218	137.73
825.396	141.82
825.574	107.01
825.751	115.2
825.929	135.68
826.107	119.29
826.284	147.97
826.462	162.3
826.639	55.81
826.817	104.96
826.994	139.77
827.172	80.38
827.349	113.15
827.527	78.33
827.704	137.73
827.882	186.88
828.059	98.81
828.237	72.19
828.414	94.72
828.591	57.86
828.769	100.86
828.946	109.05
829.124	86.53
829.301	170.49
829.478	121.34
829.655	104.96
829.833	139.77
830.01	84.48
830.187	39.42
830.364	59.9
830.542	57.86
830.719	53.76
830.896	133.63
831.073	109.05
831.25	119.29
831.427	64
831.604	64
831.782	41.47
831.959	125.44
832.136	86.53
832.313	104.96
832.49	119.29
832.667	115.2
832.844	121.34
833.021	100.86
833.198	86.53
833.374	160.25
833.551	147.97
833.728	53.76
833.905	96.77
834.082	45.57
834.259	51.71
834.436	111.1
834.612	37.38
834.789	55.81
834.966	129.53
835.143	135.68
835.319	14.85
835.496	131.58
835.673	129.53
835.85	109.05
836.026	96.77
836.203	111.1
836.38	51.71
836.556	102.91
836.733	121.34
836.909	90.62
837.086	66.05
837.262	88.57
837.439	76.29
837.616	109.05
837.792	47.62
837.968	92.67
838.145	20.99
838.321	107.01
838.498	76.29
838.674	96.77
838.851	49.66
839.027	-26.11
839.203	94.72
839.38	27.14
839.556	68.09
839.732	150.01
839.909	102.91
840.085	100.86
840.261	-9.73
840.437	43.52
840.614	-1.54
840.79	49.66
840.966	147.97
841.142	31.23
841.318	55.81
841.494	78.33
841.671	55.81
841.847	47.62
842.023	88.57
842.199	82.43
842.375	6.66
842.551	84.48
842.727	121.34
842.903	53.76
843.079	-54.78
843.255	53.76
843.431	98.81
843.607	199.16
843.783	43.52
843.959	14.85
844.134	12.8
844.31	80.38
844.486	35.33
844.662	55.81
844.838	70.14
845.013	55.81
845.189	98.81
845.365	72.19
845.541	104.96
845.716	113.15
845.892	72.19
846.068	66.05
846.244	33.28
846.419	68.09
846.595	39.42
846.77	-36.35
846.946	133.63
847.122	125.44
847.297	-11.78
847.473	80.38
847.648	39.42
847.824	64
847.999	37.38
848.175	29.18
848.35	-15.87
848.526	23.04
848.701	8.7
848.876	66.05
849.052	-13.82
849.227	78.33
849.403	16.9
849.578	66.05
849.753	59.9
849.929	47.62
850.104	57.86
850.279	66.05
850.454	35.33
850.63	72.19
850.805	45.57
850.98	2.56
851.155	-11.78
851.33	37.38
851.505	53.76
851.681	43.52
851.856	64
852.031	61.95
852.206	55.81
852.381	29.18
852.556	31.23
852.731	10.75
852.906	82.43
853.081	125.44
853.256	51.71
853.431	39.42
853.606	43.52
853.781	51.71
853.956	-97.79
854.131	131.58
854.305	59.9
854.48	18.94
854.655	88.57
854.83	-22.02
855.005	72.19
855.18	86.53
855.354	76.29
855.529	16.9
855.704	156.16
855.879	92.67
856.053	16.9
856.228	23.04
856.403	29.18
856.577	49.66
856.752	78.33
856.926	39.42
857.101	23.04
857.276	8.7
857.45	-7.68
857.625	61.95
857.799	72.19
857.974	14.85
858.148	14.85
858.323	51.71
858.497	61.95
858.672	94.72
858.846	59.9
859.02	72.19
859.195	-9.73
859.369	14.85
859.543	-24.06
859.718	61.95
859.892	27.14
860.066	39.42
860.241	37.38
860.415	41.47
860.589	23.04
860.763	27.14
860.938	20.99
861.112	20.99
861.286	4.61
861.46	109.05
861.634	51.71
861.808	117.25
861.982	-9.73
862.157	16.9
862.331	64
862.505	29.18
862.679	-1.54
862.853	-5.63
863.027	47.62
863.201	20.99
863.375	37.38
863.549	29.18
863.722	76.29
863.896	102.91
864.07	86.53
864.244	2.56
864.418	14.85
864.592	10.75
864.766	14.85
864.939	-17.92
865.113	-5.63
865.287	27.14
865.461	10.75
865.634	64
865.808	55.81
865.982	53.76
866.156	-36.35
866.329	4.61
866.503	66.05
866.676	43.52
866.85	6.66
867.024	31.23
867.197	53.76
867.371	45.57
867.544	-5.63
867.718	-42.5
867.891	16.9
868.065	57.86
868.238	27.14
868.412	0.51
868.585	20.99
868.759	-15.87
868.932	68.09
869.105	55.81
869.279	25.09
869.452	80.38
869.625	-32.26
869.799	47.62
869.972	16.9
870.145	-11.78
870.319	66.05
870.492	102.91
870.665	14.85
870.838	6.66
871.011	-69.12
871.185	25.09
871.358	-34.3
871.531	55.81
871.704	51.71
871.877	-7.68
872.05	84.48
872.223	-34.3
872.396	-1.54
872.569	12.8
872.742	6.66
872.915	23.04
873.088	45.57
873.261	6.66
873.434	72.19
873.607	-22.02
873.78	66.05
873.953	-28.16
874.126	-85.5
874.299	84.48
874.471	23.04
874.644	55.81
874.817	10.75
874.99	2.56
875.163	72.19
875.335	88.57
875.508	-5.63
875.681	55.81
875.853	45.57
876.026	-36.35
876.199	23.04
876.371	8.7
876.544	10.75
876.717	27.14
876.889	-34.3
877.062	-22.02
877.234	45.57
877.407	45.57
877.579	-71.17
877.752	49.66
877.924	74.24
878.097	-32.26
878.269	45.57
878.442	-26.11
878.614	10.75
878.786	61.95
878.959	100.86
879.131	-67.07
879.303	10.75
879.476	41.47
879.648	55.81
879.82	59.9
879.993	31.23
880.165	25.09
880.337	-26.11
880.509	-26.11
880.681	0.51
880.854	-15.87
881.026	55.81
881.198	-9.73
881.37	39.42
881.542	47.62
881.714	55.81
881.886	6.66
882.058	-19.97
882.23	-22.02
882.402	-11.78
882.574	-7.68
882.746	78.33
882.918	-17.92
883.09	18.94
883.262	68.09
883.434	-22.02
883.606	27.14
883.778	-42.5
883.95	47.62
884.122	78.33
884.293	-30.21
884.465	-9.73
884.637	35.33
884.809	-5.63
884.98	4.61
885.152	37.38
885.324	72.19
885.496	43.52
885.667	37.38
885.839	-26.11
886.011	20.99
886.182	68.09
886.354	39.42
886.525	53.76
886.697	-30.21
886.869	-34.3
887.04	12.8
887.212	45.57
887.383	29.18
887.555	37.38
887.726	-56.83
887.897	-7.68
888.069	25.09
888.24	33.28
888.412	64
888.583	47.62
888.754	14.85
888.926	53.76
889.097	12.8
889.268	-1.54
889.44	23.04
889.611	31.23
889.782	12.8
889.953	-48.64
890.125	23.04
890.296	-5.63
890.467	31.23
890.638	8.7
890.809	-1.54
890.98	-73.21
891.151	27.14
891.323	29.18
891.494	84.48
891.665	-32.26
891.836	10.75
892.007	4.61
892.178	49.66
892.349	64
892.52	-38.4
892.691	-54.78
892.862	-1.54
893.032	-38.4
893.203	150.01
893.374	23.04
893.545	68.09
893.716	35.33
893.887	-40.45
894.057	-17.92
894.228	-32.26
894.399	43.52
894.57	14.85
894.74	-36.35
894.911	-69.12
895.082	-17.92
895.253	96.77
895.423	0.51
895.594	12.8
895.764	-26.11
895.935	-77.31
896.106	35.33
896.276	-5.63
896.447	-38.4
896.617	12.8
896.788	-77.31
896.958	2.56
897.129	-11.78
897.299	4.61
897.47	49.66
897.64	74.24
897.81	-44.54
897.981	88.57
898.151	-30.21
898.322	4.61
898.492	59.9
898.662	55.81
898.832	51.71
899.003	61.95
899.173	35.33
899.343	-26.11
899.513	2.56
