Data from USB4F104151__152__11-08-27-030.txt Node

Date: Wed Mar 12 11:08:27 EDT 2025
User: louis
Spectrometer: USB4F10415
Trigger mode: 4
Integration Time (sec): 2.000000E-2
Scans to average: 1
Electric dark correction enabled: true
Nonlinearity correction enabled: false
Boxcar width: 0
XAxis mode: Wavelengths
Number of Pixels in Spectrum: 3648
>>>>>Begin Spectral Data<<<<<
178.204	-38.23
178.424	-38.23
178.644	-38.23
178.864	-97.62
179.084	-111.96
179.304	23.21
179.524	-34.13
179.744	-32.08
179.964	6.83
180.184	-52.56
180.404	23.21
180.624	29.35
180.844	10.92
181.064	4.78
181.283	12.97
181.503	8.87
181.723	-1.37
181.943	45.74
182.163	-15.7
182.383	-1.37
182.602	10.92
182.822	80.55
183.042	-25.94
183.262	-7.51
183.482	12.97
183.701	31.4
183.921	60.07
184.141	-9.56
184.361	2.73
184.58	19.11
184.8	47.79
185.02	-11.61
185.239	8.87
185.459	-1.37
185.679	10.92
185.898	-5.46
186.118	25.26
186.338	12.97
186.557	84.65
186.777	15.02
186.997	-17.75
187.216	70.31
187.436	31.4
187.655	17.07
187.875	-27.99
188.095	6.83
188.314	4.78
188.534	-32.08
188.753	60.07
188.973	60.07
189.192	35.5
189.412	-36.18
189.631	60.07
189.851	-17.75
190.07	27.31
190.29	-7.51
190.509	33.45
190.729	-40.28
190.948	-1.37
191.168	84.65
191.387	17.07
191.607	31.4
191.826	-15.7
192.045	10.92
192.265	55.98
192.484	-34.13
192.704	62.12
192.923	10.92
193.142	60.07
193.362	25.26
193.581	2.73
193.8	15.02
194.02	2.73
194.239	21.16
194.458	-15.7
194.678	31.4
194.897	90.79
195.116	-7.51
195.335	-68.95
195.555	39.59
195.774	23.21
195.993	-23.89
196.212	-19.8
196.432	25.26
196.651	15.02
196.87	21.16
197.089	78.51
197.308	2.73
197.528	62.12
197.747	-17.75
197.966	-40.28
198.185	-21.85
198.404	17.07
198.623	6.83
198.842	62.12
199.062	31.4
199.281	0.68
199.5	10.92
199.719	-40.28
199.938	2.73
200.157	-5.46
200.376	-56.66
200.595	39.59
200.814	-25.94
201.033	15.02
201.252	21.16
201.471	0.68
201.69	-34.13
201.909	51.88
202.128	10.92
202.347	-25.94
202.566	-13.65
202.785	8.87
203.004	33.45
203.223	115.37
203.442	37.55
203.661	-25.94
203.879	62.12
204.098	-7.51
204.317	12.97
204.536	15.02
204.755	72.36
204.974	8.87
205.193	17.07
205.411	41.64
205.63	-5.46
205.849	45.74
206.068	82.6
206.287	92.84
206.505	35.5
206.724	53.93
206.943	-17.75
207.162	-48.47
207.381	-7.51
207.599	45.74
207.818	41.64
208.037	21.16
208.255	17.07
208.474	-89.43
208.693	-32.08
208.911	47.79
209.13	15.02
209.349	70.31
209.567	80.55
209.786	19.11
210.005	10.92
210.223	-25.94
210.442	2.73
210.661	-9.56
210.879	31.4
211.098	43.69
211.316	8.87
211.535	49.83
211.753	-3.41
211.972	-25.94
212.191	17.07
212.409	10.92
212.628	-13.65
212.846	-1.37
213.065	33.45
213.283	10.92
213.502	43.69
213.72	-50.52
213.938	43.69
214.157	-17.75
214.375	58.03
214.594	17.07
214.812	41.64
215.031	-25.94
215.249	-46.42
215.467	41.64
215.686	-15.7
215.904	107.18
216.122	35.5
216.341	86.7
216.559	-71
216.778	27.31
216.996	-38.23
217.214	-25.94
217.432	-27.99
217.651	31.4
217.869	-32.08
218.087	-30.04
218.306	-3.41
218.524	25.26
218.742	-114
218.96	45.74
219.179	10.92
219.397	55.98
219.615	6.83
219.833	6.83
220.051	-30.04
220.27	12.97
220.488	-34.13
220.706	31.4
220.924	8.87
221.142	21.16
221.36	39.59
221.578	-7.51
221.796	23.21
222.015	-60.76
222.233	78.51
222.451	-9.56
222.669	-13.65
222.887	27.31
223.105	39.59
223.323	-52.56
223.541	-13.65
223.759	-34.13
223.977	15.02
224.195	39.59
224.413	2.73
224.631	64.17
224.849	0.68
225.067	4.78
225.285	80.55
225.503	-11.61
225.721	6.83
225.939	27.31
226.157	33.45
226.375	129.7
226.592	12.97
226.81	-54.61
227.028	78.51
227.246	49.83
227.464	21.16
227.682	35.5
227.9	37.55
228.117	-7.51
228.335	21.16
228.553	-27.99
228.771	84.65
228.989	74.41
229.206	-30.04
229.424	105.13
229.642	2.73
229.86	-25.94
230.077	-32.08
230.295	27.31
230.513	64.17
230.731	-15.7
230.948	10.92
231.166	15.02
231.384	88.75
231.601	41.64
231.819	23.21
232.037	19.11
232.254	-19.8
232.472	117.42
232.689	31.4
232.907	25.26
233.125	-38.23
233.342	33.45
233.56	51.88
233.777	-5.46
233.995	-5.46
234.213	86.7
234.43	-3.41
234.648	39.59
234.865	43.69
235.083	51.88
235.3	49.83
235.518	49.83
235.735	25.26
235.953	19.11
236.17	10.92
236.388	31.4
236.605	-3.41
236.822	68.27
237.04	12.97
237.257	86.7
237.475	-40.28
237.692	47.79
237.909	-34.13
238.127	-36.18
238.344	45.74
238.562	17.07
238.779	21.16
238.996	-36.18
239.214	29.35
239.431	29.35
239.648	15.02
239.865	29.35
240.083	41.64
240.3	23.21
240.517	-83.28
240.735	64.17
240.952	53.93
241.169	-5.46
241.386	0.68
241.603	0.68
241.821	37.55
242.038	53.93
242.255	33.45
242.472	-19.8
242.689	58.03
242.907	35.5
243.124	58.03
243.341	-5.46
243.558	51.88
243.775	2.73
243.992	0.68
244.209	41.64
244.426	43.69
244.643	-44.37
244.86	-64.85
245.078	10.92
245.295	68.27
245.512	10.92
245.729	45.74
245.946	-23.89
246.163	2.73
246.38	70.31
246.597	21.16
246.814	-1.37
247.031	-46.42
247.248	45.74
247.464	39.59
247.681	35.5
247.898	45.74
248.115	-5.46
248.332	-23.89
248.549	78.51
248.766	-36.18
248.983	-40.28
249.2	2.73
249.417	8.87
249.633	10.92
249.85	-3.41
250.067	4.78
250.284	41.64
250.501	-52.56
250.717	45.74
250.934	8.87
251.151	-11.61
251.368	8.87
251.585	0.68
251.801	35.5
252.018	0.68
252.235	45.74
252.451	8.87
252.668	-21.85
252.885	68.27
253.102	-21.85
253.318	-25.94
253.535	-15.7
253.752	12.97
253.968	27.31
254.185	-13.65
254.401	0.68
254.618	-1.37
254.835	70.31
255.051	31.4
255.268	19.11
255.484	-3.41
255.701	-7.51
255.917	64.17
256.134	4.78
256.351	19.11
256.567	15.02
256.784	51.88
257	-66.9
257.217	25.26
257.433	4.78
257.65	49.83
257.866	0.68
258.082	17.07
258.299	-3.41
258.515	51.88
258.732	-48.47
258.948	31.4
259.165	-64.85
259.381	-66.9
259.597	4.78
259.814	10.92
260.03	37.55
260.246	29.35
260.463	53.93
260.679	60.07
260.895	-9.56
261.112	37.55
261.328	-19.8
261.544	-1.37
261.761	58.03
261.977	6.83
262.193	-91.48
262.409	25.26
262.626	23.21
262.842	88.75
263.058	19.11
263.274	27.31
263.49	45.74
263.707	45.74
263.923	6.83
264.139	-17.75
264.355	-13.65
264.571	68.27
264.787	19.11
265.004	41.64
265.22	35.5
265.436	17.07
265.652	6.83
265.868	66.22
266.084	-7.51
266.3	-32.08
266.516	-25.94
266.732	49.83
266.948	21.16
267.164	6.83
267.38	58.03
267.596	72.36
267.812	66.22
268.028	10.92
268.244	45.74
268.46	35.5
268.676	17.07
268.892	15.02
269.108	-13.65
269.324	-44.37
269.54	-68.95
269.756	37.55
269.972	-25.94
270.188	-21.85
270.403	-7.51
270.619	31.4
270.835	25.26
271.051	-21.85
271.267	84.65
271.483	27.31
271.698	19.11
271.914	39.59
272.13	90.79
272.346	-1.37
272.562	-79.19
272.777	12.97
272.993	-3.41
273.209	41.64
273.425	2.73
273.64	55.98
273.856	10.92
274.072	-5.46
274.287	-17.75
274.503	47.79
274.719	19.11
274.934	39.59
275.15	2.73
275.366	43.69
275.581	27.31
275.797	6.83
276.012	-13.65
276.228	-44.37
276.444	-3.41
276.659	47.79
276.875	64.17
277.09	51.88
277.306	35.5
277.521	33.45
277.737	-44.37
277.952	31.4
278.168	-27.99
278.383	72.36
278.599	-97.62
278.814	-11.61
279.03	-7.51
279.245	-17.75
279.461	35.5
279.676	-50.52
279.892	35.5
280.107	2.73
280.322	31.4
280.538	49.83
280.753	10.92
280.969	33.45
281.184	-13.65
281.399	-1.37
281.615	41.64
281.83	39.59
282.045	-40.28
282.26	8.87
282.476	-75.09
282.691	53.93
282.906	10.92
283.122	43.69
283.337	-5.46
283.552	-9.56
283.767	2.73
283.983	-50.52
284.198	35.5
284.413	33.45
284.628	29.35
284.843	-52.56
285.058	27.31
285.274	-13.65
285.489	78.51
285.704	12.97
285.919	-1.37
286.134	41.64
286.349	10.92
286.564	6.83
286.779	15.02
286.995	2.73
287.21	35.5
287.425	41.64
287.64	15.02
287.855	6.83
288.07	2.73
288.285	39.59
288.5	39.59
288.715	37.55
288.93	17.07
289.145	19.11
289.36	17.07
289.575	-50.52
289.79	60.07
290.004	-27.99
290.219	-5.46
290.434	23.21
290.649	29.35
290.864	23.21
291.079	17.07
291.294	-34.13
291.509	31.4
291.724	10.92
291.938	6.83
292.153	33.45
292.368	8.87
292.583	47.79
292.798	51.88
293.012	55.98
293.227	-11.61
293.442	55.98
293.657	17.07
293.871	29.35
294.086	-5.46
294.301	49.83
294.516	39.59
294.73	70.31
294.945	-62.8
295.16	37.55
295.374	27.31
295.589	51.88
295.804	23.21
296.018	-1.37
296.233	62.12
296.447	2.73
296.662	-11.61
296.877	33.45
297.091	0.68
297.306	6.83
297.52	0.68
297.735	25.26
297.949	29.35
298.164	25.26
298.378	6.83
298.593	12.97
298.807	62.12
299.022	-62.8
299.236	2.73
299.451	35.5
299.665	29.35
299.88	68.27
300.094	15.02
300.309	10.92
300.523	76.46
300.737	72.36
300.952	15.02
301.166	31.4
301.381	10.92
301.595	8.87
301.809	-60.76
302.024	-9.56
302.238	0.68
302.452	84.65
302.667	-30.04
302.881	-21.85
303.095	-19.8
303.309	53.93
303.524	64.17
303.738	-3.41
303.952	-17.75
304.166	8.87
304.381	29.35
304.595	25.26
304.809	33.45
305.023	27.31
305.237	21.16
305.452	2.73
305.666	-58.71
305.88	45.74
306.094	6.83
306.308	15.02
306.522	23.21
306.736	74.41
306.95	15.02
307.164	-9.56
307.379	31.4
307.593	60.07
307.807	47.79
308.021	31.4
308.235	-9.56
308.449	2.73
308.663	-21.85
308.877	55.98
309.091	8.87
309.305	27.31
309.519	72.36
309.733	41.64
309.947	21.16
310.161	55.98
310.374	107.18
310.588	68.27
310.802	23.21
311.016	-17.75
311.23	-15.7
311.444	35.5
311.658	23.21
311.872	-17.75
312.085	-9.56
312.299	55.98
312.513	17.07
312.727	53.93
312.941	4.78
313.154	58.03
313.368	111.27
313.582	21.16
313.796	-7.51
314.009	6.83
314.223	10.92
314.437	66.22
314.651	23.21
314.864	-9.56
315.078	-13.65
315.292	21.16
315.505	55.98
315.719	72.36
315.933	15.02
316.146	-17.75
316.36	19.11
316.573	19.11
316.787	55.98
317.001	49.83
317.214	-19.8
317.428	-19.8
317.641	-27.99
317.855	-25.94
318.068	43.69
318.282	0.68
318.495	-7.51
318.709	60.07
318.922	-21.85
319.136	19.11
319.349	0.68
319.563	29.35
319.776	21.16
319.99	-7.51
320.203	-5.46
320.417	8.87
320.63	64.17
320.843	12.97
321.057	49.83
321.27	4.78
321.483	-48.47
321.697	78.51
321.91	37.55
322.124	45.74
322.337	107.18
322.55	21.16
322.763	17.07
322.977	-5.46
323.19	66.22
323.403	51.88
323.617	8.87
323.83	68.27
324.043	2.73
324.256	29.35
324.469	64.17
324.683	-9.56
324.896	-19.8
325.109	21.16
325.322	-13.65
325.535	41.64
325.748	-21.85
325.962	23.21
326.175	19.11
326.388	19.11
326.601	-32.08
326.814	2.73
327.027	21.16
327.24	-46.42
327.453	-23.89
327.666	19.11
327.879	70.31
328.092	37.55
328.305	66.22
328.518	17.07
328.731	41.64
328.944	37.55
329.157	41.64
329.37	-48.47
329.583	39.59
329.796	58.03
330.009	62.12
330.222	68.27
330.435	43.69
330.648	74.41
330.861	4.78
331.073	55.98
331.286	72.36
331.499	68.27
331.712	25.26
331.925	-21.85
332.138	-30.04
332.35	84.65
332.563	-27.99
332.776	29.35
332.989	-7.51
333.202	8.87
333.414	-56.66
333.627	41.64
333.84	39.59
334.053	70.31
334.265	60.07
334.478	27.31
334.691	31.4
334.903	-5.46
335.116	19.11
335.329	17.07
335.541	45.74
335.754	98.99
335.966	-34.13
336.179	-19.8
336.392	15.02
336.604	55.98
336.817	47.79
337.029	96.94
337.242	60.07
337.454	92.84
337.667	0.68
337.88	6.83
338.092	-1.37
338.305	10.92
338.517	29.35
338.729	10.92
338.942	51.88
339.154	35.5
339.367	-44.37
339.579	-13.65
339.792	8.87
340.004	25.26
340.217	-9.56
340.429	-25.94
340.641	43.69
340.854	47.79
341.066	-5.46
341.278	98.99
341.491	82.6
341.703	43.69
341.915	-17.75
342.128	35.5
342.34	43.69
342.552	58.03
342.764	-3.41
342.977	-13.65
343.189	101.03
343.401	-56.66
343.613	-23.89
343.826	-19.8
344.038	12.97
344.25	62.12
344.462	43.69
344.674	-38.23
344.886	17.07
345.099	45.74
345.311	-40.28
345.523	-91.48
345.735	49.83
345.947	39.59
346.159	10.92
346.371	90.79
346.583	-25.94
346.795	17.07
347.007	-17.75
347.219	60.07
347.431	-36.18
347.643	43.69
347.855	60.07
348.067	96.94
348.279	-3.41
348.491	10.92
348.703	21.16
348.915	12.97
349.127	43.69
349.339	39.59
349.551	60.07
349.763	0.68
349.975	-30.04
350.187	21.16
350.399	146.09
350.61	27.31
350.822	-1.37
351.034	-15.7
351.246	49.83
351.458	33.45
351.669	29.35
351.881	21.16
352.093	10.92
352.305	101.03
352.517	43.69
352.728	45.74
352.94	-17.75
353.152	66.22
353.363	64.17
353.575	4.78
353.787	41.64
353.999	39.59
354.21	133.8
354.422	-1.37
354.633	29.35
354.845	47.79
355.057	64.17
355.268	-3.41
355.48	23.21
355.692	6.83
355.903	-13.65
356.115	-40.28
356.326	21.16
356.538	47.79
356.749	133.8
356.961	64.17
357.172	39.59
357.384	64.17
357.595	33.45
357.807	-3.41
358.018	-30.04
358.23	43.69
358.441	117.42
358.653	-19.8
358.864	-9.56
359.075	25.26
359.287	19.11
359.498	45.74
359.709	51.88
359.921	35.5
360.132	37.55
360.344	31.4
360.555	-9.56
360.766	58.03
360.977	43.69
361.189	25.26
361.4	-34.13
361.611	8.87
361.823	70.31
362.034	-15.7
362.245	23.21
362.456	-23.89
362.667	-9.56
362.879	49.83
363.09	0.68
363.301	98.99
363.512	2.73
363.723	10.92
363.935	-34.13
364.146	84.65
364.357	31.4
364.568	37.55
364.779	-17.75
364.99	111.27
365.201	98.99
365.412	-5.46
365.623	41.64
365.834	60.07
366.045	15.02
366.256	-9.56
366.467	23.21
366.678	60.07
366.889	64.17
367.1	66.22
367.311	-1.37
367.522	72.36
367.733	49.83
367.944	-38.23
368.155	6.83
368.366	27.31
368.577	25.26
368.788	70.31
368.999	-1.37
369.209	35.5
369.42	64.17
369.631	121.51
369.842	43.69
370.053	-32.08
370.264	35.5
370.474	-23.89
370.685	47.79
370.896	53.93
371.107	51.88
371.317	39.59
371.528	53.93
371.739	0.68
371.95	23.21
372.16	-17.75
372.371	2.73
372.582	60.07
372.792	53.93
373.003	51.88
373.214	-48.47
373.424	21.16
373.635	-36.18
373.846	70.31
374.056	0.68
374.267	-7.51
374.477	29.35
374.688	-25.94
374.898	33.45
375.109	21.16
375.319	33.45
375.53	27.31
375.74	51.88
375.951	41.64
376.161	-32.08
376.372	76.46
376.582	-23.89
376.793	64.17
377.003	-23.89
377.214	53.93
377.424	-21.85
377.635	-9.56
377.845	51.88
378.055	70.31
378.266	41.64
378.476	-25.94
378.686	141.99
378.897	27.31
379.107	10.92
379.317	15.02
379.528	-25.94
379.738	80.55
379.948	-5.46
380.158	68.27
380.369	107.18
380.579	-15.7
380.789	19.11
380.999	80.55
381.21	47.79
381.42	41.64
381.63	37.55
381.84	82.6
382.05	43.69
382.261	55.98
382.471	27.31
382.681	47.79
382.891	19.11
383.101	25.26
383.311	-13.65
383.521	27.31
383.731	23.21
383.941	19.11
384.151	25.26
384.361	37.55
384.571	76.46
384.781	68.27
384.991	29.35
385.201	25.26
385.411	4.78
385.621	66.22
385.831	12.97
386.041	84.65
386.251	-27.99
386.461	55.98
386.671	33.45
386.881	-1.37
387.091	68.27
387.301	80.55
387.511	2.73
387.72	74.41
387.93	113.32
388.14	8.87
388.35	141.99
388.56	82.6
388.769	-15.7
388.979	45.74
389.189	8.87
389.399	12.97
389.609	37.55
389.818	-5.46
390.028	27.31
390.238	-60.76
390.447	55.98
390.657	70.31
390.867	-1.37
391.076	-17.75
391.286	51.88
391.496	84.65
391.705	10.92
391.915	80.55
392.125	17.07
392.334	64.17
392.544	92.84
392.753	41.64
392.963	12.97
393.172	4.78
393.382	58.03
393.591	53.93
393.801	51.88
394.01	154.28
394.22	90.79
394.429	15.02
394.639	10.92
394.848	-3.41
395.058	45.74
395.267	43.69
395.477	80.55
395.686	49.83
395.895	62.12
396.105	135.85
396.314	15.02
396.524	125.61
396.733	33.45
396.942	92.84
397.152	8.87
397.361	119.46
397.57	90.79
397.78	70.31
397.989	17.07
398.198	41.64
398.407	60.07
398.617	88.75
398.826	64.17
399.035	111.27
399.244	62.12
399.453	62.12
399.663	141.99
399.872	92.84
400.081	96.94
400.29	55.98
400.499	45.74
400.708	131.75
400.917	76.46
401.127	121.51
401.336	45.74
401.545	129.7
401.754	70.31
401.963	90.79
402.172	98.99
402.381	94.89
402.59	-23.89
402.799	111.27
403.008	107.18
403.217	146.09
403.426	76.46
403.635	117.42
403.844	80.55
404.053	96.94
404.262	64.17
404.471	187.05
404.68	158.38
404.888	109.22
405.097	55.98
405.306	105.13
405.515	72.36
405.724	137.9
405.933	96.94
406.142	152.23
406.35	98.99
406.559	178.86
406.768	131.75
406.977	92.84
407.185	139.94
407.394	123.56
407.603	51.88
407.812	129.7
408.02	148.14
408.229	72.36
408.438	117.42
408.646	232.1
408.855	223.91
409.064	221.86
409.272	180.9
409.481	174.76
409.69	166.57
409.898	203.43
410.107	219.82
410.315	283.3
410.524	158.38
410.733	189.1
410.941	221.86
411.15	234.15
411.358	217.77
411.567	230.06
411.775	228.01
411.984	256.68
412.192	273.06
412.401	299.69
412.609	330.41
412.818	361.13
413.026	369.32
413.234	330.41
413.443	334.5
413.651	346.79
413.86	260.77
414.068	314.02
414.276	395.94
414.485	400.04
414.693	481.96
414.901	492.2
415.11	404.13
415.318	473.76
415.526	494.24
415.734	508.58
415.943	531.11
416.151	510.63
416.359	453.28
416.567	445.09
416.776	629.41
416.984	668.32
417.192	684.7
417.4	623.27
417.608	658.08
417.817	733.86
418.025	754.34
418.233	860.83
418.441	783.01
418.649	744.1
418.857	873.12
419.065	871.07
419.273	866.97
419.481	961.18
419.689	959.13
419.897	1018.52
420.105	950.94
420.313	1032.86
420.521	1186.46
420.729	1077.91
420.937	1092.25
421.145	1174.17
421.353	1280.66
421.561	1428.12
421.769	1364.63
421.977	1397.4
422.185	1354.39
422.393	1444.5
422.601	1583.76
422.809	1575.57
423.017	1419.92
423.224	1641.11
423.432	1641.11
423.64	1657.49
423.848	1868.43
424.056	1735.31
424.263	2052.75
424.471	1890.96
424.679	1952.4
424.887	2007.69
425.094	2185.87
425.302	2122.38
425.51	2179.72
425.718	2243.21
425.925	2335.37
426.133	2364.04
426.341	2464.39
426.548	2650.75
426.756	2583.17
426.964	2644.61
427.171	2736.77
427.379	2982.53
427.586	2869.89
427.794	3031.68
428.001	3158.65
428.209	3263.1
428.417	3193.47
428.624	3533.43
428.832	3410.55
429.039	3496.57
429.247	3547.76
429.454	3734.13
429.662	4067.95
429.869	3842.67
430.076	4115.05
430.284	3904.11
430.491	4231.79
430.699	4387.43
430.906	4391.53
431.114	4311.66
431.321	4469.35
431.528	4616.8
431.736	4895.33
431.943	5282.39
432.15	4854.37
432.358	5048.93
432.565	5409.37
432.772	5298.78
432.979	5685.84
433.187	5669.46
433.394	5737.04
433.601	5943.89
433.808	6072.91
434.016	5937.74
434.223	6451.78
434.43	6726.21
434.637	6623.81
434.844	6847.04
435.052	7178.81
435.259	7047.74
435.466	7344.7
435.673	7180.86
435.88	7744.05
436.087	7977.52
436.294	7926.32
436.501	7875.12
436.708	7871.03
436.915	7995.95
437.122	8563.24
437.329	8499.75
437.537	8825.38
437.743	8997.41
437.95	8874.53
438.157	9083.42
438.364	9531.93
438.571	9601.56
438.778	9519.64
438.985	10459.66
439.192	10158.61
439.399	10553.87
439.606	10168.85
439.813	11010.56
440.02	11371.01
440.227	11252.22
440.433	10998.27
440.64	11426.3
440.847	11418.11
441.054	12012.02
441.261	12675.56
441.467	12489.2
441.674	12577.26
441.881	13138.4
442.088	12780.01
442.294	12710.38
442.501	13541.85
442.708	13470.17
442.914	13980.12
443.121	14469.58
443.328	14264.78
443.534	15235.52
443.741	14707.15
443.948	14600.65
444.154	15817.15
444.361	15380.93
444.568	15612.35
444.774	15483.33
444.981	15860.15
445.187	16452.02
445.394	16880.04
445.6	16603.57
445.807	18436.5
446.013	17600.93
446.22	17883.55
446.426	18749.84
446.633	18610.57
446.839	19396.99
447.046	18766.22
447.252	19421.57
447.459	19517.82
447.665	19343.75
447.871	20158.84
448.078	20928.88
448.284	20035.96
448.491	20728.17
448.697	21541.22
448.903	22034.78
449.11	21797.21
449.316	21264.74
449.522	22083.93
449.728	22477.14
449.935	22475.09
450.141	22712.66
450.347	23036.24
450.553	22567.25
450.76	22591.83
450.966	23040.33
451.172	22997.32
451.378	23544.13
451.584	23304.52
451.791	23611.71
451.997	23388.49
452.203	23947.58
452.409	23583.04
452.615	23767.36
452.821	22892.88
453.027	22540.63
453.233	23857.47
453.44	22577.49
453.646	23214.41
453.852	22966.6
454.058	23687.49
454.264	22761.81
454.47	23413.06
454.676	22933.84
454.882	23257.42
455.088	21354.85
455.294	21696.86
455.5	22085.98
455.705	22403.41
455.911	21483.87
456.117	20717.93
456.323	20664.69
456.529	19661.18
456.735	20322.68
456.941	19784.06
457.147	19628.42
457.352	18803.08
457.558	18700.69
457.764	18839.95
457.97	18147.73
458.176	17856.92
458.381	17680.8
458.587	16935.34
458.793	17037.73
458.999	16107.96
459.204	17486.24
459.41	16775.59
459.616	15638.97
459.821	15927.74
460.027	15790.52
460.233	15227.33
460.438	14641.61
460.644	14694.86
460.85	13853.14
461.055	13861.34
461.261	13750.74
461.466	12673.51
461.672	12270.06
461.878	13265.38
462.083	12478.96
462.289	12378.61
462.494	12042.74
462.7	11633.15
462.905	11213.31
463.111	11422.2
463.316	11739.64
463.522	11258.37
463.727	11440.64
463.932	11192.83
464.138	11244.03
464.343	11282.94
464.549	10953.22
464.754	11291.13
464.959	11241.98
465.165	11168.26
465.37	10646.02
465.575	10551.82
465.781	11016.71
465.986	10994.18
466.191	10680.84
466.397	10396.17
466.602	9929.24
466.807	10195.47
467.012	10244.62
467.218	10068.5
467.423	9974.29
467.628	9959.95
467.833	10377.74
468.038	10072.59
468.244	9929.24
468.449	10197.52
468.654	9818.64
468.859	9703.96
469.064	9818.64
469.269	9347.61
469.474	9361.95
469.679	9519.64
469.885	9280.03
470.09	9617.94
470.295	9513.5
470.5	9220.64
470.705	9368.09
470.91	9071.14
471.115	8970.79
471.32	9200.16
471.525	8913.44
471.73	8837.67
471.935	8761.89
472.139	8356.4
472.344	8460.84
472.549	8436.27
472.754	8514.09
472.959	8053.3
473.164	8098.35
473.369	7936.56
473.574	7983.66
473.778	8094.26
473.983	8038.96
474.188	8004.14
474.393	7655.99
474.598	7561.78
474.802	7602.74
475.007	7660.09
475.212	7551.54
475.417	7344.7
475.621	7203.39
475.826	7203.39
476.031	7111.23
476.235	7117.37
476.44	7207.48
476.645	6943.3
476.849	6957.63
477.054	7029.31
477.259	6844.99
477.463	6894.15
477.668	6822.47
477.872	6785.6
478.077	6539.85
478.282	6634.05
478.486	6369.87
478.691	6339.15
478.895	6337.1
479.1	6181.45
479.304	6253.13
479.509	6079.05
479.713	6455.88
479.918	6054.48
480.122	6191.69
480.326	6187.6
480.531	6144.59
480.735	5988.94
480.94	5886.54
481.144	6236.75
481.348	5911.12
481.553	6124.11
481.757	5855.83
481.961	5829.2
482.166	5956.18
482.37	5952.08
482.574	5907.02
482.778	5892.69
482.983	5968.46
483.187	5898.83
483.391	6087.25
483.595	5753.43
483.8	5790.29
484.004	5874.26
484.208	5962.32
484.412	5835.35
484.616	6048.33
484.821	5927.5
485.025	5954.13
485.229	5868.11
485.433	5859.92
485.637	5710.42
485.841	5896.78
486.045	5784.15
486.249	5993.04
486.453	5868.11
486.657	5786.19
486.861	6005.33
487.065	5735
487.269	5945.94
487.473	5782.1
487.677	5997.14
487.881	5775.95
488.085	5890.64
488.289	5907.02
488.493	6027.85
488.697	5859.92
488.901	5841.49
489.105	5841.49
489.309	5943.89
489.512	5962.32
489.716	6005.33
489.92	5929.55
490.124	5958.22
490.328	5925.46
490.531	5993.04
490.735	6003.28
490.939	5974.61
491.143	6005.33
491.346	6056.53
491.55	6169.16
491.754	6156.88
491.958	6203.98
492.161	6216.27
492.365	6113.87
492.569	6412.87
492.772	6160.97
492.976	6171.21
493.18	6439.5
493.383	6437.45
493.587	6453.83
493.79	6500.94
493.994	6279.75
494.197	6349.39
494.401	6511.18
494.605	6566.47
494.808	6660.68
495.012	6652.49
495.215	6718.02
495.419	6877.76
495.622	6519.37
495.825	6881.86
496.029	6732.36
496.232	7021.12
496.436	6941.25
496.639	7123.52
496.843	7043.65
497.046	7100.99
497.249	7313.98
497.453	7354.94
497.656	7359.03
497.859	7590.45
498.063	7502.39
498.266	7608.89
498.469	7514.68
498.673	7707.19
498.876	7750.2
499.079	7924.27
499.282	7813.68
499.485	8270.38
499.689	8159.79
499.892	8251.95
500.095	8344.11
500.298	8309.29
500.501	8499.75
500.705	8499.75
500.908	8636.97
501.111	8794.66
501.314	8876.58
501.517	8860.2
501.72	8950.31
501.923	8970.79
502.126	9427.48
502.329	9445.91
502.532	9384.48
502.735	9521.69
502.938	9683.48
503.141	9841.17
503.344	9794.07
503.547	9740.82
503.75	10136.08
503.953	10160.66
504.156	10392.08
504.359	10328.59
504.562	10428.94
504.765	10813.96
504.968	10746.37
505.17	10836.49
505.373	10951.17
505.576	11024.9
505.779	11389.44
505.982	11342.33
506.185	11553.27
506.387	11393.53
506.59	11860.47
506.793	12014.07
506.996	11807.22
507.198	12405.23
507.401	12382.7
507.604	12476.91
507.807	12448.24
508.009	12558.83
508.212	12958.18
508.415	12941.8
508.617	12909.03
508.82	13351.39
509.022	12931.56
509.225	13394.4
509.428	13513.18
509.63	13627.87
509.833	13832.66
510.035	14090.71
510.238	14055.89
510.44	14393.81
510.643	14537.16
510.845	14502.35
511.048	14576.08
511.25	14772.68
511.453	14827.98
511.655	15499.71
511.858	15167.94
512.06	15292.87
512.262	15403.46
512.465	15495.61
512.667	15856.06
512.87	16060.85
513.072	16095.67
513.274	16433.58
513.477	16624.04
513.679	16959.91
513.881	16718.25
514.084	17084.84
514.286	17127.85
514.488	16959.91
514.69	17662.37
514.893	17586.59
515.095	17672.6
515.297	18078.1
515.499	18188.69
515.701	18473.36
515.904	18399.63
516.106	18545.04
516.308	19063.18
516.51	19173.77
516.712	19061.13
516.914	19405.19
517.116	19882.36
517.318	19566.98
517.52	19890.56
517.722	20162.93
517.925	20367.73
518.127	20283.77
518.329	20840.81
518.531	20380.02
518.733	21516.64
518.935	21254.5
519.136	21279.08
519.338	21815.65
519.54	21811.55
519.742	22016.35
519.944	22008.15
520.146	22618.45
520.348	22569.3
520.55	22937.93
520.752	22868.3
520.954	22950.22
521.155	23013.71
521.357	23417.16
521.559	23765.31
521.761	24021.31
521.963	23832.89
522.164	24185.15
522.366	24287.54
522.568	24424.76
522.77	24740.15
522.971	25338.15
523.173	25045.29
523.375	25006.38
523.576	25151.79
523.778	25348.39
523.98	25753.89
524.181	25811.23
524.383	25946.4
524.584	26081.56
524.786	26374.42
524.988	26126.62
525.189	26622.23
525.391	26626.32
525.592	26652.95
525.794	27115.79
525.995	27048.21
526.197	27117.84
526.398	26939.66
526.6	27382.02
526.801	27724.04
527.003	27779.33
527.204	28041.47
527.406	28367.1
527.607	27994.37
527.808	28510.46
528.01	27748.61
528.211	27853.06
528.412	28840.18
528.614	28252.41
528.815	28889.33
529.016	29081.84
529.218	28670.2
529.419	28997.87
529.62	28819.7
529.822	28881.14
530.023	28901.62
530.224	29130.99
530.425	29470.95
530.626	29212.91
530.828	29065.46
531.029	29503.72
531.23	29272.3
531.431	29450.47
531.632	29675.75
531.833	29794.53
532.035	29542.63
532.236	29645.03
532.437	29720.81
532.638	30173.41
532.839	30492.89
533.04	30030.05
533.241	29524.2
533.442	30359.77
533.643	29829.35
533.844	30343.39
534.045	30107.87
534.246	29714.66
534.447	30574.81
534.648	30214.37
534.849	30044.38
535.05	30200.03
535.251	30034.14
535.451	29987.04
535.652	30163.17
535.853	30200.03
536.054	30120.16
536.255	30478.55
536.456	29991.14
536.657	30959.83
536.857	29921.51
537.058	30392.54
537.259	30136.54
537.46	30699.73
537.66	30472.41
537.861	30269.66
538.062	30157.02
538.263	30443.74
538.463	30267.61
538.664	30240.99
538.865	30638.3
539.065	30847.19
539.266	30120.16
539.466	30892.24
539.667	30034.14
539.868	30576.86
540.068	30648.53
540.269	30466.27
540.469	30486.75
540.67	30193.89
540.87	30537.94
541.071	30257.37
541.271	30759.13
541.472	30288.09
541.672	30028
541.873	30226.65
542.073	30122.21
542.274	30560.47
542.474	30773.46
542.675	30384.35
542.875	30836.95
543.075	30521.56
543.276	29792.48
543.476	30871.76
543.676	30257.37
543.877	30179.55
544.077	30249.18
544.277	30531.8
544.478	30437.59
544.678	30433.5
544.878	30308.57
545.078	30152.93
545.279	30220.51
545.479	30038.24
545.679	30386.39
545.879	30200.03
546.079	30238.94
546.28	30224.61
546.48	29804.77
546.68	30742.74
546.88	30382.3
547.08	30574.81
547.28	30015.71
547.48	29978.85
547.68	30322.91
547.88	30107.87
548.081	30128.35
548.281	30120.16
548.481	30068.96
548.681	30486.75
548.881	30314.72
549.081	30183.65
549.28	30120.16
549.48	30253.28
549.68	29825.25
549.88	30425.31
550.08	30154.97
550.28	30482.65
550.48	30030.05
550.68	30341.34
550.88	30107.87
551.08	30068.96
551.279	30032.1
551.479	30081.25
551.679	30101.73
551.879	29968.61
552.079	30243.04
552.278	30023.9
552.478	29974.75
552.678	30062.82
552.878	30226.65
553.077	29864.16
553.277	29841.64
553.477	30208.22
553.676	29657.32
553.876	29960.42
554.076	30077.15
554.275	29718.76
554.475	29442.28
554.674	29628.65
554.874	29858.02
555.074	29655.27
555.273	30038.24
555.473	30011.62
555.672	29534.44
555.872	30089.44
556.071	29624.55
556.271	29903.07
556.47	29692.13
556.67	29616.36
556.869	29468.9
557.068	29534.44
557.268	29300.97
557.467	29305.07
557.667	29425.9
557.866	29237.48
558.065	29217
558.265	28973.3
558.464	29053.17
558.663	29380.84
558.863	28711.16
559.062	29511.91
559.261	28573.94
559.461	29300.97
559.66	28539.13
559.859	28803.32
560.058	28451.06
560.258	28723.44
560.457	28121.34
560.656	28680.44
560.855	28512.5
561.054	28948.72
561.253	28471.54
561.453	28858.61
561.652	28903.67
561.851	28877.04
562.05	28279.04
562.249	28330.23
562.448	28285.18
562.647	27971.84
562.846	28068.09
563.045	28111.1
563.244	27803.91
563.443	27965.7
563.642	27521.29
563.841	27926.78
564.04	27674.88
564.239	27914.5
564.438	27601.16
564.637	27676.93
564.836	27498.76
565.035	27566.34
565.234	27173.13
565.432	27345.16
565.631	27214.09
565.83	27635.97
566.029	27175.18
566.228	27015.44
566.427	26661.14
566.625	26652.95
566.824	26827.03
567.023	27244.81
567.222	26372.38
567.42	26857.74
567.619	26724.63
567.818	26806.55
568.016	26069.28
568.215	26489.11
568.414	26282.27
568.612	26728.72
568.811	25968.93
569.01	26401.05
569.208	26001.69
569.407	26054.94
569.605	25577.76
569.804	25803.04
570.002	25555.24
570.201	25807.14
570.4	25200.94
570.598	25424.17
570.797	25579.81
570.995	25436.45
571.193	25065.77
571.392	25440.55
571.59	25129.26
571.789	25317.67
571.987	24721.71
572.186	24875.31
572.384	24994.09
572.582	24858.93
572.781	24932.65
572.979	24424.76
573.177	24541.49
573.376	24961.33
573.574	24629.55
573.772	24305.98
573.971	24121.66
574.169	23968.06
574.367	24054.08
574.565	24211.77
574.763	23914.81
574.962	24187.19
575.16	23800.13
575.358	24078.65
575.556	23746.88
575.754	23972.16
575.952	23646.53
576.151	23791.94
576.349	23279.94
576.547	23382.34
576.745	23546.18
576.943	23281.99
577.141	23107.91
577.339	23302.47
577.537	22673.74
577.735	23103.82
577.933	22972.75
578.131	22942.03
578.329	23013.71
578.527	22784.33
578.725	22683.98
578.923	22892.88
579.121	22499.67
579.319	22514
579.516	22716.75
579.714	22665.55
579.912	22376.79
580.11	22139.22
580.308	22096.22
580.506	22014.3
580.704	21829.98
580.901	21901.66
581.099	22348.12
581.297	21786.97
581.495	21674.34
581.692	21936.48
581.89	21361
582.088	21709.15
582.285	21399.91
582.483	21924.19
582.681	21678.43
582.878	21420.39
583.076	21213.54
583.274	21565.79
583.471	21006.7
583.669	21254.5
583.866	21055.85
584.064	21158.25
584.262	20885.87
584.459	20992.36
584.657	20922.73
584.854	21127.53
585.052	20560.24
585.249	20615.54
585.447	20494.71
585.644	20363.64
585.841	20492.66
586.039	20566.38
586.236	20447.6
586.434	20343.16
586.631	20023.67
586.828	20158.84
587.026	20222.33
587.223	20195.7
587.42	19816.83
587.618	19794.3
587.815	19771.77
588.012	19630.46
588.21	19784.06
588.407	19728.77
588.604	19659.13
588.801	19337.6
588.999	19657.09
589.196	19384.71
589.393	19528.06
589.59	19177.86
589.787	19173.77
589.984	19249.54
590.182	19181.96
590.379	19095.94
590.576	19110.28
590.773	19288.45
590.97	18715.02
591.167	18876.81
591.364	18571.66
591.561	18633.1
591.758	18555.28
591.955	18534.8
592.152	18829.71
592.349	18407.83
592.546	18555.28
592.743	18362.77
592.94	18301.33
593.137	18241.94
593.334	18588.05
593.531	18114.97
593.727	18221.46
593.924	18299.28
594.121	17973.66
594.318	18020.76
594.515	17725.85
594.712	17981.85
594.908	17838.49
595.105	18061.72
595.302	17926.55
595.499	17707.42
595.696	17824.15
595.892	17267.11
596.089	17566.11
596.286	17432.99
596.482	17424.8
596.679	17451.42
596.876	17494.43
597.072	17291.68
597.269	17109.41
597.466	17074.6
597.662	17056.17
597.859	16839.08
598.055	17113.51
598.252	16691.63
598.448	17050.02
598.645	16931.24
598.841	16894.38
599.038	16683.44
599.234	16830.89
599.431	16447.92
599.627	16392.62
599.824	16347.57
600.02	16511.41
600.217	16593.33
600.413	16200.12
600.609	16302.51
600.806	16083.38
601.002	16206.26
601.198	16013.75
601.395	16251.31
601.591	16091.57
601.787	16193.97
601.984	15800.76
602.18	16132.53
602.376	15843.77
602.572	15825.34
602.769	15714.75
602.965	15565.25
603.161	15983.03
603.357	15653.31
603.553	15534.53
603.75	15618.49
603.946	15366.59
604.142	15604.16
604.338	15282.63
604.534	15325.63
604.73	15237.57
604.926	15329.73
605.122	15305.15
605.318	14989.77
605.514	15063.49
605.71	14842.31
605.906	15081.92
606.102	15026.63
606.298	14924.23
606.494	14987.72
606.69	14942.66
606.886	14916.04
607.082	14727.63
607.278	14657.99
607.474	14547.4
607.67	14924.23
607.866	14422.48
608.062	14576.08
608.257	14313.94
608.453	14297.55
608.649	14653.9
608.845	14346.7
609.041	14240.21
609.236	14225.87
609.432	14326.22
609.628	14240.21
609.824	14346.7
610.019	14090.71
610.215	14303.7
610.411	14252.5
610.606	14010.84
610.802	14127.57
610.998	14027.22
611.193	14117.33
611.389	14016.98
611.584	13994.45
611.78	14094.8
611.976	13992.41
612.171	13887.96
612.367	13730.27
612.562	13982.17
612.758	13672.92
612.953	13478.36
613.149	13509.08
613.344	13629.91
613.539	13959.64
613.735	13701.59
613.93	13554.14
614.126	13556.19
614.321	13496.8
614.517	13468.13
614.712	13605.34
614.907	13451.74
615.103	13380.06
615.298	13535.71
615.493	13539.8
615.688	13175.27
615.884	13398.49
616.079	13265.38
616.274	13257.18
616.47	13263.33
616.665	13076.96
616.86	13259.23
617.055	12999.14
617.25	13048.29
617.445	13160.93
617.641	13101.54
617.836	12993
618.031	12794.34
618.226	12880.36
618.421	12679.66
618.616	12847.59
618.811	12636.65
619.006	12800.49
619.201	12702.18
619.396	12550.64
619.591	12409.33
619.786	12573.16
619.981	12296.69
620.176	12425.71
620.371	12253.68
620.566	12417.52
620.761	12274.16
620.956	12276.21
621.151	12143.09
621.346	12085.75
621.541	11932.15
621.735	12095.99
621.93	11887.09
622.125	11895.29
622.32	11753.98
622.515	11743.74
622.709	11817.46
622.904	11764.22
623.099	11536.89
623.294	11747.83
623.488	11428.35
623.683	11506.17
623.878	11098.63
624.072	11121.15
624.267	11074.05
624.462	11186.69
624.656	11004.42
624.851	11055.62
625.046	10961.41
625.24	10938.88
625.435	10834.44
625.629	10869.25
625.824	10705.42
626.018	10648.07
626.213	10512.91
626.407	10537.48
626.602	10437.13
626.796	10428.94
626.991	10584.59
627.185	10324.49
627.38	10326.54
627.574	10336.78
627.768	10191.38
627.963	10029.59
628.157	10027.54
628.352	10050.07
628.546	9888.28
628.74	9914.9
628.935	9796.12
629.129	9896.47
629.323	9679.38
629.517	9669.14
629.712	9742.87
629.906	9579.03
630.1	9386.52
630.294	9503.26
630.489	9316.89
630.683	9454.11
630.877	9310.75
631.071	9292.32
631.265	9267.74
631.459	8991.27
631.653	9263.65
631.848	9101.86
632.042	8895.01
632.236	9050.66
632.43	9003.55
632.624	8964.64
632.818	8931.87
633.012	8718.89
633.206	8720.93
633.4	8770.08
633.594	8428.07
633.788	8659.49
633.982	8847.91
634.176	8610.34
634.369	8524.33
634.563	8405.55
634.757	8208.94
634.951	8452.65
635.145	8530.47
635.339	8307.24
635.533	8321.58
635.726	8067.63
635.92	8188.46
636.114	8043.06
636.308	8002.1
636.501	7928.37
636.695	8112.69
636.889	8006.19
637.083	7957.04
637.276	7676.47
637.47	7717.43
637.664	7834.16
637.857	7725.62
638.051	7850.55
638.244	7631.41
638.438	7653.94
638.632	7490.1
638.825	7604.79
639.019	7299.64
639.212	7332.41
639.406	7277.12
639.599	7436.86
639.793	7248.44
639.986	7154.24
640.18	7297.6
640.373	7207.48
640.567	7146.05
640.76	7162.43
640.954	6842.95
641.147	7090.75
641.34	6902.34
641.534	6781.51
641.727	6769.22
641.92	6963.78
642.114	6726.21
642.307	6623.81
642.5	6814.27
642.694	6881.86
642.887	6711.88
643.08	6801.99
643.273	6707.78
643.467	6638.15
643.66	6437.45
643.853	6435.4
644.046	6234.7
644.239	6396.49
644.432	6445.64
644.626	6304.33
644.819	6431.3
645.012	6152.78
645.205	6187.6
645.398	6333
645.591	6097.49
645.784	6167.12
645.977	6046.29
646.17	6031.95
646.363	6017.61
646.556	5925.46
646.749	5982.8
646.942	6140.49
647.135	5851.73
647.328	5947.98
647.521	5872.21
647.714	5896.78
647.907	5812.82
648.099	5743.19
648.292	5845.59
648.485	5548.63
648.678	5534.29
648.871	5603.93
649.064	5571.16
649.256	5626.45
649.449	5485.14
649.642	5624.4
649.835	5378.65
650.027	5335.64
650.22	5384.79
650.413	5315.16
650.605	5425.75
650.798	5438.04
650.991	5323.35
651.183	5196.38
651.376	5184.09
651.568	5106.27
651.761	5233.24
651.954	5218.91
652.146	5112.41
652.339	4967.01
652.531	5018.21
652.724	5184.09
652.916	4842.08
653.109	5016.16
653.301	4924
653.494	4999.77
653.686	4811.36
653.879	4809.31
654.071	4803.17
654.263	4692.58
654.456	4809.31
654.648	4768.35
654.84	4760.16
655.033	4639.33
655.225	4737.63
655.417	4629.09
655.61	4659.81
655.802	4620.9
655.994	4739.68
656.186	4598.37
656.379	4465.25
656.571	4467.3
656.763	4381.29
656.955	4498.02
657.148	4528.74
657.34	4422.25
657.532	4276.84
657.724	4407.91
657.916	4409.96
658.108	4299.37
658.3	4315.75
658.492	4377.19
658.684	4268.65
658.876	4393.58
659.068	4172.39
659.26	4174.44
659.452	4151.92
659.644	4209.26
659.836	4221.55
660.028	4180.59
660.22	4080.24
660.412	4080.24
660.604	4162.16
660.796	3988.08
660.988	3981.93
661.18	4022.89
661.372	3930.73
661.563	3922.54
661.755	3760.75
661.947	3949.17
662.139	3949.17
662.331	3859.06
662.522	3922.54
662.714	3869.3
662.906	3865.2
663.097	3897.97
663.289	3752.56
663.481	3697.27
663.673	3592.82
663.864	3734.13
664.056	3730.03
664.247	3680.88
664.439	3539.57
664.631	3523.19
664.822	3582.58
665.014	3564.15
665.205	3603.06
665.397	3549.81
665.588	3566.2
665.78	3445.37
665.971	3373.69
666.163	3523.19
666.354	3424.89
666.546	3357.3
666.737	3471.99
666.929	3459.7
667.12	3500.66
667.311	3363.45
667.503	3338.87
667.694	3312.25
667.885	3316.34
668.077	3379.83
668.268	3254.9
668.459	3361.4
668.651	3340.92
668.842	3189.37
669.033	3398.26
669.224	3273.34
669.416	3328.63
669.607	3259
669.798	3265.14
669.989	3193.47
670.18	3177.08
670.371	3236.47
670.563	3152.51
670.754	3179.13
670.945	3138.17
671.136	3060.35
671.327	3154.55
671.518	3097.21
671.709	3189.37
671.9	3218.04
672.091	3072.64
672.282	3097.21
672.473	3082.88
672.664	2939.52
672.855	2984.57
673.046	3041.92
673.237	3019.39
673.428	3009.15
673.619	3060.35
673.809	3043.96
674	2960
674.191	2890.37
674.382	2882.17
674.573	2945.66
674.764	2943.61
674.954	2890.37
675.145	2687.62
675.336	2886.27
675.527	2826.88
675.717	2921.09
675.908	2886.27
676.099	2843.26
676.289	2804.35
676.48	2976.38
676.671	2818.69
676.861	2824.83
677.052	2755.2
677.243	2761.34
677.433	2777.73
677.624	2861.69
677.814	2757.25
678.005	2830.98
678.195	2816.64
678.386	2802.3
678.576	2706.05
678.767	2710.15
678.957	2773.63
679.148	2839.17
679.338	2728.58
679.529	2699.91
679.719	2665.09
679.909	2773.63
680.1	2792.06
680.29	2792.06
680.481	2677.38
680.671	2794.11
680.861	2759.3
681.052	2628.23
681.242	2689.67
681.432	2656.9
681.622	2564.74
681.813	2720.39
682.003	2677.38
682.193	2663.04
682.383	2724.48
682.573	2767.49
682.764	2589.32
682.954	2697.86
683.144	2632.32
683.334	2640.51
683.524	2529.92
683.714	2652.8
683.904	2558.6
684.094	2663.04
684.284	2560.64
684.474	2595.46
684.664	2591.36
684.854	2663.04
685.044	2531.97
685.234	2644.61
685.424	2636.42
685.614	2505.35
685.804	2570.88
685.994	2587.27
686.184	2546.31
686.374	2599.55
686.564	2460.29
686.753	2400.9
686.943	2345.61
687.133	2337.41
687.323	2548.36
687.513	2423.43
687.702	2491.01
687.892	2411.14
688.082	2456.2
688.272	2497.16
688.461	2333.32
688.651	2484.87
688.841	2413.19
689.03	2491.01
689.22	2294.41
689.41	2286.22
689.599	2398.85
689.789	2421.38
689.979	2357.89
690.168	2321.03
690.358	2423.43
690.547	2374.28
690.737	2355.85
690.926	2368.13
691.116	2327.18
691.305	2288.26
691.495	2222.73
691.684	2267.78
691.874	2265.74
692.063	2247.3
692.252	2333.32
692.442	2294.41
692.631	2224.78
692.82	2259.59
693.01	2263.69
693.199	2144.91
693.388	2198.15
693.578	2263.69
693.767	2114.19
693.956	2278.02
694.146	2253.45
694.335	2208.39
694.524	2151.05
694.713	2302.6
694.902	2081.42
695.092	2220.68
695.281	2153.1
695.47	2210.44
695.659	2187.91
695.848	2228.87
696.037	2232.97
696.226	2226.82
696.415	2122.38
696.604	2171.53
696.793	2046.6
696.982	2153.1
697.171	2247.3
697.36	2136.71
697.549	2185.87
697.738	2116.23
697.927	2136.71
698.116	2132.62
698.305	2099.85
698.494	2112.14
698.683	2103.95
698.872	2196.11
699.061	2118.28
699.25	2187.91
699.438	2140.81
699.627	2120.33
699.816	2253.45
700.005	2046.6
700.193	2149
700.382	2052.75
700.571	2073.23
700.76	2108.04
700.948	2054.8
701.137	2050.7
701.326	2149
701.514	2044.56
701.703	2157.19
701.892	2136.71
702.08	2097.8
702.269	2151.05
702.457	2237.06
702.646	2075.28
702.834	2126.47
703.023	2065.04
703.212	2108.04
703.4	2138.76
703.589	2042.51
703.777	2163.34
703.965	2105.99
704.154	2065.04
704.342	2099.85
704.531	2030.22
704.719	2185.87
704.907	2181.77
705.096	2126.47
705.284	2095.75
705.472	2153.1
705.661	2103.95
705.849	2177.67
706.037	2122.38
706.226	2079.37
706.414	2103.95
706.602	2269.83
706.79	2034.32
706.979	2085.51
707.167	2165.39
707.355	2112.14
707.543	2097.8
707.731	2134.67
707.919	2069.13
708.107	2169.48
708.296	2220.68
708.484	2050.7
708.672	2200.2
708.86	2175.63
709.048	2151.05
709.236	2140.81
709.424	2165.39
709.612	2130.57
709.8	2165.39
709.988	2116.23
710.176	2126.47
710.364	2241.16
710.551	2144.91
710.739	2130.57
710.927	2140.81
711.115	2132.62
711.303	2095.75
711.491	2101.9
711.679	2101.9
711.866	2122.38
712.054	2194.06
712.242	2105.99
712.43	1993.36
712.617	2167.43
712.805	2065.04
712.993	2189.96
713.181	1976.97
713.368	2175.63
713.556	2165.39
713.744	2069.13
713.931	2173.58
714.119	2079.37
714.306	2112.14
714.494	2087.56
714.682	2118.28
714.869	2085.51
715.057	2149
715.244	2050.7
715.432	2081.42
715.619	2085.51
715.807	2132.62
715.994	2165.39
716.182	2103.95
716.369	2130.57
716.556	2083.47
716.744	2149
716.931	2067.08
717.119	2161.29
717.306	2099.85
717.493	2187.91
717.681	2077.32
717.868	2099.85
718.055	2159.24
718.242	2075.28
718.43	2126.47
718.617	2075.28
718.804	2101.9
718.991	2046.6
719.179	2124.43
719.366	2163.34
719.553	2011.79
719.74	2097.8
719.927	2120.33
720.114	2007.69
720.301	2011.79
720.488	2036.36
720.676	2155.15
720.863	2071.18
721.05	2134.67
721.237	2062.99
721.424	2132.62
721.611	2110.09
721.798	2071.18
721.985	2022.03
722.172	2169.48
722.358	2069.13
722.545	2093.71
722.732	2040.46
722.919	2050.7
723.106	2058.89
723.293	2032.27
723.48	1993.36
723.667	2048.65
723.853	2081.42
724.04	2058.89
724.227	2128.52
724.414	2009.74
724.6	2050.7
724.787	2097.8
724.974	2017.93
725.161	2062.99
725.347	2046.6
725.534	2026.12
725.72	2122.38
725.907	1944.2
726.094	2026.12
726.28	1948.3
726.467	2079.37
726.653	2157.19
726.84	2122.38
727.027	2062.99
727.213	2028.17
727.4	2046.6
727.586	2034.32
727.773	2105.99
727.959	2062.99
728.145	1942.16
728.332	1925.77
728.518	1936.01
728.705	1997.45
728.891	2005.64
729.077	1958.54
729.264	1929.87
729.45	2116.23
729.636	2011.79
729.823	2058.89
730.009	2034.32
730.195	2050.7
730.382	2005.64
730.568	2040.46
730.754	2103.95
730.94	2034.32
731.126	2050.7
731.313	1897.1
731.499	1868.43
731.685	2036.36
731.871	2108.04
732.057	1997.45
732.243	2120.33
732.429	1985.16
732.615	2028.17
732.801	2011.79
732.987	2026.12
733.173	2024.08
733.359	1979.02
733.545	1931.92
733.731	2163.34
733.917	1952.4
734.103	2110.09
734.289	2019.98
734.475	1999.5
734.661	2079.37
734.847	1897.1
735.033	2030.22
735.219	1972.88
735.404	2028.17
735.59	2015.88
735.776	1974.92
735.962	2011.79
736.148	2052.75
736.333	2040.46
736.519	1987.21
736.705	1999.5
736.89	1970.83
737.076	1929.87
737.262	1970.83
737.447	1819.28
737.633	1976.97
737.819	1890.96
738.004	1968.78
738.19	1995.4
738.375	1999.5
738.561	1946.25
738.747	1868.43
738.932	2062.99
739.118	2038.41
739.303	1907.34
739.489	1890.96
739.674	1852.05
739.859	1829.52
740.045	1923.73
740.23	1854.09
740.416	1968.78
740.601	1847.95
740.786	1870.48
740.972	1790.61
741.157	1839.76
741.342	1788.56
741.528	1800.85
741.713	1893.01
741.898	1821.33
742.084	1991.31
742.269	1833.61
742.454	1798.8
742.639	1897.1
742.824	1782.42
743.01	1751.7
743.195	1878.67
743.38	1831.57
743.565	1626.77
743.75	1823.37
743.935	1776.27
744.12	1723.02
744.305	1677.97
744.49	1763.98
744.675	1798.8
744.86	1702.54
745.045	1620.63
745.23	1825.42
745.415	1770.13
745.6	1823.37
745.785	1723.02
745.97	1731.22
746.155	1706.64
746.34	1749.65
746.525	1686.16
746.71	1657.49
746.895	1647.25
747.079	1628.82
747.264	1645.2
747.449	1634.96
747.634	1622.67
747.819	1559.19
748.003	1727.12
748.188	1602.19
748.373	1716.88
748.557	1573.52
748.742	1532.56
748.927	1518.23
749.111	1708.69
749.296	1493.65
749.481	1567.38
749.665	1614.48
749.85	1450.64
750.034	1596.05
750.219	1464.98
750.404	1477.27
750.588	1555.09
750.773	1428.12
750.957	1415.83
751.141	1522.32
751.326	1436.31
751.51	1374.87
751.695	1432.21
751.879	1434.26
752.064	1317.53
752.248	1438.36
752.432	1438.36
752.617	1440.4
752.801	1376.92
752.985	1323.67
753.17	1317.53
753.354	1260.18
753.538	1333.91
753.722	1278.62
753.907	1264.28
754.091	1274.52
754.275	1247.9
754.459	1260.18
754.643	1217.18
754.828	1225.37
755.012	1258.14
755.196	1262.23
755.38	1270.42
755.564	1262.23
755.748	1217.18
755.932	1196.7
756.116	1145.5
756.3	1243.8
756.484	1243.8
756.668	1170.07
756.852	1172.12
757.036	1149.59
757.22	1186.46
757.404	1174.17
757.588	1125.02
757.772	1096.35
757.956	1098.39
758.14	1039
758.323	1104.54
758.507	1172.12
758.691	1032.86
758.875	1039
759.059	1094.3
759.242	1059.48
759.426	1176.22
759.61	1026.72
759.794	952.99
759.977	1022.62
760.161	1014.43
760.345	989.85
760.528	1104.54
760.712	985.76
760.895	993.95
761.079	987.8
761.263	930.46
761.446	989.85
761.63	985.76
761.813	946.84
761.997	952.99
762.18	950.94
762.364	928.41
762.547	1006.24
762.731	977.56
762.914	940.7
763.098	905.88
763.281	940.7
763.464	928.41
763.648	920.22
763.831	918.17
764.015	932.51
764.198	993.95
764.381	961.18
764.564	932.51
764.748	926.36
764.931	926.36
765.114	850.59
765.297	848.54
765.481	965.28
765.664	856.73
765.847	918.17
766.03	864.93
766.213	801.44
766.397	879.26
766.58	936.6
766.763	877.21
766.946	873.12
767.129	801.44
767.312	836.25
767.495	846.49
767.678	852.64
767.861	789.15
768.044	805.53
768.227	907.93
768.41	828.06
768.593	836.25
768.776	795.29
768.959	791.2
769.142	774.81
769.324	856.73
769.507	815.77
769.69	768.67
769.873	717.47
770.056	760.48
770.239	780.96
770.421	823.97
770.604	791.2
770.787	852.64
770.97	701.09
771.152	791.2
771.335	848.54
771.518	809.63
771.7	731.81
771.883	780.96
772.066	752.29
772.248	664.22
772.431	830.11
772.613	688.8
772.796	711.33
772.978	735.9
773.161	746.14
773.343	713.38
773.526	701.09
773.708	676.51
773.891	664.22
774.073	733.86
774.256	670.37
774.438	707.23
774.621	768.67
774.803	684.7
774.985	717.47
775.168	774.81
775.35	658.08
775.532	727.71
775.715	645.79
775.897	670.37
776.079	666.27
776.261	596.64
776.444	567.97
776.626	656.03
776.808	631.46
776.99	615.07
777.173	576.16
777.355	633.51
777.537	604.83
777.719	590.5
777.901	586.4
778.083	588.45
778.265	559.78
778.447	608.93
778.629	543.39
778.811	602.79
778.993	574.11
779.175	567.97
779.357	631.46
779.539	576.16
779.721	486.05
779.903	613.03
780.085	498.34
780.267	533.15
780.449	561.83
780.631	494.24
780.812	549.54
780.994	574.11
781.176	563.87
781.358	506.53
781.54	535.2
781.721	479.91
781.903	512.67
782.085	496.29
782.267	484
782.448	404.13
782.63	504.48
782.812	432.8
782.993	426.66
783.175	514.72
783.357	359.08
783.538	469.67
783.72	449.19
783.901	438.95
784.083	406.18
784.264	479.91
784.446	412.32
784.627	397.99
784.809	387.75
784.99	455.33
785.172	400.04
785.353	400.04
785.535	447.14
785.716	428.71
785.897	434.85
786.079	434.85
786.26	377.51
786.441	367.27
786.623	412.32
786.804	404.13
786.985	352.93
787.167	328.36
787.348	303.78
787.529	402.08
787.71	461.48
787.891	381.6
788.073	305.83
788.254	326.31
788.435	326.31
788.616	408.23
788.797	330.41
788.978	289.45
789.159	328.36
789.34	424.61
789.522	359.08
789.703	350.89
789.884	332.45
790.065	393.89
790.246	322.21
790.427	281.25
790.607	326.31
790.788	336.55
790.969	369.32
791.15	320.17
791.331	328.36
791.512	275.11
791.693	336.55
791.874	307.88
792.054	422.56
792.235	381.6
792.416	299.69
792.597	285.35
792.778	260.77
792.958	314.02
793.139	285.35
793.32	305.83
793.5	277.16
793.681	365.22
793.862	256.68
794.042	293.54
794.223	344.74
794.404	256.68
794.584	311.97
794.765	273.06
794.945	326.31
795.126	246.44
795.306	297.64
795.487	254.63
795.667	268.97
795.848	252.58
796.028	209.58
796.209	230.06
796.389	285.35
796.57	252.58
796.75	244.39
796.93	244.39
797.111	238.25
797.291	277.16
797.471	254.63
797.652	228.01
797.832	301.73
798.012	281.25
798.192	266.92
798.373	230.06
798.553	152.23
798.733	166.57
798.913	248.49
799.093	211.62
799.274	148.14
799.454	307.88
799.634	258.73
799.814	254.63
799.994	242.34
800.174	201.38
800.354	330.41
800.534	244.39
800.714	273.06
800.894	254.63
801.074	199.34
801.254	246.44
801.434	172.71
801.614	199.34
801.794	240.3
801.974	670.37
802.154	246.44
802.334	354.98
802.514	182.95
802.693	240.3
802.873	205.48
803.053	268.97
803.233	170.66
803.413	248.49
803.592	180.9
803.772	256.68
803.952	191.14
804.131	205.48
804.311	203.43
804.491	236.2
804.67	180.9
804.85	223.91
805.03	146.09
805.209	246.44
805.389	137.9
805.568	92.84
805.748	191.14
805.928	193.19
806.107	211.62
806.287	146.09
806.466	160.42
806.646	230.06
806.825	164.52
807.004	228.01
807.184	240.3
807.363	277.16
807.543	207.53
807.722	174.76
807.901	236.2
808.081	180.9
808.26	170.66
808.439	168.62
808.619	170.66
808.798	133.8
808.977	141.99
809.156	234.15
809.336	246.44
809.515	137.9
809.694	199.34
809.873	141.99
810.052	127.66
810.231	121.51
810.411	158.38
810.59	207.53
810.769	47.79
810.948	193.19
811.127	121.51
811.306	203.43
811.485	166.57
811.664	262.82
811.843	182.95
812.022	53.93
812.201	166.57
812.38	195.24
812.559	74.41
812.737	166.57
812.916	135.85
813.095	164.52
813.274	121.51
813.453	172.71
813.632	146.09
813.811	164.52
813.989	43.69
814.168	201.38
814.347	137.9
814.526	164.52
814.704	96.94
814.883	189.1
815.062	76.46
815.24	211.62
815.419	98.99
815.598	98.99
815.776	84.65
815.955	156.33
816.133	33.45
816.312	72.36
816.49	51.88
816.669	105.13
816.847	101.03
817.026	109.22
817.204	105.13
817.383	221.86
817.561	94.89
817.74	156.33
817.918	137.9
818.097	131.75
818.275	86.7
818.453	55.98
818.632	109.22
818.81	125.61
818.988	158.38
819.167	78.51
819.345	113.32
819.523	82.6
819.701	107.18
819.879	164.52
820.058	66.22
820.236	45.74
820.414	146.09
820.592	103.08
820.77	105.13
820.948	78.51
821.127	137.9
821.305	123.56
821.483	154.28
821.661	148.14
821.839	131.75
822.017	117.42
822.195	78.51
822.373	113.32
822.551	17.07
822.729	92.84
822.907	58.03
823.085	125.61
823.262	135.85
823.44	68.27
823.618	72.36
823.796	103.08
823.974	82.6
824.152	23.21
824.329	101.03
824.507	121.51
824.685	117.42
824.863	49.83
825.04	70.31
825.218	133.8
825.396	193.19
825.574	64.17
825.751	101.03
825.929	133.8
826.107	62.12
826.284	92.84
826.462	84.65
826.639	74.41
826.817	103.08
826.994	88.75
827.172	58.03
827.349	109.22
827.527	43.69
827.704	51.88
827.882	78.51
828.059	82.6
828.237	27.31
828.414	84.65
828.591	35.5
828.769	96.94
828.946	90.79
829.124	64.17
829.301	80.55
829.478	70.31
829.655	33.45
829.833	35.5
830.01	35.5
830.187	70.31
830.364	90.79
830.542	86.7
830.719	166.57
830.896	125.61
831.073	35.5
831.25	49.83
831.427	45.74
831.604	58.03
831.782	103.08
831.959	119.46
832.136	84.65
832.313	47.79
832.49	82.6
832.667	74.41
832.844	68.27
833.021	101.03
833.198	51.88
833.374	113.32
833.551	80.55
833.728	129.7
833.905	43.69
834.082	55.98
834.259	51.88
834.436	82.6
834.612	31.4
834.789	92.84
834.966	115.37
835.143	51.88
835.319	45.74
835.496	29.35
835.673	21.16
835.85	23.21
836.026	68.27
836.203	109.22
836.38	62.12
836.556	60.07
836.733	60.07
836.909	39.59
837.086	68.27
837.262	29.35
837.439	86.7
837.616	96.94
837.792	107.18
837.968	58.03
838.145	8.87
838.321	76.46
838.498	70.31
838.674	49.83
838.851	29.35
839.027	64.17
839.203	49.83
839.38	12.97
839.556	115.37
839.732	47.79
839.909	64.17
840.085	6.83
840.261	60.07
840.437	47.79
840.614	62.12
840.79	60.07
840.966	58.03
841.142	98.99
841.318	2.73
841.494	47.79
841.671	-5.46
841.847	8.87
842.023	-5.46
842.199	33.45
842.375	53.93
842.551	53.93
842.727	27.31
842.903	35.5
843.079	62.12
843.255	53.93
843.431	117.42
843.607	49.83
843.783	-15.7
843.959	49.83
844.134	43.69
844.31	-3.41
844.486	27.31
844.662	111.27
844.838	6.83
845.013	33.45
845.189	2.73
845.365	-7.51
845.541	2.73
845.716	105.13
845.892	23.21
846.068	68.27
846.244	-27.99
846.419	6.83
846.595	47.79
846.77	-3.41
846.946	19.11
847.122	76.46
847.297	19.11
847.473	105.13
847.648	19.11
847.824	10.92
847.999	27.31
848.175	51.88
848.35	88.75
848.526	12.97
848.701	17.07
848.876	0.68
849.052	-3.41
849.227	43.69
849.403	-5.46
849.578	47.79
849.753	82.6
849.929	17.07
850.104	10.92
850.279	64.17
850.454	2.73
850.63	25.26
850.805	-5.46
850.98	31.4
851.155	31.4
851.33	19.11
851.505	41.64
851.681	109.22
851.856	-46.42
852.031	35.5
852.206	45.74
852.381	-11.61
852.556	-34.13
852.731	19.11
852.906	58.03
853.081	29.35
853.256	96.94
853.431	6.83
853.606	74.41
853.781	49.83
853.956	-25.94
854.131	33.45
854.305	37.55
854.48	51.88
854.655	6.83
854.83	-32.08
855.005	62.12
855.18	35.5
855.354	107.18
855.529	-7.51
855.704	2.73
855.879	41.64
856.053	8.87
856.228	70.31
856.403	55.98
856.577	37.55
856.752	-9.56
856.926	131.75
857.101	17.07
857.276	-23.89
857.45	33.45
857.625	43.69
857.799	105.13
857.974	64.17
858.148	10.92
858.323	-5.46
858.497	88.75
858.672	-25.94
858.846	-13.65
859.02	4.78
859.195	-44.37
859.369	86.7
859.543	19.11
859.718	17.07
859.892	21.16
860.066	-17.75
860.241	-9.56
860.415	47.79
860.589	-5.46
860.763	66.22
860.938	29.35
861.112	19.11
861.286	-13.65
861.46	-36.18
861.634	58.03
861.808	-1.37
861.982	-17.75
862.157	-42.32
862.331	103.08
862.505	10.92
862.679	74.41
862.853	4.78
863.027	6.83
863.201	17.07
863.375	-3.41
863.549	51.88
863.722	27.31
863.896	113.32
864.07	58.03
864.244	-9.56
864.418	35.5
864.592	2.73
864.766	-87.38
864.939	17.07
865.113	-66.9
865.287	88.75
865.461	-11.61
865.634	-5.46
865.808	0.68
865.982	-23.89
866.156	-7.51
866.329	31.4
866.503	49.83
866.676	-38.23
866.85	47.79
867.024	8.87
867.197	-46.42
867.371	45.74
867.544	53.93
867.718	21.16
867.891	43.69
868.065	-34.13
868.238	37.55
868.412	51.88
868.585	-40.28
868.759	12.97
868.932	4.78
869.105	-7.51
869.279	41.64
869.452	-50.52
869.625	51.88
869.799	0.68
869.972	21.16
870.145	84.65
870.319	25.26
870.492	27.31
870.665	15.02
870.838	-21.85
871.011	-25.94
871.185	62.12
871.358	35.5
871.531	23.21
871.704	15.02
871.877	105.13
872.05	15.02
872.223	-40.28
872.396	-1.37
872.569	8.87
872.742	-44.37
872.915	21.16
873.088	31.4
873.261	-32.08
873.434	37.55
873.607	49.83
873.78	64.17
873.953	-25.94
874.126	43.69
874.299	47.79
874.471	-54.61
874.644	19.11
874.817	53.93
874.99	58.03
875.163	-27.99
875.335	21.16
875.508	-34.13
875.681	43.69
875.853	-1.37
876.026	-13.65
876.199	-25.94
876.371	-25.94
876.544	23.21
876.717	-11.61
876.889	43.69
877.062	39.59
877.234	19.11
877.407	-32.08
877.579	4.78
877.752	-1.37
877.924	60.07
878.097	-77.14
878.269	45.74
878.442	39.59
878.614	19.11
878.786	-3.41
878.959	-9.56
879.131	31.4
879.303	-21.85
879.476	62.12
879.648	-21.85
879.82	-34.13
879.993	-5.46
880.165	-95.57
880.337	6.83
880.509	23.21
880.681	8.87
880.854	62.12
881.026	25.26
881.198	49.83
881.37	-38.23
881.542	-1.37
881.714	-75.09
881.886	-5.46
882.058	4.78
882.23	-27.99
882.402	-7.51
882.574	60.07
882.746	-36.18
882.918	25.26
883.09	-17.75
883.262	17.07
883.434	-46.42
883.606	17.07
883.778	-5.46
883.95	101.03
884.122	-3.41
884.293	45.74
884.465	27.31
884.637	98.99
884.809	-118.1
884.98	23.21
885.152	39.59
885.324	31.4
885.496	-56.66
885.667	10.92
885.839	66.22
886.011	35.5
886.182	58.03
886.354	31.4
886.525	19.11
886.697	62.12
886.869	0.68
887.04	-21.85
887.212	82.6
887.383	76.46
887.555	-21.85
887.726	4.78
887.897	72.36
888.069	58.03
888.24	-44.37
888.412	27.31
888.583	-1.37
888.754	29.35
888.926	-73.04
889.097	-15.7
889.268	-83.28
889.44	64.17
889.611	-71
889.782	-3.41
889.953	-5.46
890.125	12.97
890.296	-15.7
890.467	-9.56
890.638	-56.66
890.809	-13.65
890.98	-83.28
891.151	19.11
891.323	-34.13
891.494	-1.37
891.665	-15.7
891.836	25.26
892.007	-9.56
892.178	15.02
892.349	-21.85
892.52	2.73
892.691	-38.23
892.862	4.78
893.032	-50.52
893.203	-42.32
893.374	49.83
893.545	-1.37
893.716	72.36
893.887	51.88
894.057	33.45
894.228	-7.51
894.399	-5.46
894.57	86.7
894.74	-3.41
894.911	10.92
895.082	-91.48
895.253	-27.99
895.423	-5.46
895.594	31.4
895.764	-30.04
895.935	-52.56
896.106	23.21
896.276	-30.04
896.447	-38.23
896.617	-50.52
896.788	-3.41
896.958	-17.75
897.129	-25.94
897.299	-5.46
897.47	-62.8
897.64	0.68
897.81	-3.41
897.981	51.88
898.151	-23.89
898.322	49.83
898.492	-5.46
898.662	68.27
898.832	-64.85
899.003	-60.76
899.173	-73.04
899.343	60.07
899.513	-71
