Data from USB4F104151__64__11-06-03-645.txt Node

Date: Wed Mar 12 11:06:03 EDT 2025
User: louis
Spectrometer: USB4F10415
Trigger mode: 4
Integration Time (sec): 2.000000E-2
Scans to average: 1
Electric dark correction enabled: true
Nonlinearity correction enabled: false
Boxcar width: 0
XAxis mode: Wavelengths
Number of Pixels in Spectrum: 3648
>>>>>Begin Spectral Data<<<<<
178.204	-75.77
178.424	-75.77
178.644	-75.77
178.864	-36.86
179.084	-59.39
179.304	36.86
179.524	-43.01
179.744	-45.06
179.964	-26.62
180.184	10.24
180.404	8.19
180.624	-10.24
180.844	-34.82
181.064	18.43
181.283	24.58
181.503	38.91
181.723	22.53
181.943	-18.43
182.163	4.1
182.383	6.14
182.602	63.49
182.822	53.25
183.042	69.63
183.262	88.06
183.482	18.43
183.701	4.1
183.921	96.25
184.141	-67.58
184.361	104.45
184.58	57.34
184.8	-8.19
185.02	-12.29
185.239	-6.14
185.459	-18.43
185.679	-14.34
185.898	12.29
186.118	86.01
186.338	47.1
186.557	61.44
186.777	14.34
186.997	53.25
187.216	34.82
187.436	90.11
187.655	6.14
187.875	28.67
188.095	-18.43
188.314	65.54
188.534	94.21
188.753	47.1
188.973	34.82
189.192	34.82
189.412	-34.82
189.631	-4.1
189.851	24.58
190.07	40.96
190.29	100.35
190.509	2.05
190.729	22.53
190.948	81.92
191.168	86.01
191.387	65.54
191.607	28.67
191.826	90.11
192.045	120.83
192.265	75.77
192.484	4.1
192.704	26.62
192.923	24.58
193.142	83.97
193.362	-14.34
193.581	63.49
193.8	4.1
194.02	98.3
194.239	-6.14
194.458	65.54
194.678	32.77
194.897	153.6
195.116	43.01
195.335	28.67
195.555	63.49
195.774	2.05
195.993	47.1
196.212	14.34
196.432	32.77
196.651	22.53
196.87	71.68
197.089	169.98
197.308	55.3
197.528	-6.14
197.747	12.29
197.966	14.34
198.185	98.3
198.404	126.97
198.623	47.1
198.842	34.82
199.062	-20.48
199.281	86.01
199.5	16.38
199.719	49.15
199.938	53.25
200.157	18.43
200.376	12.29
200.595	-6.14
200.814	98.3
201.033	-32.77
201.252	61.44
201.471	77.82
201.69	8.19
201.909	79.87
202.128	112.64
202.347	34.82
202.566	83.97
202.785	-57.34
203.004	96.25
203.223	16.38
203.442	-14.34
203.661	77.82
203.879	32.77
204.098	6.14
204.317	28.67
204.536	24.58
204.755	0
204.974	2.05
205.193	71.68
205.411	110.59
205.63	124.93
205.849	51.2
206.068	63.49
206.287	12.29
206.505	4.1
206.724	83.97
206.943	92.16
207.162	98.3
207.381	-32.77
207.599	51.2
207.818	67.58
208.037	0
208.255	6.14
208.474	0
208.693	-6.14
208.911	102.4
209.13	-16.38
209.349	43.01
209.567	22.53
209.786	49.15
210.005	-16.38
210.223	77.82
210.442	24.58
210.661	28.67
210.879	34.82
211.098	55.3
211.316	57.34
211.535	108.54
211.753	22.53
211.972	71.68
212.191	38.91
212.409	20.48
212.628	40.96
212.846	-4.1
213.065	51.2
213.283	75.77
213.502	-4.1
213.72	40.96
213.938	2.05
214.157	40.96
214.375	0
214.594	-36.86
214.812	32.77
215.031	49.15
215.249	28.67
215.467	-24.58
215.686	0
215.904	65.54
216.122	-8.19
216.341	34.82
216.559	28.67
216.778	26.62
216.996	45.06
217.214	28.67
217.432	-28.67
217.651	18.43
217.869	96.25
218.087	67.58
218.306	57.34
218.524	59.39
218.742	-24.58
218.96	2.05
219.179	49.15
219.397	65.54
219.615	96.25
219.833	59.39
220.051	12.29
220.27	4.1
220.488	57.34
220.706	-2.05
220.924	18.43
221.142	43.01
221.36	57.34
221.578	36.86
221.796	-4.1
222.015	161.79
222.233	26.62
222.451	18.43
222.669	47.1
222.887	47.1
223.105	-71.68
223.323	45.06
223.541	-24.58
223.759	57.34
223.977	4.1
224.195	-12.29
224.413	-43.01
224.631	28.67
224.849	18.43
225.067	57.34
225.285	14.34
225.503	34.82
225.721	8.19
225.939	75.77
226.157	79.87
226.375	65.54
226.592	-8.19
226.81	30.72
227.028	45.06
227.246	67.58
227.464	38.91
227.682	63.49
227.9	38.91
228.117	22.53
228.335	34.82
228.553	-16.38
228.771	49.15
228.989	-40.96
229.206	120.83
229.424	32.77
229.642	16.38
229.86	61.44
230.077	57.34
230.295	-2.05
230.513	-8.19
230.731	53.25
230.948	106.49
231.166	36.86
231.384	2.05
231.601	57.34
231.819	126.97
232.037	-6.14
232.254	28.67
232.472	12.29
232.689	22.53
232.907	-16.38
233.125	96.25
233.342	8.19
233.56	4.1
233.777	40.96
233.995	22.53
234.213	104.45
234.43	67.58
234.648	22.53
234.865	0
235.083	112.64
235.3	90.11
235.518	20.48
235.735	106.49
235.953	108.54
236.17	-4.1
236.388	30.72
236.605	40.96
236.822	-6.14
237.04	63.49
237.257	36.86
237.475	122.88
237.692	24.58
237.909	122.88
238.127	24.58
238.344	94.21
238.562	36.86
238.779	40.96
238.996	20.48
239.214	4.1
239.431	77.82
239.648	-6.14
239.865	77.82
240.083	94.21
240.3	6.14
240.517	86.01
240.735	102.4
240.952	12.29
241.169	139.26
241.386	75.77
241.603	51.2
241.821	28.67
242.038	43.01
242.255	32.77
242.472	36.86
242.689	63.49
242.907	-28.67
243.124	94.21
243.341	73.73
243.558	-8.19
243.775	61.44
243.992	40.96
244.209	55.3
244.426	40.96
244.643	24.58
244.86	65.54
245.078	94.21
245.295	-40.96
245.512	73.73
245.729	22.53
245.946	65.54
246.163	22.53
246.38	47.1
246.597	38.91
246.814	63.49
247.031	2.05
247.248	77.82
247.464	-38.91
247.681	32.77
247.898	94.21
248.115	86.01
248.332	96.25
248.549	14.34
248.766	36.86
248.983	24.58
249.2	24.58
249.417	-22.53
249.633	92.16
249.85	77.82
250.067	4.1
250.284	-47.1
250.501	108.54
250.717	-6.14
250.934	4.1
251.151	-8.19
251.368	79.87
251.585	81.92
251.801	34.82
252.018	55.3
252.235	57.34
252.451	14.34
252.668	-2.05
252.885	86.01
253.102	6.14
253.318	51.2
253.535	30.72
253.752	10.24
253.968	61.44
254.185	-28.67
254.401	45.06
254.618	53.25
254.835	6.14
255.051	36.86
255.268	51.2
255.484	30.72
255.701	-45.06
255.917	-12.29
256.134	14.34
256.351	16.38
256.567	24.58
256.784	73.73
257	24.58
257.217	-2.05
257.433	51.2
257.65	24.58
257.866	77.82
258.082	28.67
258.299	0
258.515	24.58
258.732	-22.53
258.948	28.67
259.165	40.96
259.381	14.34
259.597	96.25
259.814	59.39
260.03	22.53
260.246	36.86
260.463	20.48
260.679	20.48
260.895	94.21
261.112	69.63
261.328	77.82
261.544	18.43
261.761	67.58
261.977	-32.77
262.193	53.25
262.409	63.49
262.626	51.2
262.842	114.69
263.058	36.86
263.274	110.59
263.49	28.67
263.707	67.58
263.923	-49.15
264.139	-20.48
264.355	6.14
264.571	36.86
264.787	28.67
265.004	106.49
265.22	55.3
265.436	4.1
265.652	79.87
265.868	61.44
266.084	-12.29
266.3	61.44
266.516	26.62
266.732	43.01
266.948	18.43
267.164	2.05
267.38	57.34
267.596	79.87
267.812	43.01
268.028	40.96
268.244	30.72
268.46	28.67
268.676	10.24
268.892	81.92
269.108	-24.58
269.324	30.72
269.54	81.92
269.756	24.58
269.972	8.19
270.188	71.68
270.403	47.1
270.619	57.34
270.835	40.96
271.051	108.54
271.267	-28.67
271.483	43.01
271.698	18.43
271.914	53.25
272.13	55.3
272.346	63.49
272.562	12.29
272.777	57.34
272.993	10.24
273.209	55.3
273.425	-4.1
273.64	40.96
273.856	94.21
274.072	20.48
274.287	-40.96
274.503	73.73
274.719	71.68
274.934	49.15
275.15	36.86
275.366	4.1
275.581	47.1
275.797	69.63
276.012	90.11
276.228	26.62
276.444	57.34
276.659	86.01
276.875	28.67
277.09	-47.1
277.306	10.24
277.521	122.88
277.737	38.91
277.952	49.15
278.168	-6.14
278.383	53.25
278.599	28.67
278.814	45.06
279.03	12.29
279.245	20.48
279.461	0
279.676	12.29
279.892	143.36
280.107	28.67
280.322	45.06
280.538	22.53
280.753	22.53
280.969	-12.29
281.184	45.06
281.399	-4.1
281.615	-30.72
281.83	12.29
282.045	-30.72
282.26	38.91
282.476	16.38
282.691	88.06
282.906	-20.48
283.122	63.49
283.337	71.68
283.552	63.49
283.767	26.62
283.983	6.14
284.198	-34.82
284.413	110.59
284.628	57.34
284.843	-4.1
285.058	77.82
285.274	59.39
285.489	24.58
285.704	96.25
285.919	57.34
286.134	57.34
286.349	45.06
286.564	63.49
286.779	100.35
286.995	-47.1
287.21	47.1
287.425	53.25
287.64	40.96
287.855	16.38
288.07	24.58
288.285	40.96
288.5	63.49
288.715	110.59
288.93	86.01
289.145	-18.43
289.36	32.77
289.575	38.91
289.79	34.82
290.004	-36.86
290.219	73.73
290.434	79.87
290.649	-8.19
290.864	32.77
291.079	61.44
291.294	63.49
291.509	-2.05
291.724	14.34
291.938	79.87
292.153	-4.1
292.368	30.72
292.583	2.05
292.798	106.49
293.012	10.24
293.227	112.64
293.442	-26.62
293.657	51.2
293.871	88.06
294.086	71.68
294.301	75.77
294.516	94.21
294.73	75.77
294.945	69.63
295.16	-32.77
295.374	26.62
295.589	88.06
295.804	63.49
296.018	-14.34
296.233	102.4
296.447	94.21
296.662	71.68
296.877	92.16
297.091	32.77
297.306	45.06
297.52	65.54
297.735	40.96
297.949	73.73
298.164	90.11
298.378	24.58
298.593	75.77
298.807	34.82
299.022	106.49
299.236	43.01
299.451	38.91
299.665	-63.49
299.88	-16.38
300.094	36.86
300.309	88.06
300.523	53.25
300.737	47.1
300.952	45.06
301.166	94.21
301.381	47.1
301.595	45.06
301.809	59.39
302.024	45.06
302.238	-12.29
302.452	92.16
302.667	75.77
302.881	108.54
303.095	24.58
303.309	45.06
303.524	6.14
303.738	-47.1
303.952	96.25
304.166	28.67
304.381	49.15
304.595	120.83
304.809	28.67
305.023	18.43
305.237	6.14
305.452	63.49
305.666	43.01
305.88	108.54
306.094	16.38
306.308	53.25
306.522	40.96
306.736	32.77
306.95	63.49
307.164	26.62
307.379	73.73
307.593	139.26
307.807	-51.2
308.021	79.87
308.235	26.62
308.449	-12.29
308.663	-4.1
308.877	49.15
309.091	104.45
309.305	63.49
309.519	83.97
309.733	86.01
309.947	14.34
310.161	126.97
310.374	77.82
310.588	38.91
310.802	-24.58
311.016	83.97
311.23	47.1
311.444	63.49
311.658	2.05
311.872	32.77
312.085	69.63
312.299	61.44
312.513	81.92
312.727	133.12
312.941	22.53
313.154	90.11
313.368	57.34
313.582	81.92
313.796	10.24
314.009	16.38
314.223	40.96
314.437	36.86
314.651	81.92
314.864	77.82
315.078	43.01
315.292	-10.24
315.505	79.87
315.719	10.24
315.933	45.06
316.146	69.63
316.36	59.39
316.573	26.62
316.787	8.19
317.001	114.69
317.214	94.21
317.428	102.4
317.641	12.29
317.855	65.54
318.068	18.43
318.282	43.01
318.495	51.2
318.709	24.58
318.922	-16.38
319.136	71.68
319.349	45.06
319.563	63.49
319.776	53.25
319.99	4.1
320.203	-6.14
320.417	88.06
320.63	-4.1
320.843	116.73
321.057	178.17
321.27	51.2
321.483	10.24
321.697	112.64
321.91	88.06
322.124	98.3
322.337	86.01
322.55	36.86
322.763	92.16
322.977	51.2
323.19	34.82
323.403	24.58
323.617	67.58
323.83	-16.38
324.043	65.54
324.256	73.73
324.469	22.53
324.683	63.49
324.896	112.64
325.109	106.49
325.322	28.67
325.535	-8.19
325.748	118.78
325.962	-4.1
326.175	34.82
326.388	112.64
326.601	81.92
326.814	83.97
327.027	67.58
327.24	98.3
327.453	86.01
327.666	94.21
327.879	67.58
328.092	18.43
328.305	49.15
328.518	2.05
328.731	4.1
328.944	53.25
329.157	38.91
329.37	45.06
329.583	110.59
329.796	-53.25
330.009	83.97
330.222	92.16
330.435	-28.67
330.648	61.44
330.861	47.1
331.073	45.06
331.286	49.15
331.499	4.1
331.712	45.06
331.925	75.77
332.138	0
332.35	51.2
332.563	40.96
332.776	118.78
332.989	65.54
333.202	86.01
333.414	30.72
333.627	-4.1
333.84	-55.3
334.053	16.38
334.265	40.96
334.478	49.15
334.691	51.2
334.903	24.58
335.116	61.44
335.329	14.34
335.541	-18.43
335.754	77.82
335.966	24.58
336.179	18.43
336.392	71.68
336.604	75.77
336.817	28.67
337.029	116.73
337.242	51.2
337.454	45.06
337.667	53.25
337.88	86.01
338.092	49.15
338.305	79.87
338.517	-14.34
338.729	79.87
338.942	102.4
339.154	38.91
339.367	16.38
339.579	96.25
339.792	55.3
340.004	49.15
340.217	14.34
340.429	118.78
340.641	53.25
340.854	102.4
341.066	14.34
341.278	73.73
341.491	45.06
341.703	57.34
341.915	-8.19
342.128	16.38
342.34	122.88
342.552	71.68
342.764	45.06
342.977	40.96
343.189	40.96
343.401	34.82
343.613	4.1
343.826	43.01
344.038	36.86
344.25	86.01
344.462	88.06
344.674	81.92
344.886	53.25
345.099	40.96
345.311	14.34
345.523	28.67
345.735	40.96
345.947	159.74
346.159	12.29
346.371	36.86
346.583	26.62
346.795	34.82
347.007	106.49
347.219	106.49
347.431	81.92
347.643	57.34
347.855	47.1
348.067	67.58
348.279	-10.24
348.491	57.34
348.703	151.55
348.915	88.06
349.127	59.39
349.339	32.77
349.551	30.72
349.763	71.68
349.975	59.39
350.187	71.68
350.399	57.34
350.61	12.29
350.822	18.43
351.034	14.34
351.246	120.83
351.458	81.92
351.669	86.01
351.881	69.63
352.093	8.19
352.305	59.39
352.517	73.73
352.728	45.06
352.94	75.77
353.152	106.49
353.363	-20.48
353.575	61.44
353.787	18.43
353.999	98.3
354.21	102.4
354.422	57.34
354.633	-36.86
354.845	49.15
355.057	98.3
355.268	65.54
355.48	30.72
355.692	8.19
355.903	61.44
356.115	-20.48
356.326	45.06
356.538	36.86
356.749	28.67
356.961	129.02
357.172	14.34
357.384	69.63
357.595	94.21
357.807	51.2
358.018	57.34
358.23	36.86
358.441	75.77
358.653	112.64
358.864	18.43
359.075	28.67
359.287	59.39
359.498	90.11
359.709	-32.77
359.921	59.39
360.132	45.06
360.344	83.97
360.555	75.77
360.766	81.92
360.977	26.62
361.189	49.15
361.4	32.77
361.611	57.34
361.823	10.24
362.034	32.77
362.245	63.49
362.456	73.73
362.667	49.15
362.879	88.06
363.09	-6.14
363.301	40.96
363.512	10.24
363.723	-24.58
363.935	24.58
364.146	83.97
364.357	20.48
364.568	120.83
364.779	4.1
364.99	180.22
365.201	40.96
365.412	69.63
365.623	61.44
365.834	49.15
366.045	73.73
366.256	86.01
366.467	16.38
366.678	63.49
366.889	65.54
367.1	30.72
367.311	116.73
367.522	45.06
367.733	26.62
367.944	61.44
368.155	83.97
368.366	98.3
368.577	22.53
368.788	53.25
368.999	106.49
369.209	45.06
369.42	114.69
369.631	40.96
369.842	88.06
370.053	8.19
370.264	6.14
370.474	34.82
370.685	38.91
370.896	61.44
371.107	69.63
371.317	96.25
371.528	55.3
371.739	34.82
371.95	73.73
372.16	53.25
372.371	43.01
372.582	90.11
372.792	59.39
373.003	63.49
373.214	83.97
373.424	-18.43
373.635	43.01
373.846	106.49
374.056	55.3
374.267	40.96
374.477	24.58
374.688	49.15
374.898	2.05
375.109	67.58
375.319	73.73
375.53	102.4
375.74	6.14
375.951	47.1
376.161	92.16
376.372	69.63
376.582	94.21
376.793	94.21
377.003	34.82
377.214	102.4
377.424	-2.05
377.635	51.2
377.845	40.96
378.055	90.11
378.266	45.06
378.476	-16.38
378.686	57.34
378.897	45.06
379.107	36.86
379.317	16.38
379.528	-2.05
379.738	124.93
379.948	28.67
380.158	22.53
380.369	36.86
380.579	53.25
380.789	57.34
380.999	88.06
381.21	20.48
381.42	32.77
381.63	98.3
381.84	43.01
382.05	-6.14
382.261	53.25
382.471	63.49
382.681	12.29
382.891	86.01
383.101	139.26
383.311	104.45
383.521	30.72
383.731	86.01
383.941	104.45
384.151	77.82
384.361	63.49
384.571	18.43
384.781	65.54
384.991	122.88
385.201	116.73
385.411	90.11
385.621	90.11
385.831	86.01
386.041	57.34
386.251	90.11
386.461	102.4
386.671	86.01
386.881	102.4
387.091	65.54
387.301	106.49
387.511	-8.19
387.72	79.87
387.93	49.15
388.14	43.01
388.35	47.1
388.56	122.88
388.769	79.87
388.979	90.11
389.189	32.77
389.399	53.25
389.609	20.48
389.818	112.64
390.028	57.34
390.238	69.63
390.447	51.2
390.657	53.25
390.867	49.15
391.076	32.77
391.286	90.11
391.496	126.97
391.705	81.92
391.915	126.97
392.125	71.68
392.334	65.54
392.544	90.11
392.753	120.83
392.963	45.06
393.172	30.72
393.382	73.73
393.591	110.59
393.801	90.11
394.01	79.87
394.22	161.79
394.429	106.49
394.639	40.96
394.848	86.01
395.058	112.64
395.267	122.88
395.477	90.11
395.686	120.83
395.895	196.61
396.105	81.92
396.314	-8.19
396.524	151.55
396.733	114.69
396.942	114.69
397.152	141.31
397.361	100.35
397.57	51.2
397.78	90.11
397.989	151.55
398.198	212.99
398.407	57.34
398.617	159.74
398.826	120.83
399.035	122.88
399.244	165.89
399.453	126.97
399.663	104.45
399.872	110.59
400.081	49.15
400.29	137.21
400.499	79.87
400.708	108.54
400.917	163.84
401.127	34.82
401.336	49.15
401.545	163.84
401.754	178.17
401.963	190.46
402.172	151.55
402.381	124.93
402.59	126.97
402.799	114.69
403.008	69.63
403.217	178.17
403.426	147.45
403.635	153.6
403.844	149.5
404.053	88.06
404.262	98.3
404.471	198.65
404.68	98.3
404.888	161.79
405.097	174.08
405.306	174.08
405.515	143.36
405.724	192.51
405.933	90.11
406.142	200.7
406.35	120.83
406.559	73.73
406.768	249.85
406.977	225.28
407.185	221.18
407.394	133.12
407.603	176.13
407.812	165.89
408.02	253.95
408.229	264.19
408.438	190.46
408.646	210.94
408.855	227.32
409.064	245.76
409.272	253.95
409.481	296.96
409.69	235.52
409.898	227.32
410.107	278.52
410.315	319.48
410.524	348.15
410.733	317.44
410.941	294.91
411.15	385.02
411.358	385.02
411.567	376.83
411.775	421.88
411.984	393.21
412.192	366.59
412.401	434.17
412.609	362.49
412.818	446.46
413.026	385.02
413.234	446.46
413.443	446.46
413.651	573.43
413.86	497.66
414.068	557.05
414.276	620.53
414.485	559.1
414.693	626.68
414.901	643.06
415.11	647.16
415.318	636.92
415.526	686.07
415.734	780.28
415.943	829.43
416.151	714.74
416.359	694.26
416.567	778.23
416.776	802.8
416.984	899.06
417.192	831.48
417.4	874.48
417.608	882.67
417.817	983.02
418.025	1001.46
418.233	1064.94
418.441	1064.94
418.649	1083.38
418.857	1118.19
419.065	1148.91
419.273	1122.29
419.481	1232.88
419.689	1327.08
419.897	1394.67
420.105	1304.56
420.313	1415.15
420.521	1445.87
420.729	1474.54
420.937	1486.83
421.145	1593.32
421.353	1689.57
421.561	1736.68
421.769	1775.59
421.977	1824.74
422.185	1826.79
422.393	1873.89
422.601	2064.35
422.809	2076.64
423.017	2058.21
423.224	2176.99
423.432	2299.87
423.64	2240.48
423.848	2392.03
424.056	2389.98
424.263	2547.67
424.471	2627.54
424.679	2654.17
424.887	2781.14
425.094	2834.39
425.302	2813.91
425.51	2947.03
425.718	3000.27
425.925	3014.61
426.133	3184.59
426.341	3323.85
426.548	3485.64
426.756	3504.07
426.964	3614.66
427.171	3760.07
427.379	3952.58
427.586	3921.86
427.794	4091.84
428.001	4274.11
428.209	4503.48
428.417	4419.52
428.624	4747.19
428.832	4626.36
429.039	4622.27
429.247	4657.08
429.454	5158.83
429.662	5466.03
429.869	5058.48
430.076	5562.28
430.284	5248.94
430.491	5529.52
430.699	6029.22
430.906	5894.05
431.114	6031.27
431.321	6182.82
431.528	6342.56
431.736	6659.99
431.943	6889.37
432.15	6872.98
432.358	6864.79
432.565	7266.19
432.772	7288.72
432.979	7643.02
433.187	7823.24
433.394	7737.23
433.601	8433.54
433.808	8228.74
434.016	8263.55
434.223	8810.36
434.43	9215.86
434.637	8890.23
434.844	9604.97
435.052	9938.79
435.259	9713.52
435.466	9590.64
435.673	9660.27
435.88	10323.81
436.087	11005.78
436.294	11089.75
436.501	10518.37
436.708	10743.64
436.915	11241.3
437.122	11749.2
437.329	11415.38
437.537	11976.52
437.743	12117.83
437.95	12068.68
438.157	12603.2
438.364	13238.07
438.571	12857.15
438.778	13393.72
438.985	14599.97
439.192	13903.66
439.399	14464.8
439.606	14176.04
439.813	14628.64
440.02	15609.62
440.227	15550.23
440.433	15419.16
440.64	15838.99
440.847	15503.12
441.054	16000.78
441.261	17194.75
441.467	17166.07
441.674	17514.23
441.881	18099.95
442.088	17700.59
442.294	17639.15
442.501	18169.58
442.708	18634.47
442.914	19302.11
443.121	20412.1
443.328	19719.89
443.534	20764.36
443.741	20514.5
443.948	20201.16
444.154	21753.52
444.361	21368.51
444.568	21839.54
444.774	21505.72
444.981	21827.25
445.187	22664.87
445.394	23529.11
445.6	23547.54
445.807	25452.16
446.013	24247.95
446.22	24938.12
446.426	25923.19
446.633	25943.67
446.839	26914.41
447.046	25808.5
447.252	27235.94
447.459	27170.4
447.665	26988.13
447.871	28331.6
448.078	29357.63
448.284	28180.05
448.491	28692.04
448.697	29996.6
448.903	30277.17
449.11	30232.11
449.316	29898.3
449.522	30449.2
449.728	31194.66
449.935	31503.9
450.141	31364.64
450.347	32405.01
450.553	31186.47
450.76	31462.94
450.966	32226.84
451.172	31929.88
451.378	32726.54
451.584	32063
451.791	33168.9
451.997	32806.41
452.203	33576.45
452.409	33322.5
452.615	33510.91
452.821	32155.16
453.027	31680.03
453.233	32968.2
453.44	31772.19
453.646	32032.28
453.852	32343.57
454.058	33109.51
454.264	31671.84
454.47	32249.36
454.676	31352.35
454.882	32720.4
455.088	29820.47
455.294	30678.57
455.5	30639.66
455.705	31430.18
455.911	29812.28
456.117	29210.18
456.323	28765.77
456.529	27256.42
456.735	28431.95
456.941	27702.87
457.147	27182.69
457.352	26281.58
457.558	25691.77
457.764	25845.37
457.97	25532.03
458.176	25192.06
458.381	24706.69
458.587	23807.64
458.793	23715.48
458.999	22390.44
459.204	24172.18
459.41	23664.28
459.616	21939.89
459.821	22089.39
460.027	21923.51
460.233	21567.16
460.438	20549.32
460.644	20358.86
460.85	19683.03
461.055	19242.71
461.261	19359.45
461.466	17923.82
461.672	17280.76
461.878	18591.46
462.083	17354.49
462.289	17008.38
462.494	16869.12
462.7	15920.91
462.905	15787.79
463.111	16387.85
463.316	16398.09
463.522	15882
463.727	16068.36
463.932	15945.48
464.138	15533.84
464.343	15892.24
464.549	15249.18
464.754	15816.46
464.959	15845.13
465.165	15861.52
465.37	15126.3
465.575	14630.69
465.781	15124.25
465.986	15499.03
466.191	14728.99
466.397	14448.42
466.602	13823.79
466.807	14554.91
467.012	14362.4
467.218	14317.35
467.423	13774.64
467.628	14395.17
467.833	14628.64
468.038	14327.59
468.244	13815.6
468.449	14602.02
468.654	13743.92
468.859	13819.69
469.064	13909.8
469.269	13215.54
469.474	13279.03
469.679	13623.09
469.885	13061.94
470.09	13270.84
470.295	13397.81
470.5	12787.52
470.705	12918.59
470.91	12627.78
471.115	12535.62
471.32	12783.42
471.525	12492.61
471.73	12429.12
471.935	12216.13
472.139	11781.96
472.344	12009.29
472.549	12042.06
472.754	12001.1
472.959	11472.72
473.164	11472.72
473.369	11269.97
473.574	11579.22
473.778	11646.8
473.983	11534.16
474.188	11401.04
474.393	10772.32
474.598	10874.71
474.802	10821.47
475.007	10907.48
475.212	10778.46
475.417	10469.22
475.621	10274.66
475.826	10426.21
476.031	10243.94
476.235	10139.49
476.44	10200.93
476.645	9883.5
476.849	10000.23
477.054	9758.57
477.259	9701.23
477.463	9727.85
477.668	9365.36
477.872	9525.1
478.077	9404.27
478.282	9351.03
478.486	9125.75
478.691	9172.85
478.895	9224.05
479.1	8970.1
479.304	9074.55
479.509	8843.13
479.713	8925.05
479.918	8701.82
480.122	8599.42
480.326	8765.31
480.531	8777.59
480.735	8427.39
480.94	8462.21
481.144	8816.51
481.348	8454.01
481.553	8511.36
481.757	8341.38
481.961	8540.03
482.166	8744.83
482.37	8499.07
482.574	8384.38
482.778	8333.18
482.983	8572.8
483.187	8390.53
483.391	8546.17
483.595	8449.92
483.8	8406.91
484.004	8376.19
484.208	8744.83
484.412	8408.96
484.616	8556.41
484.821	8359.81
485.025	8095.62
485.229	8415.1
485.433	8320.9
485.637	8286.08
485.841	8322.94
486.045	8441.73
486.249	8269.7
486.453	8372.1
486.657	8460.16
486.861	8427.39
487.065	8355.71
487.269	8331.14
487.473	8226.69
487.677	8345.47
487.881	8386.43
488.085	8310.66
488.289	8599.42
488.493	8464.25
488.697	8427.39
488.901	8458.11
489.105	8630.14
489.309	8499.07
489.512	8339.33
489.716	8421.25
489.92	8546.17
490.124	8542.08
490.328	8630.14
490.531	8564.61
490.735	8759.16
490.939	8675.2
491.143	8505.21
491.346	8556.41
491.55	8781.69
491.754	8767.35
491.958	8863.61
492.161	8892.28
492.365	8875.9
492.569	8910.71
492.772	8785.79
492.976	9156.47
493.18	9060.21
493.383	9131.89
493.587	9373.55
493.79	9389.94
493.994	9211.76
494.197	9295.73
494.401	9510.77
494.605	9529.2
494.808	9502.57
495.012	9607.02
495.215	9617.26
495.419	9721.71
495.622	9674.6
495.825	9822.06
496.029	9639.79
496.232	10104.68
496.436	10090.34
496.639	10164.07
496.843	10270.56
497.046	10393.44
497.249	10305.38
497.453	10725.21
497.656	10696.54
497.859	11001.69
498.063	10964.82
498.266	11001.69
498.469	11073.37
498.673	11222.87
498.876	11335.51
499.079	11280.21
499.282	11345.75
499.485	11571.02
499.689	11738.96
499.892	11804.49
500.095	12027.72
500.298	12183.37
500.501	12066.63
500.705	12523.33
500.908	12666.69
501.111	12932.92
501.314	12869.44
501.517	12980.03
501.72	13291.32
501.923	13094.71
502.126	13530.93
502.329	13643.57
502.532	13715.25
502.735	13874.99
502.938	14030.63
503.141	14087.98
503.344	14341.93
503.547	14315.3
503.75	14642.98
503.953	14929.69
504.156	14851.87
504.359	15224.6
504.562	15058.71
504.765	15492.88
504.968	15462.16
505.17	15640.34
505.373	15951.63
505.576	15904.53
505.779	16348.93
505.982	16346.89
506.185	16658.18
506.387	16895.74
506.59	16867.07
506.793	17344.25
506.996	17118.97
507.198	17788.66
507.401	17678.07
507.604	17782.51
507.807	18192.11
508.009	18314.98
508.212	18421.48
508.415	18607.84
508.617	18829.02
508.82	19058.4
509.022	18937.57
509.225	19420.89
509.428	19549.91
509.63	19756.75
509.833	19988.17
510.035	20463.3
510.238	20213.45
510.44	20600.52
510.643	20790.98
510.845	21063.36
511.048	20897.47
511.25	21309.11
511.453	21581.49
511.655	22374.06
511.858	21943.99
512.06	22232.75
512.262	22458.03
512.465	22484.65
512.667	22855.33
512.87	23246.49
513.072	22970.02
513.274	23684.76
513.477	23862.93
513.679	24051.34
513.881	24585.86
514.084	24481.42
514.286	24686.22
514.488	24974.98
514.69	25642.62
514.893	25728.63
515.095	25579.13
515.297	25699.96
515.499	26392.17
515.701	26588.78
515.904	26977.89
516.106	27156.07
516.308	26975.84
516.51	27444.83
516.712	27551.32
516.914	27911.77
517.116	28249.68
517.318	28544.59
517.52	28778.06
517.722	28829.26
517.925	29075.01
518.127	29189.7
518.329	29570.62
518.531	29615.68
518.733	30244.4
518.935	30647.85
519.136	30649.9
519.338	31151.65
519.54	30858.79
519.742	31696.41
519.944	31596.06
520.146	32220.69
520.348	32063
520.55	32572.94
520.752	32718.35
520.954	33218.05
521.155	32931.34
521.357	33439.23
521.559	33875.45
521.761	34117.11
521.963	34194.93
522.164	34700.78
522.366	35161.58
522.568	34866.67
522.77	34956.78
522.971	35747.29
523.173	35464.67
523.375	35806.69
523.576	36206.04
523.778	36081.11
523.98	36681.17
524.181	36920.78
524.383	36877.77
524.584	37381.57
524.786	37242.31
524.988	37463.49
525.189	37924.29
525.391	38192.57
525.592	38108.6
525.794	38550.96
525.995	38507.96
526.197	38684.08
526.398	38991.28
526.6	38983.09
526.801	39046.57
527.003	39296.42
527.204	39277.99
527.406	39654.82
527.607	40041.88
527.808	39988.64
528.01	39556.52
528.211	40267.16
528.412	40912.27
528.614	40121.76
528.815	40734.1
529.016	40942.99
529.218	40756.63
529.419	40994.19
529.62	41151.88
529.822	40920.46
530.023	40732.05
530.224	41395.59
530.425	41624.96
530.626	41258.38
530.828	41006.48
531.029	42020.22
531.23	41581.96
531.431	41696.64
531.632	41776.51
531.833	42100.09
532.035	41772.42
532.236	41891.2
532.437	42198.4
532.638	42042.75
532.839	42362.23
533.04	42618.23
533.241	41444.74
533.442	42636.66
533.643	41686.4
533.844	42435.96
534.045	42839.41
534.246	42050.94
534.447	42505.59
534.648	42501.5
534.849	42726.77
535.05	42313.08
535.251	42745.2
535.451	42675.57
535.652	42642.81
535.853	42405.24
536.054	42581.37
536.255	43021.68
536.456	42411.38
536.657	43414.89
536.857	42421.62
537.058	42474.87
537.259	43011.44
537.46	42698.1
537.66	42710.39
537.861	43283.82
538.062	42743.16
538.263	42839.41
538.463	42601.85
538.664	42847.6
538.865	42685.81
539.065	42784.12
539.266	42128.77
539.466	43279.72
539.667	42153.34
539.868	42820.98
540.068	42843.51
540.269	42939.76
540.469	42876.27
540.67	43005.3
540.87	42567.03
541.071	42509.69
541.271	43246.96
541.472	42646.9
541.672	42395
541.873	42573.17
542.073	42321.27
542.274	43162.99
542.474	42333.56
542.675	42646.9
542.875	43050.35
543.075	42759.54
543.276	42575.22
543.476	43042.16
543.676	42362.23
543.877	43107.69
544.077	42364.28
544.277	42640.76
544.478	42620.28
544.678	42548.6
544.878	42648.95
545.078	42698.1
545.279	42157.44
545.479	42386.81
545.679	42780.02
545.879	42804.59
546.079	42755.44
546.28	42954.1
546.48	42249.6
546.68	42716.53
546.88	42833.27
547.08	42628.47
547.28	42528.12
547.48	41848.19
547.68	42741.11
547.88	42159.48
548.081	42694
548.281	42524.02
548.481	42626.42
548.681	42747.25
548.881	42849.65
549.081	42442.1
549.28	42810.74
549.48	42638.71
549.68	41973.12
549.88	43017.58
550.08	42292.6
550.28	42589.56
550.48	42587.51
550.68	42448.25
550.88	42118.53
551.08	42360.19
551.279	42526.07
551.479	42067.33
551.679	42485.11
551.879	42235.26
552.079	42763.64
552.278	42186.11
552.478	42284.41
552.678	42493.3
552.878	42374.52
553.077	42202.49
553.277	41729.41
553.477	42603.89
553.676	42087.81
553.876	41948.54
554.076	42300.79
554.275	42130.81
554.475	41510.28
554.674	42354.04
554.874	42356.09
555.074	41979.26
555.273	41942.4
555.473	42319.23
555.672	41737.6
555.872	41936.26
556.071	41778.56
556.271	41747.84
556.47	41442.7
556.67	41915.78
556.869	41631.11
557.068	42024.32
557.268	41657.73
557.467	41762.18
557.667	41680.26
557.866	41610.63
558.065	41258.38
558.265	41555.33
558.464	41129.36
558.663	41434.5
558.863	40924.56
559.062	41823.62
559.261	41047.44
559.461	41461.13
559.66	40897.94
559.859	41309.58
560.058	40924.56
560.258	41067.92
560.457	40695.19
560.656	41252.23
560.855	40451.48
561.054	40480.15
561.253	40308.12
561.453	40566.16
561.652	40451.48
561.851	40801.68
562.05	40140.19
562.249	40146.33
562.448	40697.24
562.647	40207.77
562.846	40478.1
563.045	40265.11
563.244	39789.98
563.443	40009.12
563.642	39632.29
563.841	39898.53
564.04	39298.47
564.239	40115.61
564.438	39554.47
564.637	39804.32
564.836	39540.13
565.035	39087.53
565.234	39116.2
565.432	38755.76
565.631	39357.86
565.83	39052.72
566.029	38741.42
566.228	39015.85
566.427	38770.1
566.625	38428.09
566.824	38020.54
567.023	38952.37
567.222	37549.51
567.42	38667.7
567.619	38569.4
567.818	38124.99
568.016	38202.81
568.215	38266.3
568.414	37793.22
568.612	38745.52
568.811	37660.1
569.01	37889.47
569.208	37508.55
569.407	37756.35
569.605	36820.43
569.804	37438.92
570.002	37250.5
570.201	37234.12
570.4	36992.46
570.598	36990.41
570.797	36406.74
570.995	36953.55
571.193	36568.53
571.392	36857.29
571.59	36171.22
571.789	36056.54
571.987	36455.89
572.186	36212.18
572.384	36050.39
572.582	36320.73
572.781	36185.56
572.979	35913.18
573.177	35655.14
573.376	35898.84
573.574	35407.33
573.772	35700.19
573.971	35526.11
574.169	35229.16
574.367	35413.48
574.565	35454.43
574.763	35192.29
574.962	35104.23
575.16	34657.78
575.358	34788.85
575.556	34180.6
575.754	34913.77
575.952	34395.64
576.151	34758.13
576.349	33895.93
576.547	34278.9
576.745	34287.09
576.943	34401.78
577.141	33996.28
577.339	34280.95
577.537	33920.51
577.735	33678.85
577.933	33476.1
578.131	33650.17
578.329	33482.24
578.527	33342.98
578.725	33388.03
578.923	33639.93
579.121	33041.93
579.319	33023.5
579.516	33173
579.714	33125.89
579.912	32978.44
580.11	32769.55
580.308	32841.23
580.506	32671.25
580.704	32351.76
580.901	32681.49
581.099	32501.26
581.297	31876.63
581.495	32155.16
581.692	32796.17
581.89	31718.94
582.088	32433.68
582.285	31897.11
582.483	32085.53
582.681	31913.5
582.878	32114.2
583.076	31122.98
583.274	31981.08
583.471	31399.46
583.669	31366.69
583.866	31196.71
584.064	31311.39
584.262	30881.32
584.459	31131.17
584.657	30869.03
584.854	31245.86
585.052	30613.04
585.249	30664.24
585.447	30893.61
585.644	30660.14
585.841	30471.73
586.039	30598.7
586.236	30352.94
586.434	30131.76
586.631	30193.2
586.828	30238.26
587.026	30318.13
587.223	29904.44
587.42	29972.02
587.618	30172.72
587.815	29750.84
588.012	29703.74
588.21	29722.17
588.407	29914.68
588.604	29054.53
588.801	29382.21
588.999	29218.37
589.196	29042.24
589.393	29380.16
589.59	29255.23
589.787	28845.64
589.984	28773.96
590.182	28612.17
590.379	28800.58
590.576	28552.78
590.773	28567.12
590.97	28460.62
591.167	28227.15
591.364	28061.27
591.561	28563.02
591.758	28245.58
591.955	27833.94
592.152	28094.04
592.349	27782.74
592.546	27657.82
592.743	28032.6
592.94	27100.77
593.137	27733.59
593.334	27686.49
593.531	27246.18
593.727	27588.19
593.924	27545.18
594.121	27135.59
594.318	27086.43
594.515	26668.65
594.712	27121.25
594.908	27053.67
595.105	27192.93
595.302	26568.3
595.499	26914.41
595.696	26590.83
595.892	26400.37
596.089	26371.69
596.286	26478.19
596.482	26488.43
596.679	26476.14
596.876	26113.65
597.072	25953.91
597.269	26097.27
597.466	25847.41
597.662	26060.4
597.859	26019.44
598.055	25929.33
598.252	25818.74
598.448	25704.06
598.645	25818.74
598.841	25423.48
599.038	25489.02
599.234	25538.17
599.431	25226.88
599.627	25362.04
599.824	25159.3
600.02	25308.8
600.217	25298.56
600.413	25005.7
600.609	24776.33
600.806	24864.39
601.002	24829.57
601.198	24694.41
601.395	24592.01
601.591	24571.53
601.787	24460.94
601.984	24229.52
602.18	24331.92
602.376	24155.79
602.572	23996.05
602.769	24159.89
602.965	24071.82
603.161	24221.33
603.357	23826.07
603.553	23686.81
603.75	23729.81
603.946	23522.97
604.142	23662.23
604.338	23559.83
604.534	23381.66
604.73	23205.53
604.926	23387.8
605.122	23762.58
605.318	23367.32
605.514	23168.67
605.71	23189.15
605.906	22884
606.102	22763.17
606.298	23078.56
606.494	22826.66
606.69	22642.34
606.886	23017.12
607.082	22597.29
607.278	22654.63
607.474	22552.23
607.67	22445.74
607.866	22173.36
608.062	22720.17
608.257	22437.55
608.453	22578.86
608.649	22523.56
608.845	22175.41
609.041	22419.11
609.236	21843.63
609.432	22122.16
609.628	22222.51
609.824	21823.15
610.019	21958.32
610.215	22142.64
610.411	22193.84
610.606	21638.84
610.802	21968.56
610.998	21866.16
611.193	21690.04
611.389	21518.01
611.584	21554.87
611.78	21778.1
611.976	21618.36
612.171	21337.79
612.367	21464.76
612.562	21563.06
612.758	20836.03
612.953	21157.57
613.149	21644.98
613.344	20924.1
613.539	21415.61
613.735	21268.16
613.93	21229.24
614.126	20844.23
614.321	21348.03
614.517	20934.34
614.712	20702.92
614.907	20895.43
615.103	20944.58
615.298	20852.42
615.493	20899.52
615.688	20446.92
615.884	21208.76
616.079	20489.93
616.274	20764.36
616.47	20690.63
616.665	20358.86
616.86	20532.93
617.055	20512.45
617.25	20489.93
617.445	20809.41
617.641	20002.51
617.836	20315.85
618.031	20225.74
618.226	20127.44
618.421	20096.72
618.616	20209.36
618.811	19740.37
619.006	20223.69
619.201	19539.67
619.396	20098.77
619.591	19261.15
619.786	19646.16
619.981	19617.49
620.176	19824.34
620.371	19373.78
620.566	19519.19
620.761	19205.85
620.956	19506.9
621.151	18781.92
621.346	19072.73
621.541	18878.18
621.735	19125.98
621.93	18726.63
622.125	18519.78
622.32	18462.44
622.515	18648.8
622.709	18407.14
622.904	18368.23
623.099	18081.52
623.294	18296.55
623.488	18040.56
623.683	17948.4
623.878	17878.77
624.072	17970.93
624.267	17823.47
624.462	17585.91
624.656	17676.02
624.851	17622.77
625.046	17272.57
625.24	17202.94
625.435	17016.57
625.629	17139.45
625.824	16910.08
626.018	16996.09
626.213	16664.32
626.407	16762.62
626.602	16604.93
626.796	16609.03
626.991	16369.41
627.185	16604.93
627.38	16037.64
627.574	16127.75
627.768	16228.1
627.963	15832.85
628.157	15681.3
628.352	16035.6
628.546	15982.35
628.74	15982.35
628.935	15470.36
629.129	15771.41
629.323	15212.31
629.517	15300.37
629.712	15271.7
629.906	15191.83
630.1	15118.11
630.294	15230.74
630.489	14995.23
630.683	15114.01
630.877	14552.87
631.071	14690.08
631.265	14772
631.459	14669.6
631.653	14759.71
631.848	14475.04
632.042	14509.86
632.236	14307.11
632.43	14292.77
632.624	14341.93
632.818	14153.51
633.012	13893.42
633.206	13981.48
633.4	14139.18
633.594	13760.3
633.788	13803.31
633.982	13700.91
634.176	13717.29
634.369	13668.14
634.563	13432.63
634.757	13459.25
634.951	13575.98
635.145	13068.09
635.339	13397.81
635.533	13211.45
635.726	12867.39
635.92	12687.17
636.114	13195.06
636.308	12719.93
636.501	12750.65
636.695	12664.64
636.889	12793.66
637.083	12535.62
637.276	12439.36
637.47	12457.79
637.664	12255.04
637.857	12433.22
638.051	12336.96
638.244	12173.13
638.438	12105.54
638.632	12058.44
638.825	11956.04
639.019	12134.21
639.212	11896.65
639.406	11923.27
639.599	11870.03
639.793	11734.86
639.986	11532.11
640.18	11743.05
640.373	11724.62
640.567	11525.97
640.76	11333.46
640.954	11200.34
641.147	11204.44
641.34	11130.71
641.534	11145.05
641.727	11056.98
641.92	11132.76
642.114	11085.65
642.307	10927.96
642.5	10846.04
642.694	10585.95
642.887	10768.22
643.08	10729.31
643.273	10555.23
643.467	10770.27
643.66	10329.95
643.853	10434.4
644.046	10305.38
644.239	10432.35
644.432	10149.73
644.626	10315.62
644.819	10182.5
645.012	10098.53
645.205	9989.99
645.398	10102.63
645.591	9928.55
645.784	10022.76
645.977	9852.78
646.17	9899.88
646.363	9791.34
646.556	9547.63
646.749	9742.19
646.942	9781.1
647.135	9725.8
647.328	9566.06
647.521	9615.21
647.714	9201.52
647.907	9521.01
648.099	9338.74
648.292	9281.39
648.485	9160.56
648.678	9262.96
648.871	9107.32
649.064	9017.21
649.256	9125.75
649.449	8798.07
649.642	9176.95
649.835	8712.06
650.027	8742.78
650.22	8845.18
650.413	8804.22
650.605	8789.88
650.798	8677.24
650.991	8552.32
651.183	8605.56
651.376	8476.54
651.568	8494.97
651.761	8400.77
651.954	8337.28
652.146	8449.92
652.339	8443.78
652.531	8372.1
652.724	8265.6
652.916	8044.42
653.109	8284.03
653.301	8210.31
653.494	7964.55
653.686	7925.64
653.879	8101.76
654.071	7907.21
654.263	7882.63
654.456	7819.14
654.648	7886.73
654.84	7769.99
655.033	7616.4
655.225	7669.64
655.417	7626.64
655.61	7649.16
655.802	7708.55
655.994	7450.51
656.186	7743.37
656.379	7577.48
656.571	7407.5
656.763	7458.7
656.955	7266.19
657.148	7411.6
657.34	7311.25
657.532	7090.07
657.724	7053.2
657.916	7126.93
658.108	7212.95
658.3	7188.37
658.492	7104.4
658.684	7020.44
658.876	7077.78
659.068	6905.75
659.26	6791.06
659.452	6991.77
659.644	6758.3
659.836	6815.64
660.028	6737.82
660.22	6703
660.412	6604.7
660.604	6614.94
660.796	6576.03
660.988	6643.61
661.18	6604.7
661.372	6494.11
661.563	6567.84
661.755	6612.89
661.947	6406.05
662.139	6440.86
662.331	6399.9
662.522	6256.54
662.714	6221.73
662.906	6227.87
663.097	6178.72
663.289	6234.02
663.481	6111.14
663.673	6234.02
663.864	5978.02
664.056	6219.68
664.247	5988.26
664.439	5793.7
664.631	6002.6
664.822	6014.88
665.014	5765.03
665.205	5898.15
665.397	5889.96
665.588	5787.56
665.78	5799.85
665.971	5779.37
666.163	5820.33
666.354	5595.05
666.546	5670.83
666.737	5752.74
666.929	5695.4
667.12	5697.45
667.311	5609.39
667.503	5619.63
667.694	5627.82
667.885	5468.08
668.077	5406.64
668.268	5482.41
668.459	5558.19
668.651	5384.11
668.842	5300.14
669.033	5349.29
669.224	5242.8
669.416	5162.93
669.607	5304.24
669.798	5015.48
669.989	5152.69
670.18	5164.98
670.371	5044.15
670.563	5169.07
670.754	5113.78
670.945	5201.84
671.136	5242.8
671.327	4960.18
671.518	4995
671.709	5009.33
671.9	5146.55
672.091	5048.24
672.282	4986.8
672.473	5017.52
672.664	5119.92
672.855	4855.73
673.046	4863.93
673.237	5001.14
673.428	4939.7
673.619	4802.49
673.809	4757.43
674	4730.81
674.191	4767.67
674.382	4722.62
674.573	4911.03
674.764	4763.58
674.954	4706.23
675.145	4759.48
675.336	4667.32
675.527	4609.98
675.717	4669.37
675.908	4800.44
676.099	4722.62
676.289	4630.46
676.48	4710.33
676.671	4511.68
676.861	4614.07
677.052	4394.94
677.243	4380.61
677.433	4472.76
677.624	4458.43
677.814	4450.24
678.005	4497.34
678.195	4476.86
678.386	4433.85
678.576	4351.93
678.767	4202.43
678.957	4415.42
679.148	4296.64
679.338	4286.4
679.529	4427.71
679.719	4356.03
679.909	4325.31
680.1	4216.77
680.29	4259.77
680.481	4247.49
680.671	4173.76
680.861	4239.3
681.052	4310.97
681.242	4386.75
681.432	4288.45
681.622	4161.47
681.813	4186.05
682.003	4212.67
682.193	4059.07
682.383	4202.43
682.573	4181.95
682.764	3993.54
682.954	4110.27
683.144	4132.8
683.334	4028.35
683.524	4222.91
683.714	4003.78
683.904	4102.08
684.094	4136.9
684.284	4093.89
684.474	4061.12
684.664	4173.76
684.854	3923.91
685.044	3983.3
685.234	3915.72
685.424	3952.58
685.614	3975.11
685.804	3954.63
685.994	3837.89
686.184	3870.66
686.374	3868.61
686.564	3952.58
686.753	3848.13
686.943	3876.8
687.133	3796.93
687.323	3854.28
687.513	3669.96
687.702	3798.98
687.892	3786.69
688.082	3790.79
688.272	3858.37
688.461	3743.69
688.651	3770.31
688.841	3751.88
689.03	3727.3
689.22	3657.67
689.41	3776.45
689.599	3747.78
689.789	3688.39
689.979	3667.91
690.168	3739.59
690.358	3661.77
690.547	3649.48
690.737	3649.48
690.926	3590.09
691.116	3637.19
691.305	3706.82
691.495	3579.85
691.684	3620.81
691.874	3538.89
692.063	3448.78
692.252	3452.88
692.442	3561.42
692.631	3399.63
692.82	3530.7
693.01	3456.97
693.199	3493.83
693.388	3340.24
693.578	3428.3
693.767	3477.45
693.956	3483.59
694.146	3416.01
694.335	3448.78
694.524	3514.31
694.713	3305.42
694.902	3432.4
695.092	3522.51
695.281	3317.71
695.47	3350.48
695.659	3375.05
695.848	3397.58
696.037	3289.04
696.226	3334.09
696.415	3317.71
696.604	3223.5
696.793	3313.61
696.982	3344.33
697.171	3284.94
697.36	3243.98
697.549	3264.46
697.738	3309.52
697.927	3334.09
698.116	3194.83
698.305	3330
698.494	3319.76
698.683	3282.89
698.872	3282.89
699.061	3248.08
699.25	3317.71
699.438	3219.41
699.627	3356.62
699.816	3334.09
700.005	3297.23
700.193	3252.17
700.382	3213.26
700.571	3203.02
700.76	3145.68
700.948	3383.24
701.137	3186.64
701.326	3258.32
701.514	3229.65
701.703	3198.93
701.892	3149.78
702.08	3207.12
702.269	3196.88
702.457	3196.88
702.646	3104.72
702.834	3309.52
703.023	3223.5
703.212	3188.69
703.4	3209.17
703.589	3147.73
703.777	3149.78
703.965	3219.41
704.154	3043.28
704.342	3141.58
704.531	3090.38
704.719	3217.36
704.907	3231.69
705.096	3123.15
705.284	3205.07
705.472	3268.56
705.661	3110.86
705.849	3264.46
706.037	3141.58
706.226	3233.74
706.414	3170.26
706.602	3223.5
706.79	3133.39
706.979	3004.37
707.167	3178.45
707.355	3057.62
707.543	3172.3
707.731	3104.72
707.919	3055.57
708.107	3100.62
708.296	3106.77
708.484	3024.85
708.672	3178.45
708.86	3203.02
709.048	3215.31
709.236	3127.25
709.424	3237.84
709.612	3121.1
709.8	3121.1
709.988	3121.1
710.176	3145.68
710.364	3018.71
710.551	3065.81
710.739	3096.53
710.927	3155.92
711.115	3155.92
711.303	3080.15
711.491	3022.8
711.679	3057.62
711.866	3112.91
712.054	3047.38
712.242	2977.75
712.43	2985.94
712.617	3137.49
712.805	3037.14
712.993	3033.04
713.181	2856.92
713.368	2969.55
713.556	3078.1
713.744	3028.95
713.931	2938.84
714.119	3057.62
714.306	3033.04
714.494	3006.42
714.682	3088.34
714.869	2932.69
715.057	3147.73
715.244	2961.36
715.432	3014.61
715.619	2942.93
715.807	2977.75
715.994	3147.73
716.182	2994.13
716.369	3065.81
716.556	2875.35
716.744	3053.52
716.931	2832.34
717.119	3024.85
717.306	2797.53
717.493	3059.67
717.681	3008.47
717.868	2815.96
718.055	2836.44
718.242	2947.03
718.43	2877.4
718.617	2904.02
718.804	2871.25
718.991	2891.73
719.179	2938.84
719.366	2875.35
719.553	2914.26
719.74	2975.7
719.927	2961.36
720.114	2893.78
720.301	2994.13
720.488	2787.29
720.676	2904.02
720.863	2926.55
721.05	2863.06
721.237	2834.39
721.424	2840.53
721.611	2914.26
721.798	2844.63
721.985	2858.96
722.172	2738.13
722.358	2840.53
722.545	2781.14
722.732	2781.14
722.919	2766.81
723.106	2848.72
723.293	2883.54
723.48	2850.77
723.667	2850.77
723.853	2688.98
724.04	2908.12
724.227	2770.9
724.414	2828.24
724.6	2791.38
724.787	2832.34
724.974	2766.81
725.161	2772.95
725.347	2838.48
725.534	2858.96
725.72	2738.13
725.907	2742.23
726.094	2893.78
726.28	2691.03
726.467	2793.43
726.653	2695.13
726.84	2772.95
727.027	2779.09
727.213	2703.32
727.4	2891.73
727.586	2844.63
727.773	2750.42
727.959	2742.23
728.145	2719.7
728.332	2777.05
728.518	2707.41
728.705	2746.33
728.891	2727.89
729.077	2697.17
729.264	2672.6
729.45	2756.57
729.636	2871.25
729.823	2662.36
730.009	2676.7
730.195	2637.78
730.382	2682.84
730.568	2766.81
730.754	2775
730.94	2797.53
731.126	2826.2
731.313	2643.93
731.499	2650.07
731.685	2586.58
731.871	2725.85
732.057	2813.91
732.243	2789.33
732.429	2725.85
732.615	2748.37
732.801	2611.16
732.987	2666.46
733.173	2504.67
733.359	2705.37
733.545	2670.55
733.731	2717.65
733.917	2525.15
734.103	2781.14
734.289	2719.7
734.475	2617.3
734.661	2637.78
734.847	2654.17
735.033	2742.23
735.219	2605.02
735.404	2641.88
735.59	2664.41
735.776	2512.86
735.962	2564.06
736.148	2547.67
736.333	2674.65
736.519	2521.05
736.705	2496.47
736.89	2600.92
737.076	2484.19
737.262	2547.67
737.447	2674.65
737.633	2439.13
737.819	2475.99
738.004	2349.02
738.19	2533.34
738.375	2611.16
738.561	2535.39
738.747	2473.95
738.932	2519
739.118	2545.63
739.303	2535.39
739.489	2519
739.674	2525.15
739.859	2402.27
740.045	2568.15
740.23	2338.78
740.416	2408.41
740.601	2443.23
740.786	2432.99
740.972	2412.51
741.157	2439.13
741.342	2379.74
741.528	2435.03
741.713	2303.96
741.898	2416.6
742.084	2355.16
742.269	2441.18
742.454	2455.51
742.639	2381.79
742.824	2365.4
743.01	2312.16
743.195	2291.68
743.38	2334.68
743.565	2408.41
743.75	2291.68
743.935	2252.77
744.12	2306.01
744.305	2326.49
744.49	2205.66
744.675	2158.56
744.86	2119.65
745.045	2250.72
745.23	2133.98
745.415	2217.95
745.6	2148.32
745.785	2248.67
745.97	2203.61
746.155	2103.26
746.34	2164.7
746.525	2101.22
746.71	2154.46
746.895	2033.63
747.079	1916.9
747.264	2129.89
747.449	2060.26
747.634	2062.3
747.819	2041.82
748.003	1994.72
748.188	2029.54
748.373	2064.35
748.557	2011.11
748.742	1982.43
748.927	1996.77
749.111	1880.04
749.296	1947.62
749.481	1882.08
749.665	1886.18
749.85	1822.69
750.034	1832.93
750.219	1978.34
750.404	1837.03
750.588	1974.24
750.773	1722.34
750.957	1908.71
751.141	1826.79
751.326	1808.36
751.51	1824.74
751.695	1820.64
751.879	1751.01
752.064	1685.48
752.248	1712.1
752.432	1892.32
752.617	1761.25
752.801	1703.91
752.985	1726.44
753.17	1699.81
753.354	1638.37
753.538	1787.88
753.722	1540.07
753.907	1669.09
754.091	1630.18
754.275	1636.33
754.459	1564.65
754.643	1447.91
754.828	1646.57
755.012	1533.93
755.196	1529.83
755.38	1505.26
755.564	1527.78
755.748	1431.53
755.932	1556.46
756.116	1538.02
756.3	1441.77
756.484	1517.54
756.668	1542.12
756.852	1331.18
757.036	1421.29
757.22	1441.77
757.404	1449.96
757.588	1542.12
757.772	1431.53
757.956	1480.68
758.14	1527.78
758.323	1441.77
758.507	1421.29
758.691	1390.57
758.875	1384.43
759.059	1404.91
759.242	1406.95
759.426	1374.19
759.61	1331.18
759.794	1302.51
759.977	1325.04
760.161	1363.95
760.345	1316.84
760.528	1298.41
760.712	1331.18
760.895	1163.25
761.079	1302.51
761.263	1306.6
761.446	1249.26
761.63	1247.21
761.813	1247.21
761.997	1220.59
762.18	1183.73
762.364	1314.8
762.547	1198.06
762.731	1116.14
762.914	1204.21
763.098	1171.44
763.281	1114.1
763.464	1198.06
763.648	1234.93
763.831	1110
764.015	1150.96
764.198	1083.38
764.381	1148.91
764.564	1128.43
764.748	1138.67
764.931	1181.68
765.114	1071.09
765.297	1224.69
765.481	1097.71
765.664	1073.14
765.847	1079.28
766.03	1255.4
766.213	1130.48
766.397	1185.77
766.58	1083.38
766.763	1150.96
766.946	1064.94
767.129	1097.71
767.312	1040.37
767.495	1157.1
767.678	1093.62
767.861	1040.37
768.044	1110
768.227	1044.46
768.41	1130.48
768.593	1075.18
768.776	1015.79
768.959	1003.5
769.142	1142.77
769.324	991.22
769.507	1042.42
769.69	970.74
769.873	989.17
770.056	989.17
770.239	1009.65
770.421	1015.79
770.604	1073.14
770.787	1017.84
770.97	956.4
771.152	903.15
771.335	948.21
771.518	1032.18
771.7	935.92
771.883	1026.03
772.066	923.63
772.248	974.83
772.431	942.07
772.613	913.39
772.796	944.11
772.978	909.3
773.161	888.82
773.343	880.63
773.526	956.4
773.708	976.88
773.891	886.77
774.073	884.72
774.256	937.97
774.438	983.02
774.621	792.56
774.803	882.67
774.985	880.63
775.168	890.87
775.35	882.67
775.532	917.49
775.715	892.91
775.897	790.52
776.079	802.8
776.261	860.15
776.444	743.41
776.626	743.41
776.808	835.57
776.99	802.8
777.173	806.9
777.355	729.08
777.537	882.67
777.719	782.32
777.901	767.99
778.083	712.69
778.265	780.28
778.447	724.98
778.629	671.73
778.811	651.25
778.993	757.75
779.175	720.88
779.357	659.45
779.539	800.76
779.721	708.6
779.903	696.31
780.085	720.88
780.267	724.98
780.449	735.22
780.631	675.83
780.812	743.41
780.994	647.16
781.176	647.16
781.358	577.53
781.54	598.01
781.721	538.62
781.903	618.49
782.085	681.97
782.267	667.64
782.448	720.88
782.63	567.29
782.812	649.21
782.993	696.31
783.175	645.11
783.357	620.53
783.538	598.01
783.72	563.19
783.901	595.96
784.083	604.15
784.264	555
784.446	600.05
784.627	466.94
784.809	600.05
784.99	501.75
785.172	526.33
785.353	542.71
785.535	610.29
785.716	577.53
785.897	389.11
786.079	495.61
786.26	456.7
786.441	559.1
786.623	471.03
786.804	489.46
786.985	497.66
787.167	514.04
787.348	448.51
787.529	520.18
787.71	522.23
787.891	438.27
788.073	462.84
788.254	403.45
788.435	548.86
788.616	495.61
788.797	374.78
788.978	407.55
789.159	530.42
789.34	487.42
789.522	403.45
789.703	385.02
789.884	505.85
790.065	352.25
790.246	473.08
790.427	452.6
790.607	475.13
790.788	442.36
790.969	331.77
791.15	438.27
791.331	446.46
791.512	421.88
791.693	397.31
791.874	485.37
792.054	514.04
792.235	419.83
792.416	378.87
792.597	303.1
792.778	415.74
792.958	387.07
793.139	342.01
793.32	466.94
793.5	370.68
793.681	374.78
793.862	376.83
794.042	436.22
794.223	342.01
794.404	368.63
794.584	364.54
794.765	280.57
794.945	430.07
795.126	389.11
795.306	342.01
795.487	399.35
795.667	243.71
795.848	389.11
796.028	301.05
796.209	407.55
796.389	339.96
796.57	374.78
796.75	333.82
796.93	352.25
797.111	235.52
797.291	311.29
797.471	366.59
797.652	348.15
797.832	290.81
798.012	391.16
798.192	272.38
798.373	266.24
798.553	294.91
798.733	333.82
798.913	387.07
799.093	337.91
799.274	360.44
799.454	348.15
799.634	333.82
799.814	327.67
799.994	266.24
800.174	337.91
800.354	256
800.534	243.71
800.714	299
800.894	253.95
801.074	301.05
801.254	335.87
801.434	256
801.614	278.52
801.794	219.13
801.974	638.97
802.154	225.28
802.334	313.34
802.514	227.32
802.693	260.09
802.873	227.32
803.053	319.48
803.233	282.62
803.413	284.67
803.592	274.43
803.772	317.44
803.952	217.08
804.131	169.98
804.311	194.56
804.491	280.57
804.67	229.37
804.85	225.28
805.03	241.66
805.209	210.94
805.389	274.43
805.568	200.7
805.748	231.42
805.928	206.84
806.107	284.67
806.287	251.9
806.466	260.09
806.646	264.19
806.825	210.94
807.004	305.15
807.184	266.24
807.363	169.98
807.543	276.48
807.722	231.42
807.901	212.99
808.081	212.99
808.26	208.89
808.439	241.66
808.619	198.65
808.798	217.08
808.977	274.43
809.156	223.23
809.336	221.18
809.515	206.84
809.694	163.84
809.873	241.66
810.052	210.94
810.231	274.43
810.411	258.04
810.59	229.37
810.769	188.41
810.948	260.09
811.127	184.32
811.306	249.85
811.485	233.47
811.664	174.08
811.843	278.52
812.022	184.32
812.201	167.93
812.38	182.27
812.559	151.55
812.737	217.08
812.916	196.61
813.095	169.98
813.274	141.31
813.453	186.37
813.632	172.03
813.811	155.65
813.989	186.37
814.168	208.89
814.347	141.31
814.526	231.42
814.704	139.26
814.883	210.94
815.062	145.41
815.24	149.5
815.419	147.45
815.598	221.18
815.776	155.65
815.955	81.92
816.133	86.01
816.312	180.22
816.49	141.31
816.669	174.08
816.847	174.08
817.026	155.65
817.204	180.22
817.383	157.69
817.561	163.84
817.74	131.07
817.918	245.76
818.097	251.9
818.275	155.65
818.453	200.7
818.632	174.08
818.81	174.08
818.988	114.69
819.167	114.69
819.345	145.41
819.523	116.73
819.701	161.79
819.879	184.32
820.058	143.36
820.236	157.69
820.414	176.13
820.592	102.4
820.77	169.98
820.948	174.08
821.127	147.45
821.305	174.08
821.483	155.65
821.661	172.03
821.839	124.93
822.017	106.49
822.195	188.41
822.373	104.45
822.551	192.51
822.729	155.65
822.907	73.73
823.085	157.69
823.262	145.41
823.44	129.02
823.618	96.25
823.796	145.41
823.974	94.21
824.152	155.65
824.329	186.37
824.507	155.65
824.685	172.03
824.863	112.64
825.04	73.73
825.218	104.45
825.396	172.03
825.574	172.03
825.751	122.88
825.929	155.65
826.107	106.49
826.284	188.41
826.462	77.82
826.639	149.5
826.817	153.6
826.994	143.36
827.172	47.1
827.349	110.59
827.527	122.88
827.704	102.4
827.882	174.08
828.059	63.49
828.237	143.36
828.414	192.51
828.591	118.78
828.769	155.65
828.946	75.77
829.124	135.17
829.301	172.03
829.478	90.11
829.655	124.93
829.833	157.69
830.01	34.82
830.187	131.07
830.364	98.3
830.542	110.59
830.719	122.88
830.896	174.08
831.073	86.01
831.25	96.25
831.427	112.64
831.604	104.45
831.782	61.44
831.959	81.92
832.136	133.12
832.313	102.4
832.49	122.88
832.667	90.11
832.844	57.34
833.021	149.5
833.198	104.45
833.374	65.54
833.551	14.34
833.728	81.92
833.905	86.01
834.082	55.3
834.259	75.77
834.436	174.08
834.612	75.77
834.789	75.77
834.966	124.93
835.143	79.87
835.319	104.45
835.496	151.55
835.673	49.15
835.85	67.58
836.026	124.93
836.203	69.63
836.38	12.29
836.556	100.35
836.733	49.15
836.909	83.97
837.086	102.4
837.262	47.1
837.439	81.92
837.616	77.82
837.792	59.39
837.968	83.97
838.145	71.68
838.321	106.49
838.498	110.59
838.674	69.63
838.851	126.97
839.027	71.68
839.203	98.3
839.38	92.16
839.556	38.91
839.732	151.55
839.909	98.3
840.085	71.68
840.261	75.77
840.437	104.45
840.614	114.69
840.79	180.22
840.966	43.01
841.142	102.4
841.318	100.35
841.494	71.68
841.671	38.91
841.847	165.89
842.023	83.97
842.199	49.15
842.375	129.02
842.551	12.29
842.727	43.01
842.903	79.87
843.079	71.68
843.255	126.97
843.431	65.54
843.607	55.3
843.783	24.58
843.959	122.88
844.134	-24.58
844.31	108.54
844.486	77.82
844.662	55.3
844.838	65.54
845.013	86.01
845.189	86.01
845.365	57.34
845.541	106.49
845.716	59.39
845.892	49.15
846.068	86.01
846.244	32.77
846.419	147.45
846.595	59.39
846.77	131.07
846.946	69.63
847.122	32.77
847.297	10.24
847.473	104.45
847.648	83.97
847.824	65.54
847.999	94.21
848.175	69.63
848.35	131.07
848.526	102.4
848.701	69.63
848.876	118.78
849.052	81.92
849.227	8.19
849.403	14.34
849.578	75.77
849.753	28.67
849.929	63.49
850.104	12.29
850.279	43.01
850.454	71.68
850.63	104.45
850.805	71.68
850.98	67.58
851.155	120.83
851.33	71.68
851.505	102.4
851.681	90.11
851.856	36.86
852.031	34.82
852.206	90.11
852.381	18.43
852.556	45.06
852.731	20.48
852.906	77.82
853.081	75.77
853.256	86.01
853.431	10.24
853.606	18.43
853.781	22.53
853.956	24.58
854.131	49.15
854.305	45.06
854.48	-49.15
854.655	108.54
854.83	26.62
855.005	100.35
855.18	116.73
855.354	38.91
855.529	22.53
855.704	75.77
855.879	36.86
856.053	24.58
856.228	63.49
856.403	51.2
856.577	55.3
856.752	10.24
856.926	61.44
857.101	53.25
857.276	55.3
857.45	71.68
857.625	81.92
857.799	32.77
857.974	53.25
858.148	2.05
858.323	65.54
858.497	55.3
858.672	69.63
858.846	75.77
859.02	63.49
859.195	20.48
859.369	34.82
859.543	16.38
859.718	12.29
859.892	20.48
860.066	6.14
860.241	-10.24
860.415	24.58
860.589	10.24
860.763	-43.01
860.938	77.82
861.112	24.58
861.286	61.44
861.46	55.3
861.634	8.19
861.808	63.49
861.982	69.63
862.157	49.15
862.331	-20.48
862.505	-4.1
862.679	-16.38
862.853	65.54
863.027	24.58
863.201	169.98
863.375	12.29
863.549	43.01
863.722	28.67
863.896	67.58
864.07	26.62
864.244	36.86
864.418	-24.58
864.592	65.54
864.766	77.82
864.939	-69.63
865.113	69.63
865.287	0
865.461	45.06
865.634	40.96
865.808	40.96
865.982	32.77
866.156	32.77
866.329	18.43
866.503	63.49
866.676	36.86
866.85	86.01
867.024	20.48
867.197	16.38
867.371	24.58
867.544	71.68
867.718	24.58
867.891	-24.58
868.065	38.91
868.238	65.54
868.412	28.67
868.585	45.06
868.759	55.3
868.932	-6.14
869.105	20.48
869.279	-32.77
869.452	12.29
869.625	71.68
869.799	-6.14
869.972	-43.01
870.145	-47.1
870.319	40.96
870.492	24.58
870.665	22.53
870.838	69.63
871.011	22.53
871.185	14.34
871.358	-43.01
871.531	47.1
871.704	-28.67
871.877	32.77
872.05	47.1
872.223	55.3
872.396	26.62
872.569	32.77
872.742	8.19
872.915	38.91
873.088	57.34
873.261	30.72
873.434	57.34
873.607	16.38
873.78	40.96
873.953	43.01
874.126	12.29
874.299	75.77
874.471	34.82
874.644	-2.05
874.817	2.05
874.99	57.34
875.163	-34.82
875.335	-8.19
875.508	94.21
875.681	90.11
875.853	36.86
876.026	59.39
876.199	18.43
876.371	69.63
876.544	24.58
876.717	-2.05
876.889	73.73
877.062	20.48
877.234	-51.2
877.407	18.43
877.579	20.48
877.752	4.1
877.924	24.58
878.097	18.43
878.269	-18.43
878.442	155.65
878.614	24.58
878.786	26.62
878.959	81.92
879.131	22.53
879.303	0
879.476	26.62
879.648	28.67
879.82	43.01
879.993	14.34
880.165	34.82
880.337	51.2
880.509	57.34
880.681	4.1
880.854	36.86
881.026	75.77
881.198	51.2
881.37	2.05
881.542	8.19
881.714	-2.05
881.886	-53.25
882.058	4.1
882.23	43.01
882.402	-14.34
882.574	-34.82
882.746	49.15
882.918	49.15
883.09	49.15
883.262	-30.72
883.434	-18.43
883.606	14.34
883.778	71.68
883.95	-24.58
884.122	-24.58
884.293	63.49
884.465	-6.14
884.637	-20.48
884.809	40.96
884.98	22.53
885.152	61.44
885.324	86.01
885.496	55.3
885.667	-28.67
885.839	-75.77
886.011	36.86
886.182	-18.43
886.354	10.24
886.525	47.1
886.697	16.38
886.869	-10.24
887.04	96.25
887.212	-10.24
887.383	75.77
887.555	28.67
887.726	28.67
887.897	-2.05
888.069	45.06
888.24	-49.15
888.412	51.2
888.583	100.35
888.754	53.25
888.926	-49.15
889.097	-32.77
889.268	-36.86
889.44	77.82
889.611	-26.62
889.782	10.24
889.953	-40.96
890.125	6.14
890.296	-34.82
890.467	6.14
890.638	22.53
890.809	65.54
890.98	20.48
891.151	14.34
891.323	45.06
891.494	6.14
891.665	38.91
891.836	6.14
892.007	59.39
892.178	77.82
892.349	40.96
892.52	-26.62
892.691	2.05
892.862	8.19
893.032	-20.48
893.203	38.91
893.374	61.44
893.545	45.06
893.716	22.53
893.887	51.2
894.057	47.1
894.228	24.58
894.399	-63.49
894.57	2.05
894.74	-8.19
894.911	-2.05
895.082	16.38
895.253	30.72
895.423	77.82
895.594	51.2
895.764	-57.34
895.935	28.67
896.106	-43.01
896.276	69.63
896.447	-38.91
896.617	8.19
896.788	22.53
896.958	-8.19
897.129	8.19
897.299	38.91
897.47	43.01
897.64	108.54
897.81	81.92
897.981	38.91
898.151	0
898.322	-12.29
898.492	69.63
898.662	30.72
898.832	30.72
899.003	-8.19
899.173	51.2
899.343	45.06
899.513	32.77
