Data from USB4F104151__10__11-04-39-855.txt Node

Date: Wed Mar 12 11:04:39 EDT 2025
User: louis
Spectrometer: USB4F10415
Trigger mode: 4
Integration Time (sec): 2.000000E-2
Scans to average: 1
Electric dark correction enabled: true
Nonlinearity correction enabled: false
Boxcar width: 0
XAxis mode: Wavelengths
Number of Pixels in Spectrum: 3648
>>>>>Begin Spectral Data<<<<<
178.204	-107.18
178.424	-107.18
178.644	-107.18
178.864	-133.8
179.084	-55.98
179.304	-0.68
179.524	-29.35
179.744	-2.73
179.964	42.32
180.184	-10.92
180.404	46.42
180.624	-8.87
180.844	-29.35
181.064	-84.65
181.283	11.61
181.503	32.08
181.723	34.13
181.943	-17.07
182.163	71
182.383	79.19
182.602	50.52
182.822	77.14
183.042	73.04
183.262	73.04
183.482	-0.68
183.701	-8.87
183.921	7.51
184.141	27.99
184.361	109.91
184.58	-33.45
184.8	11.61
185.02	56.66
185.239	-10.92
185.459	9.56
185.679	-45.74
185.898	-23.21
186.118	64.85
186.338	11.61
186.557	64.85
186.777	-25.26
186.997	15.7
187.216	13.65
187.436	64.85
187.655	-6.83
187.875	89.43
188.095	48.47
188.314	58.71
188.534	-27.31
188.753	-53.93
188.973	48.47
189.192	-0.68
189.412	15.7
189.631	64.85
189.851	-12.97
190.07	109.91
190.29	62.8
190.509	-19.11
190.729	42.32
190.948	23.89
191.168	87.38
191.387	11.61
191.607	34.13
191.826	-33.45
192.045	52.56
192.265	15.7
192.484	19.8
192.704	-58.03
192.923	-19.11
193.142	62.8
193.362	62.8
193.581	46.42
193.8	48.47
194.02	-0.68
194.239	81.24
194.458	46.42
194.678	-15.02
194.897	15.7
195.116	19.8
195.335	40.28
195.555	34.13
195.774	71
195.993	54.61
196.212	19.8
196.432	23.89
196.651	71
196.87	44.37
197.089	114
197.308	50.52
197.528	30.04
197.747	11.61
197.966	-0.68
198.185	42.32
198.404	-4.78
198.623	50.52
198.842	79.19
199.062	68.95
199.281	64.85
199.5	9.56
199.719	68.95
199.938	1.37
200.157	73.04
200.376	7.51
200.595	83.28
200.814	7.51
201.033	-0.68
201.252	38.23
201.471	105.81
201.69	-10.92
201.909	52.56
202.128	42.32
202.347	44.37
202.566	32.08
202.785	50.52
203.004	7.51
203.223	93.52
203.442	13.65
203.661	19.8
203.879	81.24
204.098	54.61
204.317	32.08
204.536	50.52
204.755	-47.79
204.974	15.7
205.193	101.72
205.411	48.47
205.63	73.04
205.849	-12.97
206.068	71
206.287	68.95
206.505	-27.31
206.724	19.8
206.943	-0.68
207.162	68.95
207.381	68.95
207.599	36.18
207.818	68.95
208.037	7.51
208.255	36.18
208.474	27.99
208.693	85.33
208.911	68.95
209.13	25.94
209.349	64.85
209.567	103.76
209.786	48.47
210.005	3.41
210.223	11.61
210.442	83.28
210.661	93.52
210.879	32.08
211.098	58.71
211.316	17.75
211.535	62.8
211.753	19.8
211.972	73.04
212.191	-4.78
212.409	15.7
212.628	25.94
212.846	-4.78
213.065	85.33
213.283	109.91
213.502	-29.35
213.72	58.71
213.938	36.18
214.157	71
214.375	75.09
214.594	17.75
214.812	-0.68
215.031	36.18
215.249	42.32
215.467	42.32
215.686	17.75
215.904	68.95
216.122	77.14
216.341	23.89
216.559	56.66
216.778	60.76
216.996	68.95
217.214	-12.97
217.432	27.99
217.651	-17.07
217.869	48.47
218.087	15.7
218.306	11.61
218.524	15.7
218.742	83.28
218.96	-23.21
219.179	58.71
219.397	32.08
219.615	75.09
219.833	-33.45
220.051	15.7
220.27	38.23
220.488	52.56
220.706	21.85
220.924	19.8
221.142	27.99
221.36	75.09
221.578	89.43
221.796	21.85
222.015	85.33
222.233	21.85
222.451	95.57
222.669	15.7
222.887	27.99
223.105	-6.83
223.323	-35.5
223.541	58.71
223.759	13.65
223.977	21.85
224.195	-51.88
224.413	71
224.631	25.94
224.849	81.24
225.067	109.91
225.285	-0.68
225.503	36.18
225.721	-37.55
225.939	58.71
226.157	66.9
226.375	23.89
226.592	42.32
226.81	1.37
227.028	95.57
227.246	77.14
227.464	73.04
227.682	95.57
227.9	52.56
228.117	34.13
228.335	27.99
228.553	36.18
228.771	36.18
228.989	114
229.206	50.52
229.424	36.18
229.642	46.42
229.86	25.94
230.077	48.47
230.295	52.56
230.513	46.42
230.731	56.66
230.948	120.15
231.166	109.91
231.384	64.85
231.601	42.32
231.819	64.85
232.037	64.85
232.254	11.61
232.472	60.76
232.689	36.18
232.907	19.8
233.125	-19.11
233.342	27.99
233.56	-25.26
233.777	34.13
233.995	11.61
234.213	136.53
234.43	79.19
234.648	27.99
234.865	17.75
235.083	23.89
235.3	120.15
235.518	58.71
235.735	25.94
235.953	3.41
236.17	-10.92
236.388	-6.83
236.605	27.99
236.822	46.42
237.04	44.37
237.257	-17.07
237.475	13.65
237.692	11.61
237.909	15.7
238.127	23.89
238.344	71
238.562	-6.83
238.779	23.89
238.996	-4.78
239.214	3.41
239.431	-10.92
239.648	81.24
239.865	32.08
240.083	42.32
240.3	40.28
240.517	77.14
240.735	50.52
240.952	46.42
241.169	71
241.386	27.99
241.603	23.89
241.821	44.37
242.038	95.57
242.255	-8.87
242.472	-0.68
242.689	23.89
242.907	68.95
243.124	75.09
243.341	66.9
243.558	66.9
243.775	52.56
243.992	46.42
244.209	101.72
244.426	54.61
244.643	79.19
244.86	21.85
245.078	71
245.295	-2.73
245.512	52.56
245.729	19.8
245.946	64.85
246.163	15.7
246.38	83.28
246.597	62.8
246.814	1.37
247.031	89.43
247.248	40.28
247.464	40.28
247.681	136.53
247.898	54.61
248.115	81.24
248.332	32.08
248.549	95.57
248.766	85.33
248.983	36.18
249.2	50.52
249.417	52.56
249.633	50.52
249.85	34.13
250.067	48.47
250.284	77.14
250.501	5.46
250.717	7.51
250.934	32.08
251.151	77.14
251.368	36.18
251.585	79.19
251.801	114
252.018	27.99
252.235	105.81
252.451	13.65
252.668	64.85
252.885	40.28
253.102	71
253.318	97.62
253.535	56.66
253.752	-29.35
253.968	105.81
254.185	46.42
254.401	34.13
254.618	54.61
254.835	3.41
255.051	30.04
255.268	48.47
255.484	38.23
255.701	-35.5
255.917	83.28
256.134	-4.78
256.351	83.28
256.567	56.66
256.784	-21.16
257	54.61
257.217	56.66
257.433	48.47
257.65	34.13
257.866	54.61
258.082	9.56
258.299	32.08
258.515	124.24
258.732	9.56
258.948	44.37
259.165	36.18
259.381	-74.41
259.597	9.56
259.814	36.18
260.03	44.37
260.246	87.38
260.463	42.32
260.679	75.09
260.895	44.37
261.112	77.14
261.328	81.24
261.544	40.28
261.761	25.94
261.977	95.57
262.193	32.08
262.409	103.76
262.626	34.13
262.842	3.41
263.058	83.28
263.274	75.09
263.49	19.8
263.707	71
263.923	56.66
264.139	34.13
264.355	27.99
264.571	62.8
264.787	62.8
265.004	36.18
265.22	21.85
265.436	46.42
265.652	64.85
265.868	71
266.084	89.43
266.3	32.08
266.516	-25.26
266.732	105.81
266.948	34.13
267.164	81.24
267.38	-0.68
267.596	38.23
267.812	58.71
268.028	50.52
268.244	54.61
268.46	21.85
268.676	46.42
268.892	83.28
269.108	126.29
269.324	-55.98
269.54	15.7
269.756	75.09
269.972	64.85
270.188	1.37
270.403	83.28
270.619	118.1
270.835	27.99
271.051	50.52
271.267	114
271.483	34.13
271.698	93.52
271.914	32.08
272.13	71
272.346	62.8
272.562	118.1
272.777	21.85
272.993	36.18
273.209	-45.74
273.425	-8.87
273.64	50.52
273.856	95.57
274.072	21.85
274.287	-0.68
274.503	27.99
274.719	44.37
274.934	7.51
275.15	103.76
275.366	-0.68
275.581	-15.02
275.797	91.48
276.012	134.48
276.228	68.95
276.444	40.28
276.659	124.24
276.875	60.76
277.09	83.28
277.306	40.28
277.521	32.08
277.737	-19.11
277.952	52.56
278.168	40.28
278.383	60.76
278.599	40.28
278.814	-8.87
279.03	38.23
279.245	-8.87
279.461	99.67
279.676	48.47
279.892	103.76
280.107	-12.97
280.322	3.41
280.538	111.96
280.753	13.65
280.969	62.8
281.184	66.9
281.399	81.24
281.615	23.89
281.83	77.14
282.045	83.28
282.26	44.37
282.476	-0.68
282.691	107.86
282.906	32.08
283.122	27.99
283.337	87.38
283.552	50.52
283.767	19.8
283.983	-0.68
284.198	97.62
284.413	79.19
284.628	17.75
284.843	48.47
285.058	-17.07
285.274	21.85
285.489	19.8
285.704	81.24
285.919	68.95
286.134	1.37
286.349	-33.45
286.564	44.37
286.779	116.05
286.995	23.89
287.21	9.56
287.425	103.76
287.64	66.9
287.855	107.86
288.07	62.8
288.285	15.7
288.5	32.08
288.715	32.08
288.93	40.28
289.145	1.37
289.36	89.43
289.575	58.71
289.79	73.04
290.004	62.8
290.219	99.67
290.434	27.99
290.649	30.04
290.864	77.14
291.079	87.38
291.294	93.52
291.509	36.18
291.724	7.51
291.938	15.7
292.153	50.52
292.368	48.47
292.583	95.57
292.798	-47.79
293.012	-0.68
293.227	1.37
293.442	11.61
293.657	130.39
293.871	58.71
294.086	99.67
294.301	73.04
294.516	60.76
294.73	23.89
294.945	50.52
295.16	126.29
295.374	93.52
295.589	58.71
295.804	30.04
296.018	120.15
296.233	73.04
296.447	95.57
296.662	1.37
296.877	46.42
297.091	17.75
297.306	50.52
297.52	9.56
297.735	54.61
297.949	27.99
298.164	97.62
298.378	27.99
298.593	64.85
298.807	87.38
299.022	13.65
299.236	-17.07
299.451	34.13
299.665	44.37
299.88	71
300.094	-15.02
300.309	107.86
300.523	64.85
300.737	17.75
300.952	48.47
301.166	40.28
301.381	91.48
301.595	62.8
301.809	-8.87
302.024	-0.68
302.238	85.33
302.452	116.05
302.667	64.85
302.881	87.38
303.095	103.76
303.309	25.94
303.524	17.75
303.738	19.8
303.952	71
304.166	54.61
304.381	75.09
304.595	130.39
304.809	68.95
305.023	91.48
305.237	34.13
305.452	71
305.666	36.18
305.88	27.99
306.094	71
306.308	40.28
306.522	83.28
306.736	85.33
306.95	-2.73
307.164	1.37
307.379	40.28
307.593	71
307.807	68.95
308.021	118.1
308.235	91.48
308.449	64.85
308.663	1.37
308.877	23.89
309.091	58.71
309.305	-2.73
309.519	32.08
309.733	83.28
309.947	7.51
310.161	87.38
310.374	13.65
310.588	118.1
310.802	-8.87
311.016	120.15
311.23	107.86
311.444	-4.78
311.658	79.19
311.872	105.81
312.085	13.65
312.299	87.38
312.513	36.18
312.727	48.47
312.941	50.52
313.154	36.18
313.368	-0.68
313.582	75.09
313.796	7.51
314.009	64.85
314.223	56.66
314.437	54.61
314.651	93.52
314.864	75.09
315.078	7.51
315.292	81.24
315.505	34.13
315.719	101.72
315.933	38.23
316.146	73.04
316.36	50.52
316.573	64.85
316.787	89.43
317.001	89.43
317.214	9.56
317.428	136.53
317.641	-19.11
317.855	66.9
318.068	159.06
318.282	40.28
318.495	7.51
318.709	87.38
318.922	58.71
319.136	87.38
319.349	38.23
319.563	79.19
319.776	89.43
319.99	27.99
320.203	75.09
320.417	36.18
320.63	66.9
320.843	71
321.057	126.29
321.27	91.48
321.483	126.29
321.697	118.1
321.91	19.8
322.124	62.8
322.337	34.13
322.55	-12.97
322.763	89.43
322.977	105.81
323.19	25.94
323.403	36.18
323.617	79.19
323.83	68.95
324.043	58.71
324.256	71
324.469	60.76
324.683	114
324.896	73.04
325.109	56.66
325.322	15.7
325.535	132.44
325.748	83.28
325.962	34.13
326.175	40.28
326.388	148.82
326.601	34.13
326.814	68.95
327.027	68.95
327.24	11.61
327.453	32.08
327.666	77.14
327.879	89.43
328.092	25.94
328.305	34.13
328.518	124.24
328.731	64.85
328.944	44.37
329.157	85.33
329.37	-6.83
329.583	109.91
329.796	142.68
330.009	-21.16
330.222	75.09
330.435	-37.55
330.648	56.66
330.861	134.48
331.073	62.8
331.286	126.29
331.499	3.41
331.712	46.42
331.925	109.91
332.138	114
332.35	23.89
332.563	23.89
332.776	101.72
332.989	75.09
333.202	23.89
333.414	77.14
333.627	3.41
333.84	23.89
334.053	146.77
334.265	71
334.478	68.95
334.691	54.61
334.903	25.94
335.116	52.56
335.329	71
335.541	87.38
335.754	-0.68
335.966	27.99
336.179	38.23
336.392	-60.07
336.604	23.89
336.817	165.2
337.029	114
337.242	27.99
337.454	-6.83
337.667	58.71
337.88	126.29
338.092	124.24
338.305	68.95
338.517	50.52
338.729	17.75
338.942	77.14
339.154	11.61
339.367	7.51
339.579	93.52
339.792	79.19
340.004	144.72
340.217	30.04
340.429	99.67
340.641	95.57
340.854	120.15
341.066	38.23
341.278	148.82
341.491	91.48
341.703	73.04
341.915	62.8
342.128	44.37
342.34	13.65
342.552	62.8
342.764	68.95
342.977	38.23
343.189	15.7
343.401	97.62
343.613	27.99
343.826	50.52
344.038	40.28
344.25	46.42
344.462	36.18
344.674	99.67
344.886	77.14
345.099	52.56
345.311	77.14
345.523	36.18
345.735	40.28
345.947	83.28
346.159	27.99
346.371	38.23
346.583	99.67
346.795	23.89
347.007	71
347.219	120.15
347.431	48.47
347.643	126.29
347.855	48.47
348.067	77.14
348.279	71
348.491	93.52
348.703	124.24
348.915	83.28
349.127	93.52
349.339	60.76
349.551	5.46
349.763	101.72
349.975	77.14
350.187	95.57
350.399	36.18
350.61	103.76
350.822	15.7
351.034	68.95
351.246	95.57
351.458	58.71
351.669	138.58
351.881	44.37
352.093	21.85
352.305	83.28
352.517	91.48
352.728	81.24
352.94	56.66
353.152	99.67
353.363	77.14
353.575	87.38
353.787	87.38
353.999	128.34
354.21	118.1
354.422	71
354.633	34.13
354.845	50.52
355.057	36.18
355.268	34.13
355.48	79.19
355.692	30.04
355.903	27.99
356.115	105.81
356.326	17.75
356.538	154.96
356.749	83.28
356.961	58.71
357.172	64.85
357.384	83.28
357.595	32.08
357.807	48.47
358.018	60.76
358.23	71
358.441	107.86
358.653	44.37
358.864	17.75
359.075	89.43
359.287	60.76
359.498	128.34
359.709	73.04
359.921	25.94
360.132	138.58
360.344	60.76
360.555	60.76
360.766	101.72
360.977	52.56
361.189	142.68
361.4	48.47
361.611	46.42
361.823	109.91
362.034	21.85
362.245	27.99
362.456	81.24
362.667	79.19
362.879	34.13
363.09	109.91
363.301	103.76
363.512	13.65
363.723	62.8
363.935	79.19
364.146	89.43
364.357	-12.97
364.568	97.62
364.779	32.08
364.99	68.95
365.201	85.33
365.412	103.76
365.623	107.86
365.834	68.95
366.045	62.8
366.256	64.85
366.467	87.38
366.678	73.04
366.889	77.14
367.1	52.56
367.311	87.38
367.522	15.7
367.733	34.13
367.944	60.76
368.155	40.28
368.366	27.99
368.577	52.56
368.788	54.61
368.999	64.85
369.209	66.9
369.42	36.18
369.631	118.1
369.842	71
370.053	77.14
370.264	11.61
370.474	44.37
370.685	25.94
370.896	52.56
371.107	58.71
371.317	62.8
371.528	58.71
371.739	23.89
371.95	85.33
372.16	89.43
372.371	64.85
372.582	154.96
372.792	73.04
373.003	101.72
373.214	21.85
373.424	118.1
373.635	128.34
373.846	79.19
374.056	77.14
374.267	138.58
374.477	60.76
374.688	66.9
374.898	122.2
375.109	73.04
375.319	77.14
375.53	15.7
375.74	146.77
375.951	89.43
376.161	71
376.372	79.19
376.582	111.96
376.793	87.38
377.003	46.42
377.214	17.75
377.424	60.76
377.635	107.86
377.845	56.66
378.055	68.95
378.266	124.24
378.476	73.04
378.686	81.24
378.897	73.04
379.107	40.28
379.317	146.77
379.528	32.08
379.738	48.47
379.948	89.43
380.158	142.68
380.369	111.96
380.579	56.66
380.789	44.37
380.999	64.85
381.21	101.72
381.42	181.59
381.63	46.42
381.84	83.28
382.05	64.85
382.261	130.39
382.471	17.75
382.681	79.19
382.891	87.38
383.101	56.66
383.311	99.67
383.521	71
383.731	105.81
383.941	25.94
384.151	54.61
384.361	81.24
384.571	15.7
384.781	122.2
384.991	54.61
385.201	91.48
385.411	79.19
385.621	36.18
385.831	52.56
386.041	138.58
386.251	111.96
386.461	75.09
386.671	11.61
386.881	157.01
387.091	81.24
387.301	79.19
387.511	54.61
387.72	120.15
387.93	107.86
388.14	48.47
388.35	89.43
388.56	34.13
388.769	161.11
388.979	87.38
389.189	171.35
389.399	101.72
389.609	157.01
389.818	144.72
390.028	48.47
390.238	62.8
390.447	103.76
390.657	11.61
390.867	79.19
391.076	64.85
391.286	42.32
391.496	111.96
391.705	148.82
391.915	105.81
392.125	152.91
392.334	75.09
392.544	81.24
392.753	114
392.963	103.76
393.172	124.24
393.382	91.48
393.591	148.82
393.801	99.67
394.01	79.19
394.22	107.86
394.429	46.42
394.639	87.38
394.848	142.68
395.058	116.05
395.267	52.56
395.477	120.15
395.686	116.05
395.895	122.2
396.105	157.01
396.314	159.06
396.524	138.58
396.733	93.52
396.942	191.83
397.152	163.15
397.361	128.34
397.57	185.68
397.78	101.72
397.989	126.29
398.198	191.83
398.407	146.77
398.617	109.91
398.826	136.53
399.035	159.06
399.244	95.57
399.453	89.43
399.663	128.34
399.872	146.77
400.081	93.52
400.29	134.48
400.499	220.5
400.708	222.55
400.917	236.88
401.127	191.83
401.336	87.38
401.545	228.69
401.754	210.26
401.963	195.92
402.172	167.25
402.381	144.72
402.59	183.63
402.799	195.92
403.008	167.25
403.217	148.82
403.426	169.3
403.635	165.2
403.844	107.86
404.053	161.11
404.262	226.64
404.471	195.92
404.68	195.92
404.888	218.45
405.097	232.79
405.306	224.59
405.515	167.25
405.724	232.79
405.933	226.64
406.142	257.36
406.35	283.98
406.559	279.89
406.768	261.46
406.977	310.61
407.185	331.09
407.394	290.13
407.603	249.17
407.812	286.03
408.02	386.38
408.229	367.95
408.438	331.09
408.646	298.32
408.855	396.62
409.064	337.23
409.272	425.29
409.481	382.29
409.69	392.53
409.898	410.96
410.107	470.35
410.315	423.25
410.524	507.21
410.733	468.3
410.941	486.73
411.15	570.7
411.358	490.83
411.567	662.86
411.775	605.52
411.984	658.76
412.192	691.53
412.401	552.27
412.609	648.52
412.818	689.48
413.026	630.09
413.234	752.97
413.443	765.26
413.651	773.45
413.86	775.5
414.068	830.79
414.276	845.13
414.485	830.79
414.693	884.04
414.901	949.57
415.11	920.9
415.318	1015.11
415.526	1031.49
415.734	1156.42
415.943	1103.17
416.151	1205.57
416.359	1154.37
416.567	1248.58
416.776	1219.91
416.984	1320.26
417.192	1422.66
417.4	1385.79
417.608	1400.13
417.817	1545.53
418.025	1613.12
418.233	1787.19
418.441	1606.97
418.649	1746.23
418.857	1729.85
419.065	1750.33
419.273	1813.82
419.481	1889.59
419.689	2028.85
419.897	2231.6
420.105	2047.29
420.313	2198.84
420.521	2325.81
420.729	2297.14
420.937	2377.01
421.145	2553.13
421.353	2581.81
421.561	2800.94
421.769	2821.42
421.977	2948.39
422.185	2854.19
422.393	3056.93
422.601	3288.36
422.809	3231.01
423.017	3374.37
423.224	3423.52
423.432	3568.93
423.64	3521.82
423.848	3884.31
424.056	3898.65
424.263	4009.24
424.471	4144.41
424.679	4257.04
424.887	4283.67
425.094	4535.57
425.302	4623.63
425.51	4674.83
425.718	4799.76
425.925	4912.39
426.133	5311.75
426.341	5510.4
426.548	5641.47
426.756	5717.25
426.964	5557.5
427.171	6061.3
427.379	6268.15
427.586	6331.64
427.794	6573.3
428.001	6808.81
428.209	7118.06
428.417	6984.94
428.624	7363.81
428.832	7597.28
429.039	7593.19
429.247	7498.98
429.454	8183
429.662	8760.53
429.869	8260.82
430.076	8944.84
430.284	8522.96
430.491	8973.52
430.699	9536.71
430.906	9512.13
431.114	9649.35
431.321	9837.76
431.528	10015.93
431.736	10824.88
431.943	11162.8
432.15	11072.68
432.358	10976.43
432.565	11609.25
432.772	11592.87
432.979	12024.99
433.187	12483.73
433.394	12498.07
433.601	13403.27
433.808	13454.47
434.016	13108.37
434.223	13821.06
434.43	14734.45
434.637	14304.38
434.844	15299.69
435.052	15617.13
435.259	15459.43
435.466	15737.96
435.673	15291.5
435.88	16710.74
436.087	17347.66
436.294	17609.8
436.501	16845.91
436.708	17321.04
436.915	17779.78
437.122	18517.05
437.329	18680.89
437.537	19229.74
437.743	19469.36
437.95	19502.12
438.157	20184.1
438.364	21300.24
438.571	21070.87
438.778	21197.84
438.985	23466.99
439.192	22420.48
439.399	22807.55
439.606	22647.8
439.813	23946.22
440.02	25342.93
440.227	24853.47
440.433	24560.61
440.64	25355.22
440.847	25140.18
441.054	25965.51
441.261	27519.92
441.467	27351.99
441.674	28076.97
441.881	28750.75
442.088	28476.32
442.294	28464.03
442.501	29432.72
442.708	29942.67
442.914	31425.4
443.121	32461.67
443.328	31441.78
443.534	33547.09
443.741	32688.99
443.948	32449.38
444.154	34874.18
444.361	34329.42
444.568	34624.32
444.774	34769.73
444.981	34952
445.187	35988.27
445.394	37493.53
445.6	36940.58
445.807	40518.38
446.013	39150.34
446.22	39848.69
446.426	41417.44
446.633	41276.13
446.839	42662.6
447.046	41054.95
447.252	43471.55
447.459	43705.02
447.665	42984.13
447.871	44882.6
448.078	46953.1
448.284	44442.29
448.491	45843.1
448.697	47483.52
448.903	48540.27
449.11	48128.63
449.316	47272.58
449.522	48353.91
449.728	49418.85
449.935	49914.46
450.141	49728.09
450.347	50741.84
450.553	48988.78
450.76	49400.42
450.966	50766.41
451.172	50459.22
451.378	51819.07
451.584	50557.52
451.791	51900.99
451.997	51984.96
452.203	52742.7
452.409	52204.09
452.615	52142.65
452.821	49947.23
453.027	49707.61
453.233	52093.5
453.44	49816.16
453.646	50223.7
453.852	50371.16
454.058	51321.41
454.264	49459.81
454.47	50725.46
454.676	49228.39
454.882	50690.64
455.088	46394
455.294	46944.9
455.5	47610.49
455.705	47755.9
455.911	46432.91
456.117	45183.65
456.323	44528.3
456.529	42066.64
456.735	43657.92
456.941	42693.32
457.147	42128.08
457.352	40833.77
457.558	40383.21
457.764	40538.86
457.97	39369.47
458.176	38445.83
458.381	38798.09
458.587	36600.61
458.793	36832.04
458.999	34947.9
459.204	37122.85
459.41	36291.37
459.616	33968.97
459.821	33618.77
460.027	33921.87
460.233	33157.98
460.438	31304.57
460.644	31847.28
460.85	30401.41
461.055	30231.43
461.261	29715.34
461.466	27612.08
461.672	26600.38
461.878	28713.89
462.083	26907.58
462.289	26330.05
462.494	25891.79
462.7	24900.57
462.905	24331.23
463.111	25146.33
463.316	25232.34
463.522	24837.08
463.727	24675.29
463.932	24855.51
464.138	24378.34
464.343	24648.67
464.549	23669.74
464.754	24482.78
464.959	24654.81
465.165	24198.12
465.37	23690.22
465.575	22717.43
465.781	23391.22
465.986	23718.89
466.191	23059.45
466.397	22477.82
466.602	21341.2
466.807	22207.49
467.012	22033.41
467.218	22049.8
467.423	21720.07
467.628	22066.18
467.833	22875.13
468.038	22096.9
468.244	21230.61
468.449	22070.28
468.654	21517.33
468.859	21171.22
469.064	21216.27
469.269	20433.95
469.474	20507.68
469.679	21126.16
469.885	20227.1
470.09	20753.43
470.295	20411.42
470.5	20042.79
470.705	20014.12
470.91	19635.24
471.115	19379.25
471.32	19805.22
471.525	19307.57
471.73	19100.72
471.935	18986.04
472.139	18463.8
472.344	18613.31
472.549	18449.47
472.754	18148.42
472.959	17736.77
473.164	17030.23
473.369	17316.94
473.574	17818.69
473.778	17407.05
473.983	17558.6
474.188	17425.48
474.393	16665.69
474.598	16661.59
474.802	16641.11
475.007	16591.96
475.212	16278.62
475.417	15920.23
475.621	15537.26
475.826	15684.71
476.031	15477.87
476.235	15195.25
476.44	15608.94
476.645	15066.22
476.849	15137.9
477.054	15002.74
477.259	14912.63
477.463	14765.17
477.668	14445.69
477.872	14589.05
478.077	14427.26
478.282	14193.79
478.486	13976.7
478.691	13606.02
478.895	13741.19
479.1	13810.82
479.304	13581.45
479.509	13427.85
479.713	13702.28
479.918	13419.66
480.122	13319.31
480.326	13315.21
480.531	13419.66
480.735	13276.3
480.94	13061.26
481.144	13497.48
481.348	12635.28
481.553	12971.15
481.757	12653.72
481.961	12987.54
482.166	13153.42
482.37	13153.42
482.574	12655.76
482.778	12702.87
482.983	13114.51
483.187	12678.29
483.391	13020.3
483.595	12784.79
483.8	12571.8
484.004	12788.88
484.208	13067.41
484.412	12960.91
484.616	12975.25
484.821	12692.63
485.025	12792.98
485.229	12838.03
485.433	12715.16
485.637	12938.38
485.841	12573.85
486.045	12723.35
486.249	12711.06
486.453	12723.35
486.657	12633.24
486.861	12938.38
487.065	12455.06
487.269	12844.18
487.473	12866.7
487.677	12725.4
487.881	12749.97
488.085	12704.92
488.289	12838.03
488.493	12655.76
488.697	12666
488.901	13116.56
489.105	12848.27
489.309	13010.06
489.512	12864.66
489.716	12848.27
489.92	12965.01
490.124	12887.18
490.328	12981.39
490.531	13130.89
490.735	13206.67
490.939	13106.32
491.143	13122.7
491.346	13309.07
491.55	13407.37
491.754	13190.28
491.958	13403.27
492.161	13352.07
492.365	13419.66
492.569	13421.7
492.772	13411.46
492.976	13636.74
493.18	13460.62
493.383	13866.11
493.587	13786.24
493.79	14134.4
493.994	13878.4
494.197	14414.97
494.401	14044.29
494.605	14335.1
494.808	14298.24
495.012	14339.19
495.215	14376.06
495.419	14701.68
495.622	14726.26
495.825	14924.91
496.029	15002.74
496.232	15377.51
496.436	15033.46
496.639	15432.81
496.843	15404.14
497.046	15834.21
497.249	15858.79
497.453	15922.27
497.656	16227.42
497.859	16252
498.063	16180.32
498.266	16630.87
498.469	16665.69
498.673	16809.04
498.876	17261.65
499.079	17214.54
499.282	17275.98
499.485	17806.41
499.689	17957.96
499.892	18062.4
500.095	18189.38
500.298	18551.87
500.501	18496.57
500.705	18879.54
500.908	18869.3
501.111	19256.37
501.314	19647.53
501.517	19825.7
501.72	19940.39
501.923	19967.01
502.126	20167.71
502.329	20691.99
502.532	20499.48
502.735	20532.25
502.938	21230.61
503.141	21423.12
503.344	21599.24
503.547	21484.56
503.75	21822.47
503.953	22223.87
504.156	22518.78
504.359	22832.12
504.562	22719.48
504.765	23313.39
504.968	23798.76
505.17	23837.67
505.373	23774.19
505.576	24173.54
505.779	24415.2
505.982	24576.99
506.185	25002.97
506.387	24851.42
506.59	24949.72
506.793	25689.04
506.996	25727.95
507.198	26520.51
507.401	26297.28
507.604	26780.6
507.807	27136.95
508.009	27165.62
508.212	27546.54
508.415	27886.51
508.617	28097.45
508.82	28285.86
509.022	28089.26
509.225	28834.72
509.428	29254.55
509.63	29395.86
509.833	29475.73
510.035	30366.6
510.238	30221.19
510.44	30499.72
510.643	30978.94
510.845	31015.8
511.048	31044.48
511.25	32009.07
511.453	31923.05
511.655	33051.49
511.858	32486.25
512.06	32922.46
512.262	33188.7
512.465	33196.89
512.667	33864.53
512.87	34059.09
513.072	34085.71
513.274	35066.69
513.477	35017.53
513.679	35443.51
513.881	35564.34
514.084	35621.69
514.286	35998.51
514.488	36131.63
514.69	37495.58
514.893	37362.46
515.095	37180.19
515.297	37882.64
515.499	37751.57
515.701	38601.48
515.904	38912.77
516.106	39369.47
516.308	39428.86
516.51	39971.57
516.712	39740.15
516.914	40461.04
517.116	41257.7
517.318	41169.63
517.52	41358.05
517.722	41452.25
517.925	42001.11
518.127	42844.87
518.329	42836.68
518.531	42785.48
518.733	43403.97
518.935	43819.7
519.136	43803.32
519.338	44153.52
519.54	44403.38
519.742	45109.92
519.944	45073.06
520.146	45927.06
520.348	46201.49
520.55	46604.94
520.752	46506.64
520.954	47350.4
521.155	47456.9
521.357	47499.9
521.559	48112.25
521.761	48435.83
521.963	48536.18
522.164	48220.79
522.366	48896.62
522.568	49408.61
522.77	49398.37
522.971	50479.7
523.173	50061.91
523.375	50856.53
523.576	50385.49
523.778	50582.1
523.98	51143.24
524.181	51464.77
524.383	51528.26
524.584	52163.13
524.786	52243
524.988	51933.76
525.189	53203.5
525.391	53025.32
525.592	53049.9
525.794	53588.52
525.995	53572.13
526.197	54051.36
526.398	53856.8
526.6	53983.77
526.801	54139.42
527.003	54905.36
527.204	54813.2
527.406	55230.99
527.607	55058.96
527.808	55091.72
528.01	54817.3
528.211	54782.48
528.412	56175.1
528.614	55671.3
528.815	55812.61
529.016	56119.81
529.218	55470.6
529.419	56267.26
529.62	55884.29
529.822	56181.24
530.023	56377.85
530.224	56422.9
530.425	55904.77
530.626	56318.46
530.828	56050.17
531.029	57018.86
531.23	56369.66
531.431	56402.42
531.632	56715.76
531.833	57090.54
532.035	56906.22
532.236	57045.49
532.437	57399.79
532.638	56785.39
532.839	57588.2
533.04	57551.34
533.241	57143.79
533.442	57960.93
533.643	57338.35
533.844	57276.91
534.045	57379.31
534.246	57397.74
534.447	57571.81
534.648	57199.08
534.849	57643.49
535.05	57254.38
535.251	57926.11
535.451	57246.19
535.652	57504.23
535.853	57125.36
536.054	58059.23
536.255	57516.52
536.456	57473.51
536.657	57981.41
536.857	57264.62
537.058	57145.84
537.259	57831.91
537.46	57651.69
537.66	57709.03
537.861	57489.9
538.062	57539.05
538.263	57780.71
538.463	57348.59
538.664	57401.83
538.865	57969.12
539.065	58075.62
539.266	57207.28
539.466	57981.41
539.667	57379.31
539.868	57778.66
540.068	57438.7
540.269	57582.05
540.469	57932.26
540.67	56947.18
540.87	57639.4
541.071	57731.56
541.271	57541.1
541.472	57168.36
541.672	57049.58
541.873	57356.78
542.073	56820.21
542.274	57537
542.474	57229.8
542.675	56814.07
542.875	57604.58
543.075	57278.96
543.276	56789.49
543.476	57534.95
543.676	57256.43
543.877	57336.3
544.077	56871.41
544.277	57000.43
544.478	56846.83
544.678	56934.9
544.878	57106.93
545.078	57534.95
545.279	56773.11
545.479	56799.73
545.679	57510.38
545.879	56867.31
546.079	57108.97
546.28	56938.99
546.48	56390.14
546.68	56922.61
546.88	57149.93
547.08	56912.37
547.28	56607.22
547.48	56386.04
547.68	56707.57
547.88	56476.15
548.081	56895.99
548.281	56842.74
548.481	56803.83
548.681	57106.93
548.881	56967.66
549.081	56807.92
549.28	56809.97
549.48	56822.26
549.68	56513.01
549.88	57278.96
550.08	56461.82
550.28	56574.45
550.48	56578.55
550.68	56799.73
550.88	56324.6
551.08	56820.21
551.279	56916.46
551.479	56191.48
551.679	56300.03
551.879	56156.67
552.079	56852.98
552.278	56197.63
552.478	56412.66
552.678	56330.75
552.878	56871.41
553.077	56250.88
553.277	56263.16
553.477	56674.8
553.676	55890.43
553.876	56082.94
554.076	55804.42
554.275	56140.28
554.475	55427.59
554.674	55953.92
554.874	56023.55
555.074	55706.12
555.273	56422.9
555.473	55915.01
555.672	55548.42
555.872	55972.35
556.071	55826.95
556.271	55812.61
556.47	55394.82
556.67	55058.96
556.869	55525.89
557.068	55837.19
557.268	55138.83
557.467	55656.96
557.667	55204.36
557.866	55263.75
558.065	54798.87
558.265	54723.09
558.464	54608.4
558.663	55253.51
558.863	54374.94
559.062	55527.94
559.261	54219.29
559.461	55325.19
559.66	54209.05
559.859	54379.03
560.058	54063.64
560.258	54620.69
560.457	54043.16
560.656	54684.18
560.855	53815.84
561.054	54465.05
561.253	53971.49
561.453	54018.59
561.652	54034.97
561.851	54018.59
562.05	53510.69
562.249	53215.79
562.448	53840.42
562.647	53514.79
562.846	53756.45
563.045	53432.87
563.244	53097
563.443	53506.6
563.642	52853.29
563.841	52992.56
564.04	52720.18
564.239	53609
564.438	52490.8
564.637	53035.56
564.836	52929.07
565.035	52271.67
565.234	52449.84
565.432	52118.07
565.631	52390.45
565.83	52765.23
566.029	52023.87
566.228	52095.55
566.427	51563.07
566.625	51759.68
566.824	51024.46
567.023	51421.76
567.222	50395.73
567.42	51905.09
567.619	51401.28
567.818	51122.76
568.016	50860.62
568.215	51442.24
568.414	50965.07
568.612	51403.33
568.811	50500.18
569.01	50758.22
569.208	49922.65
569.407	51114.57
569.605	49896.03
569.804	50172.5
570.002	49979.99
570.201	50586.19
570.4	49605.22
570.598	49578.59
570.797	48949.87
570.995	49744.48
571.193	48894.57
571.392	49807.97
571.59	49242.73
571.789	49283.69
571.987	48693.87
572.186	49144.42
572.384	49054.31
572.582	48661.1
572.781	48970.35
572.979	48167.54
573.177	48517.74
573.376	48431.73
573.574	48284.28
573.772	48380.53
573.971	47991.42
574.169	47694.46
574.367	47528.58
574.565	48003.7
574.763	47497.86
574.962	47518.34
575.16	47194.76
575.358	47180.42
575.556	46383.76
575.754	47061.64
575.952	46627.47
576.151	46946.95
576.349	46146.2
576.547	46656.14
576.745	46404.24
576.943	46439.06
577.141	46224.02
577.339	46430.86
577.537	46244.5
577.735	45777.56
577.933	45339.3
578.131	45925.02
578.329	45240.99
578.527	45091.49
578.725	45279.91
578.923	45374.11
579.121	45111.97
579.319	45398.69
579.516	44698.28
579.714	44941.99
579.912	44655.28
580.11	44696.24
580.308	44231.35
580.506	44090.04
580.704	43678.39
580.901	44204.72
581.099	44638.89
581.297	43821.75
581.495	43852.47
581.692	43616.96
581.89	43592.38
582.088	43958.97
582.285	43446.97
582.483	43803.32
582.681	43334.34
582.878	42947.27
583.076	42980.04
583.274	43221.7
583.471	42980.04
583.669	42500.81
583.866	42214.1
584.064	42414.8
584.262	42117.84
584.459	42232.53
584.657	41951.96
584.854	42388.17
585.052	41689.82
585.249	41919.19
585.447	41915.09
585.644	41507.55
585.841	41437.92
586.039	41929.43
586.236	40870.63
586.434	41276.13
586.631	40942.31
586.828	41087.71
587.026	40915.68
587.223	40610.54
587.42	40504.04
587.618	41038.56
587.815	39928.56
588.012	40268.53
588.21	39910.13
588.407	40241.9
588.604	39990
588.801	39795.45
588.999	39854.84
589.196	39658.23
589.393	39537.4
589.59	39529.21
589.787	39035.65
589.984	39138.05
590.182	38867.72
590.379	39441.15
590.576	38839.04
590.773	39166.72
590.97	38632.2
591.167	38992.64
591.364	38210.32
591.561	38630.15
591.758	38048.53
591.955	37931.79
592.152	38423.31
592.349	37716.76
592.546	38087.44
592.743	37681.94
592.94	37354.27
593.137	37698.33
593.334	37405.47
593.531	36965.15
593.727	37405.47
593.924	37688.09
594.121	37202.72
594.318	37417.75
594.515	36266.8
594.712	37325.6
594.908	36463.4
595.105	36971.3
595.302	36219.69
595.499	36158.25
595.696	36246.32
595.892	35849.01
596.089	36092.72
596.286	35771.19
596.482	35597.11
596.679	35722.04
596.876	35785.52
597.072	35558.2
597.269	35771.19
597.466	34906.94
597.662	35109.69
597.859	34837.31
598.055	35177.28
598.252	34534.21
598.448	34683.72
598.645	34853.7
598.841	34319.18
599.038	34163.53
599.234	34263.88
599.431	34573.13
599.627	34214.73
599.824	34009.93
600.02	33600.34
600.217	34009.93
600.413	34247.5
600.609	33497.94
600.806	33160.03
601.002	33866.58
601.198	33303.39
601.395	33495.89
601.591	33035.1
601.787	33067.87
601.984	32801.63
602.18	33104.73
602.376	32586.6
602.572	32895.84
602.769	32373.61
602.965	32015.21
603.161	32547.68
603.357	32291.69
603.553	32299.88
603.75	32195.43
603.946	32140.14
604.142	32369.51
604.338	31230.84
604.534	32043.88
604.73	31492.98
604.926	31667.06
605.122	31683.44
605.318	31142.78
605.514	30958.46
605.71	31089.53
605.906	31155.07
606.102	31118.2
606.298	31064.96
606.494	31193.98
606.69	30542.72
606.886	30790.53
607.082	30059.4
607.278	30741.38
607.474	30288.78
607.67	30507.91
607.866	29733.78
608.062	30497.67
608.257	30258.06
608.453	30049.16
608.649	30145.42
608.845	29371.29
609.041	29809.55
609.236	30280.58
609.432	29715.34
609.628	29768.59
609.824	29676.43
610.019	29465.49
610.215	29371.29
610.411	29883.28
610.606	29279.13
610.802	29346.71
610.998	29131.67
611.193	29524.88
611.389	29059.99
611.584	29129.62
611.78	29031.32
611.976	28984.22
612.171	29283.22
612.367	28978.08
612.562	28732.32
612.758	28257.19
612.953	28208.04
613.149	28971.93
613.344	28181.42
613.539	28978.08
613.735	28304.29
613.93	28726.17
614.126	28222.37
614.321	28683.17
614.517	28429.22
614.712	28105.64
614.907	27941.8
615.103	28470.18
615.298	27917.23
615.493	27941.8
615.688	27698.09
615.884	28574.63
616.079	27671.47
616.274	27902.89
616.47	27483.06
616.665	27753.39
616.86	27435.95
617.055	27704.24
617.25	27573.17
617.445	27405.24
617.641	27001.79
617.836	27392.95
618.031	26835.9
618.226	27462.58
618.421	27114.42
618.616	26936.25
618.811	26618.82
619.006	27286.45
619.201	26229.7
619.396	26620.86
619.591	26168.26
619.786	26510.27
619.981	26180.55
620.176	26364.87
620.371	25811.92
620.566	25947.08
620.761	25803.72
620.956	25965.51
621.151	25660.37
621.346	25514.96
621.541	25463.76
621.735	25641.93
621.93	24814.55
622.125	25105.37
622.32	24953.82
622.515	25002.97
622.709	24540.13
622.904	24394.72
623.099	24499.17
623.294	24488.93
623.488	24228.84
623.683	24450.02
623.878	23739.37
624.072	23874.54
624.267	23610.35
624.462	23487.47
624.656	23077.88
624.851	23362.54
625.046	23301.11
625.24	23292.91
625.435	22737.91
625.629	23178.23
625.824	22873.08
626.018	22744.06
626.213	22227.97
626.407	22492.16
626.602	21992.45
626.796	22232.07
626.991	22041.6
627.185	21890.06
627.38	21859.34
627.574	21529.61
627.768	21505.04
627.963	21632.01
628.157	21206.03
628.352	21386.25
628.546	21009.43
628.74	21054.48
628.935	20610.07
629.129	20964.37
629.323	20474.91
629.517	20665.37
629.712	20436
629.906	20757.53
630.1	19805.22
630.294	20337.69
630.489	20091.94
630.683	20116.51
630.877	19975.2
631.071	19700.78
631.265	19586.09
631.459	19401.77
631.653	19485.74
631.848	19364.91
632.042	19297.33
632.236	19221.55
632.43	18764.85
632.624	18967.6
632.818	18775.09
633.012	18527.29
633.206	18564.15
633.4	18646.07
633.594	18183.23
633.788	18631.74
633.982	18549.82
634.176	18242.62
634.369	17904.71
634.563	18062.4
634.757	17626.18
634.951	17792.07
635.145	17642.57
635.339	17611.85
635.533	17398.86
635.726	17568.84
635.92	17106
636.114	17425.48
636.308	16995.41
636.501	17159.25
636.695	17052.75
636.889	16872.53
637.083	16802.9
637.276	16585.82
637.47	16436.31
637.664	16645.21
637.857	16467.03
638.051	16315.48
638.244	16329.82
638.438	16280.67
638.632	15973.47
638.825	16225.37
639.019	15903.84
639.212	15733.86
639.406	15797.35
639.599	15643.75
639.793	15588.46
639.986	15455.34
640.18	15494.25
640.373	15608.94
640.567	14998.64
640.76	15318.12
640.954	15113.33
641.147	15246.44
641.34	14881.91
641.534	14943.35
641.727	14732.4
641.92	14922.87
642.114	14431.35
642.307	14498.94
642.5	14447.74
642.694	14343.29
642.887	14206.08
643.08	14222.46
643.273	14072.96
643.467	14222.46
643.66	14146.69
643.853	14075.01
644.046	13517.96
644.239	13825.15
644.432	13587.59
644.626	13624.45
644.819	13540.49
645.012	13673.6
645.205	13466.76
645.398	13397.13
645.591	13423.75
645.784	13264.01
645.977	13282.44
646.17	13393.03
646.363	12893.33
646.556	12850.32
646.749	12917.9
646.942	12967.06
647.135	12897.42
647.328	12715.16
647.521	12799.12
647.714	12600.47
647.907	12561.56
648.099	12387.48
648.292	12463.26
648.485	12285.08
648.678	12145.82
648.871	12311.71
649.064	12012.7
649.256	12049.57
649.449	11891.87
649.642	11842.72
649.835	11730.08
650.027	11691.17
650.22	11789.47
650.413	11519.14
650.605	11594.92
650.798	11568.29
650.991	11500.71
651.183	11558.05
651.376	11295.91
651.568	11418.79
651.761	11300.01
651.954	11072.68
652.146	11236.52
652.339	10958
652.531	11019.44
652.724	11119.79
652.916	10755.25
653.109	10962.09
653.301	10745.01
653.494	10923.18
653.686	10601.65
653.879	10589.36
654.071	10503.35
654.263	10282.17
654.456	10519.73
654.648	10257.59
654.84	10362.04
655.033	10259.64
655.225	10337.46
655.417	10194.11
655.61	10312.89
655.802	10190.01
655.994	10026.17
656.186	10081.47
656.379	9876.67
656.571	9880.77
656.763	9700.55
656.955	9616.58
657.148	9745.6
657.34	9549
657.532	9456.84
657.724	9350.34
657.916	9692.35
658.108	9336.01
658.3	9510.08
658.492	9440.45
658.684	9295.05
658.876	9100.49
659.068	9243.85
659.26	9137.35
659.452	9114.83
659.644	9153.74
659.836	8969.42
660.028	9108.68
660.22	8705.23
660.412	8862.93
660.604	8881.36
660.796	8891.6
660.988	8582.35
661.18	8551.63
661.372	8580.31
661.563	8858.83
661.755	8559.83
661.947	8670.42
662.139	8647.89
662.331	8406.23
662.522	8406.23
662.714	8342.74
662.906	8033.5
663.097	8402.13
663.289	8156.38
663.481	8213.72
663.673	8084.7
663.864	8051.93
664.056	8017.11
664.247	8033.5
664.439	8025.31
664.631	8082.65
664.822	7867.61
665.014	7752.93
665.205	7773.41
665.397	7703.78
665.588	7730.4
665.78	7783.65
665.971	7744.74
666.163	7752.93
666.354	7736.54
666.546	7537.89
666.737	7531.75
666.929	7290.09
667.12	7601.38
667.311	7513.31
667.503	7415.01
667.694	7464.16
667.885	7070.95
668.077	7400.68
668.268	7195.88
668.459	7228.65
668.651	7105.77
668.842	6984.94
669.033	7062.76
669.224	6868.2
669.416	7005.42
669.607	7052.52
669.798	7019.75
669.989	6905.07
670.18	6841.58
670.371	6796.53
670.563	6876.4
670.754	6941.93
670.945	6659.31
671.136	6608.11
671.327	6741.23
671.518	6687.98
671.709	6624.5
671.9	6710.51
672.091	6515.95
672.282	6501.62
672.473	6370.55
672.664	6489.33
672.855	6536.43
673.046	6352.12
673.237	6493.43
673.428	6403.32
673.619	6407.41
673.809	6251.77
674	6257.91
674.191	6427.89
674.382	6182.14
674.573	6386.93
674.764	6315.25
674.954	6089.98
675.145	6251.77
675.336	6266.1
675.527	6132.98
675.717	6126.84
675.908	6100.22
676.099	6075.64
676.289	5915.9
676.48	5983.48
676.671	6077.69
676.861	5901.56
677.052	5864.7
677.243	5952.76
677.433	5897.47
677.624	5944.57
677.814	5639.42
678.005	5666.05
678.195	5569.79
678.386	5797.12
678.576	5659.9
678.767	5707.01
678.957	5631.23
679.148	5680.38
679.338	5631.23
679.529	5489.92
679.719	5657.85
679.909	5600.51
680.1	5487.87
680.29	5569.79
680.481	5508.35
680.671	5471.49
680.861	5455.11
681.052	5557.5
681.242	5516.55
681.432	5414.15
681.622	5262.6
681.813	5430.53
682.003	5432.58
682.193	5461.25
682.383	5217.54
682.573	5520.64
682.764	5305.6
682.954	5315.84
683.144	5434.63
683.334	5233.93
683.524	5266.69
683.714	5295.36
683.904	5221.64
684.094	5119.24
684.284	5133.57
684.474	5328.13
684.664	5131.53
684.854	5008.65
685.044	5143.81
685.234	4959.5
685.424	4973.83
685.614	5217.54
685.804	5025.03
685.994	5008.65
686.184	5123.34
686.374	5031.18
686.564	5039.37
686.753	5145.86
686.943	4949.26
687.133	4910.35
687.323	4947.21
687.513	5045.51
687.702	4865.29
687.892	4867.34
688.082	4867.34
688.272	4861.2
688.461	4812.04
688.651	4865.29
688.841	4713.74
689.03	4609.3
689.22	4713.74
689.41	4494.61
689.599	4701.45
689.789	4545.81
689.979	4574.48
690.168	4554
690.358	4566.29
690.547	4537.62
690.737	4519.18
690.926	4558.1
691.116	4349.2
691.305	4392.21
691.495	4476.18
691.684	4357.39
691.874	4472.08
692.063	4275.48
692.252	4422.93
692.442	4377.87
692.631	4361.49
692.82	4443.41
693.01	4418.83
693.199	4381.97
693.388	4152.6
693.578	4267.28
693.767	4214.04
693.956	4197.65
694.146	4134.17
694.335	4168.98
694.524	4242.71
694.713	4267.28
694.902	4271.38
695.092	4115.73
695.281	4195.61
695.47	4089.11
695.659	4023.58
695.848	4101.4
696.037	4115.73
696.226	3947.8
696.415	4150.55
696.604	3937.56
696.793	4039.96
696.982	3933.47
697.171	3972.38
697.36	3941.66
697.549	3910.94
697.738	4033.82
697.927	3861.79
698.116	4013.34
698.305	3994.9
698.494	3970.33
698.683	3908.89
698.872	3931.42
699.061	3775.77
699.25	3734.81
699.438	3949.85
699.627	3816.73
699.816	4035.86
700.005	3898.65
700.193	3820.83
700.382	3927.32
700.571	3697.95
700.76	3796.25
700.948	3798.3
701.137	3738.91
701.326	3849.5
701.514	3763.48
701.703	3806.49
701.892	3806.49
702.08	3755.29
702.269	3798.3
702.457	3763.48
702.646	3712.28
702.834	3695.9
703.023	3724.57
703.212	3656.99
703.4	3773.72
703.589	3560.73
703.777	3693.85
703.965	3714.33
704.154	3751.2
704.342	3603.74
704.531	3724.57
704.719	3613.98
704.907	3763.48
705.096	3577.12
705.284	3700
705.472	3665.18
705.661	3734.81
705.849	3792.16
706.037	3515.68
706.226	3665.18
706.414	3591.45
706.602	3581.21
706.79	3628.32
706.979	3548.45
707.167	3611.93
707.355	3599.65
707.543	3509.54
707.731	3620.13
707.919	3634.46
708.107	3462.43
708.296	3603.74
708.484	3558.69
708.672	3460.38
708.86	3581.21
709.048	3681.57
709.236	3587.36
709.424	3573.02
709.612	3611.93
709.8	3472.67
709.988	3466.53
710.176	3544.35
710.364	3564.83
710.551	3521.82
710.739	3521.82
710.927	3470.62
711.115	3441.95
711.303	3511.58
711.491	3482.91
711.679	3413.28
711.866	3499.3
712.054	3439.9
712.242	3378.47
712.43	3499.3
712.617	3394.85
712.805	3333.41
712.993	3357.99
713.181	3366.18
713.368	3226.92
713.556	3454.24
713.744	3319.07
713.931	3378.47
714.119	3376.42
714.306	3484.96
714.494	3288.36
714.682	3370.27
714.869	3405.09
715.057	3388.71
715.244	3362.08
715.432	3376.42
715.619	3296.55
715.807	3360.03
715.994	3257.64
716.182	3308.83
716.369	3251.49
716.556	3200.29
716.744	3228.96
716.931	3386.66
717.119	3132.71
717.306	3226.92
717.493	3345.7
717.681	3284.26
717.868	3124.52
718.055	3247.4
718.242	3259.68
718.43	3210.53
718.617	3296.55
718.804	3304.74
718.991	3198.24
719.179	3243.3
719.366	3317.03
719.553	3239.2
719.74	3151.14
719.927	3200.29
720.114	3259.68
720.301	3169.57
720.488	3138.85
720.676	3136.81
720.863	3204.39
721.05	3161.38
721.237	3136.81
721.424	3202.34
721.611	3108.13
721.798	3073.32
721.985	3136.81
722.172	3083.56
722.358	3132.71
722.545	3104.04
722.732	3179.81
722.919	3063.08
723.106	3099.94
723.293	3099.94
723.48	3120.42
723.667	3036.45
723.853	2956.58
724.04	3079.46
724.227	3104.04
724.414	3095.85
724.6	2989.35
724.787	3151.14
724.974	2983.21
725.161	2964.78
725.347	3085.61
725.534	3048.74
725.72	2983.21
725.907	3081.51
726.094	2964.78
726.28	3034.41
726.467	2993.45
726.653	3009.83
726.84	3036.45
727.027	3167.52
727.213	3034.41
727.4	3065.13
727.586	2972.97
727.773	3087.65
727.959	3050.79
728.145	2903.34
728.332	2913.58
728.518	2915.62
728.705	3052.84
728.891	2962.73
729.077	3018.02
729.264	3081.51
729.45	2936.1
729.636	2989.35
729.823	3061.03
730.009	3036.45
730.195	2979.11
730.382	2987.3
730.568	3026.22
730.754	3005.74
730.94	2907.43
731.126	2993.45
731.313	2987.3
731.499	2999.59
731.685	2981.16
731.871	2907.43
732.057	3040.55
732.243	2913.58
732.429	2850.09
732.615	2975.02
732.801	2962.73
732.987	2852.14
733.173	2891.05
733.359	2878.76
733.545	2848.04
733.731	2860.33
733.917	2975.02
734.103	3007.78
734.289	2858.28
734.475	2862.38
734.661	2970.92
734.847	2868.52
735.033	2845.99
735.219	2805.03
735.404	2743.6
735.59	2858.28
735.776	2811.18
735.962	2882.86
736.148	2940.2
736.333	2708.78
736.519	2809.13
736.705	2749.74
736.89	2856.23
737.076	2739.5
737.262	2854.19
737.447	2782.51
737.633	2653.48
737.819	2833.71
738.004	2712.88
738.19	2770.22
738.375	2669.87
738.561	2704.68
738.747	2831.66
738.932	2686.25
739.118	2743.6
739.303	2653.48
739.489	2696.49
739.674	2702.64
739.859	2608.43
740.045	2776.36
740.23	2796.84
740.416	2618.67
740.601	2702.64
740.786	2579.76
740.972	2649.39
741.157	2563.37
741.342	2573.61
741.528	2671.92
741.713	2637.1
741.898	2655.53
742.084	2510.13
742.269	2551.09
742.454	2534.7
742.639	2698.54
742.824	2526.51
743.01	2573.61
743.195	2536.75
743.38	2522.41
743.565	2512.18
743.75	2522.41
743.935	2555.18
744.12	2473.26
744.305	2495.79
744.49	2575.66
744.675	2481.46
744.86	2489.65
745.045	2319.67
745.23	2395.44
745.415	2389.3
745.6	2374.96
745.785	2387.25
745.97	2440.5
746.155	2243.89
746.34	2413.87
746.525	2336.05
746.71	2399.54
746.895	2319.67
747.079	2372.91
747.264	2286.9
747.449	2426.16
747.634	2157.88
747.819	2399.54
748.003	2065.72
748.188	2278.71
748.373	2141.49
748.557	2252.08
748.742	2151.73
748.927	2272.56
749.111	2137.4
749.296	2043.19
749.481	2086.2
749.665	2159.92
749.85	1932.6
750.034	2170.16
750.219	1985.85
750.404	2137.4
750.588	2057.53
750.773	1942.84
750.957	1967.42
751.141	2157.88
751.326	2102.58
751.51	1924.41
751.695	1971.51
751.879	1883.45
752.064	1908.02
752.248	1948.98
752.432	1994.04
752.617	1955.13
752.801	1932.6
752.985	1834.3
753.17	1920.31
753.354	1735.99
753.538	1781.05
753.722	1901.88
753.907	1819.96
754.091	1899.83
754.275	1703.23
754.459	1846.59
754.643	1703.23
754.828	1641.79
755.012	1707.32
755.196	1690.94
755.38	1666.36
755.564	1660.22
755.748	1660.22
755.932	1602.88
756.116	1649.98
756.3	1617.21
756.484	1748.28
756.668	1641.79
756.852	1604.92
757.036	1615.16
757.22	1623.36
757.404	1647.93
757.588	1588.54
757.772	1670.46
757.956	1506.62
758.14	1598.78
758.323	1486.14
758.507	1482.05
758.691	1461.57
758.875	1510.72
759.059	1457.47
759.242	1441.09
759.426	1414.46
759.61	1537.34
759.794	1441.09
759.977	1414.46
760.161	1488.19
760.345	1471.81
760.528	1471.81
760.712	1359.17
760.895	1398.08
761.079	1330.5
761.263	1471.81
761.446	1340.74
761.63	1377.6
761.813	1250.63
761.997	1307.97
762.18	1256.77
762.364	1269.06
762.547	1283.39
762.731	1377.6
762.914	1310.02
763.098	1365.31
763.281	1271.11
763.464	1324.35
763.648	1283.39
763.831	1330.5
764.015	1232.19
764.198	1314.11
764.381	1318.21
764.564	1322.31
764.748	1326.4
764.931	1320.26
765.114	1195.33
765.297	1252.67
765.481	1150.28
765.664	1287.49
765.847	1246.53
766.03	1228.1
766.213	1181
766.397	1191.24
766.58	1256.77
766.763	1209.67
766.946	1334.59
767.129	1174.85
767.312	1117.51
767.495	1191.24
767.678	1142.08
767.861	1287.49
768.044	1228.1
768.227	1119.56
768.41	1160.52
768.593	1166.66
768.776	1160.52
768.959	1156.42
769.142	1164.61
769.324	1090.88
769.507	1133.89
769.69	1084.74
769.873	1178.95
770.056	1088.84
770.239	1105.22
770.421	1187.14
770.604	1135.94
770.787	1101.12
770.97	1094.98
771.152	1076.55
771.335	1070.4
771.518	1027.4
771.7	1076.55
771.883	1029.45
772.066	1111.36
772.248	1146.18
772.431	1047.88
772.613	1033.54
772.796	1015.11
772.978	1025.35
773.161	1035.59
773.343	1031.49
773.526	972.1
773.708	1068.36
773.891	894.28
774.073	1023.3
774.256	1011.01
774.438	1000.77
774.621	959.81
774.803	1094.98
774.985	955.72
775.168	976.2
775.35	884.04
775.532	980.29
775.715	961.86
775.897	963.91
776.079	820.55
776.261	959.81
776.444	941.38
776.626	853.32
776.808	869.7
776.99	828.74
777.173	896.33
777.355	843.08
777.537	912.71
777.719	896.33
777.901	873.8
778.083	804.17
778.265	832.84
778.447	824.65
778.629	775.5
778.811	693.58
778.993	881.99
779.175	822.6
779.357	793.93
779.539	769.35
779.721	884.04
779.903	716.11
780.085	712.01
780.267	789.83
780.449	826.7
780.631	660.81
780.812	752.97
780.994	767.31
781.176	742.73
781.358	677.19
781.54	691.53
781.721	736.59
781.903	720.2
782.085	748.87
782.267	722.25
782.448	671.05
782.63	652.62
782.812	724.3
782.993	669
783.175	691.53
783.357	605.52
783.538	677.19
783.72	623.95
783.901	693.58
784.083	558.41
784.264	591.18
784.446	595.28
784.627	560.46
784.809	578.89
784.99	576.84
785.172	630.09
785.353	638.28
785.535	595.28
785.716	562.51
785.897	585.04
786.079	578.89
786.26	556.36
786.441	654.67
786.623	621.9
786.804	542.03
786.985	539.98
787.167	597.32
787.348	562.51
787.529	578.89
787.71	544.08
787.891	554.32
788.073	578.89
788.254	527.69
788.435	572.75
788.616	519.5
788.797	486.73
788.978	458.06
789.159	431.44
789.34	521.55
789.522	470.35
789.703	472.4
789.884	503.12
790.065	478.54
790.246	523.6
790.427	490.83
790.607	499.02
790.788	496.97
790.969	456.01
791.15	447.82
791.331	458.06
791.512	458.06
791.693	378.19
791.874	447.82
792.054	458.06
792.235	451.92
792.416	478.54
792.597	415.06
792.778	476.49
792.958	509.26
793.139	458.06
793.32	410.96
793.5	400.72
793.681	470.35
793.862	345.42
794.042	417.1
794.223	390.48
794.404	433.49
794.584	390.48
794.765	406.86
794.945	357.71
795.126	437.58
795.306	413.01
795.487	343.38
795.667	378.19
795.848	435.53
796.028	413.01
796.209	398.67
796.389	413.01
796.57	429.39
796.75	359.76
796.93	355.66
797.111	378.19
797.291	402.77
797.471	419.15
797.652	288.08
797.832	302.42
798.012	410.96
798.192	408.91
798.373	425.29
798.553	283.98
798.733	333.14
798.913	312.66
799.093	329.04
799.274	316.75
799.454	396.62
799.634	331.09
799.814	288.08
799.994	232.79
800.174	388.43
800.354	367.95
800.534	351.57
800.714	255.31
800.894	218.45
801.074	296.27
801.254	269.65
801.434	312.66
801.614	341.33
801.794	298.32
801.974	662.86
802.154	347.47
802.334	394.58
802.514	245.07
802.693	333.14
802.873	240.98
803.053	322.9
803.233	347.47
803.413	224.59
803.592	318.8
803.772	294.22
803.952	261.46
804.131	249.17
804.311	318.8
804.491	294.22
804.67	277.84
804.85	296.27
805.03	329.04
805.209	308.56
805.389	240.98
805.568	251.22
805.748	275.79
805.928	216.4
806.107	298.32
806.287	298.32
806.466	316.75
806.646	204.11
806.825	283.98
807.004	294.22
807.184	337.23
807.363	331.09
807.543	238.93
807.722	220.5
807.901	269.65
808.081	236.88
808.26	206.16
808.439	247.12
808.619	277.84
808.798	169.3
808.977	257.36
809.156	263.51
809.336	275.79
809.515	245.07
809.694	210.26
809.873	263.51
810.052	169.3
810.231	253.27
810.411	216.4
810.59	263.51
810.769	232.79
810.948	230.74
811.127	232.79
811.306	247.12
811.485	183.63
811.664	269.65
811.843	306.51
812.022	257.36
812.201	243.03
812.38	181.59
812.559	204.11
812.737	204.11
812.916	234.83
813.095	234.83
813.274	193.87
813.453	306.51
813.632	265.55
813.811	195.92
813.989	159.06
814.168	234.83
814.347	193.87
814.526	245.07
814.704	116.05
814.883	206.16
815.062	171.35
815.24	154.96
815.419	146.77
815.598	261.46
815.776	210.26
815.955	138.58
816.133	152.91
816.312	185.68
816.49	173.39
816.669	277.84
816.847	132.44
817.026	220.5
817.204	195.92
817.383	138.58
817.561	132.44
817.74	267.6
817.918	191.83
818.097	136.53
818.275	212.31
818.453	208.21
818.632	195.92
818.81	167.25
818.988	191.83
819.167	130.39
819.345	200.02
819.523	163.15
819.701	224.59
819.879	118.1
820.058	114
820.236	163.15
820.414	161.11
820.592	183.63
820.77	138.58
820.948	159.06
821.127	173.39
821.305	187.73
821.483	181.59
821.661	195.92
821.839	179.54
822.017	136.53
822.195	111.96
822.373	130.39
822.551	150.87
822.729	214.35
822.907	146.77
823.085	212.31
823.262	136.53
823.44	154.96
823.618	230.74
823.796	138.58
823.974	175.44
824.152	173.39
824.329	85.33
824.507	181.59
824.685	218.45
824.863	183.63
825.04	179.54
825.218	114
825.396	118.1
825.574	148.82
825.751	138.58
825.929	169.3
826.107	124.24
826.284	220.5
826.462	128.34
826.639	206.16
826.817	103.76
826.994	154.96
827.172	116.05
827.349	218.45
827.527	140.63
827.704	187.73
827.882	95.57
828.059	136.53
828.237	122.2
828.414	146.77
828.591	175.44
828.769	124.24
828.946	130.39
829.124	157.01
829.301	109.91
829.478	114
829.655	165.2
829.833	111.96
830.01	126.29
830.187	140.63
830.364	120.15
830.542	120.15
830.719	173.39
830.896	142.68
831.073	111.96
831.25	99.67
831.427	179.54
831.604	85.33
831.782	81.24
831.959	120.15
832.136	179.54
832.313	179.54
832.49	48.47
832.667	79.19
832.844	42.32
833.021	171.35
833.198	107.86
833.374	105.81
833.551	101.72
833.728	134.48
833.905	95.57
834.082	71
834.259	171.35
834.436	157.01
834.612	56.66
834.789	142.68
834.966	54.61
835.143	79.19
835.319	62.8
835.496	163.15
835.673	124.24
835.85	99.67
836.026	124.24
836.203	159.06
836.38	93.52
836.556	114
836.733	71
836.909	120.15
837.086	87.38
837.262	101.72
837.439	38.23
837.616	126.29
837.792	130.39
837.968	136.53
838.145	79.19
838.321	148.82
838.498	111.96
838.674	91.48
838.851	138.58
839.027	114
839.203	52.56
839.38	71
839.556	23.89
839.732	68.95
839.909	27.99
840.085	105.81
840.261	54.61
840.437	89.43
840.614	114
840.79	81.24
840.966	81.24
841.142	128.34
841.318	122.2
841.494	136.53
841.671	93.52
841.847	64.85
842.023	77.14
842.199	159.06
842.375	114
842.551	81.24
842.727	56.66
842.903	111.96
843.079	77.14
843.255	38.23
843.431	64.85
843.607	126.29
843.783	66.9
843.959	103.76
844.134	138.58
844.31	62.8
844.486	19.8
844.662	27.99
844.838	83.28
845.013	134.48
845.189	25.94
845.365	30.04
845.541	105.81
845.716	128.34
845.892	118.1
846.068	71
846.244	1.37
846.419	89.43
846.595	89.43
846.77	109.91
846.946	75.09
847.122	54.61
847.297	44.37
847.473	23.89
847.648	79.19
847.824	64.85
847.999	19.8
848.175	95.57
848.35	83.28
848.526	114
848.701	11.61
848.876	144.72
849.052	120.15
849.227	87.38
849.403	36.18
849.578	58.71
849.753	38.23
849.929	95.57
850.104	-10.92
850.279	118.1
850.454	-0.68
850.63	87.38
850.805	93.52
850.98	81.24
851.155	128.34
851.33	68.95
851.505	130.39
851.681	62.8
851.856	48.47
852.031	62.8
852.206	75.09
852.381	87.38
852.556	64.85
852.731	99.67
852.906	107.86
853.081	46.42
853.256	85.33
853.431	34.13
853.606	120.15
853.781	73.04
853.956	44.37
854.131	73.04
854.305	68.95
854.48	64.85
854.655	89.43
854.83	34.13
855.005	44.37
855.18	36.18
855.354	75.09
855.529	128.34
855.704	11.61
855.879	-12.97
856.053	56.66
856.228	52.56
856.403	9.56
856.577	83.28
856.752	-29.35
856.926	56.66
857.101	15.7
857.276	23.89
857.45	44.37
857.625	136.53
857.799	114
857.974	73.04
858.148	21.85
858.323	42.32
858.497	75.09
858.672	38.23
858.846	81.24
859.02	-0.68
859.195	48.47
859.369	56.66
859.543	36.18
859.718	21.85
859.892	25.94
860.066	138.58
860.241	32.08
860.415	9.56
860.589	15.7
860.763	-4.78
860.938	32.08
861.112	27.99
861.286	5.46
861.46	60.76
861.634	19.8
861.808	71
861.982	56.66
862.157	62.8
862.331	-39.59
862.505	-53.93
862.679	73.04
862.853	60.76
863.027	60.76
863.201	11.61
863.375	3.41
863.549	111.96
863.722	-25.26
863.896	56.66
864.07	21.85
864.244	32.08
864.418	27.99
864.592	58.71
864.766	42.32
864.939	52.56
865.113	85.33
865.287	89.43
865.461	19.8
865.634	3.41
865.808	17.75
865.982	-12.97
866.156	77.14
866.329	-4.78
866.503	81.24
866.676	101.72
866.85	27.99
867.024	-17.07
867.197	-0.68
867.371	27.99
867.544	130.39
867.718	-15.02
867.891	85.33
868.065	-8.87
868.238	126.29
868.412	77.14
868.585	32.08
868.759	30.04
868.932	52.56
869.105	48.47
869.279	54.61
869.452	83.28
869.625	19.8
869.799	21.85
869.972	9.56
870.145	48.47
870.319	15.7
870.492	23.89
870.665	-10.92
870.838	50.52
871.011	15.7
871.185	62.8
871.358	5.46
871.531	21.85
871.704	48.47
871.877	21.85
872.05	-8.87
872.223	-0.68
872.396	40.28
872.569	38.23
872.742	54.61
872.915	46.42
873.088	17.75
873.261	19.8
873.434	40.28
873.607	40.28
873.78	48.47
873.953	-41.64
874.126	17.75
874.299	54.61
874.471	36.18
874.644	116.05
874.817	-0.68
874.99	93.52
875.163	25.94
875.335	-12.97
875.508	21.85
875.681	81.24
875.853	50.52
876.026	40.28
876.199	15.7
876.371	32.08
876.544	17.75
876.717	46.42
876.889	-29.35
877.062	34.13
877.234	3.41
877.407	32.08
877.579	3.41
877.752	54.61
877.924	99.67
878.097	25.94
878.269	25.94
878.442	-2.73
878.614	-10.92
878.786	42.32
878.959	71
879.131	23.89
879.303	23.89
879.476	-12.97
879.648	62.8
879.82	-21.16
879.993	27.99
880.165	40.28
880.337	36.18
880.509	27.99
880.681	-35.5
880.854	-0.68
881.026	64.85
881.198	64.85
881.37	-19.11
881.542	21.85
881.714	103.76
881.886	11.61
882.058	30.04
882.23	9.56
882.402	11.61
882.574	66.9
882.746	36.18
882.918	52.56
883.09	3.41
883.262	-15.02
883.434	5.46
883.606	15.7
883.778	-0.68
883.95	60.76
884.122	15.7
884.293	13.65
884.465	-21.16
884.637	73.04
884.809	-8.87
884.98	-4.78
885.152	-35.5
885.324	15.7
885.496	68.95
885.667	62.8
885.839	9.56
886.011	15.7
886.182	7.51
886.354	58.71
886.525	15.7
886.697	3.41
886.869	-35.5
887.04	36.18
887.212	89.43
887.383	9.56
887.555	11.61
887.726	85.33
887.897	36.18
888.069	46.42
888.24	50.52
888.412	3.41
888.583	23.89
888.754	60.76
888.926	40.28
889.097	-0.68
889.268	23.89
889.44	-4.78
889.611	-4.78
889.782	73.04
889.953	-0.68
890.125	77.14
890.296	27.99
890.467	38.23
890.638	21.85
890.809	40.28
890.98	64.85
891.151	77.14
891.323	9.56
891.494	11.61
891.665	42.32
891.836	-0.68
892.007	27.99
892.178	-21.16
892.349	21.85
892.52	46.42
892.691	11.61
892.862	27.99
893.032	3.41
893.203	27.99
893.374	87.38
893.545	60.76
893.716	7.51
893.887	3.41
894.057	3.41
894.228	9.56
894.399	54.61
894.57	30.04
894.74	36.18
894.911	-4.78
895.082	50.52
895.253	52.56
895.423	7.51
895.594	38.23
895.764	71
895.935	5.46
896.106	44.37
896.276	54.61
896.447	5.46
896.617	-27.31
896.788	19.8
896.958	-10.92
897.129	3.41
897.299	79.19
897.47	40.28
897.64	73.04
897.81	13.65
897.981	23.89
898.151	-43.69
898.322	50.52
898.492	15.7
898.662	25.94
898.832	-8.87
899.003	64.85
899.173	44.37
899.343	-70.31
899.513	7.51
