Data from USB4F104151__284__11-12-55-021.txt Node

Date: Wed Mar 12 11:12:55 EDT 2025
User: louis
Spectrometer: USB4F10415
Trigger mode: 4
Integration Time (sec): 2.000000E-2
Scans to average: 1
Electric dark correction enabled: true
Nonlinearity correction enabled: false
Boxcar width: 0
XAxis mode: Wavelengths
Number of Pixels in Spectrum: 3648
>>>>>Begin Spectral Data<<<<<
178.204	-101.03
178.424	-101.03
178.644	-101.03
178.864	-131.75
179.084	-55.98
179.304	-47.79
179.524	-58.03
179.744	-15.02
179.964	-17.07
180.184	-10.92
180.404	105.81
180.624	56.66
180.844	-51.88
181.064	-47.79
181.283	62.8
181.503	-31.4
181.723	54.61
181.943	-12.97
182.163	62.8
182.383	-10.92
182.602	11.61
182.822	32.08
183.042	-70.31
183.262	-43.69
183.482	-17.07
183.701	1.37
183.921	-8.87
184.141	-53.93
184.361	30.04
184.58	23.89
184.8	-49.83
185.02	-19.11
185.239	77.14
185.459	-105.13
185.679	-37.55
185.898	-29.35
186.118	54.61
186.338	21.84
186.557	-43.69
186.777	-35.5
186.997	17.75
187.216	32.08
187.436	83.28
187.655	-2.73
187.875	54.61
188.095	15.7
188.314	-6.83
188.534	15.7
188.753	-17.07
188.973	-15.02
189.192	75.09
189.412	17.75
189.631	-2.73
189.851	46.42
190.07	87.38
190.29	-31.4
190.509	-39.59
190.729	-19.11
190.948	40.28
191.168	138.58
191.387	-21.16
191.607	-15.02
191.826	-53.93
192.045	-12.97
192.265	-12.97
192.484	-35.5
192.704	71
192.923	-39.59
193.142	27.99
193.362	13.65
193.581	83.28
193.8	13.65
194.02	-12.97
194.239	-0.68
194.458	13.65
194.678	-6.83
194.897	25.94
195.116	-15.02
195.335	27.99
195.555	103.76
195.774	-10.92
195.993	-19.11
196.212	-23.21
196.432	85.33
196.651	-12.97
196.87	-55.98
197.089	77.14
197.308	-60.07
197.528	-15.02
197.747	25.94
197.966	32.08
198.185	-62.12
198.404	19.8
198.623	-39.59
198.842	109.91
199.062	-15.02
199.281	40.28
199.5	-31.4
199.719	25.94
199.938	5.46
200.157	23.89
200.376	13.65
200.595	-45.74
200.814	-8.87
201.033	-12.97
201.252	62.8
201.471	-8.87
201.69	19.8
201.909	71
202.128	-23.21
202.347	-45.74
202.566	19.8
202.785	-10.92
203.004	17.75
203.223	56.66
203.442	7.51
203.661	9.56
203.879	30.04
204.098	62.8
204.317	-23.21
204.536	-39.59
204.755	58.71
204.974	23.89
205.193	34.13
205.411	-10.92
205.63	11.61
205.849	-0.68
206.068	-31.4
206.287	23.89
206.505	-72.36
206.724	-39.59
206.943	3.41
207.162	62.8
207.381	-6.83
207.599	40.28
207.818	-8.87
208.037	11.61
208.255	1.37
208.474	-8.87
208.693	13.65
208.911	-19.11
209.13	83.28
209.349	54.61
209.567	99.67
209.786	50.52
210.005	-0.68
210.223	40.28
210.442	-66.22
210.661	1.37
210.879	32.08
211.098	-51.88
211.316	-4.78
211.535	48.47
211.753	-23.21
211.972	-0.68
212.191	-35.5
212.409	50.52
212.628	7.51
212.846	-35.5
213.065	5.46
213.283	60.76
213.502	-8.87
213.72	-27.31
213.938	5.46
214.157	-4.78
214.375	-2.73
214.594	-49.83
214.812	9.56
215.031	19.8
215.249	-35.5
215.467	54.61
215.686	17.75
215.904	9.56
216.122	9.56
216.341	-23.21
216.559	13.65
216.778	-35.5
216.996	3.41
217.214	11.61
217.432	-10.92
217.651	46.42
217.869	32.08
218.087	-2.73
218.306	66.9
218.524	3.41
218.742	36.18
218.96	-29.35
219.179	-27.31
219.397	-25.26
219.615	48.47
219.833	60.76
220.051	-19.11
220.27	30.04
220.488	-19.11
220.706	13.65
220.924	25.94
221.142	-64.17
221.36	-15.02
221.578	30.04
221.796	-2.73
222.015	64.85
222.233	9.56
222.451	34.13
222.669	-17.07
222.887	42.32
223.105	-15.02
223.323	52.56
223.541	-55.98
223.759	38.23
223.977	-2.73
224.195	-23.21
224.413	-2.73
224.631	60.76
224.849	5.46
225.067	7.51
225.285	58.71
225.503	-21.16
225.721	-53.93
225.939	27.99
226.157	-31.4
226.375	25.94
226.592	-53.93
226.81	21.84
227.028	1.37
227.246	17.75
227.464	71
227.682	42.32
227.9	-88.75
228.117	3.41
228.335	-0.68
228.553	23.89
228.771	25.94
228.989	1.37
229.206	17.75
229.424	44.37
229.642	9.56
229.86	-33.45
230.077	91.48
230.295	54.61
230.513	89.43
230.731	40.28
230.948	58.71
231.166	83.28
231.384	17.75
231.601	-45.74
231.819	73.04
232.037	-35.5
232.254	-62.12
232.472	36.18
232.689	-39.59
232.907	-19.11
233.125	-31.4
233.342	58.71
233.56	-90.79
233.777	-41.64
233.995	-41.64
234.213	71
234.43	-6.83
234.648	9.56
234.865	48.47
235.083	56.66
235.3	-19.11
235.518	11.61
235.735	13.65
235.953	103.76
236.17	-45.74
236.388	21.84
236.605	-6.83
236.822	-49.83
237.04	-0.68
237.257	91.48
237.475	-15.02
237.692	13.65
237.909	-47.79
238.127	-31.4
238.344	21.84
238.562	-0.68
238.779	-0.68
238.996	32.08
239.214	79.19
239.431	50.52
239.648	9.56
239.865	46.42
240.083	50.52
240.3	46.42
240.517	7.51
240.735	11.61
240.952	-0.68
241.169	91.48
241.386	-17.07
241.603	34.13
241.821	7.51
242.038	-21.16
242.255	-25.26
242.472	-0.68
242.689	17.75
242.907	60.76
243.124	17.75
243.341	13.65
243.558	64.85
243.775	-35.5
243.992	46.42
244.209	3.41
244.426	60.76
244.643	36.18
244.86	48.47
245.078	50.52
245.295	-8.87
245.512	19.8
245.729	-39.59
245.946	58.71
246.163	-39.59
246.38	3.41
246.597	25.94
246.814	5.46
247.031	21.84
247.248	38.23
247.464	58.71
247.681	34.13
247.898	62.8
248.115	73.04
248.332	-23.21
248.549	-68.27
248.766	46.42
248.983	13.65
249.2	-4.78
249.417	40.28
249.633	-4.78
249.85	66.9
250.067	7.51
250.284	79.19
250.501	95.57
250.717	13.65
250.934	56.66
251.151	-19.11
251.368	7.51
251.585	-45.74
251.801	-8.87
252.018	-17.07
252.235	23.89
252.451	-15.02
252.668	5.46
252.885	-35.5
253.102	32.08
253.318	-0.68
253.535	-10.92
253.752	1.37
253.968	-45.74
254.185	40.28
254.401	17.75
254.618	36.18
254.835	-37.55
255.051	89.43
255.268	68.95
255.484	27.99
255.701	-19.11
255.917	1.37
256.134	46.42
256.351	-2.73
256.567	23.89
256.784	-84.65
257	1.37
257.217	-6.83
257.433	36.18
257.65	-74.41
257.866	79.19
258.082	30.04
258.299	-23.21
258.515	21.84
258.732	50.52
258.948	83.28
259.165	25.94
259.381	56.66
259.597	66.9
259.814	48.47
260.03	54.61
260.246	-23.21
260.463	40.28
260.679	68.95
260.895	17.75
261.112	95.57
261.328	21.84
261.544	66.9
261.761	89.43
261.977	-23.21
262.193	-19.11
262.409	38.23
262.626	40.28
262.842	17.75
263.058	-33.45
263.274	73.04
263.49	-23.21
263.707	15.7
263.923	-10.92
264.139	9.56
264.355	-72.36
264.571	30.04
264.787	30.04
265.004	32.08
265.22	21.84
265.436	-10.92
265.652	13.65
265.868	54.61
266.084	9.56
266.3	85.33
266.516	-31.4
266.732	11.61
266.948	23.89
267.164	17.75
267.38	-8.87
267.596	19.8
267.812	32.08
268.028	7.51
268.244	-43.69
268.46	-6.83
268.676	-47.79
268.892	17.75
269.108	-15.02
269.324	30.04
269.54	42.32
269.756	32.08
269.972	23.89
270.188	48.47
270.403	5.46
270.619	34.13
270.835	9.56
271.051	1.37
271.267	-2.73
271.483	-0.68
271.698	48.47
271.914	75.09
272.13	38.23
272.346	21.84
272.562	62.8
272.777	7.51
272.993	3.41
273.209	42.32
273.425	9.56
273.64	-23.21
273.856	44.37
274.072	64.85
274.287	15.7
274.503	50.52
274.719	-0.68
274.934	38.23
275.15	9.56
275.366	-6.83
275.581	7.51
275.797	9.56
276.012	3.41
276.228	66.9
276.444	1.37
276.659	40.28
276.875	-92.84
277.09	48.47
277.306	23.89
277.521	40.28
277.737	77.14
277.952	-27.31
278.168	25.94
278.383	36.18
278.599	77.14
278.814	11.61
279.03	-4.78
279.245	34.13
279.461	9.56
279.676	-2.73
279.892	30.04
280.107	-76.46
280.322	-74.41
280.538	27.99
280.753	34.13
280.969	30.04
281.184	48.47
281.399	21.84
281.615	-27.31
281.83	-10.92
282.045	-23.21
282.26	-17.07
282.476	73.04
282.691	21.84
282.906	11.61
283.122	-58.03
283.337	-19.11
283.552	-2.73
283.767	17.75
283.983	17.75
284.198	-41.64
284.413	17.75
284.628	23.89
284.843	-33.45
285.058	48.47
285.274	-8.87
285.489	25.94
285.704	27.99
285.919	36.18
286.134	77.14
286.349	13.65
286.564	7.51
286.779	25.94
286.995	32.08
287.21	-0.68
287.425	27.99
287.64	42.32
287.855	62.8
288.07	-62.12
288.285	30.04
288.5	-15.02
288.715	-2.73
288.93	-6.83
289.145	17.75
289.36	58.71
289.575	-31.4
289.79	44.37
290.004	-6.83
290.219	54.61
290.434	66.9
290.649	54.61
290.864	19.8
291.079	42.32
291.294	23.89
291.509	-10.92
291.724	42.32
291.938	56.66
292.153	11.61
292.368	13.65
292.583	-66.22
292.798	30.04
293.012	64.85
293.227	-23.21
293.442	75.09
293.657	-4.78
293.871	75.09
294.086	93.52
294.301	36.18
294.516	21.84
294.73	21.84
294.945	-19.11
295.16	19.8
295.374	11.61
295.589	103.76
295.804	-8.87
296.018	52.56
296.233	-17.07
296.447	21.84
296.662	7.51
296.877	42.32
297.091	-33.45
297.306	13.65
297.52	-35.5
297.735	15.7
297.949	23.89
298.164	50.52
298.378	-49.83
298.593	-21.16
298.807	3.41
299.022	-51.88
299.236	46.42
299.451	34.13
299.665	36.18
299.88	-15.02
300.094	62.8
300.309	54.61
300.523	30.04
300.737	23.89
300.952	30.04
301.166	46.42
301.381	5.46
301.595	7.51
301.809	-2.73
302.024	-58.03
302.238	-2.73
302.452	3.41
302.667	50.52
302.881	-43.69
303.095	7.51
303.309	54.61
303.524	5.46
303.738	27.99
303.952	-17.07
304.166	71
304.381	-25.26
304.595	77.14
304.809	-31.4
305.023	-19.11
305.237	21.84
305.452	5.46
305.666	9.56
305.88	68.95
306.094	21.84
306.308	77.14
306.522	25.94
306.736	75.09
306.95	75.09
307.164	5.46
307.379	60.76
307.593	-23.21
307.807	11.61
308.021	21.84
308.235	44.37
308.449	56.66
308.663	87.38
308.877	7.51
309.091	-2.73
309.305	48.47
309.519	30.04
309.733	7.51
309.947	17.75
310.161	19.8
310.374	95.57
310.588	54.61
310.802	-27.31
311.016	11.61
311.23	68.95
311.444	-19.11
311.658	111.96
311.872	58.71
312.085	52.56
312.299	71
312.513	-12.97
312.727	58.71
312.941	58.71
313.154	13.65
313.368	-0.68
313.582	79.19
313.796	44.37
314.009	44.37
314.223	66.9
314.437	3.41
314.651	38.23
314.864	-15.02
315.078	-8.87
315.292	5.46
315.505	25.94
315.719	-0.68
315.933	17.75
316.146	-64.17
316.36	-15.02
316.573	21.84
316.787	30.04
317.001	25.94
317.214	21.84
317.428	15.7
317.641	56.66
317.855	-55.98
318.068	30.04
318.282	3.41
318.495	120.15
318.709	17.75
318.922	17.75
319.136	101.72
319.349	64.85
319.563	-39.59
319.776	75.09
319.99	-15.02
320.203	7.51
320.417	73.04
320.63	50.52
320.843	77.14
321.057	11.61
321.27	111.96
321.483	15.7
321.697	85.33
321.91	-4.78
322.124	-15.02
322.337	42.32
322.55	52.56
322.763	27.99
322.977	-17.07
323.19	-53.93
323.403	15.7
323.617	46.42
323.83	27.99
324.043	-4.78
324.256	9.56
324.469	-0.68
324.683	17.75
324.896	-4.78
325.109	58.71
325.322	15.7
325.535	-2.73
325.748	23.89
325.962	62.8
326.175	60.76
326.388	34.13
326.601	44.37
326.814	34.13
327.027	-21.16
327.24	32.08
327.453	-0.68
327.666	13.65
327.879	48.47
328.092	48.47
328.305	17.75
328.518	-6.83
328.731	-41.64
328.944	-19.11
329.157	66.9
329.37	-6.83
329.583	30.04
329.796	79.19
330.009	7.51
330.222	25.94
330.435	7.51
330.648	38.23
330.861	36.18
331.073	30.04
331.286	17.75
331.499	25.94
331.712	-31.4
331.925	23.89
332.138	21.84
332.35	128.34
332.563	-21.16
332.776	66.9
332.989	9.56
333.202	21.84
333.414	52.56
333.627	52.56
333.84	-27.31
334.053	32.08
334.265	52.56
334.478	38.23
334.691	7.51
334.903	7.51
335.116	40.28
335.329	40.28
335.541	30.04
335.754	-2.73
335.966	5.46
336.179	30.04
336.392	42.32
336.604	91.48
336.817	36.18
337.029	30.04
337.242	-10.92
337.454	27.99
337.667	36.18
337.88	68.95
338.092	19.8
338.305	42.32
338.517	11.61
338.729	79.19
338.942	73.04
339.154	30.04
339.367	50.52
339.579	118.1
339.792	58.71
340.004	91.48
340.217	-23.21
340.429	52.56
340.641	-31.4
340.854	11.61
341.066	23.89
341.278	-23.21
341.491	50.52
341.703	77.14
341.915	42.32
342.128	9.56
342.34	5.46
342.552	9.56
342.764	97.62
342.977	-35.5
343.189	38.23
343.401	-12.97
343.613	62.8
343.826	11.61
344.038	-4.78
344.25	-35.5
344.462	42.32
344.674	-51.88
344.886	25.94
345.099	46.42
345.311	64.85
345.523	25.94
345.735	21.84
345.947	3.41
346.159	-33.45
346.371	9.56
346.583	1.37
346.795	13.65
347.007	13.65
347.219	34.13
347.431	30.04
347.643	46.42
347.855	19.8
348.067	50.52
348.279	-21.16
348.491	54.61
348.703	-43.69
348.915	-2.73
349.127	-17.07
349.339	40.28
349.551	23.89
349.763	17.75
349.975	83.28
350.187	126.29
350.399	32.08
350.61	-4.78
350.822	-43.69
351.034	42.32
351.246	30.04
351.458	11.61
351.669	9.56
351.881	64.85
352.093	21.84
352.305	5.46
352.517	30.04
352.728	36.18
352.94	34.13
353.152	1.37
353.363	34.13
353.575	13.65
353.787	83.28
353.999	85.33
354.21	44.37
354.422	-29.35
354.633	9.56
354.845	13.65
355.057	38.23
355.268	15.7
355.48	-17.07
355.692	81.24
355.903	50.52
356.115	23.89
356.326	-19.11
356.538	46.42
356.749	11.61
356.961	87.38
357.172	7.51
357.384	48.47
357.595	83.28
357.807	-10.92
358.018	1.37
358.23	13.65
358.441	62.8
358.653	95.57
358.864	-10.92
359.075	-15.02
359.287	9.56
359.498	66.9
359.709	-64.17
359.921	46.42
360.132	27.99
360.344	1.37
360.555	46.42
360.766	120.15
360.977	107.86
361.189	42.32
361.4	13.65
361.611	-6.83
361.823	105.81
362.034	17.75
362.245	36.18
362.456	-37.55
362.667	-23.21
362.879	85.33
363.09	95.57
363.301	54.61
363.512	-70.31
363.723	42.32
363.935	-0.68
364.146	60.76
364.357	89.43
364.568	95.57
364.779	46.42
364.99	30.04
365.201	52.56
365.412	83.28
365.623	60.76
365.834	60.76
366.045	71
366.256	-37.55
366.467	36.18
366.678	13.65
366.889	-33.45
367.1	85.33
367.311	56.66
367.522	13.65
367.733	40.28
367.944	42.32
368.155	17.75
368.366	89.43
368.577	15.7
368.788	97.62
368.999	30.04
369.209	73.04
369.42	73.04
369.631	132.44
369.842	54.61
370.053	44.37
370.264	56.66
370.474	44.37
370.685	15.7
370.896	13.65
371.107	56.66
371.317	38.23
371.528	46.42
371.739	30.04
371.95	58.71
372.16	27.99
372.371	3.41
372.582	40.28
372.792	95.57
373.003	-2.73
373.214	71
373.424	60.76
373.635	3.41
373.846	50.52
374.056	30.04
374.267	79.19
374.477	40.28
374.688	19.8
374.898	58.71
375.109	44.37
375.319	71
375.53	25.94
375.74	38.23
375.951	-10.92
376.161	79.19
376.372	27.99
376.582	-6.83
376.793	34.13
377.003	40.28
377.214	30.04
377.424	3.41
377.635	-21.16
377.845	71
378.055	52.56
378.266	54.61
378.476	-29.35
378.686	21.84
378.897	38.23
379.107	42.32
379.317	42.32
379.528	79.19
379.738	56.66
379.948	17.75
380.158	42.32
380.369	-19.11
380.579	85.33
380.789	42.32
380.999	77.14
381.21	38.23
381.42	27.99
381.63	3.41
381.84	93.52
382.05	56.66
382.261	50.52
382.471	97.62
382.681	17.75
382.891	56.66
383.101	32.08
383.311	-8.87
383.521	9.56
383.731	25.94
383.941	101.72
384.151	89.43
384.361	36.18
384.571	44.37
384.781	-55.98
384.991	-8.87
385.201	73.04
385.411	3.41
385.621	50.52
385.831	91.48
386.041	27.99
386.251	66.9
386.461	23.89
386.671	-6.83
386.881	99.67
387.091	66.9
387.301	97.62
387.511	42.32
387.72	58.71
387.93	105.81
388.14	58.71
388.35	56.66
388.56	60.76
388.769	30.04
388.979	77.14
389.189	32.08
389.399	99.67
389.609	27.99
389.818	111.96
390.028	64.85
390.238	75.09
390.447	71
390.657	58.71
390.867	48.47
391.076	17.75
391.286	5.46
391.496	52.56
391.705	38.23
391.915	40.28
392.125	99.67
392.334	97.62
392.544	66.9
392.753	52.56
392.963	36.18
393.172	91.48
393.382	75.09
393.591	60.76
393.801	95.57
394.01	97.62
394.22	103.76
394.429	75.09
394.639	46.42
394.848	83.28
395.058	77.14
395.267	52.56
395.477	126.29
395.686	32.08
395.895	105.81
396.105	44.37
396.314	62.8
396.524	144.72
396.733	1.37
396.942	130.39
397.152	21.84
397.361	99.67
397.57	116.05
397.78	142.68
397.989	89.43
398.198	99.67
398.407	46.42
398.617	179.54
398.826	71
399.035	154.96
399.244	132.44
399.453	150.87
399.663	128.34
399.872	99.67
400.081	148.82
400.29	146.77
400.499	75.09
400.708	128.34
400.917	107.86
401.127	197.97
401.336	91.48
401.545	118.1
401.754	66.9
401.963	120.15
402.172	142.68
402.381	150.87
402.59	177.49
402.799	99.67
403.008	154.96
403.217	210.26
403.426	128.34
403.635	136.53
403.844	142.68
404.053	173.39
404.262	122.2
404.471	189.78
404.68	140.63
404.888	142.68
405.097	107.86
405.306	224.59
405.515	214.35
405.724	154.96
405.933	210.26
406.142	255.31
406.35	181.59
406.559	185.68
406.768	226.64
406.977	224.59
407.185	253.27
407.394	216.4
407.603	173.39
407.812	226.64
408.02	363.86
408.229	238.93
408.438	226.64
408.646	320.85
408.855	288.08
409.064	296.27
409.272	353.62
409.481	333.14
409.69	374.1
409.898	267.6
410.107	410.96
410.315	355.66
410.524	243.03
410.733	363.86
410.941	410.96
411.15	472.4
411.358	408.91
411.567	453.97
411.775	464.21
411.984	509.26
412.192	533.84
412.401	507.21
412.609	628.04
412.818	560.46
413.026	560.46
413.234	615.76
413.443	648.52
413.651	603.47
413.86	675.15
414.068	675.15
414.276	718.15
414.485	701.77
414.693	793.93
414.901	875.85
415.11	820.55
415.318	830.79
415.526	896.33
415.734	888.14
415.943	902.47
416.151	963.91
416.359	982.34
416.567	1017.16
416.776	1119.56
416.984	1121.6
417.192	1078.6
417.4	1144.13
417.608	1164.61
417.817	1187.14
418.025	1226.05
418.233	1396.03
418.441	1365.31
418.649	1422.66
418.857	1594.68
419.065	1518.91
419.273	1520.96
419.481	1611.07
419.689	1738.04
419.897	1799.48
420.105	1697.08
420.313	1881.4
420.521	2018.61
420.729	1887.54
420.937	2018.61
421.145	2147.64
421.353	2151.73
421.561	2334
421.769	2401.58
421.977	2491.7
422.185	2575.66
422.393	2628.91
422.601	2678.06
422.809	2727.21
423.017	2790.7
423.224	2753.84
423.432	3020.07
423.64	2938.15
423.848	3351.84
424.056	3208.48
424.263	3444
424.471	3501.34
424.679	3472.67
424.887	3646.75
425.094	3847.45
425.302	3722.52
425.51	4019.48
425.718	4123.93
425.925	4142.36
426.133	4175.13
426.341	4447.51
426.548	4746.51
426.756	4642.06
426.964	4789.52
427.171	5096.71
427.379	5113.1
427.586	5287.17
427.794	5457.15
428.001	5811.45
428.209	5922.04
428.417	5975.29
428.624	6227.19
428.832	6249.72
429.039	6227.19
429.247	6208.76
429.454	6810.86
429.662	7247.08
429.869	6763.76
430.076	7365.86
430.284	6939.88
430.491	7355.62
430.699	7732.45
430.906	7802.08
431.114	7937.24
431.321	8312.02
431.528	8398.04
431.736	8871.12
431.943	9344.2
432.15	9098.44
432.358	9084.11
432.565	9659.59
432.772	9495.75
432.979	10249.4
433.187	10368.18
433.394	10085.56
433.601	11052.2
433.808	10939.57
434.016	11033.77
434.223	11345.06
434.43	11998.37
434.637	11922.59
434.844	12448.92
435.052	12960.91
435.259	12733.59
435.466	13026.45
435.673	12870.8
435.88	13587.59
436.087	14179.45
436.294	14251.13
436.501	14122.11
436.708	14201.98
436.915	14937.2
437.122	15311.98
437.329	15279.21
437.537	15752.29
437.743	15977.57
437.95	15967.33
438.157	16778.33
438.364	17357.9
438.571	17345.61
438.778	17482.83
438.985	19125.3
439.192	18302.01
439.399	19086.39
439.606	18443.32
439.813	19702.82
440.02	20812.82
440.227	20263.97
440.433	19866.66
440.64	20978.71
440.847	20636.7
441.054	21251.09
441.261	22948.86
441.467	22137.86
441.674	22731.77
441.881	23321.59
442.088	23600.11
442.294	23499.76
442.501	23800.81
442.708	24439.78
442.914	25377.75
443.121	26258.37
443.328	25838.54
443.534	27642.8
443.741	26559.42
443.948	26569.66
444.154	28341.16
444.361	28107.69
444.568	27952.04
444.774	28113.83
444.981	28853.15
445.187	29225.88
445.394	30583.68
445.6	30649.22
445.807	33084.25
446.013	31742.83
446.22	32435.05
446.426	32963.42
446.633	33903.44
446.839	34822.98
447.046	33375.06
447.252	35558.2
447.459	35101.5
447.665	35531.58
447.871	36872.99
448.078	38335.24
448.284	36498.22
448.491	37702.42
448.697	39101.18
448.903	39594.75
449.11	39607.03
449.316	39103.23
449.522	39873.27
449.728	40717.03
449.935	40995.56
450.141	40864.49
450.347	41628.38
450.553	40346.35
450.76	41186.02
450.966	42224.34
451.172	41573.08
451.378	42908.36
451.584	41691.87
451.791	43162.31
451.997	42724.04
452.203	43506.37
452.409	43436.73
452.615	43000.52
452.821	41781.98
453.027	41368.29
453.233	43285.18
453.44	41851.61
453.646	42169.04
453.852	42199.76
454.058	42928.84
454.264	41423.58
454.47	42375.89
454.676	41339.61
454.882	42846.92
455.088	38976.26
455.294	39705.34
455.5	40143.6
455.705	40684.26
455.911	38963.97
456.117	38787.85
456.323	38112.02
456.529	36055.86
456.735	37571.35
456.941	36381.48
457.147	36039.47
457.352	34921.28
457.558	34394.95
457.764	34493.26
457.97	33653.59
458.176	33313.62
458.381	33270.62
458.587	31626.1
458.793	31546.23
458.999	30247.82
459.204	31974.25
459.41	31224.7
459.616	29111.19
459.821	29211.54
460.027	28928.92
460.233	28398.5
460.438	27315.12
460.644	27245.49
460.85	26151.88
461.055	25873.35
461.261	25662.41
461.466	23454.7
461.672	23344.11
461.878	24996.82
462.083	23016.44
462.289	22723.58
462.494	22469.63
462.7	21267.47
462.905	20763.67
463.111	21599.24
463.316	21459.98
463.522	21138.45
463.727	21187.6
463.932	21279.76
464.138	21130.26
464.343	21027.86
464.549	20263.97
464.754	21195.79
464.959	21163.03
465.165	20585.5
465.37	20091.94
465.575	19493.93
465.781	20306.98
465.986	20376.61
466.191	19430.44
466.397	19270.7
466.602	18367.55
466.807	18910.26
467.012	18816.05
467.218	19090.48
467.423	18631.74
467.628	18699.32
467.833	19342.38
468.038	18867.25
468.244	18166.85
468.449	18983.99
468.654	18281.53
468.859	18095.17
469.064	18064.45
469.269	17388.62
469.474	17581.13
469.679	17943.62
469.885	17493.07
470.09	17665.1
470.295	17556.55
470.5	16915.54
470.705	17204.3
470.91	16456.79
471.115	16512.09
471.32	16970.83
471.525	16653.4
471.73	16401.5
471.935	16376.92
472.139	15740.01
472.344	15983.71
472.549	15590.5
472.754	15686.76
472.959	15410.28
473.164	14892.15
473.369	14773.36
473.574	15336.56
473.778	15225.97
473.983	15008.88
474.188	15168.62
474.393	14363.77
474.598	14156.93
474.802	14320.76
475.007	14140.54
475.212	14097.53
475.417	13546.63
475.621	13501.58
475.826	13843.59
476.031	13386.89
476.235	13466.76
476.44	13528.2
476.645	13163.66
476.849	13014.16
477.054	12942.48
477.259	12518.55
477.463	12792.98
477.668	12393.62
477.872	12657.81
478.077	12514.45
478.282	12164.25
478.486	12043.42
478.691	12035.23
478.895	11850.91
479.1	11701.41
479.304	11838.62
479.509	11474.09
479.713	11873.44
479.918	11488.42
480.122	11343.02
480.326	11353.26
480.531	11443.37
480.735	11218.09
480.94	11230.38
481.144	11553.96
481.348	11109.55
481.553	11029.68
481.757	10980.53
481.961	10996.91
482.166	11113.64
482.37	11050.16
482.574	11019.44
482.778	10914.99
482.983	11304.1
483.187	11111.6
483.391	11121.84
483.595	11029.68
483.8	10796.21
484.004	10966.19
484.208	10949.81
484.412	11003.05
484.616	11093.16
484.821	11062.44
485.025	10685.62
485.229	10968.24
485.433	10849.46
485.637	10902.7
485.841	10749.11
486.045	10859.7
486.249	10704.05
486.453	10675.38
486.657	11099.31
486.861	11066.54
487.065	10702
487.269	10921.13
487.473	10767.54
487.677	10769.58
487.881	11132.08
488.085	10914.99
488.289	10847.41
488.493	10806.45
488.697	11039.92
488.901	11021.49
489.105	10964.14
489.309	11013.29
489.512	11115.69
489.716	10861.74
489.92	11054.25
490.124	10986.67
490.328	11263.15
490.531	11039.92
490.735	11166.89
490.939	11093.16
491.143	11218.09
491.346	11132.08
491.55	11492.52
491.754	11392.17
491.958	11527.33
492.161	11433.13
492.365	11379.88
492.569	11349.16
492.772	11480.23
492.976	11594.92
493.18	11725.99
493.383	11793.57
493.587	11627.68
493.79	11984.03
493.994	11869.34
494.197	12059.81
494.401	12227.74
494.605	12080.28
494.808	12346.52
495.012	12422.3
495.215	12412.06
495.419	12477.59
495.622	12334.23
495.825	12776.59
496.029	12584.09
496.232	13089.93
496.436	12803.22
496.639	13390.98
496.843	12948.62
497.046	13325.45
497.249	13354.12
497.453	13479.05
497.656	13702.28
497.859	13663.36
498.063	14085.25
498.266	14240.89
498.469	14060.67
498.673	14247.04
498.876	14486.65
499.079	14333.05
499.282	14621.81
499.485	14814.32
499.689	14812.28
499.892	15127.66
500.095	15391.85
500.298	15776.87
500.501	15555.69
500.705	16008.29
500.908	16098.4
501.111	16159.84
501.314	16256.09
501.517	16428.12
501.72	16960.59
501.923	16714.84
502.126	17069.14
502.329	17534.03
502.532	17308.75
502.735	17697.86
502.938	17806.41
503.141	17712.2
503.344	18277.44
503.547	18373.69
503.75	18543.67
503.953	18895.92
504.156	19074.1
504.359	19203.12
504.562	19258.42
504.765	19545.13
504.968	19702.82
505.17	19924.01
505.373	19915.81
505.576	20753.43
505.779	20614.17
505.982	20671.51
506.185	21228.56
506.387	20956.18
506.59	21255.18
506.793	21781.51
506.996	21668.87
507.198	22455.29
507.401	22047.75
507.604	22397.95
507.807	22584.32
508.009	23149.56
508.212	23223.28
508.415	23376.88
508.617	23718.89
508.82	23911.4
509.022	23651.31
509.225	24591.33
509.428	24605.66
509.63	24269.79
509.833	24638.43
510.035	25347.03
510.238	25250.77
510.44	25658.32
510.643	26053.58
510.845	26358.72
511.048	25961.42
511.25	26344.39
511.453	26465.22
511.655	27583.41
511.858	27149.24
512.06	27356.08
512.262	27888.56
512.465	27786.16
512.667	28445.6
512.87	28734.37
513.072	28445.6
513.274	29373.33
513.477	29518.74
513.679	29563.79
513.881	30215.05
514.084	30274.44
514.286	30233.48
514.488	30376.84
514.69	31382.39
514.893	31284.09
515.095	31069.05
515.297	31632.24
515.499	31710.07
515.701	31845.23
515.904	32349.03
516.106	32445.29
516.308	33028.96
516.51	33172.32
516.712	33301.34
516.914	33712.98
517.116	34059.09
517.318	34130.76
517.52	34364.23
517.722	34497.35
517.925	35121.98
518.127	35248.96
518.329	35908.4
518.531	35220.28
518.733	35980.08
518.935	36100.91
519.136	36416.3
519.338	37133.09
519.54	36862.75
519.742	37591.83
519.944	37610.26
520.146	38202.13
520.348	38224.65
520.55	38253.33
520.752	38382.35
520.954	39072.51
521.155	38652.68
521.357	39256.83
521.559	39654.14
521.761	39770.87
521.963	40307.44
522.164	40821.48
522.366	40356.59
522.568	40663.78
522.77	41048.8
522.971	41458.4
523.173	41392.86
523.375	42076.88
523.576	41884.37
523.778	41419.49
523.98	42447.57
524.181	42408.65
524.383	42871.5
524.584	43117.25
524.786	42926.79
524.988	42789.58
525.189	43332.29
525.391	43807.42
525.592	43870.9
525.794	43956.92
525.995	43969.21
526.197	43889.34
526.398	44145.33
526.6	44747.43
526.801	44589.74
527.003	44874.41
527.204	44980.9
527.406	45533.85
527.607	45247.14
527.808	45652.64
528.01	44749.48
528.211	45503.14
528.412	46043.8
528.614	45822.62
528.815	45922.97
529.016	45832.86
529.218	45417.12
529.419	45943.45
529.62	46164.63
529.822	45675.16
530.023	45892.25
530.224	46236.31
530.425	46207.64
530.626	46371.47
530.828	46013.08
531.029	47016.58
531.23	46416.53
531.431	46721.68
531.632	46482.06
531.833	46650
532.035	46848.65
532.236	46779.02
532.437	46807.69
532.638	46713.48
532.839	47155.85
533.04	47153.8
533.241	46676.62
533.442	47471.23
533.643	47303.3
533.844	46934.67
534.045	47254.15
534.246	46656.14
534.447	47520.38
534.648	46959.24
534.849	47409.79
535.05	46865.03
535.251	47012.49
535.451	46852.75
535.652	47796.86
535.853	46936.71
536.054	47454.85
536.255	47274.63
536.456	46717.58
536.657	47291.01
536.857	47336.07
537.058	47268.48
537.259	47786.62
537.46	47118.98
537.66	47106.69
537.861	47196.81
538.062	46994.06
538.263	47098.5
538.463	47127.17
538.664	46994.06
538.865	47155.85
539.065	47524.48
539.266	46957.19
539.466	47358.59
539.667	46701.2
539.868	47641.21
540.068	46736.01
540.269	47075.97
540.469	47383.17
540.67	46908.04
540.87	47141.51
541.071	47334.02
541.271	46641.81
541.472	47407.75
541.672	46740.11
541.873	46910.09
542.073	46410.39
542.274	47334.02
542.474	46781.07
542.675	46619.28
542.875	47262.34
543.075	46795.4
543.276	46693
543.476	47239.81
543.676	47045.26
543.877	47043.21
544.077	46733.96
544.277	46942.86
544.478	46465.68
544.678	46774.92
544.878	47155.85
545.078	46914.19
545.279	46455.44
545.479	46656.14
545.679	46795.4
545.879	46772.88
546.079	46412.43
546.28	46942.86
546.48	46301.84
546.68	46566.03
546.88	46852.75
547.08	46981.77
547.28	46752.4
547.48	46297.75
547.68	46615.18
547.88	46271.12
548.081	46699.15
548.281	46531.22
548.481	46316.18
548.681	46858.89
548.881	46168.72
549.081	46750.35
549.28	46185.11
549.48	46604.94
549.68	46445.2
549.88	46826.12
550.08	46119.57
550.28	46459.54
550.48	46295.7
550.68	46514.83
550.88	46299.79
551.08	46269.08
551.279	46070.42
551.479	46086.81
551.679	46117.53
551.879	46103.19
552.079	46809.74
552.278	46258.84
552.478	46359.19
552.678	46113.43
552.878	46738.06
553.077	45935.26
553.277	45583.01
553.477	46541.46
553.676	45812.38
553.876	46006.94
554.076	45927.06
554.275	45970.07
554.475	45607.58
554.674	45906.58
554.874	45947.54
555.074	45519.52
555.273	46004.89
555.473	45904.54
555.672	45154.98
555.872	45591.2
556.071	45603.49
556.271	46107.29
556.47	45558.43
556.67	45046.44
556.869	45212.32
557.068	45472.42
557.268	45238.95
557.467	45296.29
557.667	45197.99
557.866	45298.34
558.065	45392.54
558.265	44929.7
558.464	44911.27
558.663	45353.63
558.863	44438.19
559.062	45804.19
559.261	44935.85
559.461	44917.42
559.66	44720.81
559.859	44952.23
560.058	44554.93
560.258	44616.36
560.457	44298.93
560.656	45173.41
560.855	44235.44
561.054	44710.57
561.253	44380.85
561.453	44335.79
561.652	44772.01
561.851	44536.49
562.05	44423.86
562.249	44028.6
562.448	44649.13
562.647	44300.98
562.846	44460.72
563.045	44237.49
563.244	43606.72
563.443	44475.05
563.642	43469.5
563.841	43674.3
564.04	43496.13
564.239	43725.5
564.438	43350.72
564.637	43651.77
564.836	43256.51
565.035	43158.21
565.234	43563.71
565.432	43074.24
565.631	43006.66
565.83	43360.96
566.029	43000.52
566.228	42822.34
566.427	42971.85
566.625	42891.97
566.824	42091.22
567.023	43170.5
567.222	42222.29
567.42	42900.17
567.619	42232.53
567.818	42195.67
568.016	42328.78
568.215	42965.7
568.414	42142.42
568.612	42437.33
568.811	42212.05
569.01	42011.35
569.208	41556.7
569.407	41941.72
569.605	41263.84
569.804	41943.77
570.002	41468.64
570.201	41777.88
570.4	41368.29
570.598	41257.7
570.797	41081.57
570.995	41138.91
571.193	40927.97
571.392	41405.15
571.59	40434.41
571.789	40714.98
571.987	41034.47
572.186	40676.07
572.384	40766.18
572.582	40477.42
572.781	40956.64
572.979	40293.1
573.177	40964.84
573.376	40446.7
573.574	39940.85
573.772	40350.45
573.971	40145.65
574.169	40243.95
574.367	39535.35
574.565	39865.08
574.763	39672.57
574.962	39629.56
575.16	39449.34
575.358	39613.18
575.556	39062.27
575.754	39826.17
575.952	39189.25
576.151	39652.09
576.349	38929.16
576.547	38841.09
576.745	39111.42
576.943	38777.61
577.141	38632.2
577.339	38697.73
577.537	38648.58
577.735	38415.12
577.933	38224.65
578.131	38570.76
578.329	38173.45
578.527	37980.95
578.725	38148.88
578.923	38271.76
579.121	37563.16
579.319	37823.25
579.516	38146.83
579.714	37665.56
579.912	37595.93
580.11	37382.94
580.308	37427.99
580.506	37395.23
580.704	36901.67
580.901	36928.29
581.099	37059.36
581.297	37088.03
581.495	36979.49
581.692	37149.47
581.89	36809.51
582.088	36834.08
582.285	36739.88
582.483	36975.39
582.681	36627.24
582.878	36576.04
583.076	35969.84
583.274	36420.39
583.471	35758.9
583.669	36074.29
583.866	35552.05
584.064	35935.03
584.262	35664.69
584.459	36260.65
584.657	35291.96
584.854	35494.71
585.052	34933.57
585.249	35367.74
585.447	35461.94
585.644	35011.39
585.841	35113.79
586.039	35314.49
586.236	34673.48
586.434	34560.84
586.631	34442.06
586.828	34904.9
587.026	34792.26
587.223	34599.75
587.42	34493.26
587.618	34493.26
587.815	34028.37
588.012	34157.39
588.21	33880.91
588.407	34415.43
588.604	34077.52
588.801	33717.07
588.999	33891.15
589.196	33624.92
589.393	33672.02
589.59	33307.48
589.787	33235.8
589.984	33157.98
590.182	33110.88
590.379	33239.9
590.576	32613.22
590.773	32869.22
590.97	32664.42
591.167	33039.2
591.364	32607.08
591.561	32803.68
591.758	32592.74
591.955	32435.05
592.152	32496.49
592.349	32103.28
592.546	32054.12
592.743	32234.35
592.94	31619.95
593.137	31908.72
593.334	31791.98
593.531	31533.94
593.727	31650.67
593.924	31593.33
594.121	31134.59
594.318	31439.73
594.515	30892.93
594.712	31185.79
594.908	31044.48
595.105	31073.15
595.302	30892.93
595.499	30907.26
595.696	30931.84
595.892	30473.09
596.089	30598.02
596.286	30552.96
596.482	30403.46
596.679	30217.1
596.876	30282.63
597.072	30200.71
597.269	30571.39
597.466	30000.01
597.662	29909.9
597.859	29686.67
598.055	29932.43
598.252	29555.6
598.448	29537.17
598.645	29510.55
598.841	29055.9
599.038	29379.48
599.234	29647.76
599.431	29207.45
599.627	28828.57
599.824	29328.28
600.02	28859.29
600.217	28896.16
600.413	28918.68
600.609	28586.91
600.806	28494.75
601.002	28513.19
601.198	28441.51
601.395	28283.81
601.591	28214.18
601.787	28363.68
601.984	28251.05
602.18	28418.98
602.376	27853.74
602.572	27782.06
602.769	28029.87
602.965	27802.54
603.161	27808.68
603.357	27229.11
603.553	27454.39
603.75	27468.72
603.946	27257.78
604.142	27415.47
604.338	26926.01
604.534	27083.7
604.73	26932.15
604.926	26475.46
605.122	27184.05
605.318	26655.68
605.514	26504.13
605.71	26594.24
605.906	26438.59
606.102	26180.55
606.298	26323.91
606.494	26403.78
606.69	26387.39
606.886	26438.59
607.082	26029
607.278	26270.66
607.474	25902.03
607.67	26139.59
607.866	25469.9
608.062	26125.25
608.257	25670.61
608.453	25744.33
608.649	25949.13
608.845	25435.09
609.041	25879.5
609.236	25646.03
609.432	25566.16
609.628	25521.1
609.824	25433.04
610.019	25091.03
610.215	25670.61
610.411	25551.82
610.606	25062.36
610.802	25420.75
610.998	25050.07
611.193	25050.07
611.389	24851.42
611.584	25000.92
611.78	24691.68
611.976	25000.92
612.171	24914.91
612.367	24787.93
612.562	24603.61
612.758	24282.08
612.953	24658.91
613.149	24607.71
613.344	24386.53
613.539	24738.78
613.735	24490.98
613.93	24404.96
614.126	24548.32
614.321	24914.91
614.517	24466.4
614.712	24034.28
614.907	23919.59
615.103	24441.82
615.298	23899.11
615.493	24316.9
615.688	23854.06
615.884	24419.3
616.079	23809
616.274	24011.75
616.47	23931.88
616.665	23831.53
616.86	23837.67
617.055	23927.78
617.25	23606.25
617.445	23755.75
617.641	23219.19
617.836	23448.56
618.031	23067.64
618.226	23477.23
618.421	23118.84
618.616	23159.8
618.811	22844.41
619.006	23366.64
619.201	22858.74
619.396	22957.05
619.591	22488.06
619.786	22737.91
619.981	22152.2
620.176	22774.78
620.371	22395.9
620.566	22535.17
620.761	22309.89
620.956	22457.34
621.151	21799.94
621.346	22340.61
621.541	21664.78
621.735	22066.18
621.93	21558.28
622.125	21754.89
622.32	20880.41
622.515	21539.85
622.709	21105.68
622.904	21384.21
623.099	21201.94
623.294	21074.96
623.488	20812.82
623.683	21308.43
623.878	20567.07
624.072	20659.23
624.267	20524.06
624.462	20313.12
624.656	20388.89
624.851	20386.85
625.046	19987.49
625.24	19915.81
625.435	20061.22
625.629	19864.61
625.824	19799.08
626.018	19848.23
626.213	19164.21
626.407	19584.04
626.602	19201.07
626.796	19262.51
626.991	19342.38
627.185	19131.44
627.38	18654.26
627.574	18504.76
627.768	18691.13
627.963	18721.85
628.157	18482.24
628.352	18330.69
628.546	18175.04
628.74	18154.56
628.935	18099.27
629.129	17921.09
629.323	17503.31
629.517	17939.52
629.712	17486.92
629.906	17716.29
630.1	17452.11
630.294	17271.89
630.489	17288.27
630.683	17302.61
630.877	17017.94
631.071	16962.64
631.265	17185.87
631.459	16591.96
631.653	16620.63
631.848	16899.16
632.042	16763.99
632.236	16800.85
632.43	16235.61
632.624	16303.2
632.818	16034.91
633.012	15981.67
633.206	16137.31
633.4	16176.22
633.594	15813.73
633.788	15893.6
633.982	15766.63
634.176	15713.38
634.369	15488.1
634.563	15621.22
634.757	15477.87
634.951	15395.95
635.145	15438.95
635.339	15340.65
635.533	15144.05
635.726	14933.11
635.92	15230.06
636.114	15039.6
636.308	14742.64
636.501	14961.78
636.695	14883.95
636.889	14388.35
637.083	14517.37
637.276	14443.64
637.47	14158.97
637.664	14447.74
637.857	14431.35
638.051	14177.4
638.244	13982.85
638.438	14156.93
638.632	13980.8
638.825	13845.63
639.019	13741.19
639.212	13804.67
639.406	13505.67
639.599	13599.88
639.793	13716.61
639.986	13538.44
640.18	13503.62
640.373	13417.61
640.567	13302.92
640.76	13251.72
640.954	13139.08
641.147	12797.07
641.34	13005.97
641.534	13005.97
641.727	12690.58
641.92	13024.4
642.114	12549.27
642.307	12752.02
642.5	12713.11
642.694	12403.86
642.887	12516.5
643.08	12444.82
643.273	12364.95
643.467	12510.36
643.66	12229.79
643.853	12188.83
644.046	12068
644.239	12117.15
644.432	11943.07
644.626	12033.18
644.819	11824.29
645.012	11703.46
645.205	11744.42
645.398	11744.42
645.591	11513
645.784	11623.59
645.977	11582.63
646.17	11469.99
646.363	11254.95
646.556	11109.55
646.749	11220.14
646.942	11332.78
647.135	10992.81
647.328	11158.7
647.521	11021.49
647.714	10884.27
647.907	11039.92
648.099	10818.74
648.292	10745.01
648.485	10847.41
648.678	10591.41
648.871	10562.74
649.064	10554.55
649.256	10489.01
649.449	10575.03
649.642	10509.49
649.835	10273.98
650.027	10362.04
650.22	10253.5
650.413	10157.24
650.605	10144.95
650.798	10220.73
650.991	9987.26
651.183	10046.65
651.376	9948.35
651.568	10089.66
651.761	9821.38
651.954	9850.05
652.146	9962.69
652.339	9721.02
652.531	9874.62
652.724	9684.16
652.916	9346.25
653.109	9409.73
653.301	9614.53
653.494	9229.51
653.686	9311.43
653.879	9331.91
654.071	9192.65
654.263	9116.87
654.456	8994
654.648	9249.99
654.84	8918.22
655.033	9057.48
655.225	9028.81
655.417	9030.86
655.61	8957.13
655.802	8891.6
655.994	8713.42
656.186	8701.14
656.379	8656.08
656.571	8631.51
656.763	8516.82
656.955	8621.27
657.148	8490.2
657.34	8492.24
657.532	8377.56
657.724	8428.76
657.916	8303.83
658.108	8256.73
658.3	8180.95
658.492	8217.82
658.684	8037.59
658.876	8105.18
659.068	8131.8
659.26	8154.33
659.452	8025.31
659.644	8051.93
659.836	7804.13
660.028	7826.65
660.22	7730.4
660.412	7779.55
660.604	7640.29
660.796	7722.21
660.988	7679.2
661.18	7650.53
661.372	7472.36
661.563	7681.25
661.755	7599.33
661.947	7513.31
662.139	7347.43
662.331	7316.71
662.522	7146.73
662.714	7294.18
662.906	7238.89
663.097	7417.06
663.289	7075.05
663.481	7042.28
663.673	7130.34
663.864	7208.17
664.056	7173.35
664.247	7034.09
664.439	6948.08
664.631	7068.91
664.822	6894.83
665.014	6986.99
665.205	6903.02
665.397	6763.76
665.588	6827.25
665.78	6718.7
665.971	6741.23
666.163	6733.04
666.354	6565.11
666.546	6749.42
666.737	6528.24
666.929	6462.71
667.12	6571.25
667.311	6466.8
667.503	6333.68
667.694	6571.25
667.885	6413.56
668.077	6280.44
668.268	6300.92
668.459	6356.21
668.651	6278.39
668.842	6255.86
669.033	6227.19
669.224	6165.75
669.416	6317.3
669.607	5991.67
669.798	6038.78
669.989	6194.42
670.18	6200.57
670.371	6110.46
670.563	5862.65
670.754	5936.38
670.945	5903.61
671.136	6008.06
671.327	5776.64
671.518	5836.03
671.709	5887.23
671.9	5743.87
672.091	5743.87
672.282	5766.4
672.473	5838.08
672.664	5776.64
672.855	5752.06
673.046	5547.26
673.237	5711.1
673.428	5645.57
673.619	5537.02
673.809	5448.96
674	5661.95
674.191	5534.98
674.382	5410.05
674.573	5412.1
674.764	5534.98
674.954	5444.87
675.145	5326.08
675.336	5297.41
675.527	5440.77
675.717	5512.45
675.908	5207.3
676.099	5465.35
676.289	5143.81
676.48	5227.78
676.671	5145.86
676.861	5195.01
677.052	5164.29
677.243	4990.22
677.433	5012.74
677.624	5158.15
677.814	5018.89
678.005	5057.8
678.195	5029.13
678.386	5096.71
678.576	5033.22
678.767	5121.29
678.957	4967.69
679.148	4998.41
679.338	5090.57
679.529	4861.2
679.719	4728.08
679.909	4916.49
680.1	4783.37
680.29	4936.97
680.481	4896.01
680.671	4631.82
680.861	4703.5
681.052	4658.45
681.242	4685.07
681.432	4861.2
681.622	4623.63
681.813	4660.49
682.003	4654.35
682.193	4791.56
682.383	4807.95
682.573	4793.61
682.764	4521.23
682.954	4601.1
683.144	4562.19
683.334	4703.5
683.524	4529.42
683.714	4611.34
683.904	4549.9
684.094	4701.45
684.284	4627.73
684.474	4502.8
684.664	4482.32
684.854	4519.18
685.044	4394.26
685.234	4535.57
685.424	4291.86
685.614	4478.22
685.804	4384.02
685.994	4318.48
686.184	4267.28
686.374	4308.24
686.564	4314.39
686.753	4130.07
686.943	4228.37
687.133	4291.86
687.323	4295.96
687.513	4293.91
687.702	4152.6
687.892	4199.7
688.082	4275.48
688.272	4001.05
688.461	4140.31
688.651	4046.1
688.841	4046.1
689.03	4076.82
689.22	4007.19
689.41	3878.17
689.599	3960.09
689.789	4060.44
689.979	4046.1
690.168	3951.9
690.358	3939.61
690.547	3837.21
690.737	3867.93
690.926	3906.84
691.116	3732.76
691.305	3702.04
691.495	3775.77
691.684	3763.48
691.874	3730.72
692.063	3755.29
692.252	3626.27
692.442	3759.39
692.631	3665.18
692.82	3530.02
693.01	3609.89
693.199	3591.45
693.388	3597.6
693.578	3630.37
693.767	3525.92
693.956	3517.73
694.146	3562.78
694.335	3525.92
694.524	3437.86
694.713	3403.04
694.902	3616.03
695.092	3480.86
695.281	3411.23
695.47	3392.8
695.659	3263.78
695.848	3343.65
696.037	3335.46
696.226	3517.73
696.415	3175.72
696.604	3380.51
696.793	3253.54
696.982	3339.55
697.171	3384.61
697.36	3355.94
697.549	3280.16
697.738	3208.48
697.927	3157.29
698.116	3216.68
698.305	3310.88
698.494	3276.07
698.683	3265.83
698.872	3136.81
699.061	3097.89
699.25	3183.91
699.438	3245.35
699.627	3122.47
699.816	3284.26
700.005	3061.03
700.193	3192.1
700.382	3128.61
700.571	3032.36
700.76	3022.12
700.948	3001.64
701.137	3071.27
701.326	3048.74
701.514	2856.23
701.703	3149.09
701.892	3063.08
702.08	3005.74
702.269	3071.27
702.457	2975.02
702.646	2899.24
702.834	2962.73
703.023	2925.86
703.212	2964.78
703.4	2948.39
703.589	2952.49
703.777	2962.73
703.965	2837.8
704.154	2860.33
704.342	2932.01
704.531	2833.71
704.719	2966.82
704.907	2956.58
705.096	2729.26
705.284	2946.34
705.472	2940.2
705.661	2862.38
705.849	2997.54
706.037	2727.21
706.226	2798.89
706.414	2860.33
706.602	2800.94
706.79	2854.19
706.979	2932.01
707.167	2942.25
707.355	2737.45
707.543	2854.19
707.731	2784.55
707.919	2733.36
708.107	2805.03
708.296	2710.83
708.484	2762.03
708.672	2827.56
708.86	2749.74
709.048	2753.84
709.236	2866.47
709.424	2733.36
709.612	2739.5
709.8	2749.74
709.988	2663.72
710.176	2661.68
710.364	2786.6
710.551	2647.34
710.739	2637.1
710.927	2727.21
711.115	2786.6
711.303	2671.92
711.491	2637.1
711.679	2714.92
711.866	2592.05
712.054	2680.11
712.242	2770.22
712.43	2792.75
712.617	2692.4
712.805	2655.53
712.993	2739.5
713.181	2575.66
713.368	2544.94
713.556	2714.92
713.744	2450.74
713.931	2714.92
714.119	2630.96
714.306	2641.2
714.494	2573.61
714.682	2651.44
714.869	2567.47
715.057	2641.2
715.244	2551.09
715.432	2540.85
715.619	2600.24
715.807	2673.96
715.994	2463.02
716.182	2530.61
716.369	2604.33
716.556	2442.54
716.744	2608.43
716.931	2532.65
717.119	2594.09
717.306	2635.05
717.493	2620.72
717.681	2608.43
717.868	2665.77
718.055	2534.7
718.242	2594.09
718.43	2690.35
718.617	2510.13
718.804	2561.33
718.991	2454.83
719.179	2561.33
719.366	2536.75
719.553	2536.75
719.74	2520.37
719.927	2592.05
720.114	2661.68
720.301	2555.18
720.488	2610.48
720.676	2581.81
720.863	2522.41
721.05	2739.5
721.237	2575.66
721.424	2592.05
721.611	2555.18
721.798	2645.29
721.985	2618.67
722.172	2575.66
722.358	2479.41
722.545	2553.13
722.732	2508.08
722.919	2491.7
723.106	2546.99
723.293	2538.8
723.48	2577.71
723.667	2401.58
723.853	2463.02
724.04	2469.17
724.227	2526.51
724.414	2567.47
724.6	2489.65
724.787	2559.28
724.974	2516.27
725.161	2598.19
725.347	2530.61
725.534	2409.78
725.72	2440.5
725.907	2536.75
726.094	2534.7
726.28	2368.82
726.467	2481.46
726.653	2479.41
726.84	2424.11
727.027	2534.7
727.213	2444.59
727.4	2506.03
727.586	2428.21
727.773	2508.08
727.959	2590
728.145	2524.46
728.332	2458.93
728.518	2606.38
728.705	2622.77
728.891	2499.89
729.077	2467.12
729.264	2446.64
729.45	2508.08
729.636	2479.41
729.823	2407.73
730.009	2553.13
730.195	2506.03
730.382	2592.05
730.568	2448.69
730.754	2448.69
730.94	2485.55
731.126	2454.83
731.313	2446.64
731.499	2460.98
731.685	2463.02
731.871	2528.56
732.057	2546.99
732.243	2442.54
732.429	2522.41
732.615	2493.74
732.801	2485.55
732.987	2489.65
733.173	2487.6
733.359	2487.6
733.545	2469.17
733.731	2516.27
733.917	2446.64
734.103	2475.31
734.289	2514.22
734.475	2401.58
734.661	2549.04
734.847	2463.02
735.033	2581.81
735.219	2503.98
735.404	2389.3
735.59	2311.47
735.776	2387.25
735.962	2426.16
736.148	2358.58
736.333	2317.62
736.519	2420.02
736.705	2465.07
736.89	2460.98
737.076	2409.78
737.262	2325.81
737.447	2463.02
737.633	2438.45
737.819	2481.46
738.004	2368.82
738.19	2264.37
738.375	2405.68
738.561	2372.91
738.747	2268.47
738.932	2383.15
739.118	2334
739.303	2356.53
739.489	2389.3
739.674	2319.67
739.859	2413.87
740.045	2450.74
740.23	2307.38
740.416	2225.46
740.601	2311.47
740.786	2252.08
740.972	2301.23
741.157	2299.19
741.342	2243.89
741.528	2334
741.713	2260.27
741.898	2278.71
742.084	2274.61
742.269	2213.17
742.454	2233.65
742.639	2231.6
742.824	2221.36
743.01	2288.95
743.195	2293.04
743.38	2284.85
743.565	2166.07
743.75	2217.27
743.935	2194.74
744.12	2192.69
744.305	2178.36
744.49	2204.98
744.675	2159.92
744.86	2153.78
745.045	2137.4
745.23	2100.53
745.415	2157.88
745.6	2143.54
745.785	2194.74
745.97	2043.19
746.155	2094.39
746.34	2192.69
746.525	2090.29
746.71	2143.54
746.895	1901.88
747.079	2055.48
747.264	2020.66
747.449	2082.1
747.634	1979.7
747.819	2078.01
748.003	2061.62
748.188	1979.7
748.373	1914.17
748.557	1989.94
748.742	2008.37
748.927	1932.6
749.111	1897.78
749.296	1977.66
749.481	1897.78
749.665	1953.08
749.85	1928.5
750.034	1979.7
750.219	1813.82
750.404	1957.18
750.588	1842.49
750.773	1760.57
750.957	1877.3
751.141	1830.2
751.326	1926.46
751.51	1822.01
751.695	1789.24
751.879	1877.3
752.064	1791.29
752.248	1754.43
752.432	1680.7
752.617	1807.67
752.801	1664.32
752.985	1752.38
753.17	1674.56
753.354	1666.36
753.538	1643.84
753.722	1602.88
753.907	1727.8
754.091	1684.8
754.275	1613.12
754.459	1711.42
754.643	1623.36
754.828	1629.5
755.012	1553.73
755.196	1615.16
755.38	1574.21
755.564	1592.64
755.748	1547.58
755.932	1553.73
756.116	1574.21
756.3	1584.45
756.484	1486.14
756.668	1510.72
756.852	1477.95
757.036	1510.72
757.22	1441.09
757.404	1408.32
757.588	1461.57
757.772	1498.43
757.956	1408.32
758.14	1459.52
758.323	1430.85
758.507	1375.55
758.691	1398.08
758.875	1379.65
759.059	1393.98
759.242	1373.5
759.426	1398.08
759.61	1357.12
759.794	1326.4
759.977	1293.63
760.161	1377.6
760.345	1383.74
760.528	1236.29
760.712	1269.06
760.895	1334.59
761.079	1377.6
761.263	1242.43
761.446	1271.11
761.63	1262.91
761.813	1344.83
761.997	1305.92
762.18	1150.28
762.364	1291.59
762.547	1238.34
762.731	1201.47
762.914	1232.19
763.098	1195.33
763.281	1207.62
763.464	1205.57
763.648	1228.1
763.831	1275.2
764.015	1156.42
764.198	1203.52
764.381	1178.95
764.564	1164.61
764.748	1258.82
764.931	1279.3
765.114	1121.6
765.297	1291.59
765.481	1113.41
765.664	1099.08
765.847	1099.08
766.03	1172.8
766.213	1135.94
766.397	1148.23
766.58	1144.13
766.763	1152.32
766.946	1185.09
767.129	1166.66
767.312	1041.73
767.495	1021.25
767.678	1090.88
767.861	1125.7
768.044	1082.69
768.227	1056.07
768.41	1062.21
768.593	1092.93
768.776	1037.64
768.959	1037.64
769.142	1064.26
769.324	1041.73
769.507	1031.49
769.69	1101.12
769.873	998.73
770.056	1013.06
770.239	1039.69
770.421	1101.12
770.604	1004.87
770.787	1064.26
770.97	1056.07
771.152	980.29
771.335	951.62
771.518	957.77
771.7	1015.11
771.883	935.24
772.066	939.33
772.248	988.49
772.431	1031.49
772.613	1004.87
772.796	1043.78
772.978	980.29
773.161	916.81
773.343	974.15
773.526	949.57
773.708	941.38
773.891	968.01
774.073	898.38
774.256	925
774.438	1002.82
774.621	888.14
774.803	937.29
774.985	925
775.168	879.94
775.35	836.94
775.532	884.04
775.715	830.79
775.897	828.74
776.079	757.07
776.261	847.18
776.444	908.62
776.626	806.22
776.808	914.76
776.99	830.79
777.173	927.05
777.355	861.51
777.537	847.18
777.719	841.03
777.901	843.08
778.083	816.46
778.265	832.84
778.447	761.16
778.629	716.11
778.811	791.88
778.993	861.51
779.175	763.21
779.357	787.79
779.539	814.41
779.721	806.22
779.903	662.86
780.085	746.83
780.267	611.66
780.449	757.07
780.631	767.31
780.812	646.48
780.994	697.67
781.176	650.57
781.358	638.28
781.54	671.05
781.721	695.63
781.903	720.2
782.085	628.04
782.267	666.96
782.448	630.09
782.63	597.32
782.812	673.1
782.993	603.47
783.175	544.08
783.357	660.81
783.538	603.47
783.72	646.48
783.901	564.56
784.083	617.8
784.264	521.55
784.446	521.55
784.627	605.52
784.809	537.93
784.99	576.84
785.172	542.03
785.353	597.32
785.535	521.55
785.716	623.95
785.897	615.76
786.079	537.93
786.26	572.75
786.441	564.56
786.623	572.75
786.804	511.31
786.985	480.59
787.167	560.46
787.348	501.07
787.529	587.08
787.71	531.79
787.891	574.8
788.073	529.74
788.254	476.49
788.435	529.74
788.616	503.12
788.797	419.15
788.978	523.6
789.159	519.5
789.34	458.06
789.522	447.82
789.703	550.22
789.884	517.45
790.065	505.17
790.246	572.75
790.427	462.16
790.607	505.17
790.788	462.16
790.969	388.43
791.15	367.95
791.331	404.82
791.512	431.44
791.693	453.97
791.874	433.49
792.054	402.77
792.235	464.21
792.416	320.85
792.597	431.44
792.778	396.62
792.958	470.35
793.139	374.1
793.32	376.14
793.5	365.9
793.681	419.15
793.862	361.81
794.042	329.04
794.223	378.19
794.404	400.72
794.584	347.47
794.765	326.99
794.945	410.96
795.126	382.29
795.306	347.47
795.487	294.22
795.667	326.99
795.848	341.33
796.028	273.75
796.209	390.48
796.389	400.72
796.57	341.33
796.75	382.29
796.93	386.38
797.111	277.84
797.291	341.33
797.471	376.14
797.652	247.12
797.832	349.52
798.012	337.23
798.192	351.57
798.373	234.83
798.553	302.42
798.733	333.14
798.913	240.98
799.093	363.86
799.274	394.58
799.454	341.33
799.634	384.34
799.814	400.72
799.994	300.37
800.174	302.42
800.354	339.28
800.534	302.42
800.714	296.27
800.894	329.04
801.074	255.31
801.254	232.79
801.434	357.71
801.614	279.89
801.794	238.93
801.974	646.48
802.154	300.37
802.334	236.88
802.514	281.94
802.693	238.93
802.873	304.46
803.053	255.31
803.233	310.61
803.413	269.65
803.592	263.51
803.772	247.12
803.952	240.98
804.131	202.07
804.311	234.83
804.491	345.42
804.67	210.26
804.85	232.79
805.03	271.7
805.209	335.18
805.389	204.11
805.568	216.4
805.748	269.65
805.928	300.37
806.107	247.12
806.287	261.46
806.466	312.66
806.646	189.78
806.825	197.97
807.004	210.26
807.184	259.41
807.363	185.68
807.543	157.01
807.722	265.55
807.901	187.73
808.081	259.41
808.26	240.98
808.439	232.79
808.619	167.25
808.798	195.92
808.977	324.94
809.156	281.94
809.336	228.69
809.515	245.07
809.694	193.87
809.873	247.12
810.052	210.26
810.231	247.12
810.411	114
810.59	220.5
810.769	173.39
810.948	228.69
811.127	177.49
811.306	243.03
811.485	197.97
811.664	187.73
811.843	245.07
812.022	122.2
812.201	161.11
812.38	191.83
812.559	138.58
812.737	228.69
812.916	189.78
813.095	218.45
813.274	204.11
813.453	165.2
813.632	107.86
813.811	185.68
813.989	161.11
814.168	146.77
814.347	146.77
814.526	163.15
814.704	144.72
814.883	165.2
815.062	148.82
815.24	177.49
815.419	157.01
815.598	165.2
815.776	193.87
815.955	175.44
816.133	140.63
816.312	126.29
816.49	173.39
816.669	218.45
816.847	126.29
817.026	195.92
817.204	154.96
817.383	177.49
817.561	128.34
817.74	152.91
817.918	191.83
818.097	210.26
818.275	206.16
818.453	208.21
818.632	132.44
818.81	132.44
818.988	105.81
819.167	140.63
819.345	163.15
819.523	177.49
819.701	134.48
819.879	140.63
820.058	93.52
820.236	159.06
820.414	95.57
820.592	105.81
820.77	116.05
820.948	206.16
821.127	138.58
821.305	109.91
821.483	77.14
821.661	175.44
821.839	181.59
822.017	144.72
822.195	81.24
822.373	173.39
822.551	118.1
822.729	130.39
822.907	103.76
823.085	175.44
823.262	193.87
823.44	152.91
823.618	105.81
823.796	116.05
823.974	140.63
824.152	40.28
824.329	99.67
824.507	116.05
824.685	116.05
824.863	122.2
825.04	120.15
825.218	116.05
825.396	105.81
825.574	169.3
825.751	144.72
825.929	169.3
826.107	107.86
826.284	87.38
826.462	101.72
826.639	95.57
826.817	62.8
826.994	64.85
827.172	93.52
827.349	93.52
827.527	136.53
827.704	66.9
827.882	89.43
828.059	93.52
828.237	144.72
828.414	124.24
828.591	91.48
828.769	85.33
828.946	58.71
829.124	144.72
829.301	60.76
829.478	97.62
829.655	120.15
829.833	38.23
830.01	118.1
830.187	109.91
830.364	56.66
830.542	120.15
830.719	81.24
830.896	116.05
831.073	87.38
831.25	142.68
831.427	75.09
831.604	42.32
831.782	56.66
831.959	128.34
832.136	-4.78
832.313	99.67
832.49	64.85
832.667	175.44
832.844	56.66
833.021	68.95
833.198	116.05
833.374	89.43
833.551	77.14
833.728	85.33
833.905	54.61
834.082	64.85
834.259	11.61
834.436	71
834.612	107.86
834.789	120.15
834.966	17.75
835.143	83.28
835.319	140.63
835.496	93.52
835.673	34.13
835.85	140.63
836.026	60.76
836.203	116.05
836.38	128.34
836.556	3.41
836.733	30.04
836.909	89.43
837.086	15.7
837.262	89.43
837.439	58.71
837.616	40.28
837.792	161.11
837.968	99.67
838.145	77.14
838.321	50.52
838.498	68.95
838.674	27.99
838.851	103.76
839.027	27.99
839.203	-19.11
839.38	101.72
839.556	64.85
839.732	79.19
839.909	38.23
840.085	25.94
840.261	17.75
840.437	109.91
840.614	21.84
840.79	118.1
840.966	75.09
841.142	99.67
841.318	107.86
841.494	21.84
841.671	40.28
841.847	54.61
842.023	56.66
842.199	68.95
842.375	81.24
842.551	79.19
842.727	19.8
842.903	120.15
843.079	5.46
843.255	95.57
843.431	89.43
843.607	60.76
843.783	21.84
843.959	87.38
844.134	64.85
844.31	99.67
844.486	34.13
844.662	44.37
844.838	9.56
845.013	50.52
845.189	34.13
845.365	23.89
845.541	-58.03
845.716	75.09
845.892	50.52
846.068	118.1
846.244	62.8
846.419	81.24
846.595	7.51
846.77	23.89
846.946	13.65
847.122	36.18
847.297	21.84
847.473	64.85
847.648	11.61
847.824	15.7
847.999	30.04
848.175	75.09
848.35	13.65
848.526	91.48
848.701	116.05
848.876	30.04
849.052	32.08
849.227	38.23
849.403	40.28
849.578	66.9
849.753	34.13
849.929	54.61
850.104	-23.21
850.279	-10.92
850.454	-0.68
850.63	66.9
850.805	-2.73
850.98	3.41
851.155	1.37
851.33	38.23
851.505	38.23
851.681	83.28
851.856	-12.97
852.031	77.14
852.206	62.8
852.381	52.56
852.556	13.65
852.731	30.04
852.906	91.48
853.081	-2.73
853.256	93.52
853.431	7.51
853.606	-0.68
853.781	36.18
853.956	25.94
854.131	34.13
854.305	62.8
854.48	48.47
854.655	-51.88
854.83	56.66
855.005	68.95
855.18	-19.11
855.354	25.94
855.529	11.61
855.704	13.65
855.879	7.51
856.053	-43.69
856.228	50.52
856.403	68.95
856.577	66.9
856.752	-2.73
856.926	11.61
857.101	75.09
857.276	87.38
857.45	17.75
857.625	15.7
857.799	19.8
857.974	38.23
858.148	-12.97
858.323	68.95
858.497	58.71
858.672	95.57
858.846	19.8
859.02	-27.31
859.195	-64.17
859.369	9.56
859.543	-55.98
859.718	1.37
859.892	-4.78
860.066	-47.79
860.241	15.7
860.415	-4.78
860.589	30.04
860.763	11.61
860.938	79.19
861.112	21.84
861.286	32.08
861.46	95.57
861.634	46.42
861.808	11.61
861.982	71
862.157	58.71
862.331	-15.02
862.505	23.89
862.679	-10.92
862.853	48.47
863.027	56.66
863.201	81.24
863.375	17.75
863.549	60.76
863.722	32.08
863.896	73.04
864.07	19.8
864.244	-29.35
864.418	-15.02
864.592	11.61
864.766	5.46
864.939	83.28
865.113	-105.13
865.287	46.42
865.461	19.8
865.634	-21.16
865.808	27.99
865.982	42.32
866.156	13.65
866.329	19.8
866.503	-72.36
866.676	64.85
866.85	30.04
867.024	38.23
867.197	-8.87
867.371	87.38
867.544	58.71
867.718	-51.88
867.891	34.13
868.065	25.94
868.238	-0.68
868.412	77.14
868.585	48.47
868.759	60.76
868.932	-23.21
869.105	44.37
869.279	11.61
869.452	1.37
869.625	7.51
869.799	17.75
869.972	-35.5
870.145	17.75
870.319	40.28
870.492	-39.59
870.665	-12.97
870.838	46.42
871.011	-49.83
871.185	11.61
871.358	-2.73
871.531	32.08
871.704	-45.74
871.877	54.61
872.05	23.89
872.223	66.9
872.396	23.89
872.569	38.23
872.742	23.89
872.915	-23.21
873.088	1.37
873.261	19.8
873.434	46.42
873.607	50.52
873.78	-15.02
873.953	25.94
874.126	-21.16
874.299	1.37
874.471	-10.92
874.644	23.89
874.817	7.51
874.99	71
875.163	-70.31
875.335	34.13
875.508	36.18
875.681	66.9
875.853	114
876.026	-8.87
876.199	-37.55
876.371	13.65
876.544	-27.31
876.717	9.56
876.889	-25.26
877.062	54.61
877.234	17.75
877.407	-10.92
877.579	-2.73
877.752	42.32
877.924	-17.07
878.097	36.18
878.269	1.37
878.442	13.65
878.614	-23.21
878.786	23.89
878.959	-8.87
879.131	89.43
879.303	-35.5
879.476	75.09
879.648	-33.45
879.82	62.8
879.993	-31.4
880.165	3.41
880.337	15.7
880.509	15.7
880.681	-72.36
880.854	36.18
881.026	99.67
881.198	36.18
881.37	21.84
881.542	-23.21
881.714	30.04
881.886	13.65
882.058	17.75
882.23	-31.4
882.402	-113.32
882.574	56.66
882.746	42.32
882.918	9.56
883.09	30.04
883.262	25.94
883.434	17.75
883.606	17.75
883.778	1.37
883.95	23.89
884.122	54.61
884.293	-45.74
884.465	-6.83
884.637	46.42
884.809	-41.64
884.98	21.84
885.152	-49.83
885.324	56.66
885.496	-10.92
885.667	5.46
885.839	46.42
886.011	38.23
886.182	50.52
886.354	17.75
886.525	1.37
886.697	58.71
886.869	89.43
887.04	5.46
887.212	-10.92
887.383	-25.26
887.555	-33.45
887.726	-27.31
887.897	-33.45
888.069	-25.26
888.24	-55.98
888.412	-0.68
888.583	-19.11
888.754	7.51
888.926	-27.31
889.097	13.65
889.268	3.41
889.44	-0.68
889.611	-53.93
889.782	17.75
889.953	48.47
890.125	-10.92
890.296	-4.78
890.467	66.9
890.638	-27.31
890.809	48.47
890.98	-55.98
891.151	11.61
891.323	9.56
891.494	15.7
891.665	11.61
891.836	36.18
892.007	-29.35
892.178	15.7
892.349	-76.46
892.52	-23.21
892.691	30.04
892.862	-45.74
893.032	-4.78
893.203	25.94
893.374	-45.74
893.545	34.13
893.716	-96.94
893.887	34.13
894.057	-17.07
894.228	-72.36
894.399	17.75
894.57	52.56
894.74	-4.78
894.911	-6.83
895.082	23.89
895.253	-15.02
895.423	-27.31
895.594	7.51
895.764	71
895.935	-60.07
896.106	79.19
896.276	3.41
896.447	-53.93
896.617	-64.17
896.788	-33.45
896.958	-64.17
897.129	-72.36
897.299	15.7
897.47	-27.31
897.64	1.37
897.81	-60.07
897.981	23.89
898.151	-15.02
898.322	60.76
898.492	21.84
898.662	-6.83
898.832	-23.21
899.003	54.61
899.173	38.23
899.343	-15.02
899.513	66.9
