Data from USB4F104151__296__11-13-08-539.txt Node

Date: Wed Mar 12 11:13:08 EDT 2025
User: louis
Spectrometer: USB4F10415
Trigger mode: 4
Integration Time (sec): 2.000000E-2
Scans to average: 1
Electric dark correction enabled: true
Nonlinearity correction enabled: false
Boxcar width: 0
XAxis mode: Wavelengths
Number of Pixels in Spectrum: 3648
>>>>>Begin Spectral Data<<<<<
178.204	-99.84
178.424	-99.84
178.644	-99.84
178.864	-73.21
179.084	-81.41
179.304	8.7
179.524	45.57
179.744	-48.64
179.964	0.51
180.184	-48.64
180.404	-9.73
180.624	31.23
180.844	66.05
181.064	35.33
181.283	-5.63
181.503	-50.69
181.723	-24.06
181.943	49.66
182.163	10.75
182.383	10.75
182.602	-17.92
182.822	59.9
183.042	29.18
183.262	-5.63
183.482	-36.35
183.701	6.66
183.921	-34.3
184.141	-19.97
184.361	23.04
184.58	72.19
184.8	31.23
185.02	45.57
185.239	25.09
185.459	20.99
185.679	29.18
185.898	23.04
186.118	102.91
186.338	-42.5
186.557	31.23
186.777	6.66
186.997	14.85
187.216	55.81
187.436	61.95
187.655	-46.59
187.875	66.05
188.095	-40.45
188.314	-13.82
188.534	29.18
188.753	35.33
188.973	-1.54
189.192	27.14
189.412	10.75
189.631	43.52
189.851	33.28
190.07	43.52
190.29	20.99
190.509	-36.35
190.729	18.94
190.948	107.01
191.168	80.38
191.387	76.29
191.607	-7.68
191.826	47.62
192.045	-30.21
192.265	47.62
192.484	-26.11
192.704	-11.78
192.923	-38.4
193.142	18.94
193.362	10.75
193.581	35.33
193.8	-19.97
194.02	53.76
194.239	31.23
194.458	-24.06
194.678	-58.88
194.897	0.51
195.116	-1.54
195.335	25.09
195.555	-38.4
195.774	-38.4
195.993	-44.54
196.212	45.57
196.432	53.76
196.651	-1.54
196.87	23.04
197.089	39.42
197.308	12.8
197.528	-30.21
197.747	10.75
197.966	53.76
198.185	-73.21
198.404	-22.02
198.623	88.57
198.842	-5.63
199.062	33.28
199.281	45.57
199.5	-30.21
199.719	111.1
199.938	76.29
200.157	31.23
200.376	2.56
200.595	49.66
200.814	-19.97
201.033	-11.78
201.252	29.18
201.471	49.66
201.69	-3.58
201.909	37.38
202.128	37.38
202.347	6.66
202.566	14.85
202.785	-17.92
203.004	18.94
203.223	14.85
203.442	-44.54
203.661	35.33
203.879	23.04
204.098	-13.82
204.317	-28.16
204.536	68.09
204.755	55.81
204.974	72.19
205.193	41.47
205.411	33.28
205.63	33.28
205.849	51.71
206.068	14.85
206.287	-5.63
206.505	49.66
206.724	20.99
206.943	12.8
207.162	53.76
207.381	-1.54
207.599	61.95
207.818	29.18
208.037	-44.54
208.255	23.04
208.474	35.33
208.693	12.8
208.911	23.04
209.13	-9.73
209.349	23.04
209.567	23.04
209.786	51.71
210.005	39.42
210.223	12.8
210.442	-54.78
210.661	59.9
210.879	-34.3
211.098	18.94
211.316	10.75
211.535	94.72
211.753	-11.78
211.972	16.9
212.191	27.14
212.409	16.9
212.628	74.24
212.846	-5.63
213.065	-1.54
213.283	29.18
213.502	55.81
213.72	25.09
213.938	-22.02
214.157	43.52
214.375	-17.92
214.594	41.47
214.812	10.75
215.031	53.76
215.249	-46.59
215.467	33.28
215.686	-3.58
215.904	31.23
216.122	-32.26
216.341	35.33
216.559	8.7
216.778	41.47
216.996	-13.82
217.214	-15.87
217.432	-19.97
217.651	14.85
217.869	-52.74
218.087	-7.68
218.306	8.7
218.524	-17.92
218.742	-26.11
218.96	74.24
219.179	-1.54
219.397	-5.63
219.615	68.09
219.833	31.23
220.051	14.85
220.27	18.94
220.488	2.56
220.706	-1.54
220.924	37.38
221.142	-30.21
221.36	45.57
221.578	23.04
221.796	-105.98
222.015	55.81
222.233	8.7
222.451	43.52
222.669	-71.17
222.887	35.33
223.105	29.18
223.323	14.85
223.541	61.95
223.759	76.29
223.977	-118.27
224.195	18.94
224.413	61.95
224.631	82.43
224.849	31.23
225.067	90.62
225.285	-11.78
225.503	72.19
225.721	47.62
225.939	4.61
226.157	45.57
226.375	23.04
226.592	10.75
226.81	76.29
227.028	51.71
227.246	43.52
227.464	-17.92
227.682	45.57
227.9	59.9
228.117	27.14
228.335	43.52
228.553	25.09
228.771	-17.92
228.989	43.52
229.206	-5.63
229.424	49.66
229.642	8.7
229.86	-13.82
230.077	88.57
230.295	10.75
230.513	20.99
230.731	70.14
230.948	-13.82
231.166	74.24
231.384	12.8
231.601	-38.4
231.819	20.99
232.037	-48.64
232.254	-3.58
232.472	-3.58
232.689	8.7
232.907	88.57
233.125	10.75
233.342	12.8
233.56	8.7
233.777	59.9
233.995	2.56
234.213	49.66
234.43	18.94
234.648	-17.92
234.865	-15.87
235.083	49.66
235.3	10.75
235.518	16.9
235.735	74.24
235.953	-32.26
236.17	6.66
236.388	12.8
236.605	-22.02
236.822	-1.54
237.04	41.47
237.257	76.29
237.475	0.51
237.692	59.9
237.909	27.14
238.127	-7.68
238.344	-110.08
238.562	-30.21
238.779	45.57
238.996	-30.21
239.214	27.14
239.431	51.71
239.648	-34.3
239.865	12.8
240.083	-17.92
240.3	8.7
240.517	82.43
240.735	64
240.952	12.8
241.169	66.05
241.386	49.66
241.603	-19.97
241.821	23.04
242.038	55.81
242.255	57.86
242.472	49.66
242.689	-71.17
242.907	-15.87
243.124	35.33
243.341	84.48
243.558	66.05
243.775	-38.4
243.992	47.62
244.209	78.33
244.426	59.9
244.643	35.33
244.86	53.76
245.078	-7.68
245.295	20.99
245.512	31.23
245.729	0.51
245.946	27.14
246.163	61.95
246.38	18.94
246.597	2.56
246.814	18.94
247.031	27.14
247.248	74.24
247.464	-1.54
247.681	-9.73
247.898	51.71
248.115	55.81
248.332	-30.21
248.549	-56.83
248.766	123.39
248.983	45.57
249.2	-17.92
249.417	90.62
249.633	-62.98
249.85	27.14
250.067	29.18
250.284	45.57
250.501	47.62
250.717	53.76
250.934	-50.69
251.151	25.09
251.368	-9.73
251.585	53.76
251.801	31.23
252.018	2.56
252.235	18.94
252.451	0.51
252.668	27.14
252.885	55.81
253.102	-62.98
253.318	10.75
253.535	27.14
253.752	-17.92
253.968	29.18
254.185	-9.73
254.401	-24.06
254.618	37.38
254.835	18.94
255.051	107.01
255.268	35.33
255.484	23.04
255.701	-13.82
255.917	86.53
256.134	33.28
256.351	-1.54
256.567	2.56
256.784	-26.11
257	-11.78
257.217	-13.82
257.433	111.1
257.65	35.33
257.866	23.04
258.082	37.38
258.299	-7.68
258.515	-34.3
258.732	-95.74
258.948	-17.92
259.165	-19.97
259.381	25.09
259.597	-3.58
259.814	-60.93
260.03	-22.02
260.246	14.85
260.463	45.57
260.679	49.66
260.895	-1.54
261.112	20.99
261.328	45.57
261.544	59.9
261.761	35.33
261.977	-7.68
262.193	47.62
262.409	53.76
262.626	-19.97
262.842	4.61
263.058	37.38
263.274	84.48
263.49	12.8
263.707	10.75
263.923	-9.73
264.139	12.8
264.355	64
264.571	-9.73
264.787	33.28
265.004	-5.63
265.22	41.47
265.436	-71.17
265.652	2.56
265.868	31.23
266.084	-89.6
266.3	18.94
266.516	-13.82
266.732	-50.69
266.948	43.52
267.164	4.61
267.38	-19.97
267.596	8.7
267.812	14.85
268.028	35.33
268.244	-77.31
268.46	14.85
268.676	14.85
268.892	78.33
269.108	-3.58
269.324	-13.82
269.54	39.42
269.756	33.28
269.972	6.66
270.188	29.18
270.403	-50.69
270.619	64
270.835	-3.58
271.051	-34.3
271.267	0.51
271.483	68.09
271.698	18.94
271.914	25.09
272.13	-26.11
272.346	10.75
272.562	-3.58
272.777	-11.78
272.993	2.56
273.209	39.42
273.425	72.19
273.64	-17.92
273.856	49.66
274.072	18.94
274.287	27.14
274.503	23.04
274.719	25.09
274.934	43.52
275.15	-30.21
275.366	-34.3
275.581	6.66
275.797	-24.06
276.012	-11.78
276.228	59.9
276.444	-24.06
276.659	0.51
276.875	10.75
277.09	6.66
277.306	-26.11
277.521	64
277.737	-32.26
277.952	59.9
278.168	25.09
278.383	-75.26
278.599	4.61
278.814	18.94
279.03	27.14
279.245	64
279.461	6.66
279.676	76.29
279.892	-19.97
280.107	-22.02
280.322	76.29
280.538	41.47
280.753	-30.21
280.969	8.7
281.184	74.24
281.399	109.05
281.615	-38.4
281.83	31.23
282.045	29.18
282.26	-17.92
282.476	4.61
282.691	55.81
282.906	51.71
283.122	45.57
283.337	43.52
283.552	33.28
283.767	12.8
283.983	43.52
284.198	29.18
284.413	2.56
284.628	-1.54
284.843	39.42
285.058	59.9
285.274	0.51
285.489	68.09
285.704	27.14
285.919	-26.11
286.134	-22.02
286.349	-3.58
286.564	-7.68
286.779	49.66
286.995	-36.35
287.21	18.94
287.425	4.61
287.64	-11.78
287.855	-7.68
288.07	-67.07
288.285	-24.06
288.5	96.77
288.715	82.43
288.93	29.18
289.145	-7.68
289.36	2.56
289.575	35.33
289.79	-3.58
290.004	6.66
290.219	-19.97
290.434	6.66
290.649	39.42
290.864	43.52
291.079	2.56
291.294	-11.78
291.509	45.57
291.724	47.62
291.938	29.18
292.153	-22.02
292.368	-13.82
292.583	-30.21
292.798	-15.87
293.012	61.95
293.227	23.04
293.442	6.66
293.657	-26.11
293.871	27.14
294.086	37.38
294.301	76.29
294.516	18.94
294.73	55.81
294.945	-30.21
295.16	4.61
295.374	53.76
295.589	43.52
295.804	20.99
296.018	43.52
296.233	82.43
296.447	20.99
296.662	20.99
296.877	4.61
297.091	14.85
297.306	-7.68
297.52	2.56
297.735	47.62
297.949	8.7
298.164	66.05
298.378	-32.26
298.593	-5.63
298.807	27.14
299.022	20.99
299.236	68.09
299.451	2.56
299.665	29.18
299.88	55.81
300.094	-17.92
300.309	-11.78
300.523	-1.54
300.737	16.9
300.952	72.19
301.166	25.09
301.381	-17.92
301.595	20.99
301.809	107.01
302.024	-38.4
302.238	2.56
302.452	8.7
302.667	6.66
302.881	66.05
303.095	47.62
303.309	43.52
303.524	4.61
303.738	-26.11
303.952	6.66
304.166	-22.02
304.381	-50.69
304.595	25.09
304.809	-42.5
305.023	29.18
305.237	-58.88
305.452	14.85
305.666	18.94
305.88	45.57
306.094	-15.87
306.308	-13.82
306.522	31.23
306.736	27.14
306.95	-38.4
307.164	68.09
307.379	-28.16
307.593	35.33
307.807	-40.45
308.021	-34.3
308.235	31.23
308.449	-30.21
308.663	35.33
308.877	39.42
309.091	-9.73
309.305	78.33
309.519	64
309.733	43.52
309.947	2.56
310.161	-7.68
310.374	102.91
310.588	66.05
310.802	23.04
311.016	41.47
311.23	66.05
311.444	-42.5
311.658	6.66
311.872	-22.02
312.085	6.66
312.299	-9.73
312.513	31.23
312.727	51.71
312.941	55.81
313.154	88.57
313.368	109.05
313.582	35.33
313.796	-26.11
314.009	4.61
314.223	51.71
314.437	86.53
314.651	-32.26
314.864	-22.02
315.078	37.38
315.292	72.19
315.505	16.9
315.719	25.09
315.933	-46.59
316.146	-30.21
316.36	20.99
316.573	72.19
316.787	-62.98
317.001	135.68
317.214	-7.68
317.428	27.14
317.641	88.57
317.855	61.95
318.068	41.47
318.282	-13.82
318.495	61.95
318.709	6.66
318.922	45.57
319.136	37.38
319.349	66.05
319.563	18.94
319.776	12.8
319.99	64
320.203	27.14
320.417	31.23
320.63	39.42
320.843	78.33
321.057	-22.02
321.27	74.24
321.483	14.85
321.697	2.56
321.91	64
322.124	104.96
322.337	-30.21
322.55	55.81
322.763	-24.06
322.977	-13.82
323.19	-3.58
323.403	104.96
323.617	29.18
323.83	51.71
324.043	47.62
324.256	18.94
324.469	45.57
324.683	-19.97
324.896	78.33
325.109	121.34
325.322	-9.73
325.535	-5.63
325.748	-40.45
325.962	-13.82
326.175	23.04
326.388	-7.68
326.601	76.29
326.814	-56.83
327.027	-9.73
327.24	88.57
327.453	-1.54
327.666	78.33
327.879	6.66
328.092	-1.54
328.305	8.7
328.518	78.33
328.731	-60.93
328.944	-11.78
329.157	-30.21
329.37	59.9
329.583	70.14
329.796	115.2
330.009	104.96
330.222	72.19
330.435	-13.82
330.648	55.81
330.861	10.75
331.073	10.75
331.286	45.57
331.499	33.28
331.712	49.66
331.925	23.04
332.138	4.61
332.35	55.81
332.563	-3.58
332.776	35.33
332.989	-48.64
333.202	18.94
333.414	49.66
333.627	-38.4
333.84	-11.78
334.053	-26.11
334.265	39.42
334.478	121.34
334.691	51.71
334.903	2.56
335.116	33.28
335.329	14.85
335.541	29.18
335.754	-44.54
335.966	-44.54
336.179	-17.92
336.392	-15.87
336.604	70.14
336.817	-9.73
337.029	51.71
337.242	33.28
337.454	8.7
337.667	-44.54
337.88	117.25
338.092	35.33
338.305	10.75
338.517	-26.11
338.729	78.33
338.942	45.57
339.154	43.52
339.367	78.33
339.579	25.09
339.792	31.23
340.004	57.86
340.217	35.33
340.429	47.62
340.641	10.75
340.854	-5.63
341.066	-36.35
341.278	12.8
341.491	92.67
341.703	-1.54
341.915	-24.06
342.128	92.67
342.34	45.57
342.552	31.23
342.764	47.62
342.977	100.86
343.189	-30.21
343.401	20.99
343.613	18.94
343.826	10.75
344.038	27.14
344.25	64
344.462	20.99
344.674	68.09
344.886	12.8
345.099	16.9
345.311	47.62
345.523	45.57
345.735	37.38
345.947	33.28
346.159	12.8
346.371	31.23
346.583	47.62
346.795	117.25
347.007	49.66
347.219	37.38
347.431	-24.06
347.643	111.1
347.855	-30.21
348.067	76.29
348.279	-9.73
348.491	-30.21
348.703	10.75
348.915	66.05
349.127	-26.11
349.339	39.42
349.551	18.94
349.763	72.19
349.975	29.18
350.187	113.15
350.399	55.81
350.61	16.9
350.822	88.57
351.034	-13.82
351.246	12.8
351.458	-9.73
351.669	-30.21
351.881	20.99
352.093	90.62
352.305	33.28
352.517	20.99
352.728	39.42
352.94	-7.68
353.152	68.09
353.363	8.7
353.575	25.09
353.787	25.09
353.999	66.05
354.21	109.05
354.422	-46.59
354.633	-13.82
354.845	31.23
355.057	10.75
355.268	2.56
355.48	20.99
355.692	-19.97
355.903	-13.82
356.115	18.94
356.326	10.75
356.538	72.19
356.749	37.38
356.961	-3.58
357.172	55.81
357.384	55.81
357.595	119.29
357.807	12.8
358.018	45.57
358.23	-5.63
358.441	51.71
358.653	61.95
358.864	25.09
359.075	41.47
359.287	53.76
359.498	-3.58
359.709	29.18
359.921	47.62
360.132	20.99
360.344	49.66
360.555	33.28
360.766	57.86
360.977	43.52
361.189	14.85
361.4	23.04
361.611	-11.78
361.823	49.66
362.034	-9.73
362.245	-19.97
362.456	74.24
362.667	94.72
362.879	53.76
363.09	10.75
363.301	27.14
363.512	41.47
363.723	66.05
363.935	8.7
364.146	14.85
364.357	25.09
364.568	23.04
364.779	-3.58
364.99	102.91
365.201	-9.73
365.412	59.9
365.623	-5.63
365.834	78.33
366.045	14.85
366.256	51.71
366.467	61.95
366.678	80.38
366.889	64
367.1	-5.63
367.311	41.47
367.522	88.57
367.733	29.18
367.944	6.66
368.155	-1.54
368.366	55.81
368.577	70.14
368.788	86.53
368.999	25.09
369.209	47.62
369.42	80.38
369.631	74.24
369.842	2.56
370.053	-1.54
370.264	23.04
370.474	10.75
370.685	61.95
370.896	55.81
371.107	45.57
371.317	37.38
371.528	31.23
371.739	49.66
371.95	76.29
372.16	10.75
372.371	88.57
372.582	18.94
372.792	100.86
373.003	-13.82
373.214	27.14
373.424	33.28
373.635	20.99
373.846	96.77
374.056	-81.41
374.267	18.94
374.477	10.75
374.688	53.76
374.898	-17.92
375.109	0.51
375.319	0.51
375.53	6.66
375.74	27.14
375.951	39.42
376.161	80.38
376.372	55.81
376.582	-22.02
376.793	14.85
377.003	104.96
377.214	16.9
377.424	84.48
377.635	66.05
377.845	43.52
378.055	43.52
378.266	68.09
378.476	8.7
378.686	31.23
378.897	51.71
379.107	49.66
379.317	23.04
379.528	-3.58
379.738	94.72
379.948	64
380.158	12.8
380.369	29.18
380.579	51.71
380.789	-5.63
380.999	25.09
381.21	18.94
381.42	27.14
381.63	51.71
381.84	14.85
382.05	23.04
382.261	33.28
382.471	68.09
382.681	-48.64
382.891	84.48
383.101	27.14
383.311	-9.73
383.521	39.42
383.731	-22.02
383.941	74.24
384.151	23.04
384.361	94.72
384.571	-58.88
384.781	102.91
384.991	37.38
385.201	84.48
385.411	43.52
385.621	74.24
385.831	47.62
386.041	111.1
386.251	76.29
386.461	35.33
386.671	61.95
386.881	12.8
387.091	31.23
387.301	-1.54
387.511	16.9
387.72	53.76
387.93	45.57
388.14	14.85
388.35	27.14
388.56	47.62
388.769	76.29
388.979	76.29
389.189	16.9
389.399	25.09
389.609	92.67
389.818	49.66
390.028	55.81
390.238	57.86
390.447	-28.16
390.657	139.77
390.867	61.95
391.076	51.71
391.286	27.14
391.496	39.42
391.705	37.38
391.915	72.19
392.125	18.94
392.334	53.76
392.544	49.66
392.753	31.23
392.963	45.57
393.172	92.67
393.382	-52.74
393.591	27.14
393.801	55.81
394.01	61.95
394.22	111.1
394.429	-30.21
394.639	-5.63
394.848	27.14
395.058	14.85
395.267	-22.02
395.477	76.29
395.686	74.24
395.895	178.69
396.105	31.23
396.314	104.96
396.524	96.77
396.733	115.2
396.942	23.04
397.152	109.05
397.361	66.05
397.57	35.33
397.78	107.01
397.989	121.34
398.198	90.62
398.407	197.12
398.617	100.86
398.826	45.57
399.035	49.66
399.244	94.72
399.453	33.28
399.663	66.05
399.872	92.67
400.081	92.67
400.29	72.19
400.499	45.57
400.708	168.45
400.917	64
401.127	78.33
401.336	117.25
401.545	199.16
401.754	125.44
401.963	156.16
402.172	158.21
402.381	94.72
402.59	82.43
402.799	80.38
403.008	86.53
403.217	133.63
403.426	88.57
403.635	66.05
403.844	64
404.053	145.92
404.262	104.96
404.471	154.11
404.68	117.25
404.888	115.2
405.097	94.72
405.306	139.77
405.515	115.2
405.724	102.91
405.933	170.49
406.142	166.4
406.35	178.69
406.559	117.25
406.768	162.3
406.977	145.92
407.185	150.01
407.394	258.56
407.603	207.36
407.812	201.21
408.02	190.97
408.229	94.72
408.438	199.16
408.646	264.7
408.855	227.84
409.064	225.79
409.272	172.54
409.481	254.46
409.69	211.45
409.898	223.74
410.107	352.76
410.315	299.52
410.524	219.64
410.733	248.32
410.941	403.96
411.15	324.09
411.358	326.14
411.567	399.87
411.775	383.48
411.984	397.82
412.192	348.67
412.401	342.52
412.609	418.3
412.818	430.59
413.026	449.02
413.234	518.65
413.443	420.35
413.651	436.73
413.86	449.02
414.068	492.02
414.276	563.7
414.485	522.74
414.693	557.56
414.901	635.38
415.11	639.48
415.318	688.63
415.526	666.1
415.734	684.53
415.943	745.97
416.151	758.26
416.359	717.3
416.567	825.84
416.776	795.12
416.984	940.53
417.192	928.24
417.4	868.85
417.608	850.42
417.817	993.78
418.025	956.91
418.233	1059.31
418.441	1055.22
418.649	1075.7
418.857	1137.13
419.065	1106.42
419.273	1159.66
419.481	1272.3
419.689	1298.92
419.897	1337.84
420.105	1397.23
420.313	1403.37
420.521	1550.82
420.729	1421.8
420.937	1522.15
421.145	1599.98
421.353	1729
421.561	1802.72
421.769	1726.95
421.977	1782.24
422.185	1772
422.393	2007.52
422.601	1999.33
422.809	1929.7
423.017	1956.32
423.224	2169.31
423.432	2185.69
423.64	2228.7
423.848	2593.24
424.056	2482.65
424.263	2705.88
424.471	2587.1
424.679	2691.54
424.887	2791.89
425.094	2824.66
425.302	2736.6
425.51	3023.31
425.718	3078.61
425.925	3156.43
426.133	3348.94
426.341	3422.67
426.548	3690.95
426.756	3508.68
426.964	3566.03
427.171	3684.81
427.379	3895.75
427.586	4061.63
427.794	3951.04
428.001	4243.9
428.209	4354.49
428.417	4385.21
428.624	4561.34
428.832	4700.6
429.039	4649.4
429.247	4655.54
429.454	5007.8
429.662	5480.88
429.869	5091.76
430.076	5558.7
430.284	5333.42
430.491	5585.32
430.699	5869.99
430.906	5956.01
431.114	6150.56
431.321	6121.89
431.528	6328.74
431.736	6695.32
431.943	7043.48
432.15	6736.28
432.358	7088.53
432.565	7260.56
432.772	7426.45
432.979	7567.76
433.187	7668.11
433.394	7852.42
433.601	8309.12
433.808	8302.98
434.016	8241.54
434.223	8784.25
434.43	9075.06
434.637	9116.02
434.844	9646.44
435.052	9761.13
435.259	9507.18
435.466	9793.9
435.673	9597.29
435.88	10365.28
436.087	10914.14
436.294	10916.19
436.501	10443.1
436.708	10893.66
436.915	11327.83
437.122	11778.38
437.329	11706.7
437.537	11960.65
437.743	12243.27
437.95	11962.7
438.157	12622.14
438.364	13111.61
438.571	13148.47
438.778	13175.09
438.985	14473.51
439.192	13859.12
439.399	14645.54
439.606	14287.14
439.813	14897.44
440.02	15677.71
440.227	15651.09
440.433	15300.89
440.64	15855.89
440.847	15606.03
441.054	16091.4
441.261	17096.96
441.467	16744.7
441.674	17103.1
441.881	17805.55
442.088	17789.17
442.294	17760.5
442.501	18139.37
442.708	18471.14
442.914	19185.88
443.121	19978.45
443.328	19634.39
443.534	20994.24
443.741	20295.88
443.948	20207.82
444.154	21518.52
444.361	21330.11
444.568	21651.64
444.774	21373.11
444.981	21868.72
445.187	22454.44
445.394	23419.03
445.6	23140.51
445.807	25325.69
446.013	24297.61
446.22	24737.93
446.426	25485.44
446.633	25679.99
446.839	26290.29
447.046	25598.07
447.252	26755.18
447.459	26839.14
447.665	26933.35
447.871	27736.15
448.078	29116.48
448.284	27730.01
448.491	28788.81
448.697	29679.68
448.903	30124.08
449.11	30318.64
449.316	29646.91
449.522	30267.44
449.728	30920.74
449.935	31289.38
450.141	30961.7
450.347	31866.91
450.553	31031.33
450.76	31473.7
450.966	32098.33
451.172	32102.42
451.378	32591.89
451.584	32319.51
451.791	32634.89
451.997	32694.29
452.203	33155.08
452.409	33210.37
452.615	32997.38
452.821	31619.1
453.027	31465.5
453.233	33081.35
453.44	31459.36
453.646	32196.63
453.852	32223.25
454.058	32708.62
454.264	31723.55
454.47	32514.06
454.676	31559.71
454.882	32655.37
455.088	29874.23
455.294	30027.83
455.5	30455.86
455.705	31154.21
455.911	29720.63
456.117	29536.32
456.323	28756.04
456.529	27312.22
456.735	28608.59
456.941	27717.72
457.147	27082.85
457.352	26220.66
457.558	26392.69
457.764	26347.63
457.97	25565.31
458.176	24881.28
458.381	24957.06
458.587	23931.03
458.793	24037.52
458.999	22761.64
459.204	24221.84
459.41	23785.62
459.616	21969.07
459.821	21952.69
460.027	22202.54
460.233	21627.06
460.438	20404.42
460.644	21043.39
460.85	19740.88
461.055	19609.81
461.261	19464.41
461.466	18000.11
461.672	17475.83
461.878	18505.96
462.083	17578.23
462.289	17215.74
462.494	16720.13
462.7	16169.23
462.905	15794.45
463.111	16189.7
463.316	16312.58
463.522	16048.4
463.727	16103.69
463.932	15923.47
464.138	15653.14
464.343	16263.43
464.549	15755.54
464.754	15816.97
464.959	15802.64
465.165	15460.63
465.37	15231.26
465.575	14739.74
465.781	15337.75
465.986	15429.91
466.191	14881.05
466.397	14541.09
466.602	13879.6
466.807	14364.96
467.012	14336.29
467.218	14317.86
467.423	14092.58
467.628	14082.35
467.833	14942.49
468.038	14055.72
468.244	13963.56
468.449	14496.03
468.654	13957.42
468.859	13863.21
469.064	14057.77
469.269	13349.17
469.474	13175.09
469.679	13879.6
469.885	13320.5
470.09	13685.04
470.295	13398.32
470.5	12894.52
470.705	13025.59
470.91	12931.39
471.115	12542.27
471.32	12824.89
471.525	12597.57
471.73	12435.78
471.935	12382.53
472.139	12132.68
472.344	12282.18
472.549	11759.95
472.754	11872.59
472.959	11759.95
473.164	11397.46
473.369	11528.53
473.574	11727.18
473.778	11489.62
473.983	11323.73
474.188	11321.68
474.393	10787.16
474.598	10938.71
474.802	10774.88
475.007	10709.34
475.212	10834.27
475.417	10330.47
475.621	10492.26
475.826	10463.58
476.031	10129.77
476.235	9996.65
476.44	10068.33
476.645	9939.3
476.849	10078.57
477.054	9726.32
477.259	9857.39
477.463	9591.15
477.668	9425.26
477.872	9578.86
478.077	9498.99
478.282	9075.06
478.486	9070.97
478.691	9056.63
478.895	9025.91
479.1	9042.29
479.304	9064.82
479.509	8829.31
479.713	9130.36
479.918	8778.11
480.122	8790.39
480.326	8776.06
480.531	8661.37
480.735	8722.81
480.94	8661.37
481.144	8763.77
481.348	8442.24
481.553	8530.3
481.757	8333.7
481.961	8362.37
482.166	8546.69
482.37	8362.37
482.574	8264.07
482.778	8343.94
482.983	8604.03
483.187	8298.88
483.391	8417.66
483.595	8491.39
483.8	8370.56
484.004	8352.13
484.208	8591.74
484.412	8440.19
484.616	8481.15
484.821	8386.94
485.025	8182.15
485.229	8524.16
485.433	8397.18
485.637	8309.12
485.841	8225.15
486.045	8239.49
486.249	8403.33
486.453	8141.19
486.657	8354.18
486.861	8319.36
487.065	7963.01
487.269	8251.78
487.473	8186.24
487.677	8493.44
487.881	8429.95
488.085	8309.12
488.289	8225.15
488.493	8300.93
488.697	8348.03
488.901	8212.87
489.105	8395.14
489.309	8485.25
489.512	8536.45
489.716	8608.12
489.92	8339.84
490.124	8378.75
490.328	8556.93
490.531	8372.61
490.735	8849.78
490.939	8696.19
491.143	8479.1
491.346	8659.32
491.55	8778.11
491.754	8661.37
491.958	8685.95
492.161	8763.77
492.365	8917.37
492.569	9032.05
492.772	8788.35
492.976	8710.52
493.18	8987
493.383	8931.7
493.587	9140.6
493.79	9124.21
493.994	9195.89
494.197	9218.42
494.401	9302.39
494.605	9339.25
494.808	9369.97
495.012	9306.48
495.215	9472.37
495.419	9572.72
495.622	9568.62
495.825	9636.2
496.029	9679.21
496.232	9965.93
496.436	9855.34
496.639	10129.77
496.843	10146.15
497.046	10258.79
497.249	10471.78
497.453	10449.25
497.656	10359.14
497.859	10699.1
498.063	10565.98
498.266	10912.09
498.469	10998.1
498.673	10918.23
498.876	11202.9
499.079	11114.84
499.282	11317.59
499.485	11680.08
499.689	11612.49
499.892	11540.82
500.095	11686.22
500.298	11895.11
500.501	11643.21
500.705	12355.91
500.908	12310.85
501.111	12405.06
501.314	12650.81
501.517	12683.58
501.72	12869.95
501.923	12818.75
502.126	12943.67
502.329	13599.02
502.532	13496.63
502.735	13435.19
502.938	13867.31
503.141	13601.07
503.344	13932.84
503.547	13941.04
503.75	14254.37
503.953	14606.63
504.156	14543.14
504.359	14606.63
504.562	14725.41
504.765	15014.17
504.968	15065.37
505.17	15374.61
505.373	15417.62
505.576	15474.96
505.779	16072.97
505.982	15933.71
506.185	16318.73
506.387	16212.23
506.59	16154.89
506.793	16773.38
506.996	16570.63
507.198	17238.26
507.401	16920.83
507.604	17185.02
507.807	17451.25
508.009	17608.95
508.212	17608.95
508.415	18145.52
508.617	18569.44
508.82	18497.77
509.022	18254.06
509.225	18708.71
509.428	18727.14
509.63	19132.64
509.833	18866.4
510.035	19560.66
510.238	19439.83
510.44	19992.78
510.643	19953.87
510.845	20197.58
511.048	20166.86
511.25	20553.93
511.453	20396.23
511.655	21371.07
511.858	21078.21
512.06	21475.51
512.262	21561.53
512.465	21534.9
512.667	21868.72
512.87	22137.01
513.072	21983.41
513.274	22526.12
513.477	22653.09
513.679	22960.29
513.881	23101.6
514.084	23556.25
514.286	23337.12
514.488	23572.63
514.69	24246.41
514.893	24023.19
515.095	24150.16
515.297	24531.08
515.499	24453.26
515.701	24942.72
515.904	25172.1
516.106	25245.82
516.308	25745.53
516.51	25673.85
516.712	25882.74
516.914	26323.05
517.116	26423.4
517.318	26830.95
517.52	27367.52
517.722	27009.12
517.925	27334.75
518.127	27574.36
518.329	27723.86
518.531	27261.02
518.733	28280.91
518.935	28407.89
519.136	28418.13
519.338	28917.83
519.54	28905.54
519.742	29352
519.944	29517.89
520.146	29769.79
520.348	29841.46
520.55	30228.53
520.752	30101.56
520.954	30578.73
521.155	30496.81
521.357	30705.71
521.559	31303.71
521.761	31694.88
521.963	31582.24
522.164	31789.08
522.366	32006.17
522.568	32186.39
522.77	32034.84
522.971	32825.36
523.173	32542.74
523.375	32952.33
523.576	32921.61
523.778	33181.7
523.98	33429.51
524.181	33241.09
524.383	33591.3
524.584	34002.94
524.786	33951.74
524.988	33556.48
525.189	34047.99
525.391	34541.55
525.592	34410.48
525.794	34930.67
525.995	34836.46
526.197	34656.24
526.398	35088.36
526.6	35620.83
526.801	35330.02
527.003	35643.36
527.204	35487.71
527.406	36024.28
527.607	35749.85
527.808	36169.69
528.01	35651.55
528.211	35991.51
528.412	37064.65
528.614	36222.94
528.815	36544.47
529.016	36648.91
529.218	36511.7
529.419	36843.47
529.62	36708.3
529.822	36601.81
530.023	36665.3
530.224	37158.86
530.425	37066.7
530.626	36159.45
530.828	36405.2
531.029	37953.47
531.23	37117.9
531.431	37232.58
531.632	37099.47
531.833	37502.92
532.035	37543.88
532.236	37584.83
532.437	37240.78
532.638	37156.81
532.839	37466.05
533.04	37576.64
533.241	37273.54
533.442	37912.51
533.643	37570.5
533.844	37613.51
534.045	37414.85
534.246	37447.62
534.447	37543.88
534.648	37400.52
534.849	37484.48
535.05	37382.09
535.251	37887.93
535.451	37521.35
535.652	37705.66
535.853	37781.44
536.054	37644.23
536.255	37867.45
536.456	37576.64
536.657	38021.05
536.857	37406.66
537.058	37584.83
537.259	37623.75
537.46	37783.49
537.66	37775.3
537.861	37992.38
538.062	37781.44
538.263	37674.95
538.463	37685.18
538.664	37552.07
538.865	38023.1
539.065	38010.81
539.266	37255.11
539.466	38096.83
539.667	37652.42
539.868	37701.57
540.068	37584.83
540.269	37593.03
540.469	37783.49
540.67	37527.49
540.87	37521.35
541.071	37685.18
541.271	38277.05
541.472	37496.77
541.672	37464
541.873	37464
542.073	37306.31
542.274	38125.5
542.474	37693.38
542.675	37515.2
542.875	37826.49
543.075	37685.18
543.276	37165
543.476	37763.01
543.676	37394.37
543.877	37953.47
544.077	37468.1
544.277	37515.2
544.478	37535.68
544.678	37494.72
544.878	37418.95
545.078	37388.23
545.279	36863.95
545.479	37625.79
545.679	37281.74
545.879	37494.72
546.079	37160.9
546.28	37464
546.48	37140.43
546.68	37885.89
546.88	37339.08
547.08	37533.64
547.28	37353.41
547.48	37009.36
547.68	37181.38
547.88	37291.97
548.081	37443.52
548.281	37040.07
548.481	37382.09
548.681	37210.06
548.881	37334.98
549.081	37124.04
549.28	37394.37
549.48	37296.07
549.68	37300.17
549.88	37558.21
550.08	37193.67
550.28	37371.85
550.48	37042.12
550.68	37457.86
550.88	37355.46
551.08	37361.61
551.279	37048.27
551.479	37134.28
551.679	37205.96
551.879	37158.86
552.079	37261.26
552.278	37208.01
552.478	37048.27
552.678	37019.6
552.878	37281.74
553.077	36933.58
553.277	36689.87
553.477	37410.76
553.676	37189.58
553.876	37078.99
554.076	36773.84
554.275	36827.09
554.475	36323.29
554.674	36542.42
554.874	36992.97
555.074	36718.54
555.273	36915.15
555.473	37203.91
555.672	36493.27
555.872	36794.32
556.071	36380.63
556.271	36947.92
556.47	36077.53
556.67	36505.55
556.869	36587.47
557.068	36679.63
557.268	36425.68
557.467	36435.92
557.667	36184.02
557.866	36292.57
558.065	36327.38
558.265	36483.03
558.464	36081.63
558.663	36620.24
558.863	35796.96
559.062	36167.64
559.261	35637.22
559.461	36874.19
559.66	35643.36
559.859	35862.49
560.058	35577.83
560.258	36022.23
560.457	35846.11
560.656	36003.8
560.855	35833.82
561.054	35543.01
561.253	35430.37
561.453	35807.2
561.652	35409.89
561.851	35774.43
562.05	35534.82
562.249	35194.85
562.448	35489.76
562.647	35358.69
562.846	35344.36
563.045	35201
563.244	34959.34
563.443	35444.71
563.642	34779.12
563.841	35041.26
564.04	34615.28
564.239	35041.26
564.438	34529.27
564.637	34836.46
564.836	34643.95
565.035	34183.16
565.234	34832.36
565.432	34449.39
565.631	34324.47
565.83	34482.16
566.029	34195.45
566.228	34340.85
566.427	34357.24
566.625	33687.55
566.824	33617.92
567.023	34258.93
567.222	33509.38
567.42	34070.52
567.619	33787.9
567.818	33867.77
568.016	33871.87
568.215	33650.69
568.414	33517.57
568.612	33894.39
568.811	33214.47
569.01	33542.14
569.208	33218.57
569.407	33026.06
569.605	33130.5
569.804	33036.3
570.002	32935.95
570.201	33196.04
570.4	33011.72
570.598	32655.37
570.797	32794.64
570.995	32778.25
571.193	32655.37
571.392	32892.94
571.59	32542.74
571.789	32626.7
571.987	32114.71
572.186	32143.38
572.384	32139.29
572.582	32278.55
572.781	32366.61
572.979	32024.6
573.177	31961.11
573.376	32184.34
573.574	31635.49
573.772	31617.05
573.971	31868.95
574.169	31649.82
574.367	31492.13
574.565	31961.11
574.763	31672.35
574.962	31514.66
575.16	30871.59
575.358	31520.8
575.556	30763.05
575.754	31291.43
575.952	31262.75
576.151	31084.58
576.349	30410.8
576.547	30801.96
576.745	30476.33
576.943	30828.59
577.141	30689.32
577.339	30699.56
577.537	30273.59
577.735	30509.1
577.933	30029.88
578.131	30367.79
578.329	30117.94
578.527	29710.39
578.725	30189.62
578.923	30076.98
579.121	30154.8
579.319	30027.83
579.516	29724.73
579.714	29663.29
579.912	29558.84
580.11	29489.21
580.308	29548.61
580.506	29616.19
580.704	28964.93
580.901	29241.41
581.099	29210.69
581.297	29016.13
581.495	28831.82
581.692	29282.37
581.89	28670.03
582.088	29112.39
582.285	28829.77
582.483	28954.69
582.681	28672.07
582.878	28278.86
583.076	28717.13
583.274	28424.27
583.471	28483.66
583.669	28317.78
583.866	28244.05
584.064	28725.32
584.262	27877.46
584.459	28289.1
584.657	27887.7
584.854	28233.81
585.052	27537.5
585.249	27721.82
585.447	27873.37
585.644	27338.85
585.841	27662.43
586.039	27818.07
586.236	27291.74
586.434	27322.46
586.631	26996.84
586.828	27148.39
587.026	26896.49
587.223	27185.25
587.42	27146.34
587.618	26876.01
587.815	26812.52
588.012	26552.43
588.21	26638.44
588.407	26863.72
588.604	26579.05
588.801	26140.79
588.999	26374.25
589.196	26323.05
589.393	26306.67
589.59	26273.9
589.787	26378.35
589.984	26138.74
590.182	25886.84
590.379	26114.16
590.576	25970.8
590.773	25753.72
590.97	25677.94
591.167	25720.95
591.364	25258.11
591.561	25487.48
591.758	25041.03
591.955	25170.05
592.152	25364.6
592.349	24836.23
592.546	25198.72
592.743	25352.32
592.94	24766.6
593.137	24899.72
593.334	25145.47
593.531	24623.24
593.727	25057.41
593.924	24938.63
594.121	24529.03
594.318	24727.69
594.515	24201.36
594.712	24516.75
594.908	24314
595.105	24477.83
595.302	24166.54
595.499	24406.16
595.696	24053.9
595.892	23769.24
596.089	23924.88
596.286	23959.7
596.482	23865.49
596.679	23595.16
596.876	23828.63
597.072	23507.1
597.269	23572.63
597.466	23341.21
597.662	23351.45
597.859	23503
598.055	23050.4
598.252	23001.25
598.448	23152.8
598.645	23056.54
598.841	23050.4
599.038	22929.57
599.234	22972.58
599.431	22436.01
599.627	23011.49
599.824	22943.91
600.02	22452.39
600.217	22716.58
600.413	22464.68
600.609	22556.84
600.806	22415.53
601.002	22573.22
601.198	22286.51
601.395	21967.02
601.591	21862.58
601.787	21950.64
601.984	22110.38
602.18	21911.73
602.376	21682.36
602.572	21625.01
602.769	21657.78
602.965	21579.96
603.161	21702.84
603.357	21495.99
603.553	21612.73
603.75	21469.37
603.946	21280.96
604.142	21063.87
604.338	21211.32
604.534	21244.09
604.73	21053.63
604.926	21043.39
605.122	21260.48
605.318	20861.12
605.514	20721.86
605.71	20699.33
605.906	20689.09
606.102	20631.75
606.298	20932.8
606.494	20281.55
606.69	20451.53
606.886	20682.95
607.082	20410.57
607.278	20508.87
607.474	20269.26
607.67	20580.55
607.866	19943.63
608.062	20142.28
608.257	19914.96
608.453	20093.13
608.649	20134.09
608.845	19806.42
609.041	19990.73
609.236	20039.89
609.432	19644.63
609.628	19820.75
609.824	19767.51
610.019	19646.68
610.215	19728.59
610.411	19759.31
610.606	19509.46
610.802	19681.49
610.998	19558.61
611.193	19894.48
611.389	19034.33
611.584	19247.32
611.78	19472.6
611.976	19413.21
612.171	19431.64
612.367	19546.33
612.562	19421.4
612.758	19286.23
612.953	19144.92
613.149	19560.66
613.344	19022.05
613.539	19488.98
613.735	18952.41
613.93	19054.81
614.126	19015.9
614.321	19304.67
614.517	18974.94
614.712	18856.16
614.907	18868.45
615.103	19204.31
615.298	18675.94
615.493	19173.6
615.688	18630.88
615.884	18956.51
616.079	18585.83
616.274	18766.05
616.47	18727.14
616.665	18675.94
616.86	18395.37
617.055	18313.45
617.25	18421.99
617.445	18667.75
617.641	18252.01
617.836	18501.86
618.031	18057.45
618.226	18514.15
618.421	18145.52
618.616	18125.04
618.811	18016.49
619.006	18184.43
619.201	17551.6
619.396	17889.52
619.591	17783.02
619.786	17864.94
619.981	17514.74
620.176	17887.47
620.371	17551.6
620.566	17574.13
620.761	17535.22
620.956	17574.13
621.151	17185.02
621.346	17465.59
621.541	16976.12
621.735	17203.45
621.93	16871.68
622.125	16750.85
622.32	16640.26
622.515	16828.67
622.709	16593.15
622.904	16658.69
623.099	16423.17
623.294	16369.93
623.488	16197.9
623.683	16582.91
623.878	16044.3
624.072	16220.42
624.267	16304.39
624.462	15993.1
624.656	15788.3
624.851	15798.54
625.046	15829.26
625.24	15612.18
625.435	15352.09
625.629	15626.51
625.824	15335.7
626.018	15384.85
626.213	14852.38
626.407	15102.23
626.602	15005.98
626.796	14958.88
626.991	14905.63
627.185	14717.22
627.38	14725.41
627.574	14610.72
627.768	14551.33
627.963	14424.36
628.157	14367.01
628.352	14467.36
628.546	13926.7
628.74	14289.19
628.935	14104.87
629.129	13969.71
629.323	13844.78
629.517	13560.11
629.712	13816.11
629.906	13824.3
630.1	13596.98
630.294	13582.64
630.489	13447.47
630.683	13590.83
630.877	13302.07
631.071	13373.75
631.265	13338.93
631.459	13044.02
631.653	13101.37
631.848	13207.86
632.042	13084.98
632.236	13095.22
632.43	12935.48
632.624	12845.37
632.818	12620.1
633.012	12564.8
633.206	12654.91
633.4	12673.34
633.594	12482.88
633.788	12345.67
633.982	12572.99
634.176	12282.18
634.369	12253.51
634.563	12319.04
634.757	12079.43
634.951	12212.55
635.145	12011.85
635.339	11891.02
635.533	11678.03
635.726	11747.66
635.92	11587.92
636.114	11602.25
636.308	11553.1
636.501	11663.69
636.695	11393.36
636.889	11481.42
637.083	11413.84
637.276	11360.59
637.47	11450.71
637.664	11065.69
637.857	11100.5
638.051	11127.13
638.244	11112.79
638.438	11075.93
638.632	11037.02
638.825	10864.99
639.019	10928.47
639.212	10662.24
639.406	10701.15
639.599	10621.28
639.793	10783.07
639.986	10367.33
640.18	10469.73
640.373	10680.67
640.567	10441.06
640.76	10451.3
640.954	10256.74
641.147	10172.77
641.34	9955.69
641.534	10176.87
641.727	10051.94
641.92	10043.75
642.114	9933.16
642.307	9924.97
642.5	9978.22
642.694	9632.11
642.887	9720.17
643.08	9783.66
643.273	9857.39
643.467	9613.68
643.66	9632.11
643.853	9359.73
644.046	9378.16
644.239	9560.43
644.432	9226.61
644.626	9253.23
644.819	9185.65
645.012	9214.32
645.205	9245.04
645.398	9083.25
645.591	9030.01
645.784	9111.92
645.977	8931.7
646.17	8917.37
646.363	8790.39
646.556	8812.92
646.749	8941.94
646.942	8802.68
647.135	8767.87
647.328	8757.63
647.521	8481.15
647.714	8382.85
647.907	8565.12
648.099	8380.8
648.292	8513.92
648.485	8282.5
648.678	8380.8
648.871	8317.31
649.064	8141.19
649.256	8194.43
649.449	8348.03
649.642	8114.56
649.835	8051.08
650.027	8075.65
650.22	8188.29
650.413	7852.42
650.605	8006.02
650.798	7928.2
650.991	7739.79
651.183	7764.36
651.376	7698.83
651.568	7690.63
651.761	7801.22
651.954	7575.95
652.146	7659.92
652.339	7760.27
652.531	7575.95
652.724	7526.8
652.916	7436.69
653.109	7604.62
653.301	7428.49
653.494	7297.42
653.686	7381.39
653.879	7424.4
654.071	7225.75
654.263	7309.71
654.456	7231.89
654.648	7203.22
654.84	7031.19
655.033	6986.13
655.225	6912.41
655.417	6975.89
655.61	6752.66
655.802	6967.7
655.994	6865.3
656.186	6928.79
656.379	6926.74
656.571	6752.66
656.763	6844.82
656.955	6785.43
657.148	6658.46
657.34	6508.96
657.532	6539.68
657.724	6537.63
657.916	6635.93
658.108	6578.59
658.3	6384.03
658.492	6539.68
658.684	6261.15
658.876	6472.09
659.068	6525.34
659.26	6269.34
659.452	6121.89
659.644	6318.5
659.836	6181.28
660.028	6259.1
660.22	6046.12
660.412	6123.94
660.604	6048.16
660.796	5980.58
660.988	6062.5
661.18	6003.11
661.372	5976.48
661.563	5970.34
661.755	5812.65
661.947	5826.98
662.139	5829.03
662.331	5783.98
662.522	5804.46
662.714	5562.8
662.906	5869.99
663.097	5759.4
663.289	5587.37
663.481	5548.46
663.673	5650.86
663.864	5573.03
664.056	5456.3
664.247	5669.29
664.439	5456.3
664.631	5589.42
664.822	5462.44
665.014	5476.78
665.205	5429.68
665.397	5245.36
665.588	5253.55
665.78	5437.87
665.971	5396.91
666.163	5317.04
666.354	5327.28
666.546	5241.26
666.737	5306.8
666.929	5099.95
667.12	5243.31
667.311	5056.95
667.503	5034.42
667.694	5153.2
667.885	5048.75
668.077	4903.35
668.268	4991.41
668.459	4903.35
668.651	5069.23
668.842	4919.73
669.033	4798.9
669.224	4999.6
669.416	5007.8
669.607	4905.4
669.798	4757.94
669.989	4823.48
670.18	4848.05
670.371	4794.81
670.563	4829.62
670.754	4751.8
670.945	4725.18
671.136	4798.9
671.327	4770.23
671.518	4536.76
671.709	4710.84
671.9	4678.07
672.091	4708.79
672.282	4587.96
672.473	4508.09
672.664	4481.47
672.855	4549.05
673.046	4438.46
673.237	4547
673.428	4473.28
673.619	4581.82
673.809	4381.12
674	4448.7
674.191	4477.37
674.382	4401.6
674.573	4510.14
674.764	4311.49
674.954	4385.21
675.145	4245.95
675.336	4127.17
675.527	4323.77
675.717	4237.76
675.908	4415.93
676.099	4262.33
676.289	4301.25
676.48	4184.51
676.671	4168.13
676.861	4256.19
677.052	4350.4
677.243	4032.96
677.433	4047.3
677.624	4178.37
677.814	4196.8
678.005	4090.31
678.195	4139.46
678.386	4178.37
678.576	4061.63
678.767	3965.38
678.957	3951.04
679.148	4149.7
679.338	4016.58
679.529	4055.49
679.719	3942.85
679.909	4186.56
680.1	4018.63
680.29	3961.28
680.481	3977.67
680.671	3934.66
680.861	4084.16
681.052	3957.19
681.242	4030.91
681.432	3916.23
681.622	3897.8
681.813	3848.65
682.003	3891.65
682.193	3905.99
682.383	4000.19
682.573	3924.42
682.764	3793.35
682.954	3842.5
683.144	3703.24
683.334	3887.56
683.524	4006.34
683.714	3856.84
683.904	3842.5
684.094	3854.79
684.284	3836.36
684.474	3869.12
684.664	3654.09
684.854	3867.08
685.044	3703.24
685.234	3748.29
685.424	3787.21
685.614	3738.05
685.804	3719.62
685.994	3518.92
686.184	3568.07
686.374	3609.03
686.564	3647.94
686.753	3670.47
686.943	3555.79
687.133	3643.85
687.323	3475.91
687.513	3576.27
687.702	3592.65
687.892	3527.11
688.082	3510.73
688.272	3484.11
688.461	3385.8
688.651	3504.59
688.841	3322.32
689.03	3324.37
689.22	3420.62
689.41	3422.67
689.599	3297.74
689.789	3420.62
689.979	3322.32
690.168	3350.99
690.358	3254.73
690.547	3205.58
690.737	3328.46
690.926	3168.72
691.116	3256.78
691.305	3187.15
691.495	3244.49
691.684	3131.86
691.874	3099.09
692.063	3150.29
692.252	3197.39
692.442	3107.28
692.631	3029.46
692.82	3035.6
693.01	3033.55
693.199	3117.52
693.388	2978.26
693.578	3088.85
693.767	2925.01
693.956	3011.03
694.146	2945.49
694.335	2984.4
694.524	2951.63
694.713	3015.12
694.902	2912.72
695.092	2963.92
695.281	2922.96
695.47	2869.72
695.659	2898.39
695.848	2836.95
696.037	2896.34
696.226	2769.37
696.415	2843.09
696.604	2849.24
696.793	2947.54
696.982	2920.92
697.171	2761.17
697.36	2779.61
697.549	2767.32
697.738	2800.09
697.927	2763.22
698.116	2781.65
698.305	2728.41
698.494	2771.41
698.683	2701.78
698.872	2779.61
699.061	2716.12
699.25	2652.63
699.438	2677.21
699.627	2679.26
699.816	2669.02
700.005	2642.39
700.193	2718.17
700.382	2697.69
700.571	2673.11
700.76	2564.57
700.948	2607.58
701.137	2785.75
701.326	2560.47
701.514	2587.1
701.703	2699.73
701.892	2607.58
702.08	2656.73
702.269	2591.19
702.457	2662.87
702.646	2611.67
702.834	2652.63
703.023	2683.35
703.212	2458.07
703.4	2566.62
703.589	2501.08
703.777	2673.11
703.965	2453.98
704.154	2521.56
704.342	2562.52
704.531	2556.38
704.719	2509.27
704.907	2537.95
705.096	2507.23
705.284	2470.36
705.472	2384.35
705.661	2599.38
705.849	2525.66
706.037	2421.21
706.226	2507.23
706.414	2460.12
706.602	2425.31
706.79	2525.66
706.979	2476.51
707.167	2488.79
707.355	2439.64
707.543	2519.51
707.731	2370.01
707.919	2359.77
708.107	2496.99
708.296	2470.36
708.484	2404.83
708.672	2476.51
708.86	2419.16
709.048	2466.27
709.236	2456.03
709.424	2570.71
709.612	2312.67
709.8	2427.35
709.988	2314.72
710.176	2398.68
710.364	2439.64
710.551	2413.02
710.739	2462.17
710.927	2482.65
711.115	2496.99
711.303	2396.64
711.491	2423.26
711.679	2490.84
711.866	2388.44
712.054	2415.07
712.242	2347.48
712.43	2513.37
712.617	2380.25
712.805	2370.01
712.993	2451.93
713.181	2496.99
713.368	2374.11
713.556	2542.04
713.744	2402.78
713.931	2486.75
714.119	2351.58
714.306	2275.81
714.494	2423.26
714.682	2494.94
714.869	2402.78
715.057	2396.64
715.244	2433.5
715.432	2511.32
715.619	2353.63
715.807	2374.11
715.994	2394.59
716.182	2419.16
716.369	2374.11
716.556	2398.68
716.744	2343.39
716.931	2380.25
717.119	2396.64
717.306	2279.9
717.493	2443.74
717.681	2466.27
717.868	2300.38
718.055	2415.07
718.242	2302.43
718.43	2421.21
718.617	2515.42
718.804	2492.89
718.991	2361.82
719.179	2406.88
719.366	2271.71
719.553	2419.16
719.74	2284
719.927	2361.82
720.114	2339.29
720.301	2388.44
720.488	2263.52
720.676	2255.33
720.863	2365.92
721.05	2431.45
721.237	2265.57
721.424	2496.99
721.611	2298.33
721.798	2331.1
721.985	2253.28
722.172	2312.67
722.358	2230.75
722.545	2351.58
722.732	2286.05
722.919	2329.05
723.106	2257.37
723.293	2353.63
723.48	2284
723.667	2302.43
723.853	2179.55
724.04	2392.54
724.227	2263.52
724.414	2247.13
724.6	2308.57
724.787	2322.91
724.974	2392.54
725.161	2398.68
725.347	2273.76
725.534	2329.05
725.72	2259.42
725.907	2312.67
726.094	2296.28
726.28	2361.82
726.467	2226.65
726.653	2376.16
726.84	2339.29
727.027	2343.39
727.213	2294.24
727.4	2275.81
727.586	2351.58
727.773	2324.96
727.959	2329.05
728.145	2316.76
728.332	2367.96
728.518	2378.2
728.705	2357.72
728.891	2331.1
729.077	2398.68
729.264	2349.53
729.45	2316.76
729.636	2390.49
729.823	2308.57
730.009	2427.35
730.195	2359.77
730.382	2365.92
730.568	2347.48
730.754	2341.34
730.94	2331.1
731.126	2359.77
731.313	2488.79
731.499	2308.57
731.685	2335.2
731.871	2245.09
732.057	2253.28
732.243	2265.57
732.429	2476.51
732.615	2374.11
732.801	2324.96
732.987	2458.07
733.173	2431.45
733.359	2302.43
733.545	2357.72
733.731	2329.05
733.917	2355.68
734.103	2306.52
734.289	2253.28
734.475	2382.3
734.661	2355.68
734.847	2421.21
735.033	2404.83
735.219	2333.15
735.404	2263.52
735.59	2267.61
735.776	2232.8
735.962	2292.19
736.148	2378.2
736.333	2324.96
736.519	2329.05
736.705	2370.01
736.89	2210.27
737.076	2322.91
737.262	2359.77
737.447	2400.73
737.633	2257.37
737.819	2384.35
738.004	2275.81
738.19	2318.81
738.375	2284
738.561	2314.72
738.747	2173.41
738.932	2148.83
739.118	2343.39
739.303	2308.57
739.489	2257.37
739.674	2277.85
739.859	2243.04
740.045	2298.33
740.23	2202.08
740.416	2226.65
740.601	2284
740.786	2148.83
740.972	2193.89
741.157	2232.8
741.342	2025.95
741.528	2292.19
741.713	2171.36
741.898	2161.12
742.084	2247.13
742.269	2234.85
742.454	2183.65
742.639	2130.4
742.824	2120.16
743.01	2118.11
743.195	2144.74
743.38	2197.98
743.565	2093.54
743.75	2204.13
743.935	2138.59
744.12	2210.27
744.305	2023.91
744.49	2038.24
744.675	2050.53
744.86	2091.49
745.045	2046.43
745.23	2109.92
745.415	2218.46
745.6	2152.93
745.785	2052.58
745.97	1991.14
746.155	2030.05
746.34	1984.99
746.525	1976.8
746.71	1966.56
746.895	1839.59
747.079	1956.32
747.264	2038.24
747.449	1993.19
747.634	1884.64
747.819	1939.94
748.003	1939.94
748.188	1939.94
748.373	1896.93
748.557	1841.64
748.742	1880.55
748.927	1874.4
749.111	1935.84
749.296	1821.16
749.481	1966.56
749.665	1821.16
749.85	1708.52
750.034	1778.15
750.219	1729
750.404	1804.77
750.588	1845.73
750.773	1667.56
750.957	1753.57
751.141	1665.51
751.326	1790.44
751.51	1751.53
751.695	1679.85
751.879	1677.8
752.064	1671.65
752.248	1602.02
752.432	1700.33
752.617	1638.89
752.801	1685.99
752.985	1616.36
753.17	1702.37
753.354	1677.8
753.538	1581.54
753.722	1610.22
753.907	1528.3
754.091	1509.86
754.275	1460.71
754.459	1511.91
754.643	1485.29
754.828	1599.98
755.012	1552.87
755.196	1565.16
755.38	1466.86
755.564	1532.39
755.748	1411.56
755.932	1556.97
756.116	1417.71
756.3	1425.9
756.484	1403.37
756.668	1485.29
756.852	1403.37
757.036	1417.71
757.22	1325.55
757.404	1290.73
757.588	1346.03
757.772	1380.84
757.956	1362.41
758.14	1325.55
758.323	1356.27
758.507	1284.59
758.691	1343.98
758.875	1317.36
759.059	1317.36
759.242	1196.53
759.426	1284.59
759.61	1337.84
759.794	1276.4
759.977	1247.72
760.161	1317.36
760.345	1327.6
760.528	1239.53
760.712	1272.3
760.895	1241.58
761.079	1327.6
761.263	1161.71
761.446	1124.85
761.63	1214.96
761.813	1229.29
761.997	1174
762.18	1151.47
762.364	1165.81
762.547	1083.89
762.731	1065.46
762.914	1239.53
763.098	1198.57
763.281	1169.9
763.464	1130.99
763.648	1133.04
763.831	1085.94
764.015	1114.61
764.198	1159.66
764.381	1112.56
764.564	1118.7
764.748	1153.52
764.931	1102.32
765.114	1264.11
765.297	1180.14
765.481	1083.89
765.664	1071.6
765.847	1137.13
766.03	1130.99
766.213	1020.4
766.397	1124.85
766.58	1116.65
766.763	1055.22
766.946	1022.45
767.129	1106.42
767.312	1026.54
767.495	1008.11
767.678	1034.74
767.861	1034.74
768.044	1016.3
768.227	1042.93
768.41	987.63
768.593	1049.07
768.776	975.35
768.959	965.11
769.142	1055.22
769.324	1006.06
769.507	950.77
769.69	938.48
769.873	961.01
770.056	1040.88
770.239	950.77
770.421	963.06
770.604	913.91
770.787	911.86
770.97	899.57
771.152	909.81
771.335	973.3
771.518	868.85
771.7	1010.16
771.883	868.85
772.066	956.91
772.248	946.67
772.431	956.91
772.613	911.86
772.796	899.57
772.978	874.99
773.161	956.91
773.343	868.85
773.526	883.19
773.708	752.12
773.891	752.12
774.073	838.13
774.256	834.04
774.438	838.13
774.621	938.48
774.803	803.32
774.985	836.08
775.168	842.23
775.35	778.74
775.532	840.18
775.715	776.69
775.897	811.51
776.079	813.56
776.261	866.8
776.444	766.45
776.626	844.28
776.808	750.07
776.99	741.88
777.173	768.5
777.355	772.6
777.537	731.64
777.719	788.98
777.901	711.16
778.083	797.17
778.265	729.59
778.447	817.65
778.629	752.12
778.811	752.12
778.993	653.81
779.175	684.53
779.357	705.01
779.539	598.52
779.721	633.33
779.903	674.29
780.085	653.81
780.267	621.05
780.449	678.39
780.631	668.15
780.812	608.76
780.994	629.24
781.176	633.33
781.358	600.57
781.54	592.37
781.721	565.75
781.903	582.14
782.085	641.53
782.267	635.38
782.448	608.76
782.63	530.94
782.812	537.08
782.993	639.48
783.175	557.56
783.357	504.31
783.538	600.57
783.72	580.09
783.901	547.32
784.083	614.9
784.264	580.09
784.446	539.13
784.627	524.79
784.809	528.89
784.99	537.08
785.172	598.52
785.353	492.02
785.535	408.06
785.716	561.66
785.897	496.12
786.079	487.93
786.26	444.92
786.441	508.41
786.623	543.22
786.804	485.88
786.985	510.46
787.167	473.59
787.348	496.12
787.529	580.09
787.71	502.26
787.891	500.22
788.073	426.49
788.254	449.02
788.435	498.17
788.616	420.35
788.797	420.35
788.978	492.02
789.159	338.43
789.34	424.44
789.522	399.87
789.703	387.58
789.884	336.38
790.065	436.73
790.246	412.15
790.427	408.06
790.607	393.72
790.788	422.39
790.969	410.11
791.15	449.02
791.331	397.82
791.512	350.71
791.693	352.76
791.874	334.33
792.054	406.01
792.235	332.28
792.416	340.47
792.597	420.35
792.778	358.91
792.958	377.34
793.139	352.76
793.32	313.85
793.5	297.47
793.681	305.66
793.862	401.91
794.042	356.86
794.223	338.43
794.404	283.13
794.584	440.83
794.765	358.91
794.945	395.77
795.126	307.71
795.306	336.38
795.487	346.62
795.667	383.48
795.848	256.51
796.028	369.15
796.209	379.39
796.389	322.04
796.57	295.42
796.75	295.42
796.93	309.76
797.111	264.7
797.291	350.71
797.471	293.37
797.652	236.03
797.832	305.66
798.012	313.85
798.192	336.38
798.373	322.04
798.553	262.65
798.733	262.65
798.913	260.6
799.093	205.31
799.274	262.65
799.454	287.23
799.634	342.52
799.814	291.32
799.994	332.28
800.174	303.61
800.354	248.32
800.534	285.18
800.714	262.65
800.894	326.14
801.074	219.64
801.254	322.04
801.434	291.32
801.614	246.27
801.794	268.8
801.974	623.09
802.154	199.16
802.334	227.84
802.514	250.36
802.693	231.93
802.873	303.61
803.053	248.32
803.233	225.79
803.413	213.5
803.592	262.65
803.772	240.12
803.952	264.7
804.131	190.97
804.311	231.93
804.491	229.88
804.67	193.02
804.85	184.83
805.03	252.41
805.209	250.36
805.389	203.26
805.568	182.78
805.748	254.46
805.928	143.87
806.107	211.45
806.287	186.88
806.466	227.84
806.646	199.16
806.825	233.98
807.004	229.88
807.184	184.83
807.363	248.32
807.543	154.11
807.722	215.55
807.901	291.32
808.081	233.98
808.26	264.7
808.439	215.55
808.619	223.74
808.798	127.49
808.977	242.17
809.156	248.32
809.336	227.84
809.515	285.18
809.694	240.12
809.873	209.4
810.052	227.84
810.231	281.08
810.411	178.69
810.59	274.94
810.769	244.22
810.948	186.88
811.127	168.45
811.306	297.47
811.485	143.87
811.664	233.98
811.843	197.12
812.022	195.07
812.201	150.01
812.38	244.22
812.559	150.01
812.737	164.35
812.916	119.29
813.095	143.87
813.274	164.35
813.453	113.15
813.632	139.77
813.811	141.82
813.989	104.96
814.168	125.44
814.347	188.93
814.526	143.87
814.704	184.83
814.883	242.17
815.062	129.53
815.24	178.69
815.419	166.4
815.598	160.25
815.776	133.63
815.955	102.91
816.133	98.81
816.312	213.5
816.49	186.88
816.669	227.84
816.847	143.87
817.026	150.01
817.204	152.06
817.383	150.01
817.561	131.58
817.74	190.97
817.918	164.35
818.097	168.45
818.275	117.25
818.453	172.54
818.632	135.68
818.81	131.58
818.988	160.25
819.167	137.73
819.345	117.25
819.523	147.97
819.701	98.81
819.879	80.38
820.058	145.92
820.236	127.49
820.414	137.73
820.592	150.01
820.77	117.25
820.948	102.91
821.127	102.91
821.305	51.71
821.483	78.33
821.661	168.45
821.839	102.91
822.017	147.97
822.195	150.01
822.373	135.68
822.551	117.25
822.729	98.81
822.907	137.73
823.085	154.11
823.262	76.29
823.44	133.63
823.618	92.67
823.796	160.25
823.974	92.67
824.152	39.42
824.329	14.85
824.507	170.49
824.685	102.91
824.863	49.66
825.04	53.76
825.218	147.97
825.396	147.97
825.574	119.29
825.751	76.29
825.929	143.87
826.107	96.77
826.284	68.09
826.462	139.77
826.639	57.86
826.817	156.16
826.994	131.58
827.172	47.62
827.349	96.77
827.527	23.04
827.704	117.25
827.882	104.96
828.059	125.44
828.237	104.96
828.414	158.21
828.591	72.19
828.769	82.43
828.946	127.49
829.124	96.77
829.301	107.01
829.478	113.15
829.655	98.81
829.833	90.62
830.01	113.15
830.187	41.47
830.364	43.52
830.542	80.38
830.719	139.77
830.896	113.15
831.073	111.1
831.25	129.53
831.427	59.9
831.604	111.1
831.782	33.28
831.959	92.67
832.136	127.49
832.313	49.66
832.49	127.49
832.667	84.48
832.844	4.61
833.021	152.06
833.198	66.05
833.374	102.91
833.551	80.38
833.728	107.01
833.905	23.04
834.082	45.57
834.259	74.24
834.436	57.86
834.612	178.69
834.789	115.2
834.966	55.81
835.143	135.68
835.319	55.81
835.496	41.47
835.673	10.75
835.85	31.23
836.026	23.04
836.203	8.7
836.38	-40.45
836.556	76.29
836.733	72.19
836.909	66.05
837.086	88.57
837.262	68.09
837.439	39.42
837.616	49.66
837.792	74.24
837.968	96.77
838.145	53.76
838.321	27.14
838.498	98.81
838.674	64
838.851	47.62
839.027	102.91
839.203	96.77
839.38	72.19
839.556	31.23
839.732	47.62
839.909	61.95
840.085	47.62
840.261	47.62
840.437	68.09
840.614	29.18
840.79	84.48
840.966	137.73
841.142	109.05
841.318	61.95
841.494	100.86
841.671	55.81
841.847	-32.26
842.023	64
842.199	86.53
842.375	23.04
842.551	6.66
842.727	57.86
842.903	64
843.079	37.38
843.255	66.05
843.431	35.33
843.607	0.51
843.783	98.81
843.959	47.62
844.134	96.77
844.31	-28.16
844.486	-5.63
844.662	102.91
844.838	43.52
845.013	74.24
845.189	-1.54
845.365	68.09
845.541	80.38
845.716	59.9
845.892	29.18
846.068	82.43
846.244	29.18
846.419	102.91
846.595	74.24
846.77	66.05
846.946	27.14
847.122	53.76
847.297	64
847.473	53.76
847.648	43.52
847.824	45.57
847.999	70.14
848.175	53.76
848.35	70.14
848.526	47.62
848.701	55.81
848.876	66.05
849.052	-5.63
849.227	-1.54
849.403	47.62
849.578	74.24
849.753	80.38
849.929	33.28
850.104	-13.82
850.279	-56.83
850.454	25.09
850.63	53.76
850.805	2.56
850.98	74.24
851.155	96.77
851.33	72.19
851.505	113.15
851.681	41.47
851.856	-1.54
852.031	49.66
852.206	45.57
852.381	12.8
852.556	2.56
852.731	25.09
852.906	-32.26
853.081	-46.59
853.256	39.42
853.431	-7.68
853.606	-24.06
853.781	23.04
853.956	-22.02
854.131	64
854.305	4.61
854.48	55.81
854.655	76.29
854.83	76.29
855.005	29.18
855.18	57.86
855.354	12.8
855.529	68.09
855.704	-56.83
855.879	80.38
856.053	12.8
856.228	90.62
856.403	29.18
856.577	55.81
856.752	68.09
856.926	23.04
857.101	4.61
857.276	53.76
857.45	47.62
857.625	61.95
857.799	33.28
857.974	29.18
858.148	-38.4
858.323	29.18
858.497	20.99
858.672	45.57
858.846	-15.87
859.02	35.33
859.195	4.61
859.369	14.85
859.543	16.9
859.718	-9.73
859.892	-1.54
860.066	10.75
860.241	47.62
860.415	-71.17
860.589	2.56
860.763	-22.02
860.938	-26.11
861.112	39.42
861.286	-9.73
861.46	0.51
861.634	84.48
861.808	-5.63
861.982	4.61
862.157	51.71
862.331	18.94
862.505	43.52
862.679	0.51
862.853	-28.16
863.027	12.8
863.201	70.14
863.375	64
863.549	-40.45
863.722	18.94
863.896	47.62
864.07	27.14
864.244	33.28
864.418	2.56
864.592	0.51
864.766	-17.92
864.939	14.85
865.113	31.23
865.287	29.18
865.461	-19.97
865.634	-17.92
865.808	-1.54
865.982	59.9
866.156	-5.63
866.329	20.99
866.503	23.04
866.676	29.18
866.85	55.81
867.024	6.66
867.197	-19.97
867.371	33.28
867.544	25.09
867.718	-9.73
867.891	29.18
868.065	35.33
868.238	31.23
868.412	76.29
868.585	8.7
868.759	-28.16
868.932	12.8
869.105	49.66
869.279	2.56
869.452	29.18
869.625	47.62
869.799	16.9
869.972	14.85
870.145	0.51
870.319	49.66
870.492	74.24
870.665	18.94
870.838	23.04
871.011	-17.92
871.185	125.44
871.358	-7.68
871.531	45.57
871.704	29.18
871.877	-19.97
872.05	25.09
872.223	68.09
872.396	-3.58
872.569	53.76
872.742	-13.82
872.915	68.09
873.088	29.18
873.261	-11.78
873.434	8.7
873.607	41.47
873.78	2.56
873.953	-28.16
874.126	39.42
874.299	-50.69
874.471	-44.54
874.644	-17.92
874.817	18.94
874.99	18.94
875.163	-132.61
875.335	47.62
875.508	0.51
875.681	18.94
875.853	-24.06
876.026	25.09
876.199	-17.92
876.371	72.19
876.544	35.33
876.717	-24.06
876.889	-9.73
877.062	-3.58
877.234	23.04
877.407	66.05
877.579	-9.73
877.752	-40.45
877.924	-22.02
878.097	55.81
878.269	-3.58
878.442	41.47
878.614	-40.45
878.786	-11.78
878.959	20.99
879.131	6.66
879.303	-44.54
879.476	-24.06
879.648	-32.26
879.82	-38.4
879.993	55.81
880.165	-65.02
880.337	23.04
880.509	31.23
880.681	10.75
880.854	4.61
881.026	12.8
881.198	47.62
881.37	12.8
881.542	35.33
881.714	-22.02
881.886	-52.74
882.058	16.9
882.23	-17.92
882.402	-28.16
882.574	-17.92
882.746	47.62
882.918	61.95
883.09	2.56
883.262	-34.3
883.434	-17.92
883.606	-30.21
883.778	-52.74
883.95	-50.69
884.122	10.75
884.293	39.42
884.465	-17.92
884.637	23.04
884.809	-60.93
884.98	66.05
885.152	-1.54
885.324	64
885.496	-52.74
885.667	6.66
885.839	31.23
886.011	2.56
886.182	-9.73
886.354	-30.21
886.525	53.76
886.697	43.52
886.869	-9.73
887.04	47.62
887.212	31.23
887.383	-3.58
887.555	2.56
887.726	14.85
887.897	-67.07
888.069	70.14
888.24	53.76
888.412	59.9
888.583	27.14
888.754	-46.59
888.926	-83.45
889.097	43.52
889.268	-24.06
889.44	-7.68
889.611	16.9
889.782	-112.13
889.953	-87.55
890.125	-1.54
890.296	45.57
890.467	-69.12
890.638	12.8
890.809	70.14
890.98	10.75
891.151	41.47
891.323	-7.68
891.494	57.86
891.665	43.52
891.836	-34.3
892.007	-32.26
892.178	6.66
892.349	-3.58
892.52	2.56
892.691	100.86
892.862	-7.68
893.032	-22.02
893.203	66.05
893.374	14.85
893.545	-15.87
893.716	-77.31
893.887	51.71
894.057	-3.58
894.228	51.71
894.399	16.9
894.57	96.77
894.74	-60.93
894.911	-58.88
895.082	-7.68
895.253	-34.3
895.423	-54.78
895.594	-1.54
895.764	23.04
895.935	-30.21
896.106	-46.59
896.276	-42.5
896.447	4.61
896.617	70.14
896.788	-9.73
896.958	-62.98
897.129	-1.54
897.299	27.14
897.47	16.9
897.64	39.42
897.81	-13.82
897.981	-3.58
898.151	23.04
898.322	-3.58
898.492	12.8
898.662	-5.63
898.832	-3.58
899.003	25.09
899.173	88.57
899.343	-26.11
899.513	-22.02
