Data from USB4F104151__12__11-04-41-355.txt Node

Date: Wed Mar 12 11:04:41 EDT 2025
User: louis
Spectrometer: USB4F10415
Trigger mode: 4
Integration Time (sec): 2.000000E-2
Scans to average: 1
Electric dark correction enabled: true
Nonlinearity correction enabled: false
Boxcar width: 0
XAxis mode: Wavelengths
Number of Pixels in Spectrum: 3648
>>>>>Begin Spectral Data<<<<<
178.204	-69.46
178.424	-69.46
178.644	-69.46
178.864	-18.26
179.084	-91.99
179.304	-36.69
179.524	6.31
179.744	-34.64
179.964	-8.02
180.184	49.32
180.404	4.27
180.624	12.46
180.844	-53.08
181.064	-59.22
181.283	-3.93
181.503	53.42
181.723	69.8
181.943	-40.79
182.163	8.36
182.383	2.22
182.602	39.08
182.822	20.65
183.042	92.33
183.262	8.36
183.482	77.99
183.701	-40.79
183.921	34.99
184.141	10.41
184.361	45.23
184.58	30.89
184.8	16.55
185.02	-3.93
185.239	71.85
185.459	-12.12
185.679	51.37
185.898	16.55
186.118	32.94
186.338	-24.4
186.557	82.09
186.777	-46.93
186.997	6.31
187.216	0.17
187.436	18.6
187.655	2.22
187.875	20.65
188.095	-42.84
188.314	22.7
188.534	90.28
188.753	26.79
188.973	71.85
189.192	-12.12
189.412	28.84
189.631	37.03
189.851	69.8
190.07	6.31
190.29	-5.97
190.509	37.03
190.729	-40.79
190.948	53.42
191.168	82.09
191.387	45.23
191.607	-3.93
191.826	-26.45
192.045	16.55
192.265	22.7
192.484	4.27
192.704	51.37
192.923	-40.79
193.142	10.41
193.362	24.75
193.581	16.55
193.8	-12.12
194.02	53.42
194.239	-81.75
194.458	34.99
194.678	28.84
194.897	34.99
195.116	24.75
195.335	57.51
195.555	6.31
195.774	-10.07
195.993	22.7
196.212	84.14
196.432	32.94
196.651	20.65
196.87	-46.93
197.089	57.51
197.308	30.89
197.528	-30.55
197.747	24.75
197.966	24.75
198.185	45.23
198.404	32.94
198.623	-5.97
198.842	32.94
199.062	4.27
199.281	16.55
199.5	51.37
199.719	8.36
199.938	170.15
200.157	-12.12
200.376	39.08
200.595	71.85
200.814	-24.4
201.033	90.28
201.252	37.03
201.471	88.23
201.69	43.18
201.909	18.6
202.128	-38.74
202.347	-5.97
202.566	-48.98
202.785	-5.97
203.004	22.7
203.223	84.14
203.442	34.99
203.661	45.23
203.879	-36.69
204.098	12.46
204.317	24.75
204.536	65.71
204.755	-5.97
204.974	32.94
205.193	39.08
205.411	168.1
205.63	0.17
205.849	37.03
206.068	53.42
206.287	16.55
206.505	41.13
206.724	-51.03
206.943	4.27
207.162	24.75
207.381	28.84
207.599	12.46
207.818	0.17
208.037	77.99
208.255	6.31
208.474	20.65
208.693	63.66
208.911	51.37
209.13	43.18
209.349	37.03
209.567	67.75
209.786	47.27
210.005	28.84
210.223	-22.36
210.442	-24.4
210.661	61.61
210.879	-46.93
211.098	84.14
211.316	47.27
211.535	14.51
211.753	-30.55
211.972	67.75
212.191	26.79
212.409	8.36
212.628	45.23
212.846	41.13
213.065	30.89
213.283	139.43
213.502	75.95
213.72	88.23
213.938	102.57
214.157	-16.21
214.375	18.6
214.594	-16.21
214.812	30.89
215.031	20.65
215.249	-14.17
215.467	37.03
215.686	51.37
215.904	39.08
216.122	-1.88
216.341	49.32
216.559	28.84
216.778	73.9
216.996	-26.45
217.214	51.37
217.432	49.32
217.651	-44.88
217.869	57.51
218.087	-42.84
218.306	20.65
218.524	28.84
218.742	34.99
218.96	43.18
219.179	-16.21
219.397	75.95
219.615	43.18
219.833	-12.12
220.051	-36.69
220.27	20.65
220.488	-46.93
220.706	41.13
220.924	-16.21
221.142	53.42
221.36	-26.45
221.578	28.84
221.796	28.84
222.015	51.37
222.233	12.46
222.451	129.19
222.669	-8.02
222.887	67.75
223.105	61.61
223.323	18.6
223.541	41.13
223.759	59.56
223.977	-12.12
224.195	77.99
224.413	82.09
224.631	94.38
224.849	49.32
225.067	49.32
225.285	20.65
225.503	18.6
225.721	59.56
225.939	-12.12
226.157	18.6
226.375	98.47
226.592	-3.93
226.81	6.31
227.028	-16.21
227.246	49.32
227.464	12.46
227.682	47.27
227.9	59.56
228.117	-20.31
228.335	47.27
228.553	-10.07
228.771	65.71
228.989	32.94
229.206	37.03
229.424	-10.07
229.642	22.7
229.86	37.03
230.077	88.23
230.295	75.95
230.513	14.51
230.731	32.94
230.948	34.99
231.166	53.42
231.384	-14.17
231.601	24.75
231.819	55.47
232.037	39.08
232.254	20.65
232.472	59.56
232.689	0.17
232.907	73.9
233.125	77.99
233.342	6.31
233.56	-46.93
233.777	14.51
233.995	75.95
234.213	43.18
234.43	-20.31
234.648	108.71
234.865	34.99
235.083	49.32
235.3	-3.93
235.518	-26.45
235.735	4.27
235.953	24.75
236.17	53.42
236.388	45.23
236.605	-30.55
236.822	77.99
237.04	-20.31
237.257	47.27
237.475	-12.12
237.692	47.27
237.909	63.66
238.127	12.46
238.344	28.84
238.562	77.99
238.779	12.46
238.996	6.31
239.214	-24.4
239.431	-12.12
239.648	14.51
239.865	28.84
240.083	110.76
240.3	47.27
240.517	-36.69
240.735	4.27
240.952	84.14
241.169	32.94
241.386	0.17
241.603	65.71
241.821	-32.6
242.038	28.84
242.255	71.85
242.472	18.6
242.689	55.47
242.907	151.72
243.124	63.66
243.341	14.51
243.558	45.23
243.775	75.95
243.992	0.17
244.209	24.75
244.426	16.55
244.643	-10.07
244.86	57.51
245.078	-5.97
245.295	102.57
245.512	108.71
245.729	-57.17
245.946	90.28
246.163	106.67
246.38	45.23
246.597	8.36
246.814	53.42
247.031	94.38
247.248	49.32
247.464	-30.55
247.681	45.23
247.898	8.36
248.115	43.18
248.332	26.79
248.549	80.04
248.766	67.75
248.983	102.57
249.2	10.41
249.417	-10.07
249.633	26.79
249.85	55.47
250.067	51.37
250.284	2.22
250.501	24.75
250.717	77.99
250.934	-73.56
251.151	-69.46
251.368	-8.02
251.585	26.79
251.801	121
252.018	-30.55
252.235	24.75
252.451	43.18
252.668	20.65
252.885	28.84
253.102	30.89
253.318	30.89
253.535	26.79
253.752	-16.21
253.968	-57.17
254.185	22.7
254.401	18.6
254.618	12.46
254.835	61.61
255.051	125.1
255.268	32.94
255.484	-3.93
255.701	14.51
255.917	4.27
256.134	24.75
256.351	-24.4
256.567	-8.02
256.784	108.71
257	10.41
257.217	90.28
257.433	37.03
257.65	75.95
257.866	4.27
258.082	0.17
258.299	-14.17
258.515	14.51
258.732	75.95
258.948	32.94
259.165	22.7
259.381	65.71
259.597	65.71
259.814	-5.97
260.03	47.27
260.246	24.75
260.463	28.84
260.679	53.42
260.895	55.47
261.112	55.47
261.328	2.22
261.544	6.31
261.761	94.38
261.977	139.43
262.193	32.94
262.409	67.75
262.626	92.33
262.842	37.03
263.058	-16.21
263.274	10.41
263.49	-16.21
263.707	110.76
263.923	-5.97
264.139	84.14
264.355	-12.12
264.571	0.17
264.787	22.7
265.004	77.99
265.22	20.65
265.436	110.76
265.652	-3.93
265.868	100.52
266.084	69.8
266.3	92.33
266.516	34.99
266.732	65.71
266.948	41.13
267.164	-5.97
267.38	100.52
267.596	51.37
267.812	104.62
268.028	69.8
268.244	-18.26
268.46	-5.97
268.676	-12.12
268.892	49.32
269.108	6.31
269.324	43.18
269.54	69.8
269.756	90.28
269.972	80.04
270.188	43.18
270.403	43.18
270.619	63.66
270.835	-53.08
271.051	-12.12
271.267	-57.17
271.483	8.36
271.698	112.81
271.914	71.85
272.13	-16.21
272.346	43.18
272.562	63.66
272.777	57.51
272.993	96.43
273.209	28.84
273.425	80.04
273.64	-53.08
273.856	18.6
274.072	18.6
274.287	14.51
274.503	41.13
274.719	0.17
274.934	57.51
275.15	4.27
275.366	-24.4
275.581	8.36
275.797	32.94
276.012	16.55
276.228	-10.07
276.444	22.7
276.659	129.19
276.875	16.55
277.09	63.66
277.306	28.84
277.521	45.23
277.737	22.7
277.952	86.19
278.168	108.71
278.383	53.42
278.599	32.94
278.814	51.37
279.03	28.84
279.245	92.33
279.461	20.65
279.676	94.38
279.892	88.23
280.107	57.51
280.322	16.55
280.538	20.65
280.753	24.75
280.969	-12.12
281.184	4.27
281.399	73.9
281.615	75.95
281.83	-5.97
282.045	6.31
282.26	-20.31
282.476	-12.12
282.691	-24.4
282.906	106.67
283.122	20.65
283.337	34.99
283.552	75.95
283.767	-12.12
283.983	47.27
284.198	65.71
284.413	18.6
284.628	10.41
284.843	67.75
285.058	0.17
285.274	28.84
285.489	-44.88
285.704	51.37
285.919	39.08
286.134	59.56
286.349	28.84
286.564	16.55
286.779	-32.6
286.995	16.55
287.21	-8.02
287.425	133.29
287.64	-1.88
287.855	84.14
288.07	24.75
288.285	51.37
288.5	43.18
288.715	41.13
288.93	37.03
289.145	61.61
289.36	51.37
289.575	8.36
289.79	61.61
290.004	4.27
290.219	65.71
290.434	-10.07
290.649	18.6
290.864	63.66
291.079	-32.6
291.294	45.23
291.509	24.75
291.724	45.23
291.938	16.55
292.153	123.05
292.368	51.37
292.583	47.27
292.798	-22.36
293.012	4.27
293.227	53.42
293.442	-1.88
293.657	-8.02
293.871	86.19
294.086	94.38
294.301	55.47
294.516	-24.4
294.73	28.84
294.945	28.84
295.16	-12.12
295.374	8.36
295.589	24.75
295.804	-34.64
296.018	-5.97
296.233	-3.93
296.447	-8.02
296.662	20.65
296.877	24.75
297.091	94.38
297.306	86.19
297.52	-20.31
297.735	39.08
297.949	30.89
298.164	14.51
298.378	4.27
298.593	-3.93
298.807	63.66
299.022	75.95
299.236	24.75
299.451	26.79
299.665	114.86
299.88	59.56
300.094	55.47
300.309	106.67
300.523	34.99
300.737	45.23
300.952	53.42
301.166	118.95
301.381	4.27
301.595	8.36
301.809	77.99
302.024	37.03
302.238	8.36
302.452	43.18
302.667	-14.17
302.881	94.38
303.095	84.14
303.309	63.66
303.524	18.6
303.738	43.18
303.952	37.03
304.166	45.23
304.381	30.89
304.595	86.19
304.809	98.47
305.023	43.18
305.237	59.56
305.452	102.57
305.666	30.89
305.88	18.6
306.094	51.37
306.308	116.9
306.522	51.37
306.736	137.38
306.95	67.75
307.164	53.42
307.379	53.42
307.593	63.66
307.807	84.14
308.021	82.09
308.235	55.47
308.449	32.94
308.663	20.65
308.877	47.27
309.091	45.23
309.305	28.84
309.519	28.84
309.733	24.75
309.947	77.99
310.161	37.03
310.374	12.46
310.588	65.71
310.802	47.27
311.016	39.08
311.23	98.47
311.444	71.85
311.658	75.95
311.872	65.71
312.085	118.95
312.299	37.03
312.513	75.95
312.727	112.81
312.941	94.38
313.154	45.23
313.368	57.51
313.582	63.66
313.796	47.27
314.009	114.86
314.223	12.46
314.437	131.24
314.651	53.42
314.864	28.84
315.078	75.95
315.292	30.89
315.505	2.22
315.719	4.27
315.933	59.56
316.146	-16.21
316.36	28.84
316.573	102.57
316.787	112.81
317.001	34.99
317.214	34.99
317.428	77.99
317.641	30.89
317.855	69.8
318.068	65.71
318.282	32.94
318.495	28.84
318.709	22.7
318.922	28.84
319.136	16.55
319.349	20.65
319.563	43.18
319.776	20.65
319.99	22.7
320.203	53.42
320.417	61.61
320.63	67.75
320.843	88.23
321.057	92.33
321.27	30.89
321.483	65.71
321.697	49.32
321.91	123.05
322.124	51.37
322.337	77.99
322.55	47.27
322.763	37.03
322.977	-3.93
323.19	102.57
323.403	22.7
323.617	12.46
323.83	67.75
324.043	32.94
324.256	61.61
324.469	55.47
324.683	69.8
324.896	41.13
325.109	65.71
325.322	49.32
325.535	55.47
325.748	102.57
325.962	110.76
326.175	-5.97
326.388	26.79
326.601	80.04
326.814	69.8
327.027	37.03
327.24	49.32
327.453	-53.08
327.666	57.51
327.879	94.38
328.092	69.8
328.305	65.71
328.518	71.85
328.731	37.03
328.944	80.04
329.157	16.55
329.37	129.19
329.583	123.05
329.796	24.75
330.009	12.46
330.222	55.47
330.435	47.27
330.648	49.32
330.861	28.84
331.073	22.7
331.286	71.85
331.499	59.56
331.712	45.23
331.925	-18.26
332.138	-44.88
332.35	102.57
332.563	75.95
332.776	110.76
332.989	30.89
333.202	57.51
333.414	94.38
333.627	43.18
333.84	51.37
334.053	24.75
334.265	39.08
334.478	34.99
334.691	51.37
334.903	53.42
335.116	65.71
335.329	86.19
335.541	73.9
335.754	88.23
335.966	10.41
336.179	51.37
336.392	37.03
336.604	-8.02
336.817	102.57
337.029	34.99
337.242	102.57
337.454	53.42
337.667	-1.88
337.88	121
338.092	55.47
338.305	6.31
338.517	-59.22
338.729	67.75
338.942	41.13
339.154	82.09
339.367	24.75
339.579	59.56
339.792	59.56
340.004	45.23
340.217	22.7
340.429	24.75
340.641	16.55
340.854	28.84
341.066	118.95
341.278	121
341.491	39.08
341.703	88.23
341.915	94.38
342.128	32.94
342.34	43.18
342.552	-1.88
342.764	88.23
342.977	34.99
343.189	34.99
343.401	39.08
343.613	-30.55
343.826	102.57
344.038	65.71
344.25	41.13
344.462	32.94
344.674	112.81
344.886	-16.21
345.099	90.28
345.311	49.32
345.523	55.47
345.735	39.08
345.947	51.37
346.159	59.56
346.371	47.27
346.583	77.99
346.795	-14.17
347.007	41.13
347.219	39.08
347.431	82.09
347.643	49.32
347.855	20.65
348.067	96.43
348.279	63.66
348.491	41.13
348.703	6.31
348.915	12.46
349.127	61.61
349.339	4.27
349.551	49.32
349.763	30.89
349.975	69.8
350.187	24.75
350.399	57.51
350.61	90.28
350.822	26.79
351.034	4.27
351.246	86.19
351.458	43.18
351.669	32.94
351.881	49.32
352.093	45.23
352.305	59.56
352.517	67.75
352.728	75.95
352.94	18.6
353.152	37.03
353.363	37.03
353.575	-5.97
353.787	82.09
353.999	47.27
354.21	98.47
354.422	37.03
354.633	28.84
354.845	63.66
355.057	28.84
355.268	75.95
355.48	49.32
355.692	41.13
355.903	55.47
356.115	26.79
356.326	45.23
356.538	43.18
356.749	69.8
356.961	-22.36
357.172	116.9
357.384	65.71
357.595	116.9
357.807	61.61
358.018	149.67
358.23	-20.31
358.441	88.23
358.653	180.39
358.864	16.55
359.075	16.55
359.287	22.7
359.498	112.81
359.709	0.17
359.921	104.62
360.132	-16.21
360.344	-14.17
360.555	112.81
360.766	61.61
360.977	59.56
361.189	55.47
361.4	10.41
361.611	106.67
361.823	92.33
362.034	28.84
362.245	14.51
362.456	57.51
362.667	34.99
362.879	32.94
363.09	82.09
363.301	69.8
363.512	-8.02
363.723	92.33
363.935	90.28
364.146	131.24
364.357	67.75
364.568	43.18
364.779	47.27
364.99	30.89
365.201	73.9
365.412	73.9
365.623	71.85
365.834	26.79
366.045	51.37
366.256	-24.4
366.467	71.85
366.678	139.43
366.889	106.67
367.1	-22.36
367.311	4.27
367.522	118.95
367.733	75.95
367.944	86.19
368.155	0.17
368.366	118.95
368.577	55.47
368.788	22.7
368.999	-10.07
369.209	41.13
369.42	77.99
369.631	129.19
369.842	53.42
370.053	125.1
370.264	131.24
370.474	73.9
370.685	28.84
370.896	73.9
371.107	100.52
371.317	26.79
371.528	77.99
371.739	55.47
371.95	59.56
372.16	-8.02
372.371	6.31
372.582	32.94
372.792	75.95
373.003	-22.36
373.214	61.61
373.424	28.84
373.635	39.08
373.846	196.78
374.056	114.86
374.267	12.46
374.477	84.14
374.688	73.9
374.898	88.23
375.109	12.46
375.319	-20.31
375.53	96.43
375.74	108.71
375.951	6.31
376.161	94.38
376.372	102.57
376.582	49.32
376.793	94.38
377.003	37.03
377.214	12.46
377.424	77.99
377.635	4.27
377.845	49.32
378.055	-3.93
378.266	61.61
378.476	77.99
378.686	86.19
378.897	116.9
379.107	71.85
379.317	94.38
379.528	26.79
379.738	77.99
379.948	94.38
380.158	94.38
380.369	100.52
380.579	106.67
380.789	-14.17
380.999	125.1
381.21	63.66
381.42	73.9
381.63	32.94
381.84	22.7
382.05	67.75
382.261	37.03
382.471	57.51
382.681	55.47
382.891	112.81
383.101	110.76
383.311	77.99
383.521	53.42
383.731	51.37
383.941	96.43
384.151	90.28
384.361	84.14
384.571	90.28
384.781	118.95
384.991	98.47
385.201	82.09
385.411	104.62
385.621	90.28
385.831	88.23
386.041	49.32
386.251	-12.12
386.461	102.57
386.671	26.79
386.881	73.9
387.091	90.28
387.301	110.76
387.511	4.27
387.72	102.57
387.93	69.8
388.14	39.08
388.35	92.33
388.56	61.61
388.769	69.8
388.979	59.56
389.189	82.09
389.399	39.08
389.609	88.23
389.818	71.85
390.028	92.33
390.238	168.1
390.447	131.24
390.657	49.32
390.867	90.28
391.076	108.71
391.286	8.36
391.496	127.14
391.705	112.81
391.915	34.99
392.125	131.24
392.334	88.23
392.544	77.99
392.753	14.51
392.963	133.29
393.172	59.56
393.382	90.28
393.591	125.1
393.801	123.05
394.01	151.72
394.22	127.14
394.429	176.3
394.639	180.39
394.848	110.76
395.058	139.43
395.267	104.62
395.477	73.9
395.686	98.47
395.895	188.58
396.105	182.44
396.314	82.09
396.524	102.57
396.733	98.47
396.942	143.53
397.152	178.34
397.361	127.14
397.57	127.14
397.78	151.72
397.989	147.62
398.198	123.05
398.407	151.72
398.617	151.72
398.826	135.34
399.035	100.52
399.244	151.72
399.453	125.1
399.663	88.23
399.872	178.34
400.081	198.82
400.29	254.12
400.499	159.91
400.708	178.34
400.917	166.06
401.127	131.24
401.336	166.06
401.545	164.01
401.754	202.92
401.963	252.07
402.172	143.53
402.381	153.77
402.59	114.86
402.799	98.47
403.008	102.57
403.217	202.92
403.426	202.92
403.635	221.35
403.844	204.97
404.053	143.53
404.262	268.45
404.471	239.78
404.68	229.54
404.888	161.96
405.097	223.4
405.306	231.59
405.515	221.35
405.724	237.74
405.933	260.26
406.142	241.83
406.35	252.07
406.559	262.31
406.768	301.22
406.977	311.46
407.185	295.08
407.394	274.6
407.603	190.63
407.812	317.61
408.02	352.42
408.229	352.42
408.438	221.35
408.646	356.52
408.855	381.09
409.064	301.22
409.272	385.19
409.481	360.61
409.69	381.09
409.898	456.87
410.107	413.86
410.315	454.82
410.524	319.65
410.733	444.58
410.941	463.01
411.15	506.02
411.358	534.69
411.567	514.21
411.775	542.88
411.984	544.93
412.192	467.11
412.401	616.61
412.609	731.3
412.818	704.67
413.026	669.86
413.234	669.86
413.443	766.11
413.651	809.12
413.86	827.55
414.068	817.31
414.276	856.22
414.485	841.89
414.693	962.72
414.901	913.56
415.11	1054.87
415.318	1026.2
415.526	983.2
415.734	1134.75
415.943	1001.63
416.151	1108.12
416.359	1171.61
416.567	1276.06
416.776	1208.47
416.984	1378.45
417.192	1396.89
417.4	1388.69
417.608	1319.06
417.817	1517.72
418.025	1628.31
418.233	1530
418.441	1673.36
418.649	1697.94
418.857	1763.47
419.065	1824.91
419.273	1867.92
419.481	2013.32
419.689	2134.15
419.897	2244.74
420.105	2357.38
420.313	2220.17
420.521	2322.57
420.729	2277.51
420.937	2445.45
421.145	2637.95
421.353	2715.78
421.561	2652.29
421.769	2719.87
421.977	2877.57
422.185	2871.42
422.393	3035.26
422.601	3256.44
422.809	3219.58
423.017	3350.65
423.224	3467.38
423.432	3573.88
423.64	3623.03
423.848	3934.32
424.056	3909.74
424.263	4171.88
424.471	4194.41
424.679	4251.75
424.887	4530.28
425.094	4538.47
425.302	4659.3
425.51	4847.71
425.718	4878.43
425.925	4939.87
426.133	5029.98
426.341	5396.57
426.548	5685.33
426.756	5705.81
426.964	5660.76
427.171	6146.12
427.379	6203.47
427.586	6514.76
427.794	6412.36
428.001	6883.39
428.209	7374.91
428.417	6969.41
428.624	7553.08
428.832	7319.61
429.039	7362.62
429.247	7544.89
429.454	8267.82
429.662	8824.87
429.869	8333.36
430.076	8900.64
430.284	8624.17
430.491	9113.63
430.699	9390.11
430.906	9367.58
431.114	9447.45
431.321	9781.27
431.528	10147.86
431.736	10686.47
431.943	11212.8
432.15	10809.35
432.358	11112.45
432.565	11616.25
432.772	11554.81
432.979	12218.35
433.187	12314.61
433.394	12652.52
433.601	13250.53
433.808	13400.03
434.016	13316.06
434.223	13920.21
434.43	14870.47
434.637	14657.48
434.844	15085.51
435.052	15665.08
435.259	15577.02
435.466	15697.85
435.673	15427.52
435.88	16650.16
436.087	17307.55
436.294	17459.1
436.501	17129.38
436.708	17332.13
436.915	17979.29
437.122	18861.96
437.329	18839.44
437.537	19296.13
437.743	19779.45
437.95	19404.67
438.157	20502.39
438.364	21360.48
438.571	21002.09
438.778	21213.03
438.985	23406.41
439.192	22419.28
439.399	23426.89
439.606	22714.19
439.813	23740.22
440.02	25337.64
440.227	25052.97
440.433	24440.63
440.64	25413.41
440.847	25534.25
441.054	26162.97
441.261	27834.11
441.467	27397.9
441.674	27760.39
441.881	29017.84
442.088	28722.93
442.294	28497.66
442.501	29419.24
442.708	29982.43
442.914	31510.22
443.121	32548.54
443.328	31710.92
443.534	34131.62
443.741	32949.94
443.948	32491.19
444.154	34821.78
444.361	34600.6
444.568	34879.13
444.774	35135.12
444.981	35350.16
445.187	36271.75
445.394	37516.91
445.6	37166.71
445.807	41055.8
446.013	38690.4
446.22	39800.4
446.426	41266.74
446.633	41713.2
446.839	42941.98
447.046	40896.06
447.252	43488.79
447.459	43480.6
447.665	43351.57
447.871	45209.08
448.078	46869.98
448.284	44938.75
448.491	45958.64
448.697	47791.57
448.903	48219.59
449.11	48117.2
449.316	47437.27
449.522	48477.64
449.728	49421.75
449.935	50359.72
450.141	49769.91
450.347	51064.22
450.553	49403.32
450.76	49642.93
450.966	50865.57
451.172	50890.15
451.378	52098.45
451.584	50976.16
451.791	52114.83
451.997	52063.63
452.203	52946.31
452.409	52608.39
452.615	52180.37
452.821	50253.23
453.027	49683.89
453.233	52280.72
453.44	49743.28
453.646	50480.55
453.852	50761.12
454.058	51586.46
454.264	49886.64
454.47	50638.25
454.676	49733.04
454.882	51254.68
455.088	46769.63
455.294	47433.17
455.5	47637.97
455.705	48068.05
455.911	46366.18
456.117	45495.8
456.323	45116.92
456.529	42169.9
456.735	44338.69
456.941	42841.63
457.147	42202.66
457.352	41608.75
457.558	40513.09
457.764	40521.28
457.97	39921.23
458.176	38936.15
458.381	38786.65
458.587	36886.14
458.793	36791.93
458.999	34977.43
459.204	37434.99
459.41	36509.31
459.616	34043.56
459.821	33982.12
460.027	33906.34
460.233	33490.6
460.438	31553.23
460.644	32089.79
460.85	30447.32
461.055	30338.78
461.261	29693.67
461.466	27537.16
461.672	26822.42
461.878	28987.12
462.083	27340.55
462.289	26691.35
462.494	26394.39
462.7	25009.97
462.905	24837.94
463.111	25136.94
463.316	24979.25
463.522	25014.06
463.727	25057.07
463.932	24813.36
464.138	24586.04
464.343	24756.02
464.549	23709.5
464.754	25005.87
464.959	24696.63
465.165	24358.71
465.37	23465.8
465.575	22724.43
465.781	23674.69
465.986	23947.07
466.191	22896.46
466.397	22689.62
466.602	21489.51
466.807	22300.5
467.012	22388.57
467.218	22034.27
467.423	21956.44
467.628	22153.05
467.833	22570.83
468.038	21948.25
468.244	21495.65
468.449	22441.81
468.654	21567.33
468.859	21456.74
469.064	21475.17
469.269	20729.71
469.474	20649.84
469.679	21120.87
469.885	20432.75
470.09	20981.61
470.295	20531.06
470.5	20051.83
470.705	20060.02
470.91	19867.52
471.115	19435.39
471.32	19879.8
471.525	19715.97
471.73	19216.26
471.935	19056.52
472.139	18411.41
472.344	18562.96
472.549	18591.63
472.754	18274.2
472.959	17887.13
473.164	17452.96
473.369	17338.27
473.574	17850.27
473.778	17649.57
473.983	17606.56
474.188	17514.4
474.393	16549.81
474.598	16687.02
474.802	16672.68
475.007	16633.77
475.212	16297.91
475.417	15796.15
475.621	15949.75
475.826	15701.95
476.031	15482.81
476.235	15290.31
476.44	15595.45
476.645	15232.96
476.849	15329.22
477.054	15149
477.259	14794.7
477.463	14880.71
477.668	14356.43
477.872	14696.39
478.077	14313.42
478.282	13971.41
478.486	14149.59
478.691	13805.53
478.895	14004.18
479.1	13760.47
479.304	13836.25
479.509	13574.11
479.713	13639.64
479.918	13336.54
480.122	13504.48
480.326	13363.17
480.531	13256.67
480.735	13139.94
480.94	13008.87
481.144	13676.51
481.348	12918.76
481.553	12853.22
481.757	12742.63
481.961	12834.79
482.166	13092.83
482.37	13254.62
482.574	12730.34
482.778	12851.17
482.983	13060.07
483.187	12869.61
483.391	12853.22
483.595	12931.05
483.8	12853.22
484.004	12947.43
484.208	13117.41
484.412	12562.41
484.616	12812.26
484.821	12867.56
485.025	12478.44
485.229	12845.03
485.433	12652.52
485.637	12826.6
485.841	12589.03
486.045	12705.77
486.249	12836.84
486.453	12752.87
486.657	12695.53
486.861	12982.24
487.065	12648.43
487.269	12847.08
487.473	12560.36
487.677	12953.57
487.881	12929
488.085	12793.83
488.289	12869.61
488.493	12754.92
488.697	13076.45
488.901	13025.25
489.105	12875.75
489.309	12900.33
489.512	12826.6
489.716	12873.7
489.92	12980.2
490.124	12939.24
490.328	12908.52
490.531	12963.81
490.735	13195.23
490.939	13184.99
491.143	13387.74
491.346	13127.65
491.55	13211.62
491.754	13404.13
491.958	13391.84
492.161	13557.72
492.365	13430.75
492.569	13258.72
492.772	13375.45
492.976	13551.58
493.18	13778.9
493.383	13834.2
493.587	13748.18
493.79	13942.74
493.994	13950.93
494.197	14176.21
494.401	14155.73
494.605	14362.58
494.808	14430.16
495.012	14614.48
495.215	14510.03
495.419	14690.25
495.622	14833.61
495.825	14708.68
496.029	15028.17
496.232	15308.74
496.436	15206.34
496.639	15837.11
496.843	15474.62
497.046	16054.2
497.249	16009.14
497.453	16101.3
497.656	16291.76
497.859	16424.88
498.063	16596.91
498.266	16943.02
498.469	16650.16
498.673	16979.88
498.876	17340.32
499.079	17495.97
499.282	17188.77
499.485	17383.33
499.689	17434.53
499.892	18255.76
500.095	18012.06
500.298	18628.49
500.501	18423.7
500.705	19052.42
500.908	19373.96
501.111	19466.11
501.314	19591.04
501.517	19638.14
501.72	19963.77
501.923	19775.36
502.126	20461.43
502.329	20914.03
502.532	20682.61
502.735	20983.66
502.938	21151.59
503.141	21536.61
503.344	21516.13
503.547	21800.8
503.75	22097.75
503.953	22538.07
504.156	22339.41
504.359	22765.39
504.562	22990.67
504.765	23281.48
504.968	23476.04
505.17	23973.69
505.373	23899.97
505.576	24246.07
505.779	24639.28
505.982	24739.63
506.185	25057.07
506.387	25188.14
506.59	25642.79
506.793	25823.01
506.996	25935.65
507.198	26386.2
507.401	26547.99
507.604	27043.6
507.807	27528.97
508.009	27522.82
508.212	27467.53
508.415	28167.93
508.617	28063.49
508.82	28362.49
509.022	28137.21
509.225	29251.31
509.428	29583.08
509.63	29552.36
509.833	29617.89
510.035	30514.91
510.238	30045.92
510.44	30334.68
510.643	31223.5
510.845	31235.79
511.048	31221.45
511.25	31856.32
511.453	32198.34
511.655	32884.4
511.858	32558.78
512.06	32915.12
512.262	33746.6
512.465	33169.07
512.667	33914.53
512.87	34313.89
513.072	34270.88
513.274	35069.59
513.477	35272.34
513.679	35569.29
513.881	35522.19
514.084	36238.98
514.286	36603.52
514.488	36486.78
514.69	36980.34
514.893	37762.67
515.095	37426.8
515.297	38282.85
515.499	38368.87
515.701	38542.94
515.904	39063.13
516.106	39360.08
516.308	39657.04
516.51	40521.28
516.712	40123.97
516.914	40326.72
517.116	41293.36
517.318	41508.4
517.52	41662
517.722	42073.64
517.925	42438.18
518.127	42710.56
518.329	42894.88
518.531	42866.2
518.733	43570.71
518.935	44178.95
519.136	43783.69
519.338	44707.33
519.54	44692.99
519.742	45540.85
519.944	45422.07
520.146	46202.35
520.348	46251.5
520.55	46634.47
520.752	46497.25
520.954	47769.04
521.155	47224.28
521.357	47592.92
521.559	47963.6
521.761	48729.54
521.963	48596.42
522.164	49341.88
522.366	49036.73
522.568	49444.28
522.77	49563.06
522.971	50341.29
523.173	50556.33
523.375	50789.8
523.576	50904.48
523.778	50742.69
523.98	51410.33
524.181	51707.29
524.383	52002.19
524.584	52583.82
524.786	52313.48
524.988	52381.07
525.189	52882.82
525.391	53233.02
525.592	53552.51
525.794	53562.75
525.995	53722.49
526.197	53847.41
526.398	54007.15
526.6	54556.01
526.801	54539.63
527.003	54904.16
527.204	54920.55
527.406	55342.43
527.607	55534.94
527.808	55790.94
528.01	55123.3
528.211	55438.68
528.412	56472.91
528.614	55924.05
528.815	56401.23
529.016	56411.47
529.218	55670.11
529.419	56186.19
529.62	56532.3
529.822	56429.9
530.023	56673.61
530.224	56470.86
530.425	56786.25
530.626	56431.95
530.828	56431.95
531.029	57228.61
531.23	56558.92
531.431	56671.56
531.632	57318.72
531.833	57435.45
532.035	57236.8
532.236	57232.71
532.437	57550.14
532.638	57126.21
532.839	57376.06
533.04	57652.54
533.241	56776.01
533.442	58326.32
533.643	57785.66
533.844	57955.64
534.045	57681.21
534.246	57470.27
534.447	57500.99
534.648	57730.36
534.849	57982.26
535.05	57349.44
535.251	57619.77
535.451	57623.87
535.652	57937.21
535.853	57769.27
536.054	57980.21
536.255	57926.97
536.456	57296.19
536.657	58023.22
536.857	57685.31
537.058	57472.32
537.259	58053.94
537.46	58012.98
537.66	57812.28
537.861	57613.63
538.062	57521.47
538.263	57920.82
538.463	57652.54
538.664	57177.41
538.865	57847.1
539.065	57861.43
539.266	57843
539.466	57982.26
539.667	57505.09
539.868	58180.91
540.068	57509.18
540.269	57847.1
540.469	58152.24
540.67	57406.78
540.87	57558.33
541.071	57640.25
541.271	58008.89
541.472	57830.71
541.672	57623.87
541.873	57400.64
542.073	56956.23
542.274	57838.9
542.474	57122.12
542.675	57240.9
542.875	58017.08
543.075	57302.34
543.276	57355.58
543.476	57525.56
543.676	57277.76
543.877	57603.39
544.077	57300.29
544.277	57488.7
544.478	57040.2
544.678	57525.56
544.878	56945.99
545.078	57369.92
545.279	57111.88
545.479	57058.63
545.679	57318.72
545.879	56866.12
546.079	57441.6
546.28	57120.07
546.48	56833.35
546.68	57128.26
546.88	57341.25
547.08	57378.11
547.28	57066.82
547.48	56456.53
547.68	57283.9
547.88	56733
548.081	57490.75
548.281	57050.44
548.481	56835.4
548.681	57582.91
548.881	56962.37
549.081	57228.61
549.28	56669.51
549.48	57064.77
549.68	56522.06
549.88	57331.01
550.08	56407.37
550.28	57079.11
550.48	56870.21
550.68	57052.48
550.88	56628.55
551.08	56884.55
551.279	56622.41
551.479	56202.58
551.679	56653.13
551.879	56493.39
552.079	56982.85
552.278	56790.34
552.478	56765.77
552.678	56483.15
552.878	56649.03
553.077	56771.91
553.277	56194.39
553.477	57056.58
553.676	56464.72
553.876	56161.62
554.076	55969.11
554.275	56044.88
554.475	55588.19
554.674	56440.14
554.874	56079.7
555.074	55922.01
555.273	56014.16
555.473	55903.57
555.672	55395.68
555.872	55827.8
556.071	56206.67
556.271	56243.54
556.47	55569.75
556.67	55479.64
556.869	55598.43
557.068	55500.12
557.268	55154.02
557.467	55260.51
557.667	55068
557.866	55510.36
558.065	55252.32
558.265	55352.67
558.464	54543.72
558.663	55440.73
558.863	54760.81
559.062	55262.56
559.261	54916.45
559.461	55297.37
559.66	54705.51
559.859	54883.69
560.058	54353.26
560.258	54474.09
560.457	53945.72
560.656	54871.4
560.855	54097.27
561.054	54308.21
561.253	54142.32
561.453	54320.49
561.652	54242.67
561.851	54338.93
562.05	53945.72
562.249	53615.99
562.448	54072.69
562.647	54238.58
562.846	53941.62
563.045	53587.32
563.244	53083.52
563.443	54029.68
563.642	52860.29
563.841	53022.08
564.04	53028.23
564.239	53368.19
564.438	52876.68
564.637	53460.35
564.836	52940.16
565.035	52592.01
565.234	52653.45
565.432	52299.15
565.631	51910.03
565.83	52446.6
566.029	52034.96
566.228	52092.3
566.427	52057.49
566.625	51621.27
566.824	51277.21
567.023	51721.62
567.222	51269.02
567.42	51772.82
567.619	51711.38
567.818	51488.15
568.016	51172.77
568.215	51783.06
568.414	50949.54
568.612	51750.29
568.811	50765.22
569.01	50978.21
569.208	50136.49
569.407	51129.76
569.605	50173.36
569.804	50869.67
570.002	50081.2
570.201	50492.84
570.4	49892.79
570.598	49780.15
570.797	49477.05
570.995	49878.45
571.193	49735.09
571.392	49911.22
571.59	49321.4
571.789	49051.07
571.987	48895.42
572.186	49450.42
572.384	48930.24
572.582	49192.38
572.781	49165.76
572.979	47963.6
573.177	48344.52
573.376	48526.79
573.574	48184.78
573.772	48405.96
573.971	48219.59
574.169	47750.61
574.367	47920.59
574.565	48000.46
574.763	47812.05
574.962	47611.35
575.16	47025.63
575.358	47576.53
575.556	46806.5
575.754	47484.37
575.952	46585.32
576.151	47338.97
576.349	46759.39
576.547	46763.49
576.745	46767.59
576.943	46847.46
577.141	46302.7
577.339	46251.5
577.537	46071.28
577.735	45872.62
577.933	45481.46
578.131	46364.14
578.329	45503.99
578.527	45454.84
578.725	45553.14
578.923	45487.6
579.121	45200.89
579.319	45166.07
579.516	45102.59
579.714	44996.09
579.912	45121.02
580.11	44611.07
580.308	44940.8
580.506	44967.42
580.704	43953.68
580.901	44381.7
581.099	44582.4
581.297	44312.07
581.495	43744.78
581.692	44154.38
581.89	43705.87
582.088	44129.8
582.285	43525.65
582.483	43607.57
582.681	43539.99
582.878	43351.57
583.076	42974.75
583.274	43351.57
583.471	42622.5
583.669	42825.25
583.866	42841.63
584.064	43163.16
584.262	42126.89
584.459	42851.87
584.657	42212.9
584.854	42595.87
585.052	41784.88
585.249	42051.11
585.447	42182.18
585.644	41813.55
585.841	41743.92
586.039	41719.34
586.236	41498.16
586.434	41162.29
586.631	41313.84
586.828	41750.06
587.026	40865.34
587.223	40953.4
587.42	40554.05
587.618	40775.23
587.815	40195.65
588.012	40531.52
588.21	40418.88
588.407	40832.57
588.604	40226.37
588.801	39917.13
588.999	40080.97
589.196	39652.94
589.393	39757.39
589.59	39366.23
589.787	39308.88
589.984	39040.6
590.182	38975.06
590.379	39513.68
590.576	38899.29
590.773	38889.05
590.97	38741.6
591.167	38843.99
591.364	38352.48
591.561	38633.05
591.758	38360.67
591.955	38346.34
592.152	38633.05
592.349	37977.7
592.546	38245.99
592.743	37826.15
592.94	37529.2
593.137	37492.33
593.334	37551.73
593.531	37174.9
593.727	37539.44
593.924	37471.85
594.121	37117.56
594.318	37101.17
594.515	36773.5
594.712	36982.39
594.908	36814.46
595.105	36777.59
595.302	36144.77
595.499	36089.48
595.696	36480.64
595.892	35808.9
596.089	36124.29
596.286	36208.26
596.482	36103.81
596.679	35980.93
596.876	35616.4
597.072	35769.99
597.269	35786.38
597.466	35296.91
597.662	35419.79
597.859	35106.45
598.055	35243.66
598.252	35055.25
598.448	34956.95
598.645	34666.14
598.841	34371.23
599.038	34596.51
599.234	34258.59
599.431	34141.86
599.627	33947.3
599.824	34346.65
600.02	33732.26
600.217	34315.94
600.413	33910.44
600.609	33990.31
600.806	33416.88
601.002	33898.15
601.198	33175.22
601.395	33390.25
601.591	33257.14
601.787	33050.29
601.984	33021.62
602.18	33478.32
602.376	32878.26
602.572	32708.28
602.769	32464.57
602.965	32331.45
603.161	32394.94
603.357	32384.7
603.553	32306.88
603.75	32542.39
603.946	32126.66
604.142	32136.9
604.338	31600.33
604.534	31846.08
604.73	31827.65
604.926	31602.38
605.122	31706.82
605.318	31225.55
605.514	31377.1
605.71	31305.42
605.906	30979.79
606.102	31157.97
606.298	31041.23
606.494	30824.15
606.69	31092.43
606.886	31164.11
607.082	30107.36
607.278	30811.86
607.474	30021.34
607.67	30602.97
607.866	30299.87
608.062	30654.17
608.257	30189.28
608.453	29970.15
608.649	29824.74
608.845	29986.53
609.041	30000.86
609.236	30133.98
609.432	29824.74
609.628	29896.42
609.824	29785.83
610.019	29718.25
610.215	29572.84
610.411	29726.44
610.606	29509.35
610.802	29681.38
610.998	29345.51
611.193	29361.9
611.389	29097.71
611.584	29114.09
611.78	28978.93
611.976	29122.29
612.171	28942.07
612.367	29042.42
612.562	29026.03
612.758	28555
612.953	28499.7
613.149	29142.77
613.344	28284.67
613.539	28956.4
613.735	28399.35
613.93	28808.95
614.126	28374.78
614.321	28813.04
614.517	28546.81
614.712	28395.26
614.907	27979.52
615.103	28309.24
615.298	27954.94
615.493	28688.12
615.688	28129.02
615.884	28313.34
616.079	27750.15
616.274	27688.71
616.47	27846.4
616.665	27987.71
616.86	27711.24
617.055	27657.99
617.25	27430.66
617.445	27645.7
617.641	27113.23
617.836	27647.75
618.031	27133.71
618.226	27334.41
618.421	27109.13
618.616	27137.8
618.811	26515.22
619.006	27109.13
619.201	26439.45
619.396	26834.71
619.591	25984.8
619.786	26740.5
619.981	26234.65
620.176	26494.74
620.371	25849.63
620.566	26212.12
620.761	25667.36
620.956	26089.24
621.151	25628.45
621.346	25573.16
621.541	25413.41
621.735	25736.99
621.93	24805.17
622.125	25249.58
622.32	24581.94
622.515	25042.73
622.709	24676.15
622.904	24684.34
623.099	24371
623.294	24839.98
623.488	24010.56
623.683	24153.91
623.878	23674.69
624.072	24133.43
624.267	23865.15
624.462	23443.27
624.656	23420.74
624.851	23772.99
625.046	23138.12
625.24	23144.27
625.435	23019.34
625.629	22556.5
625.824	22691.66
626.018	22665.04
626.213	21890.91
626.407	22662.99
626.602	22099.8
626.796	22390.61
626.991	21856.09
627.185	21913.44
627.38	21829.47
627.574	21737.31
627.768	21614.43
627.963	21415.78
628.157	21487.46
628.352	21194.6
628.546	21079.91
628.74	21325.67
628.935	20903.79
629.129	21096.3
629.323	20707.18
629.517	20543.35
629.712	20471.67
629.906	20361.08
630.1	20225.91
630.294	20486
630.489	20424.56
630.683	20236.15
630.877	19617.66
631.071	19531.65
631.265	19795.84
631.459	19564.42
631.653	19289.99
631.848	19539.84
632.042	19179.4
632.236	19318.66
632.43	18921.35
632.624	18980.75
632.818	18982.79
633.012	18730.89
633.206	18589.58
633.4	18868.11
633.594	18315.16
633.788	18386.83
633.982	18368.4
634.176	18206.61
634.369	18186.13
634.563	18149.27
634.757	17858.46
634.951	17516.45
635.145	17674.14
635.339	17774.49
635.533	17653.66
635.726	17567.65
635.92	17209.25
636.114	17295.27
636.308	17117.09
636.501	17285.03
636.695	17029.03
636.889	16973.74
637.083	16912.3
637.276	17051.56
637.47	16773.03
637.664	16629.68
637.857	16723.88
638.051	16523.18
638.244	16482.22
638.438	16168.88
638.632	16191.41
638.825	16093.11
639.019	15959.99
639.212	15761.34
639.406	15947.7
639.599	15724.47
639.793	15771.58
639.986	15648.7
640.18	15439.81
640.373	15335.36
640.567	15208.39
640.76	15312.83
640.954	15151.04
641.147	15323.07
641.34	14841.8
641.534	15026.12
641.727	14970.82
641.92	14778.31
642.114	14690.25
642.307	14737.35
642.5	14475.21
642.694	14047.19
642.887	14213.07
643.08	14274.51
643.273	14251.99
643.467	14198.74
643.66	13817.82
643.853	14086.1
644.046	13639.64
644.239	13897.69
644.432	13758.42
644.626	13897.69
644.819	13754.33
645.012	13590.49
645.205	13789.14
645.398	13498.33
645.591	13307.87
645.784	13371.36
645.977	13211.62
646.17	13076.45
646.363	12914.66
646.556	12920.81
646.749	12847.08
646.942	12795.88
647.135	12634.09
647.328	12857.32
647.521	12777.45
647.714	12353.52
647.907	12363.76
648.099	12679.15
648.292	12582.89
648.485	12210.16
648.678	12324.85
648.871	12161.01
649.064	11970.55
649.256	12353.52
649.449	11980.79
649.642	11991.03
649.835	11868.15
650.027	11859.96
650.22	11855.86
650.413	11632.63
650.605	11782.13
650.798	11546.62
650.991	11622.39
651.183	11610.11
651.376	11188.22
651.568	11300.86
651.761	11124.74
651.954	11282.43
652.146	11063.3
652.339	11036.67
652.531	11010.05
652.724	11014.15
652.916	10835.97
653.109	10971.14
653.301	10817.54
653.494	10772.49
653.686	10647.56
653.879	10655.75
654.071	10563.59
654.263	10487.82
654.456	10457.1
654.648	10407.95
654.84	10205.2
655.033	10465.29
655.225	10276.88
655.417	10348.56
655.61	10180.62
655.802	10174.48
655.994	10067.99
656.186	10043.41
656.379	10125.33
656.571	9867.28
656.763	9674.78
656.955	9736.21
657.148	9957.39
657.34	9746.45
657.532	9709.59
657.724	9701.4
657.916	9562.14
658.108	9441.31
658.3	9435.16
658.492	9406.49
658.684	9517.08
658.876	9166.88
659.068	9326.62
659.26	9310.24
659.452	9349.15
659.644	9060.38
659.836	9132.06
660.028	9074.72
660.22	8994.85
660.412	8978.47
660.604	8681.51
660.796	8765.48
660.988	8857.64
661.18	8716.33
661.372	8652.84
661.563	8712.23
661.755	8706.09
661.947	8407.08
662.139	8486.95
662.331	8419.37
662.522	8407.08
662.714	8398.89
662.906	8249.39
663.097	8407.08
663.289	8132.65
663.481	8273.96
663.673	8118.32
663.864	8099.89
664.056	8118.32
664.247	8067.12
664.439	7911.47
664.631	8050.74
664.822	7997.49
665.014	7923.76
665.205	7761.97
665.397	7659.57
665.588	7792.69
665.78	7858.23
665.971	7768.12
666.163	7860.27
666.354	7710.77
666.546	7819.32
666.737	7520.31
666.929	7381.05
667.12	7364.67
667.311	7360.57
667.503	7245.88
667.694	7379
667.885	7331.9
668.077	7227.45
668.268	7108.67
668.459	7247.93
668.651	7075.9
668.842	7155.77
669.033	7006.27
669.224	7020.61
669.416	7137.34
669.607	7008.32
669.798	6867.01
669.989	6797.38
670.18	7002.18
670.371	6781
670.563	6961.22
670.754	6836.29
670.945	6783.04
671.136	6758.47
671.327	6815.81
671.518	6858.82
671.709	6725.7
671.9	6711.36
672.091	6506.57
672.282	6500.42
672.473	6465.61
672.664	6539.33
672.855	6561.86
673.046	6424.65
673.237	6486.09
673.428	6260.81
673.619	6430.79
673.809	6291.53
674	6139.98
674.191	6338.63
674.382	6205.52
674.573	6361.16
674.764	6187.08
674.954	6232.14
675.145	6178.89
675.336	6150.22
675.527	6023.25
675.717	6148.17
675.908	6260.81
676.099	5963.86
676.289	6017.1
676.48	6008.91
676.671	5847.12
676.861	5908.56
677.052	5902.42
677.243	5873.75
677.433	5855.31
677.624	5963.86
677.814	5896.27
678.005	5869.65
678.195	5800.02
678.386	5910.61
678.576	5662.8
678.767	5603.41
678.957	5660.76
679.148	5779.54
679.338	5646.42
679.529	5687.38
679.719	5582.93
679.909	5804.11
680.1	5576.79
680.29	5714
680.481	5609.56
680.671	5625.94
680.861	5474.39
681.052	5468.25
681.242	5449.82
681.432	5707.86
681.622	5363.8
681.813	5613.65
682.003	5271.64
682.193	5400.66
682.383	5464.15
682.573	5558.36
682.764	5363.8
682.954	5378.14
683.144	5210.2
683.334	5349.47
683.524	5064.8
683.714	5349.47
683.904	5421.14
684.094	5322.84
684.284	5224.54
684.474	5173.34
684.664	5179.48
684.854	5085.28
685.044	5072.99
685.234	5093.47
685.424	5036.13
685.614	5199.96
685.804	5132.38
685.994	5105.76
686.184	5187.68
686.374	5107.8
686.564	4950.11
686.753	5064.8
686.943	5005.41
687.133	5005.41
687.323	4933.73
687.513	4886.62
687.702	5015.65
687.892	4886.62
688.082	4866.14
688.272	4849.76
688.461	4743.27
688.651	4788.32
688.841	4690.02
689.03	4690.02
689.22	4698.21
689.41	4657.25
689.599	4608.1
689.789	4677.73
689.979	4673.64
690.168	4571.24
690.358	4610.15
690.547	4530.28
690.737	4491.37
690.926	4618.34
691.116	4462.69
691.305	4495.46
691.495	4393.06
691.684	4599.91
691.874	4458.6
692.063	4503.65
692.252	4474.98
692.442	4286.57
692.631	4393.06
692.82	4368.49
693.01	4335.72
693.199	4362.34
693.388	4296.81
693.578	4227.18
693.767	4202.6
693.956	4257.9
694.146	4175.98
694.335	4235.37
694.524	4286.57
694.713	4337.77
694.902	4153.45
695.092	4202.6
695.281	4024.43
695.47	4210.79
695.659	4073.58
695.848	4069.48
696.037	4040.81
696.226	4044.91
696.415	4079.72
696.604	4044.91
696.793	3911.79
696.982	3981.42
697.171	3983.47
697.36	3909.74
697.549	3813.49
697.738	3909.74
697.927	4061.29
698.116	3991.66
698.305	4038.77
698.494	3967.09
698.683	3842.16
698.872	3907.7
699.061	4042.86
699.25	3997.81
699.438	3823.73
699.627	3962.99
699.816	3858.54
700.005	3856.5
700.193	3856.5
700.382	3862.64
700.571	3956.85
700.76	3819.63
700.948	3911.79
701.137	3776.63
701.326	3901.55
701.514	3747.95
701.703	3831.92
701.892	3856.5
702.08	3715.19
702.269	3876.98
702.457	3717.23
702.646	3793.01
702.834	3606.64
703.023	3766.39
703.212	3852.4
703.4	3821.68
703.589	3676.27
703.777	3735.67
703.965	3762.29
704.154	3719.28
704.342	3735.67
704.531	3809.39
704.719	3717.23
704.907	3725.43
705.096	3704.95
705.284	3639.41
705.472	3750
705.661	3618.93
705.849	3823.73
706.037	3614.84
706.226	3639.41
706.414	3823.73
706.602	3666.03
706.79	3633.27
706.979	3668.08
707.167	3661.94
707.355	3635.32
707.543	3575.92
707.731	3547.25
707.919	3559.54
708.107	3633.27
708.296	3530.87
708.484	3526.77
708.672	3528.82
708.86	3663.99
709.048	3645.56
709.236	3610.74
709.424	3440.76
709.612	3610.74
709.8	3487.86
709.988	3547.25
710.176	3487.86
710.364	3500.15
710.551	3530.87
710.739	3367.03
710.927	3424.37
711.115	3379.32
711.303	3553.4
711.491	3502.2
711.679	3436.66
711.866	3512.44
712.054	3508.34
712.242	3330.17
712.43	3537.01
712.617	3477.62
712.805	3491.96
712.993	3299.45
713.181	3360.89
713.368	3354.74
713.556	3448.95
713.744	3385.46
713.931	3479.67
714.119	3274.87
714.306	3397.75
714.494	3399.8
714.682	3424.37
714.869	3293.3
715.057	3383.42
715.244	3307.64
715.432	3498.1
715.619	3317.88
715.807	3410.04
715.994	3278.97
716.182	3311.74
716.369	3367.03
716.556	3459.19
716.744	3319.93
716.931	3401.85
717.119	3348.6
717.306	3315.83
717.493	3338.36
717.681	3207.29
717.868	3358.84
718.055	3258.49
718.242	3420.28
718.43	3260.54
718.617	3166.33
718.804	3272.82
718.991	3250.3
719.179	3321.98
719.366	3266.68
719.553	3233.91
719.74	3264.63
719.927	3268.73
720.114	3223.67
720.301	3176.57
720.488	3115.13
720.676	3172.47
720.863	3149.95
721.05	3160.19
721.237	3213.43
721.424	3180.67
721.611	3309.69
721.798	3147.9
721.985	3141.75
722.172	3127.42
722.358	3207.29
722.545	3170.43
722.732	3092.6
722.919	3154.04
723.106	3127.42
723.293	3192.95
723.48	3072.12
723.667	3053.69
723.853	3078.27
724.04	3174.52
724.227	3115.13
724.414	3090.56
724.6	3029.12
724.787	3203.19
724.974	3074.17
725.161	3031.16
725.347	3129.47
725.534	3215.48
725.72	3133.56
725.907	3100.8
726.094	3078.27
726.28	3063.93
726.467	3010.68
726.653	2889.85
726.84	3043.45
727.027	3119.23
727.213	3086.46
727.4	3151.99
727.586	3018.88
727.773	3016.83
727.959	3074.17
728.145	3018.88
728.332	2992.25
728.518	3074.17
728.705	3186.81
728.891	3070.08
729.077	2936.96
729.264	2930.81
729.45	2965.63
729.636	3131.51
729.823	3082.36
730.009	3000.44
730.195	3045.5
730.382	3072.12
730.568	3053.69
730.754	2930.81
730.94	3004.54
731.126	2982.01
731.313	3047.55
731.499	2930.81
731.685	3100.8
731.871	3006.59
732.057	3008.64
732.243	2936.96
732.429	2988.16
732.615	3031.16
732.801	2928.77
732.987	3014.78
733.173	2953.34
733.359	2922.62
733.545	2914.43
733.731	2904.19
733.917	2816.13
734.103	2904.19
734.289	2803.84
734.475	2914.43
734.661	2955.39
734.847	2932.86
735.033	2932.86
735.219	2869.37
735.404	2893.95
735.59	2877.57
735.776	2797.7
735.962	2918.53
736.148	2908.29
736.333	2865.28
736.519	2723.97
736.705	2846.85
736.89	2789.5
737.076	2812.03
737.262	2812.03
737.447	2744.45
737.633	2750.59
737.819	2838.66
738.004	2744.45
738.19	2748.54
738.375	2701.44
738.561	2838.66
738.747	2764.93
738.932	2750.59
739.118	2793.6
739.303	2830.46
739.489	2736.26
739.674	2732.16
739.859	2719.87
740.045	2756.74
740.23	2685.06
740.416	2605.19
740.601	2586.76
740.786	2545.8
740.972	2666.63
741.157	2683.01
741.342	2543.75
741.528	2707.59
741.713	2629.76
741.898	2625.67
742.084	2721.92
742.269	2691.2
742.454	2635.91
742.639	2484.36
742.824	2633.86
743.01	2592.9
743.195	2492.55
743.38	2427.01
743.565	2560.13
743.75	2488.45
743.935	2539.65
744.12	2521.22
744.305	2353.29
744.49	2510.98
744.675	2406.53
744.86	2431.11
745.045	2443.4
745.23	2449.54
745.415	2470.02
745.6	2312.33
745.785	2334.86
745.97	2359.43
746.155	2381.96
746.34	2420.87
746.525	2318.47
746.71	2371.72
746.895	2351.24
747.079	2254.98
747.264	2324.62
747.449	2115.72
747.634	2306.18
747.819	2341
748.003	2187.4
748.188	2246.79
748.373	2179.21
748.557	2136.2
748.742	2128.01
748.927	2277.51
749.111	2148.49
749.296	2154.63
749.481	2216.07
749.665	2138.25
749.85	2091.15
750.034	2117.77
750.219	2025.61
750.404	2056.33
750.588	1892.49
750.773	2072.72
750.957	1910.93
751.141	2054.28
751.326	1915.02
751.51	2037.9
751.695	2007.18
751.879	1970.32
752.064	1927.31
752.248	1912.97
752.432	1998.99
752.617	2031.76
752.801	1867.92
752.985	1929.36
753.17	1884.3
753.354	1861.77
753.538	1992.84
753.722	1763.47
753.907	1843.34
754.091	1816.72
754.275	1804.43
754.459	1753.23
754.643	1706.13
754.828	1759.38
755.012	1724.56
755.196	1708.18
755.38	1730.7
755.564	1798.29
755.748	1687.7
755.932	1673.36
756.116	1716.37
756.3	1693.84
756.484	1583.25
756.668	1581.2
756.852	1517.72
757.036	1667.22
757.22	1591.44
757.404	1532.05
757.588	1603.73
757.772	1591.44
757.956	1593.49
758.14	1540.24
758.323	1482.9
758.507	1605.78
758.691	1435.8
758.875	1589.39
759.059	1462.42
759.242	1499.28
759.426	1456.28
759.61	1491.09
759.794	1511.57
759.977	1511.57
760.161	1499.28
760.345	1347.73
760.528	1380.5
760.712	1403.03
760.895	1439.89
761.079	1403.03
761.263	1419.41
761.446	1417.37
761.63	1374.36
761.813	1411.22
761.997	1405.08
762.18	1474.71
762.364	1335.45
762.547	1329.3
762.731	1294.49
762.914	1390.74
763.098	1296.53
763.281	1319.06
763.464	1345.69
763.648	1294.49
763.831	1366.17
764.015	1355.93
764.198	1370.26
764.381	1224.86
764.564	1314.97
764.748	1323.16
764.931	1271.96
765.114	1218.71
765.297	1306.77
765.481	1128.6
765.664	1228.95
765.847	1235.1
766.03	1321.11
766.213	1269.91
766.397	1218.71
766.58	1216.66
766.763	1200.28
766.946	1224.86
767.129	1212.57
767.312	1165.46
767.495	1155.23
767.678	1212.57
767.861	1058.97
768.044	1218.71
768.227	1165.46
768.41	1126.55
768.593	1161.37
768.776	1173.66
768.959	1104.03
769.142	1202.33
769.324	1124.51
769.507	1132.7
769.69	1136.79
769.873	1153.18
770.056	1173.66
770.239	1132.7
770.421	1122.46
770.604	1206.42
770.787	1011.87
770.97	1151.13
771.152	1149.08
771.335	1093.79
771.518	1075.35
771.7	1036.44
771.883	946.33
772.066	1067.16
772.248	1046.68
772.431	1050.78
772.613	972.96
772.796	999.58
772.978	1075.35
773.161	1083.55
773.343	938.14
773.526	1026.2
773.708	958.62
773.891	954.52
774.073	954.52
774.256	985.24
774.438	987.29
774.621	1018.01
774.803	893.09
774.985	938.14
775.168	944.28
775.35	946.33
775.532	991.39
775.715	858.27
775.897	913.56
776.079	891.04
776.261	905.37
776.444	891.04
776.626	946.33
776.808	940.19
776.99	817.31
777.173	893.09
777.355	813.21
777.537	770.21
777.719	905.37
777.901	866.46
778.083	821.41
778.265	911.52
778.447	895.13
778.629	796.83
778.811	757.92
778.993	833.69
779.175	837.79
779.357	794.78
779.539	839.84
779.721	839.84
779.903	780.45
780.085	735.39
780.267	798.88
780.449	794.78
780.631	755.87
780.812	721.06
780.994	712.86
781.176	696.48
781.358	747.68
781.54	712.86
781.721	725.15
781.903	727.2
782.085	663.71
782.267	684.19
782.448	676
782.63	682.14
782.812	624.8
782.993	657.57
783.175	704.67
783.357	698.53
783.538	596.13
783.72	538.79
783.901	659.62
784.083	678.05
784.264	602.27
784.446	688.29
784.627	657.57
784.809	585.89
784.99	616.61
785.172	600.23
785.353	657.57
785.535	665.76
785.716	463.01
785.897	600.23
786.079	673.95
786.26	604.32
786.441	524.45
786.623	614.56
786.804	526.5
786.985	510.11
787.167	532.64
787.348	557.22
787.529	551.07
787.71	512.16
787.891	512.16
788.073	557.22
788.254	557.22
788.435	561.31
788.616	463.01
788.797	518.31
788.978	546.98
789.159	532.64
789.34	430.24
789.522	491.68
789.703	446.63
789.884	485.54
790.065	469.16
790.246	544.93
790.427	512.16
790.607	471.2
790.788	473.25
790.969	499.88
791.15	497.83
791.331	483.49
791.512	487.59
791.693	405.67
791.874	395.43
792.054	481.44
792.235	485.54
792.416	393.38
792.597	520.35
792.778	483.49
792.958	393.38
793.139	399.52
793.32	448.68
793.5	389.28
793.681	444.58
793.862	440.48
794.042	438.44
794.223	409.76
794.404	409.76
794.584	342.18
794.765	340.13
794.945	409.76
795.126	434.34
795.306	426.15
795.487	536.74
795.667	385.19
795.848	338.09
796.028	370.85
796.209	331.94
796.389	381.09
796.57	370.85
796.75	411.81
796.93	346.28
797.111	366.76
797.291	426.15
797.471	385.19
797.652	305.32
797.832	288.93
798.012	374.95
798.192	321.7
798.373	336.04
798.553	319.65
798.733	364.71
798.913	305.32
799.093	344.23
799.274	358.57
799.454	315.56
799.634	323.75
799.814	299.17
799.994	278.69
800.174	309.41
800.354	323.75
800.534	264.36
800.714	286.89
800.894	319.65
801.074	321.7
801.254	301.22
801.434	356.52
801.614	258.21
801.794	184.49
801.974	577.7
802.154	413.86
802.334	319.65
802.514	295.08
802.693	299.17
802.873	280.74
803.053	305.32
803.233	286.89
803.413	247.97
803.592	303.27
803.772	348.33
803.952	286.89
804.131	225.45
804.311	225.45
804.491	348.33
804.67	202.92
804.85	192.68
805.03	225.45
805.209	258.21
805.389	305.32
805.568	282.79
805.748	262.31
805.928	274.6
806.107	266.41
806.287	266.41
806.466	340.13
806.646	223.4
806.825	198.82
807.004	329.89
807.184	141.48
807.363	358.57
807.543	280.74
807.722	245.93
807.901	245.93
808.081	282.79
808.26	233.64
808.439	264.36
808.619	200.87
808.798	262.31
808.977	225.45
809.156	299.17
809.336	243.88
809.515	227.5
809.694	207.02
809.873	204.97
810.052	237.74
810.231	200.87
810.411	268.45
810.59	260.26
810.769	204.97
810.948	278.69
811.127	282.79
811.306	235.69
811.485	159.91
811.664	200.87
811.843	243.88
812.022	235.69
812.201	221.35
812.38	178.34
812.559	241.83
812.737	258.21
812.916	207.02
813.095	190.63
813.274	235.69
813.453	194.73
813.632	168.1
813.811	176.3
813.989	125.1
814.168	264.36
814.347	166.06
814.526	190.63
814.704	223.4
814.883	211.11
815.062	170.15
815.24	159.91
815.419	139.43
815.598	223.4
815.776	223.4
815.955	145.58
816.133	157.86
816.312	219.3
816.49	180.39
816.669	114.86
816.847	147.62
817.026	217.26
817.204	145.58
817.383	168.1
817.561	94.38
817.74	178.34
817.918	110.76
818.097	139.43
818.275	139.43
818.453	131.24
818.632	155.82
818.81	207.02
818.988	129.19
819.167	209.06
819.345	217.26
819.523	172.2
819.701	178.34
819.879	133.29
820.058	204.97
820.236	161.96
820.414	149.67
820.592	159.91
820.77	149.67
820.948	170.15
821.127	135.34
821.305	209.06
821.483	123.05
821.661	168.1
821.839	182.44
822.017	149.67
822.195	141.48
822.373	125.1
822.551	131.24
822.729	161.96
822.907	198.82
823.085	135.34
823.262	147.62
823.44	143.53
823.618	61.61
823.796	147.62
823.974	149.67
824.152	82.09
824.329	172.2
824.507	110.76
824.685	123.05
824.863	125.1
825.04	250.02
825.218	164.01
825.396	92.33
825.574	82.09
825.751	204.97
825.929	184.49
826.107	139.43
826.284	180.39
826.462	161.96
826.639	143.53
826.817	155.82
826.994	82.09
827.172	88.23
827.349	188.58
827.527	129.19
827.704	135.34
827.882	80.04
828.059	147.62
828.237	94.38
828.414	196.78
828.591	143.53
828.769	139.43
828.946	108.71
829.124	69.8
829.301	143.53
829.478	118.95
829.655	137.38
829.833	108.71
830.01	118.95
830.187	137.38
830.364	102.57
830.542	137.38
830.719	135.34
830.896	106.67
831.073	98.47
831.25	123.05
831.427	100.52
831.604	149.67
831.782	94.38
831.959	129.19
832.136	100.52
832.313	102.57
832.49	67.75
832.667	159.91
832.844	37.03
833.021	45.23
833.198	61.61
833.374	63.66
833.551	43.18
833.728	118.95
833.905	100.52
834.082	86.19
834.259	59.56
834.436	127.14
834.612	49.32
834.789	108.71
834.966	73.9
835.143	49.32
835.319	75.95
835.496	100.52
835.673	90.28
835.85	127.14
836.026	75.95
836.203	139.43
836.38	178.34
836.556	77.99
836.733	90.28
836.909	114.86
837.086	127.14
837.262	45.23
837.439	88.23
837.616	26.79
837.792	114.86
837.968	114.86
838.145	65.71
838.321	155.82
838.498	47.27
838.674	112.81
838.851	86.19
839.027	102.57
839.203	63.66
839.38	82.09
839.556	65.71
839.732	139.43
839.909	114.86
840.085	45.23
840.261	34.99
840.437	102.57
840.614	51.37
840.79	90.28
840.966	114.86
841.142	121
841.318	92.33
841.494	110.76
841.671	108.71
841.847	108.71
842.023	80.04
842.199	51.37
842.375	94.38
842.551	24.75
842.727	86.19
842.903	133.29
843.079	32.94
843.255	39.08
843.431	90.28
843.607	49.32
843.783	37.03
843.959	65.71
844.134	67.75
844.31	106.67
844.486	12.46
844.662	55.47
844.838	108.71
845.013	108.71
845.189	49.32
845.365	77.99
845.541	94.38
845.716	129.19
845.892	59.56
846.068	-18.26
846.244	34.99
846.419	77.99
846.595	84.14
846.77	131.24
846.946	67.75
847.122	108.71
847.297	102.57
847.473	90.28
847.648	80.04
847.824	125.1
847.999	61.61
848.175	30.89
848.35	-16.21
848.526	55.47
848.701	67.75
848.876	77.99
849.052	30.89
849.227	69.8
849.403	92.33
849.578	41.13
849.753	30.89
849.929	49.32
850.104	12.46
850.279	69.8
850.454	106.67
850.63	43.18
850.805	28.84
850.98	0.17
851.155	155.82
851.33	-26.45
851.505	6.31
851.681	121
851.856	55.47
852.031	53.42
852.206	22.7
852.381	28.84
852.556	2.22
852.731	37.03
852.906	73.9
853.081	12.46
853.256	88.23
853.431	57.51
853.606	18.6
853.781	133.29
853.956	18.6
854.131	143.53
854.305	-28.5
854.48	47.27
854.655	47.27
854.83	22.7
855.005	71.85
855.18	-14.17
855.354	26.79
855.529	53.42
855.704	14.51
855.879	12.46
856.053	14.51
856.228	30.89
856.403	49.32
856.577	-8.02
856.752	30.89
856.926	67.75
857.101	73.9
857.276	34.99
857.45	34.99
857.625	84.14
857.799	12.46
857.974	45.23
858.148	20.65
858.323	30.89
858.497	22.7
858.672	104.62
858.846	-36.69
859.02	73.9
859.195	55.47
859.369	92.33
859.543	47.27
859.718	94.38
859.892	61.61
860.066	121
860.241	12.46
860.415	-20.31
860.589	57.51
860.763	34.99
860.938	12.46
861.112	129.19
861.286	28.84
861.46	8.36
861.634	-16.21
861.808	77.99
861.982	-14.17
862.157	22.7
862.331	20.65
862.505	96.43
862.679	39.08
862.853	2.22
863.027	22.7
863.201	86.19
863.375	-22.36
863.549	37.03
863.722	41.13
863.896	49.32
864.07	-5.97
864.244	2.22
864.418	30.89
864.592	41.13
864.766	18.6
864.939	51.37
865.113	53.42
865.287	51.37
865.461	24.75
865.634	61.61
865.808	10.41
865.982	-22.36
866.156	12.46
866.329	47.27
866.503	41.13
866.676	37.03
866.85	71.85
867.024	-20.31
867.197	20.65
867.371	49.32
867.544	-20.31
867.718	59.56
867.891	26.79
868.065	-3.93
868.238	12.46
868.412	45.23
868.585	45.23
868.759	112.81
868.932	28.84
869.105	26.79
869.279	18.6
869.452	112.81
869.625	43.18
869.799	96.43
869.972	14.51
870.145	10.41
870.319	-20.31
870.492	-5.97
870.665	16.55
870.838	-14.17
871.011	-8.02
871.185	20.65
871.358	-24.4
871.531	67.75
871.704	-20.31
871.877	24.75
872.05	-38.74
872.223	20.65
872.396	55.47
872.569	43.18
872.742	61.61
872.915	67.75
873.088	39.08
873.261	49.32
873.434	28.84
873.607	43.18
873.78	6.31
873.953	14.51
874.126	4.27
874.299	-1.88
874.471	-5.97
874.644	2.22
874.817	28.84
874.99	30.89
875.163	-28.5
875.335	30.89
875.508	34.99
875.681	63.66
875.853	24.75
876.026	63.66
876.199	88.23
876.371	24.75
876.544	12.46
876.717	6.31
876.889	14.51
877.062	37.03
877.234	8.36
877.407	14.51
877.579	6.31
877.752	-48.98
877.924	59.56
878.097	63.66
878.269	18.6
878.442	2.22
878.614	39.08
878.786	65.71
878.959	18.6
879.131	-12.12
879.303	18.6
879.476	24.75
879.648	20.65
879.82	8.36
879.993	32.94
880.165	51.37
880.337	-8.02
880.509	4.27
880.681	37.03
880.854	-77.65
881.026	57.51
881.198	12.46
881.37	8.36
881.542	-3.93
881.714	16.55
881.886	12.46
882.058	-71.51
882.23	-10.07
882.402	-24.4
882.574	4.27
882.746	26.79
882.918	-8.02
883.09	59.56
883.262	65.71
883.434	14.51
883.606	37.03
883.778	49.32
883.95	53.42
884.122	8.36
884.293	24.75
884.465	61.61
884.637	26.79
884.809	-71.51
884.98	53.42
885.152	26.79
885.324	20.65
885.496	57.51
885.667	18.6
885.839	-57.17
886.011	57.51
886.182	0.17
886.354	55.47
886.525	45.23
886.697	-69.46
886.869	-18.26
887.04	0.17
887.212	-8.02
887.383	8.36
887.555	18.6
887.726	24.75
887.897	18.6
888.069	-24.4
888.24	-8.02
888.412	18.6
888.583	37.03
888.754	26.79
888.926	-12.12
889.097	-20.31
889.268	-20.31
889.44	-22.36
889.611	53.42
889.782	32.94
889.953	0.17
890.125	32.94
890.296	10.41
890.467	-20.31
890.638	-3.93
890.809	32.94
890.98	-44.88
891.151	45.23
891.323	-59.22
891.494	16.55
891.665	-32.6
891.836	10.41
892.007	-1.88
892.178	6.31
892.349	34.99
892.52	-20.31
892.691	18.6
892.862	-20.31
893.032	-1.88
893.203	49.32
893.374	34.99
893.545	-16.21
893.716	0.17
893.887	0.17
894.057	-34.64
894.228	-34.64
894.399	-28.5
894.57	20.65
894.74	-71.51
894.911	-46.93
895.082	59.56
895.253	12.46
895.423	-20.31
895.594	22.7
895.764	-69.46
895.935	14.51
896.106	61.61
896.276	-3.93
896.447	47.27
896.617	-18.26
896.788	-16.21
896.958	-75.6
897.129	18.6
897.299	57.51
897.47	-5.97
897.64	59.56
897.81	14.51
897.981	22.7
898.151	-22.36
898.322	6.31
898.492	8.36
898.662	26.79
898.832	14.51
899.003	-51.03
899.173	-44.88
899.343	-30.55
899.513	-16.21
