Data from USB4F104151__221__11-10-47-435.txt Node

Date: Wed Mar 12 11:10:47 EDT 2025
User: louis
Spectrometer: USB4F10415
Trigger mode: 4
Integration Time (sec): 2.000000E-2
Scans to average: 1
Electric dark correction enabled: true
Nonlinearity correction enabled: false
Boxcar width: 0
XAxis mode: Wavelengths
Number of Pixels in Spectrum: 3648
>>>>>Begin Spectral Data<<<<<
178.204	-101.37
178.424	-101.37
178.644	-101.37
178.864	-37.89
179.084	-58.37
179.304	31.74
179.524	-17.41
179.744	21.5
179.964	39.94
180.184	-5.12
180.404	9.22
180.624	3.07
180.844	5.12
181.064	-19.46
181.283	-21.5
181.503	-9.22
181.723	-37.89
181.943	-52.22
182.163	72.7
182.383	13.31
182.602	39.94
182.822	54.27
183.042	11.26
183.262	-1.02
183.482	7.17
183.701	27.65
183.921	-46.08
184.141	31.74
184.361	41.98
184.58	-7.17
184.8	25.6
185.02	-7.17
185.239	31.74
185.459	7.17
185.679	15.36
185.898	-52.22
186.118	78.85
186.338	9.22
186.557	37.89
186.777	-17.41
186.997	9.22
187.216	-68.61
187.436	-13.31
187.655	3.07
187.875	23.55
188.095	-3.07
188.314	15.36
188.534	37.89
188.753	3.07
188.973	27.65
189.192	-25.6
189.412	41.98
189.631	64.51
189.851	68.61
190.07	97.28
190.29	-56.32
190.509	-23.55
190.729	52.22
190.948	19.46
191.168	56.32
191.387	93.18
191.607	-27.65
191.826	29.7
192.045	31.74
192.265	48.13
192.484	46.08
192.704	-1.02
192.923	1.02
193.142	29.7
193.362	1.02
193.581	-15.36
193.8	-33.79
194.02	27.65
194.239	21.5
194.458	99.33
194.678	66.56
194.897	39.94
195.116	-50.18
195.335	97.28
195.555	41.98
195.774	7.17
195.993	15.36
196.212	54.27
196.432	-9.22
196.651	-9.22
196.87	35.84
197.089	31.74
197.308	121.85
197.528	50.18
197.747	15.36
197.966	17.41
198.185	-21.5
198.404	-1.02
198.623	3.07
198.842	103.42
199.062	50.18
199.281	7.17
199.5	-15.36
199.719	3.07
199.938	41.98
200.157	64.51
200.376	103.42
200.595	109.57
200.814	46.08
201.033	-23.55
201.252	-1.02
201.471	82.94
201.69	-37.89
201.909	11.26
202.128	-3.07
202.347	52.22
202.566	-60.42
202.785	41.98
203.004	41.98
203.223	121.85
203.442	25.6
203.661	105.47
203.879	1.02
204.098	23.55
204.317	35.84
204.536	91.13
204.755	62.46
204.974	66.56
205.193	-9.22
205.411	103.42
205.63	41.98
205.849	64.51
206.068	35.84
206.287	35.84
206.505	9.22
206.724	7.17
206.943	58.37
207.162	93.18
207.381	5.12
207.599	11.26
207.818	46.08
208.037	-7.17
208.255	33.79
208.474	-27.65
208.693	39.94
208.911	52.22
209.13	54.27
209.349	54.27
209.567	-1.02
209.786	19.46
210.005	31.74
210.223	101.37
210.442	19.46
210.661	64.51
210.879	-5.12
211.098	76.8
211.316	56.32
211.535	17.41
211.753	41.98
211.972	-44.03
212.191	7.17
212.409	1.02
212.628	31.74
212.846	35.84
213.065	58.37
213.283	-1.02
213.502	31.74
213.72	66.56
213.938	-23.55
214.157	-23.55
214.375	78.85
214.594	52.22
214.812	33.79
215.031	3.07
215.249	35.84
215.467	60.42
215.686	15.36
215.904	80.89
216.122	41.98
216.341	33.79
216.559	13.31
216.778	64.51
216.996	48.13
217.214	-17.41
217.432	-13.31
217.651	19.46
217.869	19.46
218.087	29.7
218.306	62.46
218.524	15.36
218.742	-11.26
218.96	44.03
219.179	17.41
219.397	50.18
219.615	31.74
219.833	7.17
220.051	-19.46
220.27	23.55
220.488	37.89
220.706	-11.26
220.924	54.27
221.142	58.37
221.36	60.42
221.578	9.22
221.796	60.42
222.015	-13.31
222.233	58.37
222.451	1.02
222.669	-25.6
222.887	7.17
223.105	17.41
223.323	113.66
223.541	41.98
223.759	-1.02
223.977	19.46
224.195	25.6
224.413	56.32
224.631	-31.74
224.849	68.61
225.067	64.51
225.285	48.13
225.503	-60.42
225.721	41.98
225.939	31.74
226.157	21.5
226.375	33.79
226.592	-95.23
226.81	33.79
227.028	48.13
227.246	62.46
227.464	23.55
227.682	58.37
227.9	15.36
228.117	103.42
228.335	54.27
228.553	27.65
228.771	58.37
228.989	-35.84
229.206	-21.5
229.424	23.55
229.642	-11.26
229.86	15.36
230.077	37.89
230.295	58.37
230.513	74.75
230.731	-13.31
230.948	35.84
231.166	48.13
231.384	19.46
231.601	23.55
231.819	74.75
232.037	-35.84
232.254	7.17
232.472	138.24
232.689	27.65
232.907	62.46
233.125	21.5
233.342	11.26
233.56	-31.74
233.777	52.22
233.995	-23.55
234.213	50.18
234.43	74.75
234.648	84.99
234.865	41.98
235.083	23.55
235.3	-15.36
235.518	3.07
235.735	58.37
235.953	54.27
236.17	41.98
236.388	50.18
236.605	60.42
236.822	-3.07
237.04	58.37
237.257	25.6
237.475	60.42
237.692	-31.74
237.909	82.94
238.127	-29.7
238.344	56.32
238.562	117.76
238.779	-27.65
238.996	3.07
239.214	-25.6
239.431	-25.6
239.648	-35.84
239.865	9.22
240.083	70.65
240.3	-31.74
240.517	-25.6
240.735	29.7
240.952	-9.22
241.169	31.74
241.386	-33.79
241.603	19.46
241.821	50.18
242.038	44.03
242.255	15.36
242.472	-19.46
242.689	-23.55
242.907	35.84
243.124	-13.31
243.341	39.94
243.558	50.18
243.775	-5.12
243.992	-11.26
244.209	60.42
244.426	27.65
244.643	35.84
244.86	-19.46
245.078	56.32
245.295	-21.5
245.512	58.37
245.729	-48.13
245.946	64.51
246.163	44.03
246.38	-3.07
246.597	-37.89
246.814	-1.02
247.031	37.89
247.248	-21.5
247.464	21.5
247.681	7.17
247.898	80.89
248.115	46.08
248.332	-1.02
248.549	21.5
248.766	-7.17
248.983	103.42
249.2	31.74
249.417	41.98
249.633	50.18
249.85	48.13
250.067	76.8
250.284	33.79
250.501	3.07
250.717	50.18
250.934	-11.26
251.151	-17.41
251.368	62.46
251.585	62.46
251.801	29.7
252.018	66.56
252.235	19.46
252.451	-56.32
252.668	-19.46
252.885	48.13
253.102	11.26
253.318	56.32
253.535	-64.51
253.752	-58.37
253.968	-19.46
254.185	-25.6
254.401	-17.41
254.618	76.8
254.835	11.26
255.051	68.61
255.268	-41.98
255.484	-1.02
255.701	31.74
255.917	101.37
256.134	41.98
256.351	84.99
256.567	-29.7
256.784	64.51
257	-19.46
257.217	64.51
257.433	84.99
257.65	11.26
257.866	70.65
258.082	7.17
258.299	-48.13
258.515	84.99
258.732	13.31
258.948	41.98
259.165	54.27
259.381	-29.7
259.597	33.79
259.814	11.26
260.03	70.65
260.246	11.26
260.463	80.89
260.679	25.6
260.895	132.09
261.112	46.08
261.328	76.8
261.544	3.07
261.761	15.36
261.977	56.32
262.193	-33.79
262.409	74.75
262.626	-5.12
262.842	68.61
263.058	31.74
263.274	-11.26
263.49	15.36
263.707	87.04
263.923	44.03
264.139	23.55
264.355	9.22
264.571	93.18
264.787	64.51
265.004	15.36
265.22	66.56
265.436	5.12
265.652	-1.02
265.868	-23.55
266.084	-29.7
266.3	31.74
266.516	-46.08
266.732	35.84
266.948	11.26
267.164	27.65
267.38	-13.31
267.596	27.65
267.812	-31.74
268.028	66.56
268.244	1.02
268.46	60.42
268.676	5.12
268.892	56.32
269.108	3.07
269.324	-50.18
269.54	-1.02
269.756	23.55
269.972	25.6
270.188	31.74
270.403	31.74
270.619	19.46
270.835	64.51
271.051	91.13
271.267	31.74
271.483	3.07
271.698	37.89
271.914	-1.02
272.13	64.51
272.346	44.03
272.562	48.13
272.777	41.98
272.993	11.26
273.209	72.7
273.425	50.18
273.64	23.55
273.856	1.02
274.072	52.22
274.287	58.37
274.503	11.26
274.719	91.13
274.934	56.32
275.15	37.89
275.366	39.94
275.581	41.98
275.797	84.99
276.012	50.18
276.228	31.74
276.444	-46.08
276.659	66.56
276.875	1.02
277.09	1.02
277.306	82.94
277.521	-7.17
277.737	-37.89
277.952	62.46
278.168	48.13
278.383	-35.84
278.599	-41.98
278.814	3.07
279.03	-41.98
279.245	50.18
279.461	87.04
279.676	-11.26
279.892	19.46
280.107	-17.41
280.322	-17.41
280.538	-52.22
280.753	-41.98
280.969	41.98
281.184	19.46
281.399	95.23
281.615	-25.6
281.83	-1.02
282.045	-60.42
282.26	37.89
282.476	7.17
282.691	93.18
282.906	-21.5
283.122	15.36
283.337	-7.17
283.552	21.5
283.767	39.94
283.983	152.57
284.198	-1.02
284.413	-35.84
284.628	9.22
284.843	64.51
285.058	-35.84
285.274	29.7
285.489	25.6
285.704	103.42
285.919	60.42
286.134	-80.89
286.349	39.94
286.564	91.13
286.779	35.84
286.995	9.22
287.21	-9.22
287.425	89.09
287.64	-19.46
287.855	-31.74
288.07	39.94
288.285	70.65
288.5	62.46
288.715	50.18
288.93	60.42
289.145	7.17
289.36	48.13
289.575	3.07
289.79	33.79
290.004	27.65
290.219	62.46
290.434	46.08
290.649	72.7
290.864	50.18
291.079	17.41
291.294	64.51
291.509	23.55
291.724	-72.7
291.938	48.13
292.153	37.89
292.368	1.02
292.583	89.09
292.798	23.55
293.012	66.56
293.227	46.08
293.442	35.84
293.657	76.8
293.871	33.79
294.086	50.18
294.301	-17.41
294.516	62.46
294.73	105.47
294.945	13.31
295.16	52.22
295.374	11.26
295.589	46.08
295.804	23.55
296.018	7.17
296.233	107.52
296.447	87.04
296.662	3.07
296.877	60.42
297.091	66.56
297.306	54.27
297.52	54.27
297.735	9.22
297.949	80.89
298.164	134.14
298.378	5.12
298.593	13.31
298.807	31.74
299.022	-5.12
299.236	64.51
299.451	-17.41
299.665	54.27
299.88	93.18
300.094	7.17
300.309	62.46
300.523	-7.17
300.737	105.47
300.952	-48.13
301.166	17.41
301.381	-46.08
301.595	15.36
301.809	-13.31
302.024	70.65
302.238	19.46
302.452	50.18
302.667	78.85
302.881	31.74
303.095	13.31
303.309	-3.07
303.524	74.75
303.738	31.74
303.952	-21.5
304.166	-58.37
304.381	21.5
304.595	46.08
304.809	29.7
305.023	64.51
305.237	72.7
305.452	64.51
305.666	62.46
305.88	-21.5
306.094	25.6
306.308	64.51
306.522	58.37
306.736	123.9
306.95	56.32
307.164	39.94
307.379	107.52
307.593	66.56
307.807	58.37
308.021	15.36
308.235	58.37
308.449	-5.12
308.663	27.65
308.877	25.6
309.091	66.56
309.305	27.65
309.519	5.12
309.733	95.23
309.947	-9.22
310.161	80.89
310.374	27.65
310.588	58.37
310.802	66.56
311.016	-33.79
311.23	31.74
311.444	-33.79
311.658	80.89
311.872	35.84
312.085	48.13
312.299	66.56
312.513	97.28
312.727	15.36
312.941	91.13
313.154	17.41
313.368	-1.02
313.582	82.94
313.796	31.74
314.009	31.74
314.223	3.07
314.437	23.55
314.651	54.27
314.864	33.79
315.078	23.55
315.292	-23.55
315.505	23.55
315.719	-19.46
315.933	60.42
316.146	9.22
316.36	-46.08
316.573	68.61
316.787	39.94
317.001	15.36
317.214	60.42
317.428	11.26
317.641	7.17
317.855	-3.07
318.068	-5.12
318.282	39.94
318.495	58.37
318.709	48.13
318.922	9.22
319.136	70.65
319.349	19.46
319.563	109.57
319.776	5.12
319.99	11.26
320.203	50.18
320.417	11.26
320.63	80.89
320.843	76.8
321.057	17.41
321.27	37.89
321.483	52.22
321.697	19.46
321.91	78.85
322.124	50.18
322.337	39.94
322.55	56.32
322.763	7.17
322.977	91.13
323.19	27.65
323.403	50.18
323.617	52.22
323.83	13.31
324.043	52.22
324.256	25.6
324.469	-48.13
324.683	117.76
324.896	54.27
325.109	66.56
325.322	27.65
325.535	-5.12
325.748	9.22
325.962	-15.36
326.175	13.31
326.388	52.22
326.601	9.22
326.814	64.51
327.027	82.94
327.24	111.61
327.453	31.74
327.666	25.6
327.879	-21.5
328.092	39.94
328.305	-15.36
328.518	23.55
328.731	62.46
328.944	50.18
329.157	-33.79
329.37	21.5
329.583	1.02
329.796	68.61
330.009	-97.28
330.222	52.22
330.435	48.13
330.648	33.79
330.861	-23.55
331.073	115.71
331.286	17.41
331.499	56.32
331.712	17.41
331.925	87.04
332.138	13.31
332.35	84.99
332.563	3.07
332.776	138.24
332.989	-11.26
333.202	9.22
333.414	11.26
333.627	99.33
333.84	27.65
334.053	70.65
334.265	-23.55
334.478	25.6
334.691	9.22
334.903	-7.17
335.116	60.42
335.329	105.47
335.541	-19.46
335.754	29.7
335.966	-70.65
336.179	15.36
336.392	25.6
336.604	25.6
336.817	76.8
337.029	9.22
337.242	-37.89
337.454	-7.17
337.667	15.36
337.88	52.22
338.092	64.51
338.305	87.04
338.517	-13.31
338.729	74.75
338.942	54.27
339.154	-1.02
339.367	-7.17
339.579	48.13
339.792	41.98
340.004	128
340.217	-13.31
340.429	52.22
340.641	23.55
340.854	19.46
341.066	29.7
341.278	31.74
341.491	82.94
341.703	46.08
341.915	64.51
342.128	80.89
342.34	31.74
342.552	33.79
342.764	-3.07
342.977	25.6
343.189	41.98
343.401	19.46
343.613	-41.98
343.826	95.23
344.038	-5.12
344.25	23.55
344.462	29.7
344.674	23.55
344.886	-1.02
345.099	-13.31
345.311	3.07
345.523	1.02
345.735	21.5
345.947	7.17
346.159	101.37
346.371	58.37
346.583	-29.7
346.795	95.23
347.007	-9.22
347.219	15.36
347.431	-62.46
347.643	5.12
347.855	103.42
348.067	68.61
348.279	-11.26
348.491	-37.89
348.703	-7.17
348.915	60.42
349.127	15.36
349.339	58.37
349.551	7.17
349.763	60.42
349.975	58.37
350.187	97.28
350.399	41.98
350.61	35.84
350.822	-7.17
351.034	70.65
351.246	44.03
351.458	-52.22
351.669	5.12
351.881	84.99
352.093	107.52
352.305	97.28
352.517	58.37
352.728	35.84
352.94	33.79
353.152	87.04
353.363	-15.36
353.575	21.5
353.787	80.89
353.999	60.42
354.21	64.51
354.422	89.09
354.633	82.94
354.845	66.56
355.057	1.02
355.268	72.7
355.48	-15.36
355.692	23.55
355.903	35.84
356.115	44.03
356.326	23.55
356.538	27.65
356.749	82.94
356.961	-5.12
357.172	-33.79
357.384	64.51
357.595	60.42
357.807	44.03
358.018	7.17
358.23	44.03
358.441	93.18
358.653	78.85
358.864	78.85
359.075	31.74
359.287	44.03
359.498	13.31
359.709	52.22
359.921	48.13
360.132	78.85
360.344	5.12
360.555	48.13
360.766	60.42
360.977	37.89
361.189	27.65
361.4	60.42
361.611	5.12
361.823	82.94
362.034	56.32
362.245	29.7
362.456	72.7
362.667	50.18
362.879	64.51
363.09	27.65
363.301	15.36
363.512	58.37
363.723	72.7
363.935	109.57
364.146	19.46
364.357	3.07
364.568	91.13
364.779	9.22
364.99	33.79
365.201	-5.12
365.412	138.24
365.623	44.03
365.834	89.09
366.045	11.26
366.256	-9.22
366.467	70.65
366.678	-68.61
366.889	-15.36
367.1	41.98
367.311	103.42
367.522	13.31
367.733	66.56
367.944	37.89
368.155	-15.36
368.366	68.61
368.577	58.37
368.788	19.46
368.999	-1.02
369.209	-39.94
369.42	52.22
369.631	109.57
369.842	70.65
370.053	13.31
370.264	95.23
370.474	64.51
370.685	74.75
370.896	82.94
371.107	72.7
371.317	50.18
371.528	68.61
371.739	146.43
371.95	13.31
372.16	46.08
372.371	21.5
372.582	27.65
372.792	-9.22
373.003	15.36
373.214	60.42
373.424	76.8
373.635	35.84
373.846	76.8
374.056	27.65
374.267	78.85
374.477	48.13
374.688	13.31
374.898	11.26
375.109	25.6
375.319	91.13
375.53	60.42
375.74	21.5
375.951	27.65
376.161	7.17
376.372	17.41
376.582	97.28
376.793	15.36
377.003	60.42
377.214	46.08
377.424	11.26
377.635	13.31
377.845	21.5
378.055	142.33
378.266	70.65
378.476	80.89
378.686	-11.26
378.897	78.85
379.107	25.6
379.317	15.36
379.528	93.18
379.738	29.7
379.948	11.26
380.158	13.31
380.369	31.74
380.579	60.42
380.789	41.98
380.999	29.7
381.21	95.23
381.42	66.56
381.63	41.98
381.84	54.27
382.05	-7.17
382.261	-23.55
382.471	91.13
382.681	15.36
382.891	121.85
383.101	107.52
383.311	-15.36
383.521	46.08
383.731	84.99
383.941	111.61
384.151	80.89
384.361	-31.74
384.571	62.46
384.781	62.46
384.991	128
385.201	56.32
385.411	23.55
385.621	19.46
385.831	31.74
386.041	35.84
386.251	25.6
386.461	105.47
386.671	78.85
386.881	15.36
387.091	9.22
387.301	82.94
387.511	52.22
387.72	58.37
387.93	35.84
388.14	93.18
388.35	41.98
388.56	87.04
388.769	142.33
388.979	35.84
389.189	37.89
389.399	25.6
389.609	91.13
389.818	23.55
390.028	87.04
390.238	50.18
390.447	35.84
390.657	58.37
390.867	9.22
391.076	84.99
391.286	39.94
391.496	54.27
391.705	52.22
391.915	41.98
392.125	9.22
392.334	11.26
392.544	56.32
392.753	52.22
392.963	60.42
393.172	74.75
393.382	21.5
393.591	109.57
393.801	39.94
394.01	158.72
394.22	60.42
394.429	99.33
394.639	109.57
394.848	78.85
395.058	74.75
395.267	117.76
395.477	76.8
395.686	50.18
395.895	156.67
396.105	113.66
396.314	76.8
396.524	80.89
396.733	54.27
396.942	82.94
397.152	123.9
397.361	93.18
397.57	113.66
397.78	46.08
397.989	101.37
398.198	146.43
398.407	-9.22
398.617	142.33
398.826	134.14
399.035	142.33
399.244	128
399.453	27.65
399.663	27.65
399.872	140.29
400.081	105.47
400.29	128
400.499	168.96
400.708	142.33
400.917	9.22
401.127	87.04
401.336	64.51
401.545	138.24
401.754	109.57
401.963	134.14
402.172	103.42
402.381	97.28
402.59	121.85
402.799	101.37
403.008	128
403.217	93.18
403.426	113.66
403.635	87.04
403.844	97.28
404.053	123.9
404.262	156.67
404.471	211.96
404.68	136.19
404.888	78.85
405.097	70.65
405.306	146.43
405.515	177.15
405.724	113.66
405.933	93.18
406.142	193.53
406.35	183.29
406.559	130.05
406.768	191.49
406.977	185.34
407.185	166.91
407.394	185.34
407.603	107.52
407.812	146.43
408.02	214.01
408.229	197.63
408.438	113.66
408.646	257.02
408.855	183.29
409.064	238.59
409.272	244.73
409.481	259.07
409.69	142.33
409.898	207.87
410.107	273.4
410.315	254.97
410.524	269.31
410.733	316.41
410.941	291.84
411.15	367.61
411.358	328.7
411.567	386.04
411.775	367.61
411.984	324.6
412.192	390.14
412.401	422.91
412.609	431.1
412.818	422.91
413.026	404.47
413.234	422.91
413.443	494.58
413.651	496.63
413.86	447.48
414.068	605.17
414.276	519.16
414.485	513.02
414.693	560.12
414.901	609.27
415.11	596.98
415.318	617.46
415.526	625.65
415.734	672.76
415.943	717.81
416.151	795.64
416.359	625.65
416.567	855.03
416.776	719.86
416.984	783.35
417.192	781.3
417.4	838.64
417.608	846.84
417.817	924.66
418.025	1004.53
418.233	988.14
418.441	984.05
418.649	1082.35
418.857	1035.25
419.065	1100.78
419.273	1213.42
419.481	1133.55
419.689	1207.28
419.897	1352.68
420.105	1287.15
420.313	1301.48
420.521	1436.65
420.729	1455.08
420.937	1530.86
421.145	1459.18
421.353	1657.83
421.561	1727.46
421.769	1575.91
421.977	1754.09
422.185	1844.2
422.393	1856.48
422.601	1903.59
422.809	1983.46
423.017	1965.03
423.224	2087.9
423.432	2087.9
423.64	2161.63
423.848	2380.76
424.056	2247.65
424.263	2442.2
424.471	2358.24
424.679	2462.68
424.887	2642.9
425.094	2726.87
425.302	2819.03
425.51	2853.84
425.718	2948.05
425.925	3070.93
426.133	3122.13
426.341	3156.94
426.548	3339.21
426.756	3374.03
426.964	3474.38
427.171	3539.91
427.379	3826.63
427.586	3795.91
427.794	3943.36
428.001	4096.96
428.209	4213.7
428.417	4045.76
428.624	4467.64
428.832	4443.07
429.039	4365.25
429.247	4463.55
429.454	4885.43
429.662	5166
429.869	4864.95
430.076	5209.01
430.284	5108.66
430.491	5319.6
430.699	5403.57
430.906	5544.88
431.114	5559.21
431.321	5915.56
431.528	5936.04
431.736	6445.98
431.943	6605.72
432.15	6284.19
432.358	6499.23
432.565	6785.94
432.772	6917.01
432.979	7168.91
433.187	7457.68
433.394	7216.02
433.601	7754.63
433.808	7943.05
434.016	8057.73
434.223	8192.9
434.43	8678.27
434.637	8467.33
434.844	8766.33
435.052	9370.48
435.259	9034.61
435.466	9302.9
435.673	9227.12
435.88	9845.61
436.087	10218.34
436.294	10142.57
436.501	9872.23
436.708	10128.23
436.915	10562.4
437.122	11002.71
437.329	10992.47
437.537	11262.8
437.743	11342.67
437.95	11457.36
438.157	12043.08
438.364	12198.73
438.571	12350.28
438.778	12340.04
438.985	13677.36
439.192	13095.74
439.399	13460.27
439.606	13183.8
439.813	13597.49
440.02	14936.86
440.227	14320.42
440.433	14299.94
440.64	14822.17
440.847	14699.3
441.054	15199
441.261	16036.62
441.467	15696.66
441.674	16042.76
441.881	16798.46
442.088	16585.47
442.294	16343.81
442.501	16859.9
442.708	17414.9
442.914	17998.57
443.121	18531.05
443.328	18266.86
443.534	19391.19
443.741	18969.31
443.948	18569.96
444.154	19890.9
444.361	19907.28
444.568	20210.38
444.774	20341.45
444.981	20134.6
445.187	20527.81
445.394	21846.71
445.6	21267.13
445.807	23480.99
446.013	22360.75
446.22	22745.76
446.426	23761.56
446.633	23929.49
446.839	24855.17
447.046	23773.85
447.252	25232
447.459	25096.83
447.665	24744.58
447.871	25956.98
448.078	26815.08
448.284	25789.05
448.491	26581.61
448.697	27353.69
448.903	27920.98
449.11	28013.14
449.316	27234.91
449.522	27920.98
449.728	28369.49
449.935	28641.87
450.141	28912.2
450.347	29782.59
450.553	28834.38
450.76	28877.38
450.966	30077.49
451.172	29440.57
451.378	30339.63
451.584	29749.82
451.791	30442.03
451.997	30237.23
452.203	30724.65
452.409	30808.62
452.615	30669.36
452.821	29835.83
453.027	29282.88
453.233	30798.38
453.44	29078.08
453.646	29631.04
453.852	30124.6
454.058	30399.02
454.264	29090.37
454.47	30016.05
454.676	29338.18
454.882	30229.04
455.088	27671.13
455.294	28088.92
455.5	28492.37
455.705	28799.56
455.911	27408.99
456.117	27079.27
456.323	26247.79
456.529	25174.66
456.735	26178.16
456.941	25680.5
457.147	25260.67
457.352	24531.59
457.558	23956.11
457.764	24056.46
457.97	23560.86
458.176	23214.75
458.381	23433.88
458.587	22022.83
458.793	21967.54
458.999	21082.81
459.204	22231.72
459.41	21512.89
459.616	20222.67
459.821	20357.83
460.027	20396.74
460.233	19798.74
460.438	18899.68
460.644	19049.18
460.85	18205.42
461.055	17965.81
461.261	17830.64
461.466	16550.66
461.672	16040.72
461.878	17269.5
462.083	16018.19
462.289	15860.49
462.494	15762.19
462.7	14787.36
462.905	14656.29
463.111	14973.72
463.316	14877.47
463.522	14633.76
463.727	14912.28
463.932	14625.57
464.138	14744.35
464.343	14695.2
464.549	14318.37
464.754	14748.45
464.959	14412.58
465.165	14375.72
465.37	14025.51
465.575	13697.84
465.781	14089
465.986	14140.2
466.191	13622.06
466.397	13452.08
466.602	12542.78
466.807	13538.1
467.012	13062.97
467.218	13187.89
467.423	12976.95
467.628	13200.18
467.833	13556.53
468.038	13249.33
468.244	12735.29
468.449	13323.06
468.654	12905.28
468.859	12800.83
469.064	12755.77
469.269	12215.11
469.474	12335.94
469.679	12448.58
469.885	12084.04
470.09	12243.78
470.295	12127.05
470.5	12006.22
470.705	11948.87
470.91	11733.84
471.115	11410.26
471.32	11729.74
471.525	11694.93
471.73	11324.24
471.935	11400.02
472.139	10994.52
472.344	10965.85
472.549	10963.8
472.754	10773.34
472.959	10464.1
473.164	10384.23
473.369	10363.75
473.574	10566.49
473.778	10517.34
473.983	10570.59
474.188	10509.15
474.393	9905
474.598	9849.71
474.802	10036.07
475.007	9972.58
475.212	9829.23
475.417	9366.39
475.621	9507.69
475.826	9562.99
476.031	9272.18
476.235	9079.67
476.44	9395.06
476.645	9028.47
476.849	9051
477.054	9012.09
477.259	8844.15
477.463	8829.82
477.668	8700.8
477.872	8735.61
478.077	8350.59
478.282	8446.85
478.486	8383.36
478.691	8356.74
478.895	8332.16
479.1	8240
479.304	8280.96
479.509	7979.91
479.713	8254.34
479.918	7932.81
480.122	7777.16
480.326	7842.7
480.531	8090.5
480.735	7850.89
480.94	7723.91
481.144	8117.12
481.348	7613.32
481.553	7693.19
481.757	7637.9
481.961	7797.64
482.166	7789.45
482.37	7924.62
482.574	7615.37
482.778	7566.22
482.983	7725.96
483.187	7811.98
483.391	7728.01
483.595	7781.26
483.8	7572.36
484.004	7631.76
484.208	7609.23
484.412	7787.4
484.616	7820.17
484.821	7664.52
485.025	7551.88
485.229	7730.06
485.433	7611.28
485.637	7517.07
485.841	7463.82
486.045	7674.76
486.249	7431.05
486.453	7537.55
486.657	7652.24
486.861	7824.26
487.065	7496.59
487.269	7725.96
487.473	7547.79
487.677	7555.98
487.881	7453.58
488.085	7648.14
488.289	7707.53
488.493	7623.56
488.697	7891.85
488.901	7576.46
489.105	7601.04
489.309	7646.09
489.512	7672.71
489.716	7789.45
489.92	7832.46
490.124	7703.43
490.328	7900.04
490.531	7797.64
490.735	7814.02
490.939	7721.87
491.143	7615.37
491.346	7871.37
491.55	8082.31
491.754	8049.54
491.958	7965.57
492.161	7963.53
492.365	7811.98
492.569	8053.64
492.772	7981.96
492.976	8063.88
493.18	8170.37
493.383	8352.64
493.587	8289.15
493.79	8549.25
493.994	8297.35
494.197	8487.81
494.401	8557.44
494.605	8440.7
494.808	8563.58
495.012	8696.7
495.215	8737.66
495.419	8768.38
495.622	8747.9
495.825	8999.8
496.029	8795
496.232	8969.08
496.436	8854.39
496.639	9188.21
496.843	9356.15
497.046	9321.33
497.249	9786.22
497.453	9438.06
497.656	9626.48
497.859	9661.29
498.063	9710.44
498.266	9761.64
498.469	9857.9
498.673	10122.09
498.876	10009.45
499.079	10273.64
499.282	10257.25
499.485	10494.82
499.689	10445.66
499.892	10767.2
500.095	10666.85
500.298	11002.71
500.501	10941.27
500.705	11301.72
500.908	11389.78
501.111	11227.99
501.314	11371.35
501.517	11520.85
501.72	11717.45
501.923	11651.92
502.126	11934.54
502.329	12024.65
502.532	12297.03
502.735	12292.93
502.938	12725.05
503.141	12827.45
503.344	12884.8
503.547	12800.83
503.75	12929.85
503.953	13325.11
504.156	13271.86
504.359	13171.51
504.562	13407.03
504.765	13716.27
504.968	13734.7
505.17	14195.5
505.373	14218.02
505.576	14299.94
505.779	14562.08
505.982	14656.29
506.185	14629.66
506.387	14668.58
506.59	15104.79
506.793	15526.68
506.996	15387.41
507.198	15545.11
507.401	15579.92
507.604	15989.52
507.807	16270.09
508.009	15993.61
508.212	16423.69
508.415	16761.6
508.617	16726.78
508.82	16820.99
509.022	16565
509.225	17289.98
509.428	17087.23
509.63	17423.09
509.833	17494.77
510.035	18064.11
510.238	17715.95
510.44	18152.17
510.643	18199.27
510.845	18500.33
511.048	18217.71
511.25	18809.57
511.453	18848.48
511.655	19403.48
511.858	19501.78
512.06	19417.82
512.262	19579.61
512.465	19520.21
512.667	20060.88
512.87	20433.61
513.072	20417.22
513.274	20863.68
513.477	21088.96
513.679	21002.94
513.881	21201.6
514.084	21293.76
514.286	21564.09
514.488	21598.9
514.69	22016.69
514.893	22319.79
515.095	22235.82
515.297	22534.82
515.499	22733.48
515.701	22803.11
515.904	23196.32
516.106	23155.36
516.308	23648.92
516.51	23575.19
516.712	23835.28
516.914	24394.38
517.116	24648.33
517.318	24554.12
517.52	24859.27
517.722	25088.64
517.925	25358.97
518.127	25502.33
518.329	25737.85
518.531	25760.37
518.733	25981.56
518.935	26409.58
519.136	26344.05
519.338	27034.21
519.54	26960.48
519.742	26923.62
519.944	27300.45
520.146	27855.45
520.348	27609.69
520.55	28344.91
520.752	28213.84
520.954	28236.37
521.155	28172.88
521.357	28889.67
521.559	29241.92
521.761	29467.2
521.963	29237.83
522.164	29321.79
522.366	29594.17
522.568	30018.1
522.77	30065.21
522.971	30448.18
523.173	30155.32
523.375	30820.91
523.576	30632.49
523.778	30558.77
523.98	31314.47
524.181	31265.31
524.383	31087.14
524.584	31805.98
524.786	31945.24
524.988	32125.46
525.189	32418.32
525.391	32219.67
525.592	32397.84
525.794	32649.74
525.995	32692.75
526.197	32762.38
526.398	32956.94
526.6	33116.68
526.801	33192.45
527.003	33196.55
527.204	33239.56
527.406	33694.21
527.607	33980.92
527.808	34071.03
528.01	33405.44
528.211	33923.58
528.412	34540.02
528.614	34490.87
528.815	34165.24
529.016	34779.63
529.218	34449.91
529.419	34648.56
529.62	34652.66
529.822	34707.95
530.023	34972.14
530.224	35058.15
530.425	34984.43
530.626	34916.84
530.828	34361.84
531.029	35398.12
531.23	34863.6
531.431	34953.71
531.632	35365.35
531.833	35533.28
532.035	35082.73
532.236	35484.13
532.437	35582.43
532.638	35465.7
532.839	35903.96
533.04	35791.33
533.241	35033.58
533.442	35858.91
533.643	35682.78
533.844	35779.04
534.045	35828.19
534.246	35852.76
534.447	35789.28
534.648	35662.3
534.849	35863
535.05	35748.32
535.251	35985.88
535.451	35514.85
535.652	35965.4
535.853	36004.31
536.054	35881.44
536.255	35949.02
536.456	35893.72
536.657	36391.38
536.857	35813.85
537.058	35578.34
537.259	36413.91
537.46	36319.7
537.66	35676.64
537.861	36157.91
538.062	35748.32
538.263	36049.37
538.463	36049.37
538.664	35860.96
538.865	35834.33
539.065	36311.51
539.266	35498.47
539.466	35951.07
539.667	35520.99
539.868	36389.33
540.068	36024.79
540.269	35776.99
540.469	36297.17
540.67	35588.58
540.87	36303.32
541.071	35910.11
541.271	36340.18
541.472	35688.93
541.672	35637.73
541.873	35733.98
542.073	35389.92
542.274	36256.21
542.474	35963.36
542.675	35297.77
542.875	36121.05
543.075	36010.46
543.276	35271.14
543.476	36385.24
543.676	35518.95
543.877	35578.34
544.077	35770.85
544.277	35557.86
544.478	35701.22
544.678	36121.05
544.878	35527.14
545.078	35844.57
545.279	35670.5
545.479	35426.79
545.679	35885.53
545.879	35942.88
546.079	35803.61
546.28	35561.95
546.48	35144.17
546.68	35588.58
546.88	35637.73
547.08	35723.74
547.28	35539.43
547.48	35316.2
547.68	35475.94
547.88	35336.68
548.081	35906.01
548.281	35271.14
548.481	35721.69
548.681	35625.44
548.881	35420.64
549.081	35619.3
549.28	35357.16
549.48	35471.84
549.68	35369.44
549.88	35828.19
550.08	34984.43
550.28	35570.15
550.48	35455.46
550.68	35383.78
550.88	35240.42
551.08	35361.25
551.279	35437.03
551.479	35119.59
551.679	35221.99
551.879	35064.3
552.079	35844.57
552.278	35310.05
552.478	35211.75
552.678	35166.7
552.878	35711.46
553.077	35148.26
553.277	34996.71
553.477	35402.21
553.676	35121.64
553.876	35482.08
554.076	34689.52
554.275	34796.01
554.475	34503.15
554.674	35193.32
554.874	34886.12
555.074	35111.4
555.273	35355.11
555.473	34826.73
555.672	34769.39
555.872	35025.39
556.071	34626.03
556.271	34955.75
556.47	34734.57
556.67	34552.3
556.869	34300.4
557.068	34771.44
557.268	34144.76
557.467	34048.5
557.667	34425.33
557.866	34460.15
558.065	34392.56
558.265	34396.66
558.464	33964.54
558.663	34486.77
558.863	33608.19
559.062	34335.22
559.261	33436.16
559.461	34181.62
559.66	33778.17
559.859	33722.88
560.058	33647.1
560.258	33862.14
560.457	33589.76
560.656	33683.97
560.855	33393.15
561.054	33591.81
561.253	33622.53
561.453	33339.91
561.652	33819.13
561.851	33667.58
562.05	33016.33
562.249	33100.29
562.448	33329.67
562.647	33163.78
562.846	33301
563.045	33341.96
563.244	32715.28
563.443	32854.54
563.642	32373.27
563.841	32606.73
564.04	32461.33
564.239	32748.04
564.438	32418.32
564.637	32539.15
564.836	32350.74
565.035	31916.57
565.234	32322.07
565.432	32117.27
565.631	31990.3
565.83	32033.3
566.029	31887.9
566.228	31578.65
566.427	31740.44
566.625	31658.52
566.824	31255.08
567.023	31732.25
567.222	31232.55
567.42	31699.48
567.619	30970.41
567.818	31140.39
568.016	30968.36
568.215	31275.55
568.414	31040.04
568.612	31359.52
568.811	31072.81
569.01	30800.43
569.208	30452.27
569.407	30919.21
569.605	29964.85
569.804	30612.01
570.002	30073.4
570.201	30382.64
570.4	30171.7
570.598	29901.37
570.797	29729.34
570.995	30046.77
571.193	29469.25
571.392	30296.63
571.59	29702.71
571.789	29993.53
571.987	29592.12
572.186	29395.52
572.384	29428.29
572.582	29131.33
572.781	29334.08
572.979	29112.9
573.177	29262.4
573.376	29471.29
573.574	28934.73
573.772	29217.35
573.971	28588.62
574.169	28822.09
574.367	28588.62
574.565	28580.43
574.763	28381.77
574.962	28594.76
575.16	28017.24
575.358	28246.61
575.556	27714.14
575.754	28351.06
575.952	27953.75
576.151	27984.47
576.349	27445.85
576.547	27972.18
576.745	27845.21
576.943	27628.12
577.141	27695.71
577.339	27548.25
577.537	27705.95
577.735	27365.98
577.933	26864.23
578.131	27320.93
578.329	26995.3
578.527	26866.28
578.725	26651.24
578.923	26940
579.121	27196
579.319	26806.89
579.516	26524.27
579.714	26565.23
579.912	26298.99
580.11	26231.41
580.308	26423.92
580.506	26258.03
580.704	25895.54
580.901	26010.23
581.099	26342
581.297	25850.49
581.495	25870.97
581.692	26161.78
581.89	25911.92
582.088	26063.47
582.285	25471.61
582.483	25901.68
582.681	25633.4
582.878	25465.47
583.076	25193.09
583.274	25580.15
583.471	25000.58
583.669	25213.57
583.866	25109.12
584.064	25252.48
584.262	24728.2
584.459	25094.79
584.657	24668.81
584.854	24912.52
585.052	24396.43
585.249	24597.13
585.447	24578.7
585.644	24265.36
585.841	24296.08
586.039	24844.93
586.236	24167.06
586.434	23927.44
586.631	23915.16
586.828	24107.66
587.026	23880.34
587.223	23931.54
587.42	23784.09
587.618	24019.6
587.815	23415.45
588.012	23480.99
588.21	23427.74
588.407	23710.36
588.604	23407.26
588.801	23407.26
588.999	23380.64
589.196	23304.86
589.393	23444.12
589.59	23167.65
589.787	22979.23
589.984	23147.17
590.182	22885.03
590.379	22979.23
590.576	22672.04
590.773	22657.7
590.97	22485.67
591.167	22696.61
591.364	22506.15
591.561	22633.13
591.758	22401.71
591.955	22364.84
592.152	22368.94
592.349	21963.44
592.546	22127.28
592.743	22399.66
592.94	21832.37
593.137	22063.79
593.334	21750.45
593.531	21957.3
593.727	21912.24
593.924	21893.81
594.121	21461.69
594.318	21623.48
594.515	21267.13
594.712	21662.39
594.908	21189.31
595.105	21226.17
595.302	21428.92
595.499	21275.32
595.696	20777.67
595.892	20994.75
596.089	21082.81
596.286	20945.6
596.482	20564.68
596.679	20800.19
596.876	20656.84
597.072	20749
597.269	20763.33
597.466	20564.68
597.662	20275.91
597.859	20548.29
598.055	20302.54
598.252	20425.42
598.448	20581.06
598.645	20349.64
598.841	19862.22
599.038	19997.39
599.234	20097.74
599.431	19786.45
599.627	19727.06
599.824	20011.73
600.02	19817.17
600.217	19464.92
600.413	19645.14
600.609	19540.69
600.806	19284.7
601.002	19714.77
601.198	19260.12
601.395	19397.34
601.591	19235.55
601.787	19147.48
601.984	19036.89
602.18	19481.3
602.376	18856.67
602.572	19012.32
602.769	18830.05
602.965	18764.51
603.161	18918.11
603.357	18510.57
603.553	18735.84
603.75	18791.14
603.946	18584.29
604.142	18518.76
604.338	18232.04
604.534	18352.87
604.73	18293.48
604.926	18297.58
605.122	18070.25
605.318	18289.38
605.514	18068.2
605.71	17801.97
605.906	18057.96
606.102	17855.22
606.298	17861.36
606.494	17894.13
606.69	17896.17
606.886	17832.69
607.082	17668.85
607.278	17761.01
607.474	17529.59
607.67	17593.08
607.866	17355.51
608.062	17738.48
608.257	17386.23
608.453	17554.16
608.649	17462.01
608.845	17193.72
609.041	17427.19
609.236	17312.5
609.432	17251.06
609.628	17109.75
609.824	17179.39
610.019	17052.41
610.215	17285.88
610.411	17029.88
610.606	16997.12
610.802	16902.91
610.998	16958.21
611.193	16714.5
611.389	16927.49
611.584	16536.32
611.78	16409.35
611.976	16829.18
612.171	16747.26
612.367	16538.37
612.562	16374.53
612.758	16395.01
612.953	16214.79
613.149	16476.93
613.344	16153.35
613.539	16544.52
613.735	16579.33
613.93	16497.41
614.126	16225.03
614.321	16468.74
614.517	16290.57
614.712	16255.75
614.907	15878.93
615.103	16151.31
615.298	15854.35
615.493	15971.08
615.688	15930.12
615.884	16022.28
616.079	15657.75
616.274	15868.69
616.47	15858.45
616.665	15772.43
616.86	15678.22
617.055	15934.22
617.25	15850.25
617.445	15872.78
617.641	15360.79
617.836	15743.76
618.031	15063.83
618.226	15569.68
618.421	15686.42
618.616	15541.01
618.811	15373.08
619.006	15602.45
619.201	14979.87
619.396	15061.79
619.591	14842.65
619.786	15237.91
619.981	14943
620.176	15100.7
620.371	14926.62
620.566	14787.36
620.761	14701.34
620.956	14844.7
621.151	14682.91
621.346	14754.59
621.541	14517.03
621.735	14637.86
621.93	14080.81
622.125	14281.51
622.32	14048.04
622.515	14097.19
622.709	13859.63
622.904	13988.65
623.099	13935.4
623.294	13845.29
623.488	13523.76
623.683	13833
623.878	13536.05
624.072	13886.25
624.267	13632.3
624.462	13488.95
624.656	13419.32
624.851	13204.28
625.046	13306.68
625.24	13196.09
625.435	12956.47
625.629	13081.4
625.824	12987.19
626.018	13167.42
626.213	12731.2
626.407	12833.6
626.602	12467.01
626.796	12780.35
626.991	12632.9
627.185	12626.75
627.38	12344.13
627.574	12165.96
627.768	12204.87
627.963	12315.46
628.157	12129.09
628.352	12254.02
628.546	11793.23
628.74	12034.89
628.935	11807.56
629.129	11914.06
629.323	11852.62
629.517	11918.15
629.712	11514.7
629.906	11871.05
630.1	11721.55
630.294	11678.54
630.489	11166.55
630.683	11576.14
630.877	11307.86
631.071	11066.2
631.265	11199.32
631.459	11168.6
631.653	11039.58
631.848	11082.58
632.042	10832.73
632.236	10951.51
632.43	10752.86
632.624	10908.51
632.818	10681.18
633.012	10556.25
633.206	10427.23
633.4	10617.69
633.594	10453.86
633.788	10482.53
633.982	10503.01
634.176	10300.26
634.369	10218.34
634.563	10300.26
634.757	10222.44
634.951	10025.83
635.145	10183.52
635.339	10101.61
635.533	10079.08
635.726	10023.78
635.92	9874.28
636.114	9839.47
636.308	9833.32
636.501	9866.09
636.695	9775.98
636.889	9495.41
637.083	9800.55
637.276	9239.41
637.47	9689.96
637.664	9487.22
637.857	9454.45
638.051	9419.63
638.244	9196.4
638.438	9292.66
638.632	8973.18
638.825	9059.19
639.019	9243.51
639.212	9030.52
639.406	9036.66
639.599	8895.35
639.793	8784.76
639.986	8610.68
640.18	8756.09
640.373	8715.13
640.567	8627.07
640.76	8452.99
640.954	8438.66
641.147	8440.7
641.34	8536.96
641.534	8510.33
641.727	8340.35
641.92	8463.23
642.114	8295.3
642.307	8369.02
642.5	8330.11
642.694	8147.84
642.887	8051.59
643.08	8119.17
643.273	7947.14
643.467	7963.53
643.66	8031.11
643.853	8012.68
644.046	7830.41
644.239	7799.69
644.432	7791.5
644.626	7701.39
644.819	8022.92
645.012	7633.8
645.205	7633.8
645.398	7689.1
645.591	7736.2
645.784	7570.32
645.977	7328.66
646.17	7388.05
646.363	7117.72
646.556	7308.18
646.749	7338.9
646.942	7484.3
647.135	7261.07
647.328	7228.31
647.521	7089.04
647.714	6896.53
647.907	6835.1
648.099	7138.2
648.292	7009.17
648.485	6908.82
648.678	6884.25
648.871	7011.22
649.064	6763.42
649.256	6794.14
649.449	6914.97
649.642	6716.31
649.835	6675.35
650.027	6701.98
650.22	6779.8
650.413	6722.46
650.605	6671.26
650.798	6474.65
650.991	6529.95
651.183	6544.28
651.376	6484.89
651.568	6484.89
651.761	6429.6
651.954	6331.3
652.146	6355.87
652.339	6189.99
652.531	6224.8
652.724	6056.87
652.916	6067.11
653.109	6020
653.301	5956.52
653.494	6142.88
653.686	5831.59
653.879	6077.35
654.071	6089.64
654.263	5858.21
654.456	5956.52
654.648	5770.15
654.84	5919.65
655.033	5817.26
655.225	5825.45
655.417	5606.31
655.61	5698.47
655.802	5815.21
655.994	5764.01
656.186	5764.01
656.379	5608.36
656.571	5708.71
656.763	5594.03
656.955	5469.1
657.148	5585.83
657.34	5522.35
657.532	5444.52
657.724	5247.92
657.916	5471.15
658.108	5305.26
658.3	5389.23
658.492	5274.54
658.684	5180.34
658.876	5321.65
659.068	5114.8
659.26	5137.33
659.452	5243.82
659.644	5008.31
659.836	5047.22
660.028	5141.43
660.22	5147.57
660.412	5147.57
660.604	4832.18
660.796	5022.64
660.988	4948.92
661.18	4826.04
661.372	4996.02
661.563	4674.49
661.755	4727.74
661.947	4670.39
662.139	4752.31
662.331	4793.27
662.522	4754.36
662.714	4756.41
662.906	4694.97
663.097	4789.17
663.289	4701.11
663.481	4621.24
663.673	4651.96
663.864	4539.32
664.056	4588.47
664.247	4582.33
664.439	4488.12
664.631	4451.26
664.822	4484.03
665.014	4520.89
665.205	4393.92
665.397	4318.14
665.588	4312
665.78	4400.06
665.971	4232.13
666.163	4355.01
666.354	4291.52
666.546	4252.61
666.737	4103.11
666.929	4287.42
667.12	4330.43
667.311	4228.03
667.503	4197.31
667.694	4264.89
667.885	4156.35
668.077	4152.26
668.268	4045.76
668.459	4070.34
668.651	3941.32
668.842	4068.29
669.033	4047.81
669.224	3871.68
669.416	3990.47
669.607	3984.32
669.798	4027.33
669.989	4000.71
670.18	3810.25
670.371	3873.73
670.563	3900.36
670.754	3843.01
670.945	3777.48
671.136	3914.69
671.327	3853.25
671.518	3734.47
671.709	3781.57
671.9	3761.09
672.091	3879.88
672.282	3697.61
672.473	3713.99
672.664	3603.4
672.855	3683.27
673.046	3703.75
673.237	3576.78
673.428	3627.98
673.619	3734.47
673.809	3654.6
674	3593.16
674.191	3572.68
674.382	3449.8
674.573	3599.31
674.764	3462.09
674.954	3558.35
675.145	3548.11
675.336	3492.81
675.527	3455.95
675.717	3412.94
675.908	3472.33
676.099	3468.24
676.289	3357.64
676.48	3515.34
676.671	3345.36
676.861	3318.73
677.052	3214.29
677.243	3331.02
677.433	3238.86
677.624	3425.23
677.814	3283.92
678.005	3273.68
678.195	3218.38
678.386	3197.9
678.576	3169.23
678.767	3294.16
678.957	3230.67
679.148	3189.71
679.338	3312.59
679.529	3189.71
679.719	3210.19
679.909	3333.07
680.1	3154.9
680.29	3187.66
680.481	3167.18
680.671	3152.85
680.861	3025.87
681.052	3107.79
681.242	3142.61
681.432	3060.69
681.622	3146.7
681.813	3177.42
682.003	3066.83
682.193	2964.43
682.383	3122.13
682.573	3005.39
682.764	3091.41
682.954	3070.93
683.144	3195.86
683.334	3075.03
683.524	3005.39
683.714	3105.74
683.904	3083.22
684.094	2995.15
684.284	2991.06
684.474	3058.64
684.664	2972.63
684.854	2927.57
685.044	3040.21
685.234	2976.72
685.424	2968.53
685.614	2935.76
685.804	2776.02
685.994	2859.99
686.184	2898.9
686.374	2780.12
686.564	2905.04
686.753	2923.48
686.943	2962.39
687.133	2782.17
687.323	2956.24
687.513	2870.23
687.702	2800.6
687.892	2739.16
688.082	2778.07
688.272	2769.88
688.461	2745.3
688.651	2868.18
688.841	2810.84
689.03	2841.56
689.22	2687.96
689.41	2806.74
689.599	2675.67
689.789	2634.71
689.979	2665.43
690.168	2796.5
690.358	2554.84
690.547	2835.41
690.737	2534.36
690.926	2665.43
691.116	2368.48
691.305	2679.77
691.495	2536.41
691.684	2567.13
691.874	2620.38
692.063	2530.27
692.252	2626.52
692.442	2517.98
692.631	2528.22
692.82	2579.42
693.01	2569.18
693.199	2536.41
693.388	2479.07
693.578	2524.12
693.767	2462.68
693.956	2515.93
694.146	2503.64
694.335	2520.03
694.524	2540.51
694.713	2585.56
694.902	2288.61
695.092	2409.44
695.281	2442.2
695.47	2495.45
695.659	2403.29
695.848	2384.86
696.037	2386.91
696.226	2397.15
696.415	2378.72
696.604	2288.61
696.793	2356.19
696.982	2350.04
697.171	2300.89
697.36	2384.86
697.549	2423.77
697.738	2376.67
697.927	2325.47
698.116	2196.45
698.305	2274.27
698.494	2317.28
698.683	2180.06
698.872	2343.9
699.061	2405.34
699.25	2380.76
699.438	2386.91
699.627	2268.13
699.816	2425.82
700.005	2388.96
700.193	2321.37
700.382	2399.2
700.571	2335.71
700.76	2264.03
700.948	2323.42
701.137	2272.22
701.326	2290.65
701.514	2237.41
701.703	2313.18
701.892	2245.6
702.08	2257.89
702.269	2261.98
702.457	2272.22
702.646	2372.57
702.834	2241.5
703.023	2397.15
703.212	2364.38
703.4	2233.31
703.589	2261.98
703.777	2362.33
703.965	2249.69
704.154	2214.88
704.342	2272.22
704.531	2249.69
704.719	2278.37
704.907	2245.6
705.096	2239.45
705.284	2241.5
705.472	2251.74
705.661	2276.32
705.849	2321.37
706.037	2225.12
706.226	2235.36
706.414	2274.27
706.602	2225.12
706.79	2337.76
706.979	2362.33
707.167	2235.36
707.355	2348
707.543	2247.65
707.731	2227.17
707.919	2296.8
708.107	2218.97
708.296	2272.22
708.484	2251.74
708.672	2218.97
708.86	2216.93
709.048	2261.98
709.236	2290.65
709.424	2335.71
709.612	2186.21
709.8	2182.11
709.988	2268.13
710.176	2341.85
710.364	2335.71
710.551	2210.78
710.739	2223.07
710.927	2247.65
711.115	2298.84
711.303	2223.07
711.491	2233.31
711.679	2261.98
711.866	2257.89
712.054	2221.02
712.242	2241.5
712.43	2282.46
712.617	2227.17
712.805	2210.78
712.993	2264.03
713.181	2157.54
713.368	2231.26
713.556	2257.89
713.744	2233.31
713.931	2204.64
714.119	2235.36
714.306	2255.84
714.494	2204.64
714.682	2225.12
714.869	2290.65
715.057	2210.78
715.244	2300.89
715.432	2165.73
715.619	2315.23
715.807	2202.59
715.994	2249.69
716.182	2311.13
716.369	2218.97
716.556	2233.31
716.744	2257.89
716.931	2198.49
717.119	2184.16
717.306	2190.3
717.493	2223.07
717.681	2268.13
717.868	2223.07
718.055	2348
718.242	2192.35
718.43	2108.38
718.617	2235.36
718.804	2157.54
718.991	2204.64
719.179	2233.31
719.366	2175.97
719.553	2155.49
719.74	2255.84
719.927	2206.69
720.114	2141.15
720.301	2173.92
720.488	2210.78
720.676	2225.12
720.863	2241.5
721.05	2171.87
721.237	2165.73
721.424	2292.7
721.611	2288.61
721.798	2204.64
721.985	2175.97
722.172	2208.73
722.358	2206.69
722.545	2206.69
722.732	2145.25
722.919	2175.97
723.106	2210.78
723.293	2067.42
723.48	1987.55
723.667	2120.67
723.853	2145.25
724.04	2141.15
724.227	2296.8
724.414	2259.93
724.6	2175.97
724.787	2204.64
724.974	2266.08
725.161	2190.3
725.347	2040.8
725.534	2147.3
725.72	2196.45
725.907	2225.12
726.094	2124.77
726.28	2083.81
726.467	2249.69
726.653	2116.58
726.84	2210.78
727.027	2253.79
727.213	2161.63
727.4	2104.29
727.586	2190.3
727.773	2171.87
727.959	2155.49
728.145	2272.22
728.332	2159.58
728.518	2114.53
728.705	2182.11
728.891	2155.49
729.077	2231.26
729.264	2110.43
729.45	2214.88
729.636	2173.92
729.823	2157.54
730.009	2225.12
730.195	2292.7
730.382	2178.01
730.568	2214.88
730.754	2186.21
730.94	2259.93
731.126	2163.68
731.313	2157.54
731.499	2214.88
731.685	2180.06
731.871	2104.29
732.057	2210.78
732.243	2151.39
732.429	2151.39
732.615	2092
732.801	2120.67
732.987	2155.49
733.173	2141.15
733.359	2118.62
733.545	2085.86
733.731	2173.92
733.917	2055.14
734.103	2180.06
734.289	2188.25
734.475	2065.38
734.661	2161.63
734.847	2151.39
735.033	2092
735.219	2075.62
735.404	2053.09
735.59	2073.57
735.776	2057.18
735.962	2135.01
736.148	2120.67
736.333	2040.8
736.519	2063.33
736.705	2085.86
736.89	2118.62
737.076	2044.9
737.262	2040.8
737.447	2036.7
737.633	2094.05
737.819	2044.9
738.004	2112.48
738.19	2130.91
738.375	2048.99
738.561	2130.91
738.747	2055.14
738.932	1928.16
739.118	2061.28
739.303	2118.62
739.489	2132.96
739.674	1965.03
739.859	1995.75
740.045	1981.41
740.23	2053.09
740.416	2038.75
740.601	1956.83
740.786	1934.31
740.972	1940.45
741.157	1985.51
741.342	1954.79
741.528	1862.63
741.713	1991.65
741.898	1858.53
742.084	2022.37
742.269	1922.02
742.454	1909.73
742.639	1870.82
742.824	1866.72
743.01	1924.07
743.195	2012.13
743.38	1850.34
743.565	1885.16
743.75	1997.79
743.935	1809.38
744.12	1911.78
744.305	1881.06
744.49	1784.8
744.675	1915.87
744.86	1897.44
745.045	1829.86
745.23	1747.94
745.415	1766.37
745.6	1807.33
745.785	1797.09
745.97	1840.1
746.155	1717.22
746.34	1838.05
746.525	1690.6
746.71	1838.05
746.895	1721.32
747.079	1745.89
747.264	1770.47
747.449	1799.14
747.634	1676.26
747.819	1737.7
748.003	1620.97
748.188	1676.26
748.373	1625.06
748.557	1745.89
748.742	1588.2
748.927	1670.12
749.111	1584.1
749.296	1672.17
749.481	1567.72
749.665	1655.78
749.85	1569.77
750.034	1614.82
750.219	1627.11
750.404	1565.67
750.588	1625.06
750.773	1534.95
750.957	1541.1
751.141	1537
751.326	1418.22
751.51	1561.58
751.695	1428.46
751.879	1526.76
752.064	1493.99
752.248	1489.9
752.432	1469.42
752.617	1434.6
752.801	1491.95
752.985	1301.48
753.17	1461.23
753.354	1426.41
753.538	1369.07
753.722	1354.73
753.907	1367.02
754.091	1307.63
754.275	1344.49
754.459	1342.44
754.643	1399.79
754.828	1383.4
755.012	1260.52
755.196	1391.59
755.38	1252.33
755.564	1336.3
755.748	1240.05
755.932	1321.96
756.116	1254.38
756.3	1252.33
756.484	1235.95
756.668	1244.14
756.852	1238
757.036	1192.94
757.22	1203.18
757.404	1143.79
757.588	1278.96
757.772	1283.05
757.956	1201.13
758.14	1182.7
758.323	1098.74
758.507	1184.75
758.691	1131.5
758.875	1158.13
759.059	1137.65
759.242	1063.92
759.426	1151.98
759.61	1098.74
759.794	1086.45
759.977	1133.55
760.161	1049.58
760.345	1164.27
760.528	1098.74
760.712	1096.69
760.895	1041.39
761.079	1045.49
761.263	1049.58
761.446	1111.02
761.63	951.28
761.813	1074.16
761.997	1002.48
762.18	1076.21
762.364	1072.11
762.547	1078.26
762.731	1061.87
762.914	1041.39
763.098	977.91
763.281	1090.54
763.464	1082.35
763.648	988.14
763.831	1031.15
764.015	887.79
764.198	932.85
764.381	1059.82
764.564	1047.54
764.748	938.99
764.931	992.24
765.114	943.09
765.297	990.19
765.481	951.28
765.664	957.43
765.847	969.71
766.03	971.76
766.213	943.09
766.397	961.52
766.58	928.75
766.763	975.86
766.946	898.03
767.129	969.71
767.312	928.75
767.495	865.27
767.678	934.9
767.861	941.04
768.044	869.36
768.227	809.97
768.41	900.08
768.593	852.98
768.776	871.41
768.959	836.6
769.142	928.75
769.324	850.93
769.507	982
769.69	855.03
769.873	895.99
770.056	875.51
770.239	887.79
770.421	842.74
770.604	795.64
770.787	764.92
770.97	920.56
771.152	809.97
771.335	818.16
771.518	869.36
771.7	902.13
771.883	820.21
772.066	789.49
772.248	793.59
772.431	820.21
772.613	875.51
772.796	658.42
772.978	910.32
773.161	773.11
773.343	814.07
773.526	787.44
773.708	730.1
773.891	701.43
774.073	754.68
774.256	740.34
774.438	670.71
774.621	807.92
774.803	719.86
774.985	719.86
775.168	703.48
775.35	756.72
775.532	791.54
775.715	711.67
775.897	756.72
776.079	760.82
776.261	746.48
776.444	713.72
776.626	672.76
776.808	719.86
776.99	650.23
777.173	691.19
777.355	642.04
777.537	683
777.719	664.57
777.901	654.33
778.083	586.74
778.265	658.42
778.447	637.94
778.629	599.03
778.811	617.46
778.993	625.65
779.175	695.29
779.357	590.84
779.539	605.17
779.721	584.7
779.903	642.04
780.085	654.33
780.267	541.69
780.449	566.26
780.631	566.26
780.812	658.42
780.994	541.69
781.176	556.02
781.358	543.74
781.54	535.54
781.721	531.45
781.903	537.59
782.085	572.41
782.267	523.26
782.448	529.4
782.63	513.02
782.812	498.68
782.993	525.3
783.175	504.82
783.357	521.21
783.538	535.54
783.72	443.39
783.901	521.21
784.083	582.65
784.264	480.25
784.446	480.25
784.627	527.35
784.809	496.63
784.99	541.69
785.172	465.91
785.353	449.53
785.535	480.25
785.716	482.3
785.897	476.15
786.079	486.39
786.26	338.94
786.441	439.29
786.623	472.06
786.804	435.19
786.985	431.1
787.167	439.29
787.348	439.29
787.529	459.77
787.71	394.23
787.891	357.37
788.073	416.76
788.254	400.38
788.435	484.34
788.616	404.47
788.797	367.61
788.978	338.94
789.159	308.22
789.34	484.34
789.522	422.91
789.703	334.84
789.884	404.47
790.065	390.14
790.246	443.39
790.427	379.9
790.607	410.62
790.788	463.86
790.969	383.99
791.15	431.1
791.331	367.61
791.512	400.38
791.693	302.08
791.874	308.22
792.054	375.8
792.235	381.95
792.416	320.51
792.597	308.22
792.778	328.7
792.958	316.41
793.139	308.22
793.32	390.14
793.5	273.4
793.681	394.23
793.862	248.83
794.042	322.56
794.223	316.41
794.404	320.51
794.584	328.7
794.765	277.5
794.945	273.4
795.126	263.16
795.306	355.32
795.487	314.36
795.667	328.7
795.848	310.27
796.028	263.16
796.209	320.51
796.389	308.22
796.57	252.92
796.75	283.64
796.93	261.12
797.111	226.3
797.291	289.79
797.471	289.79
797.652	343.03
797.832	279.55
798.012	263.16
798.192	277.5
798.373	207.87
798.553	275.45
798.733	338.94
798.913	257.02
799.093	314.36
799.274	265.21
799.454	285.69
799.634	279.55
799.814	302.08
799.994	218.11
800.174	279.55
800.354	308.22
800.534	228.35
800.714	199.68
800.894	201.72
801.074	189.44
801.254	216.06
801.434	269.31
801.614	228.35
801.794	236.54
801.974	656.37
802.154	224.25
802.334	234.49
802.514	291.84
802.693	259.07
802.873	238.59
803.053	220.16
803.233	332.79
803.413	195.58
803.592	179.2
803.772	203.77
803.952	162.81
804.131	238.59
804.311	259.07
804.491	250.88
804.67	216.06
804.85	211.96
805.03	261.12
805.209	240.64
805.389	199.68
805.568	236.54
805.748	209.92
805.928	119.81
806.107	134.14
806.287	181.25
806.466	259.07
806.646	166.91
806.825	185.34
807.004	175.1
807.184	222.2
807.363	216.06
807.543	207.87
807.722	179.2
807.901	171.01
808.081	201.72
808.26	128
808.439	191.49
808.619	220.16
808.798	164.86
808.977	171.01
809.156	252.92
809.336	164.86
809.515	183.29
809.694	201.72
809.873	203.77
810.052	123.9
810.231	130.05
810.411	158.72
810.59	160.77
810.769	207.87
810.948	181.25
811.127	199.68
811.306	175.1
811.485	197.63
811.664	144.38
811.843	248.83
812.022	175.1
812.201	154.62
812.38	134.14
812.559	107.52
812.737	173.05
812.916	199.68
813.095	164.86
813.274	144.38
813.453	191.49
813.632	97.28
813.811	175.1
813.989	148.48
814.168	119.81
814.347	164.86
814.526	107.52
814.704	189.44
814.883	191.49
815.062	189.44
815.24	173.05
815.419	117.76
815.598	158.72
815.776	117.76
815.955	105.47
816.133	87.04
816.312	183.29
816.49	166.91
816.669	132.09
816.847	125.95
817.026	130.05
817.204	121.85
817.383	195.58
817.561	150.53
817.74	168.96
817.918	179.2
818.097	146.43
818.275	125.95
818.453	111.61
818.632	115.71
818.81	177.15
818.988	91.13
819.167	80.89
819.345	171.01
819.523	164.86
819.701	150.53
819.879	87.04
820.058	103.42
820.236	103.42
820.414	156.67
820.592	115.71
820.77	146.43
820.948	132.09
821.127	117.76
821.305	109.57
821.483	97.28
821.661	189.44
821.839	21.5
822.017	113.66
822.195	48.13
822.373	144.38
822.551	240.64
822.729	93.18
822.907	121.85
823.085	91.13
823.262	66.56
823.44	140.29
823.618	130.05
823.796	70.65
823.974	136.19
824.152	117.76
824.329	142.33
824.507	46.08
824.685	105.47
824.863	121.85
825.04	35.84
825.218	64.51
825.396	76.8
825.574	148.48
825.751	99.33
825.929	82.94
826.107	117.76
826.284	68.61
826.462	128
826.639	87.04
826.817	97.28
826.994	111.61
827.172	97.28
827.349	35.84
827.527	158.72
827.704	134.14
827.882	74.75
828.059	62.46
828.237	50.18
828.414	21.5
828.591	39.94
828.769	17.41
828.946	35.84
829.124	107.52
829.301	7.17
829.478	136.19
829.655	148.48
829.833	62.46
830.01	56.32
830.187	89.09
830.364	58.37
830.542	113.66
830.719	41.98
830.896	144.38
831.073	23.55
831.25	117.76
831.427	13.31
831.604	123.9
831.782	109.57
831.959	33.79
832.136	84.99
832.313	91.13
832.49	41.98
832.667	78.85
832.844	89.09
833.021	125.95
833.198	23.55
833.374	15.36
833.551	60.42
833.728	64.51
833.905	89.09
834.082	72.7
834.259	62.46
834.436	138.24
834.612	50.18
834.789	121.85
834.966	89.09
835.143	46.08
835.319	23.55
835.496	93.18
835.673	76.8
835.85	23.55
836.026	68.61
836.203	80.89
836.38	80.89
836.556	99.33
836.733	87.04
836.909	52.22
837.086	15.36
837.262	76.8
837.439	54.27
837.616	48.13
837.792	107.52
837.968	66.56
838.145	17.41
838.321	142.33
838.498	66.56
838.674	7.17
838.851	58.37
839.027	68.61
839.203	-21.5
839.38	29.7
839.556	138.24
839.732	103.42
839.909	50.18
840.085	95.23
840.261	5.12
840.437	82.94
840.614	19.46
840.79	205.82
840.966	113.66
841.142	99.33
841.318	29.7
841.494	64.51
841.671	-29.7
841.847	76.8
842.023	82.94
842.199	52.22
842.375	93.18
842.551	93.18
842.727	15.36
842.903	95.23
843.079	82.94
843.255	142.33
843.431	97.28
843.607	115.71
843.783	54.27
843.959	66.56
844.134	5.12
844.31	87.04
844.486	27.65
844.662	93.18
844.838	29.7
845.013	70.65
845.189	11.26
845.365	50.18
845.541	21.5
845.716	89.09
845.892	46.08
846.068	95.23
846.244	19.46
846.419	7.17
846.595	39.94
846.77	-54.27
846.946	46.08
847.122	27.65
847.297	105.47
847.473	11.26
847.648	58.37
847.824	27.65
847.999	33.79
848.175	52.22
848.35	58.37
848.526	87.04
848.701	70.65
848.876	27.65
849.052	35.84
849.227	64.51
849.403	74.75
849.578	70.65
849.753	-41.98
849.929	-7.17
850.104	123.9
850.279	33.79
850.454	-23.55
850.63	39.94
850.805	27.65
850.98	27.65
851.155	41.98
851.33	56.32
851.505	60.42
851.681	78.85
851.856	13.31
852.031	46.08
852.206	58.37
852.381	41.98
852.556	95.23
852.731	-3.07
852.906	25.6
853.081	31.74
853.256	91.13
853.431	9.22
853.606	25.6
853.781	29.7
853.956	62.46
854.131	29.7
854.305	-13.31
854.48	113.66
854.655	9.22
854.83	-11.26
855.005	-3.07
855.18	9.22
855.354	-1.02
855.529	3.07
855.704	68.61
855.879	-3.07
856.053	17.41
856.228	70.65
856.403	3.07
856.577	31.74
856.752	-17.41
856.926	-35.84
857.101	29.7
857.276	11.26
857.45	39.94
857.625	35.84
857.799	-5.12
857.974	46.08
858.148	5.12
858.323	15.36
858.497	27.65
858.672	46.08
858.846	-50.18
859.02	46.08
859.195	35.84
859.369	84.99
859.543	35.84
859.718	25.6
859.892	17.41
860.066	68.61
860.241	70.65
860.415	35.84
860.589	-9.22
860.763	48.13
860.938	13.31
861.112	46.08
861.286	84.99
861.46	78.85
861.634	23.55
861.808	119.81
861.982	48.13
862.157	9.22
862.331	-1.02
862.505	48.13
862.679	54.27
862.853	33.79
863.027	3.07
863.201	31.74
863.375	37.89
863.549	39.94
863.722	15.36
863.896	54.27
864.07	5.12
864.244	25.6
864.418	60.42
864.592	11.26
864.766	31.74
864.939	13.31
865.113	64.51
865.287	37.89
865.461	-37.89
865.634	-13.31
865.808	107.52
865.982	9.22
866.156	41.98
866.329	-41.98
866.503	56.32
866.676	-1.02
866.85	17.41
867.024	19.46
867.197	99.33
867.371	21.5
867.544	91.13
867.718	72.7
867.891	15.36
868.065	1.02
868.238	-15.36
868.412	87.04
868.585	35.84
868.759	-3.07
868.932	-1.02
869.105	-17.41
869.279	21.5
869.452	3.07
869.625	87.04
869.799	29.7
869.972	13.31
870.145	11.26
870.319	64.51
870.492	7.17
870.665	19.46
870.838	84.99
871.011	11.26
871.185	44.03
871.358	-41.98
871.531	50.18
871.704	-13.31
871.877	50.18
872.05	-11.26
872.223	3.07
872.396	21.5
872.569	89.09
872.742	64.51
872.915	64.51
873.088	-25.6
873.261	-27.65
873.434	35.84
873.607	-21.5
873.78	101.37
873.953	27.65
874.126	-13.31
874.299	29.7
874.471	3.07
874.644	-9.22
874.817	31.74
874.99	11.26
875.163	72.7
875.335	11.26
875.508	62.46
875.681	93.18
875.853	19.46
876.026	82.94
876.199	64.51
876.371	23.55
876.544	5.12
876.717	-19.46
876.889	3.07
877.062	50.18
877.234	1.02
877.407	17.41
877.579	39.94
877.752	89.09
877.924	82.94
878.097	74.75
878.269	3.07
878.442	97.28
878.614	21.5
878.786	58.37
878.959	-37.89
879.131	44.03
879.303	3.07
879.476	11.26
879.648	-9.22
879.82	9.22
879.993	3.07
880.165	29.7
880.337	13.31
880.509	68.61
880.681	-54.27
880.854	13.31
881.026	-29.7
881.198	23.55
881.37	-62.46
881.542	52.22
881.714	35.84
881.886	78.85
882.058	-17.41
882.23	9.22
882.402	-46.08
882.574	13.31
882.746	68.61
882.918	64.51
883.09	17.41
883.262	54.27
883.434	9.22
883.606	5.12
883.778	19.46
883.95	87.04
884.122	9.22
884.293	-23.55
884.465	15.36
884.637	50.18
884.809	13.31
884.98	19.46
885.152	19.46
885.324	27.65
885.496	19.46
885.667	76.8
885.839	52.22
886.011	5.12
886.182	39.94
886.354	54.27
886.525	9.22
886.697	29.7
886.869	-68.61
887.04	46.08
887.212	68.61
887.383	72.7
887.555	84.99
887.726	46.08
887.897	-31.74
888.069	52.22
888.24	-11.26
888.412	-15.36
888.583	15.36
888.754	21.5
888.926	-27.65
889.097	29.7
889.268	-37.89
889.44	91.13
889.611	-19.46
889.782	-11.26
889.953	-25.6
890.125	19.46
890.296	15.36
890.467	-15.36
890.638	-23.55
890.809	58.37
890.98	9.22
891.151	19.46
891.323	44.03
891.494	29.7
891.665	-23.55
891.836	41.98
892.007	19.46
892.178	50.18
892.349	33.79
892.52	-13.31
892.691	5.12
892.862	31.74
893.032	-70.65
893.203	35.84
893.374	84.99
893.545	29.7
893.716	54.27
893.887	27.65
894.057	33.79
894.228	91.13
894.399	-13.31
894.57	62.46
894.74	15.36
894.911	91.13
895.082	-17.41
895.253	44.03
895.423	-39.94
895.594	-11.26
895.764	56.32
895.935	-9.22
896.106	95.23
896.276	35.84
896.447	19.46
896.617	17.41
896.788	54.27
896.958	-19.46
897.129	-25.6
897.299	25.6
897.47	-39.94
897.64	29.7
897.81	19.46
897.981	-1.02
898.151	48.13
898.322	-27.65
898.492	31.74
898.662	35.84
898.832	-5.12
899.003	27.65
899.173	25.6
899.343	7.17
899.513	-3.07
