Data from USB4F104151__189__11-09-49-161.txt Node

Date: Wed Mar 12 11:09:49 EDT 2025
User: louis
Spectrometer: USB4F10415
Trigger mode: 4
Integration Time (sec): 2.000000E-2
Scans to average: 1
Electric dark correction enabled: true
Nonlinearity correction enabled: false
Boxcar width: 0
XAxis mode: Wavelengths
Number of Pixels in Spectrum: 3648
>>>>>Begin Spectral Data<<<<<
178.204	-130.39
178.424	-130.39
178.644	-130.39
178.864	-107.86
179.084	-30.04
179.304	-54.61
179.524	-27.99
179.744	-5.46
179.964	39.59
180.184	21.16
180.404	-17.75
180.624	41.64
180.844	-17.75
181.064	-34.13
181.283	41.64
181.503	-7.51
181.723	21.16
181.943	-25.94
182.163	19.11
182.383	-27.99
182.602	10.92
182.822	-34.13
183.042	4.78
183.262	-3.41
183.482	-5.46
183.701	-25.94
183.921	0.68
184.141	-32.08
184.361	-1.37
184.58	-75.09
184.8	10.92
185.02	-107.86
185.239	-32.08
185.459	8.87
185.679	-32.08
185.898	-73.04
186.118	21.16
186.338	-46.42
186.557	17.07
186.777	-19.8
186.997	-21.85
187.216	-23.89
187.436	27.31
187.655	-5.46
187.875	53.93
188.095	51.88
188.314	86.7
188.534	82.6
188.753	41.64
188.973	-30.04
189.192	78.51
189.412	6.83
189.631	-3.41
189.851	-34.13
190.07	41.64
190.29	41.64
190.509	53.93
190.729	-36.18
190.948	-5.46
191.168	35.5
191.387	27.31
191.607	-46.42
191.826	-5.46
192.045	-23.89
192.265	-11.61
192.484	15.02
192.704	6.83
192.923	-44.37
193.142	-25.94
193.362	49.83
193.581	33.45
193.8	39.59
194.02	62.12
194.239	-17.75
194.458	21.16
194.678	37.55
194.897	31.4
195.116	8.87
195.335	37.55
195.555	-5.46
195.774	25.26
195.993	23.21
196.212	17.07
196.432	-40.28
196.651	-42.32
196.87	-9.56
197.089	27.31
197.308	51.88
197.528	-19.8
197.747	-62.8
197.966	12.97
198.185	74.41
198.404	-13.65
198.623	-11.61
198.842	45.74
199.062	12.97
199.281	25.26
199.5	107.18
199.719	19.11
199.938	27.31
200.157	21.16
200.376	33.45
200.595	-7.51
200.814	-13.65
201.033	-34.13
201.252	45.74
201.471	19.11
201.69	-3.41
201.909	-66.9
202.128	-3.41
202.347	51.88
202.566	-32.08
202.785	-130.39
203.004	17.07
203.223	41.64
203.442	-62.8
203.661	45.74
203.879	25.26
204.098	-17.75
204.317	-25.94
204.536	92.84
204.755	-64.85
204.974	43.69
205.193	-7.51
205.411	70.31
205.63	-5.46
205.849	-34.13
206.068	29.35
206.287	17.07
206.505	-9.56
206.724	-30.04
206.943	-50.52
207.162	-44.37
207.381	-46.42
207.599	-48.47
207.818	12.97
208.037	12.97
208.255	-3.41
208.474	39.59
208.693	41.64
208.911	60.07
209.13	4.78
209.349	-3.41
209.567	6.83
209.786	-5.46
210.005	-23.89
210.223	-11.61
210.442	-13.65
210.661	58.03
210.879	-11.61
211.098	-11.61
211.316	-56.66
211.535	53.93
211.753	-3.41
211.972	-9.56
212.191	-5.46
212.409	6.83
212.628	-1.37
212.846	-11.61
213.065	-36.18
213.283	49.83
213.502	-56.66
213.72	21.16
213.938	-15.7
214.157	17.07
214.375	43.69
214.594	-3.41
214.812	17.07
215.031	-1.37
215.249	17.07
215.467	-1.37
215.686	-3.41
215.904	45.74
216.122	-27.99
216.341	25.26
216.559	6.83
216.778	19.11
216.996	6.83
217.214	-32.08
217.432	31.4
217.651	-64.85
217.869	17.07
218.087	37.55
218.306	-11.61
218.524	41.64
218.742	-25.94
218.96	53.93
219.179	-66.9
219.397	98.99
219.615	35.5
219.833	35.5
220.051	-48.47
220.27	82.6
220.488	-5.46
220.706	-71
220.924	-13.65
221.142	51.88
221.36	10.92
221.578	-42.32
221.796	-30.04
222.015	-66.9
222.233	31.4
222.451	45.74
222.669	25.26
222.887	4.78
223.105	98.99
223.323	-30.04
223.541	-40.28
223.759	-9.56
223.977	31.4
224.195	-34.13
224.413	35.5
224.631	-19.8
224.849	-42.32
225.067	47.79
225.285	-32.08
225.503	15.02
225.721	19.11
225.939	17.07
226.157	41.64
226.375	119.46
226.592	-21.85
226.81	39.59
227.028	60.07
227.246	-25.94
227.464	33.45
227.682	23.21
227.9	-36.18
228.117	-11.61
228.335	-77.14
228.553	10.92
228.771	-46.42
228.989	15.02
229.206	29.35
229.424	-19.8
229.642	55.98
229.86	33.45
230.077	-81.24
230.295	-58.71
230.513	43.69
230.731	15.02
230.948	15.02
231.166	-19.8
231.384	-13.65
231.601	-68.95
231.819	68.27
232.037	-27.99
232.254	2.73
232.472	6.83
232.689	-40.28
232.907	2.73
233.125	-15.7
233.342	-11.61
233.56	-13.65
233.777	-50.52
233.995	72.36
234.213	-46.42
234.43	15.02
234.648	-48.47
234.865	-30.04
235.083	-27.99
235.3	-15.7
235.518	25.26
235.735	6.83
235.953	10.92
236.17	-58.71
236.388	55.98
236.605	45.74
236.822	53.93
237.04	2.73
237.257	8.87
237.475	-38.23
237.692	86.7
237.909	45.74
238.127	-64.85
238.344	-9.56
238.562	-3.41
238.779	-38.23
238.996	23.21
239.214	-68.95
239.431	33.45
239.648	-46.42
239.865	-5.46
240.083	41.64
240.3	33.45
240.517	-44.37
240.735	39.59
240.952	17.07
241.169	10.92
241.386	-23.89
241.603	78.51
241.821	21.16
242.038	-17.75
242.255	12.97
242.472	21.16
242.689	12.97
242.907	39.59
243.124	0.68
243.341	21.16
243.558	-46.42
243.775	-13.65
243.992	-46.42
244.209	27.31
244.426	41.64
244.643	113.32
244.86	12.97
245.078	23.21
245.295	19.11
245.512	2.73
245.729	8.87
245.946	60.07
246.163	-19.8
246.38	-17.75
246.597	-73.04
246.814	0.68
247.031	0.68
247.248	27.31
247.464	-5.46
247.681	-17.75
247.898	-13.65
248.115	25.26
248.332	-58.71
248.549	-23.89
248.766	35.5
248.983	21.16
249.2	43.69
249.417	-48.47
249.633	-85.33
249.85	-13.65
250.067	-11.61
250.284	-1.37
250.501	8.87
250.717	6.83
250.934	-17.75
251.151	2.73
251.368	-3.41
251.585	74.41
251.801	-73.04
252.018	55.98
252.235	-9.56
252.451	0.68
252.668	-30.04
252.885	27.31
253.102	29.35
253.318	-32.08
253.535	-66.9
253.752	21.16
253.968	-13.65
254.185	-77.14
254.401	-17.75
254.618	-19.8
254.835	-73.04
255.051	-21.85
255.268	12.97
255.484	0.68
255.701	4.78
255.917	45.74
256.134	70.31
256.351	6.83
256.567	-1.37
256.784	55.98
257	-38.23
257.217	-27.99
257.433	25.26
257.65	8.87
257.866	-7.51
258.082	58.03
258.299	37.55
258.515	53.93
258.732	70.31
258.948	-36.18
259.165	0.68
259.381	0.68
259.597	2.73
259.814	27.31
260.03	-62.8
260.246	-5.46
260.463	-5.46
260.679	-25.94
260.895	-11.61
261.112	-17.75
261.328	-44.37
261.544	41.64
261.761	29.35
261.977	-13.65
262.193	6.83
262.409	-27.99
262.626	15.02
262.842	21.16
263.058	-7.51
263.274	39.59
263.49	-19.8
263.707	51.88
263.923	41.64
264.139	21.16
264.355	-7.51
264.571	55.98
264.787	39.59
265.004	-9.56
265.22	-58.71
265.436	-5.46
265.652	33.45
265.868	-48.47
266.084	-46.42
266.3	72.36
266.516	-21.85
266.732	8.87
266.948	-23.89
267.164	-11.61
267.38	0.68
267.596	31.4
267.812	-25.94
268.028	2.73
268.244	-103.76
268.46	-54.61
268.676	33.45
268.892	4.78
269.108	10.92
269.324	-17.75
269.54	-87.38
269.756	31.4
269.972	-71
270.188	27.31
270.403	12.97
270.619	17.07
270.835	-7.51
271.051	8.87
271.267	-32.08
271.483	-38.23
271.698	-21.85
271.914	8.87
272.13	-13.65
272.346	8.87
272.562	0.68
272.777	31.4
272.993	-30.04
273.209	72.36
273.425	-38.23
273.64	-42.32
273.856	-11.61
274.072	19.11
274.287	-50.52
274.503	62.12
274.719	45.74
274.934	27.31
275.15	-40.28
275.366	21.16
275.581	-34.13
275.797	19.11
276.012	45.74
276.228	17.07
276.444	0.68
276.659	-13.65
276.875	-62.8
277.09	-3.41
277.306	-54.61
277.521	-66.9
277.737	27.31
277.952	-27.99
278.168	-27.99
278.383	37.55
278.599	15.02
278.814	-17.75
279.03	-73.04
279.245	-52.56
279.461	6.83
279.676	23.21
279.892	-25.94
280.107	-11.61
280.322	-11.61
280.538	-7.51
280.753	-36.18
280.969	6.83
281.184	29.35
281.399	74.41
281.615	53.93
281.83	35.5
282.045	-5.46
282.26	-21.85
282.476	-23.89
282.691	19.11
282.906	78.51
283.122	-58.71
283.337	39.59
283.552	-5.46
283.767	-23.89
283.983	23.21
284.198	31.4
284.413	51.88
284.628	-64.85
284.843	31.4
285.058	101.03
285.274	12.97
285.489	21.16
285.704	-32.08
285.919	-17.75
286.134	-21.85
286.349	-46.42
286.564	41.64
286.779	-11.61
286.995	2.73
287.21	-66.9
287.425	2.73
287.64	-30.04
287.855	-5.46
288.07	10.92
288.285	-25.94
288.5	-1.37
288.715	35.5
288.93	-7.51
289.145	-1.37
289.36	27.31
289.575	-38.23
289.79	-1.37
290.004	4.78
290.219	47.79
290.434	35.5
290.649	0.68
290.864	4.78
291.079	-79.19
291.294	-17.75
291.509	41.64
291.724	-34.13
291.938	-30.04
292.153	4.78
292.368	4.78
292.583	-56.66
292.798	80.55
293.012	-54.61
293.227	27.31
293.442	-30.04
293.657	-13.65
293.871	-3.41
294.086	-32.08
294.301	-25.94
294.516	27.31
294.73	17.07
294.945	53.93
295.16	27.31
295.374	82.6
295.589	55.98
295.804	-27.99
296.018	-9.56
296.233	35.5
296.447	35.5
296.662	-30.04
296.877	-44.37
297.091	-46.42
297.306	55.98
297.52	19.11
297.735	25.26
297.949	-1.37
298.164	6.83
298.378	10.92
298.593	12.97
298.807	43.69
299.022	-30.04
299.236	64.17
299.451	-66.9
299.665	-3.41
299.88	0.68
300.094	15.02
300.309	-9.56
300.523	21.16
300.737	60.07
300.952	6.83
301.166	-30.04
301.381	23.21
301.595	47.79
301.809	-13.65
302.024	35.5
302.238	-30.04
302.452	6.83
302.667	25.26
302.881	-52.56
303.095	45.74
303.309	45.74
303.524	-13.65
303.738	-17.75
303.952	10.92
304.166	10.92
304.381	35.5
304.595	-15.7
304.809	-68.95
305.023	101.03
305.237	-30.04
305.452	53.93
305.666	-46.42
305.88	-46.42
306.094	-23.89
306.308	-40.28
306.522	-34.13
306.736	0.68
306.95	27.31
307.164	21.16
307.379	-15.7
307.593	25.26
307.807	8.87
308.021	62.12
308.235	27.31
308.449	-44.37
308.663	-21.85
308.877	58.03
309.091	45.74
309.305	33.45
309.519	-5.46
309.733	-36.18
309.947	-73.04
310.161	-21.85
310.374	23.21
310.588	49.83
310.802	-7.51
311.016	49.83
311.23	86.7
311.444	60.07
311.658	19.11
311.872	-19.8
312.085	39.59
312.299	41.64
312.513	49.83
312.727	-5.46
312.941	-13.65
313.154	-19.8
313.368	-27.99
313.582	-5.46
313.796	31.4
314.009	55.98
314.223	76.46
314.437	-23.89
314.651	29.35
314.864	15.02
315.078	6.83
315.292	-7.51
315.505	21.16
315.719	-7.51
315.933	27.31
316.146	-34.13
316.36	-23.89
316.573	10.92
316.787	62.12
317.001	35.5
317.214	31.4
317.428	6.83
317.641	25.26
317.855	-25.94
318.068	-19.8
318.282	-34.13
318.495	35.5
318.709	29.35
318.922	-19.8
319.136	-71
319.349	23.21
319.563	-83.28
319.776	0.68
319.99	-50.52
320.203	2.73
320.417	-5.46
320.63	-7.51
320.843	27.31
321.057	-62.8
321.27	43.69
321.483	33.45
321.697	19.11
321.91	27.31
322.124	25.26
322.337	-23.89
322.55	-17.75
322.763	-30.04
322.977	-73.04
323.19	-30.04
323.403	-9.56
323.617	2.73
323.83	53.93
324.043	-42.32
324.256	19.11
324.469	21.16
324.683	15.02
324.896	15.02
325.109	55.98
325.322	-23.89
325.535	6.83
325.748	10.92
325.962	-19.8
326.175	-3.41
326.388	35.5
326.601	-3.41
326.814	49.83
327.027	58.03
327.24	70.31
327.453	4.78
327.666	66.22
327.879	25.26
328.092	-21.85
328.305	19.11
328.518	4.78
328.731	15.02
328.944	-1.37
329.157	-34.13
329.37	0.68
329.583	-36.18
329.796	25.26
330.009	27.31
330.222	10.92
330.435	23.21
330.648	29.35
330.861	-15.7
331.073	0.68
331.286	-1.37
331.499	23.21
331.712	-32.08
331.925	96.94
332.138	47.79
332.35	-34.13
332.563	-3.41
332.776	-25.94
332.989	-5.46
333.202	66.22
333.414	-11.61
333.627	-7.51
333.84	-64.85
334.053	80.55
334.265	23.21
334.478	15.02
334.691	25.26
334.903	-52.56
335.116	-5.46
335.329	-5.46
335.541	-7.51
335.754	80.55
335.966	-34.13
336.179	55.98
336.392	-42.32
336.604	51.88
336.817	-36.18
337.029	6.83
337.242	12.97
337.454	66.22
337.667	-38.23
337.88	6.83
338.092	58.03
338.305	2.73
338.517	19.11
338.729	53.93
338.942	82.6
339.154	-11.61
339.367	-44.37
339.579	43.69
339.792	-107.86
340.004	47.79
340.217	2.73
340.429	12.97
340.641	-34.13
340.854	17.07
341.066	-21.85
341.278	55.98
341.491	53.93
341.703	-30.04
341.915	-7.51
342.128	45.74
342.34	-27.99
342.552	-54.61
342.764	41.64
342.977	12.97
343.189	-34.13
343.401	105.13
343.613	15.02
343.826	98.99
344.038	-36.18
344.25	6.83
344.462	-25.94
344.674	33.45
344.886	49.83
345.099	-62.8
345.311	-19.8
345.523	0.68
345.735	-1.37
345.947	-17.75
346.159	-36.18
346.371	-48.47
346.583	68.27
346.795	72.36
347.007	-7.51
347.219	12.97
347.431	-17.75
347.643	58.03
347.855	-13.65
348.067	6.83
348.279	35.5
348.491	-25.94
348.703	47.79
348.915	23.21
349.127	-25.94
349.339	-52.56
349.551	35.5
349.763	47.79
349.975	53.93
350.187	37.55
350.399	2.73
350.61	92.84
350.822	15.02
351.034	23.21
351.246	-7.51
351.458	49.83
351.669	17.07
351.881	23.21
352.093	25.26
352.305	47.79
352.517	31.4
352.728	41.64
352.94	45.74
353.152	15.02
353.363	27.31
353.575	92.84
353.787	-13.65
353.999	21.16
354.21	-48.47
354.422	21.16
354.633	12.97
354.845	72.36
355.057	27.31
355.268	-42.32
355.48	-9.56
355.692	2.73
355.903	37.55
356.115	76.46
356.326	39.59
356.538	55.98
356.749	-5.46
356.961	74.41
357.172	68.27
357.384	15.02
357.595	64.17
357.807	12.97
358.018	8.87
358.23	39.59
358.441	86.7
358.653	-30.04
358.864	39.59
359.075	76.46
359.287	-17.75
359.498	47.79
359.709	-23.89
359.921	41.64
360.132	68.27
360.344	-44.37
360.555	-25.94
360.766	-25.94
360.977	8.87
361.189	51.88
361.4	-38.23
361.611	74.41
361.823	49.83
362.034	10.92
362.245	-36.18
362.456	10.92
362.667	41.64
362.879	-3.41
363.09	-30.04
363.301	19.11
363.512	23.21
363.723	-13.65
363.935	-27.99
364.146	45.74
364.357	-42.32
364.568	35.5
364.779	-38.23
364.99	55.98
365.201	-30.04
365.412	45.74
365.623	-30.04
365.834	64.17
366.045	-19.8
366.256	107.18
366.467	2.73
366.678	2.73
366.889	-3.41
367.1	-7.51
367.311	49.83
367.522	-64.85
367.733	6.83
367.944	-3.41
368.155	-25.94
368.366	10.92
368.577	-50.52
368.788	80.55
368.999	-7.51
369.209	15.02
369.42	31.4
369.631	27.31
369.842	-32.08
370.053	-9.56
370.264	43.69
370.474	31.4
370.685	47.79
370.896	10.92
371.107	41.64
371.317	47.79
371.528	8.87
371.739	43.69
371.95	6.83
372.16	25.26
372.371	-1.37
372.582	-32.08
372.792	-42.32
373.003	27.31
373.214	72.36
373.424	47.79
373.635	66.22
373.846	-9.56
374.056	-13.65
374.267	-11.61
374.477	55.98
374.688	19.11
374.898	10.92
375.109	-32.08
375.319	17.07
375.53	-44.37
375.74	-34.13
375.951	43.69
376.161	19.11
376.372	-11.61
376.582	-23.89
376.793	-13.65
377.003	10.92
377.214	49.83
377.424	0.68
377.635	-21.85
377.845	-95.57
378.055	39.59
378.266	-58.71
378.476	62.12
378.686	64.17
378.897	-9.56
379.107	49.83
379.317	53.93
379.528	62.12
379.738	27.31
379.948	-50.52
380.158	29.35
380.369	-17.75
380.579	-9.56
380.789	-1.37
380.999	-42.32
381.21	58.03
381.42	84.65
381.63	-7.51
381.84	4.78
382.05	-3.41
382.261	23.21
382.471	55.98
382.681	-7.51
382.891	2.73
383.101	-25.94
383.311	-30.04
383.521	-9.56
383.731	-5.46
383.941	80.55
384.151	58.03
384.361	-27.99
384.571	-17.75
384.781	23.21
384.991	49.83
385.201	60.07
385.411	-50.52
385.621	10.92
385.831	-11.61
386.041	60.07
386.251	6.83
386.461	74.41
386.671	-66.9
386.881	123.56
387.091	-34.13
387.301	27.31
387.511	0.68
387.72	37.55
387.93	6.83
388.14	23.21
388.35	19.11
388.56	-5.46
388.769	-17.75
388.979	-36.18
389.189	-5.46
389.399	53.93
389.609	76.46
389.818	27.31
390.028	45.74
390.238	-62.8
390.447	64.17
390.657	88.75
390.867	0.68
391.076	64.17
391.286	15.02
391.496	-13.65
391.705	60.07
391.915	47.79
392.125	-17.75
392.334	-103.76
392.544	68.27
392.753	-3.41
392.963	-32.08
393.172	-7.51
393.382	-34.13
393.591	19.11
393.801	41.64
394.01	64.17
394.22	27.31
394.429	80.55
394.639	98.99
394.848	41.64
395.058	-42.32
395.267	45.74
395.477	39.59
395.686	27.31
395.895	84.65
396.105	21.16
396.314	41.64
396.524	2.73
396.733	-9.56
396.942	27.31
397.152	-9.56
397.361	90.79
397.57	27.31
397.78	78.51
397.989	-83.28
398.198	92.84
398.407	35.5
398.617	6.83
398.826	35.5
399.035	84.65
399.244	78.51
399.453	19.11
399.663	0.68
399.872	19.11
400.081	76.46
400.29	78.51
400.499	8.87
400.708	0.68
400.917	58.03
401.127	64.17
401.336	51.88
401.545	19.11
401.754	66.22
401.963	4.78
402.172	-1.37
402.381	23.21
402.59	41.64
402.799	39.59
403.008	86.7
403.217	101.03
403.426	12.97
403.635	103.08
403.844	35.5
404.053	111.27
404.262	29.35
404.471	103.08
404.68	64.17
404.888	86.7
405.097	-3.41
405.306	68.27
405.515	115.37
405.724	137.9
405.933	80.55
406.142	78.51
406.35	82.6
406.559	84.65
406.768	60.07
406.977	121.51
407.185	146.09
407.394	98.99
407.603	82.6
407.812	62.12
408.02	98.99
408.229	168.62
408.438	129.7
408.646	172.71
408.855	94.89
409.064	174.76
409.272	109.22
409.481	191.14
409.69	101.03
409.898	160.42
410.107	117.42
410.315	240.29
410.524	90.79
410.733	195.24
410.941	125.61
411.15	203.43
411.358	197.29
411.567	191.14
411.775	232.1
411.984	244.39
412.192	178.86
412.401	174.76
412.609	260.77
412.818	228.01
413.026	287.4
413.234	250.53
413.443	277.16
413.651	248.49
413.86	318.12
414.068	375.46
414.276	303.78
414.485	277.16
414.693	348.84
414.901	443.04
415.11	354.98
415.318	336.55
415.526	381.6
415.734	389.8
415.943	426.66
416.151	430.76
416.359	410.28
416.567	424.61
416.776	424.61
416.984	502.43
417.192	516.77
417.4	459.43
417.608	451.24
417.817	565.92
418.025	627.36
418.233	653.98
418.441	551.59
418.649	625.31
418.857	637.6
419.065	709.28
419.273	692.9
419.481	647.84
419.689	844.45
419.897	772.77
420.105	776.86
420.313	760.48
420.521	854.69
420.729	793.25
420.937	875.17
421.145	946.84
421.353	832.16
421.561	1024.67
421.769	983.71
421.977	1086.11
422.185	1045.15
422.393	1106.59
422.601	1172.12
422.809	1172.12
423.017	1225.37
423.224	1221.27
423.432	1313.43
423.64	1280.66
423.848	1426.07
424.056	1331.86
424.263	1514.13
424.471	1440.4
424.679	1481.36
424.887	1712.78
425.094	1669.78
425.302	1694.35
425.51	1817.23
425.718	1809.04
425.925	1870.48
426.133	1811.09
426.341	1913.49
426.548	2146.95
426.756	2081.42
426.964	2124.43
427.171	2214.54
427.379	2292.36
427.586	2325.13
427.794	2419.33
428.001	2384.52
428.209	2505.35
428.417	2566.79
428.624	2685.57
428.832	2755.2
429.039	2742.91
429.247	2800.26
429.454	2992.76
429.662	3127.93
429.869	3013.24
430.076	3277.43
430.284	3177.08
430.491	3256.95
430.699	3390.07
430.906	3422.84
431.114	3449.46
431.321	3482.23
431.528	3691.12
431.736	3863.15
431.943	4092.52
432.15	3824.24
432.358	4049.52
432.565	4074.09
432.772	4164.2
432.979	4373.1
433.187	4508.26
433.394	4643.43
433.601	4784.74
433.808	4823.65
434.016	4803.17
434.223	4940.38
434.43	5263.96
434.637	5194.33
434.844	5470.81
435.052	5593.69
435.259	5392.98
435.466	5501.53
435.673	5591.64
435.88	5884.5
436.087	6224.46
436.294	6226.51
436.501	6193.74
436.708	6160.97
436.915	6459.98
437.122	6849.09
437.329	6644.29
437.537	6820.42
437.743	7164.48
437.95	6822.47
438.157	7240.25
438.364	7615.03
438.571	7649.85
438.778	7410.23
438.985	8268.33
439.192	7973.42
439.399	8174.13
439.606	7932.47
439.813	8376.87
440.02	8974.88
440.227	8852
440.433	8626.73
440.64	9194.01
440.847	8880.68
441.054	9181.73
441.261	9888.28
441.467	9562.65
441.674	9904.66
441.881	10205.71
442.088	10220.05
442.294	10005.01
442.501	10367.5
442.708	10541.58
442.914	11180.54
443.121	11473.4
443.328	11305.47
443.534	12020.21
443.741	11442.68
443.948	11465.21
444.154	12302.83
444.361	12114.42
444.568	12143.09
444.774	12132.85
444.981	12421.61
445.187	12655.08
445.394	13171.17
445.6	13046.24
445.807	14399.95
446.013	13763.03
446.22	13769.18
446.426	14569.93
446.633	14586.32
446.839	15120.84
447.046	14402
447.252	15389.12
447.459	15487.42
447.665	15282.63
447.871	16146.87
448.078	16519.6
448.284	15788.47
448.491	16134.58
448.697	16988.58
448.903	17174.95
449.11	17195.43
449.316	16617.9
449.522	16992.68
449.728	17574.3
449.935	17828.25
450.141	17623.45
450.347	18166.17
450.553	17482.14
450.76	17707.42
450.966	18456.98
451.172	18215.32
451.378	18440.59
451.584	18299.28
451.791	18907.53
451.997	18758.03
452.203	18936.2
452.409	18710.93
452.615	18571.66
452.821	17822.11
453.027	17848.73
453.233	18913.67
453.44	17826.2
453.646	18004.38
453.852	18069.91
454.058	18602.38
454.264	17770.91
454.47	18436.5
454.676	17930.65
454.882	18450.83
455.088	16818.6
455.294	16961.96
455.5	17353.12
455.705	17473.95
455.911	16830.89
456.117	16322.99
456.323	16249.27
456.529	15208.9
456.735	15966.65
456.941	15249.86
457.147	15356.35
457.352	14858.7
457.558	14868.94
457.764	14905.8
457.97	14311.89
458.176	14141.91
458.381	13965.78
458.587	13580.76
458.793	13548
458.999	12831.21
459.204	13584.86
459.41	13267.42
459.616	12542.44
459.821	12495.34
460.027	12331.5
460.233	12048.88
460.438	11325.95
460.644	11502.08
460.85	11063.81
461.055	10936.84
461.261	10906.12
461.466	10136.08
461.672	9685.53
461.878	10527.24
462.083	9630.23
462.289	9628.18
462.494	9538.07
462.7	8972.83
462.905	8888.87
463.111	9286.17
463.316	9179.68
463.522	9081.38
463.727	9058.85
463.932	9007.65
464.138	8942.11
464.343	8944.16
464.549	8555.05
464.754	8974.88
464.959	8790.56
465.165	8872.48
465.37	8514.09
465.575	8331.82
465.781	8639.01
465.986	8706.6
466.191	8176.17
466.397	8036.91
466.602	7780.92
466.807	8038.96
467.012	8006.19
467.218	8069.68
467.423	7998
467.628	8047.15
467.833	8266.28
468.038	7914.03
468.244	7793.2
468.449	8090.16
468.654	7803.44
468.859	7645.75
469.064	7658.04
469.269	7377.47
469.474	7379.51
469.679	7713.33
469.885	7184.96
470.09	7445.05
470.295	7514.68
470.5	7350.84
470.705	7279.16
470.91	7039.55
471.115	7060.03
471.32	7064.13
471.525	6978.11
471.73	6842.95
471.935	6855.23
472.139	6756.93
472.344	6806.08
472.549	6783.56
472.754	6589
472.959	6466.12
473.164	6263.37
473.369	6240.84
473.574	6533.7
473.778	6216.27
473.983	6433.35
474.188	6236.75
474.393	5968.46
474.598	6158.92
474.802	5929.55
475.007	5972.56
475.212	5986.9
475.417	5894.74
475.621	5941.84
475.826	5864.02
476.031	5567.06
476.235	5601.88
476.44	5610.07
476.645	5579.35
476.849	5499.48
477.054	5509.72
477.259	5382.74
477.463	5505.62
477.668	5352.02
477.872	5282.39
478.077	5165.66
478.282	5089.88
478.486	5106.27
478.691	5108.32
478.895	5134.94
479.1	4967.01
479.304	4950.62
479.509	4883.04
479.713	4880.99
479.918	5093.98
480.122	4774.5
480.326	4868.7
480.531	4823.65
480.735	4711.01
480.94	4833.89
481.144	4887.14
481.348	4602.47
481.553	4778.59
481.757	4520.55
481.961	4786.79
482.166	4928.1
482.37	4831.84
482.574	4610.66
482.778	4581.99
482.983	4846.18
483.187	4735.59
483.391	4715.11
483.595	4778.59
483.8	4620.9
484.004	4733.54
484.208	4829.79
484.412	4635.24
484.616	4665.96
484.821	4706.91
485.025	4586.08
485.229	4663.91
485.433	4631.14
485.637	4713.06
485.841	4622.95
486.045	4637.28
486.249	4586.08
486.453	4645.48
486.657	4500.07
486.861	4670.05
487.065	4487.78
487.269	4565.6
487.473	4520.55
487.677	4627.04
487.881	4704.87
488.085	4637.28
488.289	4674.15
488.493	4514.41
488.697	4760.16
488.901	4610.66
489.105	4760.16
489.309	4686.44
489.512	4733.54
489.716	4702.82
489.92	4733.54
490.124	4784.74
490.328	4846.18
490.531	4854.37
490.735	4797.03
490.939	4754.02
491.143	4840.03
491.346	4647.52
491.55	4868.7
491.754	4921.95
491.958	4833.89
492.161	4893.28
492.365	4794.98
492.569	4876.9
492.772	4979.29
492.976	4956.77
493.18	4979.29
493.383	4987.49
493.587	5108.32
493.79	5120.6
493.994	5030.49
494.197	5241.43
494.401	5175.9
494.605	5220.95
494.808	5274.2
495.012	5280.35
495.215	5186.14
495.419	5575.25
495.622	5335.64
495.825	5470.81
496.029	5329.5
496.232	5554.77
496.436	5524.05
496.639	5608.02
496.843	5517.91
497.046	5835.35
497.249	5968.46
497.453	5767.76
497.656	5917.26
497.859	5765.71
498.063	5896.78
498.266	5898.83
498.469	5990.99
498.673	6093.39
498.876	6251.08
499.079	6212.17
499.282	6322.76
499.485	6396.49
499.689	6474.31
499.892	6464.07
500.095	6414.92
500.298	6885.95
500.501	6517.32
500.705	6840.9
500.908	6892.1
501.111	6836.8
501.314	6783.56
501.517	7207.48
501.72	7144
501.923	7105.09
502.126	7481.91
502.329	7449.14
502.532	7500.34
502.735	7461.43
502.938	7567.93
503.141	7645.75
503.344	7924.27
503.547	8057.39
503.75	8053.3
503.953	8051.25
504.156	8051.25
504.359	8159.79
504.562	8454.7
504.765	8471.08
504.968	8602.15
505.17	8688.17
505.373	8839.72
505.576	8839.72
505.779	8895.01
505.982	9089.57
506.185	9114.14
506.387	9062.94
506.59	9325.08
506.793	9376.28
506.996	9394.72
507.198	9708.05
507.401	9599.51
507.604	9847.32
507.807	10009.11
508.009	9980.43
508.212	9849.36
508.415	10084.88
508.617	10195.47
508.82	10398.22
509.022	10473.99
509.225	10811.91
509.428	10824.2
509.63	10881.54
509.833	10734.09
510.035	11059.71
510.238	10992.13
510.44	11160.06
510.643	11493.88
510.845	11454.97
511.048	11565.56
511.25	11639.29
511.453	11702.78
511.655	12151.28
511.858	12222.96
512.06	12196.34
512.262	12169.71
512.465	12503.53
512.667	12456.43
512.87	12618.22
513.072	12636.65
513.274	13277.66
513.477	13339.1
513.679	12988.9
513.881	13369.82
514.084	13623.77
514.286	13449.69
514.488	13562.33
514.69	14072.28
514.893	13906.39
515.095	13992.41
515.297	14426.57
515.499	14416.33
515.701	14490.06
515.904	14598.6
516.106	14817.74
516.308	14993.86
516.51	15194.56
516.712	15180.23
516.914	15458.75
517.116	15475.13
517.318	15741.37
517.52	15700.41
517.722	16060.85
517.925	15907.26
518.127	16417.2
518.329	16255.41
518.531	16366
518.733	16650.67
518.935	16921
519.136	16794.03
519.338	17189.28
519.54	17435.04
519.742	17451.42
519.944	17473.95
520.146	17740.19
520.348	18264.47
520.55	18139.54
520.752	18215.32
520.954	18915.72
521.155	18332.05
521.357	18844.04
521.559	19118.47
521.761	19044.74
521.963	19208.58
522.164	19315.08
522.366	19558.78
522.568	19628.42
522.77	19560.83
522.971	20001.15
523.173	19491.2
523.375	20382.07
523.576	20185.46
523.778	20271.48
523.98	20791.66
524.181	20767.09
524.383	21072.23
524.584	21289.32
524.786	20951.4
524.988	21078.38
525.189	21330.28
525.391	21573.99
525.592	21778.78
525.794	21535.07
525.995	21764.45
526.197	21764.45
526.398	21846.37
526.6	22208.86
526.801	22477.14
527.003	22364.5
527.204	22167.9
527.406	22618.45
527.607	22561.11
527.808	22792.53
528.01	22604.11
528.211	22942.03
528.412	23112.01
528.614	23175.5
528.815	23306.57
529.016	23449.92
529.218	23265.61
529.419	23521.6
529.62	23368.01
529.822	23490.88
530.023	23779.65
530.224	23613.76
530.425	23605.57
530.626	23404.87
530.828	23544.13
531.029	24125.75
531.23	23675.2
531.431	23847.23
531.632	24240.44
531.833	23869.76
532.035	24207.67
532.236	23998.78
532.437	24332.6
532.638	24494.39
532.839	24058.17
533.04	24336.7
533.241	24158.52
533.442	24408.37
533.643	24314.17
533.844	24394.04
534.045	24357.17
534.246	24097.08
534.447	24713.52
534.648	24414.52
534.849	24742.19
535.05	24275.26
535.251	24588.6
535.451	24529.2
535.652	24711.47
535.853	24598.84
536.054	24551.73
536.255	24478.01
536.456	24555.83
536.657	25073.96
536.857	24629.55
537.058	24250.68
537.259	24516.92
537.46	24486.2
537.66	24459.57
537.861	24502.58
538.062	24482.1
538.263	24738.1
538.463	24486.2
538.664	24609.08
538.865	24736.05
539.065	24918.32
539.266	24879.41
539.466	25141.55
539.667	24508.72
539.868	24703.28
540.068	24541.49
540.269	24803.63
540.469	24912.17
540.67	24717.62
540.87	24568.12
541.071	24652.08
541.271	24617.27
541.472	24805.68
541.672	24555.83
541.873	24475.96
542.073	24314.17
542.274	24555.83
542.474	24467.77
542.675	24627.51
542.875	25000.24
543.075	24611.12
543.276	24265.02
543.476	24793.39
543.676	24676.66
543.877	24693.04
544.077	24621.36
544.277	24207.67
544.478	24570.16
544.678	24498.48
544.878	24504.63
545.078	24508.72
545.279	24222.01
545.479	24406.33
545.679	24736.05
545.879	24844.59
546.079	24498.48
546.28	24478.01
546.48	24234.3
546.68	24588.6
546.88	24400.18
547.08	24551.73
547.28	24512.82
547.48	24107.32
547.68	24301.88
547.88	24035.64
548.081	24365.37
548.281	24365.37
548.481	24125.75
548.681	24633.65
548.881	24547.64
549.081	24062.27
549.28	24342.84
549.48	24330.55
549.68	24435
549.88	24303.93
550.08	24394.04
550.28	24453.43
550.48	24242.49
550.68	24525.11
550.88	24553.78
551.08	24285.5
551.279	24308.02
551.479	24195.39
551.679	24396.09
551.879	24260.92
552.079	24652.08
552.278	23884.09
552.478	24207.67
552.678	24310.07
552.878	24351.03
553.077	24209.72
553.277	24135.99
553.477	24422.71
553.676	23998.78
553.876	24224.06
554.076	24402.23
554.275	23843.13
554.475	23757.12
554.674	23908.67
554.874	24338.74
555.074	24023.36
555.273	23828.8
555.473	23998.78
555.672	23869.76
555.872	23814.46
556.071	23875.9
556.271	23834.94
556.47	23990.59
556.67	23652.67
556.869	23861.57
557.068	23863.61
557.268	23845.18
557.467	23404.87
557.667	23748.93
557.866	23650.63
558.065	23394.63
558.265	23384.39
558.464	23515.46
558.663	23517.51
558.863	23155.02
559.062	23232.84
559.261	23165.26
559.461	23120.2
559.66	23095.63
559.859	23238.98
560.058	22935.88
560.258	23171.4
560.457	22755.66
560.656	22733.14
560.855	22718.8
561.054	22882.64
561.253	22694.22
561.453	22696.27
561.652	22743.38
561.851	22987.08
562.05	22638.93
562.249	22460.76
562.448	22581.59
562.647	22432.08
562.846	22597.97
563.045	22526.29
563.244	22149.46
563.443	22612.31
563.642	21967.2
563.841	22288.73
564.04	22161.75
564.239	22534.48
564.438	21895.52
564.637	22110.55
564.836	21895.52
565.035	21553.51
565.234	21825.89
565.432	21688.67
565.631	21774.69
565.83	21844.32
566.029	21727.58
566.228	21780.83
566.427	21340.52
566.625	21352.8
566.824	21143.91
567.023	21193.06
567.222	20922.73
567.42	21367.14
567.619	21033.32
567.818	21176.68
568.016	20969.83
568.215	21299.56
568.414	20883.82
568.612	20902.25
568.811	20412.79
569.01	20826.48
569.208	20076.92
569.407	20828.52
569.605	20375.92
569.804	20564.34
570.002	20318.58
570.201	20388.21
570.4	19970.43
570.598	20121.98
570.797	20113.78
570.995	19990.91
571.193	19648.89
571.392	20017.53
571.59	19874.17
571.789	19947.9
571.987	19579.26
572.186	19657.09
572.384	19421.57
572.582	19263.88
572.781	19308.93
572.979	19229.06
573.177	19263.88
573.376	19188.1
573.574	18913.67
573.772	19399.04
573.971	18923.91
574.169	18745.74
574.367	18932.11
574.565	18923.91
574.763	18813.32
574.962	18850.19
575.16	18497.94
575.358	18624.91
575.556	18432.4
575.754	18602.38
575.952	18272.66
576.151	18375.06
576.349	18311.57
576.547	18137.49
576.745	18260.37
576.943	18139.54
577.141	18033.05
577.339	18233.75
577.537	18139.54
577.735	17932.7
577.933	17842.59
578.131	17779.1
578.329	17895.83
578.527	17688.99
578.725	17682.84
578.923	17738.14
579.121	17666.46
579.319	17492.38
579.516	17469.86
579.714	17578.4
579.912	17392.03
580.11	17398.18
580.308	17275.3
580.506	17121.7
580.704	16783.79
580.901	17105.32
581.099	17031.59
581.297	17037.73
581.495	16830.89
581.692	17093.03
581.89	16939.43
582.088	16861.61
582.285	16617.9
582.483	16849.32
582.681	16288.18
582.878	16603.57
583.076	16343.47
583.274	16542.13
583.471	16443.82
583.669	16429.49
583.866	16398.77
584.064	16183.73
584.262	16159.16
584.459	16239.03
584.657	16318.9
584.854	15958.46
585.052	15718.84
585.249	16030.13
585.447	15831.48
585.644	15757.75
585.841	15767.99
586.039	15962.55
586.236	15628.73
586.434	15706.55
586.631	15552.96
586.828	15509.95
587.026	15520.19
587.223	15382.98
587.42	15296.96
587.618	15339.97
587.815	15288.77
588.012	15309.25
588.21	15268.29
588.407	15151.56
588.604	15098.31
588.801	15086.02
588.999	15061.44
589.196	14799.3
589.393	14877.13
589.59	15129.03
589.787	14725.58
589.984	15063.49
590.182	14549.45
590.379	14629.32
590.576	14520.78
590.773	14719.43
590.97	14594.51
591.167	14721.48
591.364	14619.08
591.561	14481.87
591.758	14283.22
591.955	14234.07
592.152	14279.12
592.349	14309.84
592.546	14166.48
592.743	14166.48
592.94	13963.73
593.137	14004.69
593.334	14168.53
593.531	13930.97
593.727	13941.21
593.924	14027.22
594.121	14062.04
594.318	13789.66
594.515	13775.32
594.712	13881.81
594.908	13418.97
595.105	13832.66
595.302	13523.42
595.499	13689.31
595.696	13478.36
595.892	13619.67
596.089	13568.48
596.286	13484.51
596.482	13410.78
596.679	13228.51
596.876	13431.26
597.072	13427.17
597.269	13244.9
597.466	13085.15
597.662	13208.03
597.859	12909.03
598.055	13023.72
598.252	13017.57
598.448	12919.27
598.645	13091.3
598.841	12630.51
599.038	12882.41
599.234	13025.76
599.431	12589.55
599.627	12773.86
599.824	12993
600.02	12734.95
600.217	12536.3
600.413	12345.84
600.609	12417.52
600.806	12413.42
601.002	12659.18
601.198	12356.08
601.395	12380.65
601.591	12509.68
601.787	12218.86
601.984	11934.2
602.18	12194.29
602.376	12085.75
602.572	12220.91
602.769	11973.11
602.965	11944.44
603.161	12050.93
603.357	12028.4
603.553	11790.84
603.75	11952.63
603.946	11934.2
604.142	11784.69
604.338	11682.3
604.534	11786.74
604.73	11690.49
604.926	11643.38
605.122	11604.47
605.318	11305.47
605.514	11483.64
605.71	11502.08
605.906	11518.46
606.102	11278.85
606.298	11565.56
606.494	11184.64
606.69	11332.09
606.886	11362.81
607.082	11250.17
607.278	11500.03
607.474	11297.28
607.67	11313.66
607.866	11133.44
608.062	11319.81
608.257	11106.82
608.453	11194.88
608.649	11153.92
608.845	10981.89
609.041	10873.35
609.236	11026.95
609.432	11028.99
609.628	11031.04
609.824	10869.25
610.019	10609.16
610.215	10908.16
610.411	10949.12
610.606	10762.76
610.802	10838.53
610.998	10799.62
611.193	10748.42
611.389	10766.85
611.584	10803.72
611.78	10430.99
611.976	10568.2
612.171	10592.78
612.367	10609.16
612.562	10293.77
612.758	10367.5
612.953	10480.14
613.149	10592.78
613.344	10338.83
613.539	10727.94
613.735	10361.36
613.93	10541.58
614.126	10236.43
614.321	10369.55
614.517	10471.95
614.712	10148.37
614.907	10160.66
615.103	10246.67
615.298	10265.1
615.493	10160.66
615.688	9835.03
615.884	10324.49
616.079	9931.28
616.274	10146.32
616.47	10271.25
616.665	9908.76
616.86	9996.82
617.055	9959.95
617.25	9783.83
617.445	10019.35
617.641	9851.41
617.836	9996.82
618.031	9644.57
618.226	9916.95
618.421	9781.78
618.616	9910.8
618.811	9744.92
619.006	9683.48
619.201	9558.55
619.396	9802.26
619.591	9523.74
619.786	9749.01
619.981	9568.79
620.176	9566.74
620.371	9286.17
620.566	9398.81
620.761	9220.64
620.956	9603.61
621.151	9218.59
621.346	9171.49
621.541	9161.25
621.735	9013.79
621.93	8991.27
622.125	9148.96
622.32	8866.34
622.515	8849.96
622.709	8933.92
622.904	8739.37
623.099	8995.36
623.294	9073.18
623.488	8731.17
623.683	8903.2
623.878	8737.32
624.072	8616.49
624.267	8542.76
624.462	8567.34
624.656	8436.27
624.851	8350.25
625.046	8276.52
625.24	8299.05
625.435	8280.62
625.629	8227.37
625.824	8208.94
626.018	8307.24
626.213	8088.11
626.407	8155.69
626.602	7918.13
626.796	8149.55
626.991	8020.53
627.185	7983.66
627.38	7711.28
627.574	7830.07
627.768	7649.85
627.963	7705.14
628.157	7379.51
628.352	7592.5
628.546	7625.27
628.74	7871.03
628.935	7391.8
629.129	7551.54
629.323	7477.82
629.517	7377.47
629.712	7393.85
629.906	7381.56
630.1	7150.14
630.294	7256.64
630.489	7270.97
630.683	7254.59
630.877	7043.65
631.071	7129.66
631.265	6931.01
631.459	7117.37
631.653	6904.39
631.848	7119.42
632.042	6877.76
632.236	6943.3
632.43	6812.23
632.624	6832.71
632.818	6777.41
633.012	6617.67
633.206	6650.44
633.4	6820.42
633.594	6611.53
633.788	6711.88
633.982	6666.82
634.176	6502.98
634.369	6537.8
634.563	6552.13
634.757	6406.73
634.951	6482.5
635.145	6373.96
635.339	6253.13
635.533	6281.8
635.726	6246.99
635.92	6036.05
636.114	6316.62
636.308	6199.88
636.501	6322.76
636.695	6099.53
636.889	5976.66
637.083	6017.61
637.276	5907.02
637.47	5968.46
637.664	5855.83
637.857	5900.88
638.051	5980.75
638.244	5827.15
638.438	5913.17
638.632	5882.45
638.825	5810.77
639.019	5605.97
639.212	5769.81
639.406	5691.99
639.599	5626.45
639.793	5612.12
639.986	5458.52
640.18	5491.29
640.373	5565.01
640.567	5311.07
640.76	5395.03
640.954	5556.82
641.147	5292.63
641.34	5229.15
641.534	5286.49
641.727	5270.11
641.92	5194.33
642.114	5100.12
642.307	5155.42
642.5	5128.8
642.694	4991.58
642.887	5190.24
643.08	5202.52
643.273	4850.27
643.467	5081.69
643.66	5055.07
643.853	4991.58
644.046	4846.18
644.239	4928.1
644.432	4915.81
644.626	4924
644.819	4911.71
645.012	4880.99
645.205	4725.35
645.398	4784.74
645.591	4760.16
645.784	4747.87
645.977	4575.84
646.17	4692.58
646.363	4559.46
646.556	4559.46
646.749	4571.75
646.942	4491.88
647.135	4430.44
647.328	4352.62
647.521	4495.97
647.714	4315.75
647.907	4483.69
648.099	4342.38
648.292	4407.91
648.485	4264.55
648.678	4457.06
648.871	4358.76
649.064	4348.52
649.256	4135.53
649.449	4282.99
649.642	4233.83
649.835	4100.72
650.027	4180.59
650.22	4192.87
650.413	4076.14
650.605	4014.7
650.798	4088.43
650.991	4024.94
651.183	4174.44
651.376	3981.93
651.568	4072.04
651.761	4010.61
651.954	3912.3
652.146	3988.08
652.339	4031.09
652.531	4008.56
652.724	3865.2
652.916	3957.36
653.109	3820.14
653.301	3852.91
653.494	3840.62
653.686	3641.97
653.879	3744.37
654.071	3781.23
654.263	3779.18
654.456	3869.3
654.648	3809.9
654.84	3689.07
655.033	3697.27
655.225	3697.27
655.417	3598.96
655.61	3613.3
655.802	3605.11
655.994	3496.57
656.186	3619.44
656.379	3658.35
656.571	3560.05
656.763	3490.42
656.955	3519.09
657.148	3474.04
657.34	3605.11
657.532	3383.93
657.724	3467.89
657.916	3320.44
658.108	3476.09
658.3	3299.96
658.492	3353.21
658.684	3279.48
658.876	3375.74
659.068	3271.29
659.26	3207.8
659.452	3213.95
659.644	3172.99
659.836	3232.38
660.028	3123.83
660.22	3191.42
660.412	3158.65
660.604	3062.4
660.796	3029.63
660.988	3062.4
661.18	3117.69
661.372	3134.07
661.563	3123.83
661.755	2947.71
661.947	2927.23
662.139	2943.61
662.331	3000.96
662.522	2855.55
662.714	2898.56
662.906	2908.8
663.097	3027.58
663.289	2873.98
663.481	2929.28
663.673	2988.67
663.864	2964.09
664.056	2837.12
664.247	2806.4
664.439	2876.03
664.631	2800.26
664.822	2734.72
665.014	2863.74
665.205	2787.97
665.397	2888.32
665.588	2818.69
665.78	2824.83
665.971	2663.04
666.163	2751.1
666.354	2853.5
666.546	2812.54
666.737	2675.33
666.929	2742.91
667.12	2683.52
667.311	2640.51
667.503	2636.42
667.694	2665.09
667.885	2673.28
668.077	2622.08
668.268	2546.31
668.459	2591.36
668.651	2779.78
668.842	2464.39
669.033	2656.9
669.224	2531.97
669.416	2675.33
669.607	2628.23
669.798	2405
669.989	2548.36
670.18	2544.26
670.371	2443.91
670.563	2501.25
670.754	2536.07
670.945	2445.96
671.136	2427.53
671.327	2476.68
671.518	2548.36
671.709	2542.21
671.9	2480.77
672.091	2531.97
672.282	2405
672.473	2398.85
672.664	2478.72
672.855	2370.18
673.046	2460.29
673.237	2431.62
673.428	2531.97
673.619	2396.81
673.809	2337.41
674	2419.33
674.191	2472.58
674.382	2421.38
674.573	2419.33
674.764	2361.99
674.954	2351.75
675.145	2378.37
675.336	2300.55
675.527	2384.52
675.717	2267.78
675.908	2349.7
676.099	2331.27
676.289	2243.21
676.48	2296.46
676.671	2304.65
676.861	2316.94
677.052	2292.36
677.243	2286.22
677.433	2185.87
677.624	2380.42
677.814	2171.53
678.005	2230.92
678.195	2335.37
678.386	2331.27
678.576	2263.69
678.767	2247.3
678.957	2214.54
679.148	2288.26
679.338	2349.7
679.529	2259.59
679.719	2202.25
679.909	2312.84
680.1	2220.68
680.29	2431.62
680.481	2327.18
680.671	2327.18
680.861	2306.7
681.052	2341.51
681.242	2204.3
681.432	2304.65
681.622	2284.17
681.813	2142.86
682.003	2257.54
682.193	2280.07
682.383	2175.63
682.573	2368.13
682.764	2259.59
682.954	2214.54
683.144	2237.06
683.334	2316.94
683.524	2249.35
683.714	2196.11
683.904	2212.49
684.094	2181.77
684.284	2232.97
684.474	2269.83
684.664	2275.98
684.854	2230.92
685.044	2167.43
685.234	2232.97
685.424	2292.36
685.614	2259.59
685.804	2116.23
685.994	2339.46
686.184	2278.02
686.374	2163.34
686.564	2116.23
686.753	2175.63
686.943	2222.73
687.133	2124.43
687.323	2167.43
687.513	2075.27
687.702	2134.67
687.892	2108.04
688.082	2095.75
688.272	2034.32
688.461	2060.94
688.651	2071.18
688.841	2157.19
689.03	2083.47
689.22	2022.03
689.41	2155.15
689.599	2011.79
689.789	2001.55
689.979	2105.99
690.168	2017.93
690.358	2110.09
690.547	1962.64
690.737	1903.25
690.926	1876.62
691.116	2022.03
691.305	1893.01
691.495	1972.88
691.684	1993.36
691.874	1903.25
692.063	2032.27
692.252	1970.83
692.442	1905.29
692.631	1890.96
692.82	1938.06
693.01	1915.53
693.199	1868.43
693.388	1979.02
693.578	1936.01
693.767	1940.11
693.956	1909.39
694.146	1907.34
694.335	1802.9
694.524	1737.36
694.713	1899.15
694.902	1870.48
695.092	1839.76
695.281	1907.34
695.47	1854.09
695.659	1866.38
695.848	1800.85
696.037	1802.9
696.226	1837.71
696.415	1729.17
696.604	1860.24
696.793	1915.53
696.982	1845.9
697.171	1843.85
697.36	1870.48
697.549	1880.72
697.738	1823.37
697.927	1792.66
698.116	1706.64
698.305	1890.96
698.494	1796.75
698.683	1860.24
698.872	1874.57
699.061	1712.78
699.25	1925.77
699.438	1850
699.627	1901.2
699.816	1806.99
700.005	1870.48
700.193	1850
700.382	1827.47
700.571	1784.46
700.76	1796.75
700.948	1929.87
701.137	1845.9
701.326	1952.4
701.514	1878.67
701.703	1866.38
701.892	1741.46
702.08	1843.85
702.269	1843.85
702.457	1794.7
702.646	1884.81
702.834	1884.81
703.023	1886.86
703.212	1893.01
703.4	1946.25
703.589	1890.96
703.777	1917.58
703.965	1768.08
704.154	1874.57
704.342	1872.53
704.531	1843.85
704.719	1919.63
704.907	1880.72
705.096	1813.13
705.284	1979.02
705.472	1938.06
705.661	1731.22
705.849	1919.63
706.037	1858.19
706.226	1993.36
706.414	1925.77
706.602	1878.67
706.79	1870.48
706.979	1837.71
707.167	1962.64
707.355	1921.68
707.543	1899.15
707.731	1845.9
707.919	1860.24
708.107	1933.97
708.296	2007.69
708.484	1917.58
708.672	1837.71
708.86	1852.05
709.048	1958.54
709.236	1958.54
709.424	1940.11
709.612	1933.97
709.8	1852.05
709.988	1895.05
710.176	2083.47
710.364	1940.11
710.551	1931.92
710.739	1946.25
710.927	1942.16
711.115	2007.69
711.303	1948.3
711.491	1901.2
711.679	1927.82
711.866	1974.92
712.054	1938.06
712.242	1845.9
712.43	1856.14
712.617	1925.77
712.805	1936.01
712.993	1913.49
713.181	1882.77
713.368	1882.77
713.556	1927.82
713.744	1913.49
713.931	2026.12
714.119	1927.82
714.306	1962.64
714.494	2118.28
714.682	1987.21
714.869	1997.45
715.057	1960.59
715.244	1950.35
715.432	2034.32
715.619	1983.12
715.807	1925.77
715.994	1968.78
716.182	1981.07
716.369	1946.25
716.556	2040.46
716.744	2038.41
716.931	1946.25
717.119	2026.12
717.306	1893.01
717.493	1985.16
717.681	1870.48
717.868	1948.3
718.055	2046.6
718.242	1909.39
718.43	1946.25
718.617	1962.64
718.804	2132.62
718.991	1929.87
719.179	2034.32
719.366	1979.02
719.553	2009.74
719.74	2036.36
719.927	1895.05
720.114	1970.83
720.301	2009.74
720.488	1974.92
720.676	1946.25
720.863	2034.32
721.05	1991.31
721.237	1915.53
721.424	1985.16
721.611	1835.66
721.798	1919.63
721.985	2028.17
722.172	2032.27
722.358	2019.98
722.545	2022.03
722.732	2083.47
722.919	2085.51
723.106	1893.01
723.293	1983.12
723.48	1999.5
723.667	1989.26
723.853	2036.36
724.04	1944.2
724.227	2067.08
724.414	1917.58
724.6	1964.68
724.787	2069.13
724.974	2038.41
725.161	1911.44
725.347	1976.97
725.534	2030.22
725.72	1981.07
725.907	2028.17
726.094	1997.45
726.28	1888.91
726.467	1985.16
726.653	1946.25
726.84	2040.46
727.027	2050.7
727.213	1936.01
727.4	2071.18
727.586	2079.37
727.773	1970.83
727.959	2052.75
728.145	2048.65
728.332	2026.12
728.518	2062.99
728.705	2163.34
728.891	2134.67
729.077	1997.45
729.264	2079.37
729.45	2058.89
729.636	2048.65
729.823	2067.08
730.009	2065.04
730.195	2173.58
730.382	2122.38
730.568	2075.27
730.754	2032.27
730.94	2079.37
731.126	1954.44
731.313	2083.47
731.499	2050.7
731.685	2042.51
731.871	2173.58
732.057	2062.99
732.243	2128.52
732.429	1995.4
732.615	2040.46
732.801	2044.56
732.987	2177.67
733.173	1983.12
733.359	2062.99
733.545	2048.65
733.731	1989.26
733.917	1981.07
734.103	2185.87
734.289	1974.92
734.475	2011.79
734.661	2069.13
734.847	2196.11
735.033	2097.8
735.219	2087.56
735.404	2058.89
735.59	2032.27
735.776	2026.12
735.962	2044.56
736.148	2038.41
736.333	2030.22
736.519	2146.95
736.705	1979.02
736.89	2009.74
737.076	2024.08
737.262	2050.7
737.447	2067.08
737.633	2132.62
737.819	2007.69
738.004	1923.73
738.19	2062.99
738.375	2013.84
738.561	2073.23
738.747	1940.11
738.932	2034.32
739.118	1950.35
739.303	2034.32
739.489	2054.8
739.674	2024.08
739.859	1976.97
740.045	1950.35
740.23	1970.83
740.416	1956.49
740.601	1854.09
740.786	1931.92
740.972	1956.49
741.157	1938.06
741.342	1899.15
741.528	1956.49
741.713	1989.26
741.898	1878.67
742.084	1913.49
742.269	1997.45
742.454	1919.63
742.639	1983.12
742.824	1856.14
743.01	1909.39
743.195	1847.95
743.38	1903.25
743.565	1917.58
743.75	1968.78
743.935	1786.51
744.12	1970.83
744.305	1759.89
744.49	1854.09
744.675	1817.23
744.86	1804.94
745.045	1761.94
745.23	1845.9
745.415	1827.47
745.6	1817.23
745.785	1749.65
745.97	1804.94
746.155	1860.24
746.34	1737.36
746.525	1684.11
746.71	1747.6
746.895	1626.77
747.079	1696.4
747.264	1772.18
747.449	1698.45
747.634	1725.07
747.819	1688.21
748.003	1737.36
748.188	1628.82
748.373	1637.01
748.557	1608.34
748.742	1634.96
748.927	1616.53
749.111	1589.91
749.296	1628.82
749.481	1661.59
749.665	1594
749.85	1555.09
750.034	1673.87
750.219	1616.53
750.404	1507.99
750.588	1516.18
750.773	1534.61
750.957	1530.52
751.141	1440.4
751.326	1440.4
751.51	1438.36
751.695	1505.94
751.879	1481.36
752.064	1538.71
752.248	1370.77
752.432	1550.99
752.617	1518.23
752.801	1442.45
752.985	1436.31
753.17	1442.45
753.354	1491.6
753.538	1323.67
753.722	1424.02
753.907	1313.43
754.091	1303.19
754.275	1315.48
754.459	1327.77
754.643	1405.59
754.828	1262.23
755.012	1356.44
755.196	1372.82
755.38	1309.33
755.564	1276.57
755.748	1227.42
755.932	1376.92
756.116	1192.6
756.3	1303.19
756.484	1305.24
756.668	1211.03
756.852	1153.69
757.036	1219.22
757.22	1104.54
757.404	1206.94
757.588	1176.22
757.772	1108.63
757.956	1188.5
758.14	1139.35
758.323	1182.36
758.507	1079.96
758.691	1159.83
758.875	1139.35
759.059	1206.94
759.242	1143.45
759.426	1049.24
759.61	1059.48
759.794	1131.16
759.977	1063.58
760.161	1122.97
760.345	1049.24
760.528	1172.12
760.712	1102.49
760.895	1131.16
761.079	1057.43
761.263	977.56
761.446	1034.91
761.63	1053.34
761.813	1026.71
761.997	1012.38
762.18	1010.33
762.364	1043.1
762.547	1004.19
762.731	983.71
762.914	998.04
763.098	993.95
763.281	1000.09
763.464	912.03
763.648	1006.24
763.831	987.8
764.015	1016.48
764.198	914.08
764.381	991.9
764.564	918.17
764.748	1008.28
764.931	934.56
765.114	912.03
765.297	928.41
765.481	912.03
765.664	903.84
765.847	877.21
766.03	932.51
766.213	936.6
766.397	998.04
766.58	893.6
766.763	903.84
766.946	811.68
767.129	832.16
767.312	871.07
767.495	875.17
767.678	879.26
767.861	891.55
768.044	869.02
768.227	780.96
768.41	830.11
768.593	852.64
768.776	791.2
768.959	883.36
769.142	895.64
769.324	797.34
769.507	879.26
769.69	780.96
769.873	817.82
770.056	971.42
770.239	877.21
770.421	897.69
770.604	885.41
770.787	821.92
770.97	856.73
771.152	721.57
771.335	770.72
771.518	895.64
771.7	768.67
771.883	758.43
772.066	760.48
772.248	752.29
772.431	744.1
772.613	791.2
772.796	713.38
772.978	688.8
773.161	725.66
773.343	772.77
773.526	735.9
773.708	719.52
773.891	699.04
774.073	703.14
774.256	723.62
774.438	772.77
774.621	664.22
774.803	649.89
774.985	731.81
775.168	678.56
775.35	613.03
775.532	592.55
775.715	541.35
775.897	670.37
776.079	664.22
776.261	740
776.444	701.09
776.626	709.28
776.808	651.94
776.99	572.07
777.173	629.41
777.355	656.03
777.537	584.35
777.719	643.74
777.901	664.22
778.083	504.48
778.265	516.77
778.447	533.15
778.629	567.97
778.811	572.07
778.993	590.5
779.175	594.59
779.357	617.12
779.539	600.74
779.721	592.55
779.903	672.42
780.085	527.01
780.267	627.36
780.449	527.01
780.631	533.15
780.812	549.54
780.994	559.78
781.176	500.39
781.358	459.43
781.54	555.68
781.721	486.05
781.903	512.67
782.085	539.3
782.267	416.42
782.448	461.48
782.63	490.15
782.812	441
782.993	383.65
783.175	533.15
783.357	467.62
783.538	455.33
783.72	443.04
783.901	453.28
784.083	451.24
784.264	469.67
784.446	400.04
784.627	426.66
784.809	408.23
784.99	443.04
785.172	410.28
785.353	445.09
785.535	420.52
785.716	383.65
785.897	400.04
786.079	395.94
786.26	531.11
786.441	402.08
786.623	395.94
786.804	281.25
786.985	375.46
787.167	340.65
787.348	322.21
787.529	371.36
787.71	389.8
787.891	420.52
788.073	350.89
788.254	318.12
788.435	322.21
788.616	379.56
788.797	303.78
788.978	316.07
789.159	330.41
789.34	441
789.522	328.36
789.703	344.74
789.884	334.5
790.065	320.17
790.246	334.5
790.427	334.5
790.607	305.83
790.788	342.69
790.969	244.39
791.15	387.75
791.331	287.4
791.512	295.59
791.693	223.91
791.874	330.41
792.054	346.79
792.235	281.25
792.416	256.68
792.597	318.12
792.778	248.49
792.958	314.02
793.139	273.06
793.32	211.62
793.5	244.39
793.681	240.29
793.862	223.91
794.042	314.02
794.223	248.49
794.404	291.49
794.584	279.21
794.765	285.35
794.945	232.1
795.126	275.11
795.306	271.01
795.487	328.36
795.667	287.4
795.848	289.45
796.028	311.97
796.209	268.97
796.389	236.2
796.57	228.01
796.75	236.2
796.93	246.44
797.111	254.63
797.291	250.53
797.471	209.58
797.652	213.67
797.832	174.76
798.012	250.53
798.192	203.43
798.373	301.73
798.553	238.25
798.733	271.01
798.913	254.63
799.093	248.49
799.274	221.86
799.454	287.4
799.634	182.95
799.814	193.19
799.994	236.2
800.174	182.95
800.354	258.73
800.534	213.67
800.714	232.1
800.894	225.96
801.074	168.62
801.254	123.56
801.434	187.05
801.614	285.35
801.794	250.53
801.974	608.93
802.154	260.77
802.334	203.43
802.514	180.9
802.693	139.94
802.873	191.14
803.053	266.92
803.233	252.58
803.413	189.1
803.592	209.58
803.772	191.14
803.952	150.18
804.131	156.33
804.311	189.1
804.491	127.66
804.67	221.86
804.85	146.09
805.03	182.95
805.209	197.29
805.389	201.38
805.568	131.75
805.748	217.77
805.928	154.28
806.107	191.14
806.287	238.25
806.466	148.14
806.646	64.17
806.825	170.66
807.004	211.62
807.184	197.29
807.363	174.76
807.543	174.76
807.722	170.66
807.901	133.8
808.081	228.01
808.26	174.76
808.439	154.28
808.619	164.52
808.798	125.61
808.977	150.18
809.156	240.29
809.336	152.23
809.515	180.9
809.694	135.85
809.873	205.48
810.052	146.09
810.231	174.76
810.411	86.7
810.59	111.27
810.769	187.05
810.948	160.42
811.127	129.7
811.306	101.03
811.485	156.33
811.664	172.71
811.843	141.99
812.022	148.14
812.201	115.37
812.38	121.51
812.559	107.18
812.737	174.76
812.916	141.99
813.095	129.7
813.274	68.27
813.453	174.76
813.632	82.6
813.811	135.85
813.989	152.23
814.168	172.71
814.347	103.08
814.526	158.38
814.704	121.51
814.883	150.18
815.062	156.33
815.24	193.19
815.419	92.84
815.598	144.04
815.776	150.18
815.955	131.75
816.133	141.99
816.312	209.58
816.49	189.1
816.669	39.59
816.847	86.7
817.026	193.19
817.204	90.79
817.383	133.8
817.561	84.65
817.74	123.56
817.918	131.75
818.097	64.17
818.275	105.13
818.453	84.65
818.632	70.31
818.81	111.27
818.988	74.41
819.167	80.55
819.345	111.27
819.523	64.17
819.701	96.94
819.879	117.42
820.058	109.22
820.236	174.76
820.414	107.18
820.592	119.46
820.77	86.7
820.948	25.26
821.127	96.94
821.305	166.57
821.483	25.26
821.661	154.28
821.839	51.88
822.017	60.07
822.195	109.22
822.373	88.75
822.551	90.79
822.729	90.79
822.907	82.6
823.085	129.7
823.262	109.22
823.44	121.51
823.618	78.51
823.796	64.17
823.974	58.03
824.152	70.31
824.329	129.7
824.507	148.14
824.685	70.31
824.863	27.31
825.04	62.12
825.218	33.45
825.396	58.03
825.574	103.08
825.751	107.18
825.929	125.61
826.107	64.17
826.284	72.36
826.462	76.46
826.639	88.75
826.817	-17.75
826.994	72.36
827.172	17.07
827.349	49.83
827.527	25.26
827.704	98.99
827.882	105.13
828.059	139.94
828.237	60.07
828.414	76.46
828.591	6.83
828.769	70.31
828.946	21.16
829.124	141.99
829.301	109.22
829.478	35.5
829.655	49.83
829.833	25.26
830.01	98.99
830.187	64.17
830.364	51.88
830.542	80.55
830.719	39.59
830.896	103.08
831.073	21.16
831.25	98.99
831.427	84.65
831.604	51.88
831.782	19.11
831.959	47.79
832.136	37.55
832.313	35.5
832.49	121.51
832.667	35.5
832.844	60.07
833.021	64.17
833.198	86.7
833.374	133.8
833.551	25.26
833.728	15.02
833.905	72.36
834.082	43.69
834.259	-5.46
834.436	105.13
834.612	-23.89
834.789	66.22
834.966	66.22
835.143	49.83
835.319	12.97
835.496	109.22
835.673	90.79
835.85	74.41
836.026	33.45
836.203	15.02
836.38	51.88
836.556	64.17
836.733	37.55
836.909	62.12
837.086	25.26
837.262	58.03
837.439	4.78
837.616	35.5
837.792	6.83
837.968	47.79
838.145	45.74
838.321	72.36
838.498	62.12
838.674	43.69
838.851	-13.65
839.027	49.83
839.203	80.55
839.38	19.11
839.556	-58.71
839.732	74.41
839.909	64.17
840.085	23.21
840.261	51.88
840.437	0.68
840.614	60.07
840.79	27.31
840.966	70.31
841.142	107.18
841.318	55.98
841.494	80.55
841.671	21.16
841.847	-13.65
842.023	-1.37
842.199	98.99
842.375	125.61
842.551	72.36
842.727	43.69
842.903	53.93
843.079	17.07
843.255	0.68
843.431	76.46
843.607	41.64
843.783	8.87
843.959	41.64
844.134	58.03
844.31	41.64
844.486	27.31
844.662	41.64
844.838	45.74
845.013	39.59
845.189	0.68
845.365	41.64
845.541	43.69
845.716	-40.28
845.892	141.99
846.068	70.31
846.244	68.27
846.419	23.21
846.595	84.65
846.77	-21.85
846.946	58.03
847.122	-5.46
847.297	64.17
847.473	82.6
847.648	27.31
847.824	64.17
847.999	-142.68
848.175	51.88
848.35	74.41
848.526	-71
848.701	25.26
848.876	33.45
849.052	66.22
849.227	-3.41
849.403	25.26
849.578	10.92
849.753	66.22
849.929	6.83
850.104	-34.13
850.279	23.21
850.454	39.59
850.63	62.12
850.805	-23.89
850.98	47.79
851.155	-17.75
851.33	-7.51
851.505	-71
851.681	101.03
851.856	70.31
852.031	21.16
852.206	-7.51
852.381	-52.56
852.556	-27.99
852.731	23.21
852.906	-5.46
853.081	-30.04
853.256	94.89
853.431	23.21
853.606	-9.56
853.781	23.21
853.956	-54.61
854.131	27.31
854.305	19.11
854.48	-48.47
854.655	19.11
854.83	-34.13
855.005	6.83
855.18	-40.28
855.354	6.83
855.529	12.97
855.704	68.27
855.879	84.65
856.053	10.92
856.228	17.07
856.403	55.98
856.577	-60.76
856.752	4.78
856.926	23.21
857.101	-34.13
857.276	15.02
857.45	-23.89
857.625	88.75
857.799	-21.85
857.974	27.31
858.148	-38.23
858.323	68.27
858.497	-5.46
858.672	4.78
858.846	45.74
859.02	43.69
859.195	55.98
859.369	-15.7
859.543	96.94
859.718	10.92
859.892	58.03
860.066	19.11
860.241	0.68
860.415	-15.7
860.589	15.02
860.763	-40.28
860.938	-15.7
861.112	-32.08
861.286	-60.76
861.46	-5.46
861.634	6.83
861.808	92.84
861.982	-46.42
862.157	-38.23
862.331	21.16
862.505	31.4
862.679	-48.47
862.853	-19.8
863.027	-7.51
863.201	15.02
863.375	-32.08
863.549	47.79
863.722	-15.7
863.896	25.26
864.07	-23.89
864.244	10.92
864.418	-23.89
864.592	21.16
864.766	12.97
864.939	27.31
865.113	-81.24
865.287	-38.23
865.461	-17.75
865.634	-34.13
865.808	-1.37
865.982	-34.13
866.156	47.79
866.329	-11.61
866.503	-7.51
866.676	43.69
866.85	-34.13
867.024	-27.99
867.197	-54.61
867.371	37.55
867.544	-25.94
867.718	27.31
867.891	70.31
868.065	15.02
868.238	8.87
868.412	55.98
868.585	-5.46
868.759	-5.46
868.932	-52.56
869.105	23.21
869.279	47.79
869.452	4.78
869.625	-9.56
869.799	39.59
869.972	-50.52
870.145	-21.85
870.319	29.35
870.492	-9.56
870.665	-5.46
870.838	2.73
871.011	15.02
871.185	21.16
871.358	-46.42
871.531	-17.75
871.704	-19.8
871.877	-23.89
872.05	6.83
872.223	-46.42
872.396	17.07
872.569	0.68
872.742	-25.94
872.915	-34.13
873.088	-17.75
873.261	-7.51
873.434	64.17
873.607	-62.8
873.78	4.78
873.953	-75.09
874.126	41.64
874.299	-11.61
874.471	-36.18
874.644	68.27
874.817	-54.61
874.99	6.83
875.163	-7.51
875.335	15.02
875.508	-3.41
875.681	-75.09
875.853	-23.89
876.026	-66.9
876.199	-13.65
876.371	-21.85
876.544	39.59
876.717	23.21
876.889	8.87
877.062	78.51
877.234	-48.47
877.407	-21.85
877.579	-19.8
877.752	2.73
877.924	-17.75
878.097	-56.66
878.269	-1.37
878.442	92.84
878.614	2.73
878.786	-1.37
878.959	29.35
879.131	-38.23
879.303	-116.05
879.476	-62.8
879.648	-48.47
879.82	-15.7
879.993	-62.8
880.165	-19.8
880.337	39.59
880.509	-32.08
880.681	15.02
880.854	-23.89
881.026	41.64
881.198	-11.61
881.37	23.21
881.542	29.35
881.714	-62.8
881.886	43.69
882.058	-62.8
882.23	8.87
882.402	15.02
882.574	-3.41
882.746	-56.66
882.918	21.16
883.09	-15.7
883.262	-5.46
883.434	-7.51
883.606	-40.28
883.778	-32.08
883.95	29.35
884.122	-5.46
884.293	43.69
884.465	4.78
884.637	-44.37
884.809	23.21
884.98	-1.37
885.152	70.31
885.324	19.11
885.496	-23.89
885.667	76.46
885.839	8.87
886.011	12.97
886.182	-32.08
886.354	-13.65
886.525	27.31
886.697	17.07
886.869	-15.7
887.04	0.68
887.212	55.98
887.383	-66.9
887.555	27.31
887.726	43.69
887.897	2.73
888.069	-34.13
888.24	-27.99
888.412	43.69
888.583	-38.23
888.754	-1.37
888.926	6.83
889.097	-46.42
889.268	-5.46
889.44	-52.56
889.611	-64.85
889.782	-9.56
889.953	12.97
890.125	-30.04
890.296	-44.37
890.467	-15.7
890.638	-44.37
890.809	21.16
890.98	51.88
891.151	19.11
891.323	-25.94
891.494	-17.75
891.665	4.78
891.836	-21.85
892.007	15.02
892.178	10.92
892.349	-17.75
892.52	0.68
892.691	2.73
892.862	-66.9
893.032	-40.28
893.203	0.68
893.374	21.16
893.545	-25.94
893.716	-120.15
893.887	-11.61
894.057	-32.08
894.228	-50.52
894.399	31.4
894.57	-19.8
894.74	2.73
894.911	-36.18
895.082	-81.24
895.253	-95.57
895.423	-1.37
895.594	23.21
895.764	49.83
895.935	-50.52
896.106	-25.94
896.276	-50.52
896.447	-17.75
896.617	-44.37
896.788	6.83
896.958	-9.56
897.129	27.31
897.299	10.92
897.47	-87.38
897.64	-9.56
897.81	-25.94
897.981	0.68
898.151	27.31
898.322	-7.51
898.492	-19.8
898.662	4.78
898.832	-48.47
899.003	-11.61
899.173	2.73
899.343	31.4
899.513	4.78
