Data from USB4F104151__243__11-11-32-000.txt Node

Date: Wed Mar 12 11:11:32 EDT 2025
User: louis
Spectrometer: USB4F10415
Trigger mode: 4
Integration Time (sec): 2.000000E-2
Scans to average: 1
Electric dark correction enabled: true
Nonlinearity correction enabled: false
Boxcar width: 0
XAxis mode: Wavelengths
Number of Pixels in Spectrum: 3648
>>>>>Begin Spectral Data<<<<<
178.204	-129.19
178.424	-129.19
178.644	-129.19
178.864	-127.14
179.084	-59.56
179.304	20.31
179.524	38.74
179.744	-88.23
179.964	57.17
180.184	-30.89
180.404	-2.22
180.624	59.22
180.844	-10.41
181.064	22.36
181.283	-20.65
181.503	1.88
181.723	-47.27
181.943	-47.27
182.163	1.88
182.383	-47.27
182.602	55.12
182.822	44.88
183.042	-2.22
183.262	-16.55
183.482	46.93
183.701	-16.55
183.921	30.55
184.141	-88.23
184.361	-8.36
184.58	8.02
184.8	36.69
185.02	10.07
185.239	51.03
185.459	-8.36
185.679	79.7
185.898	-88.23
186.118	12.12
186.338	-59.56
186.557	67.41
186.777	-43.18
186.997	85.84
187.216	14.17
187.436	38.74
187.655	28.5
187.875	48.98
188.095	-6.31
188.314	-0.17
188.534	-6.31
188.753	-4.27
188.973	-0.17
189.192	14.17
189.412	42.84
189.631	30.55
189.851	79.7
190.07	5.97
190.29	-10.41
190.509	-2.22
190.729	12.12
190.948	30.55
191.168	79.7
191.387	75.6
191.607	38.74
191.826	-2.22
192.045	8.02
192.265	73.56
192.484	36.69
192.704	16.21
192.923	36.69
193.142	48.98
193.362	51.03
193.581	3.93
193.8	-16.55
194.02	-2.22
194.239	10.07
194.458	5.97
194.678	-0.17
194.897	32.6
195.116	-41.13
195.335	1.88
195.555	-24.75
195.774	16.21
195.993	22.36
196.212	36.69
196.432	26.45
196.651	-10.41
196.87	69.46
197.089	46.93
197.308	-30.89
197.528	61.27
197.747	40.79
197.966	5.97
198.185	34.64
198.404	44.88
198.623	48.98
198.842	-0.17
199.062	51.03
199.281	85.84
199.5	18.26
199.719	57.17
199.938	51.03
200.157	-6.31
200.376	-34.99
200.595	38.74
200.814	-10.41
201.033	20.31
201.252	5.97
201.471	30.55
201.69	38.74
201.909	20.31
202.128	36.69
202.347	-32.94
202.566	-10.41
202.785	34.64
203.004	-14.51
203.223	26.45
203.442	-0.17
203.661	28.5
203.879	8.02
204.098	24.4
204.317	10.07
204.536	40.79
204.755	42.84
204.974	42.84
205.193	-4.27
205.411	96.08
205.63	48.98
205.849	-55.47
206.068	28.5
206.287	-6.31
206.505	67.41
206.724	22.36
206.943	53.08
207.162	-2.22
207.381	-4.27
207.599	108.37
207.818	59.22
208.037	16.21
208.255	-24.75
208.474	18.26
208.693	40.79
208.911	5.97
209.13	26.45
209.349	59.22
209.567	24.4
209.786	34.64
210.005	59.22
210.223	10.07
210.442	-75.95
210.661	51.03
210.879	16.21
211.098	34.64
211.316	22.36
211.535	-30.89
211.753	40.79
211.972	63.32
212.191	-0.17
212.409	-84.14
212.628	40.79
212.846	40.79
213.065	42.84
213.283	48.98
213.502	16.21
213.72	22.36
213.938	24.4
214.157	-20.65
214.375	67.41
214.594	96.08
214.812	96.08
215.031	-14.51
215.249	-0.17
215.467	-24.75
215.686	38.74
215.904	-6.31
216.122	3.93
216.341	67.41
216.559	-4.27
216.778	-0.17
216.996	63.32
217.214	18.26
217.432	-12.46
217.651	53.08
217.869	42.84
218.087	-30.89
218.306	24.4
218.524	61.27
218.742	32.6
218.96	59.22
219.179	32.6
219.397	57.17
219.615	91.99
219.833	10.07
220.051	12.12
220.27	34.64
220.488	-12.46
220.706	34.64
220.924	22.36
221.142	69.46
221.36	63.32
221.578	-16.55
221.796	-20.65
222.015	-20.65
222.233	-12.46
222.451	91.99
222.669	28.5
222.887	-28.84
223.105	26.45
223.323	81.75
223.541	18.26
223.759	81.75
223.977	-22.7
224.195	32.6
224.413	46.93
224.631	20.31
224.849	83.8
225.067	-6.31
225.285	10.07
225.503	-18.6
225.721	-18.6
225.939	32.6
226.157	71.51
226.375	79.7
226.592	-10.41
226.81	-0.17
227.028	-24.75
227.246	28.5
227.464	-20.65
227.682	32.6
227.9	14.17
228.117	42.84
228.335	22.36
228.553	24.4
228.771	36.69
228.989	-43.18
229.206	-37.03
229.424	-2.22
229.642	96.08
229.86	40.79
230.077	98.13
230.295	59.22
230.513	-28.84
230.731	-10.41
230.948	10.07
231.166	18.26
231.384	10.07
231.601	30.55
231.819	12.12
232.037	51.03
232.254	32.6
232.472	-2.22
232.689	-30.89
232.907	-41.13
233.125	77.65
233.342	-41.13
233.56	65.36
233.777	8.02
233.995	22.36
234.213	5.97
234.43	71.51
234.648	-8.36
234.865	-28.84
235.083	36.69
235.3	112.47
235.518	22.36
235.735	55.12
235.953	-6.31
236.17	-4.27
236.388	18.26
236.605	-30.89
236.822	44.88
237.04	34.64
237.257	24.4
237.475	44.88
237.692	28.5
237.909	18.26
238.127	26.45
238.344	32.6
238.562	67.41
238.779	-37.03
238.996	-12.46
239.214	51.03
239.431	5.97
239.648	16.21
239.865	94.04
240.083	48.98
240.3	8.02
240.517	-43.18
240.735	98.13
240.952	38.74
241.169	12.12
241.386	-28.84
241.603	-2.22
241.821	67.41
242.038	63.32
242.255	-6.31
242.472	26.45
242.689	3.93
242.907	1.88
243.124	-12.46
243.341	63.32
243.558	32.6
243.775	1.88
243.992	-30.89
244.209	30.55
244.426	5.97
244.643	83.8
244.86	20.31
245.078	75.6
245.295	40.79
245.512	104.28
245.729	51.03
245.946	55.12
246.163	-53.42
246.38	81.75
246.597	-30.89
246.814	38.74
247.031	81.75
247.248	67.41
247.464	63.32
247.681	-49.32
247.898	57.17
248.115	87.89
248.332	28.5
248.549	130.9
248.766	75.6
248.983	69.46
249.2	55.12
249.417	42.84
249.633	16.21
249.85	75.6
250.067	22.36
250.284	34.64
250.501	89.94
250.717	63.32
250.934	-53.42
251.151	-37.03
251.368	8.02
251.585	8.02
251.801	18.26
252.018	57.17
252.235	26.45
252.451	1.88
252.668	-39.08
252.885	61.27
253.102	1.88
253.318	-39.08
253.535	-118.95
253.752	-30.89
253.968	61.27
254.185	-2.22
254.401	-0.17
254.618	-8.36
254.835	16.21
255.051	48.98
255.268	75.6
255.484	53.08
255.701	-30.89
255.917	69.46
256.134	-26.79
256.351	69.46
256.567	-41.13
256.784	69.46
257	-10.41
257.217	-24.75
257.433	5.97
257.65	73.56
257.866	22.36
258.082	-2.22
258.299	-16.55
258.515	26.45
258.732	-34.99
258.948	61.27
259.165	63.32
259.381	71.51
259.597	-0.17
259.814	38.74
260.03	71.51
260.246	69.46
260.463	83.8
260.679	59.22
260.895	5.97
261.112	71.51
261.328	30.55
261.544	3.93
261.761	120.66
261.977	55.12
262.193	1.88
262.409	61.27
262.626	44.88
262.842	26.45
263.058	51.03
263.274	116.56
263.49	18.26
263.707	77.65
263.923	67.41
264.139	34.64
264.355	-22.7
264.571	51.03
264.787	5.97
265.004	132.95
265.22	32.6
265.436	44.88
265.652	28.5
265.868	61.27
266.084	-6.31
266.3	5.97
266.516	1.88
266.732	34.64
266.948	55.12
267.164	22.36
267.38	14.17
267.596	38.74
267.812	24.4
268.028	55.12
268.244	18.26
268.46	1.88
268.676	38.74
268.892	57.17
269.108	26.45
269.324	10.07
269.54	-0.17
269.756	83.8
269.972	44.88
270.188	20.31
270.403	26.45
270.619	5.97
270.835	55.12
271.051	5.97
271.267	8.02
271.483	26.45
271.698	87.89
271.914	20.31
272.13	-6.31
272.346	36.69
272.562	46.93
272.777	102.23
272.993	-65.71
273.209	38.74
273.425	65.36
273.64	20.31
273.856	28.5
274.072	-2.22
274.287	87.89
274.503	-28.84
274.719	5.97
274.934	-16.55
275.15	-26.79
275.366	10.07
275.581	-12.46
275.797	3.93
276.012	46.93
276.228	46.93
276.444	77.65
276.659	-34.99
276.875	24.4
277.09	-16.55
277.306	-16.55
277.521	63.32
277.737	-8.36
277.952	67.41
278.168	53.08
278.383	34.64
278.599	-51.37
278.814	18.26
279.03	51.03
279.245	118.61
279.461	100.18
279.676	34.64
279.892	28.5
280.107	-28.84
280.322	28.5
280.538	16.21
280.753	22.36
280.969	46.93
281.184	-39.08
281.399	8.02
281.615	55.12
281.83	20.31
282.045	26.45
282.26	48.98
282.476	83.8
282.691	-2.22
282.906	22.36
283.122	10.07
283.337	-30.89
283.552	34.64
283.767	1.88
283.983	55.12
284.198	-0.17
284.413	55.12
284.628	-26.79
284.843	-6.31
285.058	22.36
285.274	36.69
285.489	22.36
285.704	30.55
285.919	-4.27
286.134	-22.7
286.349	5.97
286.564	42.84
286.779	63.32
286.995	79.7
287.21	1.88
287.425	42.84
287.64	77.65
287.855	73.56
288.07	20.31
288.285	-2.22
288.5	10.07
288.715	-4.27
288.93	-8.36
289.145	46.93
289.36	32.6
289.575	-6.31
289.79	69.46
290.004	40.79
290.219	51.03
290.434	1.88
290.649	46.93
290.864	-6.31
291.079	-20.65
291.294	77.65
291.509	44.88
291.724	-14.51
291.938	-34.99
292.153	-28.84
292.368	81.75
292.583	42.84
292.798	8.02
293.012	36.69
293.227	28.5
293.442	77.65
293.657	75.6
293.871	22.36
294.086	-6.31
294.301	98.13
294.516	-12.46
294.73	40.79
294.945	32.6
295.16	42.84
295.374	28.5
295.589	32.6
295.804	-10.41
296.018	65.36
296.233	42.84
296.447	-16.55
296.662	34.64
296.877	48.98
297.091	149.33
297.306	-34.99
297.52	-12.46
297.735	73.56
297.949	-47.27
298.164	-18.6
298.378	110.42
298.593	51.03
298.807	-6.31
299.022	24.4
299.236	-32.94
299.451	8.02
299.665	-4.27
299.88	65.36
300.094	83.8
300.309	55.12
300.523	79.7
300.737	36.69
300.952	-18.6
301.166	-8.36
301.381	-0.17
301.595	14.17
301.809	85.84
302.024	30.55
302.238	18.26
302.452	98.13
302.667	57.17
302.881	75.6
303.095	83.8
303.309	75.6
303.524	-12.46
303.738	-22.7
303.952	12.12
304.166	38.74
304.381	-30.89
304.595	61.27
304.809	55.12
305.023	3.93
305.237	57.17
305.452	-51.37
305.666	112.47
305.88	24.4
306.094	30.55
306.308	102.23
306.522	40.79
306.736	-16.55
306.95	-0.17
307.164	-14.51
307.379	22.36
307.593	89.94
307.807	46.93
308.021	100.18
308.235	10.07
308.449	32.6
308.663	38.74
308.877	102.23
309.091	81.75
309.305	67.41
309.519	-16.55
309.733	38.74
309.947	14.17
310.161	116.56
310.374	24.4
310.588	34.64
310.802	20.31
311.016	87.89
311.23	5.97
311.444	61.27
311.658	8.02
311.872	102.23
312.085	51.03
312.299	130.9
312.513	55.12
312.727	-10.41
312.941	18.26
313.154	85.84
313.368	55.12
313.582	69.46
313.796	48.98
314.009	34.64
314.223	46.93
314.437	12.12
314.651	51.03
314.864	28.5
315.078	65.36
315.292	1.88
315.505	18.26
315.719	38.74
315.933	75.6
316.146	59.22
316.36	28.5
316.573	110.42
316.787	3.93
317.001	114.52
317.214	46.93
317.428	34.64
317.641	83.8
317.855	73.56
318.068	-18.6
318.282	57.17
318.495	71.51
318.709	79.7
318.922	71.51
319.136	67.41
319.349	28.5
319.563	18.26
319.776	46.93
319.99	38.74
320.203	57.17
320.417	71.51
320.63	10.07
320.843	71.51
321.057	12.12
321.27	10.07
321.483	-32.94
321.697	120.66
321.91	1.88
322.124	48.98
322.337	30.55
322.55	26.45
322.763	44.88
322.977	16.21
323.19	44.88
323.403	-18.6
323.617	40.79
323.83	-18.6
324.043	14.17
324.256	28.5
324.469	67.41
324.683	-2.22
324.896	10.07
325.109	55.12
325.322	-18.6
325.535	94.04
325.748	34.64
325.962	30.55
326.175	44.88
326.388	24.4
326.601	96.08
326.814	42.84
327.027	8.02
327.24	83.8
327.453	10.07
327.666	-49.32
327.879	38.74
328.092	89.94
328.305	79.7
328.518	-14.51
328.731	-47.27
328.944	32.6
329.157	79.7
329.37	10.07
329.583	124.76
329.796	28.5
330.009	38.74
330.222	36.69
330.435	1.88
330.648	73.56
330.861	65.36
331.073	59.22
331.286	53.08
331.499	59.22
331.712	26.45
331.925	-6.31
332.138	46.93
332.35	20.31
332.563	38.74
332.776	59.22
332.989	40.79
333.202	85.84
333.414	-18.6
333.627	46.93
333.84	-26.79
334.053	81.75
334.265	38.74
334.478	-28.84
334.691	69.46
334.903	85.84
335.116	34.64
335.329	-6.31
335.541	26.45
335.754	73.56
335.966	51.03
336.179	28.5
336.392	26.45
336.604	-73.9
336.817	14.17
337.029	30.55
337.242	42.84
337.454	18.26
337.667	-2.22
337.88	-2.22
338.092	63.32
338.305	135
338.517	59.22
338.729	79.7
338.942	63.32
339.154	1.88
339.367	30.55
339.579	73.56
339.792	-65.71
340.004	-32.94
340.217	20.31
340.429	61.27
340.641	14.17
340.854	-4.27
341.066	40.79
341.278	40.79
341.491	-16.55
341.703	91.99
341.915	42.84
342.128	28.5
342.34	34.64
342.552	1.88
342.764	65.36
342.977	1.88
343.189	75.6
343.401	24.4
343.613	-30.89
343.826	22.36
344.038	1.88
344.25	75.6
344.462	18.26
344.674	22.36
344.886	10.07
345.099	61.27
345.311	26.45
345.523	40.79
345.735	-32.94
345.947	104.28
346.159	106.32
346.371	18.26
346.583	-61.61
346.795	55.12
347.007	3.93
347.219	57.17
347.431	40.79
347.643	40.79
347.855	89.94
348.067	83.8
348.279	32.6
348.491	-12.46
348.703	67.41
348.915	28.5
349.127	5.97
349.339	85.84
349.551	3.93
349.763	55.12
349.975	-2.22
350.187	40.79
350.399	-12.46
350.61	77.65
350.822	61.27
351.034	63.32
351.246	-0.17
351.458	67.41
351.669	-12.46
351.881	155.47
352.093	61.27
352.305	-10.41
352.517	8.02
352.728	-14.51
352.94	59.22
353.152	32.6
353.363	26.45
353.575	67.41
353.787	57.17
353.999	61.27
354.21	81.75
354.422	-20.65
354.633	18.26
354.845	61.27
355.057	30.55
355.268	1.88
355.48	34.64
355.692	96.08
355.903	55.12
356.115	-30.89
356.326	-22.7
356.538	1.88
356.749	51.03
356.961	24.4
357.172	38.74
357.384	-53.42
357.595	61.27
357.807	65.36
358.018	-0.17
358.23	98.13
358.441	96.08
358.653	71.51
358.864	51.03
359.075	59.22
359.287	91.99
359.498	-0.17
359.709	57.17
359.921	40.79
360.132	55.12
360.344	22.36
360.555	-4.27
360.766	85.84
360.977	48.98
361.189	69.46
361.4	104.28
361.611	73.56
361.823	1.88
362.034	116.56
362.245	-14.51
362.456	75.6
362.667	38.74
362.879	24.4
363.09	67.41
363.301	51.03
363.512	22.36
363.723	12.12
363.935	53.08
364.146	51.03
364.357	18.26
364.568	98.13
364.779	40.79
364.99	69.46
365.201	-22.7
365.412	-16.55
365.623	-14.51
365.834	44.88
366.045	77.65
366.256	108.37
366.467	57.17
366.678	75.6
366.889	-12.46
367.1	16.21
367.311	10.07
367.522	59.22
367.733	38.74
367.944	69.46
368.155	18.26
368.366	26.45
368.577	-0.17
368.788	51.03
368.999	53.08
369.209	26.45
369.42	182.1
369.631	71.51
369.842	55.12
370.053	102.23
370.264	12.12
370.474	-14.51
370.685	16.21
370.896	83.8
371.107	32.6
371.317	96.08
371.528	57.17
371.739	14.17
371.95	57.17
372.16	59.22
372.371	94.04
372.582	44.88
372.792	48.98
373.003	12.12
373.214	42.84
373.424	22.36
373.635	38.74
373.846	32.6
374.056	-28.84
374.267	100.18
374.477	100.18
374.688	51.03
374.898	100.18
375.109	-4.27
375.319	51.03
375.53	38.74
375.74	-2.22
375.951	20.31
376.161	110.42
376.372	48.98
376.582	46.93
376.793	42.84
377.003	-22.7
377.214	44.88
377.424	-0.17
377.635	12.12
377.845	24.4
378.055	87.89
378.266	-2.22
378.476	116.56
378.686	55.12
378.897	3.93
379.107	44.88
379.317	67.41
379.528	34.64
379.738	-20.65
379.948	-4.27
380.158	34.64
380.369	53.08
380.579	36.69
380.789	59.22
380.999	63.32
381.21	12.12
381.42	89.94
381.63	-18.6
381.84	81.75
382.05	81.75
382.261	40.79
382.471	22.36
382.681	-82.09
382.891	59.22
383.101	137.04
383.311	-22.7
383.521	44.88
383.731	59.22
383.941	65.36
384.151	22.36
384.361	53.08
384.571	42.84
384.781	30.55
384.991	114.52
385.201	122.71
385.411	8.02
385.621	153.43
385.831	3.93
386.041	91.99
386.251	20.31
386.461	85.84
386.671	48.98
386.881	104.28
387.091	3.93
387.301	79.7
387.511	55.12
387.72	132.95
387.93	91.99
388.14	36.69
388.35	-0.17
388.56	22.36
388.769	65.36
388.979	36.69
389.189	79.7
389.399	18.26
389.609	36.69
389.818	122.71
390.028	67.41
390.238	36.69
390.447	85.84
390.657	67.41
390.867	53.08
391.076	-8.36
391.286	55.12
391.496	51.03
391.705	104.28
391.915	38.74
392.125	73.56
392.334	57.17
392.544	65.36
392.753	112.47
392.963	69.46
393.172	71.51
393.382	53.08
393.591	124.76
393.801	-4.27
394.01	53.08
394.22	98.13
394.429	81.75
394.639	32.6
394.848	63.32
395.058	79.7
395.267	51.03
395.477	124.76
395.686	69.46
395.895	57.17
396.105	42.84
396.314	102.23
396.524	57.17
396.733	36.69
396.942	128.85
397.152	83.8
397.361	57.17
397.57	46.93
397.78	-14.51
397.989	67.41
398.198	167.76
398.407	116.56
398.617	114.52
398.826	65.36
399.035	85.84
399.244	94.04
399.453	77.65
399.663	81.75
399.872	126.8
400.081	53.08
400.29	106.32
400.499	104.28
400.708	48.98
400.917	71.51
401.127	96.08
401.336	85.84
401.545	161.62
401.754	79.7
401.963	96.08
402.172	106.32
402.381	71.51
402.59	65.36
402.799	67.41
403.008	98.13
403.217	143.19
403.426	46.93
403.635	87.89
403.844	151.38
404.053	110.42
404.262	89.94
404.471	145.24
404.68	96.08
404.888	75.6
405.097	122.71
405.306	120.66
405.515	147.28
405.724	167.76
405.933	124.76
406.142	255.83
406.35	149.33
406.559	173.91
406.768	114.52
406.977	130.9
407.185	100.18
407.394	100.18
407.603	132.95
407.812	149.33
408.02	147.28
408.229	155.47
408.438	118.61
408.646	120.66
408.855	139.09
409.064	182.1
409.272	167.76
409.481	208.72
409.69	196.43
409.898	175.95
410.107	196.43
410.315	247.63
410.524	245.59
410.733	151.38
410.941	245.59
411.15	241.49
411.358	200.53
411.567	309.07
411.775	212.82
411.984	196.43
412.192	315.22
412.401	284.5
412.609	223.06
412.818	358.22
413.026	319.31
413.234	266.07
413.443	225.11
413.651	233.3
413.86	329.55
414.068	354.13
414.276	397.14
414.485	333.65
414.693	384.85
414.901	436.05
415.11	304.98
415.318	417.61
415.526	395.09
415.734	390.99
415.943	388.94
416.151	427.85
416.359	450.38
416.567	444.24
416.776	409.42
416.984	458.57
417.192	509.77
417.4	477.01
417.608	517.97
417.817	546.64
418.025	517.97
418.233	603.98
418.441	583.5
418.649	503.63
418.857	622.41
419.065	618.32
419.273	628.56
419.481	677.71
419.689	687.95
419.897	714.57
420.105	749.39
420.313	765.77
420.521	780.11
420.729	814.92
420.937	798.54
421.145	776.01
421.353	767.82
421.561	997.19
421.769	778.06
421.977	931.66
422.185	900.94
422.393	917.32
422.601	1099.59
422.809	1081.16
423.017	997.19
423.224	1060.68
423.432	1083.2
423.64	1134.4
423.848	1095.49
424.056	1109.83
424.263	1316.67
424.471	1183.56
424.679	1228.61
424.887	1359.68
425.094	1345.34
425.302	1376.06
425.51	1470.27
425.718	1414.98
425.925	1537.85
426.133	1435.46
426.341	1670.97
426.548	1668.92
426.756	1810.23
426.964	1691.45
427.171	1707.84
427.379	1742.65
427.586	1767.23
427.794	1820.47
428.001	1972.02
428.209	1955.64
428.417	2043.7
428.624	2105.14
428.832	2219.83
429.039	2109.24
429.247	2174.77
429.454	2273.07
429.662	2475.82
429.869	2348.85
430.076	2539.31
430.284	2387.76
430.491	2617.13
430.699	2635.57
430.906	2598.7
431.114	2654
431.321	2758.44
431.528	2787.11
431.736	3057.45
431.943	3092.26
432.15	3016.49
432.358	3198.76
432.565	3376.93
432.772	3376.93
432.979	3430.18
433.187	3469.09
433.394	3548.96
433.601	3598.11
433.808	3858.2
434.016	3680.03
434.223	3860.25
434.43	3964.7
434.637	4034.33
434.844	4323.09
435.052	4456.21
435.259	4245.27
435.466	4374.29
435.673	4314.9
435.88	4585.23
436.087	4839.18
436.294	4806.41
436.501	4656.91
436.708	4792.08
436.915	4894.47
437.122	5275.4
437.329	5095.18
437.537	5302.02
437.743	5549.82
437.95	5404.42
438.157	5754.62
438.364	5904.12
438.571	5920.51
438.778	5897.98
438.985	6479.6
439.192	6051.58
439.399	6334.2
439.606	6205.17
439.813	6594.29
440.02	6899.44
440.227	6799.09
440.433	6702.83
440.64	7016.17
440.847	6858.48
441.054	7091.95
441.261	7593.7
441.467	7534.31
441.674	7614.18
441.881	8007.39
442.088	7831.26
442.294	7720.67
442.501	7919.32
442.708	8214.23
442.914	8394.45
443.121	8812.24
443.328	8666.83
443.534	9279.18
443.741	8998.6
443.948	8969.93
444.154	9686.72
444.361	9324.23
444.568	9512.64
444.774	9582.28
444.981	9512.64
445.187	9938.62
445.394	10106.56
445.6	10211
445.807	11198.12
446.013	10622.64
446.22	10694.32
446.426	11105.96
446.633	11337.38
446.839	11517.61
447.046	11122.35
447.252	11675.3
447.459	11718.31
447.665	11765.41
447.871	12043.93
448.078	12813.97
448.284	12144.28
448.491	12629.65
448.697	12926.61
448.903	13211.28
449.11	13043.34
449.316	13172.36
449.522	13325.96
449.728	13547.14
449.935	13745.8
450.141	13708.93
450.347	14024.32
450.553	13618.82
450.76	13723.27
450.966	14333.56
451.172	14184.06
451.378	14403.19
451.584	13962.88
451.791	14329.47
451.997	14169.73
452.203	14655.09
452.409	14612.09
452.615	14306.94
452.821	13823.62
453.027	13661.83
453.233	14614.13
453.44	13741.7
453.646	13969.02
453.852	14091.9
454.058	14356.09
454.264	14059.13
454.47	14206.59
454.676	13942.4
454.882	14413.43
455.088	13205.13
455.294	13260.43
455.5	13618.82
455.705	13637.25
455.911	12951.18
456.117	12859.03
456.323	12703.38
456.529	11800.23
456.735	12512.92
456.941	12000.93
457.147	11939.49
457.352	11472.55
457.558	11593.38
457.764	11122.35
457.97	11241.13
458.176	10923.69
458.381	11126.44
458.587	10512.05
458.793	10452.66
458.999	9977.53
459.204	10497.72
459.41	10131.13
459.616	9653.95
459.821	9512.64
460.027	9656
460.233	9371.33
460.438	8826.57
460.644	9033.42
460.85	8541.91
461.055	8455.89
461.261	8296.15
461.466	7812.83
461.672	7612.13
461.878	8066.78
462.083	7610.08
462.289	7515.87
462.494	7354.09
462.7	7024.36
462.905	6934.25
463.111	7182.06
463.316	7112.42
463.522	7089.9
463.727	6997.74
463.932	6893.29
464.138	7034.6
464.343	6883.05
464.549	6706.93
464.754	7018.22
464.959	6956.78
465.165	6940.4
465.37	6659.82
465.575	6291.19
465.781	6745.84
465.986	6637.3
466.191	6498.03
466.397	6401.78
466.602	6172.41
466.807	6190.84
467.012	6610.67
467.218	6336.24
467.423	6346.48
467.628	6270.71
467.833	6469.36
468.038	6227.7
468.244	6047.48
468.449	6178.55
468.654	6246.13
468.859	6047.48
469.064	6051.58
469.269	5758.72
469.474	5773.05
469.679	6098.68
469.885	5637.89
470.09	5832.44
470.295	5713.66
470.5	5607.17
470.705	5793.53
470.91	5515.01
471.115	5609.22
471.32	5525.25
471.525	5515.01
471.73	5533.44
471.935	5402.37
472.139	5236.49
472.344	5428.99
472.549	5287.68
472.754	5127.94
472.959	5209.86
473.164	4955.91
473.369	4951.82
473.574	5074.7
473.778	5107.46
473.983	5046.02
474.188	5048.07
474.393	4661.01
474.598	4755.21
474.802	4794.12
475.007	4781.84
475.212	4812.56
475.417	4476.69
475.621	4620.05
475.826	4560.66
476.031	4368.15
476.235	4335.38
476.44	4597.52
476.645	4243.22
476.849	4542.22
477.054	4202.26
477.259	4323.09
477.463	4339.48
477.668	4245.27
477.872	4275.99
478.077	4054.81
478.282	3946.27
478.486	4036.38
478.691	3989.27
478.895	4085.53
479.1	4032.28
479.304	4019.99
479.509	3702.56
479.713	3880.73
479.918	3876.63
480.122	3786.52
480.326	3794.72
480.531	3899.16
480.735	3872.54
480.94	3745.56
481.144	3933.98
481.348	3843.87
481.553	3798.81
481.757	3704.6
481.961	3714.84
482.166	3761.95
482.37	3751.71
482.574	3661.6
482.778	3663.65
482.983	3854.11
483.187	3673.89
483.391	3737.37
483.595	3770.14
483.8	3694.36
484.004	3698.46
484.208	3702.56
484.412	3712.8
484.616	3600.16
484.821	3831.58
485.025	3661.6
485.229	3802.91
485.433	3673.89
485.637	3890.97
485.841	3796.76
486.045	3671.84
486.249	3739.42
486.453	3829.53
486.657	3680.03
486.861	3663.65
487.065	3720.99
487.269	3655.45
487.473	3768.09
487.677	3788.57
487.881	3843.87
488.085	3768.09
488.289	3655.45
488.493	3823.39
488.697	3847.96
488.901	3512.1
489.105	3696.41
489.309	3690.27
489.512	3831.58
489.716	3774.24
489.92	3774.24
490.124	3835.67
490.328	3755.8
490.531	3727.13
490.735	3817.24
490.939	3786.52
491.143	3766.04
491.346	3802.91
491.55	3888.92
491.754	3792.67
491.958	3876.63
492.161	3938.07
492.365	3946.27
492.569	4099.86
492.772	4071.19
492.976	4071.19
493.18	3958.55
493.383	4128.53
493.587	4089.62
493.79	4194.07
493.994	4089.62
494.197	4200.21
494.401	4321.04
494.605	4134.68
494.808	4249.36
495.012	4327.19
495.215	4310.8
495.419	4382.48
495.622	4337.43
495.825	4349.71
496.029	4331.28
496.232	4519.7
496.436	4353.81
496.639	4474.64
496.843	4529.94
497.046	4554.51
497.249	4611.85
497.453	4654.86
497.656	4730.64
497.859	4812.56
498.063	4863.76
498.266	5017.35
498.469	4857.61
498.673	4898.57
498.876	5117.7
499.079	5000.97
499.282	4998.92
499.485	5129.99
499.689	5304.07
499.892	5205.77
500.095	5369.6
500.298	5486.34
500.501	5314.31
500.705	5474.05
500.908	5623.55
501.111	5555.97
501.314	5545.73
501.517	5723.9
501.72	5641.98
501.923	5854.97
502.126	5957.37
502.329	6033.15
502.532	6088.44
502.735	6014.71
502.938	6162.17
503.141	6311.67
503.344	6377.2
503.547	6426.36
503.75	6481.65
503.953	6512.37
504.156	6573.81
504.359	6602.48
504.562	6688.5
504.765	6782.7
504.968	6883.05
505.17	6819.57
505.373	6938.35
505.576	7137
505.779	6983.4
505.982	7063.27
506.185	7495.39
506.387	7497.44
506.59	7270.12
506.793	7589.6
506.996	7683.81
507.198	7735.01
507.401	7608.03
507.604	7851.74
507.807	8021.72
508.009	8187.61
508.212	8228.57
508.415	8079.07
508.617	8287.96
508.82	8257.24
509.022	8214.23
509.225	8439.51
509.428	8656.59
509.63	8607.44
509.833	8652.5
510.035	8828.62
510.238	8855.25
510.44	8937.16
510.643	9141.96
510.845	9168.59
511.048	9211.59
511.25	9324.23
511.453	9580.23
511.655	9653.95
511.858	9574.08
512.06	9645.76
512.262	9817.79
512.465	9823.94
512.667	10043.07
512.87	10071.74
513.072	10122.94
513.274	10192.57
513.477	10348.22
513.679	10411.7
513.881	10620.6
514.084	10614.45
514.286	10751.67
514.488	10778.29
514.69	11093.68
514.893	10931.89
515.095	11126.44
515.297	11396.78
515.499	11255.47
515.701	11445.93
515.904	11679.4
516.106	11716.26
516.308	11857.57
516.51	11988.64
516.712	11919.01
516.914	11939.49
517.116	12093.08
517.318	12203.68
517.52	12402.33
517.722	12365.46
517.925	12521.11
518.127	12766.87
518.329	12789.39
518.531	12947.09
518.733	13147.79
518.935	13213.32
519.136	13174.41
519.338	13416.07
519.54	13321.87
519.742	13690.5
519.944	13809.28
520.146	13919.87
520.348	13973.12
520.55	14210.68
520.752	14096
520.954	14362.23
521.155	14417.53
521.357	14458.49
521.559	14552.7
521.761	14827.12
521.963	14855.79
522.164	14927.47
522.366	14720.63
522.568	15146.61
522.77	15257.2
522.971	15531.62
523.173	15343.21
523.375	15658.6
523.576	15586.92
523.778	15466.09
523.98	15916.64
524.181	16051.81
524.383	15832.68
524.584	16049.76
524.786	16103.01
524.988	16186.97
525.189	16326.24
525.391	16387.68
525.592	16506.46
525.794	16741.97
525.995	16592.47
526.197	16715.35
526.398	16821.84
526.6	16909.91
526.801	16918.1
527.003	16803.41
527.204	17143.38
527.406	17083.98
527.607	17022.55
527.808	17442.38
528.01	17192.53
528.211	17421.9
528.412	17763.91
528.614	17854.02
528.815	17681.99
529.016	17849.92
529.218	17741.38
529.419	17761.86
529.62	17831.49
529.822	17806.92
530.023	17739.33
530.224	17776.2
530.425	17866.31
530.626	17937.99
530.828	17819.21
531.029	18189.89
531.23	17899.08
531.431	18118.21
531.632	18198.08
531.833	18288.19
532.035	18220.61
532.236	18204.22
532.437	18327.1
532.638	18349.63
532.839	17978.95
533.04	18603.58
533.241	18247.23
533.442	18710.07
533.643	18409.02
533.844	18161.22
534.045	18552.38
534.246	18288.19
534.447	18642.49
534.648	18433.6
534.849	18404.92
535.05	18257.47
535.251	18390.59
535.451	18636.34
535.652	18482.75
535.853	18597.43
536.054	18667.06
536.255	18421.31
536.456	18568.76
536.657	18810.42
536.857	18427.45
537.058	18431.55
537.259	18691.64
537.46	18640.44
537.66	18466.36
537.861	18855.48
538.062	18509.37
538.263	18712.12
538.463	18538.04
538.664	18443.84
538.865	18617.91
539.065	18511.42
539.266	18437.69
539.466	18447.93
539.667	18519.61
539.868	18796.09
540.068	18380.35
540.269	18763.32
540.469	18613.82
540.67	18703.93
540.87	18753.08
541.071	18757.18
541.271	18572.86
541.472	18611.77
541.672	18443.84
541.873	18667.06
542.073	18349.63
542.274	18779.7
542.474	18628.15
542.675	18456.12
542.875	18738.74
543.075	18409.02
543.276	18296.38
543.476	18595.39
543.676	18443.84
543.877	18691.64
544.077	18323.01
544.277	18503.23
544.478	18589.24
544.678	18667.06
544.878	18591.29
545.078	18640.44
545.279	18331.2
545.479	18374.2
545.679	18400.83
545.879	18296.38
546.079	18417.21
546.28	18378.3
546.48	18347.58
546.68	18785.85
546.88	18650.68
547.08	18515.51
547.28	18413.12
547.48	18288.19
547.68	18570.81
547.88	18255.42
548.081	18626.11
548.281	18417.21
548.481	18320.96
548.681	18581.05
548.881	18261.57
549.081	18089.54
549.28	18439.74
549.48	18660.92
549.68	18431.55
549.88	18732.6
550.08	18323.01
550.28	18675.26
550.48	18517.56
550.68	18458.17
550.88	18318.91
551.08	18267.71
551.279	18490.94
551.479	18482.75
551.679	18515.51
551.879	18482.75
552.079	18419.26
552.278	18355.77
552.478	18425.4
552.678	18153.02
552.878	18507.32
553.077	18130.5
553.277	18155.07
553.477	18628.15
553.676	18269.76
553.876	18040.39
554.076	18347.58
554.275	18193.98
554.475	18366.01
554.674	18310.72
554.874	18468.41
555.074	18198.08
555.273	18359.87
555.473	18216.51
555.672	18259.52
555.872	18402.88
556.071	18097.73
556.271	18419.26
556.47	18034.24
556.67	17923.65
556.869	17940.04
557.068	17804.87
557.268	17725
557.467	17946.18
557.667	17915.46
557.866	17901.12
558.065	17808.97
558.265	17849.92
558.464	17731.14
558.663	18136.64
558.863	17585.74
559.062	17974.85
559.261	17407.56
559.461	17847.88
559.66	17546.83
559.859	17716.81
560.058	17380.94
560.258	17466.95
560.457	17649.22
560.656	17747.53
560.855	17587.78
561.054	17614.41
561.253	17208.91
561.453	17501.77
561.652	17528.39
561.851	17622.6
562.05	17520.2
562.249	17092.18
562.448	17376.84
562.647	17270.35
562.846	17348.17
563.045	17346.12
563.244	17010.26
563.443	17352.27
563.642	16744.02
563.841	17333.84
564.04	17032.79
564.239	16957.01
564.438	16993.87
564.637	17049.17
564.836	16846.42
565.035	16948.82
565.234	17129.04
565.432	16559.7
565.631	16627.29
565.83	16905.81
566.029	16678.49
566.228	16838.23
566.427	16707.16
566.625	16664.15
566.824	16447.07
567.023	16545.37
567.222	16359
567.42	16627.29
567.619	16496.22
567.818	16412.25
568.016	16189.02
568.215	16551.51
568.414	16426.59
568.612	16191.07
568.811	16113.25
569.01	16195.17
569.208	15849.06
569.407	16103.01
569.605	15996.51
569.804	16029.28
570.002	15781.48
570.201	16029.28
570.4	15758.95
570.598	15695.46
570.797	15801.96
570.995	15748.71
571.193	15683.17
571.392	15746.66
571.59	15674.98
571.789	15459.95
571.987	15365.74
572.186	15601.26
572.384	15275.63
572.582	15498.86
572.781	15586.92
572.979	15324.78
573.177	15244.91
573.376	15224.43
573.574	15111.79
573.772	15273.58
573.971	15183.47
574.169	14808.69
574.367	14734.96
574.565	14851.7
574.763	14964.34
574.962	14841.46
575.16	14681.72
575.358	14741.11
575.556	14515.83
575.754	14861.94
575.952	14659.19
576.151	14534.26
576.349	14595.7
576.547	14593.65
576.745	14544.5
576.943	14456.44
577.141	14405.24
577.339	14327.42
577.537	14319.23
577.735	14612.09
577.933	14268.03
578.131	14362.23
578.329	14255.74
578.527	13942.4
578.725	14106.24
578.923	14065.28
579.121	14014.08
579.319	14153.34
579.516	13987.46
579.714	14118.53
579.912	13930.11
580.11	13938.3
580.308	13866.63
580.506	13643.4
580.704	13594.25
580.901	13897.35
581.099	13878.91
581.297	13715.08
581.495	13471.37
581.692	13655.68
581.89	13680.26
582.088	13448.84
582.285	13411.98
582.483	13586.05
582.681	13356.68
582.878	13344.39
583.076	13325.96
583.274	13457.03
583.471	13108.88
583.669	13323.91
583.866	13244.04
584.064	13307.53
584.262	13039.25
584.459	13117.07
584.657	12979.86
584.854	13092.49
585.052	12873.36
585.249	12922.51
585.447	12920.46
585.644	12981.9
585.841	12967.57
586.039	12744.34
586.236	12947.09
586.434	12609.17
586.631	12719.76
586.828	12682.9
587.026	12834.45
587.223	12574.36
587.42	12557.97
587.618	12670.61
587.815	12273.31
588.012	12422.81
588.21	12332.7
588.407	12400.28
588.604	12275.35
588.801	12148.38
588.999	12187.29
589.196	11951.77
589.393	12195.48
589.59	12144.28
589.787	12056.22
589.984	11921.06
590.182	11861.66
590.379	12136.09
590.576	11806.37
590.773	12023.45
590.97	11921.06
591.167	11994.78
591.364	11630.24
591.561	11785.89
591.758	11607.72
591.955	11716.26
592.152	11572.9
592.349	11722.4
592.546	11601.57
592.743	11544.23
592.94	11550.37
593.137	11488.93
593.334	11574.95
593.531	11347.62
593.727	11482.79
593.924	11382.44
594.121	11351.72
594.318	11261.61
594.515	11140.78
594.712	11146.92
594.908	11290.28
595.105	11429.54
595.302	11249.32
595.499	11009.71
595.696	11189.93
595.892	11126.44
596.089	11116.2
596.286	11034.28
596.482	11032.24
596.679	10905.26
596.876	10768.05
597.072	10962.61
597.269	11171.5
597.466	10802.86
597.662	10890.93
597.859	10923.69
598.055	10802.86
598.252	10587.83
598.448	10780.34
598.645	10483.38
598.841	10522.29
599.038	10669.75
599.234	10526.39
599.431	10516.15
599.627	10340.02
599.824	10497.72
600.02	10368.7
600.217	10311.35
600.413	10270.39
600.609	10245.82
600.806	10180.28
601.002	10194.62
601.198	10309.3
601.395	10297.02
601.591	10124.99
601.787	10225.34
601.984	10059.45
602.18	10161.85
602.376	9864.89
602.572	10004.16
602.769	9889.47
602.965	10002.11
603.161	9946.81
603.357	9969.34
603.553	9758.4
603.75	9758.4
603.946	9838.27
604.142	9799.36
604.338	9643.71
604.534	9709.25
604.73	9825.98
604.926	9578.18
605.122	9727.68
605.318	9318.09
605.514	9529.03
605.71	9596.61
605.906	9393.86
606.102	9496.26
606.298	9584.32
606.494	9387.72
606.69	9492.16
606.886	9410.25
607.082	9221.83
607.278	9160.39
607.474	9041.61
607.67	9242.31
607.866	9103.05
608.062	9256.65
608.257	9285.32
608.453	9072.33
608.649	9404.1
608.845	8963.79
609.041	8994.51
609.236	9172.68
609.432	8896.21
609.628	9049.8
609.824	8746.7
610.019	9092.81
610.215	9035.47
610.411	9002.7
610.606	8976.08
610.802	8890.06
610.998	8812.24
611.193	8890.06
611.389	8785.62
611.584	8701.65
611.78	8951.5
611.976	8834.77
612.171	8924.88
612.367	8840.91
612.562	8681.17
612.758	8597.2
612.953	8601.3
613.149	8980.17
613.344	8715.98
613.539	8818.38
613.735	8613.59
613.93	8728.27
614.126	8627.92
614.321	8738.51
614.517	8705.74
614.712	8554.19
614.907	8525.52
615.103	8367.83
615.298	8558.29
615.493	8595.15
615.688	8423.12
615.884	8763.09
616.079	8371.93
616.274	8525.52
616.47	8312.53
616.665	8343.25
616.86	8398.55
617.055	8478.42
617.25	8343.25
617.445	8222.42
617.641	8335.06
617.836	8326.87
618.031	8283.86
618.226	8515.28
618.421	8122.07
618.616	8269.53
618.811	8001.24
619.006	8314.58
619.201	8310.49
619.396	8136.41
619.591	7974.62
619.786	8029.91
619.981	7995.1
620.176	8074.97
620.371	7861.98
620.566	8054.49
620.761	7761.63
620.956	7907.04
621.151	7802.59
621.346	7694.05
621.541	7685.86
621.735	7712.48
621.93	7755.49
622.125	7593.7
622.32	7487.2
622.515	7483.11
622.709	7605.99
622.904	7599.84
623.099	7571.17
623.294	7558.88
623.488	7411.43
623.683	7384.8
623.878	7126.76
624.072	7298.79
624.267	7251.69
624.462	7151.34
624.656	7315.17
624.851	7311.08
625.046	7128.81
625.24	6987.5
625.435	6846.19
625.629	6946.54
625.824	6936.3
626.018	6819.57
626.213	6856.43
626.407	6868.72
626.602	6715.12
626.796	6813.42
626.991	6706.93
627.185	6465.27
627.38	6682.35
627.574	6657.78
627.768	6590.19
627.963	6518.51
628.157	6328.05
628.352	6571.76
628.546	6371.06
628.74	6463.22
628.935	6219.51
629.129	6412.02
629.323	6139.64
629.517	6246.13
629.712	6270.71
629.906	6199.03
630.1	5949.18
630.294	6227.7
630.489	6311.67
630.683	6033.15
630.877	6098.68
631.071	6027
631.265	6024.95
631.459	5816.06
631.653	5789.44
631.848	5787.39
632.042	5764.86
632.236	5828.35
632.43	5666.56
632.624	5676.8
632.818	5807.87
633.012	5627.65
633.206	5740.29
633.4	5736.19
633.594	5580.54
633.788	5588.74
633.982	5480.19
634.176	5381.89
634.369	5342.98
634.563	5332.74
634.757	5402.37
634.951	5404.42
635.145	5469.95
635.339	5459.71
635.533	5347.08
635.726	5177.09
635.92	5213.96
636.114	5265.16
636.308	5119.75
636.501	5070.6
636.695	5201.67
636.889	5066.5
637.083	5164.81
637.276	5039.88
637.47	4845.32
637.664	5086.98
637.857	5054.22
638.051	4984.59
638.244	4867.85
638.438	4855.56
638.632	4761.36
638.825	4826.89
639.019	4849.42
639.212	4816.65
639.406	4804.36
639.599	4841.23
639.793	4759.31
639.986	4624.14
640.18	4654.86
640.373	4810.51
640.567	4470.55
640.76	4669.2
640.954	4560.66
641.147	4454.16
641.34	4583.18
641.534	4673.29
641.727	4415.25
641.92	4519.7
642.114	4343.57
642.307	4448.02
642.5	4331.28
642.694	4402.96
642.887	4331.28
643.08	4296.47
643.273	4214.55
643.467	4216.6
643.66	4224.79
643.853	4241.17
644.046	4220.69
644.239	4067.1
644.432	4046.62
644.626	4114.2
644.819	4161.3
645.012	4028.18
645.205	3983.13
645.398	4136.73
645.591	4040.47
645.784	3991.32
645.977	3950.36
646.17	3852.06
646.363	4005.66
646.556	3876.63
646.749	3817.24
646.942	3907.35
647.135	3878.68
647.328	3915.55
647.521	3876.63
647.714	3706.65
647.907	3630.88
648.099	3718.94
648.292	3690.27
648.485	3764
648.678	3634.97
648.871	3616.54
649.064	3747.61
649.256	3708.7
649.449	3583.77
649.642	3589.92
649.835	3471.14
650.027	3491.62
650.22	3493.66
650.413	3473.18
650.605	3536.67
650.798	3526.43
650.991	3354.4
651.183	3444.51
651.376	3452.7
651.568	3395.36
651.761	3415.84
651.954	3348.26
652.146	3272.48
652.339	3295.01
652.531	3383.07
652.724	3387.17
652.916	3125.03
653.109	3192.61
653.301	3391.27
653.494	3301.15
653.686	3280.68
653.879	3372.83
654.071	3303.2
654.263	3172.13
654.456	3133.22
654.648	3139.37
654.84	3215.14
655.033	3075.88
655.225	3143.46
655.417	2987.82
655.61	3039.01
655.802	3131.17
655.994	3102.5
656.186	2946.86
656.379	2957.1
656.571	2981.67
656.763	2848.55
656.955	3030.82
657.148	2891.56
657.34	2920.23
657.532	2854.7
657.724	2907.94
657.916	2834.22
658.108	2903.85
658.3	2854.7
658.492	2846.51
658.684	2783.02
658.876	2807.59
659.068	2793.26
659.26	2664.24
659.452	2670.38
659.644	2813.74
659.836	2854.7
660.028	2752.3
660.22	2613.04
660.412	2627.37
660.604	2615.09
660.796	2678.57
660.988	2721.58
661.18	2584.37
661.372	2590.51
661.563	2713.39
661.755	2602.8
661.947	2490.16
662.139	2543.41
662.331	2537.26
662.522	2537.26
662.714	2623.28
662.906	2520.88
663.097	2512.69
663.289	2441.01
663.481	2453.3
663.673	2508.59
663.864	2467.63
664.056	2473.78
664.247	2436.91
664.439	2447.15
664.631	2414.38
664.822	2346.8
665.014	2375.47
665.205	2443.06
665.397	2465.58
665.588	2348.85
665.78	2373.43
665.971	2234.16
666.163	2354.99
666.354	2248.5
666.546	2225.97
666.737	2217.78
666.929	2291.51
667.12	2131.76
667.311	2209.59
667.503	2209.59
667.694	2328.37
667.885	2281.27
668.077	2201.4
668.268	2195.25
668.459	2225.97
668.651	2086.71
668.842	2170.68
669.033	2201.4
669.224	2283.31
669.416	2137.91
669.607	2172.72
669.798	2123.57
669.989	2182.96
670.18	2111.29
670.371	2131.76
670.563	2090.81
670.754	2238.26
670.945	1996.6
671.136	2099
671.327	2012.98
671.518	1982.26
671.709	2035.51
671.9	2066.23
672.091	2004.79
672.282	2117.43
672.473	1972.02
672.664	2074.42
672.855	1920.82
673.046	1967.93
673.237	2043.7
673.428	2041.65
673.619	1990.45
673.809	1941.3
674	1933.11
674.191	1969.98
674.382	1877.82
674.573	1898.3
674.764	1910.58
674.954	1953.59
675.145	1812.28
675.336	1814.33
675.527	1910.58
675.717	1941.3
675.908	2029.37
676.099	1816.38
676.289	1865.53
676.48	1922.87
676.671	1951.54
676.861	1812.28
677.052	1828.67
677.243	1781.56
677.433	1830.71
677.624	1918.78
677.814	1802.04
678.005	1914.68
678.195	1843
678.386	1894.2
678.576	1718.08
678.767	1752.89
678.957	1795.9
679.148	1840.95
679.338	1865.53
679.529	1849.15
679.719	1832.76
679.909	1709.88
680.1	1734.46
680.29	1744.7
680.481	1799.99
680.671	1785.66
680.861	1689.4
681.052	1730.36
681.242	1732.41
681.432	1828.67
681.622	1664.83
681.813	1711.93
682.003	1748.79
682.193	1666.88
682.383	1658.68
682.573	1838.91
682.764	1791.8
682.954	1730.36
683.144	1732.41
683.334	1736.51
683.524	1726.27
683.714	1742.65
683.904	1623.87
684.094	1683.26
684.284	1771.32
684.474	1673.02
684.664	1697.6
684.854	1695.55
685.044	1580.86
685.234	1625.92
685.424	1556.29
685.614	1670.97
685.804	1705.79
685.994	1646.4
686.184	1587.01
686.374	1609.53
686.564	1605.44
686.753	1640.25
686.943	1525.57
687.133	1615.68
687.323	1615.68
687.513	1589.05
687.702	1562.43
687.892	1562.43
688.082	1509.18
688.272	1591.1
688.461	1529.66
688.651	1564.48
688.841	1525.57
689.03	1468.22
689.22	1572.67
689.41	1593.15
689.599	1570.62
689.789	1447.74
689.979	1439.55
690.168	1500.99
690.358	1443.65
690.547	1488.7
690.737	1505.09
690.926	1394.5
691.116	1472.32
691.305	1408.83
691.495	1527.61
691.684	1468.22
691.874	1457.98
692.063	1441.6
692.252	1455.94
692.442	1513.28
692.631	1357.63
692.82	1410.88
693.01	1494.85
693.199	1421.12
693.388	1365.82
693.578	1378.11
693.767	1374.02
693.956	1326.91
694.146	1392.45
694.335	1400.64
694.524	1296.19
694.713	1386.3
694.902	1466.17
695.092	1408.83
695.281	1404.74
695.47	1412.93
695.659	1347.39
695.848	1353.54
696.037	1267.52
696.226	1259.33
696.415	1337.15
696.604	1333.06
696.793	1398.59
696.982	1351.49
697.171	1298.24
697.36	1314.63
697.549	1294.15
697.738	1341.25
697.927	1259.33
698.116	1247.04
698.305	1249.09
698.494	1328.96
698.683	1318.72
698.872	1312.58
699.061	1253.19
699.25	1326.91
699.438	1306.43
699.627	1298.24
699.816	1283.91
700.005	1296.19
700.193	1263.43
700.382	1296.19
700.571	1300.29
700.76	1347.39
700.948	1412.93
701.137	1382.21
701.326	1298.24
701.514	1320.77
701.703	1447.74
701.892	1283.91
702.08	1306.43
702.269	1304.39
702.457	1234.75
702.646	1230.66
702.834	1292.1
703.023	1302.34
703.212	1378.11
703.4	1337.15
703.589	1242.95
703.777	1419.07
703.965	1257.28
704.154	1267.52
704.342	1257.28
704.531	1324.87
704.719	1216.32
704.907	1288
705.096	1279.81
705.284	1257.28
705.472	1384.26
705.661	1247.04
705.849	1298.24
706.037	1218.37
706.226	1255.23
706.414	1371.97
706.602	1300.29
706.79	1283.91
706.979	1318.72
707.167	1277.76
707.355	1290.05
707.543	1214.27
707.731	1337.15
707.919	1218.37
708.107	1189.7
708.296	1339.2
708.484	1359.68
708.672	1308.48
708.86	1269.57
709.048	1275.71
709.236	1212.23
709.424	1306.43
709.612	1302.34
709.8	1314.63
709.988	1199.94
710.176	1263.43
710.364	1292.1
710.551	1263.43
710.739	1296.19
710.927	1320.77
711.115	1318.72
711.303	1312.58
711.491	1277.76
711.679	1331.01
711.866	1324.87
712.054	1288
712.242	1341.25
712.43	1306.43
712.617	1337.15
712.805	1308.48
712.993	1267.52
713.181	1312.58
713.368	1240.9
713.556	1304.39
713.744	1216.32
713.931	1298.24
714.119	1288
714.306	1263.43
714.494	1281.86
714.682	1333.06
714.869	1132.36
715.057	1392.45
715.244	1212.23
715.432	1316.67
715.619	1269.57
715.807	1367.87
715.994	1341.25
716.182	1326.91
716.369	1341.25
716.556	1238.85
716.744	1306.43
716.931	1320.77
717.119	1232.71
717.306	1339.2
717.493	1281.86
717.681	1275.71
717.868	1343.3
718.055	1410.88
718.242	1306.43
718.43	1222.47
718.617	1300.29
718.804	1355.58
718.991	1271.62
719.179	1265.47
719.366	1343.3
719.553	1242.95
719.74	1324.87
719.927	1304.39
720.114	1234.75
720.301	1318.72
720.488	1267.52
720.676	1255.23
720.863	1376.06
721.05	1228.61
721.237	1290.05
721.424	1269.57
721.611	1242.95
721.798	1234.75
721.985	1183.56
722.172	1345.34
722.358	1292.1
722.545	1230.66
722.732	1304.39
722.919	1365.82
723.106	1285.95
723.293	1195.84
723.48	1267.52
723.667	1263.43
723.853	1312.58
724.04	1292.1
724.227	1277.76
724.414	1240.9
724.6	1279.81
724.787	1339.2
724.974	1263.43
725.161	1267.52
725.347	1345.34
725.534	1251.14
725.72	1306.43
725.907	1288
726.094	1277.76
726.28	1242.95
726.467	1275.71
726.653	1283.91
726.84	1320.77
727.027	1257.28
727.213	1351.49
727.4	1232.71
727.586	1226.56
727.773	1333.06
727.959	1249.09
728.145	1312.58
728.332	1290.05
728.518	1288
728.705	1201.99
728.891	1208.13
729.077	1247.04
729.264	1302.34
729.45	1222.47
729.636	1279.81
729.823	1210.18
730.009	1294.15
730.195	1236.8
730.382	1273.67
730.568	1206.08
730.754	1236.8
730.94	1302.34
731.126	1238.85
731.313	1269.57
731.499	1242.95
731.685	1296.19
731.871	1199.94
732.057	1232.71
732.243	1271.62
732.429	1220.42
732.615	1255.23
732.801	1265.47
732.987	1165.12
733.173	1185.6
733.359	1251.14
733.545	1288
733.731	1230.66
733.917	1298.24
734.103	1212.23
734.289	1304.39
734.475	1175.36
734.661	1201.99
734.847	1285.95
735.033	1292.1
735.219	1236.8
735.404	1288
735.59	1165.12
735.776	1144.64
735.962	1277.76
736.148	1222.47
736.333	1326.91
736.519	1230.66
736.705	1193.8
736.89	1242.95
737.076	1265.47
737.262	1191.75
737.447	1206.08
737.633	1193.8
737.819	1255.23
738.004	1263.43
738.19	1228.61
738.375	1134.4
738.561	1275.71
738.747	1197.89
738.932	1257.28
739.118	1310.53
739.303	1171.27
739.489	1230.66
739.674	1226.56
739.859	1150.79
740.045	1208.13
740.23	1148.74
740.416	1214.27
740.601	1201.99
740.786	1134.4
740.972	1201.99
741.157	1185.6
741.342	1113.92
741.528	1070.92
741.713	1183.56
741.898	1158.98
742.084	1242.95
742.269	1208.13
742.454	1095.49
742.639	1206.08
742.824	1132.36
743.01	1142.6
743.195	1191.75
743.38	1064.77
743.565	1113.92
743.75	1066.82
743.935	1032.01
744.12	1115.97
744.305	1103.68
744.49	1107.78
744.675	1101.64
744.86	1091.4
745.045	1130.31
745.23	1091.4
745.415	1040.2
745.6	1122.12
745.785	1029.96
745.97	1120.07
746.155	1064.77
746.34	1142.6
746.525	1075.01
746.71	1105.73
746.895	939.85
747.079	1003.33
747.264	1019.72
747.449	1042.25
747.634	1044.29
747.819	945.99
748.003	966.47
748.188	974.66
748.373	1062.73
748.557	986.95
748.742	933.7
748.927	915.27
749.111	954.18
749.296	1021.77
749.481	980.81
749.665	923.46
749.85	939.85
750.034	958.28
750.219	974.66
750.404	966.47
750.588	923.46
750.773	898.89
750.957	1015.62
751.141	894.79
751.326	905.03
751.51	962.37
751.695	847.69
751.879	927.56
752.064	919.37
752.248	888.65
752.432	882.5
752.617	890.7
752.801	837.45
752.985	945.99
753.17	921.42
753.354	825.16
753.538	839.5
753.722	849.74
753.907	786.25
754.091	909.13
754.275	835.4
754.459	798.54
754.643	773.96
754.828	761.67
755.012	816.97
755.196	880.46
755.38	765.77
755.564	743.24
755.748	857.93
755.932	829.26
756.116	831.3
756.3	782.15
756.484	825.16
756.668	759.63
756.852	800.59
757.036	810.82
757.22	687.95
757.404	720.71
757.588	769.87
757.772	784.2
757.956	698.19
758.14	700.23
758.323	710.47
758.507	776.01
758.691	665.42
758.875	702.28
759.059	814.92
759.242	741.19
759.426	683.85
759.61	659.28
759.794	700.23
759.977	733
760.161	747.34
760.345	675.66
760.528	710.47
760.712	687.95
760.895	651.08
761.079	661.32
761.263	681.8
761.446	681.8
761.63	616.27
761.813	730.95
761.997	634.7
762.18	612.17
762.364	673.61
762.547	542.54
762.731	571.21
762.914	655.18
763.098	704.33
763.281	624.46
763.464	661.32
763.648	610.12
763.831	679.75
764.015	659.28
764.198	616.27
764.381	636.75
764.564	624.46
764.748	669.52
764.931	640.84
765.114	585.55
765.297	583.5
765.481	599.88
765.664	540.49
765.847	585.55
766.03	624.46
766.213	585.55
766.397	599.88
766.58	573.26
766.763	544.59
766.946	538.45
767.129	579.4
767.312	599.88
767.495	638.8
767.678	606.03
767.861	655.18
768.044	624.46
768.227	579.4
768.41	571.21
768.593	618.32
768.776	528.21
768.959	505.68
769.142	612.17
769.324	599.88
769.507	626.51
769.69	542.54
769.873	583.5
770.056	530.25
770.239	526.16
770.421	563.02
770.604	493.39
770.787	522.06
770.97	477.01
771.152	485.2
771.335	444.24
771.518	554.83
771.7	503.63
771.883	534.35
772.066	520.01
772.248	489.29
772.431	563.02
772.613	493.39
772.796	520.01
772.978	511.82
773.161	528.21
773.343	503.63
773.526	493.39
773.708	501.58
773.891	479.05
774.073	522.06
774.256	477.01
774.438	513.87
774.621	491.34
774.803	431.95
774.985	468.81
775.168	442.19
775.35	507.73
775.532	485.2
775.715	450.38
775.897	472.91
776.079	462.67
776.261	395.09
776.444	442.19
776.626	477.01
776.808	438.09
776.99	477.01
777.173	487.25
777.355	407.38
777.537	493.39
777.719	456.53
777.901	421.71
778.083	444.24
778.265	343.89
778.447	454.48
778.629	409.42
778.811	395.09
778.993	444.24
779.175	358.22
779.357	415.57
779.539	378.7
779.721	421.71
779.903	438.09
780.085	368.46
780.267	409.42
780.449	460.62
780.631	399.18
780.812	356.18
780.994	397.14
781.176	313.17
781.358	429.9
781.54	327.5
781.721	378.7
781.903	278.35
782.085	352.08
782.267	386.9
782.448	368.46
782.63	364.37
782.812	345.94
782.993	403.28
783.175	309.07
783.357	247.63
783.538	358.22
783.72	356.18
783.901	337.74
784.083	321.36
784.264	272.21
784.446	347.98
784.627	282.45
784.809	309.07
784.99	278.35
785.172	331.6
785.353	235.35
785.535	352.08
785.716	292.69
785.897	272.21
786.079	284.5
786.26	335.7
786.441	259.92
786.623	298.83
786.804	243.54
786.985	323.41
787.167	296.78
787.348	276.31
787.529	282.45
787.71	356.18
787.891	317.26
788.073	272.21
788.254	276.31
788.435	319.31
788.616	313.17
788.797	296.78
788.978	278.35
789.159	231.25
789.34	243.54
789.522	241.49
789.703	204.63
789.884	302.93
790.065	284.5
790.246	286.54
790.427	274.26
790.607	180.05
790.788	382.8
790.969	266.07
791.15	268.11
791.331	218.96
791.512	245.59
791.693	196.43
791.874	235.35
792.054	331.6
792.235	239.44
792.416	227.15
792.597	237.39
792.778	233.3
792.958	231.25
793.139	313.17
793.32	202.58
793.5	282.45
793.681	311.12
793.862	178
794.042	182.1
794.223	196.43
794.404	202.58
794.584	155.47
794.765	184.15
794.945	106.32
795.126	198.48
795.306	253.78
795.487	180.05
795.667	233.3
795.848	251.73
796.028	214.87
796.209	245.59
796.389	173.91
796.57	255.83
796.75	198.48
796.93	198.48
797.111	204.63
797.291	171.86
797.471	276.31
797.652	239.44
797.832	227.15
798.012	280.4
798.192	225.11
798.373	175.95
798.553	212.82
798.733	255.83
798.913	212.82
799.093	165.71
799.274	231.25
799.454	274.26
799.634	175.95
799.814	206.67
799.994	165.71
800.174	169.81
800.354	171.86
800.534	141.14
800.714	241.49
800.894	229.2
801.074	137.04
801.254	165.71
801.434	171.86
801.614	225.11
801.794	241.49
801.974	503.63
802.154	184.15
802.334	149.33
802.514	151.38
802.693	167.76
802.873	165.71
803.053	171.86
803.233	167.76
803.413	245.59
803.592	122.71
803.772	143.19
803.952	186.19
804.131	171.86
804.311	157.52
804.491	171.86
804.67	149.33
804.85	141.14
805.03	132.95
805.209	141.14
805.389	196.43
805.568	182.1
805.748	91.99
805.928	132.95
806.107	171.86
806.287	225.11
806.466	53.08
806.646	126.8
806.825	137.04
807.004	124.76
807.184	79.7
807.363	218.96
807.543	173.91
807.722	149.33
807.901	163.67
808.081	173.91
808.26	143.19
808.439	190.29
808.619	85.84
808.798	112.47
808.977	173.91
809.156	218.96
809.336	130.9
809.515	182.1
809.694	139.09
809.873	130.9
810.052	157.52
810.231	141.14
810.411	63.32
810.59	182.1
810.769	108.37
810.948	180.05
811.127	110.42
811.306	178
811.485	104.28
811.664	153.43
811.843	89.94
812.022	159.57
812.201	48.98
812.38	112.47
812.559	87.89
812.737	106.32
812.916	145.24
813.095	51.03
813.274	151.38
813.453	128.85
813.632	114.52
813.811	165.71
813.989	100.18
814.168	202.58
814.347	65.36
814.526	108.37
814.704	151.38
814.883	163.67
815.062	157.52
815.24	124.76
815.419	59.22
815.598	159.57
815.776	167.76
815.955	87.89
816.133	30.55
816.312	67.41
816.49	110.42
816.669	114.52
816.847	137.04
817.026	102.23
817.204	104.28
817.383	98.13
817.561	106.32
817.74	110.42
817.918	94.04
818.097	83.8
818.275	40.79
818.453	102.23
818.632	79.7
818.81	55.12
818.988	139.09
819.167	159.57
819.345	112.47
819.523	110.42
819.701	46.93
819.879	91.99
820.058	38.74
820.236	130.9
820.414	89.94
820.592	137.04
820.77	85.84
820.948	94.04
821.127	128.85
821.305	57.17
821.483	141.14
821.661	79.7
821.839	38.74
822.017	75.6
822.195	83.8
822.373	137.04
822.551	57.17
822.729	57.17
822.907	83.8
823.085	73.56
823.262	75.6
823.44	87.89
823.618	96.08
823.796	22.36
823.974	-14.51
824.152	75.6
824.329	83.8
824.507	135
824.685	91.99
824.863	130.9
825.04	122.71
825.218	48.98
825.396	83.8
825.574	114.52
825.751	112.47
825.929	124.76
826.107	55.12
826.284	126.8
826.462	118.61
826.639	91.99
826.817	-32.94
826.994	94.04
827.172	128.85
827.349	161.62
827.527	1.88
827.704	73.56
827.882	91.99
828.059	128.85
828.237	34.64
828.414	175.95
828.591	-0.17
828.769	98.13
828.946	67.41
829.124	81.75
829.301	71.51
829.478	77.65
829.655	59.22
829.833	28.5
830.01	48.98
830.187	104.28
830.364	102.23
830.542	79.7
830.719	108.37
830.896	149.33
831.073	57.17
831.25	42.84
831.427	-0.17
831.604	120.66
831.782	71.51
831.959	30.55
832.136	67.41
832.313	112.47
832.49	-0.17
832.667	38.74
832.844	57.17
833.021	85.84
833.198	30.55
833.374	124.76
833.551	44.88
833.728	91.99
833.905	65.36
834.082	34.64
834.259	67.41
834.436	34.64
834.612	59.22
834.789	42.84
834.966	40.79
835.143	69.46
835.319	126.8
835.496	48.98
835.673	75.6
835.85	114.52
836.026	98.13
836.203	69.46
836.38	3.93
836.556	67.41
836.733	69.46
836.909	28.5
837.086	48.98
837.262	26.45
837.439	32.6
837.616	79.7
837.792	10.07
837.968	38.74
838.145	-63.66
838.321	57.17
838.498	100.18
838.674	167.76
838.851	24.4
839.027	10.07
839.203	61.27
839.38	85.84
839.556	75.6
839.732	110.42
839.909	18.26
840.085	63.32
840.261	14.17
840.437	24.4
840.614	20.31
840.79	63.32
840.966	124.76
841.142	22.36
841.318	51.03
841.494	36.69
841.671	44.88
841.847	8.02
842.023	38.74
842.199	44.88
842.375	46.93
842.551	-0.17
842.727	46.93
842.903	51.03
843.079	-2.22
843.255	77.65
843.431	65.36
843.607	46.93
843.783	91.99
843.959	53.08
844.134	55.12
844.31	-10.41
844.486	32.6
844.662	18.26
844.838	55.12
845.013	91.99
845.189	81.75
845.365	28.5
845.541	67.41
845.716	75.6
845.892	36.69
846.068	8.02
846.244	18.26
846.419	34.64
846.595	-10.41
846.77	42.84
846.946	63.32
847.122	51.03
847.297	87.89
847.473	67.41
847.648	71.51
847.824	89.94
847.999	-10.41
848.175	-10.41
848.35	63.32
848.526	36.69
848.701	42.84
848.876	46.93
849.052	-10.41
849.227	65.36
849.403	46.93
849.578	28.5
849.753	-0.17
849.929	106.32
850.104	30.55
850.279	38.74
850.454	-28.84
850.63	51.03
850.805	79.7
850.98	30.55
851.155	69.46
851.33	26.45
851.505	-10.41
851.681	63.32
851.856	-14.51
852.031	71.51
852.206	-57.51
852.381	89.94
852.556	36.69
852.731	51.03
852.906	30.55
853.081	67.41
853.256	24.4
853.431	71.51
853.606	24.4
853.781	44.88
853.956	-0.17
854.131	-24.75
854.305	12.12
854.48	-12.46
854.655	71.51
854.83	1.88
855.005	48.98
855.18	28.5
855.354	-4.27
855.529	26.45
855.704	-47.27
855.879	34.64
856.053	-69.8
856.228	18.26
856.403	-59.56
856.577	36.69
856.752	5.97
856.926	30.55
857.101	63.32
857.276	-0.17
857.45	38.74
857.625	98.13
857.799	61.27
857.974	5.97
858.148	-77.99
858.323	57.17
858.497	59.22
858.672	28.5
858.846	55.12
859.02	94.04
859.195	38.74
859.369	55.12
859.543	63.32
859.718	24.4
859.892	12.12
860.066	53.08
860.241	20.31
860.415	40.79
860.589	38.74
860.763	8.02
860.938	1.88
861.112	24.4
861.286	-2.22
861.46	79.7
861.634	14.17
861.808	48.98
861.982	-10.41
862.157	-6.31
862.331	77.65
862.505	12.12
862.679	32.6
862.853	104.28
863.027	-24.75
863.201	-30.89
863.375	22.36
863.549	-53.42
863.722	44.88
863.896	46.93
864.07	-8.36
864.244	-8.36
864.418	83.8
864.592	91.99
864.766	22.36
864.939	38.74
865.113	51.03
865.287	-18.6
865.461	18.26
865.634	26.45
865.808	75.6
865.982	26.45
866.156	-2.22
866.329	24.4
866.503	57.17
866.676	34.64
866.85	57.17
867.024	10.07
867.197	48.98
867.371	-6.31
867.544	38.74
867.718	-43.18
867.891	-30.89
868.065	28.5
868.238	51.03
868.412	38.74
868.585	-6.31
868.759	26.45
868.932	28.5
869.105	-28.84
869.279	-8.36
869.452	-67.75
869.625	1.88
869.799	-34.99
869.972	-4.27
870.145	42.84
870.319	59.22
870.492	67.41
870.665	81.75
870.838	24.4
871.011	-4.27
871.185	14.17
871.358	16.21
871.531	-16.55
871.704	-2.22
871.877	-22.7
872.05	-41.13
872.223	-84.14
872.396	5.97
872.569	100.18
872.742	1.88
872.915	3.93
873.088	32.6
873.261	-18.6
873.434	46.93
873.607	-32.94
873.78	30.55
873.953	-55.47
874.126	22.36
874.299	-32.94
874.471	26.45
874.644	59.22
874.817	46.93
874.99	79.7
875.163	5.97
875.335	-86.19
875.508	-65.71
875.681	22.36
875.853	32.6
876.026	-10.41
876.199	8.02
876.371	22.36
876.544	40.79
876.717	14.17
876.889	10.07
877.062	71.51
877.234	-43.18
877.407	18.26
877.579	-65.71
877.752	24.4
877.924	-0.17
878.097	69.46
878.269	34.64
878.442	24.4
878.614	3.93
878.786	-49.32
878.959	-28.84
879.131	1.88
879.303	14.17
879.476	20.31
879.648	-14.51
879.82	55.12
879.993	-53.42
880.165	71.51
880.337	-45.23
880.509	-4.27
880.681	8.02
880.854	-51.37
881.026	30.55
881.198	44.88
881.37	-16.55
881.542	81.75
881.714	-0.17
881.886	-26.79
882.058	-2.22
882.23	-2.22
882.402	-26.79
882.574	1.88
882.746	-20.65
882.918	36.69
883.09	-32.94
883.262	-16.55
883.434	-20.65
883.606	5.97
883.778	-14.51
883.95	40.79
884.122	16.21
884.293	85.84
884.465	14.17
884.637	-2.22
884.809	-14.51
884.98	85.84
885.152	32.6
885.324	32.6
885.496	32.6
885.667	-4.27
885.839	-8.36
886.011	-2.22
886.182	42.84
886.354	-6.31
886.525	-6.31
886.697	59.22
886.869	10.07
887.04	57.17
887.212	16.21
887.383	-0.17
887.555	-12.46
887.726	48.98
887.897	-0.17
888.069	-6.31
888.24	-45.23
888.412	18.26
888.583	-47.27
888.754	-10.41
888.926	-22.7
889.097	5.97
889.268	22.36
889.44	22.36
889.611	-63.66
889.782	20.31
889.953	48.98
890.125	-6.31
890.296	42.84
890.467	1.88
890.638	-49.32
890.809	1.88
890.98	40.79
891.151	36.69
891.323	-0.17
891.494	32.6
891.665	-8.36
891.836	46.93
892.007	-32.94
892.178	16.21
892.349	12.12
892.52	-6.31
892.691	-26.79
892.862	8.02
893.032	-53.42
893.203	22.36
893.374	75.6
893.545	104.28
893.716	-34.99
893.887	30.55
894.057	-6.31
894.228	-10.41
894.399	-49.32
894.57	-6.31
894.74	-8.36
894.911	53.08
895.082	28.5
895.253	-45.23
895.423	1.88
895.594	-49.32
895.764	-41.13
895.935	-32.94
896.106	-10.41
896.276	12.12
896.447	14.17
896.617	34.64
896.788	59.22
896.958	18.26
897.129	-37.03
897.299	-10.41
897.47	24.4
897.64	20.31
897.81	-57.51
897.981	55.12
898.151	-6.31
898.322	14.17
898.492	-39.08
898.662	-14.51
898.832	28.5
899.003	-39.08
899.173	65.36
899.343	53.08
899.513	-12.46
