Data from USB4F104151__288__11-12-58-580.txt Node

Date: Wed Mar 12 11:12:58 EDT 2025
User: louis
Spectrometer: USB4F10415
Trigger mode: 4
Integration Time (sec): 2.000000E-2
Scans to average: 1
Electric dark correction enabled: true
Nonlinearity correction enabled: false
Boxcar width: 0
XAxis mode: Wavelengths
Number of Pixels in Spectrum: 3648
>>>>>Begin Spectral Data<<<<<
178.204	-50.52
178.424	-50.52
178.644	-50.52
178.864	-56.66
179.084	-91.48
179.304	21.16
179.524	39.59
179.744	-42.32
179.964	80.55
180.184	19.11
180.404	-68.95
180.624	-21.85
180.844	8.87
181.064	-68.95
181.283	-21.85
181.503	27.31
181.723	27.31
181.943	-42.32
182.163	33.45
182.383	15.02
182.602	-5.46
182.822	-36.18
183.042	19.11
183.262	-52.56
183.482	-11.61
183.701	-36.18
183.921	-30.04
184.141	8.87
184.361	-3.41
184.58	60.07
184.8	39.59
185.02	-5.46
185.239	29.35
185.459	47.79
185.679	49.83
185.898	-48.47
186.118	-5.46
186.338	-15.7
186.557	23.21
186.777	45.74
186.997	27.31
187.216	35.5
187.436	19.11
187.655	66.22
187.875	23.21
188.095	-13.65
188.314	45.74
188.534	21.16
188.753	39.59
188.973	4.78
189.192	4.78
189.412	68.27
189.631	53.93
189.851	-9.56
190.07	-23.89
190.29	-25.94
190.509	41.64
190.729	19.11
190.948	43.69
191.168	25.26
191.387	33.45
191.607	-5.46
191.826	-5.46
192.045	31.4
192.265	-44.37
192.484	10.92
192.704	35.5
192.923	35.5
193.142	39.59
193.362	27.31
193.581	0.68
193.8	-25.94
194.02	19.11
194.239	-15.7
194.458	88.75
194.678	33.45
194.897	27.31
195.116	-3.41
195.335	6.83
195.555	-83.28
195.774	-1.37
195.993	68.27
196.212	53.93
196.432	27.31
196.651	35.5
196.87	-9.56
197.089	27.31
197.308	55.98
197.528	19.11
197.747	-44.37
197.966	23.21
198.185	123.56
198.404	0.68
198.623	39.59
198.842	0.68
199.062	35.5
199.281	72.36
199.5	4.78
199.719	-1.37
199.938	53.93
200.157	8.87
200.376	64.17
200.595	53.93
200.814	-48.47
201.033	47.79
201.252	6.83
201.471	35.5
201.69	37.55
201.909	-40.28
202.128	31.4
202.347	55.98
202.566	62.12
202.785	6.83
203.004	-23.89
203.223	70.31
203.442	98.99
203.661	19.11
203.879	101.03
204.098	23.21
204.317	-66.9
204.536	15.02
204.755	-25.94
204.974	-3.41
205.193	45.74
205.411	80.55
205.63	35.5
205.849	76.46
206.068	6.83
206.287	-44.37
206.505	-7.51
206.724	98.99
206.943	-11.61
207.162	-38.23
207.381	15.02
207.599	21.16
207.818	47.79
208.037	-9.56
208.255	-5.46
208.474	-7.51
208.693	45.74
208.911	94.89
209.13	-83.28
209.349	27.31
209.567	66.22
209.786	43.69
210.005	45.74
210.223	72.36
210.442	-40.28
210.661	31.4
210.879	-9.56
211.098	58.03
211.316	29.35
211.535	17.07
211.753	53.93
211.972	12.97
212.191	12.97
212.409	35.5
212.628	53.93
212.846	10.92
213.065	76.46
213.283	125.61
213.502	10.92
213.72	-17.75
213.938	25.26
214.157	76.46
214.375	23.21
214.594	-19.8
214.812	6.83
215.031	-48.47
215.249	82.6
215.467	70.31
215.686	39.59
215.904	39.59
216.122	33.45
216.341	62.12
216.559	12.97
216.778	29.35
216.996	19.11
217.214	-7.51
217.432	43.69
217.651	-21.85
217.869	-7.51
218.087	-34.13
218.306	-36.18
218.524	49.83
218.742	15.02
218.96	19.11
219.179	45.74
219.397	43.69
219.615	0.68
219.833	21.16
220.051	23.21
220.27	25.26
220.488	90.79
220.706	43.69
220.924	37.55
221.142	17.07
221.36	10.92
221.578	60.07
221.796	27.31
222.015	17.07
222.233	17.07
222.451	51.88
222.669	-13.65
222.887	62.12
223.105	-32.08
223.323	53.93
223.541	-60.76
223.759	31.4
223.977	78.51
224.195	49.83
224.413	23.21
224.631	-11.61
224.849	23.21
225.067	27.31
225.285	-23.89
225.503	62.12
225.721	-9.56
225.939	-17.75
226.157	19.11
226.375	23.21
226.592	76.46
226.81	33.45
227.028	39.59
227.246	53.93
227.464	12.97
227.682	-46.42
227.9	60.07
228.117	37.55
228.335	37.55
228.553	39.59
228.771	25.26
228.989	-5.46
229.206	31.4
229.424	-17.75
229.642	66.22
229.86	27.31
230.077	41.64
230.295	-44.37
230.513	10.92
230.731	45.74
230.948	66.22
231.166	33.45
231.384	-58.71
231.601	21.16
231.819	15.02
232.037	2.73
232.254	-23.89
232.472	31.4
232.689	107.18
232.907	10.92
233.125	-21.85
233.342	6.83
233.56	-17.75
233.777	51.88
233.995	12.97
234.213	113.32
234.43	17.07
234.648	10.92
234.865	-5.46
235.083	-5.46
235.3	12.97
235.518	103.08
235.735	-21.85
235.953	70.31
236.17	-17.75
236.388	-11.61
236.605	23.21
236.822	12.97
237.04	115.37
237.257	92.84
237.475	60.07
237.692	92.84
237.909	29.35
238.127	-27.99
238.344	23.21
238.562	2.73
238.779	4.78
238.996	47.79
239.214	-64.85
239.431	58.03
239.648	21.16
239.865	39.59
240.083	25.26
240.3	-3.41
240.517	8.87
240.735	-5.46
240.952	68.27
241.169	35.5
241.386	43.69
241.603	6.83
241.821	29.35
242.038	70.31
242.255	19.11
242.472	43.69
242.689	47.79
242.907	29.35
243.124	33.45
243.341	-5.46
243.558	21.16
243.775	10.92
243.992	-25.94
244.209	23.21
244.426	72.36
244.643	-1.37
244.86	23.21
245.078	-13.65
245.295	88.75
245.512	0.68
245.729	10.92
245.946	33.45
246.163	-73.04
246.38	-25.94
246.597	41.64
246.814	-15.7
247.031	-13.65
247.248	31.4
247.464	-13.65
247.681	2.73
247.898	35.5
248.115	39.59
248.332	2.73
248.549	64.17
248.766	19.11
248.983	19.11
249.2	43.69
249.417	29.35
249.633	39.59
249.85	35.5
250.067	29.35
250.284	17.07
250.501	23.21
250.717	66.22
250.934	-46.42
251.151	43.69
251.368	-9.56
251.585	31.4
251.801	62.12
252.018	-15.7
252.235	127.66
252.451	-1.37
252.668	-13.65
252.885	35.5
253.102	68.27
253.318	25.26
253.535	-15.7
253.752	-13.65
253.968	6.83
254.185	53.93
254.401	-13.65
254.618	-48.47
254.835	0.68
255.051	27.31
255.268	78.51
255.484	88.75
255.701	-3.41
255.917	19.11
256.134	23.21
256.351	58.03
256.567	33.45
256.784	12.97
257	-5.46
257.217	66.22
257.433	4.78
257.65	2.73
257.866	19.11
258.082	55.98
258.299	43.69
258.515	68.27
258.732	-5.46
258.948	-13.65
259.165	78.51
259.381	8.87
259.597	6.83
259.814	12.97
260.03	12.97
260.246	6.83
260.463	19.11
260.679	-38.23
260.895	10.92
261.112	72.36
261.328	45.74
261.544	72.36
261.761	43.69
261.977	33.45
262.193	-95.57
262.409	-15.7
262.626	64.17
262.842	25.26
263.058	31.4
263.274	88.75
263.49	37.55
263.707	58.03
263.923	74.41
264.139	-30.04
264.355	-5.46
264.571	25.26
264.787	41.64
265.004	45.74
265.22	-1.37
265.436	49.83
265.652	66.22
265.868	-1.37
266.084	-7.51
266.3	15.02
266.516	17.07
266.732	39.59
266.948	-21.85
267.164	105.13
267.38	55.98
267.596	-11.61
267.812	53.93
268.028	-46.42
268.244	-42.32
268.46	45.74
268.676	4.78
268.892	4.78
269.108	-34.13
269.324	45.74
269.54	84.65
269.756	66.22
269.972	-7.51
270.188	6.83
270.403	2.73
270.619	43.69
270.835	23.21
271.051	27.31
271.267	-34.13
271.483	-9.56
271.698	84.65
271.914	-9.56
272.13	39.59
272.346	15.02
272.562	-50.52
272.777	6.83
272.993	72.36
273.209	45.74
273.425	49.83
273.64	66.22
273.856	58.03
274.072	35.5
274.287	72.36
274.503	23.21
274.719	33.45
274.934	74.41
275.15	-25.94
275.366	6.83
275.581	35.5
275.797	68.27
276.012	60.07
276.228	60.07
276.444	29.35
276.659	111.27
276.875	-46.42
277.09	41.64
277.306	-30.04
277.521	4.78
277.737	-19.8
277.952	60.07
278.168	6.83
278.383	60.07
278.599	72.36
278.814	55.98
279.03	45.74
279.245	27.31
279.461	-23.89
279.676	27.31
279.892	21.16
280.107	51.88
280.322	29.35
280.538	58.03
280.753	19.11
280.969	25.26
281.184	27.31
281.399	35.5
281.615	31.4
281.83	10.92
282.045	15.02
282.26	27.31
282.476	49.83
282.691	45.74
282.906	-38.23
283.122	2.73
283.337	-23.89
283.552	19.11
283.767	39.59
283.983	-46.42
284.198	27.31
284.413	23.21
284.628	82.6
284.843	-5.46
285.058	17.07
285.274	90.79
285.489	15.02
285.704	23.21
285.919	-15.7
286.134	31.4
286.349	53.93
286.564	6.83
286.779	86.7
286.995	21.16
287.21	31.4
287.425	-21.85
287.64	21.16
287.855	62.12
288.07	27.31
288.285	27.31
288.5	51.88
288.715	-52.56
288.93	0.68
289.145	29.35
289.36	0.68
289.575	31.4
289.79	-21.85
290.004	-13.65
290.219	-25.94
290.434	19.11
290.649	33.45
290.864	21.16
291.079	29.35
291.294	39.59
291.509	0.68
291.724	6.83
291.938	27.31
292.153	12.97
292.368	47.79
292.583	8.87
292.798	68.27
293.012	125.61
293.227	41.64
293.442	19.11
293.657	-34.13
293.871	82.6
294.086	55.98
294.301	-32.08
294.516	-1.37
294.73	72.36
294.945	31.4
295.16	39.59
295.374	76.46
295.589	43.69
295.804	4.78
296.018	-30.04
296.233	64.17
296.447	82.6
296.662	0.68
296.877	43.69
297.091	19.11
297.306	15.02
297.52	31.4
297.735	72.36
297.949	4.78
298.164	23.21
298.378	47.79
298.593	17.07
298.807	-27.99
299.022	101.03
299.236	82.6
299.451	-5.46
299.665	2.73
299.88	41.64
300.094	58.03
300.309	39.59
300.523	31.4
300.737	-5.46
300.952	98.99
301.166	27.31
301.381	-23.89
301.595	41.64
301.809	39.59
302.024	47.79
302.238	17.07
302.452	62.12
302.667	0.68
302.881	90.79
303.095	-23.89
303.309	49.83
303.524	-5.46
303.738	60.07
303.952	60.07
304.166	29.35
304.381	-15.7
304.595	10.92
304.809	35.5
305.023	31.4
305.237	-58.71
305.452	45.74
305.666	17.07
305.88	-9.56
306.094	64.17
306.308	98.99
306.522	109.22
306.736	23.21
306.95	-54.61
307.164	-13.65
307.379	2.73
307.593	51.88
307.807	-7.51
308.021	115.37
308.235	-1.37
308.449	53.93
308.663	62.12
308.877	2.73
309.091	-23.89
309.305	49.83
309.519	-48.47
309.733	66.22
309.947	-36.18
310.161	19.11
310.374	10.92
310.588	90.79
310.802	53.93
311.016	2.73
311.23	39.59
311.444	-62.8
311.658	33.45
311.872	33.45
312.085	55.98
312.299	-44.37
312.513	82.6
312.727	-13.65
312.941	-36.18
313.154	10.92
313.368	10.92
313.582	35.5
313.796	82.6
314.009	37.55
314.223	76.46
314.437	35.5
314.651	78.51
314.864	8.87
315.078	39.59
315.292	23.21
315.505	47.79
315.719	58.03
315.933	10.92
316.146	58.03
316.36	74.41
316.573	41.64
316.787	-13.65
317.001	45.74
317.214	49.83
317.428	64.17
317.641	66.22
317.855	-13.65
318.068	68.27
318.282	39.59
318.495	4.78
318.709	-25.94
318.922	10.92
319.136	27.31
319.349	98.99
319.563	29.35
319.776	15.02
319.99	12.97
320.203	-15.7
320.417	111.27
320.63	-30.04
320.843	19.11
321.057	88.75
321.27	49.83
321.483	29.35
321.697	19.11
321.91	90.79
322.124	27.31
322.337	41.64
322.55	35.5
322.763	76.46
322.977	17.07
323.19	19.11
323.403	39.59
323.617	-19.8
323.83	74.41
324.043	49.83
324.256	92.84
324.469	-21.85
324.683	43.69
324.896	-11.61
325.109	37.55
325.322	6.83
325.535	21.16
325.748	58.03
325.962	-42.32
326.175	-3.41
326.388	55.98
326.601	47.79
326.814	33.45
327.027	21.16
327.24	29.35
327.453	8.87
327.666	51.88
327.879	-7.51
328.092	23.21
328.305	90.79
328.518	8.87
328.731	-1.37
328.944	4.78
329.157	-13.65
329.37	23.21
329.583	58.03
329.796	47.79
330.009	51.88
330.222	23.21
330.435	15.02
330.648	60.07
330.861	55.98
331.073	68.27
331.286	76.46
331.499	60.07
331.712	-83.28
331.925	101.03
332.138	-5.46
332.35	84.65
332.563	-42.32
332.776	62.12
332.989	49.83
333.202	2.73
333.414	72.36
333.627	105.13
333.84	0.68
334.053	51.88
334.265	-27.99
334.478	49.83
334.691	45.74
334.903	82.6
335.116	29.35
335.329	94.89
335.541	96.94
335.754	62.12
335.966	55.98
336.179	53.93
336.392	-32.08
336.604	111.27
336.817	72.36
337.029	29.35
337.242	-3.41
337.454	64.17
337.667	17.07
337.88	8.87
338.092	58.03
338.305	113.32
338.517	-21.85
338.729	60.07
338.942	39.59
339.154	-5.46
339.367	35.5
339.579	-34.13
339.792	-60.76
340.004	76.46
340.217	-7.51
340.429	29.35
340.641	-17.75
340.854	8.87
341.066	31.4
341.278	88.75
341.491	55.98
341.703	37.55
341.915	49.83
342.128	43.69
342.34	-5.46
342.552	17.07
342.764	51.88
342.977	51.88
343.189	-32.08
343.401	17.07
343.613	17.07
343.826	17.07
344.038	-32.08
344.25	76.46
344.462	0.68
344.674	27.31
344.886	0.68
345.099	4.78
345.311	0.68
345.523	15.02
345.735	39.59
345.947	15.02
346.159	45.74
346.371	23.21
346.583	82.6
346.795	31.4
347.007	107.18
347.219	82.6
347.431	-13.65
347.643	111.27
347.855	27.31
348.067	105.13
348.279	17.07
348.491	4.78
348.703	27.31
348.915	27.31
349.127	-11.61
349.339	19.11
349.551	23.21
349.763	72.36
349.975	0.68
350.187	31.4
350.399	66.22
350.61	-3.41
350.822	68.27
351.034	21.16
351.246	43.69
351.458	41.64
351.669	80.55
351.881	51.88
352.093	31.4
352.305	39.59
352.517	92.84
352.728	21.16
352.94	72.36
353.152	62.12
353.363	55.98
353.575	47.79
353.787	137.9
353.999	80.55
354.21	41.64
354.422	-32.08
354.633	0.68
354.845	37.55
355.057	68.27
355.268	25.26
355.48	17.07
355.692	-81.24
355.903	6.83
356.115	33.45
356.326	-17.75
356.538	98.99
356.749	-21.85
356.961	55.98
357.172	-17.75
357.384	-3.41
357.595	78.51
357.807	39.59
358.018	-13.65
358.23	17.07
358.441	70.31
358.653	-3.41
358.864	55.98
359.075	27.31
359.287	37.55
359.498	109.22
359.709	55.98
359.921	21.16
360.132	76.46
360.344	12.97
360.555	-42.32
360.766	-11.61
360.977	58.03
361.189	39.59
361.4	-19.8
361.611	43.69
361.823	78.51
362.034	35.5
362.245	-85.33
362.456	45.74
362.667	60.07
362.879	60.07
363.09	70.31
363.301	53.93
363.512	-21.85
363.723	19.11
363.935	51.88
364.146	55.98
364.357	86.7
364.568	98.99
364.779	-13.65
364.99	80.55
365.201	60.07
365.412	82.6
365.623	45.74
365.834	39.59
366.045	82.6
366.256	60.07
366.467	-42.32
366.678	33.45
366.889	4.78
367.1	-7.51
367.311	-25.94
367.522	109.22
367.733	55.98
367.944	39.59
368.155	10.92
368.366	19.11
368.577	43.69
368.788	101.03
368.999	47.79
369.209	-1.37
369.42	35.5
369.631	31.4
369.842	2.73
370.053	80.55
370.264	45.74
370.474	49.83
370.685	62.12
370.896	92.84
371.107	43.69
371.317	121.51
371.528	58.03
371.739	74.41
371.95	29.35
372.16	27.31
372.371	27.31
372.582	76.46
372.792	43.69
373.003	58.03
373.214	31.4
373.424	68.27
373.635	43.69
373.846	31.4
374.056	78.51
374.267	76.46
374.477	39.59
374.688	29.35
374.898	35.5
375.109	92.84
375.319	-7.51
375.53	92.84
375.74	25.26
375.951	41.64
376.161	51.88
376.372	88.75
376.582	-11.61
376.793	66.22
377.003	19.11
377.214	31.4
377.424	82.6
377.635	37.55
377.845	47.79
378.055	111.27
378.266	15.02
378.476	64.17
378.686	39.59
378.897	6.83
379.107	25.26
379.317	33.45
379.528	21.16
379.738	117.42
379.948	-42.32
380.158	62.12
380.369	90.79
380.579	74.41
380.789	35.5
380.999	113.32
381.21	29.35
381.42	90.79
381.63	0.68
381.84	12.97
382.05	19.11
382.261	53.93
382.471	6.83
382.681	68.27
382.891	101.03
383.101	8.87
383.311	-7.51
383.521	41.64
383.731	53.93
383.941	121.51
384.151	-17.75
384.361	49.83
384.571	39.59
384.781	45.74
384.991	4.78
385.201	127.66
385.411	15.02
385.621	60.07
385.831	12.97
386.041	72.36
386.251	98.99
386.461	66.22
386.671	31.4
386.881	35.5
387.091	64.17
387.301	72.36
387.511	-42.32
387.72	6.83
387.93	76.46
388.14	37.55
388.35	-3.41
388.56	55.98
388.769	47.79
388.979	55.98
389.189	19.11
389.399	82.6
389.609	31.4
389.818	86.7
390.028	76.46
390.238	80.55
390.447	70.31
390.657	55.98
390.867	45.74
391.076	-23.89
391.286	66.22
391.496	70.31
391.705	31.4
391.915	4.78
392.125	74.41
392.334	55.98
392.544	84.65
392.753	101.03
392.963	35.5
393.172	74.41
393.382	80.55
393.591	68.27
393.801	0.68
394.01	80.55
394.22	62.12
394.429	76.46
394.639	84.65
394.848	33.45
395.058	101.03
395.267	37.55
395.477	88.75
395.686	84.65
395.895	129.7
396.105	154.28
396.314	66.22
396.524	109.22
396.733	43.69
396.942	141.99
397.152	43.69
397.361	135.85
397.57	53.93
397.78	78.51
397.989	76.46
398.198	141.99
398.407	-9.56
398.617	101.03
398.826	82.6
399.035	105.13
399.244	21.16
399.453	129.7
399.663	158.38
399.872	90.79
400.081	41.64
400.29	144.04
400.499	78.51
400.708	129.7
400.917	115.37
401.127	76.46
401.336	129.7
401.545	113.32
401.754	113.32
401.963	123.56
402.172	107.18
402.381	76.46
402.59	191.14
402.799	82.6
403.008	109.22
403.217	141.99
403.426	125.61
403.635	137.9
403.844	117.42
404.053	107.18
404.262	158.38
404.471	174.76
404.68	129.7
404.888	156.33
405.097	86.7
405.306	182.95
405.515	101.03
405.724	125.61
405.933	107.18
406.142	107.18
406.35	166.57
406.559	168.62
406.768	168.62
406.977	285.35
407.185	193.19
407.394	182.95
407.603	207.53
407.812	211.62
408.02	189.1
408.229	305.83
408.438	223.91
408.646	170.66
408.855	185
409.064	260.77
409.272	240.3
409.481	258.73
409.69	293.54
409.898	248.49
410.107	297.64
410.315	324.26
410.524	328.36
410.733	326.31
410.941	324.26
411.15	334.5
411.358	365.22
411.567	420.52
411.775	348.84
411.984	359.08
412.192	420.52
412.401	397.99
412.609	469.67
412.818	502.43
413.026	512.67
413.234	471.72
413.443	531.11
413.651	567.97
413.86	520.87
414.068	559.78
414.276	596.64
414.485	537.25
414.693	551.59
414.901	772.77
415.11	707.23
415.318	760.48
415.526	783.01
415.734	770.72
415.943	737.95
416.151	852.64
416.359	830.11
416.567	844.45
416.776	830.11
416.984	1030.81
417.192	985.76
417.4	877.21
417.608	1014.43
417.817	991.9
418.025	1053.34
418.233	1165.98
418.441	1133.21
418.649	1204.89
418.857	1256.09
419.065	1438.36
419.273	1247.9
419.481	1340.05
419.689	1450.64
419.897	1581.71
420.105	1446.55
420.313	1503.89
420.521	1614.48
420.729	1567.38
420.937	1708.69
421.145	1841.81
421.353	1819.28
421.561	1888.91
421.769	1931.92
421.977	2050.7
422.185	1987.21
422.393	2105.99
422.601	2339.46
422.809	2316.94
423.017	2198.15
423.224	2419.33
423.432	2574.98
423.64	2529.92
423.848	2706.05
424.056	2626.18
424.263	2912.89
424.471	2722.43
424.679	2814.59
424.887	3168.89
425.094	3134.07
425.302	3213.95
425.51	3226.23
425.718	3445.37
425.925	3367.54
426.133	3502.71
426.341	3762.8
426.548	3918.45
426.756	3953.26
426.964	3912.3
427.171	4168.3
427.379	4344.42
427.586	4360.81
427.794	4528.74
428.001	4665.96
428.209	4895.33
428.417	4930.14
428.624	5253.72
428.832	5190.24
429.039	5018.21
429.247	5112.41
429.454	5708.37
429.662	6146.64
429.869	5655.12
430.076	6025.81
430.284	5861.97
430.491	6062.67
430.699	6400.59
430.906	6611.53
431.114	6550.09
431.321	6758.98
431.528	6869.57
431.736	7232.06
431.943	7766.58
432.15	7500.34
432.358	7514.68
432.565	8028.72
432.772	7907.89
432.979	8393.26
433.187	8342.06
433.394	8452.65
433.601	9116.19
433.808	9169.44
434.016	9202.21
434.223	9626.14
434.43	10158.61
434.637	9792.02
434.844	10375.69
435.052	10605.06
435.259	10416.65
435.466	10560.01
435.673	10498.57
435.88	11213.31
436.087	11756.02
436.294	11807.22
436.501	11483.64
436.708	11895.29
436.915	12204.53
437.122	12868.07
437.329	12724.71
437.537	13136.35
437.743	13388.25
437.95	13146.59
438.157	13838.81
438.364	14406.09
438.571	14328.27
438.778	14524.88
438.985	15796.67
439.192	15069.64
439.399	15643.07
439.606	15317.44
439.813	16384.43
440.02	17140.13
440.227	16798.12
440.433	16650.67
440.64	17310.11
440.847	17250.72
441.054	17701.28
441.261	18569.62
441.467	18354.58
441.674	18958.73
441.881	19665.28
442.088	19292.55
442.294	19116.42
442.501	19630.46
442.708	20113.78
442.914	21008.75
443.121	21819.74
443.328	21043.56
443.534	22399.32
443.741	22118.75
443.948	21952.86
444.154	23406.92
444.361	23193.93
444.568	23271.75
444.774	23501.12
444.981	23617.86
445.187	24420.66
445.394	25559.33
445.6	25129.26
445.807	27412.74
446.013	26229.02
446.22	26802.45
446.426	27896.06
446.633	27967.74
446.839	29098.22
447.046	27795.71
447.252	29239.53
447.459	28887.28
447.665	28911.86
447.871	30546.14
448.078	31652.04
448.284	29886.69
448.491	31094.99
448.697	32051.39
448.903	32764.09
449.11	32870.58
449.316	32178.37
449.522	32696.5
449.728	34050.21
449.935	34136.23
450.141	33652.91
450.347	34529.44
450.553	33560.75
450.76	33771.69
450.966	34951.32
451.172	34590.87
451.378	35385.49
451.584	34656.41
451.791	35485.84
451.997	35481.74
452.203	35803.27
452.409	36188.29
452.615	35659.91
452.821	34343.07
453.027	33996.96
453.233	36098.18
453.44	34199.71
453.646	34625.69
453.852	34947.22
454.058	35117.2
454.264	34205.86
454.47	34771.1
454.676	34312.35
454.882	34984.08
455.088	32092.35
455.294	32843.96
455.5	32993.46
455.705	33640.62
455.911	32309.44
456.117	31398.09
456.323	31084.75
456.529	29112.56
456.735	30656.73
456.941	29876.45
457.147	29155.57
457.352	28041.47
457.558	28223.74
457.764	28246.27
457.97	27779.33
458.176	26937.62
458.381	27123.98
458.587	25577.76
458.793	25540.9
458.999	24076.6
459.204	25825.57
459.41	25399.59
459.616	23789.89
459.821	23732.54
460.027	23572.8
460.233	23044.43
460.438	22004.06
460.644	22407.51
460.85	21082.47
461.055	21006.7
461.261	20873.58
461.466	19194.25
461.672	18657.68
461.878	20214.13
462.083	18745.74
462.289	18440.59
462.494	18110.87
462.7	17377.7
462.905	16900.52
463.111	17613.21
463.316	17781.15
463.522	17050.02
463.727	17312.16
463.932	17254.82
464.138	16992.68
464.343	16947.62
464.549	16529.84
464.754	17238.44
464.959	17017.25
465.165	16849.32
465.37	16185.78
465.575	15505.85
465.781	16279.99
465.986	16658.86
466.191	15808.95
466.397	15583.68
466.602	14897.61
466.807	15253.95
467.012	15591.87
467.218	15401.41
467.423	15321.54
467.628	14989.77
467.833	16265.65
468.038	15387.07
468.244	15055.3
468.449	15495.61
468.654	15192.51
468.859	14854.6
469.064	14594.51
469.269	14160.34
469.474	14406.09
469.679	14645.71
469.885	14182.87
470.09	14406.09
470.295	14350.8
470.5	13795.8
470.705	13789.66
470.91	13521.37
471.115	13541.85
471.32	13631.96
471.525	13541.85
471.73	13435.36
471.935	13195.75
472.139	12616.17
472.344	12898.79
472.549	12913.13
472.754	12511.72
472.959	12325.36
473.164	12104.18
473.369	11969.01
473.574	12501.48
473.778	12270.06
473.983	12085.75
474.188	12341.74
474.393	11610.62
474.598	11583.99
474.802	11409.92
475.007	11481.6
475.212	11391.48
475.417	11203.07
475.621	11002.37
475.826	10992.13
476.031	10686.98
476.235	10873.35
476.44	10916.36
476.645	10727.94
476.849	10510.86
477.054	10484.23
477.259	10328.59
477.463	10373.64
477.668	10140.18
477.872	10334.73
478.077	10127.89
478.282	9699.86
478.486	9773.59
478.691	9499.16
478.895	9697.81
479.1	9685.53
479.304	9599.51
479.509	9302.56
479.713	9579.03
479.918	9257.5
480.122	9126.43
480.326	9277.98
480.531	9155.1
480.735	9237.02
480.94	9024.03
481.144	9466.39
481.348	9134.62
481.553	8886.82
481.757	8786.47
481.961	8935.97
482.166	8948.26
482.37	8983.07
482.574	8782.37
482.778	8956.45
482.983	9103.9
483.187	9044.51
483.391	8940.07
483.595	8831.52
483.8	8727.08
484.004	9036.32
484.208	8929.83
484.412	9003.55
484.616	8942.11
484.821	8911.39
485.025	8757.8
485.229	8905.25
485.433	8729.13
485.637	8794.66
485.841	8852
486.045	8788.52
486.249	9019.94
486.453	8632.87
486.657	8800.8
486.861	8866.34
487.065	8733.22
487.269	8976.93
487.473	8690.21
487.677	8823.33
487.881	8911.39
488.085	8729.13
488.289	8796.71
488.493	8751.65
488.697	9007.65
488.901	9050.66
489.105	8870.44
489.309	8892.96
489.512	8905.25
489.716	9163.29
489.92	8931.87
490.124	8829.48
490.328	9169.44
490.531	8976.93
490.735	9108
490.939	9269.79
491.143	9255.45
491.346	9069.09
491.55	9204.25
491.754	9267.74
491.958	9179.68
492.161	9112.1
492.365	9288.22
492.569	9251.36
492.772	9216.54
492.976	9257.5
493.18	9558.55
493.383	9630.23
493.587	9482.78
493.79	9796.12
493.994	9671.19
494.197	9576.98
494.401	9726.49
494.605	9828.88
494.808	10082.83
495.012	9984.53
495.215	10142.22
495.419	10117.65
495.622	10256.91
495.825	10170.9
496.029	10236.43
496.232	10723.85
496.436	10627.59
496.639	10717.7
496.843	10615.3
497.046	10715.66
497.249	10983.94
497.453	11110.91
497.656	11151.87
497.859	11164.16
498.063	11434.49
498.266	11575.8
498.469	11450.88
498.673	11602.43
498.876	11665.91
499.079	11913.72
499.282	11930.1
499.485	12122.61
499.689	12323.31
499.892	12349.93
500.095	12597.74
500.298	12810.73
500.501	12548.59
500.705	12913.13
500.908	13451.74
501.111	13304.29
501.314	13373.92
501.517	13461.98
501.72	13703.64
501.923	13588.96
502.126	13949.4
502.329	14414.29
502.532	14322.13
502.735	14244.31
502.938	14522.83
503.141	14524.88
503.344	14905.8
503.547	14819.78
503.75	14961.09
503.953	15403.46
504.156	15589.82
504.359	15620.54
504.562	15616.44
504.765	16157.11
504.968	16050.61
505.17	16452.02
505.373	16445.87
505.576	16501.17
505.779	16722.35
505.982	17080.74
506.185	17041.83
506.387	17230.24
506.59	17496.48
506.793	17807.77
506.996	17631.65
507.198	18401.68
507.401	17863.07
507.604	18237.84
507.807	18813.32
508.009	18872.71
508.212	18735.5
508.415	19339.65
508.617	19229.06
508.82	19462.53
509.022	19345.8
509.225	19847.55
509.428	19720.57
509.63	20064.63
509.833	20466.03
510.035	20748.65
510.238	20384.12
510.44	20779.37
510.643	21045.61
510.845	21414.24
511.048	21197.16
511.25	21430.63
511.453	21668.19
511.655	22567.25
511.858	22294.87
512.06	22196.57
512.262	22571.35
512.465	22509.91
512.667	22772.05
512.87	23560.52
513.072	23157.07
513.274	23656.77
513.477	23773.5
513.679	24490.29
513.881	24381.75
514.084	24488.24
514.286	24869.17
514.488	24981.81
514.69	25588
514.893	25739.55
515.095	25407.78
515.297	25981.21
515.499	25987.36
515.701	26452.25
515.904	26568.98
516.106	26673.43
516.308	27212.04
516.51	27316.49
516.712	26960.14
516.914	27408.65
517.116	28115.2
517.318	27879.68
517.52	28168.44
517.722	28420.35
517.925	28588.28
518.127	28985.58
518.329	29429.99
518.531	29077.74
518.733	29614.31
518.935	29835.49
519.136	29948.13
519.338	30109.92
519.54	30410.97
519.742	30927.06
519.944	30691.54
520.146	31054.03
520.348	31267.02
520.55	31676.62
520.752	32059.59
520.954	32215.23
521.155	31985.86
521.357	32653.5
521.559	32633.02
521.761	32903.35
521.963	32942.26
522.164	32970.93
522.366	33181.87
522.568	34005.16
522.77	33433.77
522.971	34128.03
523.173	34001.06
523.375	34332.83
523.576	34279.58
523.778	34508.96
523.98	34887.83
524.181	34623.64
524.383	35041.43
524.584	35266.7
524.786	35575.95
524.988	35381.39
525.189	35674.25
525.391	36233.35
525.592	36282.5
525.794	36184.19
525.995	36184.19
526.197	36372.61
526.398	36499.58
526.6	36556.92
526.801	36814.97
527.003	36978.81
527.204	36909.18
527.406	37374.06
527.607	37142.64
527.808	37695.6
528.01	36749.43
528.211	37118.07
528.412	37773.42
528.614	37779.56
528.815	37736.55
529.016	38269.03
529.218	37646.44
529.419	38205.54
529.62	37955.69
529.822	38105.19
530.023	38127.72
530.224	38455.39
530.425	38195.3
530.626	37949.54
530.828	38256.74
531.029	38832.22
531.23	38330.47
531.431	38416.48
531.632	38531.17
531.833	38695
532.035	38420.58
532.236	39034.97
532.437	38600.8
532.638	38713.44
532.839	38791.26
533.04	39014.49
533.241	38430.82
533.442	39172.18
533.643	38705.24
533.844	38994.01
534.045	38641.76
534.246	38666.33
534.447	39061.59
534.648	38654.04
534.849	38580.32
535.05	38682.72
535.251	39000.15
535.451	38664.28
535.652	39415.89
535.853	39030.87
536.054	39139.41
536.255	39606.35
536.456	38719.58
536.657	39643.21
536.857	38631.52
537.058	38697.05
537.259	39329.87
537.46	38901.85
537.66	38885.47
537.861	39321.68
538.062	38695
538.263	38844.51
538.463	38494.3
538.664	39041.11
538.865	38928.47
539.065	39565.39
539.266	38428.77
539.466	39333.97
539.667	38948.95
539.868	38971.48
540.068	38744.16
540.269	38914.14
540.469	39106.65
540.67	38365.28
540.87	38989.91
541.071	38723.68
541.271	39059.54
541.472	38957.14
541.672	39239.76
541.873	38465.63
542.073	38387.81
542.274	38955.1
542.474	38748.25
542.675	38316.13
542.875	38785.11
543.075	39090.26
543.276	38670.43
543.476	38965.34
543.676	38752.35
543.877	38893.66
544.077	38473.82
544.277	38565.98
544.478	38363.23
544.678	38973.53
544.878	38107.24
545.078	38897.75
545.279	38303.84
545.479	38328.42
545.679	38594.65
545.879	38666.33
546.079	38594.65
546.28	38301.79
546.48	38168.68
546.68	38498.4
546.88	38410.34
547.08	38752.35
547.28	38414.43
547.48	38002.79
547.68	38316.13
547.88	37918.82
548.081	38557.79
548.281	38273.12
548.481	38170.72
548.681	38621.28
548.881	37918.82
549.081	38264.93
549.28	37955.69
549.48	38494.3
549.68	38072.42
549.88	38596.7
550.08	38269.03
550.28	38205.54
550.48	38209.64
550.68	38391.9
550.88	37783.66
551.08	38217.83
551.279	38266.98
551.479	37994.6
551.679	38211.68
551.879	38656.09
552.079	38240.36
552.278	37998.69
552.478	37961.83
552.678	38010.98
552.878	37984.36
553.077	38416.48
553.277	37548.14
553.477	38246.5
553.676	37900.39
553.876	38103.14
554.076	37943.4
554.275	37726.31
554.475	37527.66
554.674	38010.98
554.874	37851.24
555.074	37705.84
555.273	37890.15
555.473	37795.95
555.672	37558.38
555.872	38053.99
556.071	38006.89
556.271	37691.5
556.47	37378.16
556.67	36960.37
556.869	37279.86
557.068	37656.68
557.268	37056.63
557.467	37394.54
557.667	37582.96
557.866	37230.71
558.065	37179.51
558.265	36833.4
558.464	36458.62
558.663	37523.57
558.863	36782.2
559.062	37300.34
559.261	36692.09
559.461	37410.93
559.66	36800.63
559.859	37068.92
560.058	36749.43
560.258	36802.68
560.457	36626.56
560.656	37064.82
560.855	36860.02
561.054	37052.53
561.253	36515.97
561.453	36505.73
561.652	36452.48
561.851	36581.5
562.05	36288.64
562.249	36259.97
562.448	36491.39
562.647	36475.01
562.846	36317.31
563.045	36196.48
563.244	36266.11
563.443	36388.99
563.642	35582.09
563.841	36282.5
564.04	35672.2
564.239	36284.54
564.438	35563.66
564.637	35432.59
564.836	35569.8
565.035	35541.13
565.234	35592.33
565.432	35297.42
565.631	35303.57
565.83	35580.04
566.029	35272.85
566.228	34871.45
566.427	35104.91
566.625	35313.81
566.824	34586.78
567.023	35250.32
567.222	34255.01
567.42	35045.52
567.619	34723.99
567.818	34855.06
568.016	34891.93
568.215	34896.02
568.414	34558.11
568.612	34461.85
568.811	34271.39
569.01	34336.93
569.208	33728.68
569.407	34318.49
569.605	33777.83
569.804	34511
570.002	33673.38
570.201	34115.75
570.4	33927.33
570.598	33415.34
570.797	33710.25
570.995	33611.95
571.193	33345.71
571.392	33915.05
571.59	33013.94
571.789	33312.94
571.987	33235.12
572.186	33142.96
572.384	32850.1
572.582	33110.19
572.781	33403.05
572.979	32942.26
573.177	32997.56
573.376	32981.17
573.574	32422.08
573.772	32856.25
573.971	32569.53
574.169	32630.97
574.367	32549.05
574.565	32448.7
574.763	32303.29
574.962	32108.74
575.16	31633.61
575.358	32043.2
575.556	31768.77
575.754	31930.56
575.952	31774.92
576.151	32223.42
576.349	31461.58
576.547	31727.81
576.745	31703.24
576.943	31680.71
577.141	31674.57
577.339	31561.93
577.537	31209.68
577.735	31070.42
577.933	31074.51
578.131	31250.64
578.329	30961.87
578.527	30542.04
578.725	30693.59
578.923	30845.14
579.121	30871.76
579.319	30193.89
579.516	30318.81
579.714	30552.28
579.912	30316.76
580.11	30040.29
580.308	30238.94
580.506	30480.6
580.704	29923.55
580.901	30038.24
581.099	30421.21
581.297	29980.9
581.495	29745.38
581.692	30038.24
581.89	29530.34
582.088	29929.7
582.285	29550.82
582.483	29585.64
582.681	29317.36
582.878	29188.33
583.076	29268.2
583.274	29618.41
583.471	28989.68
583.669	29010.16
583.866	28928.24
584.064	29018.35
584.262	28834.03
584.459	29135.09
584.657	28600.57
584.854	29008.11
585.052	28127.49
585.249	28344.57
585.447	28553.46
585.644	28188.92
585.841	28340.47
586.039	28483.83
586.236	28162.3
586.434	28102.91
586.631	27932.93
586.828	27773.19
587.026	27898.11
587.223	27810.05
587.42	27527.43
587.618	27746.56
587.815	27701.51
588.012	27373.83
588.21	27461.9
588.407	27842.82
588.604	27519.24
588.801	27025.68
588.999	27029.77
589.196	27312.39
589.393	26876.18
589.59	27074.83
589.787	26761.49
589.984	26806.55
590.182	26372.38
590.379	26976.53
590.576	26458.39
590.773	26636.56
590.97	26482.97
591.167	26564.89
591.364	26304.79
591.561	26427.67
591.758	26048.8
591.955	25860.38
592.152	25993.5
592.349	25700.64
592.546	25817.38
592.743	25755.94
592.94	25444.65
593.137	25811.23
593.334	25698.59
593.531	25235.75
593.727	25551.14
593.924	25381.16
594.121	24981.81
594.318	25497.89
594.515	25151.79
594.712	25114.92
594.908	24576.31
595.105	25010.48
595.302	24561.97
595.499	24744.24
595.696	24615.22
595.892	24578.36
596.089	24897.84
596.286	24715.57
596.482	24645.94
596.679	24389.94
596.876	24578.36
597.072	24199.48
597.269	24000.83
597.466	24107.32
597.662	23982.4
597.859	23966.01
598.055	23888.19
598.252	23789.89
598.448	23728.45
598.645	23871.81
598.841	23546.18
599.038	23802.18
599.234	23636.29
599.431	23243.08
599.627	22987.08
599.824	23294.28
600.02	23261.51
600.217	23441.73
600.413	23187.78
600.609	23322.95
600.806	22653.26
601.002	22956.36
601.198	22694.22
601.395	22432.08
601.591	22602.07
601.787	22706.51
601.984	22042.97
602.18	22618.45
602.376	22352.21
602.572	21928.28
602.769	22225.24
602.965	22032.73
603.161	22268.25
603.357	21846.37
603.553	21533.03
603.75	22094.17
603.946	21709.15
604.142	22036.83
604.338	21352.8
604.534	21868.89
604.73	21492.07
604.926	21373.28
605.122	21567.84
605.318	21600.61
605.514	21440.87
605.71	21361
605.906	21543.27
606.102	21344.61
606.298	21313.89
606.494	20885.87
606.69	21064.04
606.886	20984.17
607.082	20904.3
607.278	20894.06
607.474	20588.91
607.67	20904.3
607.866	20636.02
608.062	21033.32
608.257	20515.19
608.453	20531.57
608.649	20683.12
608.845	20476.27
609.041	20459.89
609.236	20638.06
609.432	20101.5
609.628	20230.52
609.824	20244.85
610.019	20326.77
610.215	20062.58
610.411	20308.34
610.606	19974.52
610.802	19968.38
610.998	20267.38
611.193	20103.54
611.389	19579.26
611.584	19913.08
611.78	19581.31
611.976	19700.09
612.171	19747.2
612.367	19759.49
612.562	19833.21
612.758	19634.56
612.953	19470.72
613.149	20064.63
613.344	19061.13
613.539	19667.33
613.735	19499.39
613.93	19452.29
614.126	19050.89
614.321	19700.09
614.517	19067.27
614.712	19480.96
614.907	19274.12
615.103	19222.92
615.298	19274.12
615.493	19384.71
615.688	18788.75
615.884	19667.33
616.079	18950.54
616.274	19087.75
616.47	19102.09
616.665	18950.54
616.86	19050.89
617.055	18850.19
617.25	18735.5
617.445	18846.09
617.641	18631.05
617.836	18639.25
618.031	18420.11
618.226	18680.21
618.421	18495.89
618.616	18768.27
618.811	18409.87
619.006	18717.07
619.201	18219.41
619.396	18110.87
619.591	18211.22
619.786	18436.5
619.981	17973.66
620.176	18020.76
620.371	17987.99
620.566	18096.53
620.761	17889.69
620.956	17594.78
621.151	17590.69
621.346	17625.5
621.541	17424.8
621.735	17684.89
621.93	17211.81
622.125	17369.51
622.32	17000.87
622.515	17113.51
622.709	16748.97
622.904	16900.52
623.099	16705.96
623.294	17086.89
623.488	16576.94
623.683	16628.14
623.878	16474.54
624.072	16456.11
624.267	16279.99
624.462	16482.74
624.656	16216.5
624.851	16085.43
625.046	16185.78
625.24	16073.14
625.435	15874.49
625.629	15845.82
625.824	15755.71
626.018	15858.1
626.213	15233.47
626.407	15624.64
626.602	15077.83
626.796	15403.46
626.991	15202.75
627.185	15229.38
627.38	15049.16
627.574	14854.6
627.768	14860.74
627.963	14729.67
628.157	14657.99
628.352	14571.98
628.546	14457.29
628.74	14731.72
628.935	14432.72
629.129	14356.94
629.323	14254.55
629.517	14053.84
629.712	14096.85
629.906	14076.37
630.1	13662.68
630.294	13945.3
630.489	13824.47
630.683	13930.97
630.877	13543.9
631.071	13535.71
631.265	13736.41
631.459	13388.25
631.653	13388.25
631.848	13478.36
632.042	13189.6
632.236	13316.58
632.43	13017.57
632.624	13228.51
632.818	13070.82
633.012	12886.5
633.206	12737
633.4	12931.56
633.594	12575.21
633.788	12829.16
633.982	12618.22
634.176	12548.59
634.369	12247.54
634.563	12409.33
634.757	12356.08
634.951	12286.45
635.145	12136.95
635.339	12286.45
635.533	11938.29
635.726	11952.63
635.92	11760.12
636.114	12151.28
636.308	11696.63
636.501	11663.86
636.695	11565.56
636.889	11500.03
637.083	11497.98
637.276	11438.59
637.47	11465.21
637.664	11409.92
637.857	11573.75
638.051	11188.74
638.244	11190.78
638.438	11104.77
638.632	11127.3
638.825	11047.43
639.019	10732.04
639.212	10828.29
639.406	10762.76
639.599	11037.19
639.793	10846.73
639.986	10607.11
640.18	10635.78
640.373	10529.29
640.567	10594.82
640.76	10551.82
640.954	10287.63
641.147	10404.36
641.34	10420.75
641.534	10402.32
641.727	10193.42
641.92	10265.1
642.114	10080.78
642.307	10107.41
642.5	10058.26
642.694	9992.72
642.887	9849.36
643.08	10078.74
643.273	9789.97
643.467	9654.81
643.66	9642.52
643.853	9619.99
644.046	9513.5
644.239	9419.29
644.432	9503.26
644.626	9652.76
644.819	9452.06
645.012	9398.81
645.205	9247.26
645.398	9284.12
645.591	9083.42
645.784	9349.66
645.977	9148.96
646.17	9118.24
646.363	9024.03
646.556	8806.95
646.749	8888.87
646.942	8919.59
647.135	8671.78
647.328	8755.75
647.521	8712.74
647.714	8772.13
647.907	8663.59
648.099	8809
648.292	8421.93
648.485	8337.96
648.678	8145.45
648.871	8430.12
649.064	8571.43
649.256	8247.85
649.449	8108.59
649.642	8305.2
649.835	8270.38
650.027	7950.9
650.22	8129.07
650.413	8157.74
650.605	8045.1
650.798	8045.1
650.991	8041.01
651.183	7868.98
651.376	7791.16
651.568	7823.92
651.761	7606.84
651.954	7860.79
652.146	7637.56
652.339	7797.3
652.531	7561.78
652.724	7533.11
652.916	7371.32
653.109	7670.33
653.301	7545.4
653.494	7471.67
653.686	7395.9
653.879	7434.81
654.071	7260.73
654.263	7223.87
654.456	7313.98
654.648	7215.68
654.84	7215.68
655.033	7129.66
655.225	6937.15
655.417	7047.74
655.61	7062.08
655.802	7029.31
655.994	7029.31
656.186	7025.22
656.379	7072.32
656.571	6904.39
656.763	6679.11
656.955	6836.8
657.148	6855.23
657.34	6820.42
657.532	6435.4
657.724	6666.82
657.916	6443.59
658.108	6718.02
658.3	6558.28
658.492	6496.84
658.684	6437.45
658.876	6494.79
659.068	6363.72
659.26	6464.07
659.452	6400.59
659.644	6453.83
659.836	6320.71
660.028	6384.2
660.22	6167.12
660.412	6455.88
660.604	6034
660.796	6027.85
660.988	6210.12
661.18	6052.43
661.372	5939.79
661.563	5943.89
661.755	6013.52
661.947	5933.65
662.139	5892.69
662.331	5962.32
662.522	5864.02
662.714	5861.97
662.906	5802.58
663.097	5706.32
663.289	5640.79
663.481	5681.75
663.673	5759.57
663.864	5372.5
664.056	5528.15
664.247	5554.77
664.439	5474.9
664.631	5630.55
664.822	5648.98
665.014	5444.18
665.205	5493.33
665.397	5386.84
665.588	5405.27
665.78	5409.37
665.971	5327.45
666.163	5364.31
666.354	5333.59
666.546	5354.07
666.737	5208.67
666.929	5171.8
667.12	5132.89
667.311	5208.67
667.503	5087.84
667.694	5083.74
667.885	5188.19
668.077	5044.83
668.268	4917.86
668.459	5012.06
668.651	4973.15
668.842	4993.63
669.033	4971.1
669.224	4872.8
669.416	4868.7
669.607	4872.8
669.798	4854.37
669.989	5044.83
670.18	4747.87
670.371	4653.67
670.563	4723.3
670.754	4682.34
670.945	4676.2
671.136	4645.48
671.327	4768.35
671.518	4661.86
671.709	4639.33
671.9	4713.06
672.091	4663.91
672.282	4692.58
672.473	4635.24
672.664	4596.32
672.855	4530.79
673.046	4432.49
673.237	4608.61
673.428	4440.68
673.619	4561.51
673.809	4465.25
674	4448.87
674.191	4375.14
674.382	4321.9
674.573	4338.28
674.764	4272.75
674.954	4459.11
675.145	4270.7
675.336	4272.75
675.527	4401.77
675.717	4272.75
675.908	4182.63
676.099	4250.22
676.289	4174.44
676.48	4158.06
676.671	4098.67
676.861	4145.77
677.052	4090.48
677.243	4287.08
677.433	4196.97
677.624	4147.82
677.814	3967.6
678.005	4090.48
678.195	4096.62
678.386	4110.96
678.576	3955.31
678.767	3983.98
678.957	3955.31
679.148	4102.76
679.338	4078.19
679.529	3983.98
679.719	3969.65
679.909	3836.53
680.1	3938.93
680.29	3881.58
680.481	4049.52
680.671	3940.97
680.861	3981.93
681.052	3893.87
681.242	3844.72
681.432	3908.21
681.622	3918.45
681.813	3930.73
682.003	3719.79
682.193	3719.79
682.383	3857.01
682.573	3732.08
682.764	3795.57
682.954	3750.51
683.144	3836.53
683.334	3787.38
683.524	3844.72
683.714	3863.15
683.904	3738.23
684.094	3725.94
684.284	3699.31
684.474	3918.45
684.664	3594.87
684.854	3818.1
685.044	3717.75
685.234	3453.56
685.424	3672.69
685.614	3658.35
685.804	3584.63
685.994	3601.01
686.184	3652.21
686.374	3615.35
686.564	3502.71
686.753	3682.93
686.943	3527.28
687.133	3492.47
687.323	3586.68
687.513	3570.29
687.702	3469.94
687.892	3457.65
688.082	3500.66
688.272	3465.85
688.461	3373.69
688.651	3467.89
688.841	3330.68
689.03	3230.33
689.22	3375.74
689.41	3181.18
689.599	3357.3
689.789	3355.26
689.979	3308.15
690.168	3181.18
690.358	3269.24
690.547	3277.43
690.737	3349.11
690.926	3326.58
691.116	3074.68
691.305	3232.38
691.495	3052.16
691.684	3170.94
691.874	3076.73
692.063	3160.7
692.252	3144.31
692.442	3072.64
692.631	3142.27
692.82	3086.97
693.01	3080.83
693.199	2964.09
693.388	2902.65
693.578	3160.7
693.767	2976.38
693.956	3029.63
694.146	2972.29
694.335	2978.43
694.524	2945.66
694.713	3070.59
694.902	2873.98
695.092	2857.6
695.281	2851.46
695.47	2783.87
695.659	2701.95
695.848	2802.3
696.037	2871.93
696.226	2726.53
696.415	2794.11
696.604	2853.5
696.793	2900.61
696.982	2755.2
697.171	2814.59
697.36	2884.22
697.549	2732.67
697.738	2755.2
697.927	2695.81
698.116	2738.82
698.305	2765.44
698.494	2781.82
698.683	2607.75
698.872	2650.75
699.061	2685.57
699.25	2695.81
699.438	2685.57
699.627	2591.36
699.816	2759.3
700.005	2650.75
700.193	2493.06
700.382	2767.49
700.571	2691.71
700.76	2611.84
700.948	2663.04
701.137	2486.92
701.326	2540.16
701.514	2577.03
701.703	2605.7
701.892	2552.45
702.08	2615.94
702.269	2595.46
702.457	2554.5
702.646	2433.67
702.834	2552.45
703.023	2538.12
703.212	2534.02
703.4	2546.31
703.589	2554.5
703.777	2548.36
703.965	2398.85
704.154	2419.33
704.342	2538.12
704.531	2488.96
704.719	2454.15
704.907	2400.9
705.096	2472.58
705.284	2517.64
705.472	2361.99
705.661	2339.46
705.849	2507.4
706.037	2443.91
706.226	2591.36
706.414	2361.99
706.602	2427.53
706.79	2480.77
706.979	2540.16
707.167	2456.2
707.355	2296.46
707.543	2560.64
707.731	2382.47
707.919	2386.57
708.107	2345.61
708.296	2323.08
708.484	2513.54
708.672	2462.34
708.86	2458.25
709.048	2411.14
709.236	2425.48
709.424	2439.81
709.612	2474.63
709.8	2386.57
709.988	2415.24
710.176	2509.44
710.364	2327.18
710.551	2349.7
710.739	2491.01
710.927	2349.7
711.115	2433.67
711.303	2353.8
711.491	2347.65
711.679	2347.65
711.866	2499.2
712.054	2394.76
712.242	2413.19
712.43	2394.76
712.617	2312.84
712.805	2429.57
712.993	2450.05
713.181	2261.64
713.368	2353.8
713.556	2417.29
713.744	2247.3
713.931	2460.29
714.119	2349.7
714.306	2296.46
714.494	2226.82
714.682	2415.24
714.869	2292.36
715.057	2452.1
715.244	2368.13
715.432	2261.64
715.619	2314.89
715.807	2407.05
715.994	2368.13
716.182	2239.11
716.369	2294.41
716.556	2398.85
716.744	2257.54
716.931	2370.18
717.119	2347.65
717.306	2339.46
717.493	2239.11
717.681	2382.47
717.868	2374.28
718.055	2376.33
718.242	2302.6
718.43	2407.05
718.617	2437.77
718.804	2286.22
718.991	2202.25
719.179	2284.17
719.366	2282.12
719.553	2388.61
719.74	2411.14
719.927	2329.22
720.114	2425.48
720.301	2349.7
720.488	2321.03
720.676	2280.07
720.863	2474.63
721.05	2300.55
721.237	2390.66
721.424	2400.9
721.611	2292.36
721.798	2386.57
721.985	2378.37
722.172	2247.3
722.358	2216.58
722.545	2345.61
722.732	2325.13
722.919	2355.85
723.106	2347.65
723.293	2257.54
723.48	2304.65
723.667	2204.3
723.853	2316.94
724.04	2296.46
724.227	2349.7
724.414	2402.95
724.6	2308.74
724.787	2314.89
724.974	2275.98
725.161	2372.23
725.347	2308.74
725.534	2345.61
725.72	2300.55
725.907	2275.98
726.094	2267.78
726.28	2382.47
726.467	2228.87
726.653	2341.51
726.84	2296.46
727.027	2384.52
727.213	2275.98
727.4	2431.62
727.586	2335.37
727.773	2329.22
727.959	2361.99
728.145	2409.09
728.332	2237.06
728.518	2304.65
728.705	2325.13
728.891	2339.46
729.077	2341.51
729.264	2327.18
729.45	2327.18
729.636	2382.47
729.823	2316.94
730.009	2392.71
730.195	2327.18
730.382	2501.25
730.568	2310.79
730.754	2419.33
730.94	2302.6
731.126	2364.04
731.313	2435.72
731.499	2402.95
731.685	2290.31
731.871	2288.26
732.057	2351.75
732.243	2407.05
732.429	2441.86
732.615	2347.65
732.801	2366.09
732.987	2335.37
733.173	2439.81
733.359	2427.53
733.545	2271.88
733.731	2069.13
733.917	2357.89
734.103	2452.1
734.289	2407.05
734.475	2284.17
734.661	2468.48
734.847	2308.74
735.033	2460.29
735.219	2335.37
735.404	2335.37
735.59	2359.94
735.776	2253.45
735.962	2419.33
736.148	2361.99
736.333	2409.09
736.519	2177.67
736.705	2296.46
736.89	2431.62
737.076	2339.46
737.262	2280.07
737.447	2300.55
737.633	2355.85
737.819	2296.46
738.004	2257.54
738.19	2251.4
738.375	2302.6
738.561	2325.13
738.747	2312.84
738.932	2253.45
739.118	2384.52
739.303	2273.93
739.489	2314.89
739.674	2312.84
739.859	2335.37
740.045	2257.54
740.23	2269.83
740.416	2284.17
740.601	2255.5
740.786	2286.22
740.972	2280.07
741.157	2232.97
741.342	2267.78
741.528	2181.77
741.713	2357.89
741.898	2257.54
742.084	2208.39
742.269	2226.82
742.454	2200.2
742.639	2187.91
742.824	2243.21
743.01	2097.8
743.195	2302.6
743.38	2157.19
743.565	2245.26
743.75	2224.78
743.935	2175.63
744.12	2189.96
744.305	2110.09
744.49	2120.33
744.675	2146.95
744.86	1997.45
745.045	2044.56
745.23	2110.09
745.415	2075.28
745.6	2140.81
745.785	2034.32
745.97	2009.74
746.155	2095.75
746.34	2071.18
746.525	2079.37
746.71	2142.86
746.895	2026.12
747.079	1956.49
747.264	2001.55
747.449	2024.08
747.634	2017.93
747.819	2065.04
748.003	2022.03
748.188	1938.06
748.373	1993.36
748.557	1974.92
748.742	1890.96
748.927	1968.78
749.111	2022.03
749.296	1761.94
749.481	1921.68
749.665	1921.68
749.85	1833.61
750.034	1827.47
750.219	1845.9
750.404	1854.09
750.588	1790.61
750.773	1811.09
750.957	1784.46
751.141	1804.94
751.326	1725.07
751.51	1673.87
751.695	1706.64
751.879	1696.4
752.064	1747.6
752.248	1696.4
752.432	1768.08
752.617	1825.42
752.801	1700.5
752.985	1641.11
753.17	1761.94
753.354	1694.35
753.538	1688.21
753.722	1790.61
753.907	1553.04
754.091	1583.76
754.275	1524.37
754.459	1637.01
754.643	1634.96
754.828	1532.56
755.012	1559.19
755.196	1567.38
755.38	1526.42
755.564	1536.66
755.748	1499.8
755.932	1487.51
756.116	1546.9
756.3	1481.36
756.484	1557.14
756.668	1444.5
756.852	1528.47
757.036	1477.27
757.22	1374.87
757.404	1507.99
757.588	1376.92
757.772	1450.64
757.956	1481.36
758.14	1460.88
758.323	1399.45
758.507	1399.45
758.691	1436.31
758.875	1409.69
759.059	1413.78
759.242	1340.05
759.426	1354.39
759.61	1362.58
759.794	1307.29
759.977	1286.81
760.161	1393.3
760.345	1297.05
760.528	1335.96
760.712	1360.53
760.895	1338.01
761.079	1317.53
761.263	1344.15
761.446	1245.85
761.63	1272.47
761.813	1295
761.997	1225.37
762.18	1127.07
762.364	1227.42
762.547	1249.94
762.731	1204.89
762.914	1223.32
763.098	1223.32
763.281	1272.47
763.464	1082.01
763.648	1200.79
763.831	1161.88
764.015	1206.94
764.198	1139.35
764.381	1159.83
764.564	1202.84
764.748	1118.87
764.931	1174.17
765.114	1102.49
765.297	1122.97
765.481	1104.54
765.664	1116.83
765.847	1084.06
766.03	1168.02
766.213	1049.24
766.397	1133.21
766.58	1163.93
766.763	1116.83
766.946	1108.63
767.129	1215.13
767.312	1065.63
767.495	1041.05
767.678	1030.81
767.861	1053.34
768.044	1131.16
768.227	1022.62
768.41	1059.48
768.593	1098.39
768.776	1018.52
768.959	991.9
769.142	993.95
769.324	965.28
769.507	1125.02
769.69	1043.1
769.873	1053.34
770.056	1098.39
770.239	1004.19
770.421	924.32
770.604	996
770.787	952.99
770.97	1016.48
771.152	969.37
771.335	983.71
771.518	875.17
771.7	1032.86
771.883	985.76
772.066	969.37
772.248	914.08
772.431	912.03
772.613	989.85
772.796	1000.09
772.978	924.32
773.161	938.65
773.343	991.9
773.526	838.3
773.708	899.74
773.891	842.4
774.073	1020.57
774.256	891.55
774.438	961.18
774.621	916.12
774.803	914.08
774.985	875.17
775.168	823.97
775.35	877.21
775.532	887.45
775.715	891.55
775.897	817.82
776.079	856.73
776.261	793.25
776.444	797.34
776.626	881.31
776.808	846.49
776.99	826.01
777.173	877.21
777.355	873.12
777.537	826.01
777.719	729.76
777.901	703.14
778.083	791.2
778.265	686.75
778.447	735.9
778.629	703.14
778.811	733.86
778.993	762.53
779.175	746.14
779.357	735.9
779.539	725.66
779.721	727.71
779.903	717.47
780.085	682.66
780.267	699.04
780.449	613.03
780.631	719.52
780.812	676.51
780.994	617.12
781.176	676.51
781.358	752.29
781.54	692.9
781.721	649.89
781.903	574.11
782.085	551.59
782.267	676.51
782.448	570.02
782.63	604.83
782.812	653.98
782.993	621.22
783.175	565.92
783.357	563.87
783.538	545.44
783.72	539.3
783.901	641.7
784.083	627.36
784.264	682.66
784.446	553.63
784.627	533.15
784.809	559.78
784.99	555.68
785.172	492.2
785.353	486.05
785.535	567.97
785.716	496.29
785.897	547.49
786.079	537.25
786.26	508.58
786.441	508.58
786.623	475.81
786.804	422.56
786.985	492.2
787.167	502.43
787.348	498.34
787.529	420.52
787.71	500.39
787.891	443.04
788.073	486.05
788.254	479.91
788.435	494.24
788.616	498.34
788.797	455.33
788.978	389.8
789.159	408.23
789.34	459.43
789.522	430.76
789.703	406.18
789.884	481.96
790.065	430.76
790.246	527.01
790.427	504.48
790.607	387.75
790.788	457.38
790.969	373.41
791.15	441
791.331	434.85
791.512	367.27
791.693	359.08
791.874	465.57
792.054	494.24
792.235	428.71
792.416	385.7
792.597	311.97
792.778	432.8
792.958	451.24
793.139	324.26
793.32	383.65
793.5	299.69
793.681	455.33
793.862	334.5
794.042	371.37
794.223	295.59
794.404	397.99
794.584	338.6
794.765	371.37
794.945	381.6
795.126	357.03
795.306	404.13
795.487	342.69
795.667	295.59
795.848	400.04
796.028	275.11
796.209	400.04
796.389	397.99
796.57	420.52
796.75	338.6
796.93	332.45
797.111	338.6
797.291	295.59
797.471	324.26
797.652	279.21
797.832	256.68
798.012	346.79
798.192	299.69
798.373	324.26
798.553	305.83
798.733	393.89
798.913	273.06
799.093	268.97
799.274	354.98
799.454	338.6
799.634	293.54
799.814	340.65
799.994	279.21
800.174	277.16
800.354	293.54
800.534	289.45
800.714	258.73
800.894	217.77
801.074	314.02
801.254	297.64
801.434	320.17
801.614	197.29
801.794	246.44
801.974	656.03
802.154	193.19
802.334	297.64
802.514	164.52
802.693	166.57
802.873	311.97
803.053	256.68
803.233	260.77
803.413	232.1
803.592	219.82
803.772	225.96
803.952	189.1
804.131	262.82
804.311	248.49
804.491	285.35
804.67	215.72
804.85	283.3
805.03	232.1
805.209	295.59
805.389	281.25
805.568	260.77
805.748	182.95
805.928	297.64
806.107	189.1
806.287	205.48
806.466	182.95
806.646	201.38
806.825	203.43
807.004	234.15
807.184	211.62
807.363	258.73
807.543	211.62
807.722	203.43
807.901	209.58
808.081	262.82
808.26	244.39
808.439	228.01
808.619	164.52
808.798	139.94
808.977	232.1
809.156	273.06
809.336	158.38
809.515	209.58
809.694	109.22
809.873	205.48
810.052	197.29
810.231	287.4
810.411	166.57
810.59	223.91
810.769	262.82
810.948	262.82
811.127	213.67
811.306	242.34
811.485	174.76
811.664	217.77
811.843	191.14
812.022	160.42
812.201	252.58
812.38	232.1
812.559	230.06
812.737	238.25
812.916	256.68
813.095	174.76
813.274	203.43
813.453	256.68
813.632	213.67
813.811	240.3
813.989	146.09
814.168	252.58
814.347	133.8
814.526	211.62
814.704	195.24
814.883	193.19
815.062	207.53
815.24	195.24
815.419	240.3
815.598	133.8
815.776	115.37
815.955	156.33
816.133	115.37
816.312	178.86
816.49	172.71
816.669	205.48
816.847	176.81
817.026	137.9
817.204	209.58
817.383	197.29
817.561	154.28
817.74	252.58
817.918	121.51
818.097	113.32
818.275	240.3
818.453	232.1
818.632	154.28
818.81	191.14
818.988	96.94
819.167	135.85
819.345	193.19
819.523	92.84
819.701	103.08
819.879	160.42
820.058	127.66
820.236	156.33
820.414	150.18
820.592	129.7
820.77	88.75
820.948	176.81
821.127	111.27
821.305	133.8
821.483	86.7
821.661	180.9
821.839	146.09
822.017	127.66
822.195	195.24
822.373	141.99
822.551	76.46
822.729	170.66
822.907	72.36
823.085	125.61
823.262	88.75
823.44	70.31
823.618	72.36
823.796	113.32
823.974	113.32
824.152	211.62
824.329	160.42
824.507	148.14
824.685	101.03
824.863	35.5
825.04	144.04
825.218	121.51
825.396	121.51
825.574	43.69
825.751	98.99
825.929	170.66
826.107	125.61
826.284	96.94
826.462	158.38
826.639	76.46
826.817	47.79
826.994	98.99
827.172	49.83
827.349	133.8
827.527	92.84
827.704	115.37
827.882	121.51
828.059	49.83
828.237	74.41
828.414	121.51
828.591	84.65
828.769	150.18
828.946	101.03
829.124	92.84
829.301	60.07
829.478	70.31
829.655	41.64
829.833	80.55
830.01	64.17
830.187	58.03
830.364	37.55
830.542	141.99
830.719	135.85
830.896	86.7
831.073	199.34
831.25	76.46
831.427	33.45
831.604	74.41
831.782	88.75
831.959	131.75
832.136	51.88
832.313	141.99
832.49	115.37
832.667	82.6
832.844	78.51
833.021	109.22
833.198	47.79
833.374	86.7
833.551	119.46
833.728	45.74
833.905	119.46
834.082	105.13
834.259	119.46
834.436	72.36
834.612	55.98
834.789	92.84
834.966	70.31
835.143	55.98
835.319	96.94
835.496	68.27
835.673	113.32
835.85	117.42
836.026	117.42
836.203	123.56
836.38	125.61
836.556	141.99
836.733	92.84
836.909	94.89
837.086	131.75
837.262	96.94
837.439	17.07
837.616	80.55
837.792	53.93
837.968	115.37
838.145	107.18
838.321	60.07
838.498	47.79
838.674	131.75
838.851	51.88
839.027	98.99
839.203	43.69
839.38	150.18
839.556	53.93
839.732	94.89
839.909	17.07
840.085	76.46
840.261	6.83
840.437	49.83
840.614	64.17
840.79	90.79
840.966	4.78
841.142	84.65
841.318	105.13
841.494	12.97
841.671	105.13
841.847	12.97
842.023	62.12
842.199	35.5
842.375	70.31
842.551	29.35
842.727	23.21
842.903	10.92
843.079	39.59
843.255	103.08
843.431	101.03
843.607	84.65
843.783	58.03
843.959	64.17
844.134	23.21
844.31	139.94
844.486	58.03
844.662	64.17
844.838	33.45
845.013	53.93
845.189	6.83
845.365	70.31
845.541	4.78
845.716	45.74
845.892	2.73
846.068	-7.51
846.244	49.83
846.419	60.07
846.595	8.87
846.77	51.88
846.946	86.7
847.122	17.07
847.297	41.64
847.473	148.14
847.648	39.59
847.824	-62.8
847.999	-9.56
848.175	84.65
848.35	19.11
848.526	84.65
848.701	15.02
848.876	144.04
849.052	19.11
849.227	98.99
849.403	88.75
849.578	41.64
849.753	-7.51
849.929	19.11
850.104	0.68
850.279	8.87
850.454	60.07
850.63	17.07
850.805	78.51
850.98	109.22
851.155	12.97
851.33	21.16
851.505	-19.8
851.681	-23.89
851.856	12.97
852.031	33.45
852.206	64.17
852.381	76.46
852.556	-58.71
852.731	35.5
852.906	29.35
853.081	55.98
853.256	-15.7
853.431	53.93
853.606	23.21
853.781	2.73
853.956	66.22
854.131	72.36
854.305	19.11
854.48	10.92
854.655	49.83
854.83	8.87
855.005	62.12
855.18	29.35
855.354	92.84
855.529	29.35
855.704	15.02
855.879	2.73
856.053	49.83
856.228	86.7
856.403	-15.7
856.577	10.92
856.752	47.79
856.926	17.07
857.101	82.6
857.276	-44.37
857.45	35.5
857.625	101.03
857.799	-1.37
857.974	23.21
858.148	33.45
858.323	37.55
858.497	-1.37
858.672	51.88
858.846	37.55
859.02	58.03
859.195	-13.65
859.369	62.12
859.543	4.78
859.718	70.31
859.892	-5.46
860.066	-21.85
860.241	15.02
860.415	33.45
860.589	35.5
860.763	23.21
860.938	55.98
861.112	35.5
861.286	10.92
861.46	31.4
861.634	29.35
861.808	72.36
861.982	-21.85
862.157	27.31
862.331	-30.04
862.505	-32.08
862.679	-75.09
862.853	29.35
863.027	8.87
863.201	107.18
863.375	4.78
863.549	-21.85
863.722	31.4
863.896	35.5
864.07	-50.52
864.244	80.55
864.418	2.73
864.592	107.18
864.766	21.16
864.939	45.74
865.113	58.03
865.287	-40.28
865.461	53.93
865.634	90.79
865.808	31.4
865.982	-11.61
866.156	35.5
866.329	-21.85
866.503	60.07
866.676	55.98
866.85	-5.46
867.024	60.07
867.197	60.07
867.371	86.7
867.544	58.03
867.718	25.26
867.891	43.69
868.065	-11.61
868.238	8.87
868.412	41.64
868.585	2.73
868.759	25.26
868.932	23.21
869.105	82.6
869.279	35.5
869.452	-17.75
869.625	-32.08
869.799	80.55
869.972	-42.32
870.145	8.87
870.319	-19.8
870.492	4.78
870.665	55.98
870.838	0.68
871.011	33.45
871.185	-44.37
871.358	-21.85
871.531	-40.28
871.704	12.97
871.877	37.55
872.05	-15.7
872.223	-30.04
872.396	-1.37
872.569	135.85
872.742	-11.61
872.915	53.93
873.088	35.5
873.261	37.55
873.434	-34.13
873.607	49.83
873.78	51.88
873.953	0.68
874.126	-40.28
874.299	19.11
874.471	21.16
874.644	105.13
874.817	25.26
874.99	12.97
875.163	58.03
875.335	43.69
875.508	-21.85
875.681	8.87
875.853	41.64
876.026	55.98
876.199	-32.08
876.371	27.31
876.544	-25.94
876.717	0.68
876.889	29.35
877.062	55.98
877.234	8.87
877.407	-1.37
877.579	17.07
877.752	82.6
877.924	49.83
878.097	-13.65
878.269	58.03
878.442	21.16
878.614	-38.23
878.786	8.87
878.959	-3.41
879.131	-27.99
879.303	-56.66
879.476	2.73
879.648	27.31
879.82	98.99
879.993	-40.28
880.165	86.7
880.337	6.83
880.509	35.5
880.681	-9.56
880.854	-32.08
881.026	-23.89
881.198	10.92
881.37	72.36
881.542	98.99
881.714	-17.75
881.886	39.59
882.058	29.35
882.23	2.73
882.402	-52.56
882.574	8.87
882.746	-5.46
882.918	86.7
883.09	23.21
883.262	-5.46
883.434	-42.32
883.606	4.78
883.778	35.5
883.95	47.79
884.122	15.02
884.293	12.97
884.465	64.17
884.637	-40.28
884.809	35.5
884.98	78.51
885.152	15.02
885.324	29.35
885.496	-42.32
885.667	4.78
885.839	10.92
886.011	43.69
886.182	23.21
886.354	78.51
886.525	-36.18
886.697	-42.32
886.869	-32.08
887.04	45.74
887.212	-25.94
887.383	15.02
887.555	10.92
887.726	21.16
887.897	21.16
888.069	-17.75
888.24	8.87
888.412	-21.85
888.583	64.17
888.754	-11.61
888.926	17.07
889.097	19.11
889.268	-15.7
889.44	17.07
889.611	-134.48
889.782	-9.56
889.953	-62.8
890.125	17.07
890.296	10.92
890.467	31.4
890.638	-36.18
890.809	27.31
890.98	49.83
891.151	-62.8
891.323	4.78
891.494	6.83
891.665	-11.61
891.836	-32.08
892.007	-25.94
892.178	55.98
892.349	25.26
892.52	115.37
892.691	-3.41
892.862	-1.37
893.032	51.88
893.203	15.02
893.374	-15.7
893.545	60.07
893.716	8.87
893.887	10.92
894.057	23.21
894.228	8.87
894.399	-5.46
894.57	74.41
894.74	-5.46
894.911	-5.46
895.082	-5.46
895.253	8.87
895.423	-13.65
895.594	60.07
895.764	66.22
895.935	-44.37
896.106	-64.85
896.276	-38.23
896.447	-32.08
896.617	29.35
896.788	-68.95
896.958	10.92
897.129	-23.89
897.299	-44.37
897.47	90.79
897.64	88.75
897.81	53.93
897.981	-25.94
898.151	-36.18
898.322	12.97
898.492	-17.75
898.662	-25.94
898.832	-46.42
899.003	-34.13
899.173	-13.65
899.343	-38.23
899.513	21.16
