Data from USB4F104151__148__11-08-19-271.txt Node

Date: Wed Mar 12 11:08:19 EDT 2025
User: louis
Spectrometer: USB4F10415
Trigger mode: 4
Integration Time (sec): 2.000000E-2
Scans to average: 1
Electric dark correction enabled: true
Nonlinearity correction enabled: false
Boxcar width: 0
XAxis mode: Wavelengths
Number of Pixels in Spectrum: 3648
>>>>>Begin Spectral Data<<<<<
178.204	-37.03
178.424	-37.03
178.644	-37.03
178.864	-84.14
179.084	-139.43
179.304	20.31
179.524	-32.94
179.744	-71.85
179.964	36.69
180.184	67.41
180.404	46.93
180.624	-0.17
180.844	40.79
181.064	5.97
181.283	-20.65
181.503	-28.84
181.723	-63.66
181.943	-47.27
182.163	-45.23
182.383	-80.04
182.602	-51.37
182.822	-14.51
183.042	59.22
183.262	-32.94
183.482	24.4
183.701	30.55
183.921	-28.84
184.141	-71.85
184.361	40.79
184.58	10.07
184.8	-88.23
185.02	-49.32
185.239	8.02
185.459	34.64
185.679	63.32
185.898	44.88
186.118	46.93
186.338	-24.75
186.557	-37.03
186.777	38.74
186.997	12.12
187.216	-32.94
187.436	44.88
187.655	-16.55
187.875	5.97
188.095	-0.17
188.314	-61.61
188.534	32.6
188.753	8.02
188.973	-10.41
189.192	-10.41
189.412	26.45
189.631	61.27
189.851	38.74
190.07	-20.65
190.29	8.02
190.509	8.02
190.729	42.84
190.948	53.08
191.168	108.37
191.387	-12.46
191.607	36.69
191.826	8.02
192.045	8.02
192.265	-12.46
192.484	5.97
192.704	67.41
192.923	53.08
193.142	85.84
193.362	5.97
193.581	1.88
193.8	69.46
194.02	5.97
194.239	69.46
194.458	55.12
194.678	-2.22
194.897	24.4
195.116	46.93
195.335	57.17
195.555	46.93
195.774	-28.84
195.993	-2.22
196.212	16.21
196.432	32.6
196.651	-14.51
196.87	-16.55
197.089	16.21
197.308	34.64
197.528	36.69
197.747	-10.41
197.966	-22.7
198.185	55.12
198.404	38.74
198.623	120.66
198.842	87.89
199.062	46.93
199.281	71.51
199.5	-32.94
199.719	79.7
199.938	32.6
200.157	-0.17
200.376	-4.27
200.595	12.12
200.814	-41.13
201.033	26.45
201.252	16.21
201.471	-24.75
201.69	26.45
201.909	24.4
202.128	16.21
202.347	16.21
202.566	-18.6
202.785	44.88
203.004	-53.42
203.223	-16.55
203.442	-28.84
203.661	1.88
203.879	-77.99
204.098	85.84
204.317	14.17
204.536	28.5
204.755	26.45
204.974	104.28
205.193	-18.6
205.411	71.51
205.63	-34.99
205.849	-30.89
206.068	-37.03
206.287	-4.27
206.505	16.21
206.724	10.07
206.943	-6.31
207.162	-96.43
207.381	10.07
207.599	42.84
207.818	28.5
208.037	-20.65
208.255	16.21
208.474	44.88
208.693	-18.6
208.911	-8.36
209.13	-10.41
209.349	59.22
209.567	-18.6
209.786	61.27
210.005	73.56
210.223	63.32
210.442	-8.36
210.661	57.17
210.879	53.08
211.098	30.55
211.316	18.26
211.535	48.98
211.753	12.12
211.972	-6.31
212.191	36.69
212.409	34.64
212.628	32.6
212.846	-34.99
213.065	53.08
213.283	71.51
213.502	-14.51
213.72	-37.03
213.938	-28.84
214.157	53.08
214.375	30.55
214.594	-22.7
214.812	24.4
215.031	36.69
215.249	42.84
215.467	71.51
215.686	20.31
215.904	-14.51
216.122	42.84
216.341	-43.18
216.559	67.41
216.778	-0.17
216.996	73.56
217.214	36.69
217.432	-4.27
217.651	-18.6
217.869	-55.47
218.087	-18.6
218.306	14.17
218.524	1.88
218.742	10.07
218.96	83.8
219.179	-8.36
219.397	-16.55
219.615	34.64
219.833	48.98
220.051	-16.55
220.27	91.99
220.488	61.27
220.706	-32.94
220.924	-24.75
221.142	44.88
221.36	77.65
221.578	-61.61
221.796	20.31
222.015	-20.65
222.233	55.12
222.451	40.79
222.669	-0.17
222.887	40.79
223.105	114.52
223.323	38.74
223.541	85.84
223.759	14.17
223.977	18.26
224.195	24.4
224.413	36.69
224.631	22.36
224.849	-2.22
225.067	110.42
225.285	12.12
225.503	44.88
225.721	-4.27
225.939	36.69
226.157	67.41
226.375	61.27
226.592	-41.13
226.81	-57.51
227.028	20.31
227.246	18.26
227.464	-0.17
227.682	-37.03
227.9	-10.41
228.117	96.08
228.335	61.27
228.553	59.22
228.771	-14.51
228.989	16.21
229.206	3.93
229.424	-16.55
229.642	12.12
229.86	12.12
230.077	12.12
230.295	-16.55
230.513	-4.27
230.731	22.36
230.948	48.98
231.166	-2.22
231.384	10.07
231.601	-8.36
231.819	73.56
232.037	-22.7
232.254	-12.46
232.472	65.36
232.689	28.5
232.907	-8.36
233.125	22.36
233.342	28.5
233.56	-8.36
233.777	-41.13
233.995	38.74
234.213	61.27
234.43	34.64
234.648	-28.84
234.865	87.89
235.083	-2.22
235.3	-20.65
235.518	87.89
235.735	-22.7
235.953	44.88
236.17	36.69
236.388	-4.27
236.605	18.26
236.822	16.21
237.04	12.12
237.257	5.97
237.475	18.26
237.692	32.6
237.909	-4.27
238.127	28.5
238.344	-12.46
238.562	22.36
238.779	30.55
238.996	-28.84
239.214	63.32
239.431	-18.6
239.648	96.08
239.865	24.4
240.083	8.02
240.3	55.12
240.517	5.97
240.735	16.21
240.952	55.12
241.169	30.55
241.386	53.08
241.603	55.12
241.821	-30.89
242.038	-24.75
242.255	-14.51
242.472	44.88
242.689	18.26
242.907	-0.17
243.124	-28.84
243.341	73.56
243.558	-12.46
243.775	14.17
243.992	-16.55
244.209	1.88
244.426	44.88
244.643	83.8
244.86	55.12
245.078	61.27
245.295	46.93
245.512	89.94
245.729	34.64
245.946	55.12
246.163	44.88
246.38	61.27
246.597	22.36
246.814	22.36
247.031	48.98
247.248	40.79
247.464	20.31
247.681	8.02
247.898	132.95
248.115	24.4
248.332	-34.99
248.549	53.08
248.766	89.94
248.983	63.32
249.2	-12.46
249.417	65.36
249.633	30.55
249.85	3.93
250.067	28.5
250.284	-18.6
250.501	38.74
250.717	44.88
250.934	-51.37
251.151	-34.99
251.368	-24.75
251.585	79.7
251.801	63.32
252.018	-32.94
252.235	77.65
252.451	3.93
252.668	79.7
252.885	42.84
253.102	22.36
253.318	-20.65
253.535	24.4
253.752	-51.37
253.968	-28.84
254.185	3.93
254.401	-12.46
254.618	10.07
254.835	20.31
255.051	106.32
255.268	28.5
255.484	-2.22
255.701	20.31
255.917	65.36
256.134	-30.89
256.351	22.36
256.567	-0.17
256.784	32.6
257	5.97
257.217	-20.65
257.433	30.55
257.65	63.32
257.866	34.64
258.082	94.04
258.299	8.02
258.515	22.36
258.732	24.4
258.948	8.02
259.165	48.98
259.381	-28.84
259.597	30.55
259.814	3.93
260.03	1.88
260.246	55.12
260.463	36.69
260.679	20.31
260.895	87.89
261.112	20.31
261.328	-24.75
261.544	48.98
261.761	102.23
261.977	3.93
262.193	8.02
262.409	46.93
262.626	40.79
262.842	-53.42
263.058	-10.41
263.274	75.6
263.49	24.4
263.707	-0.17
263.923	30.55
264.139	-2.22
264.355	28.5
264.571	112.47
264.787	38.74
265.004	28.5
265.22	-18.6
265.436	-67.75
265.652	-16.55
265.868	-4.27
266.084	1.88
266.3	-0.17
266.516	61.27
266.732	42.84
266.948	34.64
267.164	3.93
267.38	59.22
267.596	-16.55
267.812	73.56
268.028	85.84
268.244	-49.32
268.46	20.31
268.676	34.64
268.892	-8.36
269.108	8.02
269.324	-24.75
269.54	53.08
269.756	65.36
269.972	-12.46
270.188	36.69
270.403	-28.84
270.619	5.97
270.835	-12.46
271.051	30.55
271.267	18.26
271.483	42.84
271.698	36.69
271.914	44.88
272.13	-2.22
272.346	38.74
272.562	-6.31
272.777	53.08
272.993	-22.7
273.209	24.4
273.425	61.27
273.64	79.7
273.856	73.56
274.072	20.31
274.287	-63.66
274.503	26.45
274.719	69.46
274.934	3.93
275.15	-53.42
275.366	-41.13
275.581	34.64
275.797	48.98
276.012	65.36
276.228	100.18
276.444	-2.22
276.659	59.22
276.875	59.22
277.09	-14.51
277.306	-12.46
277.521	28.5
277.737	44.88
277.952	36.69
278.168	38.74
278.383	89.94
278.599	87.89
278.814	32.6
279.03	32.6
279.245	5.97
279.461	8.02
279.676	40.79
279.892	57.17
280.107	10.07
280.322	12.12
280.538	12.12
280.753	36.69
280.969	34.64
281.184	61.27
281.399	77.65
281.615	61.27
281.83	81.75
282.045	20.31
282.26	1.88
282.476	-61.61
282.691	-0.17
282.906	-12.46
283.122	114.52
283.337	12.12
283.552	14.17
283.767	59.22
283.983	3.93
284.198	28.5
284.413	114.52
284.628	40.79
284.843	155.47
285.058	65.36
285.274	3.93
285.489	75.6
285.704	48.98
285.919	-45.23
286.134	18.26
286.349	34.64
286.564	34.64
286.779	24.4
286.995	-12.46
287.21	28.5
287.425	83.8
287.64	14.17
287.855	44.88
288.07	34.64
288.285	42.84
288.5	42.84
288.715	108.37
288.93	3.93
289.145	83.8
289.36	51.03
289.575	-4.27
289.79	51.03
290.004	-2.22
290.219	42.84
290.434	10.07
290.649	61.27
290.864	1.88
291.079	-69.8
291.294	48.98
291.509	20.31
291.724	46.93
291.938	73.56
292.153	8.02
292.368	12.12
292.583	-34.99
292.798	8.02
293.012	63.32
293.227	63.32
293.442	89.94
293.657	55.12
293.871	94.04
294.086	63.32
294.301	32.6
294.516	40.79
294.73	44.88
294.945	26.45
295.16	22.36
295.374	59.22
295.589	83.8
295.804	57.17
296.018	77.65
296.233	-34.99
296.447	26.45
296.662	48.98
296.877	-75.95
297.091	36.69
297.306	32.6
297.52	-28.84
297.735	61.27
297.949	14.17
298.164	57.17
298.378	16.21
298.593	14.17
298.807	77.65
299.022	69.46
299.236	26.45
299.451	53.08
299.665	20.31
299.88	24.4
300.094	-6.31
300.309	34.64
300.523	8.02
300.737	-20.65
300.952	-2.22
301.166	12.12
301.381	3.93
301.595	26.45
301.809	48.98
302.024	48.98
302.238	-10.41
302.452	14.17
302.667	38.74
302.881	75.6
303.095	75.6
303.309	-0.17
303.524	63.32
303.738	34.64
303.952	87.89
304.166	-6.31
304.381	-12.46
304.595	57.17
304.809	-6.31
305.023	20.31
305.237	-22.7
305.452	112.47
305.666	-49.32
305.88	38.74
306.094	73.56
306.308	42.84
306.522	-22.7
306.736	51.03
306.95	73.56
307.164	81.75
307.379	-18.6
307.593	69.46
307.807	57.17
308.021	85.84
308.235	61.27
308.449	-2.22
308.663	12.12
308.877	5.97
309.091	-16.55
309.305	53.08
309.519	-41.13
309.733	73.56
309.947	32.6
310.161	81.75
310.374	3.93
310.588	-20.65
310.802	-0.17
311.016	-30.89
311.23	8.02
311.444	57.17
311.658	-6.31
311.872	48.98
312.085	51.03
312.299	28.5
312.513	20.31
312.727	32.6
312.941	22.36
313.154	79.7
313.368	1.88
313.582	-32.94
313.796	143.19
314.009	26.45
314.223	132.95
314.437	36.69
314.651	118.61
314.864	40.79
315.078	-4.27
315.292	83.8
315.505	3.93
315.719	-34.99
315.933	46.93
316.146	51.03
316.36	-0.17
316.573	81.75
316.787	59.22
317.001	87.89
317.214	28.5
317.428	48.98
317.641	55.12
317.855	24.4
318.068	-2.22
318.282	59.22
318.495	57.17
318.709	108.37
318.922	61.27
319.136	26.45
319.349	-8.36
319.563	-26.79
319.776	79.7
319.99	34.64
320.203	26.45
320.417	20.31
320.63	73.56
320.843	18.26
321.057	14.17
321.27	16.21
321.483	26.45
321.697	28.5
321.91	73.56
322.124	36.69
322.337	42.84
322.55	14.17
322.763	-24.75
322.977	36.69
323.19	-28.84
323.403	83.8
323.617	22.36
323.83	-16.55
324.043	38.74
324.256	14.17
324.469	10.07
324.683	-8.36
324.896	48.98
325.109	8.02
325.322	69.46
325.535	110.42
325.748	18.26
325.962	85.84
326.175	40.79
326.388	-4.27
326.601	65.36
326.814	63.32
327.027	-32.94
327.24	61.27
327.453	-0.17
327.666	57.17
327.879	-2.22
328.092	-20.65
328.305	61.27
328.518	36.69
328.731	81.75
328.944	3.93
329.157	40.79
329.37	-37.03
329.583	114.52
329.796	-12.46
330.009	34.64
330.222	30.55
330.435	51.03
330.648	32.6
330.861	61.27
331.073	53.08
331.286	16.21
331.499	42.84
331.712	-69.8
331.925	22.36
332.138	75.6
332.35	55.12
332.563	-10.41
332.776	12.12
332.989	16.21
333.202	38.74
333.414	65.36
333.627	67.41
333.84	22.36
334.053	20.31
334.265	32.6
334.478	-65.71
334.691	65.36
334.903	32.6
335.116	5.97
335.329	20.31
335.541	63.32
335.754	153.43
335.966	-30.89
336.179	53.08
336.392	71.51
336.604	106.32
336.817	104.28
337.029	38.74
337.242	20.31
337.454	114.52
337.667	69.46
337.88	59.22
338.092	12.12
338.305	38.74
338.517	28.5
338.729	77.65
338.942	77.65
339.154	28.5
339.367	-26.79
339.579	61.27
339.792	63.32
340.004	10.07
340.217	12.12
340.429	122.71
340.641	30.55
340.854	8.02
341.066	-51.37
341.278	61.27
341.491	104.28
341.703	75.6
341.915	51.03
342.128	55.12
342.34	67.41
342.552	-4.27
342.764	10.07
342.977	61.27
343.189	44.88
343.401	30.55
343.613	12.12
343.826	22.36
344.038	46.93
344.25	32.6
344.462	14.17
344.674	3.93
344.886	77.65
345.099	65.36
345.311	57.17
345.523	53.08
345.735	-61.61
345.947	61.27
346.159	81.75
346.371	20.31
346.583	85.84
346.795	32.6
347.007	-34.99
347.219	10.07
347.431	1.88
347.643	59.22
347.855	22.36
348.067	-39.08
348.279	14.17
348.491	59.22
348.703	77.65
348.915	24.4
349.127	8.02
349.339	28.5
349.551	-4.27
349.763	112.47
349.975	73.56
350.187	85.84
350.399	36.69
350.61	-26.79
350.822	8.02
351.034	61.27
351.246	40.79
351.458	42.84
351.669	73.56
351.881	87.89
352.093	1.88
352.305	28.5
352.517	55.12
352.728	46.93
352.94	10.07
353.152	26.45
353.363	34.64
353.575	63.32
353.787	8.02
353.999	-20.65
354.21	102.23
354.422	5.97
354.633	-8.36
354.845	30.55
355.057	65.36
355.268	79.7
355.48	73.56
355.692	-12.46
355.903	-12.46
356.115	28.5
356.326	-2.22
356.538	69.46
356.749	104.28
356.961	26.45
357.172	40.79
357.384	34.64
357.595	1.88
357.807	32.6
358.018	1.88
358.23	55.12
358.441	94.04
358.653	32.6
358.864	34.64
359.075	32.6
359.287	32.6
359.498	48.98
359.709	61.27
359.921	10.07
360.132	-22.7
360.344	48.98
360.555	44.88
360.766	8.02
360.977	71.51
361.189	69.46
361.4	14.17
361.611	-16.55
361.823	46.93
362.034	55.12
362.245	-49.32
362.456	34.64
362.667	57.17
362.879	-18.6
363.09	40.79
363.301	53.08
363.512	42.84
363.723	91.99
363.935	120.66
364.146	75.6
364.357	20.31
364.568	16.21
364.779	-75.95
364.99	53.08
365.201	-37.03
365.412	104.28
365.623	46.93
365.834	71.51
366.045	-10.41
366.256	87.89
366.467	34.64
366.678	77.65
366.889	73.56
367.1	55.12
367.311	79.7
367.522	42.84
367.733	26.45
367.944	61.27
368.155	-37.03
368.366	-6.31
368.577	118.61
368.788	114.52
368.999	26.45
369.209	22.36
369.42	57.17
369.631	139.09
369.842	53.08
370.053	91.99
370.264	3.93
370.474	-10.41
370.685	16.21
370.896	10.07
371.107	61.27
371.317	8.02
371.528	24.4
371.739	124.76
371.95	32.6
372.16	108.37
372.371	-30.89
372.582	57.17
372.792	1.88
373.003	42.84
373.214	69.46
373.424	91.99
373.635	3.93
373.846	87.89
374.056	71.51
374.267	130.9
374.477	46.93
374.688	57.17
374.898	53.08
375.109	98.13
375.319	34.64
375.53	110.42
375.74	53.08
375.951	18.26
376.161	20.31
376.372	22.36
376.582	18.26
376.793	75.6
377.003	87.89
377.214	63.32
377.424	57.17
377.635	73.56
377.845	38.74
378.055	151.38
378.266	14.17
378.476	36.69
378.686	-10.41
378.897	69.46
379.107	81.75
379.317	53.08
379.528	24.4
379.738	-16.55
379.948	-10.41
380.158	18.26
380.369	-4.27
380.579	85.84
380.789	108.37
380.999	16.21
381.21	81.75
381.42	57.17
381.63	38.74
381.84	102.23
382.05	116.56
382.261	34.64
382.471	40.79
382.681	67.41
382.891	48.98
383.101	22.36
383.311	-24.75
383.521	59.22
383.731	77.65
383.941	28.5
384.151	-8.36
384.361	8.02
384.571	38.74
384.781	24.4
384.991	65.36
385.201	75.6
385.411	-63.66
385.621	55.12
385.831	-6.31
386.041	65.36
386.251	57.17
386.461	77.65
386.671	89.94
386.881	61.27
387.091	-20.65
387.301	59.22
387.511	53.08
387.72	55.12
387.93	85.84
388.14	67.41
388.35	114.52
388.56	59.22
388.769	36.69
388.979	-4.27
389.189	1.88
389.399	57.17
389.609	28.5
389.818	73.56
390.028	16.21
390.238	36.69
390.447	55.12
390.657	67.41
390.867	16.21
391.076	12.12
391.286	87.89
391.496	106.32
391.705	16.21
391.915	65.36
392.125	40.79
392.334	12.12
392.544	89.94
392.753	180.05
392.963	28.5
393.172	85.84
393.382	3.93
393.591	91.99
393.801	28.5
394.01	112.47
394.22	94.04
394.429	26.45
394.639	38.74
394.848	141.14
395.058	71.51
395.267	83.8
395.477	126.8
395.686	46.93
395.895	42.84
396.105	130.9
396.314	137.04
396.524	155.47
396.733	122.71
396.942	139.09
397.152	157.52
397.361	87.89
397.57	149.33
397.78	108.37
397.989	91.99
398.198	173.91
398.407	91.99
398.617	110.42
398.826	69.46
399.035	77.65
399.244	159.57
399.453	81.75
399.663	96.08
399.872	67.41
400.081	106.32
400.29	63.32
400.499	77.65
400.708	132.95
400.917	130.9
401.127	116.56
401.336	147.28
401.545	98.13
401.754	94.04
401.963	61.27
402.172	96.08
402.381	100.18
402.59	180.05
402.799	106.32
403.008	106.32
403.217	132.95
403.426	55.12
403.635	137.04
403.844	98.13
404.053	167.76
404.262	110.42
404.471	186.19
404.68	175.95
404.888	128.85
405.097	73.56
405.306	186.19
405.515	116.56
405.724	118.61
405.933	204.63
406.142	221.01
406.35	186.19
406.559	122.71
406.768	114.52
406.977	106.32
407.185	221.01
407.394	200.53
407.603	153.43
407.812	214.87
408.02	261.97
408.229	143.19
408.438	157.52
408.646	137.04
408.855	173.91
409.064	290.64
409.272	231.25
409.481	276.31
409.69	212.82
409.898	329.55
410.107	276.31
410.315	284.5
410.524	284.5
410.733	298.83
410.941	300.88
411.15	337.74
411.358	313.17
411.567	386.9
411.775	423.76
411.984	444.24
412.192	413.52
412.401	421.71
412.609	505.68
412.818	477.01
413.026	483.15
413.234	413.52
413.443	474.96
413.651	530.25
413.86	542.54
414.068	503.63
414.276	567.12
414.485	554.83
414.693	601.93
414.901	597.84
415.11	585.55
415.318	612.17
415.526	653.13
415.734	782.15
415.943	704.33
416.151	696.14
416.359	714.57
416.567	763.72
416.776	827.21
416.984	868.17
417.192	892.74
417.4	905.03
417.608	911.18
417.817	968.52
418.025	999.24
418.233	1029.96
418.441	1070.92
418.649	1058.63
418.857	1122.12
419.065	1199.94
419.273	1187.65
419.481	1201.99
419.689	1277.76
419.897	1343.3
420.105	1388.35
420.313	1400.64
420.521	1492.8
420.729	1525.57
420.937	1531.71
421.145	1578.81
421.353	1668.92
421.561	1765.18
421.769	1804.09
421.977	1781.56
422.185	1945.4
422.393	1980.22
422.601	2174.77
422.809	2111.29
423.017	2160.44
423.224	2125.62
423.432	2166.58
423.64	2342.71
423.848	2471.73
424.056	2404.14
424.263	2574.13
424.471	2561.84
424.679	2694.96
424.887	2694.96
425.094	2953
425.302	2883.37
425.51	2991.91
425.718	3034.92
425.925	3256.1
426.133	3086.12
426.341	3508
426.548	3559.2
426.756	3594.01
426.964	3643.17
427.171	3882.78
427.379	3946.27
427.586	3974.94
427.794	4093.72
428.001	4415.25
428.209	4593.42
428.417	4488.98
428.624	4785.93
428.832	4718.35
429.039	4673.29
429.247	4757.26
429.454	5054.22
429.662	5535.49
429.869	5191.43
430.076	5588.74
430.284	5410.56
430.491	5609.22
430.699	5834.49
430.906	5975.8
431.114	5932.79
431.321	6153.98
431.528	6326
431.736	6721.26
431.943	7106.28
432.15	6833.9
432.358	6735.6
432.565	7352.04
432.772	7321.32
432.979	7827.17
433.187	7530.21
433.394	7876.32
433.601	8447.7
433.808	8388.31
434.016	8152.79
434.223	8570.58
434.43	9166.54
434.637	9055.95
434.844	9471.68
435.052	9838.27
435.259	9825.98
435.466	9805.5
435.673	9621.19
435.88	10409.65
436.087	10819.25
436.294	10722.99
436.501	10776.24
436.708	10866.35
436.915	11308.71
437.122	11845.28
437.329	11714.21
437.537	12140.19
437.743	12218.01
437.95	12215.96
438.157	12666.52
438.364	13135.5
438.571	13117.07
438.778	13084.3
438.985	14351.99
439.192	13645.45
439.399	14204.54
439.606	14098.05
439.813	14765.68
440.02	15711.85
440.227	15433.32
440.433	15367.79
440.64	15765.09
440.847	15558.25
441.054	15748.71
441.261	17186.38
441.467	16803.41
441.674	17372.75
441.881	17962.56
442.088	17870.4
442.294	17563.21
442.501	17894.98
442.708	18607.67
442.914	19007.03
443.121	19797.54
443.328	19627.56
443.534	20905.49
443.741	20389.41
443.948	19981.86
444.154	21425.68
444.361	21407.25
444.568	21315.09
444.774	21401.1
444.981	21779.98
445.187	22251.01
445.394	23287.28
445.6	22898.17
445.807	25316.82
446.013	24165.86
446.22	24528.35
446.426	25671.12
446.633	25654.73
446.839	26277.32
447.046	25333.2
447.252	26811.84
447.459	26928.57
447.665	26750.4
447.871	27964.84
448.078	28732.83
448.284	27506.1
448.491	28519.84
448.697	29263.25
448.903	30033.29
449.11	29982.09
449.316	29681.04
449.522	30477.7
449.728	30893.44
449.935	31393.14
450.141	31059.32
450.347	31980.91
450.553	30533
450.76	31413.62
450.966	32197.99
451.172	31462.77
451.378	32302.44
451.584	31972.72
451.791	32632.16
451.997	32490.85
452.203	33176.92
452.409	33097.05
452.615	32808.29
452.821	31448.44
453.027	31335.8
453.233	32861.54
453.44	31425.91
453.646	31812.98
453.852	31729.01
454.058	32458.09
454.264	31417.72
454.47	32177.51
454.676	31343.99
454.882	32249.19
455.088	29451.67
455.294	29592.98
455.5	30240.14
455.705	30358.92
455.911	29277.59
456.117	28648.86
456.323	28153.26
456.529	26514.88
456.735	27989.42
456.941	27401.65
457.147	27028.92
457.352	26213.83
457.558	25701.84
457.764	25920.97
457.97	25306.58
458.176	24729.05
458.381	24649.18
458.587	23180.79
458.793	23735.79
458.999	21992.97
459.204	23707.12
459.41	23256.56
459.616	21310.99
459.821	21782.02
460.027	21593.61
460.233	21118.48
460.438	20209.18
460.644	20190.75
460.85	19263.02
461.055	19252.78
461.261	18886.2
461.466	17552.97
461.672	17010.26
461.878	18048.58
462.083	17188.43
462.289	16750.17
462.494	16477.79
462.7	16006.75
462.905	15507.05
463.111	16109.15
463.316	16139.87
463.522	15640.17
463.727	15656.55
463.932	15707.75
464.138	15322.73
464.343	15615.59
464.549	15042.16
464.754	15513.19
464.959	15461.99
465.165	15343.21
465.37	14882.42
465.575	14607.99
465.781	15089.26
465.986	15050.35
466.191	14491.26
466.397	14374.52
466.602	13448.84
466.807	14118.53
467.012	14212.73
467.218	14118.53
467.423	13936.26
467.628	13995.65
467.833	14597.75
468.038	13848.19
468.244	13436.55
468.449	13993.6
468.654	13704.84
468.859	13483.66
469.064	13534.85
469.269	12963.47
469.474	12859.03
469.679	13317.77
469.885	13196.94
470.09	13100.69
470.295	12887.7
470.5	12617.36
470.705	12615.32
470.91	12242.59
471.115	12500.63
471.32	12582.55
471.525	12412.57
471.73	12191.39
471.935	12027.55
472.139	11724.45
472.344	11812.51
472.549	11499.17
472.754	11527.85
472.959	11304.62
473.164	11050.67
473.369	10759.86
473.574	11402.92
473.778	11120.3
473.983	11101.87
474.188	10944.17
474.393	10700.47
474.598	10831.54
474.802	10393.27
475.007	10432.18
475.212	10636.98
475.417	9944.77
475.621	10145.47
475.826	10098.36
476.031	9889.47
476.235	9768.64
476.44	9901.76
476.645	9766.59
476.849	9834.18
477.054	9592.51
477.259	9504.45
477.463	9363.14
477.668	9221.83
477.872	9410.25
478.077	9207.5
478.282	9154.25
478.486	8904.4
478.691	8867.53
478.895	8777.42
479.1	8740.56
479.304	8754.9
479.509	8546
479.713	8672.98
479.918	8597.2
480.122	8423.12
480.326	8632.02
480.531	8644.31
480.735	8302.29
480.94	8328.92
481.144	8464.08
481.348	8124.12
481.553	8367.83
481.757	8120.03
481.961	8226.52
482.166	8353.49
482.37	8283.86
482.574	7962.33
482.778	8156.89
482.983	8357.59
483.187	8212.18
483.391	8265.43
483.595	7986.91
483.8	8144.6
484.004	8171.22
484.208	8132.31
484.412	8101.59
484.616	8091.35
484.821	8058.59
485.025	7902.94
485.229	8310.49
485.433	8201.94
485.637	8249.05
485.841	8173.27
486.045	7962.33
486.249	8060.63
486.453	7937.76
486.657	8105.69
486.861	8031.96
487.065	7978.72
487.269	7984.86
487.473	8122.07
487.677	8066.78
487.881	8128.22
488.085	7894.75
488.289	8347.35
488.493	8259.29
488.697	8238.81
488.901	8029.91
489.105	8050.39
489.309	8044.25
489.512	8117.98
489.716	8130.27
489.92	8345.3
490.124	8201.94
490.328	8267.48
490.531	8345.3
490.735	8365.78
490.939	8206.04
491.143	8373.97
491.346	8396.5
491.55	8564.43
491.754	8531.67
491.958	8449.75
492.161	8539.86
492.365	8523.48
492.569	8464.08
492.772	8664.79
492.976	8478.42
493.18	8562.39
493.383	8976.08
493.587	8707.79
493.79	8894.16
493.994	8767.18
494.197	9023.18
494.401	9010.89
494.605	9055.95
494.808	9291.46
495.012	9092.81
495.215	9289.42
495.419	9279.18
495.622	9424.58
495.825	9395.91
496.029	9428.68
496.232	9537.22
496.436	9453.25
496.639	9907.9
496.843	9752.26
497.046	9938.62
497.249	9989.82
497.453	10200.76
497.656	10174.14
497.859	10307.26
498.063	10290.87
498.266	10503.86
498.469	10669.75
498.673	10733.23
498.876	10776.24
499.079	10886.83
499.282	10788.53
499.485	11138.73
499.689	11153.07
499.892	11226.79
500.095	11441.83
500.298	11638.44
500.501	11466.41
500.705	11763.36
500.908	11933.34
501.111	12148.38
501.314	12261.02
501.517	12381.85
501.72	12891.79
501.923	12267.16
502.126	12586.65
502.329	12998.29
502.532	12813.97
502.735	13170.32
502.938	13555.33
503.141	13538.95
503.344	13467.27
503.547	13876.87
503.75	13854.34
503.953	14165.63
504.156	13889.15
504.359	14298.75
504.562	14405.24
504.765	14712.44
504.968	14868.08
505.17	15201.9
505.373	15038.06
505.576	15232.62
505.779	15236.72
505.982	15761
506.185	15801.96
506.387	15887.97
506.59	16053.86
506.793	16270.94
506.996	16203.36
507.198	16666.2
507.401	16709.21
507.604	16717.4
507.807	17243.73
508.009	17260.11
508.212	17315.41
508.415	17440.33
508.617	17833.54
508.82	17966.66
509.022	17917.51
509.225	18415.16
509.428	18638.39
509.63	18693.69
509.833	18531.9
510.035	19119.67
510.238	19064.37
510.44	19494.44
510.643	19410.48
510.845	19734.06
511.048	19809.83
511.25	19885.61
511.453	20045.35
511.655	21032.47
511.858	20868.63
512.06	20872.73
512.262	21065.24
512.465	20792.86
512.667	21329.42
512.87	21855.75
513.072	21431.82
513.274	22111.75
513.477	22318.59
513.679	22552.06
513.881	22437.37
514.084	22883.83
514.286	22965.75
514.488	23150.07
514.69	23754.22
514.893	23426.54
515.095	23707.12
515.297	24116.71
515.499	24153.57
515.701	24554.97
515.904	24520.16
516.106	24853.98
516.308	25191.89
516.51	25505.23
516.712	25476.56
516.914	25943.5
517.116	26228.17
517.318	26432.96
517.52	26627.52
517.722	26518.98
517.925	26758.59
518.127	27211.19
518.329	27381.17
518.531	27454.9
518.733	28061.1
518.935	28042.67
519.136	27977.13
519.338	28665.25
519.54	28761.5
519.742	29087.13
519.944	28906.91
520.146	29478.29
520.348	29601.17
520.55	30119.31
520.752	29959.56
520.954	30422.41
521.155	30258.57
521.357	30483.84
521.559	31044.99
521.761	31530.36
521.963	31487.35
522.164	31888.75
522.366	31880.56
522.568	32171.37
522.77	32187.75
522.971	32697.7
523.173	32320.87
523.375	32376.17
523.576	32609.64
523.778	32857.44
523.98	33686.87
524.181	33295.71
524.383	33584.47
524.584	34100.56
524.786	33940.82
524.988	33805.65
525.189	34706.76
525.391	34420.04
525.592	34549.06
525.794	34796.87
525.995	34764.1
526.197	34811.2
526.398	34948.42
526.6	35126.59
526.801	35411.26
527.003	35908.91
527.204	35724.6
527.406	35849.52
527.607	35730.74
527.808	36308.27
528.01	35620.15
528.211	36246.83
528.412	36904.23
528.614	36343.08
528.815	36418.86
529.016	36873.51
529.218	36429.1
529.419	36920.61
529.62	36627.75
529.822	36824.36
530.023	36781.35
530.224	37369.12
530.425	37221.66
530.626	37238.05
530.828	36928.8
531.029	37416.22
531.23	37254.43
531.431	37266.72
531.632	37840.15
531.833	37838.1
532.035	37676.31
532.236	37872.92
532.437	38028.56
532.638	37993.75
532.839	37780.76
533.04	38135.06
533.241	37909.78
533.442	38591.75
533.643	38104.34
533.844	37905.68
534.045	38237.45
534.246	37899.54
534.447	38069.52
534.648	37913.87
534.849	38194.45
535.05	38208.78
535.251	38384.91
535.451	37952.79
535.652	38073.62
535.853	38282.51
536.054	38163.73
536.255	38479.11
536.456	37680.41
536.657	38700.29
536.857	38030.61
537.058	38282.51
537.259	38055.18
537.46	38395.15
537.66	37899.54
537.861	38235.41
538.062	38239.5
538.263	38378.76
538.463	37743.89
538.664	38208.78
538.865	38178.06
539.065	38413.58
539.266	37760.28
539.466	38311.18
539.667	37973.27
539.868	38704.39
540.068	38100.24
540.269	38024.47
540.469	38491.4
540.67	38042.9
540.87	38407.44
541.071	37944.59
541.271	38262.03
541.472	38014.23
541.672	38065.42
541.873	37934.35
542.073	37815.57
542.274	38079.76
542.474	37637.4
542.675	37958.93
542.875	38210.83
543.075	38169.87
543.276	37801.24
543.476	38366.48
543.676	37856.53
543.877	38282.51
544.077	37956.88
544.277	38104.34
544.478	38141.2
544.678	38108.43
544.878	38069.52
545.078	37930.26
545.279	37395.74
545.479	37655.83
545.679	37850.39
545.879	37848.34
546.079	37920.02
546.28	37850.39
546.48	37850.39
546.68	37973.27
546.88	37571.86
547.08	38077.71
547.28	37866.77
547.48	37766.42
547.68	37823.76
547.88	37625.11
548.081	37655.83
548.281	38083.86
548.481	37717.27
548.681	37780.76
548.881	37977.36
549.081	37803.28
549.28	37461.27
549.48	37903.63
549.68	37637.4
549.88	38079.76
550.08	37727.51
550.28	37752.09
550.48	37465.37
550.68	37694.74
550.88	37586.2
551.08	37764.37
551.279	37637.4
551.479	37369.12
551.679	37346.59
551.879	37471.51
552.079	37831.96
552.278	37405.98
552.478	37582.1
552.678	37365.02
552.878	37356.83
553.077	37305.63
553.277	37045.54
553.477	37651.73
553.676	37090.59
553.876	37373.21
554.076	36920.61
554.275	37053.73
554.475	37373.21
554.674	37487.9
554.874	37088.54
555.074	37182.75
555.273	37207.33
555.473	37528.86
555.672	36877.6
555.872	36578.6
556.071	36928.8
556.271	37008.67
556.47	36574.5
556.67	36670.76
556.869	36857.12
557.068	36660.52
557.268	36785.44
557.467	36760.87
557.667	36558.12
557.866	36584.74
558.065	36537.64
558.265	35984.69
558.464	36414.76
558.663	36795.68
558.863	36418.86
559.062	36668.71
559.261	36304.17
559.461	36390.19
559.66	35734.84
559.859	35763.51
560.058	35978.54
560.258	36132.14
560.457	35403.07
560.656	36267.31
560.855	35863.86
561.054	35657.01
561.253	35931.44
561.453	35669.3
561.652	35464.5
561.851	35411.26
562.05	35257.66
562.249	35269.95
562.448	35335.48
562.647	35663.16
562.846	34833.73
563.045	35366.2
563.244	34989.38
563.443	35548.47
563.642	34956.61
563.841	34966.85
564.04	34690.37
564.239	35116.35
564.438	34473.29
564.637	34321.74
564.836	34956.61
565.035	34200.91
565.234	34596.17
565.432	34440.52
565.631	34039.12
565.83	34114.89
566.029	33903.95
566.228	34151.76
566.427	33787.22
566.625	33686.87
566.824	33523.03
567.023	34266.44
567.222	32949.6
567.42	33656.15
567.619	33283.42
567.818	33740.11
568.016	33254.75
568.215	33467.73
568.414	33131.87
568.612	33160.54
568.811	33174.88
569.01	33103.2
569.208	32716.13
569.407	32802.14
569.605	32445.8
569.804	32826.72
570.002	32376.17
570.201	32875.87
570.4	32195.95
570.598	32263.53
570.797	31970.67
570.995	32302.44
571.193	31866.22
571.392	32261.48
571.59	31810.93
571.789	31632.75
571.987	31544.69
572.186	31714.67
572.384	31456.63
572.582	31769.97
572.781	31833.46
572.979	31307.13
573.177	31196.54
573.376	31329.66
573.574	30838.14
573.772	31337.85
573.971	31249.78
574.169	30725.5
574.367	30813.57
574.565	30664.07
574.763	30348.68
574.962	30676.35
575.16	30514.56
575.358	30504.32
575.556	30186.89
575.754	30426.5
575.952	30283.14
576.151	30727.55
576.349	30000.52
576.547	30258.57
576.745	30039.43
576.943	29846.93
577.141	29719.95
577.339	29556.11
577.537	29572.5
577.735	29621.65
577.933	29492.63
578.131	29402.52
578.329	29066.65
578.527	28921.24
578.725	29162.9
578.923	29091.23
579.121	28870.04
579.319	28904.86
579.516	29240.73
579.714	28886.43
579.912	28890.52
580.11	28407.2
580.308	28564.9
580.506	28620.19
580.704	27882.92
580.901	28308.9
581.099	28528.03
581.297	27936.17
581.495	27899.31
581.692	28368.29
581.89	27497.91
582.088	28222.89
582.285	27772.33
582.483	28081.58
582.681	27567.54
582.878	27301.3
583.076	27495.86
583.274	27590.06
583.471	27143.61
583.669	27432.37
583.866	27241.91
584.064	27229.62
584.262	26947
584.459	26940.86
584.657	27024.82
584.854	27030.97
585.052	26926.52
585.249	26592.7
585.447	26643.9
585.644	26488.26
585.841	26408.39
586.039	26449.35
586.236	26291.65
586.434	26279.36
586.631	25951.69
586.828	26234.31
587.026	26398.15
587.223	25972.17
587.42	25626.06
587.618	25765.32
587.815	25374.16
588.012	25482.7
588.21	25609.68
588.407	26004.94
588.604	25490.9
588.801	25247.19
588.999	25386.45
589.196	25671.12
589.393	24962.52
589.59	25085.4
589.787	24980.95
589.984	24833.5
590.182	24692.19
590.379	25015.77
590.576	24542.69
590.773	24530.4
590.97	24186.34
591.167	24747.48
591.364	24036.84
591.561	24540.64
591.758	24298.98
591.955	23932.39
592.152	24239.59
592.349	24032.74
592.546	24198.63
592.743	24262.12
592.94	23473.65
593.137	23993.83
593.334	23977.45
593.531	23516.65
593.727	23350.77
593.924	23565.81
594.121	23391.73
594.318	23346.67
594.515	23217.65
594.712	23711.21
594.908	23274.99
595.105	23313.91
595.302	22969.85
595.499	23121.4
595.696	22912.5
595.892	22760.95
596.089	23178.74
596.286	22781.43
596.482	22820.35
596.679	22445.57
596.876	22646.27
597.072	22414.85
597.269	22339.07
597.466	22005.25
597.662	22375.94
597.859	22355.46
598.055	22406.66
598.252	21984.77
598.448	21872.14
598.645	22013.45
598.841	21704.2
599.038	21982.73
599.234	21870.09
599.431	21489.17
599.627	21401.1
599.824	21560.84
600.02	21298.7
600.217	21446.16
600.413	21409.29
600.609	21278.22
600.806	21104.15
601.002	21110.29
601.198	21247.51
601.395	20991.51
601.591	21143.06
601.787	21157.39
601.984	21042.71
602.18	20932.12
602.376	20788.76
602.572	20743.7
602.769	20864.53
602.965	20440.61
603.161	20758.04
603.357	20467.23
603.553	20219.42
603.75	20399.65
603.946	20031.01
604.142	20053.54
604.338	20112.93
604.534	19953.19
604.73	19858.98
604.926	19957.28
605.122	19693.1
605.318	19699.24
605.514	19750.44
605.71	19576.36
605.906	19840.55
606.102	19643.95
606.298	19631.66
606.494	19433
606.69	19564.07
606.886	19455.53
607.082	19156.53
607.278	19469.87
607.474	18929.2
607.67	19142.19
607.866	18918.96
608.062	18943.54
608.257	18906.68
608.453	18996.79
608.649	19027.51
608.845	19045.94
609.041	18685.5
609.236	18959.92
609.432	18746.94
609.628	18773.56
609.824	18779.7
610.019	18632.25
610.215	18603.58
610.411	18556.47
610.606	18341.44
610.802	18544.19
610.998	18384.44
611.193	18409.02
611.389	18163.26
611.584	18296.38
611.78	18310.72
611.976	18320.96
612.171	18488.89
612.367	18259.52
612.562	17907.27
612.758	17858.12
612.953	17671.75
613.149	18026.05
613.344	17831.49
613.539	18177.6
613.735	17827.4
613.93	17772.1
614.126	17774.15
614.321	17864.26
614.517	17882.69
614.712	17677.9
614.907	17483.34
615.103	17643.08
615.298	17514.06
615.493	17765.96
615.688	17290.83
615.884	17761.86
616.079	17348.17
616.274	17567.31
616.47	17540.68
616.665	17086.03
616.86	17061.46
617.055	17104.46
617.25	17188.43
617.445	17223.25
617.641	16991.83
617.836	17288.78
618.031	16862.8
618.226	16889.43
618.421	16881.24
618.616	16985.68
618.811	16737.88
619.006	17043.03
619.201	16580.18
619.396	16897.62
619.591	16410.2
619.786	16520.79
619.981	16201.31
620.176	16463.45
620.371	16426.59
620.566	16318.04
620.761	16107.1
620.956	16385.63
621.151	16016.99
621.346	15990.37
621.541	15892.07
621.735	15945.31
621.93	15511.14
622.125	15748.71
622.32	15687.27
622.515	15588.97
622.709	15355.5
622.904	15468.14
623.099	15515.24
623.294	15314.54
623.488	15115.89
623.683	15222.38
623.878	14845.55
624.072	15085.17
624.267	14993.01
624.462	14890.61
624.656	14747.25
624.851	14814.84
625.046	14726.77
625.24	14599.8
625.435	14395
625.629	14409.34
625.824	14466.68
626.018	14288.51
626.213	14177.92
626.407	14106.24
626.602	13766.28
626.796	13887.11
626.991	13698.69
627.185	13993.6
627.38	13880.96
627.574	13735.56
627.768	13661.83
627.963	13502.09
628.157	13244.04
628.352	13592.2
628.546	13227.66
628.74	13231.76
628.935	13057.68
629.129	13160.08
629.323	12930.7
629.517	12834.45
629.712	12781.2
629.906	12803.73
630.1	12570.26
630.294	12631.7
630.489	12627.6
630.683	12588.69
630.877	12261.02
631.071	12275.35
631.265	12224.15
631.459	12197.53
631.653	12256.92
631.848	12031.65
632.042	12017.31
632.236	12123.8
632.43	11826.85
632.624	11996.83
632.818	11814.56
633.012	11505.32
633.206	11734.69
633.4	11689.63
633.594	11277.99
633.788	11452.07
633.982	11306.66
634.176	11398.82
634.369	11407.02
634.563	11501.22
634.757	11034.28
634.951	11374.25
635.145	11052.72
635.339	10843.82
635.533	10870.45
635.726	10919.6
635.92	10659.51
636.114	10839.73
636.308	10596.02
636.501	10651.31
636.695	10688.18
636.889	10530.48
637.083	10401.46
637.276	10413.75
637.47	10362.55
637.664	10380.98
637.857	10225.34
638.051	10206.91
638.244	10147.51
638.438	10110.65
638.632	10176.19
638.825	10008.25
639.019	9817.79
639.212	9875.13
639.406	9879.23
639.599	9746.11
639.793	9871.04
639.986	9569.99
640.18	9496.26
640.373	9670.34
640.567	9389.77
640.76	9465.54
640.954	9623.23
641.147	9375.43
641.34	9256.65
641.534	9422.53
641.727	9367.24
641.92	9256.65
642.114	9318.09
642.307	9182.92
642.5	9064.14
642.694	9039.56
642.887	8902.35
643.08	8998.6
643.273	9082.57
643.467	8666.83
643.66	8699.6
643.853	8679.12
644.046	8562.39
644.239	8771.28
644.432	8640.21
644.626	8427.22
644.819	8478.42
645.012	8496.85
645.205	8468.18
645.398	8216.28
645.591	8197.85
645.784	8394.45
645.977	8357.59
646.17	8326.87
646.363	7980.76
646.556	8085.21
646.749	8046.3
646.942	8167.13
647.135	7892.7
647.328	8122.07
647.521	7913.18
647.714	7827.17
647.907	7888.6
648.099	7730.91
648.292	7663.33
648.485	7876.32
648.678	7597.79
648.871	7608.03
649.064	7415.52
649.256	7632.61
649.449	7526.11
649.642	7399.14
649.835	7530.21
650.027	7503.59
650.22	7253.73
650.413	7270.12
650.605	7200.49
650.798	7126.76
650.991	7149.29
651.183	7050.99
651.376	6868.72
651.568	7126.76
651.761	6860.52
651.954	6981.35
652.146	6897.39
652.339	7032.55
652.531	6758.13
652.724	6811.37
652.916	6754.03
653.109	6782.7
653.301	6860.52
653.494	6731.5
653.686	6641.39
653.879	6704.88
654.071	6635.25
654.263	6751.98
654.456	6612.72
654.648	6561.52
654.84	6508.27
655.033	6393.59
655.225	6266.61
655.417	6461.17
655.61	6369.01
655.802	6375.16
655.994	6270.71
656.186	6156.02
656.379	6151.93
656.571	6280.95
656.763	6145.78
656.955	6084.34
657.148	6137.59
657.34	6033.15
657.532	6037.24
657.724	6035.19
657.916	5844.73
658.108	5945.08
658.3	5764.86
658.492	5885.69
658.684	5816.06
658.876	5705.47
659.068	5875.45
659.26	5752.57
659.452	5629.7
659.644	5672.7
659.836	5644.03
660.028	5697.28
660.22	5523.2
660.412	5680.89
660.604	5506.82
660.796	5490.43
660.988	5490.43
661.18	5523.2
661.372	5388.04
661.563	5420.8
661.755	5361.41
661.947	5193.48
662.139	5197.57
662.331	5263.11
662.522	5334.79
662.714	5125.9
662.906	5242.63
663.097	5193.48
663.289	5134.09
663.481	5138.18
663.673	5119.75
663.864	5048.07
664.056	4951.82
664.247	5158.66
664.439	4988.68
664.631	4992.78
664.822	4994.83
665.014	4892.43
665.205	4941.58
665.397	4884.23
665.588	4894.47
665.78	4812.56
665.971	4855.56
666.163	4830.99
666.354	4771.6
666.546	4759.31
666.737	4652.81
666.929	4716.3
667.12	4712.21
667.311	4568.85
667.503	4689.68
667.694	4558.61
667.885	4536.08
668.077	4458.26
668.268	4491.02
668.459	4462.35
668.651	4423.44
668.842	4343.57
669.033	4478.74
669.224	4335.38
669.416	4402.96
669.607	4394.77
669.798	4402.96
669.989	4368.15
670.18	4261.65
670.371	4339.48
670.563	4241.17
670.754	4329.24
670.945	4200.21
671.136	4265.75
671.327	4202.26
671.518	4222.74
671.709	4362
671.9	4253.46
672.091	4142.87
672.282	4009.75
672.473	4112.15
672.664	4142.87
672.855	4097.81
673.046	4095.77
673.237	4001.56
673.428	3981.08
673.619	4046.62
673.809	4058.9
674	4017.94
674.191	3862.3
674.382	3948.31
674.573	3905.31
674.764	3966.74
674.954	3764
675.145	3907.35
675.336	3776.28
675.527	3780.38
675.717	3884.83
675.908	3778.33
676.099	3835.67
676.289	3809.05
676.48	3766.04
676.671	3743.52
676.861	3637.02
677.052	3770.14
677.243	3729.18
677.433	3665.69
677.624	3800.86
677.814	3766.04
678.005	3639.07
678.195	3751.71
678.386	3579.68
678.576	3735.32
678.767	3704.6
678.957	3690.27
679.148	3716.89
679.338	3616.54
679.529	3587.87
679.719	3491.62
679.909	3725.08
680.1	3677.98
680.29	3655.45
680.481	3546.91
680.671	3544.86
680.861	3448.61
681.052	3553.06
681.242	3448.61
681.432	3585.82
681.622	3432.22
681.813	3530.53
682.003	3624.73
682.193	3430.18
682.383	3434.27
682.573	3319.59
682.764	3454.75
682.954	3387.17
683.144	3553.06
683.334	3426.08
683.524	3524.38
683.714	3348.26
683.904	3313.44
684.094	3370.79
684.284	3393.31
684.474	3483.42
684.664	3323.68
684.854	3440.42
685.044	3254.05
685.234	3335.97
685.424	3329.83
685.614	3307.3
685.804	3284.77
685.994	3333.92
686.184	3215.14
686.374	3258.15
686.564	3239.72
686.753	3264.29
686.943	3202.85
687.133	3161.89
687.323	3268.39
687.513	3217.19
687.702	3102.5
687.892	3129.13
688.082	3069.73
688.272	3125.03
688.461	3086.12
688.651	3157.8
688.841	3168.04
689.03	3010.34
689.22	3069.73
689.41	2946.86
689.599	3041.06
689.789	2971.43
689.979	2942.76
690.168	3039.01
690.358	2961.19
690.547	2836.27
690.737	2973.48
690.926	2977.58
691.116	2907.94
691.305	2969.38
691.495	2789.16
691.684	2780.97
691.874	2823.98
692.063	2946.86
692.252	2860.84
692.442	2766.64
692.631	2813.74
692.82	2815.79
693.01	2838.31
693.199	2813.74
693.388	2746.16
693.578	2760.49
693.767	2756.4
693.956	2707.24
694.146	2690.86
694.335	2801.45
694.524	2676.52
694.713	2756.4
694.902	2643.76
695.092	2742.06
695.281	2631.47
695.47	2701.1
695.659	2852.65
695.848	2688.81
696.037	2557.74
696.226	2643.76
696.415	2514.73
696.604	2610.99
696.793	2565.93
696.982	2719.53
697.171	2592.56
697.36	2625.33
697.549	2588.46
697.738	2608.94
697.927	2633.52
698.116	2654
698.305	2518.83
698.494	2592.56
698.683	2610.99
698.872	2694.96
699.061	2529.07
699.25	2649.9
699.438	2524.97
699.627	2584.37
699.816	2527.02
700.005	2572.08
700.193	2604.85
700.382	2576.17
700.571	2475.82
700.76	2549.55
700.948	2600.75
701.137	2551.6
701.326	2504.5
701.514	2512.69
701.703	2494.26
701.892	2535.21
702.08	2490.16
702.269	2486.06
702.457	2469.68
702.646	2600.75
702.834	2451.25
703.023	2576.17
703.212	2584.37
703.4	2590.51
703.589	2445.1
703.777	2535.21
703.965	2518.83
704.154	2395.95
704.342	2504.5
704.531	2494.26
704.719	2543.41
704.907	2524.97
705.096	2432.82
705.284	2576.17
705.472	2410.29
705.661	2377.52
705.849	2508.59
706.037	2531.12
706.226	2305.84
706.414	2459.44
706.602	2430.77
706.79	2438.96
706.979	2426.67
707.167	2543.41
707.355	2582.32
707.543	2408.24
707.731	2457.39
707.919	2428.72
708.107	2506.54
708.296	2451.25
708.484	2416.43
708.672	2443.06
708.86	2424.62
709.048	2385.71
709.236	2338.61
709.424	2451.25
709.612	2383.66
709.8	2289.46
709.988	2338.61
710.176	2287.41
710.364	2383.66
710.551	2451.25
710.739	2346.8
710.927	2451.25
711.115	2451.25
711.303	2494.26
711.491	2498.35
711.679	2236.21
711.866	2275.12
712.054	2408.24
712.242	2383.66
712.43	2303.79
712.617	2379.57
712.805	2228.02
712.993	2393.9
713.181	2271.03
713.368	2426.67
713.556	2352.95
713.744	2293.55
713.931	2305.84
714.119	2322.23
714.306	2457.39
714.494	2295.6
714.682	2404.14
714.869	2434.86
715.057	2262.83
715.244	2307.89
715.432	2463.54
715.619	2316.08
715.807	2271.03
715.994	2424.62
716.182	2375.47
716.369	2422.58
716.556	2365.23
716.744	2309.94
716.931	2314.03
717.119	2441.01
717.306	2346.8
717.493	2441.01
717.681	2381.62
717.868	2330.42
718.055	2354.99
718.242	2416.43
718.43	2350.9
718.617	2295.6
718.804	2203.44
718.991	2299.7
719.179	2154.29
719.366	2246.45
719.553	2299.7
719.74	2301.75
719.927	2242.36
720.114	2379.57
720.301	2311.99
720.488	2254.64
720.676	2281.27
720.863	2314.03
721.05	2232.12
721.237	2277.17
721.424	2275.12
721.611	2273.07
721.798	2293.55
721.985	2307.89
722.172	2262.83
722.358	2258.74
722.545	2354.99
722.732	2191.16
722.919	2262.83
723.106	2373.43
723.293	2320.18
723.48	2244.4
723.667	2213.68
723.853	2268.98
724.04	2342.71
724.227	2230.07
724.414	2271.03
724.6	2244.4
724.787	2311.99
724.974	2213.68
725.161	2293.55
725.347	2211.64
725.534	2314.03
725.72	2240.31
725.907	2207.54
726.094	2219.83
726.28	2193.2
726.467	2285.36
726.653	2275.12
726.84	2205.49
727.027	2322.23
727.213	2266.93
727.4	2207.54
727.586	2299.7
727.773	2314.03
727.959	2246.45
728.145	2264.88
728.332	2137.91
728.518	2262.83
728.705	2279.22
728.891	2109.24
729.077	2160.44
729.264	2240.31
729.45	2199.35
729.636	2191.16
729.823	2256.69
730.009	2328.37
730.195	2268.98
730.382	2242.36
730.568	2185.01
730.754	2236.21
730.94	2225.97
731.126	2359.09
731.313	2199.35
731.499	2189.11
731.685	2242.36
731.871	2185.01
732.057	2207.54
732.243	2262.83
732.429	2262.83
732.615	2201.4
732.801	2225.97
732.987	2209.59
733.173	2170.68
733.359	2123.57
733.545	2187.06
733.731	2258.74
733.917	2185.01
734.103	2178.87
734.289	2144.05
734.475	2135.86
734.661	2189.11
734.847	2264.88
735.033	2264.88
735.219	2262.83
735.404	2105.14
735.59	2225.97
735.776	2133.81
735.962	2168.63
736.148	2160.44
736.333	2078.52
736.519	2223.92
736.705	2203.44
736.89	2164.53
737.076	2109.24
737.262	2131.76
737.447	2129.72
737.633	2051.89
737.819	2019.13
738.004	2228.02
738.19	2117.43
738.375	2166.58
738.561	2178.87
738.747	2135.86
738.932	2094.9
739.118	2150.2
739.303	2105.14
739.489	2139.96
739.674	2064.18
739.859	2023.22
740.045	2111.29
740.23	2148.15
740.416	1976.12
740.601	2039.61
740.786	2150.2
740.972	1992.5
741.157	2019.13
741.342	2019.13
741.528	1994.55
741.713	2121.52
741.898	1888.06
742.084	2002.74
742.269	2055.99
742.454	2027.32
742.639	2084.66
742.824	1955.64
743.01	1955.64
743.195	1984.31
743.38	1980.22
743.565	2006.84
743.75	2031.41
743.935	1849.15
744.12	1943.35
744.305	1961.78
744.49	1896.25
744.675	1972.02
744.86	2027.32
745.045	1967.93
745.23	1861.43
745.415	1873.72
745.6	1902.39
745.785	1793.85
745.97	1779.51
746.155	1804.09
746.34	1804.09
746.525	1742.65
746.71	1845.05
746.895	1658.68
747.079	1836.86
747.264	1802.04
747.449	1785.66
747.634	1685.31
747.819	1695.55
748.003	1720.12
748.188	1695.55
748.373	1703.74
748.557	1650.49
748.742	1771.32
748.927	1627.96
749.111	1699.64
749.296	1601.34
749.481	1623.87
749.665	1632.06
749.85	1595.2
750.034	1716.03
750.219	1656.64
750.404	1609.53
750.588	1556.29
750.773	1531.71
750.957	1535.81
751.141	1558.33
751.326	1457.98
751.51	1535.81
751.695	1609.53
751.879	1507.13
752.064	1511.23
752.248	1488.7
752.432	1507.13
752.617	1498.94
752.801	1429.31
752.985	1515.33
753.17	1417.02
753.354	1470.27
753.538	1427.26
753.722	1371.97
753.907	1412.93
754.091	1451.84
754.275	1333.06
754.459	1427.26
754.643	1290.05
754.828	1396.54
755.012	1402.69
755.196	1351.49
755.38	1216.32
755.564	1388.35
755.748	1290.05
755.932	1308.48
756.116	1312.58
756.3	1265.47
756.484	1322.82
756.668	1230.66
756.852	1255.23
757.036	1394.5
757.22	1201.99
757.404	1314.63
757.588	1201.99
757.772	1212.23
757.956	1277.76
758.14	1199.94
758.323	1249.09
758.507	1201.99
758.691	1177.41
758.875	1183.56
759.059	1118.02
759.242	1212.23
759.426	1179.46
759.61	1140.55
759.794	1081.16
759.977	1097.54
760.161	1134.4
760.345	1171.27
760.528	1214.27
760.712	1070.92
760.895	1132.36
761.079	1015.62
761.263	1089.35
761.446	1066.82
761.63	1007.43
761.813	1122.12
761.997	1099.59
762.18	1075.01
762.364	1097.54
762.547	991.05
762.731	1101.64
762.914	1048.39
763.098	1056.58
763.281	1072.96
763.464	1058.63
763.648	980.81
763.831	1066.82
764.015	997.19
764.198	1099.59
764.381	1085.25
764.564	945.99
764.748	1072.96
764.931	958.28
765.114	972.61
765.297	937.8
765.481	993.09
765.664	1011.53
765.847	976.71
766.03	952.13
766.213	931.66
766.397	1021.77
766.58	995.14
766.763	1025.86
766.946	964.42
767.129	962.37
767.312	970.57
767.495	966.47
767.678	876.36
767.861	876.36
768.044	980.81
768.227	921.42
768.41	962.37
768.593	935.75
768.776	943.94
768.959	929.61
769.142	933.7
769.324	976.71
769.507	874.31
769.69	921.42
769.873	870.22
770.056	888.65
770.239	880.46
770.421	911.18
770.604	819.02
770.787	855.88
770.97	907.08
771.152	778.06
771.335	765.77
771.518	747.34
771.7	884.55
771.883	874.31
772.066	786.25
772.248	788.3
772.431	900.94
772.613	868.17
772.796	855.88
772.978	874.31
773.161	751.43
773.343	806.73
773.526	835.4
773.708	778.06
773.891	700.23
774.073	829.26
774.256	821.06
774.438	857.93
774.621	831.3
774.803	759.63
774.985	733
775.168	765.77
775.35	747.34
775.532	724.81
775.715	722.76
775.897	771.91
776.079	667.47
776.261	692.04
776.444	675.66
776.626	757.58
776.808	671.56
776.99	696.14
777.173	657.23
777.355	681.8
777.537	673.61
777.719	728.91
777.901	610.12
778.083	612.17
778.265	597.84
778.447	747.34
778.629	649.04
778.811	606.03
778.993	661.32
779.175	610.12
779.357	692.04
779.539	601.93
779.721	573.26
779.903	612.17
780.085	563.02
780.267	575.31
780.449	634.7
780.631	628.56
780.812	630.6
780.994	644.94
781.176	589.64
781.358	614.22
781.54	556.88
781.721	599.88
781.903	532.3
782.085	501.58
782.267	575.31
782.448	390.99
782.63	603.98
782.812	540.49
782.993	560.97
783.175	479.05
783.357	462.67
783.538	530.25
783.72	499.53
783.901	560.97
784.083	485.2
784.264	470.86
784.446	462.67
784.627	450.38
784.809	479.05
784.99	520.01
785.172	479.05
785.353	438.09
785.535	409.42
785.716	464.72
785.897	515.92
786.079	485.2
786.26	384.85
786.441	499.53
786.623	446.29
786.804	360.27
786.985	487.25
787.167	393.04
787.348	425.81
787.529	374.61
787.71	399.18
787.891	405.33
788.073	427.85
788.254	431.95
788.435	448.33
788.616	298.83
788.797	354.13
788.978	364.37
789.159	329.55
789.34	474.96
789.522	366.42
789.703	386.9
789.884	386.9
790.065	388.94
790.246	407.38
790.427	307.02
790.607	397.14
790.788	415.57
790.969	382.8
791.15	368.46
791.331	339.79
791.512	341.84
791.693	356.18
791.874	290.64
792.054	409.42
792.235	362.32
792.416	390.99
792.597	309.07
792.778	292.69
792.958	360.27
793.139	343.89
793.32	341.84
793.5	323.41
793.681	364.37
793.862	364.37
794.042	288.59
794.223	313.17
794.404	356.18
794.584	317.26
794.765	278.35
794.945	233.3
795.126	304.98
795.306	343.89
795.487	329.55
795.667	311.12
795.848	350.03
796.028	304.98
796.209	253.78
796.389	276.31
796.57	282.45
796.75	333.65
796.93	300.88
797.111	311.12
797.291	241.49
797.471	249.68
797.652	251.73
797.832	319.31
798.012	331.6
798.192	266.07
798.373	284.5
798.553	282.45
798.733	282.45
798.913	335.7
799.093	274.26
799.274	274.26
799.454	227.15
799.634	225.11
799.814	257.87
799.994	261.97
800.174	231.25
800.354	266.07
800.534	135
800.714	282.45
800.894	241.49
801.074	202.58
801.254	245.59
801.434	196.43
801.614	276.31
801.794	210.77
801.974	522.06
802.154	231.25
802.334	216.91
802.514	231.25
802.693	218.96
802.873	280.4
803.053	243.54
803.233	221.01
803.413	157.52
803.592	147.28
803.772	223.06
803.952	169.81
804.131	208.72
804.311	257.87
804.491	182.1
804.67	194.39
804.85	210.77
805.03	155.47
805.209	208.72
805.389	243.54
805.568	237.39
805.748	184.15
805.928	300.88
806.107	163.67
806.287	198.48
806.466	194.39
806.646	216.91
806.825	175.95
807.004	208.72
807.184	137.04
807.363	184.15
807.543	216.91
807.722	218.96
807.901	233.3
808.081	212.82
808.26	180.05
808.439	196.43
808.619	218.96
808.798	178
808.977	184.15
809.156	194.39
809.336	235.35
809.515	216.91
809.694	130.9
809.873	155.47
810.052	233.3
810.231	196.43
810.411	194.39
810.59	159.57
810.769	210.77
810.948	147.28
811.127	227.15
811.306	188.24
811.485	147.28
811.664	198.48
811.843	178
812.022	192.34
812.201	188.24
812.38	137.04
812.559	178
812.737	159.57
812.916	165.71
813.095	57.17
813.274	167.76
813.453	198.48
813.632	178
813.811	128.85
813.989	171.86
814.168	241.49
814.347	190.29
814.526	139.09
814.704	128.85
814.883	141.14
815.062	89.94
815.24	194.39
815.419	120.66
815.598	194.39
815.776	139.09
815.955	126.8
816.133	130.9
816.312	128.85
816.49	159.57
816.669	159.57
816.847	110.42
817.026	61.27
817.204	218.96
817.383	145.24
817.561	94.04
817.74	159.57
817.918	196.43
818.097	130.9
818.275	114.52
818.453	153.43
818.632	110.42
818.81	110.42
818.988	116.56
819.167	89.94
819.345	79.7
819.523	87.89
819.701	161.62
819.879	180.05
820.058	116.56
820.236	126.8
820.414	157.52
820.592	100.18
820.77	114.52
820.948	151.38
821.127	155.47
821.305	73.56
821.483	128.85
821.661	173.91
821.839	114.52
822.017	112.47
822.195	98.13
822.373	89.94
822.551	83.8
822.729	139.09
822.907	55.12
823.085	79.7
823.262	139.09
823.44	26.45
823.618	26.45
823.796	190.29
823.974	122.71
824.152	114.52
824.329	61.27
824.507	32.6
824.685	94.04
824.863	145.24
825.04	106.32
825.218	81.75
825.396	112.47
825.574	175.95
825.751	102.23
825.929	202.58
826.107	91.99
826.284	182.1
826.462	147.28
826.639	79.7
826.817	40.79
826.994	46.93
827.172	55.12
827.349	96.08
827.527	114.52
827.704	83.8
827.882	110.42
828.059	139.09
828.237	32.6
828.414	63.32
828.591	85.84
828.769	94.04
828.946	87.89
829.124	182.1
829.301	65.36
829.478	73.56
829.655	130.9
829.833	79.7
830.01	65.36
830.187	190.29
830.364	51.03
830.542	118.61
830.719	38.74
830.896	55.12
831.073	75.6
831.25	130.9
831.427	8.02
831.604	79.7
831.782	94.04
831.959	20.31
832.136	32.6
832.313	85.84
832.49	65.36
832.667	137.04
832.844	71.51
833.021	112.47
833.198	65.36
833.374	85.84
833.551	104.28
833.728	48.98
833.905	104.28
834.082	-61.61
834.259	53.08
834.436	89.94
834.612	48.98
834.789	118.61
834.966	69.46
835.143	91.99
835.319	-26.79
835.496	53.08
835.673	98.13
835.85	83.8
836.026	57.17
836.203	26.45
836.38	65.36
836.556	108.37
836.733	24.4
836.909	106.32
837.086	81.75
837.262	96.08
837.439	118.61
837.616	28.5
837.792	104.28
837.968	110.42
838.145	24.4
838.321	96.08
838.498	38.74
838.674	112.47
838.851	128.85
839.027	24.4
839.203	114.52
839.38	102.23
839.556	108.37
839.732	94.04
839.909	83.8
840.085	167.76
840.261	30.55
840.437	91.99
840.614	57.17
840.79	108.37
840.966	71.51
841.142	61.27
841.318	77.65
841.494	128.85
841.671	-10.41
841.847	137.04
842.023	30.55
842.199	18.26
842.375	89.94
842.551	-12.46
842.727	63.32
842.903	32.6
843.079	40.79
843.255	87.89
843.431	40.79
843.607	114.52
843.783	16.21
843.959	38.74
844.134	87.89
844.31	77.65
844.486	-14.51
844.662	-8.36
844.838	44.88
845.013	87.89
845.189	98.13
845.365	51.03
845.541	32.6
845.716	-24.75
845.892	1.88
846.068	112.47
846.244	63.32
846.419	28.5
846.595	48.98
846.77	42.84
846.946	57.17
847.122	20.31
847.297	-24.75
847.473	30.55
847.648	32.6
847.824	57.17
847.999	38.74
848.175	44.88
848.35	42.84
848.526	61.27
848.701	104.28
848.876	-8.36
849.052	46.93
849.227	40.79
849.403	1.88
849.578	34.64
849.753	28.5
849.929	73.56
850.104	1.88
850.279	69.46
850.454	67.41
850.63	159.57
850.805	67.41
850.98	12.12
851.155	40.79
851.33	10.07
851.505	10.07
851.681	55.12
851.856	-4.27
852.031	59.22
852.206	-49.32
852.381	24.4
852.556	65.36
852.731	85.84
852.906	65.36
853.081	137.04
853.256	-0.17
853.431	-8.36
853.606	63.32
853.781	14.17
853.956	-18.6
854.131	-12.46
854.305	16.21
854.48	44.88
854.655	44.88
854.83	20.31
855.005	42.84
855.18	18.26
855.354	38.74
855.529	38.74
855.704	30.55
855.879	14.17
856.053	22.36
856.228	10.07
856.403	3.93
856.577	12.12
856.752	81.75
856.926	20.31
857.101	89.94
857.276	16.21
857.45	1.88
857.625	-0.17
857.799	40.79
857.974	55.12
858.148	-18.6
858.323	24.4
858.497	-45.23
858.672	-28.84
858.846	38.74
859.02	77.65
859.195	55.12
859.369	-12.46
859.543	-41.13
859.718	57.17
859.892	65.36
860.066	18.26
860.241	10.07
860.415	114.52
860.589	38.74
860.763	73.56
860.938	24.4
861.112	104.28
861.286	108.37
861.46	-32.94
861.634	10.07
861.808	48.98
861.982	-4.27
862.157	71.51
862.331	-22.7
862.505	24.4
862.679	94.04
862.853	10.07
863.027	57.17
863.201	44.88
863.375	34.64
863.549	20.31
863.722	26.45
863.896	30.55
864.07	14.17
864.244	40.79
864.418	-26.79
864.592	-41.13
864.766	36.69
864.939	-6.31
865.113	-32.94
865.287	46.93
865.461	10.07
865.634	-0.17
865.808	46.93
865.982	34.64
866.156	-63.66
866.329	30.55
866.503	30.55
866.676	32.6
866.85	36.69
867.024	65.36
867.197	26.45
867.371	-14.51
867.544	77.65
867.718	-37.03
867.891	63.32
868.065	-22.7
868.238	-2.22
868.412	10.07
868.585	-8.36
868.759	-53.42
868.932	8.02
869.105	24.4
869.279	5.97
869.452	32.6
869.625	28.5
869.799	-22.7
869.972	-8.36
870.145	-39.08
870.319	67.41
870.492	10.07
870.665	-20.65
870.838	24.4
871.011	-0.17
871.185	1.88
871.358	12.12
871.531	36.69
871.704	-41.13
871.877	-34.99
872.05	-24.75
872.223	-20.65
872.396	-10.41
872.569	71.51
872.742	40.79
872.915	36.69
873.088	-37.03
873.261	-30.89
873.434	14.17
873.607	48.98
873.78	36.69
873.953	-53.42
874.126	36.69
874.299	53.08
874.471	22.36
874.644	-12.46
874.817	32.6
874.99	-39.08
875.163	24.4
875.335	-6.31
875.508	-16.55
875.681	89.94
875.853	10.07
876.026	53.08
876.199	8.02
876.371	-32.94
876.544	1.88
876.717	38.74
876.889	38.74
877.062	5.97
877.234	-8.36
877.407	61.27
877.579	65.36
877.752	91.99
877.924	12.12
878.097	-2.22
878.269	5.97
878.442	32.6
878.614	-39.08
878.786	65.36
878.959	-0.17
879.131	18.26
879.303	-49.32
879.476	14.17
879.648	5.97
879.82	-4.27
879.993	-12.46
880.165	32.6
880.337	-0.17
880.509	61.27
880.681	91.99
880.854	42.84
881.026	40.79
881.198	63.32
881.37	65.36
881.542	46.93
881.714	-26.79
881.886	20.31
882.058	-6.31
882.23	10.07
882.402	46.93
882.574	-2.22
882.746	-37.03
882.918	91.99
883.09	22.36
883.262	40.79
883.434	65.36
883.606	-8.36
883.778	-20.65
883.95	40.79
884.122	12.12
884.293	59.22
884.465	-30.89
884.637	5.97
884.809	3.93
884.98	12.12
885.152	32.6
885.324	55.12
885.496	-10.41
885.667	-18.6
885.839	-16.55
886.011	34.64
886.182	71.51
886.354	32.6
886.525	-22.7
886.697	57.17
886.869	-10.41
887.04	67.41
887.212	20.31
887.383	42.84
887.555	18.26
887.726	10.07
887.897	3.93
888.069	-63.66
888.24	71.51
888.412	55.12
888.583	26.45
888.754	34.64
888.926	5.97
889.097	36.69
889.268	-41.13
889.44	61.27
889.611	-0.17
889.782	-8.36
889.953	10.07
890.125	46.93
890.296	-22.7
890.467	5.97
890.638	-14.51
890.809	-28.84
890.98	10.07
891.151	-2.22
891.323	12.12
891.494	-24.75
891.665	10.07
891.836	40.79
892.007	71.51
892.178	40.79
892.349	65.36
892.52	34.64
892.691	-18.6
892.862	59.22
893.032	26.45
893.203	5.97
893.374	32.6
893.545	-2.22
893.716	-47.27
893.887	32.6
894.057	-55.47
894.228	55.12
894.399	-10.41
894.57	104.28
894.74	48.98
894.911	-2.22
895.082	-2.22
895.253	-53.42
895.423	-32.94
895.594	-20.65
895.764	-24.75
895.935	-45.23
896.106	20.31
896.276	-65.71
896.447	-37.03
896.617	28.5
896.788	-10.41
896.958	40.79
897.129	14.17
897.299	-6.31
897.47	73.56
897.64	34.64
897.81	-28.84
897.981	-28.84
898.151	20.31
898.322	-10.41
898.492	106.32
898.662	-20.65
898.832	48.98
899.003	-8.36
899.173	-22.7
899.343	-6.31
899.513	-26.79
