Data from USB4F104151__166__11-08-49-027.txt Node

Date: Wed Mar 12 11:08:49 EDT 2025
User: louis
Spectrometer: USB4F10415
Trigger mode: 4
Integration Time (sec): 2.000000E-2
Scans to average: 1
Electric dark correction enabled: true
Nonlinearity correction enabled: false
Boxcar width: 0
XAxis mode: Wavelengths
Number of Pixels in Spectrum: 3648
>>>>>Begin Spectral Data<<<<<
178.204	-49.15
178.424	-49.15
178.644	-49.15
178.864	-90.11
179.084	-90.11
179.304	-18.43
179.524	-24.58
179.744	8.19
179.964	8.19
180.184	2.05
180.404	47.1
180.624	-8.19
180.844	-47.1
181.064	12.29
181.283	30.72
181.503	-24.58
181.723	14.34
181.943	-34.82
182.163	22.53
182.383	-32.77
182.602	-12.29
182.822	67.58
183.042	-26.62
183.262	-57.34
183.482	83.97
183.701	18.43
183.921	47.1
184.141	18.43
184.361	98.3
184.58	96.25
184.8	8.19
185.02	10.24
185.239	14.34
185.459	-18.43
185.679	51.2
185.898	-47.1
186.118	14.34
186.338	-4.1
186.557	8.19
186.777	86.01
186.997	-38.91
187.216	-14.34
187.436	43.01
187.655	55.3
187.875	77.82
188.095	-2.05
188.314	12.29
188.534	28.67
188.753	28.67
188.973	28.67
189.192	81.92
189.412	43.01
189.631	40.96
189.851	34.82
190.07	49.15
190.29	-59.39
190.509	69.63
190.729	-34.82
190.948	-32.77
191.168	67.58
191.387	-4.1
191.607	-45.06
191.826	36.86
192.045	75.77
192.265	0
192.484	-2.05
192.704	79.87
192.923	-6.14
193.142	106.49
193.362	53.25
193.581	43.01
193.8	-6.14
194.02	63.49
194.239	26.62
194.458	-55.3
194.678	2.05
194.897	77.82
195.116	14.34
195.335	16.38
195.555	51.2
195.774	-4.1
195.993	6.14
196.212	10.24
196.432	-30.72
196.651	34.82
196.87	2.05
197.089	49.15
197.308	75.77
197.528	28.67
197.747	4.1
197.966	26.62
198.185	79.87
198.404	-26.62
198.623	24.58
198.842	-43.01
199.062	43.01
199.281	57.34
199.5	24.58
199.719	-2.05
199.938	26.62
200.157	14.34
200.376	63.49
200.595	-2.05
200.814	-30.72
201.033	8.19
201.252	-22.53
201.471	32.77
201.69	-110.59
201.909	81.92
202.128	45.06
202.347	16.38
202.566	32.77
202.785	-18.43
203.004	-38.91
203.223	45.06
203.442	22.53
203.661	57.34
203.879	2.05
204.098	-20.48
204.317	-8.19
204.536	96.25
204.755	-55.3
204.974	61.44
205.193	16.38
205.411	-8.19
205.63	10.24
205.849	88.06
206.068	51.2
206.287	26.62
206.505	-10.24
206.724	12.29
206.943	-40.96
207.162	-22.53
207.381	-12.29
207.599	-16.38
207.818	22.53
208.037	-22.53
208.255	47.1
208.474	16.38
208.693	49.15
208.911	0
209.13	34.82
209.349	-49.15
209.567	75.77
209.786	0
210.005	45.06
210.223	0
210.442	14.34
210.661	-6.14
210.879	-53.25
211.098	-16.38
211.316	0
211.535	8.19
211.753	43.01
211.972	67.58
212.191	-6.14
212.409	45.06
212.628	51.2
212.846	6.14
213.065	8.19
213.283	-6.14
213.502	14.34
213.72	4.1
213.938	77.82
214.157	-8.19
214.375	67.58
214.594	63.49
214.812	6.14
215.031	-4.1
215.249	22.53
215.467	59.39
215.686	-24.58
215.904	47.1
216.122	53.25
216.341	36.86
216.559	75.77
216.778	30.72
216.996	18.43
217.214	79.87
217.432	45.06
217.651	-53.25
217.869	22.53
218.087	81.92
218.306	10.24
218.524	10.24
218.742	14.34
218.96	38.91
219.179	67.58
219.397	53.25
219.615	47.1
219.833	40.96
220.051	-6.14
220.27	-12.29
220.488	-6.14
220.706	79.87
220.924	75.77
221.142	51.2
221.36	2.05
221.578	38.91
221.796	22.53
222.015	16.38
222.233	16.38
222.451	36.86
222.669	-10.24
222.887	30.72
223.105	-2.05
223.323	49.15
223.541	-94.21
223.759	-30.72
223.977	-16.38
224.195	47.1
224.413	22.53
224.631	30.72
224.849	32.77
225.067	0
225.285	-49.15
225.503	-28.67
225.721	-47.1
225.939	-20.48
226.157	8.19
226.375	38.91
226.592	26.62
226.81	-51.2
227.028	92.16
227.246	40.96
227.464	53.25
227.682	34.82
227.9	47.1
228.117	16.38
228.335	-71.68
228.553	34.82
228.771	-10.24
228.989	10.24
229.206	18.43
229.424	59.39
229.642	47.1
229.86	-53.25
230.077	-10.24
230.295	38.91
230.513	-4.1
230.731	47.1
230.948	77.82
231.166	86.01
231.384	75.77
231.601	53.25
231.819	-38.91
232.037	-16.38
232.254	8.19
232.472	38.91
232.689	26.62
232.907	-6.14
233.125	-59.39
233.342	2.05
233.56	45.06
233.777	100.35
233.995	-6.14
234.213	32.77
234.43	-26.62
234.648	83.97
234.865	30.72
235.083	36.86
235.3	26.62
235.518	98.3
235.735	131.07
235.953	22.53
236.17	14.34
236.388	-12.29
236.605	-6.14
236.822	-73.73
237.04	6.14
237.257	32.77
237.475	-10.24
237.692	114.69
237.909	28.67
238.127	30.72
238.344	4.1
238.562	24.58
238.779	16.38
238.996	-16.38
239.214	0
239.431	-61.44
239.648	2.05
239.865	-51.2
240.083	38.91
240.3	-16.38
240.517	-18.43
240.735	18.43
240.952	116.73
241.169	40.96
241.386	-47.1
241.603	59.39
241.821	32.77
242.038	30.72
242.255	22.53
242.472	18.43
242.689	16.38
242.907	-18.43
243.124	-34.82
243.341	30.72
243.558	-12.29
243.775	-2.05
243.992	-18.43
244.209	67.58
244.426	63.49
244.643	22.53
244.86	-36.86
245.078	59.39
245.295	124.93
245.512	-34.82
245.729	-10.24
245.946	51.2
246.163	106.49
246.38	34.82
246.597	-12.29
246.814	86.01
247.031	-8.19
247.248	-14.34
247.464	51.2
247.681	43.01
247.898	26.62
248.115	-26.62
248.332	-30.72
248.549	12.29
248.766	49.15
248.983	-6.14
249.2	18.43
249.417	67.58
249.633	67.58
249.85	59.39
250.067	34.82
250.284	57.34
250.501	-36.86
250.717	124.93
250.934	-34.82
251.151	20.48
251.368	20.48
251.585	20.48
251.801	30.72
252.018	-16.38
252.235	36.86
252.451	51.2
252.668	-2.05
252.885	4.1
253.102	-30.72
253.318	26.62
253.535	118.78
253.752	36.86
253.968	-22.53
254.185	32.77
254.401	-40.96
254.618	-16.38
254.835	59.39
255.051	83.97
255.268	75.77
255.484	43.01
255.701	-6.14
255.917	38.91
256.134	14.34
256.351	45.06
256.567	-14.34
256.784	4.1
257	-22.53
257.217	10.24
257.433	51.2
257.65	47.1
257.866	75.77
258.082	10.24
258.299	79.87
258.515	26.62
258.732	-28.67
258.948	38.91
259.165	-26.62
259.381	-53.25
259.597	-61.44
259.814	63.49
260.03	10.24
260.246	24.58
260.463	100.35
260.679	22.53
260.895	20.48
261.112	100.35
261.328	-20.48
261.544	32.77
261.761	14.34
261.977	-18.43
262.193	75.77
262.409	114.69
262.626	-10.24
262.842	47.1
263.058	55.3
263.274	73.73
263.49	38.91
263.707	81.92
263.923	43.01
264.139	14.34
264.355	22.53
264.571	55.3
264.787	-28.67
265.004	51.2
265.22	8.19
265.436	55.3
265.652	53.25
265.868	12.29
266.084	-45.06
266.3	22.53
266.516	-34.82
266.732	30.72
266.948	10.24
267.164	51.2
267.38	73.73
267.596	47.1
267.812	10.24
268.028	40.96
268.244	24.58
268.46	-18.43
268.676	-28.67
268.892	-2.05
269.108	28.67
269.324	53.25
269.54	0
269.756	4.1
269.972	4.1
270.188	-30.72
270.403	26.62
270.619	51.2
270.835	-2.05
271.051	2.05
271.267	69.63
271.483	67.58
271.698	16.38
271.914	-8.19
272.13	22.53
272.346	-18.43
272.562	59.39
272.777	100.35
272.993	-16.38
273.209	-32.77
273.425	65.54
273.64	53.25
273.856	-22.53
274.072	12.29
274.287	59.39
274.503	-18.43
274.719	22.53
274.934	-79.87
275.15	-69.63
275.366	-43.01
275.581	32.77
275.797	-24.58
276.012	18.43
276.228	-2.05
276.444	-26.62
276.659	20.48
276.875	-8.19
277.09	40.96
277.306	10.24
277.521	8.19
277.737	10.24
277.952	-38.91
278.168	45.06
278.383	6.14
278.599	36.86
278.814	75.77
279.03	4.1
279.245	81.92
279.461	18.43
279.676	122.88
279.892	-4.1
280.107	16.38
280.322	-71.68
280.538	36.86
280.753	43.01
280.969	28.67
281.184	6.14
281.399	43.01
281.615	-14.34
281.83	14.34
282.045	-32.77
282.26	-4.1
282.476	20.48
282.691	2.05
282.906	92.16
283.122	-53.25
283.337	-38.91
283.552	75.77
283.767	14.34
283.983	-4.1
284.198	51.2
284.413	-53.25
284.628	-16.38
284.843	-32.77
285.058	32.77
285.274	55.3
285.489	-28.67
285.704	55.3
285.919	26.62
286.134	51.2
286.349	-4.1
286.564	28.67
286.779	-2.05
286.995	-2.05
287.21	-8.19
287.425	-28.67
287.64	45.06
287.855	0
288.07	-2.05
288.285	-24.58
288.5	-22.53
288.715	34.82
288.93	0
289.145	2.05
289.36	32.77
289.575	43.01
289.79	59.39
290.004	-8.19
290.219	38.91
290.434	90.11
290.649	65.54
290.864	8.19
291.079	-22.53
291.294	0
291.509	32.77
291.724	57.34
291.938	40.96
292.153	67.58
292.368	-55.3
292.583	32.77
292.798	18.43
293.012	49.15
293.227	73.73
293.442	57.34
293.657	-20.48
293.871	43.01
294.086	-20.48
294.301	-22.53
294.516	59.39
294.73	59.39
294.945	6.14
295.16	8.19
295.374	53.25
295.589	0
295.804	38.91
296.018	49.15
296.233	75.77
296.447	-28.67
296.662	51.2
296.877	57.34
297.091	57.34
297.306	63.49
297.52	47.1
297.735	-26.62
297.949	90.11
298.164	110.59
298.378	36.86
298.593	2.05
298.807	47.1
299.022	133.12
299.236	73.73
299.451	-63.49
299.665	-10.24
299.88	45.06
300.094	4.1
300.309	49.15
300.523	77.82
300.737	-8.19
300.952	-4.1
301.166	108.54
301.381	14.34
301.595	65.54
301.809	-2.05
302.024	-18.43
302.238	2.05
302.452	53.25
302.667	34.82
302.881	45.06
303.095	65.54
303.309	16.38
303.524	51.2
303.738	-10.24
303.952	-14.34
304.166	0
304.381	67.58
304.595	71.68
304.809	2.05
305.023	38.91
305.237	2.05
305.452	30.72
305.666	-14.34
305.88	92.16
306.094	16.38
306.308	-4.1
306.522	65.54
306.736	-24.58
306.95	53.25
307.164	14.34
307.379	49.15
307.593	75.77
307.807	14.34
308.021	36.86
308.235	65.54
308.449	55.3
308.663	12.29
308.877	59.39
309.091	10.24
309.305	-14.34
309.519	92.16
309.733	61.44
309.947	30.72
310.161	69.63
310.374	-8.19
310.588	38.91
310.802	-55.3
311.016	-26.62
311.23	14.34
311.444	-4.1
311.658	-12.29
311.872	63.49
312.085	73.73
312.299	14.34
312.513	14.34
312.727	-36.86
312.941	-98.3
313.154	28.67
313.368	6.14
313.582	32.77
313.796	36.86
314.009	12.29
314.223	22.53
314.437	6.14
314.651	26.62
314.864	40.96
315.078	14.34
315.292	-14.34
315.505	-26.62
315.719	73.73
315.933	18.43
316.146	10.24
316.36	47.1
316.573	65.54
316.787	22.53
317.001	71.68
317.214	43.01
317.428	8.19
317.641	18.43
317.855	16.38
318.068	96.25
318.282	-18.43
318.495	133.12
318.709	0
318.922	-4.1
319.136	-32.77
319.349	20.48
319.563	79.87
319.776	47.1
319.99	-22.53
320.203	36.86
320.417	6.14
320.63	43.01
320.843	57.34
321.057	14.34
321.27	0
321.483	-14.34
321.697	-8.19
321.91	-45.06
322.124	75.77
322.337	-2.05
322.55	30.72
322.763	88.06
322.977	26.62
323.19	18.43
323.403	71.68
323.617	-6.14
323.83	55.3
324.043	34.82
324.256	10.24
324.469	-12.29
324.683	34.82
324.896	12.29
325.109	6.14
325.322	-22.53
325.535	51.2
325.748	73.73
325.962	69.63
326.175	26.62
326.388	34.82
326.601	-28.67
326.814	24.58
327.027	108.54
327.24	45.06
327.453	63.49
327.666	-36.86
327.879	83.97
328.092	16.38
328.305	43.01
328.518	10.24
328.731	4.1
328.944	67.58
329.157	24.58
329.37	65.54
329.583	43.01
329.796	28.67
330.009	-40.96
330.222	2.05
330.435	10.24
330.648	20.48
330.861	10.24
331.073	88.06
331.286	73.73
331.499	45.06
331.712	10.24
331.925	14.34
332.138	18.43
332.35	40.96
332.563	-2.05
332.776	34.82
332.989	118.78
333.202	10.24
333.414	-2.05
333.627	-2.05
333.84	22.53
334.053	-4.1
334.265	12.29
334.478	12.29
334.691	6.14
334.903	43.01
335.116	12.29
335.329	38.91
335.541	-24.58
335.754	51.2
335.966	34.82
336.179	-34.82
336.392	16.38
336.604	-28.67
336.817	-18.43
337.029	22.53
337.242	75.77
337.454	-24.58
337.667	8.19
337.88	-57.34
338.092	137.21
338.305	59.39
338.517	26.62
338.729	49.15
338.942	61.44
339.154	43.01
339.367	30.72
339.579	79.87
339.792	14.34
340.004	10.24
340.217	-32.77
340.429	28.67
340.641	51.2
340.854	88.06
341.066	77.82
341.278	32.77
341.491	108.54
341.703	65.54
341.915	16.38
342.128	73.73
342.34	88.06
342.552	22.53
342.764	106.49
342.977	12.29
343.189	2.05
343.401	-6.14
343.613	-40.96
343.826	6.14
344.038	69.63
344.25	32.77
344.462	-22.53
344.674	59.39
344.886	8.19
345.099	53.25
345.311	137.21
345.523	12.29
345.735	28.67
345.947	30.72
346.159	59.39
346.371	47.1
346.583	55.3
346.795	106.49
347.007	32.77
347.219	79.87
347.431	67.58
347.643	6.14
347.855	38.91
348.067	14.34
348.279	6.14
348.491	61.44
348.703	-2.05
348.915	51.2
349.127	32.77
349.339	55.3
349.551	92.16
349.763	83.97
349.975	6.14
350.187	86.01
350.399	26.62
350.61	12.29
350.822	43.01
351.034	30.72
351.246	-2.05
351.458	108.54
351.669	112.64
351.881	51.2
352.093	53.25
352.305	47.1
352.517	55.3
352.728	45.06
352.94	79.87
353.152	28.67
353.363	14.34
353.575	79.87
353.787	59.39
353.999	47.1
354.21	53.25
354.422	-6.14
354.633	120.83
354.845	16.38
355.057	57.34
355.268	63.49
355.48	67.58
355.692	34.82
355.903	24.58
356.115	-8.19
356.326	53.25
356.538	10.24
356.749	71.68
356.961	59.39
357.172	0
357.384	71.68
357.595	67.58
357.807	124.93
358.018	30.72
358.23	34.82
358.441	83.97
358.653	83.97
358.864	14.34
359.075	-10.24
359.287	8.19
359.498	47.1
359.709	16.38
359.921	20.48
360.132	55.3
360.344	51.2
360.555	96.25
360.766	47.1
360.977	-8.19
361.189	120.83
361.4	51.2
361.611	96.25
361.823	133.12
362.034	63.49
362.245	-24.58
362.456	-4.1
362.667	4.1
362.879	14.34
363.09	38.91
363.301	71.68
363.512	-22.53
363.723	69.63
363.935	141.31
364.146	67.58
364.357	69.63
364.568	65.54
364.779	-6.14
364.99	61.44
365.201	55.3
365.412	55.3
365.623	34.82
365.834	79.87
366.045	10.24
366.256	114.69
366.467	34.82
366.678	49.15
366.889	49.15
367.1	61.44
367.311	59.39
367.522	49.15
367.733	79.87
367.944	30.72
368.155	-26.62
368.366	69.63
368.577	79.87
368.788	75.77
368.999	51.2
369.209	18.43
369.42	96.25
369.631	92.16
369.842	61.44
370.053	79.87
370.264	55.3
370.474	116.73
370.685	20.48
370.896	98.3
371.107	18.43
371.317	53.25
371.528	36.86
371.739	36.86
371.95	83.97
372.16	28.67
372.371	-4.1
372.582	-28.67
372.792	-8.19
373.003	49.15
373.214	20.48
373.424	63.49
373.635	49.15
373.846	61.44
374.056	-6.14
374.267	79.87
374.477	63.49
374.688	-8.19
374.898	12.29
375.109	63.49
375.319	26.62
375.53	16.38
375.74	79.87
375.951	65.54
376.161	53.25
376.372	92.16
376.582	36.86
376.793	6.14
377.003	69.63
377.214	59.39
377.424	38.91
377.635	-2.05
377.845	45.06
378.055	51.2
378.266	12.29
378.476	30.72
378.686	18.43
378.897	34.82
379.107	40.96
379.317	26.62
379.528	83.97
379.738	102.4
379.948	8.19
380.158	20.48
380.369	30.72
380.579	88.06
380.789	67.58
380.999	71.68
381.21	98.3
381.42	129.02
381.63	26.62
381.84	106.49
382.05	57.34
382.261	79.87
382.471	30.72
382.681	36.86
382.891	32.77
383.101	-8.19
383.311	55.3
383.521	57.34
383.731	-28.67
383.941	73.73
384.151	49.15
384.361	0
384.571	83.97
384.781	92.16
384.991	30.72
385.201	36.86
385.411	90.11
385.621	43.01
385.831	36.86
386.041	94.21
386.251	-2.05
386.461	63.49
386.671	28.67
386.881	-30.72
387.091	86.01
387.301	94.21
387.511	65.54
387.72	86.01
387.93	57.34
388.14	81.92
388.35	6.14
388.56	30.72
388.769	26.62
388.979	73.73
389.189	67.58
389.399	86.01
389.609	55.3
389.818	77.82
390.028	102.4
390.238	133.12
390.447	63.49
390.657	83.97
390.867	90.11
391.076	26.62
391.286	49.15
391.496	34.82
391.705	6.14
391.915	139.26
392.125	45.06
392.334	28.67
392.544	86.01
392.753	61.44
392.963	47.1
393.172	90.11
393.382	57.34
393.591	96.25
393.801	-2.05
394.01	59.39
394.22	-18.43
394.429	94.21
394.639	8.19
394.848	65.54
395.058	61.44
395.267	22.53
395.477	79.87
395.686	120.83
395.895	8.19
396.105	165.89
396.314	61.44
396.524	63.49
396.733	34.82
396.942	155.65
397.152	67.58
397.361	63.49
397.57	69.63
397.78	108.54
397.989	65.54
398.198	129.02
398.407	32.77
398.617	102.4
398.826	83.97
399.035	43.01
399.244	51.2
399.453	118.78
399.663	110.59
399.872	108.54
400.081	40.96
400.29	157.69
400.499	83.97
400.708	139.26
400.917	38.91
401.127	94.21
401.336	75.77
401.545	212.99
401.754	106.49
401.963	47.1
402.172	92.16
402.381	114.69
402.59	75.77
402.799	129.02
403.008	157.69
403.217	116.73
403.426	102.4
403.635	77.82
403.844	43.01
404.053	43.01
404.262	86.01
404.471	55.3
404.68	75.77
404.888	94.21
405.097	131.07
405.306	49.15
405.515	61.44
405.724	133.12
405.933	120.83
406.142	210.94
406.35	157.69
406.559	137.21
406.768	135.17
406.977	163.84
407.185	212.99
407.394	169.98
407.603	174.08
407.812	212.99
408.02	153.6
408.229	235.52
408.438	161.79
408.646	192.51
408.855	221.18
409.064	212.99
409.272	176.13
409.481	229.37
409.69	159.74
409.898	153.6
410.107	200.7
410.315	303.1
410.524	309.24
410.733	280.57
410.941	231.42
411.15	303.1
411.358	223.23
411.567	348.15
411.775	323.58
411.984	329.72
412.192	286.72
412.401	299
412.609	385.02
412.818	380.92
413.026	391.16
413.234	448.51
413.443	401.4
413.651	423.93
413.86	462.84
414.068	495.61
414.276	468.98
414.485	571.38
414.693	567.29
414.901	534.52
415.11	585.72
415.318	559.1
415.526	575.48
415.734	690.17
415.943	591.86
416.151	665.59
416.359	606.2
416.567	567.29
416.776	669.69
416.984	749.56
417.192	833.52
417.4	665.59
417.608	745.46
417.817	876.53
418.025	782.32
418.233	946.16
418.441	841.72
418.649	909.3
418.857	1026.03
419.065	1040.37
419.273	1011.7
419.481	1003.5
419.689	1110
419.897	1138.67
420.105	1136.62
420.313	1306.6
420.521	1267.69
420.729	1271.79
420.937	1382.38
421.145	1351.66
421.353	1495.02
421.561	1495.02
421.769	1576.94
421.977	1583.08
422.185	1601.51
422.393	1699.81
422.601	1789.92
422.809	1832.93
423.017	1925.09
423.224	1865.7
423.432	2088.93
423.64	1972.19
423.848	2160.61
424.056	2076.64
424.263	2306.01
424.471	2242.53
424.679	2230.24
424.887	2381.79
425.094	2394.08
425.302	2484.19
425.51	2549.72
425.718	2592.73
425.925	2660.31
426.133	2942.93
426.341	2965.46
426.548	3082.19
426.756	2998.23
426.964	3012.56
427.171	3397.58
427.379	3438.54
427.586	3471.31
427.794	3459.02
428.001	3725.26
428.209	3893.19
428.417	3782.6
428.624	4167.62
428.832	4136.9
429.039	3897.28
429.247	4149.18
429.454	4470.72
429.662	4902.84
429.869	4368.32
430.076	4708.28
430.284	4616.12
430.491	5005.24
430.699	5017.52
430.906	4882.36
431.114	5115.83
431.321	5193.65
431.528	5429.17
431.736	5783.46
431.943	6039.46
432.15	5713.83
432.358	5887.91
432.565	6266.78
432.772	6193.06
432.979	6711.19
433.187	6739.87
433.394	6760.34
433.601	7337.87
433.808	7196.56
434.016	7092.12
434.223	7462.8
434.43	7874.44
434.637	7765.9
434.844	8277.89
435.052	8468.35
435.259	8261.51
435.466	8456.06
435.673	8294.27
435.88	9103.22
436.087	9156.47
436.294	9396.08
436.501	9176.95
436.708	9301.87
436.915	9684.84
437.122	10123.11
437.329	9989.99
437.537	9971.56
437.743	10596.19
437.95	10501.98
438.157	10852.19
438.364	11181.91
438.571	11454.29
438.778	11247.44
438.985	12435.27
439.192	11947.85
439.399	12263.24
439.606	11919.18
439.813	12816.19
440.02	13389.62
440.227	13223.73
440.433	12963.64
440.64	13539.12
440.847	13526.83
441.054	13739.82
441.261	14679.84
441.467	14436.13
441.674	14874.4
441.881	15445.78
442.088	15304.47
442.294	14919.45
442.501	15337.24
442.708	15955.72
442.914	16518.92
443.121	17235.7
443.328	16805.63
443.534	17807.09
443.741	17395.45
443.948	17213.18
444.154	18527.97
444.361	18212.59
444.568	18466.53
444.774	18296.55
444.981	18605.8
445.187	19160.8
445.394	19996.37
445.6	19736.27
445.807	21360.31
446.013	20750.02
446.22	20897.47
446.426	21669.56
446.633	22134.45
446.839	22585
447.046	21655.22
447.252	23090.85
447.459	23123.62
447.665	23031.46
447.871	23735.96
448.078	24768.13
448.284	23834.26
448.491	24395.4
448.697	25269.89
448.903	25796.21
449.11	26019.44
449.316	25224.83
449.522	25486.97
449.728	26658.41
449.935	26437.23
450.141	26707.56
450.347	27244.13
450.553	26127.99
450.76	26764.9
450.966	27567.71
451.172	27166.31
451.378	27899.48
451.584	27367.01
451.791	27987.54
451.997	27623
452.203	28313.17
452.409	28130.9
452.615	27799.13
452.821	27139.68
453.027	26578.54
453.233	27960.92
453.44	26480.24
453.646	27340.38
453.852	27637.34
454.058	27883.09
454.264	27057.76
454.47	27561.56
454.676	26918.5
454.882	27862.61
455.088	25157.25
455.294	25585.27
455.5	25882.23
455.705	26173.04
455.911	24878.72
456.117	24807.05
456.323	24245.9
456.529	22773.41
456.735	24008.34
456.941	23297.69
457.147	23076.51
457.352	22171.31
457.558	21935.79
457.764	21794.48
457.97	21681.85
458.176	21030.59
458.381	21286.59
458.587	20111.05
458.793	19955.41
458.999	18999.01
459.204	20526.79
459.41	19807.95
459.616	18624.23
459.821	18943.71
460.027	18327.27
460.233	17944.3
460.438	17131.26
460.644	17202.94
460.85	16738.05
461.055	16447.24
461.261	16166.67
461.466	15054.62
461.672	14847.77
461.878	15902.48
462.083	14616.35
462.289	14710.56
462.494	14049.07
462.7	13795.12
462.905	13483.83
463.111	13664.05
463.316	13659.95
463.522	13559.6
463.727	13528.88
463.932	13440.82
464.138	13385.52
464.343	13299.51
464.549	13174.58
464.754	13600.56
464.959	13315.89
465.165	13240.12
465.37	12574.53
465.575	12500.8
465.781	12932.92
465.986	13154.1
466.191	12670.78
466.397	12236.61
466.602	11777.87
466.807	12152.65
467.012	11945.8
467.218	11999.05
467.423	11812.68
467.628	11890.51
467.833	12347.2
468.038	12166.98
468.244	11761.48
468.449	11931.47
468.654	11880.27
468.859	11614.03
469.064	11646.8
469.269	11204.44
469.474	11048.79
469.679	11585.36
469.885	11044.7
470.09	11339.6
470.295	11018.07
470.5	10858.33
470.705	10903.39
470.91	10631.01
471.115	10602.33
471.32	10809.18
471.525	10780.51
471.73	10497.89
471.935	10409.83
472.139	9942.89
472.344	10192.74
472.549	10090.34
472.754	10053.48
472.959	9725.8
473.164	9621.36
473.369	9357.17
473.574	9906.02
473.778	9754.48
473.983	9756.52
474.188	9428.85
474.393	9224.05
474.598	9275.25
474.802	9072.5
475.007	8896.38
475.212	9082.74
475.417	8597.37
475.621	8802.17
475.826	8636.28
476.031	8357.76
476.235	8519.55
476.44	8490.88
476.645	8431.49
476.849	8353.66
477.054	8376.19
477.259	8091.52
477.463	8150.92
477.668	7911.3
477.872	7837.58
478.077	7942.02
478.282	7493.52
478.486	7581.58
478.691	7763.85
478.895	7655.31
479.1	7524.24
479.304	7573.39
479.509	7384.98
479.713	7458.7
479.918	7401.36
480.122	7137.17
480.326	7315.34
480.531	7305.1
480.735	7258
480.94	7217.04
481.144	7444.37
481.348	7042.96
481.553	7325.58
481.757	7051.16
481.961	7038.87
482.166	7137.17
482.37	7036.82
482.574	6911.89
482.778	7135.12
482.983	7157.65
483.187	7047.06
483.391	7237.52
483.595	6834.07
483.8	7088.02
484.004	7036.82
484.208	6854.55
484.412	7032.72
484.616	7161.75
484.821	6989.72
485.025	6930.33
485.229	7083.92
485.433	7120.79
485.637	7124.88
485.841	7053.2
486.045	6952.85
486.249	7098.26
486.453	7014.29
486.657	7061.4
486.861	7096.21
487.065	6879.13
487.269	7094.16
487.473	6881.18
487.677	7266.19
487.881	7020.44
488.085	6889.37
488.289	7038.87
488.493	6965.14
488.697	7133.08
488.901	7266.19
489.105	6895.51
489.309	7231.38
489.512	7147.41
489.716	7163.79
489.92	7202.71
490.124	6915.99
490.328	7303.06
490.531	7120.79
490.735	7131.03
490.939	7307.15
491.143	7301.01
491.346	7061.4
491.55	7323.54
491.754	7241.62
491.958	7401.36
492.161	7298.96
492.365	7602.06
492.569	7344.02
492.772	7456.65
492.976	7382.93
493.18	7448.46
493.383	7618.44
493.587	7557
493.79	7813
493.994	7667.6
494.197	7618.44
494.401	7864.2
494.605	7831.43
494.808	8044.42
495.012	8003.46
495.215	7937.93
495.419	8230.79
495.622	8097.67
495.825	8001.41
496.029	8238.98
496.232	8286.08
496.436	8249.22
496.639	8599.42
496.843	8406.91
497.046	8726.39
497.249	8746.87
497.453	8718.2
497.656	8935.29
497.859	8966.01
498.063	8859.51
498.266	9158.52
498.469	9160.56
498.673	9090.93
498.876	9410.42
499.079	9527.15
499.282	9461.62
499.485	9627.5
499.689	9674.6
499.892	9963.37
500.095	9832.3
500.298	10317.67
500.501	9998.18
500.705	10348.39
500.908	10215.27
501.111	10499.94
501.314	10547.04
501.517	10671.97
501.72	10628.96
501.923	10751.84
502.126	11036.5
502.329	11329.36
502.532	11298.64
502.735	11114.33
502.938	11599.69
503.141	11552.59
503.344	11650.89
503.547	11824.97
503.75	11904.84
503.953	12105.54
504.156	12193.61
504.359	12123.97
504.562	12293.96
504.765	12513.09
504.968	12713.79
505.17	12951.35
505.373	12787.52
505.576	13008.7
505.779	13360.95
505.982	13227.83
506.185	13633.33
506.387	13442.87
506.59	13645.62
506.793	13973.29
506.996	14311.21
507.198	14421.8
507.401	14356.26
507.604	14655.26
507.807	14894.88
508.009	14776.09
508.212	15085.34
508.415	15148.82
508.617	15095.58
508.82	15200.02
509.022	15232.79
509.225	15611.67
509.428	15941.39
509.63	16045.84
509.833	16025.36
510.035	16432.9
510.238	16058.12
510.44	16627.46
510.643	16879.36
510.845	16887.55
511.048	16772.86
511.25	17092.35
511.453	17491.7
511.655	17960.69
511.858	17702.64
512.06	17762.03
512.262	18032.36
512.465	18009.84
512.667	18314.98
512.87	18222.83
513.072	18636.52
513.274	18874.08
513.477	18931.42
513.679	19302.11
513.881	19447.51
514.084	19304.15
514.286	19437.27
514.488	19693.27
514.69	20278.99
514.893	20254.41
515.095	20283.08
515.297	20704.96
515.499	20653.76
515.701	20977.34
515.904	21391.03
516.106	21374.65
516.308	21450.42
516.51	21860.02
516.712	21687.99
516.914	21960.37
517.116	22259.37
517.318	22322.86
517.52	22234.8
517.722	22355.63
517.925	22996.64
518.127	23275.16
518.329	23348.89
518.531	23367.32
518.733	23568.02
518.935	23830.16
519.136	24239.76
519.338	24061.58
519.54	24317.58
519.742	24696.46
519.944	24643.21
520.146	25054.85
520.348	25398.91
520.55	25360
520.752	25570.94
520.954	25894.52
521.155	25562.75
521.357	25976.44
521.559	26259.06
521.761	26568.3
521.963	26832.49
522.164	26656.36
522.366	27092.58
522.568	26799.72
522.77	27223.65
522.971	27860.57
523.173	27446.88
523.375	27620.95
523.576	27733.59
523.778	27739.74
523.98	28317.26
524.181	28089.94
524.383	28151.38
524.584	28390.99
524.786	28628.56
524.988	28681.8
525.189	28976.71
525.391	29208.13
525.592	29089.35
525.794	29285.95
525.995	29044.29
526.197	29406.78
526.398	29457.98
526.6	29877.82
526.801	30039.61
527.003	29945.4
527.204	29869.62
527.406	30518.83
527.607	30481.97
527.808	30699.05
528.01	29990.45
528.211	30473.77
528.412	30944.81
528.614	30844.46
528.815	30830.12
529.016	31100.45
529.218	31049.25
529.419	31125.03
529.62	30926.38
529.822	30961.19
530.023	31116.84
530.224	31346.21
530.425	31096.36
530.626	31008.29
530.828	30918.18
531.029	31895.07
531.23	31026.73
531.431	31706.65
531.632	31667.74
531.833	31718.94
532.035	31454.75
532.236	31444.51
532.437	31573.53
532.638	31610.4
532.839	31530.53
533.04	32005.66
533.241	31403.55
533.442	32017.94
533.643	32069.14
533.844	31577.63
534.045	31909.4
534.246	31401.5
534.447	32120.34
534.648	31933.98
534.849	32116.25
535.05	32134.68
535.251	31876.63
535.451	32159.25
535.652	31995.42
535.853	31708.7
536.054	32155.16
536.255	32183.83
536.456	31852.06
536.657	31993.37
536.857	31884.83
537.058	31733.28
537.259	32001.56
537.46	32056.85
537.66	32124.44
537.861	31532.57
538.062	31817.24
538.263	31917.59
538.463	31653.4
538.664	31708.7
538.865	31882.78
539.065	32165.4
539.266	31657.5
539.466	31999.51
539.667	31563.29
539.868	32480.78
540.068	31970.84
540.269	32005.66
540.469	31985.18
540.67	31960.6
540.87	31970.84
541.071	31710.75
541.271	31985.18
541.472	32165.4
541.672	31847.96
541.873	31950.36
542.073	31456.8
542.274	31948.31
542.474	31870.49
542.675	32005.66
542.875	32237.08
543.075	31989.27
543.276	31458.85
543.476	31764
543.676	31696.41
543.877	31579.68
544.077	31634.97
544.277	31819.29
544.478	31751.71
544.678	31845.91
544.878	31757.85
545.078	31622.69
545.279	31596.06
545.479	31776.28
545.679	31622.69
545.879	31745.56
546.079	31903.26
546.28	31493.66
546.48	31368.74
546.68	31782.43
546.88	31827.48
547.08	31768.09
547.28	31428.13
547.48	31221.28
547.68	31651.36
547.88	31333.92
548.081	31469.09
548.281	31518.24
548.481	31358.5
548.681	31528.48
548.881	31346.21
549.081	31401.5
549.28	31264.29
549.48	31546.91
549.68	31403.55
549.88	31753.76
550.08	31163.94
550.28	31704.6
550.48	31188.52
550.68	31444.51
550.88	30936.62
551.08	31415.84
551.279	31526.43
551.479	31270.43
551.679	30926.38
551.879	31325.73
552.079	31149.6
552.278	31217.19
552.478	31473.18
552.678	31362.59
552.878	31563.29
553.077	31411.74
553.277	31014.44
553.477	31407.65
553.676	31018.53
553.876	31204.9
554.076	30776.87
554.275	30916.14
554.475	30520.88
554.674	30875.18
554.874	31039.01
555.074	30936.62
555.273	30881.32
555.473	31206.95
555.672	30795.31
555.872	31053.35
556.071	30905.9
556.271	30862.89
556.47	30557.74
556.67	30185.01
556.869	30557.74
557.068	30686.76
557.268	30373.42
557.467	30801.45
557.667	30404.14
557.866	30856.75
558.065	30242.35
558.265	30279.22
558.464	30367.28
558.663	30727.72
558.863	30248.5
559.062	30572.08
559.261	29908.54
559.461	30514.73
559.66	29988.41
559.859	30201.4
560.058	29720.12
560.258	30242.35
560.457	29726.27
560.656	30238.26
560.855	29648.44
561.054	30225.97
561.253	29828.66
561.453	29681.21
561.652	30053.94
561.851	29734.46
562.05	29824.57
562.249	29447.74
562.448	29830.71
562.647	29949.49
562.846	29337.15
563.045	29273.67
563.244	29228.61
563.443	29877.82
563.642	28905.03
563.841	28952.13
564.04	29236.8
564.239	29302.34
564.438	28952.13
564.637	29126.21
564.836	28704.33
565.035	28892.74
565.234	29070.92
565.432	28419.66
565.631	28499.53
565.83	28716.62
566.029	28292.69
566.228	28640.84
566.427	28384.85
566.625	28151.38
566.824	27901.53
567.023	28380.75
567.222	27969.11
567.42	28581.45
567.619	27913.81
567.818	28210.77
568.016	27913.81
568.215	28038.74
568.414	27639.39
568.612	28005.97
568.811	27510.36
569.01	27633.24
569.208	27383.39
569.407	27627.1
569.605	27506.27
569.804	27623
570.002	27096.67
570.201	27774.55
570.4	27104.87
570.598	27086.43
570.797	26965.6
570.995	27188.83
571.193	26861.16
571.392	27246.18
571.59	26687.08
571.789	26865.25
571.987	26793.58
572.186	26861.16
572.384	26586.73
572.582	26500.72
572.781	26654.31
572.979	26234.48
573.177	26326.64
573.376	26488.43
573.574	26275.44
573.772	26269.3
573.971	26107.51
574.169	26058.35
574.367	25964.15
574.565	26189.42
574.763	25804.41
574.962	26216.05
575.16	25646.71
575.358	25775.73
575.556	25683.58
575.754	25730.68
575.952	25114.24
576.151	25652.86
576.349	25439.87
576.547	25362.04
576.745	25163.39
576.943	25198.21
577.141	25104
577.339	25288.32
577.537	25036.42
577.735	24702.6
577.933	24823.43
578.131	24655.5
578.329	24944.26
578.527	24682.12
578.725	24657.54
578.923	24581.77
579.121	24759.94
579.319	24344.2
579.516	24465.03
579.714	24559.24
579.912	24432.27
580.11	24110.74
580.308	24026.77
580.506	24034.96
580.704	24055.44
580.901	24057.49
581.099	24213.13
581.297	23854.74
581.495	23867.03
581.692	24024.72
581.89	23449.24
582.088	24012.43
582.285	23541.4
582.483	23813.78
582.681	23369.37
582.878	23146.14
583.076	23287.45
583.274	23291.55
583.471	23150.24
583.669	23006.88
583.866	23185.05
584.064	23273.12
584.262	22773.41
584.459	22976.16
584.657	22488.74
584.854	22939.3
585.052	22740.64
585.249	22681.25
585.447	22771.36
585.644	22150.83
585.841	22527.66
586.039	22566.57
586.236	22378.15
586.434	22427.31
586.631	22126.25
586.828	22392.49
587.026	22130.35
587.223	22142.64
587.42	21870.26
587.618	22009.52
587.815	21628.6
588.012	21604.02
588.21	21724.85
588.407	21958.32
588.604	21532.34
588.801	21530.3
588.999	21507.77
589.196	21526.2
589.393	21313.21
589.59	21382.84
589.787	21421.75
589.984	21282.49
590.182	21003.97
590.379	21415.61
590.576	21075.65
590.773	21104.32
590.97	20989.63
591.167	20885.19
591.364	20811.46
591.561	20780.74
591.758	20602.57
591.955	20942.53
592.152	20641.48
592.349	20666.05
592.546	20805.31
592.743	20332.23
592.94	20188.88
593.137	20358.86
593.334	20309.71
593.531	19910.35
593.727	20266.7
593.924	20213.45
594.121	20156.11
594.318	20170.44
594.515	19576.53
594.712	19994.32
594.908	19941.07
595.105	19924.69
595.302	19523.29
595.499	19441.37
595.696	19441.37
595.892	19404.5
596.089	19640.02
596.286	19392.22
596.482	19072.73
596.679	19365.59
596.876	19017.44
597.072	18874.08
597.269	19152.6
597.466	19132.12
597.662	19035.87
597.859	19056.35
598.055	18775.78
598.252	18757.35
598.448	18624.23
598.645	18734.82
598.841	18732.77
599.038	18824.93
599.234	18589.41
599.431	18423.53
599.627	18282.22
599.824	18474.73
600.02	18034.41
600.217	18345.7
600.413	18450.15
600.609	18077.42
600.806	18126.57
601.002	18110.19
601.198	18009.84
601.395	18183.91
601.591	18034.41
601.787	17719.03
601.984	17547
602.18	17968.88
602.376	17600.24
602.572	17673.97
602.769	17614.58
602.965	17540.85
603.161	17452.79
603.357	17381.11
603.553	17508.08
603.75	17553.14
603.946	17401.59
604.142	17116.92
604.338	16944.89
604.534	17286.9
604.73	16918.27
604.926	16891.65
605.122	17164.03
605.318	17172.22
605.514	16561.92
605.71	16705.28
605.906	16869.12
606.102	16606.98
606.298	16715.52
606.494	16631.55
606.69	16738.05
606.886	16842.49
607.082	16502.53
607.278	16412.42
607.474	16094.99
607.67	16574.21
607.866	16350.98
608.062	16572.16
608.257	16129.8
608.453	16236.3
608.649	16606.98
608.845	15937.29
609.041	15963.92
609.236	16033.55
609.432	16121.61
609.628	16094.99
609.824	15963.92
610.019	16064.27
610.215	15814.41
610.411	16017.16
610.606	15644.43
610.802	16121.61
610.998	15609.62
611.193	15978.25
611.389	15580.95
611.584	15898.38
611.78	15660.82
611.976	15564.56
612.171	15722.26
612.367	15585.04
612.562	15611.67
612.758	15345.43
612.953	15458.07
613.149	15619.86
613.344	15357.72
613.539	15578.9
613.735	15415.06
613.93	15398.68
614.126	15079.19
614.321	15361.81
614.517	15275.8
614.712	15193.88
614.907	15320.85
615.103	15382.29
615.298	15097.63
615.493	15019.8
615.688	14786.33
615.884	15085.34
616.079	14735.14
616.274	14890.78
616.47	14913.31
616.665	14927.64
616.86	14659.36
617.055	14817.05
617.25	14782.24
617.445	15206.17
617.641	14503.71
617.836	14612.26
618.031	14389.03
618.226	14788.38
618.421	14645.02
618.616	14534.43
618.811	14444.32
619.006	14726.94
619.201	14284.58
619.396	14284.58
619.591	13999.91
619.786	14452.52
619.981	13887.28
620.176	14257.96
620.371	13926.19
620.566	14094.12
620.761	13973.29
620.956	13868.84
621.151	13725.49
621.346	13999.91
621.541	13694.77
621.735	13475.63
621.93	13424.44
622.125	13641.52
622.32	13254.45
622.515	13315.89
622.709	13190.97
622.904	13254.45
623.099	13014.84
623.294	13133.62
623.488	13074.23
623.683	13037.37
623.878	12891.96
624.072	12789.56
624.267	13000.51
624.462	12640.06
624.656	12558.14
624.851	12572.48
625.046	12609.34
625.24	12373.83
625.435	12482.37
625.629	12232.52
625.824	12250.95
626.018	12431.17
626.213	11919.18
626.407	12066.63
626.602	11962.19
626.796	11894.6
626.991	12011.34
627.185	11726.67
627.38	11966.28
627.574	11710.29
627.768	11614.03
627.963	11605.84
628.157	11476.82
628.352	11640.65
628.546	11186.01
628.74	11532.11
628.935	11173.72
629.129	11292.5
629.323	11364.18
629.517	11222.87
629.712	10985.3
629.906	10995.54
630.1	10809.18
630.294	10919.77
630.489	10858.33
630.683	10843.99
630.877	10731.36
631.071	10643.29
631.265	10639.2
631.459	10553.18
631.653	10317.67
631.848	10381.15
632.042	10207.08
632.236	10497.89
632.43	10266.47
632.624	10258.28
632.818	10170.21
633.012	9979.75
633.206	9844.59
633.4	10033
633.594	9918.31
633.788	9971.56
633.982	9807.72
634.176	9772.91
634.369	9664.36
634.563	9633.64
634.757	9441.14
634.951	9752.43
635.145	9615.21
635.339	9582.45
635.533	9346.93
635.726	9471.86
635.92	9338.74
636.114	9391.98
636.308	9140.08
636.501	9355.12
636.695	9156.47
636.889	9070.45
637.083	9219.96
637.276	9082.74
637.47	8898.42
637.664	8912.76
637.857	9041.78
638.051	8873.85
638.244	8636.28
638.438	8750.97
638.632	8742.78
638.825	8740.73
639.019	8593.28
639.212	8564.61
639.406	8468.35
639.599	8460.16
639.793	8406.91
639.986	8298.37
640.18	8318.85
640.373	8402.82
640.567	8144.77
640.76	8318.85
640.954	8200.07
641.147	8142.72
641.34	8142.72
641.534	8095.62
641.727	7948.17
641.92	8087.43
642.114	7982.98
642.307	8062.85
642.5	7925.64
642.694	7757.71
642.887	7671.69
643.08	7716.75
643.273	7661.45
643.467	7622.54
643.66	7575.44
643.853	7468.94
644.046	7405.46
644.239	7628.68
644.432	7241.62
644.626	7503.76
644.819	7305.1
645.012	7319.44
645.205	7387.02
645.398	7298.96
645.591	7210.9
645.784	7204.75
645.977	7092.12
646.17	7038.87
646.363	6973.33
646.556	7100.31
646.749	6786.97
646.942	7028.63
647.135	6844.31
647.328	6799.26
647.521	6854.55
647.714	6703
647.907	6805.4
648.099	6703
648.292	6719.39
648.485	6649.75
648.678	6479.77
648.871	6598.56
649.064	6449.05
649.256	6459.29
649.449	6438.81
649.642	6440.86
649.835	6369.18
650.027	6291.36
650.22	6332.32
650.413	6334.37
650.605	6268.83
650.798	6262.69
650.991	6072.23
651.183	6121.38
651.376	6016.93
651.568	6166.43
651.761	6039.46
651.954	6109.09
652.146	6006.69
652.339	5971.88
652.531	6008.74
652.724	5924.77
652.916	5892.01
653.109	5908.39
653.301	5830.57
653.494	5918.63
653.686	5666.73
653.879	5695.4
654.071	5736.36
654.263	5584.81
654.456	5773.22
654.648	5420.97
654.84	5539.76
655.033	5590.95
655.225	5466.03
655.417	5294
655.61	5431.21
655.802	5300.14
655.994	5304.24
656.186	5224.37
656.379	5212.08
656.571	5314.48
656.763	5226.42
656.955	5240.75
657.148	5236.66
657.34	5296.05
657.532	5148.59
657.724	5099.44
657.916	5259.18
658.108	5158.83
658.3	5070.77
658.492	5179.31
658.684	4855.73
658.876	5054.39
659.068	5040.05
659.26	4962.23
659.452	4921.27
659.644	4992.95
659.836	4945.84
660.028	4761.53
660.22	4878.26
660.412	4687.8
660.604	4798.39
660.796	4716.47
660.988	4687.8
661.18	4677.56
661.372	4638.65
661.563	4695.99
661.755	4648.89
661.947	4511.68
662.139	4540.35
662.331	4511.68
662.522	4564.92
662.714	4487.1
662.906	4349.89
663.097	4497.34
663.289	4446.14
663.481	4396.99
663.673	4392.89
663.864	4450.24
664.056	4417.47
664.247	4368.32
664.439	4110.27
664.631	4378.56
664.822	4339.65
665.014	4304.83
665.205	4353.98
665.397	4157.38
665.588	4140.99
665.78	4077.51
665.971	4079.55
666.163	4052.93
666.354	4050.88
666.546	4057.03
666.737	3946.44
666.929	4044.74
667.12	4036.55
667.311	4069.31
667.503	3788.74
667.694	3936.2
667.885	4054.98
668.077	3948.48
668.268	3893.19
668.459	3876.8
668.651	3852.23
668.842	3839.94
669.033	3778.5
669.224	3708.87
669.416	3770.31
669.607	3786.69
669.798	3641.29
669.989	3725.26
670.18	3782.6
670.371	3663.82
670.563	3698.63
670.754	3624.9
670.945	3545.03
671.136	3700.68
671.327	3663.82
671.518	3588.04
671.709	3561.42
671.9	3590.09
672.091	3600.33
672.282	3663.82
672.473	3518.41
672.664	3626.95
672.855	3475.4
673.046	3368.91
673.237	3588.04
673.428	3502.03
673.619	3418.06
673.809	3463.12
674	3385.29
674.191	3375.05
674.382	3278.8
674.573	3442.64
674.764	3239.89
674.954	3432.4
675.145	3278.8
675.336	3127.25
675.527	3315.66
675.717	3358.67
675.908	3141.58
676.099	3243.98
676.289	3330
676.48	3215.31
676.671	3192.78
676.861	3151.82
677.052	3192.78
677.243	3205.07
677.433	3100.62
677.624	3227.6
677.814	3133.39
678.005	3155.92
678.195	3084.24
678.386	3192.78
678.576	3108.82
678.767	3078.1
678.957	3074
679.148	3147.73
679.338	3086.29
679.529	3043.28
679.719	3092.43
679.909	3059.67
680.1	3108.82
680.29	3090.38
680.481	3108.82
680.671	3061.71
680.861	2987.99
681.052	3000.27
681.242	3030.99
681.432	3024.85
681.622	2815.96
681.813	2916.31
682.003	2924.5
682.193	2830.29
682.383	2971.6
682.573	2887.64
682.764	2797.53
682.954	2815.96
683.144	2953.17
683.334	2781.14
683.524	2957.27
683.714	2830.29
683.904	2865.11
684.094	2830.29
684.284	2899.92
684.474	2738.13
684.664	2836.44
684.854	2820.05
685.044	2713.56
685.234	2803.67
685.424	2701.27
685.614	2693.08
685.804	2746.33
685.994	2775
686.184	2668.5
686.374	2822.1
686.564	2656.22
686.753	2656.22
686.943	2613.21
687.133	2635.74
687.323	2594.78
687.513	2641.88
687.702	2643.93
687.892	2670.55
688.082	2668.5
688.272	2619.35
688.461	2535.39
688.651	2676.7
688.841	2494.43
689.03	2500.57
689.22	2498.52
689.41	2527.19
689.599	2553.82
689.789	2564.06
689.979	2566.1
690.168	2490.33
690.358	2537.43
690.547	2381.79
690.737	2488.28
690.926	2396.12
691.116	2365.4
691.305	2396.12
691.495	2336.73
691.684	2332.64
691.874	2363.36
692.063	2359.26
692.252	2314.2
692.442	2451.42
692.631	2240.48
692.82	2242.53
693.01	2271.2
693.199	2365.4
693.388	2318.3
693.578	2295.77
693.767	2353.12
693.956	2236.38
694.146	2293.73
694.335	2197.47
694.524	2316.25
694.713	2377.69
694.902	2156.51
695.092	2189.28
695.281	2105.31
695.47	2150.37
695.659	2039.78
695.848	2213.85
696.037	2127.84
696.226	2242.53
696.415	2209.76
696.604	2183.13
696.793	2187.23
696.982	2115.55
697.171	2193.37
697.36	2123.74
697.549	2242.53
697.738	2131.94
697.927	2095.07
698.116	2195.42
698.305	2111.46
698.494	2033.63
698.683	2148.32
698.872	2082.78
699.061	2080.74
699.25	2009.06
699.438	2113.5
699.627	1984.48
699.816	2193.37
700.005	2000.87
700.193	1970.15
700.382	2086.88
700.571	1980.39
700.76	2062.3
700.948	1966.05
701.137	1910.75
701.326	2047.97
701.514	2119.65
701.703	2025.44
701.892	2000.87
702.08	2099.17
702.269	2050.02
702.457	1935.33
702.646	2050.02
702.834	2142.18
703.023	2039.78
703.212	1912.8
703.4	1982.43
703.589	2058.21
703.777	2011.11
703.965	2125.79
704.154	1951.71
704.342	2107.36
704.531	2025.44
704.719	1964
704.907	2078.69
705.096	1978.34
705.284	2029.54
705.472	1986.53
705.661	2060.26
705.849	2004.96
706.037	1992.67
706.226	1927.14
706.414	1894.37
706.602	1972.19
706.79	1832.93
706.979	1929.19
707.167	1992.67
707.355	1970.15
707.543	1920.99
707.731	1910.75
707.919	2064.35
708.107	2025.44
708.296	2021.35
708.484	1986.53
708.672	2076.64
708.86	1945.57
709.048	2025.44
709.236	1931.23
709.424	1986.53
709.612	1945.57
709.8	2060.26
709.988	1880.04
710.176	1894.37
710.364	1935.33
710.551	2017.25
710.739	1873.89
710.927	1904.61
711.115	1882.08
711.303	1933.28
711.491	1849.32
711.679	1916.9
711.866	1767.4
712.054	1886.18
712.242	1884.13
712.43	2054.11
712.617	1984.48
712.805	1849.32
712.993	2015.2
713.181	1949.67
713.368	1894.37
713.556	1845.22
713.744	1818.6
713.931	1857.51
714.119	1931.23
714.306	1875.94
714.494	2004.96
714.682	1890.28
714.869	1898.47
715.057	1875.94
715.244	1890.28
715.432	1914.85
715.619	1767.4
715.807	1828.84
715.994	1855.46
716.182	1839.08
716.369	1853.41
716.556	1947.62
716.744	1972.19
716.931	1806.31
717.119	1914.85
717.306	1976.29
717.493	1814.5
717.681	1865.7
717.868	1796.07
718.055	1890.28
718.242	1867.75
718.43	1865.7
718.617	1791.97
718.804	1902.56
718.991	1789.92
719.179	1916.9
719.366	1824.74
719.553	1777.64
719.74	1765.35
719.927	1916.9
720.114	1849.32
720.301	1884.13
720.488	1759.21
720.676	1759.21
720.863	1796.07
721.05	1828.84
721.237	1755.11
721.424	1855.46
721.611	1908.71
721.798	1822.69
721.985	1699.81
722.172	1816.55
722.358	1832.93
722.545	1808.36
722.732	1800.16
722.919	1828.84
723.106	1798.12
723.293	1832.93
723.48	1875.94
723.667	1808.36
723.853	1794.02
724.04	1896.42
724.227	1781.73
724.414	1755.11
724.6	1804.26
724.787	1718.25
724.974	1861.6
725.161	1855.46
725.347	1779.68
725.534	1806.31
725.72	1765.35
725.907	1890.28
726.094	1822.69
726.28	1738.73
726.467	1732.58
726.653	1808.36
726.84	1880.04
727.027	1804.26
727.213	1744.87
727.4	1820.64
727.586	1865.7
727.773	1800.16
727.959	1738.73
728.145	1832.93
728.332	1726.44
728.518	1726.44
728.705	1744.87
728.891	1830.88
729.077	1751.01
729.264	1742.82
729.45	1832.93
729.636	1816.55
729.823	1890.28
730.009	1771.49
730.195	1824.74
730.382	1791.97
730.568	1742.82
730.754	1826.79
730.94	1832.93
731.126	1718.25
731.313	1812.45
731.499	1791.97
731.685	1767.4
731.871	1746.92
732.057	1902.56
732.243	1834.98
732.429	1822.69
732.615	1687.53
732.801	1920.99
732.987	1697.77
733.173	1726.44
733.359	1712.1
733.545	1738.73
733.731	1648.61
733.917	1806.31
734.103	1794.02
734.289	1730.53
734.475	1716.2
734.661	1781.73
734.847	1787.88
735.033	1832.93
735.219	1705.96
735.404	1767.4
735.59	1628.14
735.776	1765.35
735.962	1742.82
736.148	1742.82
736.333	1755.11
736.519	1722.34
736.705	1673.19
736.89	1691.62
737.076	1665
737.262	1728.49
737.447	1730.53
737.633	1656.81
737.819	1691.62
738.004	1718.25
738.19	1685.48
738.375	1644.52
738.561	1693.67
738.747	1619.94
738.932	1566.7
739.118	1595.37
739.303	1650.66
739.489	1630.18
739.674	1603.56
739.859	1603.56
740.045	1683.43
740.23	1755.11
740.416	1603.56
740.601	1632.23
740.786	1763.3
740.972	1716.2
741.157	1517.54
741.342	1560.55
741.528	1519.59
741.713	1611.75
741.898	1585.13
742.084	1542.12
742.269	1617.9
742.454	1593.32
742.639	1662.95
742.824	1525.74
743.01	1689.57
743.195	1597.42
743.38	1624.04
743.565	1583.08
743.75	1628.14
743.935	1515.5
744.12	1552.36
744.305	1495.02
744.49	1470.44
744.675	1578.98
744.86	1503.21
745.045	1621.99
745.23	1509.35
745.415	1466.35
745.6	1550.31
745.785	1462.25
745.97	1566.7
746.155	1505.26
746.34	1466.35
746.525	1355.76
746.71	1548.26
746.895	1439.72
747.079	1425.39
747.264	1406.95
747.449	1429.48
747.634	1372.14
747.819	1411.05
748.003	1349.61
748.188	1312.75
748.373	1302.51
748.557	1368.04
748.742	1327.08
748.927	1329.13
749.111	1296.36
749.296	1247.21
749.481	1318.89
749.665	1265.64
749.85	1284.08
750.034	1310.7
750.219	1251.31
750.404	1179.63
750.588	1146.86
750.773	1239.02
750.957	1198.06
751.141	1218.54
751.326	1169.39
751.51	1142.77
751.695	1095.66
751.879	1165.29
752.064	1263.6
752.248	1204.21
752.432	1185.77
752.617	1204.21
752.801	1271.79
752.985	1200.11
753.17	1183.73
753.354	1187.82
753.538	1099.76
753.722	1204.21
753.907	1144.81
754.091	1066.99
754.275	1128.43
754.459	1212.4
754.643	1073.14
754.828	1015.79
755.012	1095.66
755.196	1013.74
755.38	1066.99
755.564	1077.23
755.748	1058.8
755.932	1026.03
756.116	1155.05
756.3	1079.28
756.484	983.03
756.668	905.2
756.852	958.45
757.036	1019.89
757.22	931.83
757.404	1044.46
757.588	991.22
757.772	933.87
757.956	989.17
758.14	948.21
758.323	960.5
758.507	980.98
758.691	937.97
758.875	935.92
759.059	1007.6
759.242	843.76
759.426	876.53
759.61	923.63
759.794	905.2
759.977	909.3
760.161	927.73
760.345	946.16
760.528	925.68
760.712	878.58
760.895	888.82
761.079	923.63
761.263	931.83
761.446	802.8
761.63	864.24
761.813	886.77
761.997	782.32
762.18	825.33
762.364	767.99
762.547	862.19
762.731	882.67
762.914	780.28
763.098	876.53
763.281	747.51
763.464	862.19
763.648	778.23
763.831	798.71
764.015	731.12
764.198	776.18
764.381	784.37
764.564	833.52
764.748	798.71
764.931	751.6
765.114	796.66
765.297	792.56
765.481	827.38
765.664	741.36
765.847	673.78
766.03	849.91
766.213	759.8
766.397	782.32
766.58	786.42
766.763	747.51
766.946	714.74
767.129	708.6
767.312	665.59
767.495	733.17
767.678	643.06
767.861	778.23
768.044	694.26
768.227	724.98
768.41	767.99
768.593	667.64
768.776	700.41
768.959	751.6
769.142	796.66
769.324	712.69
769.507	735.22
769.69	753.65
769.873	743.41
770.056	677.88
770.239	657.4
770.421	765.94
770.604	643.06
770.787	712.69
770.97	653.3
771.152	647.16
771.335	677.88
771.518	688.12
771.7	653.3
771.883	684.02
772.066	579.58
772.248	661.49
772.431	657.4
772.613	679.93
772.796	675.83
772.978	696.31
773.161	630.77
773.343	522.23
773.526	630.77
773.708	557.05
773.891	712.69
774.073	671.73
774.256	671.73
774.438	587.77
774.621	571.38
774.803	591.86
774.985	618.49
775.168	618.49
775.35	571.38
775.532	571.38
775.715	589.82
775.897	585.72
776.079	565.24
776.261	628.73
776.444	602.1
776.626	669.69
776.808	526.33
776.99	538.62
777.173	526.33
777.355	628.73
777.537	509.94
777.719	534.52
777.901	591.86
778.083	493.56
778.265	546.81
778.447	485.37
778.629	491.51
778.811	534.52
778.993	483.32
779.175	522.23
779.357	557.05
779.539	495.61
779.721	473.08
779.903	452.6
780.085	477.18
780.267	534.52
780.449	462.84
780.631	509.94
780.812	534.52
780.994	460.79
781.176	507.9
781.358	452.6
781.54	483.32
781.721	487.42
781.903	395.26
782.085	425.98
782.267	423.93
782.448	428.03
782.63	450.55
782.812	432.12
782.993	374.78
783.175	473.08
783.357	378.87
783.538	413.69
783.72	301.05
783.901	446.46
784.083	460.79
784.264	438.27
784.446	337.91
784.627	333.82
784.809	350.2
784.99	403.45
785.172	360.44
785.353	397.31
785.535	417.79
785.716	374.78
785.897	378.87
786.079	352.25
786.26	337.91
786.441	354.3
786.623	344.06
786.804	362.49
786.985	235.52
787.167	436.22
787.348	333.82
787.529	370.68
787.71	362.49
787.891	382.97
788.073	303.1
788.254	260.09
788.435	292.86
788.616	354.3
788.797	313.34
788.978	303.1
789.159	323.58
789.34	315.39
789.522	395.26
789.703	366.59
789.884	331.77
790.065	260.09
790.246	241.66
790.427	274.43
790.607	280.57
790.788	337.91
790.969	256
791.15	319.48
791.331	292.86
791.512	243.71
791.693	266.24
791.874	284.67
792.054	358.39
792.235	317.44
792.416	159.74
792.597	296.96
792.778	249.85
792.958	303.1
793.139	256
793.32	243.71
793.5	149.5
793.681	172.03
793.862	245.76
794.042	311.29
794.223	247.8
794.404	272.38
794.584	215.04
794.765	256
794.945	215.04
795.126	262.14
795.306	303.1
795.487	231.42
795.667	233.47
795.848	235.52
796.028	286.72
796.209	301.05
796.389	266.24
796.57	270.33
796.75	172.03
796.93	280.57
797.111	260.09
797.291	229.37
797.471	319.48
797.652	219.13
797.832	151.55
798.012	270.33
798.192	172.03
798.373	237.56
798.553	210.94
798.733	212.99
798.913	217.08
799.093	256
799.274	253.95
799.454	186.37
799.634	264.19
799.814	202.75
799.994	186.37
800.174	204.8
800.354	241.66
800.534	172.03
800.714	229.37
800.894	233.47
801.074	219.13
801.254	202.75
801.434	229.37
801.614	163.84
801.794	225.28
801.974	503.8
802.154	161.79
802.334	268.28
802.514	161.79
802.693	200.7
802.873	286.72
803.053	212.99
803.233	251.9
803.413	126.97
803.592	219.13
803.772	116.73
803.952	208.89
804.131	210.94
804.311	247.8
804.491	204.8
804.67	141.31
804.85	186.37
805.03	188.41
805.209	237.56
805.389	208.89
805.568	137.21
805.748	92.16
805.928	231.42
806.107	198.65
806.287	120.83
806.466	88.06
806.646	114.69
806.825	153.6
807.004	139.26
807.184	86.01
807.363	190.46
807.543	118.78
807.722	204.8
807.901	165.89
808.081	126.97
808.26	172.03
808.439	106.49
808.619	108.54
808.798	196.61
808.977	145.41
809.156	141.31
809.336	159.74
809.515	137.21
809.694	172.03
809.873	102.4
810.052	182.27
810.231	225.28
810.411	77.82
810.59	133.12
810.769	92.16
810.948	178.17
811.127	108.54
811.306	167.93
811.485	86.01
811.664	165.89
811.843	161.79
812.022	161.79
812.201	47.1
812.38	135.17
812.559	120.83
812.737	88.06
812.916	81.92
813.095	186.37
813.274	75.77
813.453	133.12
813.632	163.84
813.811	96.25
813.989	47.1
814.168	92.16
814.347	178.17
814.526	112.64
814.704	88.06
814.883	133.12
815.062	133.12
815.24	57.34
815.419	83.97
815.598	124.93
815.776	73.73
815.955	137.21
816.133	92.16
816.312	137.21
816.49	169.98
816.669	153.6
816.847	92.16
817.026	129.02
817.204	131.07
817.383	110.59
817.561	94.21
817.74	100.35
817.918	81.92
818.097	14.34
818.275	83.97
818.453	63.49
818.632	24.58
818.81	126.97
818.988	47.1
819.167	133.12
819.345	157.69
819.523	71.68
819.701	102.4
819.879	69.63
820.058	55.3
820.236	139.26
820.414	129.02
820.592	102.4
820.77	65.54
820.948	47.1
821.127	92.16
821.305	133.12
821.483	108.54
821.661	98.3
821.839	38.91
822.017	67.58
822.195	67.58
822.373	112.64
822.551	106.49
822.729	155.65
822.907	120.83
823.085	212.99
823.262	116.73
823.44	102.4
823.618	137.21
823.796	65.54
823.974	83.97
824.152	77.82
824.329	28.67
824.507	212.99
824.685	65.54
824.863	53.25
825.04	75.77
825.218	71.68
825.396	88.06
825.574	133.12
825.751	90.11
825.929	184.32
826.107	10.24
826.284	118.78
826.462	88.06
826.639	69.63
826.817	71.68
826.994	92.16
827.172	114.69
827.349	57.34
827.527	163.84
827.704	71.68
827.882	2.05
828.059	116.73
828.237	38.91
828.414	49.15
828.591	139.26
828.769	102.4
828.946	108.54
829.124	112.64
829.301	69.63
829.478	116.73
829.655	96.25
829.833	63.49
830.01	40.96
830.187	122.88
830.364	112.64
830.542	102.4
830.719	122.88
830.896	67.58
831.073	24.58
831.25	34.82
831.427	124.93
831.604	53.25
831.782	45.06
831.959	129.02
832.136	81.92
832.313	57.34
832.49	108.54
832.667	22.53
832.844	45.06
833.021	38.91
833.198	47.1
833.374	126.97
833.551	92.16
833.728	96.25
833.905	63.49
834.082	55.3
834.259	22.53
834.436	129.02
834.612	55.3
834.789	16.38
834.966	49.15
835.143	100.35
835.319	40.96
835.496	24.58
835.673	55.3
835.85	100.35
836.026	65.54
836.203	55.3
836.38	36.86
836.556	71.68
836.733	71.68
836.909	10.24
837.086	51.2
837.262	45.06
837.439	49.15
837.616	53.25
837.792	24.58
837.968	51.2
838.145	51.2
838.321	108.54
838.498	38.91
838.674	106.49
838.851	79.87
839.027	30.72
839.203	40.96
839.38	90.11
839.556	32.77
839.732	129.02
839.909	110.59
840.085	114.69
840.261	65.54
840.437	18.43
840.614	141.31
840.79	63.49
840.966	47.1
841.142	75.77
841.318	-40.96
841.494	10.24
841.671	53.25
841.847	26.62
842.023	75.77
842.199	-12.29
842.375	73.73
842.551	4.1
842.727	30.72
842.903	83.97
843.079	83.97
843.255	63.49
843.431	16.38
843.607	126.97
843.783	-2.05
843.959	55.3
844.134	10.24
844.31	51.2
844.486	-20.48
844.662	2.05
844.838	47.1
845.013	47.1
845.189	40.96
845.365	59.39
845.541	114.69
845.716	96.25
845.892	71.68
846.068	71.68
846.244	-12.29
846.419	49.15
846.595	-4.1
846.77	14.34
846.946	90.11
847.122	49.15
847.297	-6.14
847.473	61.44
847.648	53.25
847.824	43.01
847.999	36.86
848.175	131.07
848.35	77.82
848.526	86.01
848.701	45.06
848.876	75.77
849.052	49.15
849.227	137.21
849.403	49.15
849.578	65.54
849.753	81.92
849.929	16.38
850.104	63.49
850.279	71.68
850.454	32.77
850.63	20.48
850.805	61.44
850.98	30.72
851.155	40.96
851.33	61.44
851.505	86.01
851.681	94.21
851.856	16.38
852.031	59.39
852.206	-2.05
852.381	83.97
852.556	-49.15
852.731	65.54
852.906	57.34
853.081	18.43
853.256	81.92
853.431	26.62
853.606	-8.19
853.781	-14.34
853.956	47.1
854.131	73.73
854.305	61.44
854.48	16.38
854.655	-83.97
854.83	57.34
855.005	59.39
855.18	-12.29
855.354	6.14
855.529	20.48
855.704	10.24
855.879	120.83
856.053	16.38
856.228	34.82
856.403	53.25
856.577	6.14
856.752	-18.43
856.926	59.39
857.101	86.01
857.276	16.38
857.45	88.06
857.625	24.58
857.799	49.15
857.974	26.62
858.148	-34.82
858.323	8.19
858.497	22.53
858.672	34.82
858.846	28.67
859.02	98.3
859.195	-18.43
859.369	-6.14
859.543	26.62
859.718	110.59
859.892	22.53
860.066	38.91
860.241	20.48
860.415	2.05
860.589	4.1
860.763	-49.15
860.938	81.92
861.112	51.2
861.286	6.14
861.46	79.87
861.634	-10.24
861.808	0
861.982	28.67
862.157	40.96
862.331	55.3
862.505	38.91
862.679	-22.53
862.853	81.92
863.027	67.58
863.201	110.59
863.375	16.38
863.549	-14.34
863.722	18.43
863.896	18.43
864.07	-83.97
864.244	32.77
864.418	57.34
864.592	-22.53
864.766	88.06
864.939	43.01
865.113	14.34
865.287	38.91
865.461	14.34
865.634	57.34
865.808	0
865.982	24.58
866.156	14.34
866.329	6.14
866.503	-16.38
866.676	45.06
866.85	8.19
867.024	6.14
867.197	-10.24
867.371	47.1
867.544	67.58
867.718	30.72
867.891	-8.19
868.065	22.53
868.238	73.73
868.412	67.58
868.585	-8.19
868.759	-28.67
868.932	-6.14
869.105	-30.72
869.279	-6.14
869.452	-8.19
869.625	-43.01
869.799	-8.19
869.972	-10.24
870.145	-22.53
870.319	63.49
870.492	8.19
870.665	40.96
870.838	28.67
871.011	40.96
871.185	30.72
871.358	-2.05
871.531	59.39
871.704	22.53
871.877	-6.14
872.05	18.43
872.223	67.58
872.396	65.54
872.569	-12.29
872.742	14.34
872.915	28.67
873.088	22.53
873.261	6.14
873.434	32.77
873.607	36.86
873.78	30.72
873.953	32.77
874.126	49.15
874.299	6.14
874.471	-45.06
874.644	-2.05
874.817	77.82
874.99	34.82
875.163	-79.87
875.335	16.38
875.508	51.2
875.681	45.06
875.853	4.1
876.026	38.91
876.199	-12.29
876.371	79.87
876.544	-55.3
876.717	40.96
876.889	36.86
877.062	20.48
877.234	-14.34
877.407	-10.24
877.579	-63.49
877.752	83.97
877.924	22.53
878.097	59.39
878.269	18.43
878.442	6.14
878.614	-12.29
878.786	43.01
878.959	14.34
879.131	18.43
879.303	18.43
879.476	-47.1
879.648	36.86
879.82	22.53
879.993	20.48
880.165	6.14
880.337	-20.48
880.509	0
880.681	34.82
880.854	16.38
881.026	-59.39
881.198	47.1
881.37	55.3
881.542	-4.1
881.714	-22.53
881.886	20.48
882.058	20.48
882.23	69.63
882.402	57.34
882.574	49.15
882.746	0
882.918	67.58
883.09	26.62
883.262	-28.67
883.434	71.68
883.606	-63.49
883.778	0
883.95	40.96
884.122	-24.58
884.293	24.58
884.465	51.2
884.637	-45.06
884.809	-20.48
884.98	8.19
885.152	-47.1
885.324	12.29
885.496	-47.1
885.667	10.24
885.839	-30.72
886.011	-18.43
886.182	-2.05
886.354	-16.38
886.525	57.34
886.697	2.05
886.869	-90.11
887.04	18.43
887.212	-14.34
887.383	51.2
887.555	-20.48
887.726	-38.91
887.897	-2.05
888.069	28.67
888.24	22.53
888.412	63.49
888.583	16.38
888.754	98.3
888.926	-34.82
889.097	-24.58
889.268	-40.96
889.44	28.67
889.611	-81.92
889.782	-10.24
889.953	-47.1
890.125	34.82
890.296	22.53
890.467	-10.24
890.638	59.39
890.809	6.14
890.98	-20.48
891.151	24.58
891.323	-14.34
891.494	-2.05
891.665	-63.49
891.836	-49.15
892.007	47.1
892.178	-30.72
892.349	-53.25
892.52	4.1
892.691	34.82
892.862	-40.96
893.032	63.49
893.203	26.62
893.374	65.54
893.545	63.49
893.716	10.24
893.887	-2.05
894.057	-32.77
894.228	-10.24
894.399	-88.06
894.57	129.02
894.74	-6.14
894.911	51.2
895.082	14.34
895.253	-38.91
895.423	-16.38
895.594	-10.24
895.764	-30.72
895.935	16.38
896.106	-45.06
896.276	45.06
896.447	26.62
896.617	24.58
896.788	63.49
896.958	45.06
897.129	-14.34
897.299	-69.63
897.47	-20.48
897.64	45.06
897.81	8.19
897.981	-4.1
898.151	-2.05
898.322	45.06
898.492	98.3
898.662	-38.91
898.832	-55.3
899.003	8.19
899.173	-12.29
899.343	40.96
899.513	4.1
