Data from USB4F104151__52__11-05-42-928.txt Node

Date: Wed Mar 12 11:05:42 EDT 2025
User: louis
Spectrometer: USB4F10415
Trigger mode: 4
Integration Time (sec): 2.000000E-2
Scans to average: 1
Electric dark correction enabled: true
Nonlinearity correction enabled: false
Boxcar width: 0
XAxis mode: Wavelengths
Number of Pixels in Spectrum: 3648
>>>>>Begin Spectral Data<<<<<
178.204	-72.7
178.424	-72.7
178.644	-72.7
178.864	-101.37
179.084	-93.18
179.304	37.89
179.524	-48.13
179.744	3.07
179.964	46.08
180.184	-33.79
180.404	1.02
180.624	15.36
180.844	-23.55
181.064	35.84
181.283	19.46
181.503	-76.8
181.723	23.55
181.943	-5.12
182.163	70.65
182.383	-33.79
182.602	70.65
182.822	23.55
183.042	21.5
183.262	-13.31
183.482	25.6
183.701	64.51
183.921	-17.41
184.141	23.55
184.361	25.6
184.58	44.03
184.8	-19.46
185.02	-27.65
185.239	13.31
185.459	74.75
185.679	37.89
185.898	-17.41
186.118	41.98
186.338	-9.22
186.557	37.89
186.777	-39.94
186.997	3.07
187.216	37.89
187.436	62.46
187.655	23.55
187.875	72.7
188.095	11.26
188.314	58.37
188.534	84.99
188.753	-41.98
188.973	37.89
189.192	62.46
189.412	31.74
189.631	-23.55
189.851	23.55
190.07	39.94
190.29	-21.5
190.509	39.94
190.729	-76.8
190.948	62.46
191.168	37.89
191.387	84.99
191.607	-33.79
191.826	5.12
192.045	72.7
192.265	-60.42
192.484	76.8
192.704	-1.02
192.923	33.79
193.142	150.53
193.362	58.37
193.581	54.27
193.8	109.57
194.02	58.37
194.239	7.17
194.458	48.13
194.678	60.42
194.897	-31.74
195.116	17.41
195.335	-13.31
195.555	56.32
195.774	-5.12
195.993	1.02
196.212	56.32
196.432	33.79
196.651	-3.07
196.87	3.07
197.089	78.85
197.308	-25.6
197.528	35.84
197.747	-13.31
197.966	-3.07
198.185	99.33
198.404	9.22
198.623	-19.46
198.842	7.17
199.062	41.98
199.281	64.51
199.5	-50.18
199.719	13.31
199.938	44.03
200.157	21.5
200.376	35.84
200.595	-27.65
200.814	29.7
201.033	-3.07
201.252	-1.02
201.471	46.08
201.69	-11.26
201.909	-33.79
202.128	60.42
202.347	46.08
202.566	25.6
202.785	25.6
203.004	62.46
203.223	-13.31
203.442	33.79
203.661	-27.65
203.879	56.32
204.098	82.94
204.317	31.74
204.536	46.08
204.755	-41.98
204.974	68.61
205.193	56.32
205.411	80.89
205.63	78.85
205.849	78.85
206.068	3.07
206.287	-7.17
206.505	64.51
206.724	-54.27
206.943	31.74
207.162	89.09
207.381	60.42
207.599	82.94
207.818	60.42
208.037	95.23
208.255	23.55
208.474	9.22
208.693	-15.36
208.911	39.94
209.13	-1.02
209.349	21.5
209.567	15.36
209.786	54.27
210.005	37.89
210.223	25.6
210.442	82.94
210.661	19.46
210.879	58.37
211.098	37.89
211.316	13.31
211.535	74.75
211.753	15.36
211.972	17.41
212.191	-33.79
212.409	-23.55
212.628	17.41
212.846	25.6
213.065	3.07
213.283	70.65
213.502	27.65
213.72	27.65
213.938	29.7
214.157	37.89
214.375	-13.31
214.594	7.17
214.812	-60.42
215.031	3.07
215.249	60.42
215.467	-3.07
215.686	7.17
215.904	60.42
216.122	7.17
216.341	27.65
216.559	29.7
216.778	48.13
216.996	25.6
217.214	-33.79
217.432	-7.17
217.651	21.5
217.869	-15.36
218.087	21.5
218.306	111.61
218.524	115.71
218.742	-74.75
218.96	44.03
219.179	27.65
219.397	9.22
219.615	62.46
219.833	58.37
220.051	-5.12
220.27	7.17
220.488	33.79
220.706	-5.12
220.924	15.36
221.142	-3.07
221.36	13.31
221.578	66.56
221.796	7.17
222.015	9.22
222.233	23.55
222.451	48.13
222.669	41.98
222.887	37.89
223.105	1.02
223.323	-25.6
223.541	-23.55
223.759	-41.98
223.977	54.27
224.195	68.61
224.413	27.65
224.631	39.94
224.849	58.37
225.067	87.04
225.285	7.17
225.503	39.94
225.721	23.55
225.939	15.36
226.157	46.08
226.375	9.22
226.592	27.65
226.81	41.98
227.028	-13.31
227.246	41.98
227.464	39.94
227.682	-17.41
227.9	33.79
228.117	-7.17
228.335	-17.41
228.553	-25.6
228.771	-15.36
228.989	19.46
229.206	-48.13
229.424	72.7
229.642	37.89
229.86	70.65
230.077	66.56
230.295	31.74
230.513	25.6
230.731	21.5
230.948	19.46
231.166	35.84
231.384	-41.98
231.601	25.6
231.819	23.55
232.037	-7.17
232.254	7.17
232.472	5.12
232.689	-31.74
232.907	44.03
233.125	27.65
233.342	-109.57
233.56	27.65
233.777	76.8
233.995	62.46
234.213	50.18
234.43	-56.32
234.648	70.65
234.865	13.31
235.083	25.6
235.3	54.27
235.518	37.89
235.735	41.98
235.953	74.75
236.17	19.46
236.388	9.22
236.605	5.12
236.822	54.27
237.04	82.94
237.257	-19.46
237.475	82.94
237.692	91.13
237.909	5.12
238.127	41.98
238.344	54.27
238.562	41.98
238.779	44.03
238.996	95.23
239.214	41.98
239.431	72.7
239.648	-19.46
239.865	60.42
240.083	13.31
240.3	-11.26
240.517	29.7
240.735	37.89
240.952	13.31
241.169	84.99
241.386	3.07
241.603	80.89
241.821	21.5
242.038	-46.08
242.255	105.47
242.472	74.75
242.689	15.36
242.907	41.98
243.124	7.17
243.341	23.55
243.558	-3.07
243.775	-48.13
243.992	-29.7
244.209	70.65
244.426	50.18
244.643	66.56
244.86	39.94
245.078	-74.75
245.295	84.99
245.512	35.84
245.729	15.36
245.946	25.6
246.163	7.17
246.38	97.28
246.597	17.41
246.814	-9.22
247.031	46.08
247.248	68.61
247.464	46.08
247.681	-7.17
247.898	23.55
248.115	17.41
248.332	-9.22
248.549	23.55
248.766	15.36
248.983	76.8
249.2	5.12
249.417	-23.55
249.633	21.5
249.85	52.22
250.067	-23.55
250.284	56.32
250.501	17.41
250.717	80.89
250.934	39.94
251.151	-21.5
251.368	13.31
251.585	60.42
251.801	25.6
252.018	-11.26
252.235	-23.55
252.451	48.13
252.668	66.56
252.885	21.5
253.102	56.32
253.318	-7.17
253.535	50.18
253.752	48.13
253.968	-41.98
254.185	-11.26
254.401	15.36
254.618	17.41
254.835	3.07
255.051	25.6
255.268	13.31
255.484	9.22
255.701	-27.65
255.917	25.6
256.134	13.31
256.351	87.04
256.567	95.23
256.784	9.22
257	-5.12
257.217	-17.41
257.433	74.75
257.65	17.41
257.866	19.46
258.082	13.31
258.299	50.18
258.515	39.94
258.732	29.7
258.948	15.36
259.165	-15.36
259.381	11.26
259.597	1.02
259.814	27.65
260.03	23.55
260.246	64.51
260.463	33.79
260.679	-3.07
260.895	78.85
261.112	-27.65
261.328	-70.65
261.544	37.89
261.761	82.94
261.977	7.17
262.193	-64.51
262.409	1.02
262.626	19.46
262.842	-35.84
263.058	-3.07
263.274	39.94
263.49	66.56
263.707	21.5
263.923	-25.6
264.139	-25.6
264.355	17.41
264.571	103.42
264.787	19.46
265.004	68.61
265.22	29.7
265.436	13.31
265.652	-13.31
265.868	-33.79
266.084	-23.55
266.3	-35.84
266.516	-11.26
266.732	39.94
266.948	3.07
267.164	60.42
267.38	15.36
267.596	-9.22
267.812	5.12
268.028	-15.36
268.244	13.31
268.46	33.79
268.676	-7.17
268.892	37.89
269.108	121.85
269.324	13.31
269.54	25.6
269.756	5.12
269.972	-52.22
270.188	-9.22
270.403	37.89
270.619	-15.36
270.835	39.94
271.051	41.98
271.267	9.22
271.483	-50.18
271.698	11.26
271.914	91.13
272.13	70.65
272.346	41.98
272.562	-9.22
272.777	41.98
272.993	37.89
273.209	78.85
273.425	82.94
273.64	-50.18
273.856	11.26
274.072	21.5
274.287	1.02
274.503	109.57
274.719	66.56
274.934	105.47
275.15	-39.94
275.366	13.31
275.581	-64.51
275.797	70.65
276.012	-50.18
276.228	-37.89
276.444	46.08
276.659	60.42
276.875	-27.65
277.09	21.5
277.306	19.46
277.521	89.09
277.737	58.37
277.952	58.37
278.168	9.22
278.383	39.94
278.599	19.46
278.814	64.51
279.03	70.65
279.245	107.52
279.461	-9.22
279.676	54.27
279.892	48.13
280.107	21.5
280.322	82.94
280.538	23.55
280.753	33.79
280.969	25.6
281.184	25.6
281.399	23.55
281.615	66.56
281.83	5.12
282.045	-5.12
282.26	33.79
282.476	50.18
282.691	87.04
282.906	29.7
283.122	-21.5
283.337	17.41
283.552	25.6
283.767	21.5
283.983	-5.12
284.198	50.18
284.413	-19.46
284.628	1.02
284.843	15.36
285.058	44.03
285.274	11.26
285.489	64.51
285.704	64.51
285.919	13.31
286.134	-3.07
286.349	9.22
286.564	29.7
286.779	134.14
286.995	37.89
287.21	15.36
287.425	13.31
287.64	25.6
287.855	46.08
288.07	44.03
288.285	31.74
288.5	62.46
288.715	87.04
288.93	3.07
289.145	62.46
289.36	48.13
289.575	76.8
289.79	23.55
290.004	3.07
290.219	48.13
290.434	35.84
290.649	103.42
290.864	35.84
291.079	19.46
291.294	46.08
291.509	78.85
291.724	78.85
291.938	3.07
292.153	56.32
292.368	44.03
292.583	5.12
292.798	78.85
293.012	-48.13
293.227	23.55
293.442	29.7
293.657	-3.07
293.871	54.27
294.086	39.94
294.301	33.79
294.516	25.6
294.73	9.22
294.945	1.02
295.16	-35.84
295.374	-3.07
295.589	-3.07
295.804	-9.22
296.018	-25.6
296.233	103.42
296.447	50.18
296.662	31.74
296.877	25.6
297.091	46.08
297.306	-13.31
297.52	84.99
297.735	21.5
297.949	56.32
298.164	80.89
298.378	66.56
298.593	-3.07
298.807	-31.74
299.022	68.61
299.236	52.22
299.451	25.6
299.665	-15.36
299.88	87.04
300.094	121.85
300.309	76.8
300.523	54.27
300.737	37.89
300.952	-11.26
301.166	17.41
301.381	52.22
301.595	37.89
301.809	25.6
302.024	74.75
302.238	17.41
302.452	5.12
302.667	50.18
302.881	13.31
303.095	76.8
303.309	-9.22
303.524	21.5
303.738	-19.46
303.952	50.18
304.166	115.71
304.381	-52.22
304.595	35.84
304.809	-35.84
305.023	72.7
305.237	103.42
305.452	-15.36
305.666	-21.5
305.88	82.94
306.094	64.51
306.308	11.26
306.522	54.27
306.736	25.6
306.95	72.7
307.164	58.37
307.379	76.8
307.593	50.18
307.807	-3.07
308.021	93.18
308.235	72.7
308.449	56.32
308.663	54.27
308.877	87.04
309.091	78.85
309.305	72.7
309.519	-17.41
309.733	95.23
309.947	41.98
310.161	25.6
310.374	82.94
310.588	39.94
310.802	37.89
311.016	56.32
311.23	56.32
311.444	62.46
311.658	58.37
311.872	46.08
312.085	46.08
312.299	154.62
312.513	25.6
312.727	21.5
312.941	3.07
313.154	138.24
313.368	31.74
313.582	-13.31
313.796	1.02
314.009	54.27
314.223	150.53
314.437	46.08
314.651	-5.12
314.864	29.7
315.078	46.08
315.292	87.04
315.505	-13.31
315.719	3.07
315.933	1.02
316.146	48.13
316.36	13.31
316.573	54.27
316.787	48.13
317.001	23.55
317.214	-41.98
317.428	52.22
317.641	48.13
317.855	39.94
318.068	15.36
318.282	41.98
318.495	58.37
318.709	113.66
318.922	134.14
319.136	54.27
319.349	37.89
319.563	-46.08
319.776	70.65
319.99	60.42
320.203	7.17
320.417	87.04
320.63	35.84
320.843	103.42
321.057	-9.22
321.27	101.37
321.483	-1.02
321.697	58.37
321.91	17.41
322.124	35.84
322.337	-3.07
322.55	-13.31
322.763	15.36
322.977	-39.94
323.19	27.65
323.403	13.31
323.617	-11.26
323.83	62.46
324.043	64.51
324.256	17.41
324.469	31.74
324.683	91.13
324.896	99.33
325.109	15.36
325.322	15.36
325.535	125.95
325.748	17.41
325.962	31.74
326.175	-1.02
326.388	-7.17
326.601	46.08
326.814	76.8
327.027	33.79
327.24	-15.36
327.453	29.7
327.666	-5.12
327.879	46.08
328.092	78.85
328.305	74.75
328.518	27.65
328.731	25.6
328.944	82.94
329.157	-5.12
329.37	13.31
329.583	58.37
329.796	99.33
330.009	-7.17
330.222	15.36
330.435	46.08
330.648	7.17
330.861	-35.84
331.073	9.22
331.286	93.18
331.499	-13.31
331.712	9.22
331.925	76.8
332.138	82.94
332.35	103.42
332.563	80.89
332.776	-9.22
332.989	7.17
333.202	37.89
333.414	-23.55
333.627	23.55
333.84	74.75
334.053	113.66
334.265	-39.94
334.478	15.36
334.691	11.26
334.903	-9.22
335.116	54.27
335.329	46.08
335.541	15.36
335.754	144.38
335.966	48.13
336.179	97.28
336.392	19.46
336.604	41.98
336.817	15.36
337.029	17.41
337.242	-27.65
337.454	56.32
337.667	19.46
337.88	-33.79
338.092	33.79
338.305	82.94
338.517	62.46
338.729	-11.26
338.942	56.32
339.154	1.02
339.367	58.37
339.579	-1.02
339.792	15.36
340.004	99.33
340.217	3.07
340.429	-15.36
340.641	19.46
340.854	7.17
341.066	74.75
341.278	64.51
341.491	25.6
341.703	66.56
341.915	93.18
342.128	80.89
342.34	58.37
342.552	41.98
342.764	68.61
342.977	13.31
343.189	21.5
343.401	64.51
343.613	99.33
343.826	48.13
344.038	15.36
344.25	97.28
344.462	-52.22
344.674	91.13
344.886	17.41
345.099	99.33
345.311	46.08
345.523	60.42
345.735	52.22
345.947	56.32
346.159	-27.65
346.371	19.46
346.583	52.22
346.795	46.08
347.007	78.85
347.219	21.5
347.431	41.98
347.643	39.94
347.855	56.32
348.067	66.56
348.279	9.22
348.491	64.51
348.703	64.51
348.915	5.12
349.127	33.79
349.339	52.22
349.551	-7.17
349.763	23.55
349.975	41.98
350.187	54.27
350.399	91.13
350.61	66.56
350.822	52.22
351.034	56.32
351.246	46.08
351.458	70.65
351.669	21.5
351.881	37.89
352.093	35.84
352.305	29.7
352.517	-27.65
352.728	121.85
352.94	25.6
353.152	44.03
353.363	29.7
353.575	109.57
353.787	99.33
353.999	-35.84
354.21	58.37
354.422	9.22
354.633	-56.32
354.845	62.46
355.057	27.65
355.268	41.98
355.48	56.32
355.692	-46.08
355.903	82.94
356.115	84.99
356.326	21.5
356.538	121.85
356.749	87.04
356.961	9.22
357.172	72.7
357.384	50.18
357.595	50.18
357.807	101.37
358.018	48.13
358.23	25.6
358.441	60.42
358.653	89.09
358.864	29.7
359.075	29.7
359.287	80.89
359.498	25.6
359.709	56.32
359.921	78.85
360.132	-29.7
360.344	76.8
360.555	29.7
360.766	76.8
360.977	29.7
361.189	66.56
361.4	7.17
361.611	76.8
361.823	64.51
362.034	39.94
362.245	33.79
362.456	17.41
362.667	-17.41
362.879	15.36
363.09	39.94
363.301	70.65
363.512	60.42
363.723	95.23
363.935	62.46
364.146	9.22
364.357	5.12
364.568	101.37
364.779	48.13
364.99	93.18
365.201	17.41
365.412	54.27
365.623	-13.31
365.834	68.61
366.045	-11.26
366.256	84.99
366.467	25.6
366.678	31.74
366.889	115.71
367.1	29.7
367.311	31.74
367.522	97.28
367.733	46.08
367.944	70.65
368.155	-7.17
368.366	82.94
368.577	64.51
368.788	84.99
368.999	50.18
369.209	74.75
369.42	70.65
369.631	56.32
369.842	74.75
370.053	-15.36
370.264	21.5
370.474	-27.65
370.685	95.23
370.896	105.47
371.107	117.76
371.317	41.98
371.528	33.79
371.739	82.94
371.95	23.55
372.16	107.52
372.371	80.89
372.582	74.75
372.792	78.85
373.003	56.32
373.214	44.03
373.424	31.74
373.635	37.89
373.846	140.29
374.056	13.31
374.267	62.46
374.477	58.37
374.688	64.51
374.898	52.22
375.109	99.33
375.319	39.94
375.53	37.89
375.74	82.94
375.951	74.75
376.161	84.99
376.372	72.7
376.582	27.65
376.793	103.42
377.003	21.5
377.214	72.7
377.424	-37.89
377.635	74.75
377.845	80.89
378.055	105.47
378.266	35.84
378.476	5.12
378.686	52.22
378.897	70.65
379.107	103.42
379.317	50.18
379.528	64.51
379.738	70.65
379.948	58.37
380.158	103.42
380.369	31.74
380.579	50.18
380.789	54.27
380.999	56.32
381.21	62.46
381.42	105.47
381.63	13.31
381.84	66.56
382.05	95.23
382.261	125.95
382.471	76.8
382.681	3.07
382.891	146.43
383.101	25.6
383.311	-3.07
383.521	27.65
383.731	72.7
383.941	111.61
384.151	44.03
384.361	19.46
384.571	123.9
384.781	72.7
384.991	62.46
385.201	134.14
385.411	123.9
385.621	60.42
385.831	-11.26
386.041	89.09
386.251	64.51
386.461	105.47
386.671	70.65
386.881	27.65
387.091	84.99
387.301	128
387.511	-5.12
387.72	44.03
387.93	101.37
388.14	11.26
388.35	68.61
388.56	50.18
388.769	101.37
388.979	15.36
389.189	-13.31
389.399	-15.36
389.609	54.27
389.818	68.61
390.028	52.22
390.238	54.27
390.447	109.57
390.657	-3.07
390.867	41.98
391.076	-19.46
391.286	58.37
391.496	64.51
391.705	25.6
391.915	113.66
392.125	82.94
392.334	29.7
392.544	101.37
392.753	41.98
392.963	87.04
393.172	54.27
393.382	29.7
393.591	128
393.801	113.66
394.01	76.8
394.22	97.28
394.429	144.38
394.639	66.56
394.848	82.94
395.058	54.27
395.267	48.13
395.477	80.89
395.686	158.72
395.895	74.75
396.105	19.46
396.314	39.94
396.524	99.33
396.733	87.04
396.942	78.85
397.152	105.47
397.361	93.18
397.57	123.9
397.78	78.85
397.989	66.56
398.198	140.29
398.407	97.28
398.617	132.09
398.826	107.52
399.035	119.81
399.244	66.56
399.453	66.56
399.663	48.13
399.872	107.52
400.081	93.18
400.29	158.72
400.499	72.7
400.708	91.13
400.917	113.66
401.127	95.23
401.336	134.14
401.545	173.05
401.754	171.01
401.963	148.48
402.172	70.65
402.381	56.32
402.59	105.47
402.799	109.57
403.008	185.34
403.217	25.6
403.426	158.72
403.635	121.85
403.844	150.53
404.053	168.96
404.262	146.43
404.471	267.26
404.68	150.53
404.888	152.57
405.097	103.42
405.306	195.58
405.515	164.86
405.724	179.2
405.933	121.85
406.142	228.35
406.35	209.92
406.559	136.19
406.768	95.23
406.977	254.97
407.185	226.3
407.394	254.97
407.603	136.19
407.812	193.53
408.02	324.6
408.229	279.55
408.438	222.2
408.646	287.74
408.855	236.54
409.064	267.26
409.272	224.25
409.481	238.59
409.69	308.22
409.898	318.46
410.107	353.27
410.315	330.75
410.524	326.65
410.733	287.74
410.941	343.03
411.15	427
411.358	349.18
411.567	406.52
411.775	381.95
411.984	447.48
412.192	439.29
412.401	457.72
412.609	533.5
412.818	498.68
413.026	506.87
413.234	506.87
413.443	578.55
413.651	560.12
413.86	533.5
414.068	596.98
414.276	611.32
414.485	574.46
414.693	613.37
414.901	793.59
415.11	705.53
415.318	732.15
415.526	723.96
415.734	773.11
415.943	828.4
416.151	842.74
416.359	895.99
416.567	881.65
416.776	967.67
416.984	1051.63
417.192	990.19
417.4	996.34
417.608	1053.68
417.817	1035.25
418.025	1141.74
418.233	1201.13
418.441	1188.85
418.649	1145.84
418.857	1252.33
419.065	1297.39
419.273	1371.12
419.481	1487.85
419.689	1467.37
419.897	1557.48
420.105	1643.49
420.313	1594.34
420.521	1711.08
420.729	1706.98
420.937	1739.75
421.145	1817.57
421.353	1844.2
421.561	2014.18
421.769	1993.7
421.977	2110.43
422.185	2124.77
422.393	2331.61
422.601	2489.31
422.809	2311.13
423.017	2431.96
423.224	2438.11
423.432	2587.61
423.64	2728.92
423.848	2763.73
424.056	2769.88
424.263	2964.43
424.471	3038.16
424.679	2995.15
424.887	3224.53
425.094	3275.73
425.302	3285.97
425.51	3578.83
425.718	3503.05
425.925	3670.98
426.133	3773.38
426.341	4047.81
426.548	4131.78
426.756	4293.57
426.964	4236.22
427.171	4441.02
427.379	4512.7
427.586	4570.04
427.794	4850.61
428.001	4950.96
428.209	5190.58
428.417	4977.59
428.624	5401.52
428.832	5587.88
429.039	5440.43
429.247	5434.29
429.454	5936.04
429.662	6503.32
429.869	5893.03
430.076	6325.15
430.284	6200.23
430.491	6460.32
430.699	6894.49
430.906	6843.29
431.114	6927.25
431.321	7267.22
431.528	7347.09
431.736	7842.7
431.943	8270.72
432.15	8010.63
432.358	8024.97
432.565	8387.46
432.772	8334.21
432.979	8854.39
433.187	9253.75
433.394	9159.54
433.601	9679.72
433.808	9749.36
434.016	9528.17
434.223	10179.43
434.43	10621.79
434.637	10244.96
434.844	11096.92
435.052	11367.25
435.259	11217.75
435.466	11348.82
435.673	11156.31
435.88	11940.68
436.087	12636.99
436.294	12612.42
436.501	12299.08
436.708	12501.83
436.915	12923.71
437.122	13689.65
437.329	13630.26
437.537	14089
437.743	14068.52
437.95	14097.19
438.157	14908.19
438.364	15199
438.571	15424.28
438.778	15301.4
438.985	16741.12
439.192	16444.17
439.399	16706.31
439.606	16063.24
439.813	17109.75
440.02	18197.23
440.227	17853.17
440.433	18133.74
440.64	18404.07
440.847	18273
441.054	18803.43
441.261	20052.69
441.467	19782.35
441.674	20101.84
441.881	20910.78
442.088	20611.78
442.294	20583.11
442.501	20937.41
442.708	21506.74
442.914	22319.79
443.121	23370.4
443.328	22760.1
443.534	24236.69
443.741	23763.61
443.948	23202.46
444.154	25369.21
444.361	24894.08
444.568	25119.36
444.774	24855.17
444.981	25465.47
445.187	26235.5
445.394	27316.83
445.6	26901.09
445.807	29528.64
446.013	28138.07
446.22	28555.85
446.426	30011.96
446.633	30231.09
446.839	30980.65
447.046	29874.74
447.252	31582.75
447.459	31521.31
447.665	31212.07
447.871	32713.23
448.078	33923.58
448.284	32352.79
448.491	32999.94
448.697	34435.57
448.903	35006.95
449.11	35379.68
449.316	34376.18
449.522	35414.5
449.728	35748.32
449.935	36383.19
450.141	36346.33
450.347	37044.68
450.553	36139.48
450.76	35957.21
450.966	37466.56
451.172	36694.48
451.378	37757.38
451.584	37079.5
451.791	37960.12
451.997	37745.09
452.203	38470.07
452.409	38343.09
452.615	37968.32
452.821	36710.86
453.027	36325.85
453.233	37956.03
453.44	36700.62
453.646	37263.82
453.852	37214.66
454.058	37814.72
454.264	36628.95
454.47	37362.12
454.676	35883.48
454.882	37128.65
455.088	34103.8
455.294	34314.74
455.5	34953.71
455.705	35346.92
455.911	34318.84
456.117	33464.83
456.323	32926.22
456.529	31134.24
456.735	32098.84
456.941	31582.75
457.147	31267.36
457.352	29755.96
457.558	29854.26
457.764	30136.88
457.97	29186.63
458.176	28351.06
458.381	28858.95
458.587	27081.31
458.793	26823.27
458.999	25897.59
459.204	27781.72
459.41	26667.63
459.616	24898.18
459.821	25023.11
460.027	24906.37
460.233	24345.23
460.438	22940.32
460.644	23487.13
460.85	22241.96
461.055	22256.3
461.261	21740.21
461.466	20501.19
461.672	19507.93
461.878	21353.15
462.083	19911.38
462.289	19403.48
462.494	19284.7
462.7	18469.61
462.905	17914.61
463.111	18473.7
463.316	18510.57
463.522	18291.43
463.727	18508.52
463.932	18256.62
464.138	17955.57
464.343	18057.96
464.549	17462.01
464.754	17847.02
464.959	17935.09
465.165	17654.51
465.37	17296.12
465.575	16851.71
465.781	17261.3
465.986	17443.57
466.191	16614.15
466.397	16102.15
466.602	15733.52
466.807	16284.42
467.012	16171.79
467.218	16091.91
467.423	16030.48
467.628	16114.44
467.833	16855.81
468.038	15926.03
468.244	15643.41
468.449	16128.78
468.654	15784.72
468.859	15547.15
469.064	15702.8
469.269	14877.47
469.474	14957.34
469.679	15258.39
469.885	14947.1
470.09	15069.98
470.295	14856.99
470.5	14502.69
470.705	14836.51
470.91	14342.95
471.115	14119.72
471.32	14615.33
471.525	14322.47
471.73	14019.37
471.935	13804.33
472.139	13497.14
472.344	13656.88
472.549	13517.62
472.754	13177.65
472.959	13124.41
473.164	12704.57
473.369	12624.7
473.574	13153.08
473.778	13116.22
473.983	12802.88
474.188	12585.79
474.393	12385.09
474.598	12383.04
474.802	12004.17
475.007	12129.09
475.212	12168.01
475.417	11617.1
475.621	11621.2
475.826	11737.93
476.031	11373.39
476.235	11240.28
476.44	11381.59
476.645	11162.45
476.849	11209.56
477.054	10883.93
477.259	10791.77
477.463	10906.46
477.668	10595.17
477.872	10928.99
478.077	10558.3
478.282	10527.58
478.486	10277.73
478.691	10175.33
478.895	10240.87
479.1	10249.06
479.304	10044.26
479.509	9927.53
479.713	10011.5
479.918	9804.65
480.122	9603.95
480.326	9743.21
480.531	9575.28
480.735	9642.86
480.94	9444.21
481.144	9845.61
481.348	9448.3
481.553	9436.02
481.757	9190.26
481.961	9495.41
482.166	9556.85
482.37	9513.84
482.574	9081.72
482.778	9433.97
482.983	9458.54
483.187	9431.92
483.391	9382.77
483.595	9358.19
483.8	9313.14
484.004	9515.89
484.208	9190.26
484.412	9466.74
484.616	9364.34
484.821	9376.62
485.025	9339.76
485.229	9476.98
485.433	9276.27
485.637	9290.61
485.841	9436.02
486.045	9237.36
486.249	9065.33
486.453	9313.14
486.657	9290.61
486.861	9333.62
487.065	9137.01
487.269	9454.45
487.473	9251.7
487.677	9503.6
487.881	9302.9
488.085	9231.22
488.289	9214.84
488.493	9366.39
488.697	9438.06
488.901	9403.25
489.105	9350
489.309	9595.76
489.512	9612.14
489.716	9548.65
489.92	9438.06
490.124	9433.97
490.328	9407.34
490.531	9339.76
490.735	9642.86
490.939	9673.58
491.143	9409.39
491.346	9407.34
491.55	9642.86
491.754	9737.07
491.958	9743.21
492.161	9800.55
492.365	10023.78
492.569	9788.27
492.772	9751.4
492.976	9909.1
493.18	10111.85
493.383	10136.42
493.587	10214.24
493.79	10238.82
493.994	9941.86
494.197	10136.42
494.401	10363.75
494.605	10378.08
494.808	10711.9
495.012	10531.68
495.215	10570.59
495.419	10777.44
495.622	10656.61
495.825	10875.74
496.029	10814.3
496.232	10875.74
496.436	11162.45
496.639	11223.89
496.843	11330.39
497.046	11453.27
497.249	11658.06
497.453	11623.25
497.656	11701.07
497.859	11731.79
498.063	12100.42
498.266	12276.55
498.469	12016.46
498.673	12131.14
498.876	12581.7
499.079	12632.9
499.282	12661.57
499.485	13177.65
499.689	12993.34
499.892	13085.5
500.095	13124.41
500.298	13513.52
500.501	13630.26
500.705	13865.77
500.908	13830.96
501.111	13937.45
501.314	14076.71
501.517	14433.06
501.72	14467.88
501.923	14463.78
502.126	14920.48
502.329	14813.98
502.532	15143.7
502.735	15137.56
502.938	15364.89
503.141	15622.93
503.344	15780.62
503.547	15872.78
503.75	16184.07
503.953	16175.88
504.156	16470.79
504.359	16442.12
504.562	16601.86
504.765	16859.9
504.968	17130.23
505.17	17441.53
505.373	17390.33
505.576	17820.4
505.779	17597.17
505.982	17879.79
506.185	18254.57
506.387	18408.17
506.59	18612.96
506.793	18944.73
506.996	18983.65
507.198	19501.78
507.401	19276.51
507.604	19624.66
507.807	20067.02
508.009	20265.67
508.212	20202.19
508.415	20597.45
508.617	20710.08
508.82	20531.91
509.022	20837.06
509.225	21113.53
509.428	21318.33
509.63	21586.61
509.833	21764.79
510.035	22211.25
510.238	22186.67
510.44	22313.64
510.643	22557.35
510.845	22864.55
511.048	23014.05
511.25	23282.33
511.453	23347.87
511.655	24228.49
511.858	23802.52
512.06	24103.57
512.262	24480.39
512.465	24701.58
512.667	24658.57
512.87	25193.09
513.072	25270.91
513.274	25709.18
513.477	25830.01
513.679	26040.95
513.881	26159.73
514.084	26843.75
514.286	26743.4
514.488	26718.82
514.69	27439.71
514.893	27560.54
515.095	27718.23
515.297	28093.01
515.499	27937.37
515.701	28377.68
515.904	28731.98
516.106	29018.69
516.308	29299.26
516.51	29672
516.712	29688.38
516.914	29887.03
517.116	30587.44
517.318	30298.67
517.52	30659.12
517.722	30949.93
517.925	31425.06
518.127	31636
518.329	31975.96
518.531	31762.97
518.733	32121.37
518.935	32422.42
519.136	32514.58
519.338	33366.53
519.54	33124.87
519.742	33966.59
519.944	33675.77
520.146	34454
520.348	34595.31
520.55	34591.22
520.752	34664.94
520.954	35756.51
521.155	35013.1
521.357	35764.7
521.559	35846.62
521.761	36522.45
521.963	36366.81
522.164	36506.07
522.366	36686.29
522.568	36989.39
522.77	37255.62
522.971	37878.21
523.173	37513.67
523.375	38119.87
523.576	38169.02
523.778	38398.39
523.98	38848.94
524.181	38816.18
524.383	38922.67
524.584	39178.67
524.786	39270.82
524.988	39281.06
525.189	39981.47
525.391	40161.69
525.592	40350.1
525.794	40593.81
525.995	40546.71
526.197	40810.9
526.398	40645.01
526.6	41623.94
526.801	41318.79
527.003	41456.01
527.204	41628.04
527.406	41949.57
527.607	41462.15
527.808	42312.06
528.01	41556.36
528.211	42219.9
528.412	42510.71
528.614	42086.78
528.815	42307.96
529.016	43098.48
529.218	42400.12
529.419	42967.41
529.62	42801.52
529.822	42846.58
530.023	43024.75
530.224	42854.77
530.425	43307.37
530.626	43280.75
530.828	43256.17
531.029	43768.16
531.23	42998.13
531.431	43581.8
531.632	43864.42
531.833	43684.2
532.035	43360.62
532.236	44011.87
532.437	43952.48
532.638	43575.66
532.839	44411.23
533.04	43612.52
533.241	43592.04
533.442	44263.77
533.643	43950.43
533.844	43825.51
534.045	44245.34
534.246	43903.33
534.447	44081.5
534.648	43786.6
534.849	44312.92
535.05	43788.64
535.251	44237.15
535.451	44374.36
535.652	44546.39
535.853	44071.26
536.054	44386.65
536.255	44673.37
536.456	43911.52
536.657	44712.28
536.857	44503.38
537.058	44251.48
537.259	44804.44
537.46	44308.83
537.66	44417.37
537.861	44484.95
538.062	44505.43
538.263	44499.29
538.463	44052.83
538.664	44577.11
538.865	44622.17
539.065	44527.96
539.266	43794.79
539.466	44896.59
539.667	43694.44
539.868	44714.33
540.068	44034.4
540.269	44239.2
540.469	44626.26
540.67	43964.77
540.87	44431.71
541.071	44577.11
541.271	44419.42
541.472	44458.33
541.672	44128.61
541.873	44382.55
542.073	43608.42
542.274	44824.92
542.474	44190.05
542.675	43929.95
542.875	44710.23
543.075	44138.85
543.276	43745.64
543.476	44585.3
543.676	43739.49
543.877	44509.53
544.077	44278.11
544.277	44063.07
544.478	43716.96
544.678	44253.53
544.878	44018.02
545.078	43944.29
545.279	43665.77
545.479	43710.82
545.679	44343.64
545.879	43927.91
546.079	43958.63
546.28	44200.29
546.48	43649.38
546.68	44054.88
546.88	44194.14
547.08	44097.89
547.28	44040.54
547.48	43759.97
547.68	43794.79
547.88	43647.33
548.081	44130.65
548.281	44095.84
548.481	44028.26
548.681	44251.48
548.881	43903.33
549.081	43841.89
549.28	43618.66
549.48	43956.58
549.68	44081.5
549.88	44462.43
550.08	43434.35
550.28	44073.31
550.48	43530.6
550.68	44118.37
550.88	43661.67
551.08	43952.48
551.279	43807.08
551.479	43176.3
551.679	44144.99
551.879	43377
552.079	43964.77
552.278	43708.77
552.478	43096.43
552.678	43403.63
552.878	44095.84
553.077	43852.13
553.277	43219.31
553.477	44206.43
553.676	43532.65
553.876	43559.27
554.076	43321.71
554.275	43299.18
554.475	42770.8
554.674	43250.03
554.874	43538.79
555.074	43424.11
555.273	43516.26
555.473	43348.33
555.672	42805.62
555.872	43028.85
556.071	43258.22
556.271	42908.02
556.47	42695.03
556.67	42389.88
556.869	42787.19
557.068	42981.74
557.268	42547.57
557.467	42832.24
557.667	42862.96
557.866	42523
558.065	42174.84
558.265	42324.35
558.464	42547.57
558.663	42926.45
558.863	42168.7
559.062	42891.63
559.261	41986.43
559.461	42543.48
559.66	42062.21
559.859	41976.19
560.058	41638.28
560.258	41970.05
560.457	41617.8
560.656	42051.97
560.855	41236.87
561.054	41767.3
561.253	41781.63
561.453	41701.76
561.652	41304.46
561.851	41918.85
562.05	41210.25
562.249	40896.91
562.448	41490.82
562.647	41114
562.846	41116.04
563.045	41154.96
563.244	40880.53
563.443	41003.41
563.642	40432.02
563.841	40352.15
564.04	40397.21
564.239	41062.8
564.438	40407.45
564.637	40176.03
564.836	40524.18
565.035	40159.64
565.234	40122.78
565.432	39881.12
565.631	40020.38
565.83	39709.09
566.029	39887.26
566.228	39592.36
566.427	39547.3
566.625	39520.68
566.824	39078.32
567.023	39420.33
567.222	38705.59
567.42	39344.55
567.619	39160.23
567.818	38957.49
568.016	38754.74
568.215	39096.75
568.414	38625.71
568.612	39115.18
568.811	38429.11
569.01	38664.63
569.208	37824.96
569.407	38797.74
569.605	37956.03
569.804	38126.01
570.002	38160.83
570.201	38349.24
570.4	38013.37
570.598	37632.45
570.797	37532.1
570.995	37507.52
571.193	37206.47
571.392	37910.97
571.59	37153.23
571.789	36964.81
571.987	37259.72
572.186	37079.5
572.384	36987.34
572.582	37353.93
572.781	37104.07
572.979	36387.28
573.177	36727.25
573.376	36782.54
573.574	36125.14
573.772	36243.93
573.971	36264.41
574.169	36071.9
574.367	35764.7
574.565	36301.27
574.763	35772.89
574.962	35824.09
575.16	35346.92
575.358	35738.08
575.556	35099.11
575.754	35676.64
575.952	35025.39
576.151	35404.26
576.349	34933.23
576.547	35281.38
576.745	35314.15
576.943	35219.94
577.141	34710
577.339	34931.18
577.537	34603.5
577.735	34531.83
577.933	34234.87
578.131	34415.09
578.329	34269.69
578.527	33573.38
578.725	33899
578.923	33982.97
579.121	34038.26
579.319	34028.02
579.516	33950.2
579.714	33643.01
579.912	33497.6
580.11	33495.55
580.308	33470.98
580.506	33202.69
580.704	32696.85
580.901	33284.61
581.099	33073.67
581.297	33057.29
581.495	32926.22
581.692	33176.07
581.89	32633.36
582.088	32752.14
582.285	32516.62
582.483	32631.31
582.681	32442.9
582.878	32182.8
583.076	31822.36
583.274	32279.06
583.471	31767.07
583.669	32174.61
583.866	31576.61
584.064	31906.33
584.262	31435.3
584.459	31617.57
584.657	31787.55
584.854	31429.15
585.052	31085.09
585.249	31244.84
585.447	31539.74
585.644	31250.98
585.841	31126.05
586.039	31142.44
586.236	30890.54
586.434	30761.51
586.631	30765.61
586.828	30452.27
587.026	30321.2
587.223	30544.43
587.42	30050.87
587.618	30413.36
587.815	29942.33
588.012	29766.2
588.21	30114.36
588.407	30057.01
588.604	29717.05
588.801	29366.85
588.999	29661.76
589.196	29575.74
589.393	29579.84
589.59	29182.53
589.787	29409.86
589.984	29151.81
590.182	28930.63
590.379	29260.35
590.576	28813.9
590.773	28967.49
590.97	28848.71
591.167	29129.28
591.364	28645.96
591.561	28969.54
591.758	28265.04
591.955	28215.89
592.152	28361.3
592.349	28256.85
592.546	28154.45
592.743	28451.41
592.94	27705.95
593.137	28013.14
593.334	28015.19
593.531	27480.67
593.727	27538.01
593.924	27574.88
594.121	27228.77
594.318	27591.26
594.515	27056.74
594.712	27017.83
594.908	26972.77
595.105	27331.17
595.302	27093.6
595.499	27026.02
595.696	26593.9
595.892	26593.9
596.089	27005.54
596.286	26729.06
596.482	26890.85
596.679	26757.74
596.876	26602.09
597.072	26153.58
597.269	26499.69
597.466	26022.51
597.662	26190.45
597.859	26135.15
598.055	25864.82
598.252	25905.78
598.448	25965.17
598.645	25965.17
598.841	25408.12
599.038	25815.67
599.234	25979.51
599.431	25430.65
599.627	25025.15
599.824	25217.66
600.02	24982.15
600.217	25107.07
600.413	25070.21
600.609	25162.37
600.806	24695.43
601.002	24826.5
601.198	24851.08
601.395	24722.05
601.591	24590.98
601.787	24568.46
601.984	24599.18
602.18	24451.72
602.376	24216.21
602.572	24402.57
602.769	24400.52
602.965	23624.34
603.161	23841.43
603.357	24124.05
603.553	24087.18
603.75	23898.77
603.946	23616.15
604.142	23837.33
604.338	23417.5
604.534	23585.43
604.73	23521.95
604.926	23587.48
605.122	23243.42
605.318	23317.15
605.514	23001.76
605.71	22995.62
605.906	23136.93
606.102	23231.13
606.298	22852.26
606.494	22739.62
606.69	23165.6
606.886	22600.36
607.082	22540.97
607.278	22991.52
607.474	22164.14
607.67	22751.91
607.866	22311.6
608.062	22543.02
608.257	22391.47
608.453	22211.25
608.649	22053.55
608.845	21897.91
609.041	22188.72
609.236	22117.04
609.432	21770.93
609.628	22055.6
609.824	21965.49
610.019	21641.91
610.215	21703.35
610.411	21807.8
610.606	21449.4
610.802	21584.57
610.998	21670.58
611.193	21402.3
611.389	21289.66
611.584	21521.08
611.78	21254.84
611.976	21222.08
612.171	21220.03
612.367	21390.01
612.562	21076.67
612.758	21142.21
612.953	20966.08
613.149	21154.49
613.344	20501.19
613.539	21260.99
613.735	21076.67
613.93	21150.4
614.126	20765.38
614.321	21027.52
614.517	20824.77
614.712	20867.78
614.907	20521.67
615.103	20767.43
615.298	20386.5
615.493	20521.67
615.688	20130.51
615.884	20886.21
616.079	20302.54
616.274	20544.2
616.47	20449.99
616.665	20488.9
616.86	20239.05
617.055	20105.93
617.25	20286.15
617.445	20341.45
617.641	19618.52
617.836	19884.75
618.031	19559.13
618.226	19960.53
618.421	19784.4
618.616	19868.37
618.811	19481.3
619.006	19665.62
619.201	19372.76
619.396	19772.11
619.591	19313.37
619.786	19561.17
619.981	19018.46
620.176	19190.49
620.371	18846.43
620.566	19110.62
620.761	18846.43
620.956	18981.6
621.151	18772.71
621.346	18907.87
621.541	18483.94
621.735	18928.35
621.93	18248.43
622.125	18414.31
622.32	18258.67
622.515	18217.71
622.709	18285.29
622.904	17865.46
623.099	17736.43
623.294	18137.84
623.488	17711.86
623.683	17765.1
623.878	17445.62
624.072	17273.59
624.267	17371.89
624.462	17257.21
624.656	17195.77
624.851	17183.48
625.046	17031.93
625.24	17113.85
625.435	16659.2
625.629	16732.93
625.824	16816.9
626.018	16864
626.213	16302.86
626.407	16386.82
626.602	16235.27
626.796	16409.35
626.991	16075.53
627.185	16020.24
627.38	15911.69
627.574	15561.49
627.768	15778.58
627.963	15721.23
628.157	15764.24
628.352	15715.09
628.546	15303.45
628.74	15657.75
628.935	15313.69
629.129	15323.93
629.323	14773.02
629.517	14746.4
629.712	15039.26
629.906	14983.96
630.1	14574.37
630.294	14922.52
630.489	14453.54
630.683	14717.73
630.877	14416.68
631.071	14467.88
631.265	14310.18
631.459	14265.13
631.653	14021.42
631.848	14179.11
632.042	13939.5
632.236	14136.1
632.43	13648.69
632.624	13902.64
632.818	13673.26
633.012	13699.89
633.206	13378.36
633.4	13511.47
633.594	13519.67
633.788	13630.26
633.982	13355.83
634.176	13261.62
634.369	13513.52
634.563	13009.72
634.757	12718.91
634.951	13134.65
635.145	12829.5
635.339	13009.72
635.533	12784.44
635.726	12823.36
635.92	12651.33
636.114	12763.97
636.308	12626.75
636.501	12725.05
636.695	12393.28
636.889	12471.11
637.083	12340.04
637.276	12155.72
637.47	12211.01
637.664	12112.71
637.857	11973.45
638.051	12096.33
638.244	12006.22
638.438	11811.66
638.632	11678.54
638.825	11524.94
639.019	11590.48
639.212	11344.72
639.406	11486.03
639.599	11641.68
639.793	11342.67
639.986	11428.69
640.18	11219.8
640.373	11225.94
640.567	11017.05
640.76	11092.82
640.954	11066.2
641.147	10892.12
641.34	10822.49
641.534	10879.83
641.727	10931.03
641.92	10828.63
642.114	10775.39
642.307	10687.32
642.5	10503.01
642.694	10484.58
642.887	10433.38
643.08	10486.62
643.273	10247.01
643.467	10240.87
643.66	10238.82
643.853	10204
644.046	10412.9
644.239	10124.13
644.432	10040.17
644.626	10138.47
644.819	9573.23
645.012	9855.85
645.205	9782.12
645.398	9732.97
645.591	9755.5
645.784	9683.82
645.977	9673.58
646.17	9393.01
646.363	9350
646.556	9343.86
646.749	9479.02
646.942	9300.85
647.135	9255.79
647.328	9288.56
647.521	9429.87
647.714	8924.02
647.907	9042.81
648.099	9083.77
648.292	9057.14
648.485	9018.23
648.678	8745.85
648.871	9134.96
649.064	8760.19
649.256	8864.63
649.449	8743.8
649.642	8616.83
649.835	8577.92
650.027	8655.74
650.22	8647.55
650.413	8342.4
650.605	8393.6
650.798	8334.21
650.991	8285.06
651.183	8086.4
651.376	8035.21
651.568	8219.52
651.761	8158.08
651.954	8233.86
652.146	8139.65
652.339	8143.75
652.531	8086.4
652.724	7883.66
652.916	7793.55
653.109	7973.77
653.301	7947.14
653.494	7955.33
653.686	7551.88
653.879	7691.15
654.071	7654.28
654.263	7678.86
654.456	7691.15
654.648	7590.8
654.84	7594.89
655.033	7277.46
655.225	7482.25
655.417	7263.12
655.61	7351.18
655.802	7414.67
655.994	7287.7
656.186	7310.22
656.379	7070.61
656.571	7228.31
656.763	7142.29
656.955	7105.43
657.148	7046.04
657.34	7003.03
657.532	6917.01
657.724	6871.96
657.916	6902.68
658.108	6896.53
658.3	6753.18
658.492	6898.58
658.684	6941.59
658.876	6792.09
659.068	6591.39
659.26	6583.2
659.452	6632.35
659.644	6775.7
659.836	6359.97
660.028	6407.07
660.22	6587.29
660.412	6568.86
660.604	6306.72
660.796	6341.54
660.988	6316.96
661.18	6306.72
661.372	6448.03
661.563	6450.08
661.755	6060.96
661.947	6355.87
662.139	6153.12
662.331	5983.14
662.522	6052.77
662.714	6120.35
662.906	5987.24
663.097	6118.31
663.289	5782.44
663.481	5884.84
663.673	5999.52
663.864	5800.87
664.056	5770.15
664.247	5823.4
664.439	5723.05
664.631	5831.59
664.822	5860.26
665.014	5557.16
665.205	5739.43
665.397	5655.47
665.588	5665.71
665.78	5530.54
665.971	5516.2
666.163	5608.36
666.354	5460.91
666.546	5553.07
666.737	5387.18
666.929	5456.81
667.12	5471.15
667.311	5432.24
667.503	5325.74
667.694	5381.04
667.885	5239.73
668.077	5202.86
668.268	5329.84
668.459	5346.22
668.651	5221.3
668.842	5290.93
669.033	5168.05
669.224	5036.98
669.416	5159.86
669.607	5092.27
669.798	4901.81
669.989	5190.58
670.18	4998.07
670.371	4922.29
670.563	4907.96
670.754	4873.14
670.945	4811.7
671.136	4963.25
671.327	4955.06
671.518	4844.47
671.709	4883.38
671.9	4875.19
672.091	4807.61
672.282	4717.5
672.473	4838.33
672.664	4625.34
672.855	4885.43
673.046	4719.54
673.237	4662.2
673.428	4647.87
673.619	4680.63
673.809	4811.7
674	4740.02
674.191	4580.28
674.382	4531.13
674.573	4481.98
674.764	4643.77
674.954	4565.95
675.145	4545.47
675.336	4508.6
675.527	4567.99
675.717	4367.29
675.908	4436.92
676.099	4428.73
676.289	4490.17
676.48	4490.17
676.671	4514.75
676.861	4367.29
677.052	4375.49
677.243	4307.9
677.433	4287.42
677.624	4324.29
677.814	4258.75
678.005	4359.1
678.195	4207.55
678.386	4201.41
678.576	4287.42
678.767	4365.25
678.957	4101.06
679.148	4203.46
679.338	4273.09
679.529	4242.37
679.719	4152.26
679.909	4238.27
680.1	4162.5
680.29	4232.13
680.481	4060.1
680.671	4125.63
680.861	4043.71
681.052	4051.91
681.242	4033.47
681.432	3926.98
681.622	3859.4
681.813	4060.1
682.003	3879.88
682.193	3871.68
682.383	4017.09
682.573	3974.08
682.764	3834.82
682.954	3888.07
683.144	3967.94
683.334	3916.74
683.524	3861.45
683.714	3943.36
683.904	3765.19
684.094	3838.92
684.284	3816.39
684.474	3847.11
684.664	4041.67
684.854	3783.62
685.044	3924.93
685.234	3853.25
685.424	3802.05
685.614	3675.08
685.804	3750.85
685.994	3838.92
686.184	3888.07
686.374	3765.19
686.564	3783.62
686.753	3740.61
686.943	3644.36
687.133	3765.19
687.323	3589.07
687.513	3734.47
687.702	3711.94
687.892	3533.77
688.082	3627.98
688.272	3509.19
688.461	3423.18
688.651	3525.58
688.841	3537.87
689.03	3623.88
689.22	3527.63
689.41	3537.87
689.599	3507.15
689.789	3482.57
689.979	3400.65
690.168	3486.67
690.358	3328.97
690.547	3470.28
690.737	3298.25
690.926	3509.19
691.116	3240.91
691.305	3371.98
691.495	3363.79
691.684	3343.31
691.874	3400.65
692.063	3374.03
692.252	3320.78
692.442	3275.73
692.631	3212.24
692.82	3285.97
693.01	3175.38
693.199	3269.58
693.388	3089.36
693.578	3122.13
693.767	3187.66
693.956	3130.32
694.146	3214.29
694.335	3279.82
694.524	3189.71
694.713	3072.98
694.902	3122.13
695.092	3206.1
695.281	3185.62
695.47	3070.93
695.659	3105.74
695.848	3060.69
696.037	3021.78
696.226	3048.4
696.415	3161.04
696.604	3003.35
696.793	2991.06
696.982	3107.79
697.171	2974.67
697.36	3029.97
697.549	3025.87
697.738	3124.18
697.927	2872.28
698.116	3046.35
698.305	2972.63
698.494	2919.38
698.683	2976.72
698.872	2989.01
699.061	2927.57
699.25	2900.95
699.438	2999.25
699.627	2995.15
699.816	2980.82
700.005	2851.8
700.193	2982.87
700.382	2978.77
700.571	2903
700.76	2931.67
700.948	3005.39
701.137	2890.71
701.326	2982.87
701.514	2948.05
701.703	2872.28
701.892	2880.47
702.08	2894.8
702.269	2909.14
702.457	2814.93
702.646	2960.34
702.834	2868.18
703.023	2812.89
703.212	2970.58
703.4	3056.59
703.589	2819.03
703.777	3015.63
703.965	2831.32
704.154	2948.05
704.342	2876.37
704.531	2841.56
704.719	2800.6
704.907	2855.89
705.096	2808.79
705.284	2716.63
705.472	2819.03
705.661	2845.65
705.849	2864.08
706.037	2819.03
706.226	2868.18
706.414	2837.46
706.602	2892.76
706.79	2722.77
706.979	2841.56
707.167	2757.59
707.355	2735.06
707.543	2810.84
707.731	2837.46
707.919	2702.29
708.107	2849.75
708.296	2714.58
708.484	2692.05
708.672	2919.38
708.86	2831.32
709.048	2896.85
709.236	2782.17
709.424	2833.36
709.612	2864.08
709.8	2726.87
709.988	2659.29
710.176	2923.48
710.364	2843.6
710.551	2833.36
710.739	2780.12
710.927	2866.13
711.115	2823.12
711.303	2710.49
711.491	2835.41
711.679	2810.84
711.866	2675.67
712.054	2821.08
712.242	2665.43
712.43	2884.56
712.617	2767.83
712.805	2718.68
712.993	2749.4
713.181	2780.12
713.368	2741.21
713.556	2773.97
713.744	2626.52
713.931	2739.16
714.119	2780.12
714.306	2696.15
714.494	2704.34
714.682	2671.58
714.869	2794.45
715.057	2704.34
715.244	2704.34
715.432	2839.51
715.619	2685.91
715.807	2669.53
715.994	2743.25
716.182	2675.67
716.369	2716.63
716.556	2812.89
716.744	2649.05
716.931	2730.97
717.119	2673.62
717.306	2755.54
717.493	2708.44
717.681	2687.96
717.868	2563.03
718.055	2655.19
718.242	2700.25
718.43	2630.62
718.617	2702.29
718.804	2702.29
718.991	2663.38
719.179	2581.46
719.366	2671.58
719.553	2722.77
719.74	2626.52
719.927	2612.18
720.114	2706.39
720.301	2513.88
720.488	2659.29
720.676	2558.94
720.863	2628.57
721.05	2638.81
721.237	2720.73
721.424	2505.69
721.611	2679.77
721.798	2606.04
721.985	2626.52
722.172	2550.75
722.358	2554.84
722.545	2653.14
722.732	2608.09
722.919	2622.42
723.106	2597.85
723.293	2665.43
723.48	2767.83
723.667	2536.41
723.853	2651.1
724.04	2651.1
724.227	2626.52
724.414	2741.21
724.6	2534.36
724.787	2679.77
724.974	2667.48
725.161	2614.23
725.347	2644.95
725.534	2733.01
725.72	2601.94
725.907	2534.36
726.094	2583.51
726.28	2560.98
726.467	2495.45
726.653	2663.38
726.84	2511.83
727.027	2513.88
727.213	2489.31
727.4	2550.75
727.586	2462.68
727.773	2532.31
727.959	2577.37
728.145	2444.25
728.332	2513.88
728.518	2550.75
728.705	2761.69
728.891	2530.27
729.077	2601.94
729.264	2456.54
729.45	2429.91
729.636	2565.08
729.823	2534.36
730.009	2563.03
730.195	2489.31
730.382	2513.88
730.568	2479.07
730.754	2587.61
730.94	2573.27
731.126	2477.02
731.313	2520.03
731.499	2397.15
731.685	2565.08
731.871	2499.55
732.057	2571.22
732.243	2479.07
732.429	2497.5
732.615	2601.94
732.801	2599.9
732.987	2540.51
733.173	2507.74
733.359	2616.28
733.545	2487.26
733.731	2503.64
733.917	2505.69
734.103	2532.31
734.289	2454.49
734.475	2491.35
734.661	2526.17
734.847	2386.91
735.033	2442.2
735.219	2462.68
735.404	2452.44
735.59	2438.11
735.776	2429.91
735.962	2501.59
736.148	2384.86
736.333	2421.72
736.519	2323.42
736.705	2450.39
736.89	2470.87
737.076	2333.66
737.262	2286.56
737.447	2487.26
737.633	2358.24
737.819	2309.08
738.004	2444.25
738.19	2397.15
738.375	2382.81
738.561	2391
738.747	2413.53
738.932	2393.05
739.118	2468.83
739.303	2249.69
739.489	2395.1
739.674	2290.65
739.859	2350.04
740.045	2362.33
740.23	2319.32
740.416	2194.4
740.601	2341.85
740.786	2237.41
740.972	2313.18
741.157	2237.41
741.342	2171.87
741.528	2251.74
741.713	2231.26
741.898	2294.75
742.084	2237.41
742.269	2143.2
742.454	2261.98
742.639	2171.87
742.824	2192.35
743.01	2241.5
743.195	2286.56
743.38	2159.58
743.565	2135.01
743.75	2178.01
743.935	2089.95
744.12	2204.64
744.305	2196.45
744.49	2227.17
744.675	2102.24
744.86	2233.31
745.045	2016.23
745.23	2106.34
745.415	2128.86
745.6	2028.51
745.785	2077.66
745.97	2149.34
746.155	2061.28
746.34	2063.33
746.525	2079.71
746.71	2038.75
746.895	1881.06
747.079	1997.79
747.264	1965.03
747.449	1889.25
747.634	1913.83
747.819	1973.22
748.003	1930.21
748.188	2020.32
748.373	1989.6
748.557	1868.77
748.742	1866.72
748.927	1907.68
749.111	1866.72
749.296	1876.96
749.481	1795.04
749.665	1844.2
749.85	1815.52
750.034	1885.16
750.219	1881.06
750.404	1811.43
750.588	1840.1
750.773	1764.33
750.957	1805.28
751.141	1674.21
751.326	1774.56
751.51	1764.33
751.695	1674.21
751.879	1729.51
752.064	1706.98
752.248	1674.21
752.432	1661.93
752.617	1588.2
752.801	1600.49
752.985	1686.5
753.17	1567.72
753.354	1682.41
753.538	1625.06
753.722	1606.63
753.907	1502.19
754.091	1547.24
754.275	1434.6
754.459	1469.42
754.643	1465.32
754.828	1502.19
755.012	1446.89
755.196	1481.71
755.38	1493.99
755.564	1553.38
755.748	1385.45
755.932	1414.12
756.116	1493.99
756.3	1522.66
756.484	1461.23
756.668	1328.11
756.852	1362.92
757.036	1303.53
757.22	1426.41
757.404	1307.63
757.588	1324.01
757.772	1362.92
757.956	1324.01
758.14	1440.75
758.323	1299.44
758.507	1272.81
758.691	1297.39
758.875	1285.1
759.059	1352.68
759.242	1254.38
759.426	1362.92
759.61	1258.48
759.794	1338.35
759.977	1348.59
760.161	1311.72
760.345	1231.85
760.528	1238
760.712	1262.57
760.895	1213.42
761.079	1180.65
761.263	1201.13
761.446	1233.9
761.63	1174.51
761.813	1168.37
761.997	1225.71
762.18	1121.26
762.364	1121.26
762.547	1154.03
762.731	1190.89
762.914	1154.03
763.098	1131.5
763.281	1115.12
763.464	1094.64
763.648	1211.37
763.831	1168.37
764.015	1106.93
764.198	1203.18
764.381	1123.31
764.564	1227.76
764.748	1065.97
764.931	1061.87
765.114	1057.78
765.297	1061.87
765.481	1057.78
765.664	1078.26
765.847	1092.59
766.03	1074.16
766.213	1043.44
766.397	1037.3
766.58	959.47
766.763	1004.53
766.946	1094.64
767.129	996.34
767.312	1010.67
767.495	1027.06
767.678	982
767.861	1008.62
768.044	1014.77
768.227	1010.67
768.41	967.67
768.593	1096.69
768.776	986.1
768.959	975.86
769.142	961.52
769.324	949.23
769.507	900.08
769.69	922.61
769.873	990.19
770.056	1020.91
770.239	973.81
770.421	930.8
770.604	881.65
770.787	943.09
770.97	916.47
771.152	910.32
771.335	936.95
771.518	934.9
771.7	959.47
771.883	934.9
772.066	863.22
772.248	924.66
772.431	898.03
772.613	865.27
772.796	986.1
772.978	865.27
773.161	893.94
773.343	885.75
773.526	818.16
773.708	791.54
773.891	769.01
774.073	816.12
774.256	807.92
774.438	922.61
774.621	775.16
774.803	818.16
774.985	877.55
775.168	814.07
775.35	822.26
775.532	762.87
775.715	752.63
775.897	801.78
776.079	766.96
776.261	807.92
776.444	736.24
776.626	773.11
776.808	783.35
776.99	771.06
777.173	736.24
777.355	685.05
777.537	730.1
777.719	637.94
777.901	685.05
778.083	705.53
778.265	685.05
778.447	742.39
778.629	703.48
778.811	691.19
778.993	683
779.175	627.7
779.357	656.37
779.539	603.13
779.721	637.94
779.903	633.85
780.085	611.32
780.267	664.57
780.449	611.32
780.631	697.33
780.812	670.71
780.994	691.19
781.176	568.31
781.358	539.64
781.54	574.46
781.721	592.89
781.903	590.84
782.085	656.37
782.267	633.85
782.448	654.33
782.63	504.82
782.812	631.8
782.993	590.84
783.175	564.22
783.357	586.74
783.538	574.46
783.72	599.03
783.901	429.05
784.083	582.65
784.264	513.02
784.446	476.15
784.627	498.68
784.809	541.69
784.99	476.15
785.172	496.63
785.353	467.96
785.535	525.3
785.716	527.35
785.897	451.58
786.079	492.54
786.26	515.06
786.441	508.92
786.623	494.58
786.804	494.58
786.985	498.68
787.167	478.2
787.348	437.24
787.529	402.43
787.71	529.4
787.891	506.87
788.073	480.25
788.254	412.67
788.435	431.1
788.616	494.58
788.797	424.95
788.978	427
789.159	443.39
789.34	394.23
789.522	392.19
789.703	437.24
789.884	435.19
790.065	394.23
790.246	355.32
790.427	461.82
790.607	463.86
790.788	451.58
790.969	359.42
791.15	369.66
791.331	418.81
791.512	435.19
791.693	392.19
791.874	324.6
792.054	408.57
792.235	343.03
792.416	308.22
792.597	302.08
792.778	400.38
792.958	322.56
793.139	451.58
793.32	406.52
793.5	408.57
793.681	345.08
793.862	369.66
794.042	336.89
794.223	353.27
794.404	347.13
794.584	324.6
794.765	353.27
794.945	373.75
795.126	267.26
795.306	257.02
795.487	347.13
795.667	373.75
795.848	261.12
796.028	332.79
796.209	297.98
796.389	316.41
796.57	328.7
796.75	326.65
796.93	320.51
797.111	295.93
797.291	261.12
797.471	365.56
797.652	273.4
797.832	244.73
798.012	297.98
798.192	214.01
798.373	357.37
798.553	328.7
798.733	312.32
798.913	209.92
799.093	254.97
799.274	238.59
799.454	230.4
799.634	238.59
799.814	218.11
799.994	265.21
800.174	263.16
800.354	308.22
800.534	234.49
800.714	304.12
800.894	261.12
801.074	226.3
801.254	214.01
801.434	275.45
801.614	277.5
801.794	252.92
801.974	572.41
802.154	248.83
802.334	254.97
802.514	168.96
802.693	230.4
802.873	205.82
803.053	240.64
803.233	228.35
803.413	222.2
803.592	289.79
803.772	265.21
803.952	240.64
804.131	197.63
804.311	183.29
804.491	242.68
804.67	191.49
804.85	316.41
805.03	179.2
805.209	261.12
805.389	173.05
805.568	191.49
805.748	220.16
805.928	252.92
806.107	193.53
806.287	214.01
806.466	140.29
806.646	238.59
806.825	123.9
807.004	121.85
807.184	189.44
807.363	222.2
807.543	171.01
807.722	236.54
807.901	236.54
808.081	195.58
808.26	146.43
808.439	220.16
808.619	242.68
808.798	193.53
808.977	283.64
809.156	224.25
809.336	193.53
809.515	164.86
809.694	209.92
809.873	111.61
810.052	158.72
810.231	218.11
810.411	214.01
810.59	209.92
810.769	156.67
810.948	271.36
811.127	195.58
811.306	162.81
811.485	201.72
811.664	173.05
811.843	99.33
812.022	203.77
812.201	164.86
812.38	218.11
812.559	240.64
812.737	128
812.916	56.32
813.095	226.3
813.274	181.25
813.453	160.77
813.632	134.14
813.811	162.81
813.989	115.71
814.168	179.2
814.347	142.33
814.526	183.29
814.704	162.81
814.883	273.4
815.062	121.85
815.24	150.53
815.419	39.94
815.598	121.85
815.776	82.94
815.955	134.14
816.133	117.76
816.312	119.81
816.49	68.61
816.669	123.9
816.847	109.57
817.026	240.64
817.204	140.29
817.383	101.37
817.561	125.95
817.74	117.76
817.918	168.96
818.097	125.95
818.275	132.09
818.453	183.29
818.632	230.4
818.81	171.01
818.988	113.66
819.167	87.04
819.345	130.05
819.523	54.27
819.701	140.29
819.879	89.09
820.058	107.52
820.236	207.87
820.414	128
820.592	146.43
820.77	62.46
820.948	82.94
821.127	107.52
821.305	115.71
821.483	60.42
821.661	154.62
821.839	66.56
822.017	203.77
822.195	119.81
822.373	171.01
822.551	158.72
822.729	107.52
822.907	117.76
823.085	181.25
823.262	199.68
823.44	101.37
823.618	136.19
823.796	166.91
823.974	80.89
824.152	78.85
824.329	54.27
824.507	125.95
824.685	132.09
824.863	64.51
825.04	121.85
825.218	115.71
825.396	68.61
825.574	91.13
825.751	44.03
825.929	168.96
826.107	64.51
826.284	134.14
826.462	189.44
826.639	187.39
826.817	78.85
826.994	119.81
827.172	39.94
827.349	91.13
827.527	93.18
827.704	101.37
827.882	87.04
828.059	31.74
828.237	39.94
828.414	113.66
828.591	44.03
828.769	91.13
828.946	105.47
829.124	48.13
829.301	48.13
829.478	84.99
829.655	62.46
829.833	95.23
830.01	1.02
830.187	97.28
830.364	33.79
830.542	132.09
830.719	173.05
830.896	107.52
831.073	99.33
831.25	76.8
831.427	52.22
831.604	113.66
831.782	125.95
831.959	119.81
832.136	128
832.313	130.05
832.49	89.09
832.667	154.62
832.844	87.04
833.021	70.65
833.198	82.94
833.374	37.89
833.551	93.18
833.728	144.38
833.905	21.5
834.082	105.47
834.259	134.14
834.436	93.18
834.612	44.03
834.789	189.44
834.966	62.46
835.143	117.76
835.319	21.5
835.496	107.52
835.673	150.53
835.85	41.98
836.026	33.79
836.203	95.23
836.38	68.61
836.556	84.99
836.733	39.94
836.909	74.75
837.086	37.89
837.262	66.56
837.439	48.13
837.616	91.13
837.792	41.98
837.968	9.22
838.145	62.46
838.321	70.65
838.498	19.46
838.674	115.71
838.851	17.41
839.027	99.33
839.203	64.51
839.38	56.32
839.556	78.85
839.732	74.75
839.909	66.56
840.085	72.7
840.261	115.71
840.437	70.65
840.614	62.46
840.79	125.95
840.966	82.94
841.142	70.65
841.318	87.04
841.494	107.52
841.671	44.03
841.847	27.65
842.023	44.03
842.199	80.89
842.375	87.04
842.551	-48.13
842.727	17.41
842.903	64.51
843.079	74.75
843.255	105.47
843.431	50.18
843.607	48.13
843.783	52.22
843.959	29.7
844.134	17.41
844.31	27.65
844.486	7.17
844.662	84.99
844.838	1.02
845.013	58.37
845.189	41.98
845.365	89.09
845.541	60.42
845.716	41.98
845.892	48.13
846.068	-27.65
846.244	29.7
846.419	39.94
846.595	29.7
846.77	41.98
846.946	29.7
847.122	29.7
847.297	7.17
847.473	78.85
847.648	60.42
847.824	23.55
847.999	62.46
848.175	27.65
848.35	62.46
848.526	103.42
848.701	109.57
848.876	64.51
849.052	21.5
849.227	21.5
849.403	31.74
849.578	17.41
849.753	-3.07
849.929	140.29
850.104	-1.02
850.279	44.03
850.454	9.22
850.63	62.46
850.805	48.13
850.98	44.03
851.155	33.79
851.33	1.02
851.505	-15.36
851.681	103.42
851.856	11.26
852.031	41.98
852.206	99.33
852.381	33.79
852.556	13.31
852.731	19.46
852.906	84.99
853.081	35.84
853.256	21.5
853.431	54.27
853.606	-7.17
853.781	-7.17
853.956	60.42
854.131	111.61
854.305	11.26
854.48	44.03
854.655	33.79
854.83	60.42
855.005	74.75
855.18	-9.22
855.354	76.8
855.529	31.74
855.704	3.07
855.879	56.32
856.053	25.6
856.228	78.85
856.403	41.98
856.577	62.46
856.752	-25.6
856.926	21.5
857.101	80.89
857.276	3.07
857.45	11.26
857.625	31.74
857.799	7.17
857.974	37.89
858.148	-1.02
858.323	-9.22
858.497	33.79
858.672	37.89
858.846	-64.51
859.02	19.46
859.195	-9.22
859.369	-44.03
859.543	13.31
859.718	11.26
859.892	21.5
860.066	52.22
860.241	80.89
860.415	60.42
860.589	35.84
860.763	39.94
860.938	-37.89
861.112	17.41
861.286	7.17
861.46	-11.26
861.634	-13.31
861.808	52.22
861.982	-13.31
862.157	23.55
862.331	31.74
862.505	-5.12
862.679	33.79
862.853	70.65
863.027	72.7
863.201	25.6
863.375	41.98
863.549	113.66
863.722	25.6
863.896	21.5
864.07	13.31
864.244	-15.36
864.418	44.03
864.592	41.98
864.766	35.84
864.939	1.02
865.113	29.7
865.287	91.13
865.461	41.98
865.634	68.61
865.808	-25.6
865.982	72.7
866.156	-7.17
866.329	25.6
866.503	31.74
866.676	109.57
866.85	39.94
867.024	46.08
867.197	9.22
867.371	17.41
867.544	21.5
867.718	-13.31
867.891	-7.17
868.065	-15.36
868.238	-5.12
868.412	9.22
868.585	7.17
868.759	1.02
868.932	31.74
869.105	7.17
869.279	39.94
869.452	-25.6
869.625	72.7
869.799	29.7
869.972	39.94
870.145	-35.84
870.319	58.37
870.492	-50.18
870.665	50.18
870.838	-13.31
871.011	33.79
871.185	64.51
871.358	54.27
871.531	-60.42
871.704	21.5
871.877	1.02
872.05	-15.36
872.223	62.46
872.396	76.8
872.569	-29.7
872.742	7.17
872.915	7.17
873.088	1.02
873.261	17.41
873.434	-41.98
873.607	-23.55
873.78	11.26
873.953	-5.12
874.126	56.32
874.299	37.89
874.471	7.17
874.644	-17.41
874.817	29.7
874.99	78.85
875.163	41.98
875.335	-1.02
875.508	-25.6
875.681	3.07
875.853	13.31
876.026	87.04
876.199	46.08
876.371	68.61
876.544	25.6
876.717	-33.79
876.889	-15.36
877.062	-1.02
877.234	9.22
877.407	5.12
877.579	25.6
877.752	31.74
877.924	-15.36
878.097	41.98
878.269	9.22
878.442	27.65
878.614	-11.26
878.786	15.36
878.959	-7.17
879.131	84.99
879.303	-17.41
879.476	9.22
879.648	7.17
879.82	29.7
879.993	41.98
880.165	35.84
880.337	33.79
880.509	58.37
880.681	50.18
880.854	-1.02
881.026	-39.94
881.198	48.13
881.37	-44.03
881.542	5.12
881.714	-1.02
881.886	15.36
882.058	44.03
882.23	-13.31
882.402	13.31
882.574	-35.84
882.746	-68.61
882.918	-25.6
883.09	15.36
883.262	56.32
883.434	23.55
883.606	-80.89
883.778	-5.12
883.95	29.7
884.122	-58.37
884.293	48.13
884.465	62.46
884.637	9.22
884.809	-23.55
884.98	-19.46
885.152	-21.5
885.324	-35.84
885.496	-39.94
885.667	41.98
885.839	-17.41
886.011	15.36
886.182	23.55
886.354	89.09
886.525	-11.26
886.697	1.02
886.869	-66.56
887.04	-23.55
887.212	-23.55
887.383	27.65
887.555	35.84
887.726	-1.02
887.897	27.65
888.069	-5.12
888.24	-31.74
888.412	95.23
888.583	-46.08
888.754	11.26
888.926	-15.36
889.097	-35.84
889.268	3.07
889.44	13.31
889.611	48.13
889.782	44.03
889.953	-37.89
890.125	9.22
890.296	-58.37
890.467	-11.26
890.638	-9.22
890.809	58.37
890.98	80.89
891.151	-44.03
891.323	1.02
891.494	-39.94
891.665	62.46
891.836	1.02
892.007	1.02
892.178	-46.08
892.349	-41.98
892.52	-13.31
892.691	9.22
892.862	21.5
893.032	-7.17
893.203	41.98
893.374	-50.18
893.545	84.99
893.716	1.02
893.887	33.79
894.057	44.03
894.228	78.85
894.399	25.6
894.57	48.13
894.74	-23.55
894.911	19.46
895.082	-5.12
895.253	-23.55
895.423	-70.65
895.594	60.42
895.764	-25.6
895.935	-44.03
896.106	33.79
896.276	48.13
896.447	-7.17
896.617	78.85
896.788	-13.31
896.958	-13.31
897.129	-60.42
897.299	-31.74
897.47	-37.89
897.64	-37.89
897.81	-39.94
897.981	35.84
898.151	5.12
898.322	9.22
898.492	17.41
898.662	-11.26
898.832	1.02
899.003	-3.07
899.173	3.07
899.343	-39.94
899.513	13.31
