Data from USB4F104151__96__11-06-49-921.txt Node

Date: Wed Mar 12 11:06:49 EDT 2025
User: louis
Spectrometer: USB4F10415
Trigger mode: 4
Integration Time (sec): 2.000000E-2
Scans to average: 1
Electric dark correction enabled: true
Nonlinearity correction enabled: false
Boxcar width: 0
XAxis mode: Wavelengths
Number of Pixels in Spectrum: 3648
>>>>>Begin Spectral Data<<<<<
178.204	-81.75
178.424	-81.75
178.644	-81.75
178.864	-116.56
179.084	-83.8
179.304	-44.88
179.524	-24.4
179.744	-28.5
179.964	-46.93
180.184	2.22
180.404	-38.74
180.624	-26.45
180.844	73.9
181.064	-38.74
181.283	59.56
181.503	28.84
181.723	84.14
181.943	-106.32
182.163	10.41
182.383	-16.21
182.602	37.03
182.822	32.94
183.042	32.94
183.262	59.56
183.482	-10.07
183.701	34.99
183.921	0.17
184.141	-67.41
184.361	53.42
184.58	-57.17
184.8	8.36
185.02	30.89
185.239	53.42
185.459	-10.07
185.679	16.55
185.898	-32.6
186.118	16.55
186.338	-28.5
186.557	-24.4
186.777	-26.45
186.997	16.55
187.216	139.43
187.436	-8.02
187.655	71.85
187.875	41.13
188.095	-22.36
188.314	65.71
188.534	43.18
188.753	14.51
188.973	43.18
189.192	12.46
189.412	0.17
189.631	-1.88
189.851	47.27
190.07	-5.97
190.29	16.55
190.509	57.51
190.729	82.09
190.948	133.29
191.168	123.05
191.387	61.61
191.607	34.99
191.826	-57.17
192.045	8.36
192.265	12.46
192.484	49.32
192.704	-1.88
192.923	45.23
193.142	-3.93
193.362	84.14
193.581	51.37
193.8	43.18
194.02	49.32
194.239	80.04
194.458	55.47
194.678	34.99
194.897	-12.12
195.116	-36.69
195.335	-24.4
195.555	-63.32
195.774	45.23
195.993	39.08
196.212	2.22
196.432	6.31
196.651	-18.26
196.87	-14.17
197.089	55.47
197.308	47.27
197.528	71.85
197.747	43.18
197.966	37.03
198.185	73.9
198.404	-65.36
198.623	69.8
198.842	-94.04
199.062	65.71
199.281	45.23
199.5	-18.26
199.719	10.41
199.938	2.22
200.157	98.47
200.376	0.17
200.595	-1.88
200.814	55.47
201.033	12.46
201.252	18.6
201.471	57.51
201.69	69.8
201.909	20.65
202.128	55.47
202.347	30.89
202.566	24.75
202.785	-16.21
203.004	-12.12
203.223	69.8
203.442	16.55
203.661	-16.21
203.879	43.18
204.098	30.89
204.317	24.75
204.536	37.03
204.755	18.6
204.974	41.13
205.193	-44.88
205.411	88.23
205.63	6.31
205.849	61.61
206.068	-44.88
206.287	22.7
206.505	-14.17
206.724	0.17
206.943	24.75
207.162	24.75
207.381	32.94
207.599	8.36
207.818	6.31
208.037	-38.74
208.255	14.51
208.474	41.13
208.693	-44.88
208.911	12.46
209.13	-8.02
209.349	-63.32
209.567	-8.02
209.786	65.71
210.005	-5.97
210.223	37.03
210.442	-24.4
210.661	4.27
210.879	-14.17
211.098	61.61
211.316	30.89
211.535	0.17
211.753	12.46
211.972	14.51
212.191	0.17
212.409	-40.79
212.628	53.42
212.846	-59.22
213.065	86.19
213.283	65.71
213.502	12.46
213.72	2.22
213.938	-51.03
214.157	47.27
214.375	10.41
214.594	-8.02
214.812	12.46
215.031	47.27
215.249	30.89
215.467	-18.26
215.686	12.46
215.904	37.03
216.122	24.75
216.341	57.51
216.559	6.31
216.778	8.36
216.996	4.27
217.214	71.85
217.432	-24.4
217.651	2.22
217.869	12.46
218.087	-22.36
218.306	-57.17
218.524	-30.55
218.742	-16.21
218.96	26.79
219.179	0.17
219.397	-20.31
219.615	26.79
219.833	16.55
220.051	69.8
220.27	20.65
220.488	-20.31
220.706	14.51
220.924	-26.45
221.142	118.95
221.36	-1.88
221.578	32.94
221.796	-28.5
222.015	-5.97
222.233	61.61
222.451	53.42
222.669	18.6
222.887	6.31
223.105	-73.56
223.323	53.42
223.541	98.47
223.759	37.03
223.977	39.08
224.195	118.95
224.413	75.95
224.631	55.47
224.849	-24.4
225.067	53.42
225.285	12.46
225.503	10.41
225.721	-8.02
225.939	39.08
226.157	65.71
226.375	69.8
226.592	-30.55
226.81	-69.46
227.028	12.46
227.246	71.85
227.464	30.89
227.682	41.13
227.9	12.46
228.117	-8.02
228.335	-14.17
228.553	43.18
228.771	-65.36
228.989	-48.98
229.206	-12.12
229.424	30.89
229.642	-22.36
229.86	10.41
230.077	12.46
230.295	-1.88
230.513	22.7
230.731	57.51
230.948	-46.93
231.166	28.84
231.384	51.37
231.601	20.65
231.819	-30.55
232.037	37.03
232.254	-34.64
232.472	-67.41
232.689	-34.64
232.907	61.61
233.125	-28.5
233.342	41.13
233.56	12.46
233.777	43.18
233.995	-3.93
234.213	-8.02
234.43	-18.26
234.648	-10.07
234.865	24.75
235.083	57.51
235.3	57.51
235.518	12.46
235.735	8.36
235.953	57.51
236.17	90.28
236.388	37.03
236.605	10.41
236.822	37.03
237.04	49.32
237.257	-48.98
237.475	-1.88
237.692	-18.26
237.909	0.17
238.127	37.03
238.344	59.56
238.562	75.95
238.779	-57.17
238.996	-16.21
239.214	41.13
239.431	-24.4
239.648	-14.17
239.865	32.94
240.083	47.27
240.3	18.6
240.517	53.42
240.735	-12.12
240.952	37.03
241.169	43.18
241.386	61.61
241.603	41.13
241.821	24.75
242.038	45.23
242.255	16.55
242.472	-26.45
242.689	49.32
242.907	26.79
243.124	8.36
243.341	116.9
243.558	45.23
243.775	-14.17
243.992	6.31
244.209	2.22
244.426	61.61
244.643	12.46
244.86	0.17
245.078	4.27
245.295	57.51
245.512	30.89
245.729	-28.5
245.946	4.27
246.163	-32.6
246.38	8.36
246.597	34.99
246.814	0.17
247.031	-16.21
247.248	0.17
247.464	-16.21
247.681	-32.6
247.898	4.27
248.115	37.03
248.332	-55.12
248.549	18.6
248.766	49.32
248.983	86.19
249.2	-30.55
249.417	49.32
249.633	0.17
249.85	-20.31
250.067	20.65
250.284	30.89
250.501	6.31
250.717	30.89
250.934	6.31
251.151	-8.02
251.368	6.31
251.585	30.89
251.801	6.31
252.018	12.46
252.235	-3.93
252.451	0.17
252.668	-8.02
252.885	30.89
253.102	26.79
253.318	61.61
253.535	28.84
253.752	41.13
253.968	-14.17
254.185	-14.17
254.401	8.36
254.618	-8.02
254.835	-5.97
255.051	-1.88
255.268	-3.93
255.484	4.27
255.701	-5.97
255.917	45.23
256.134	14.51
256.351	26.79
256.567	14.51
256.784	-3.93
257	8.36
257.217	6.31
257.433	-40.79
257.65	49.32
257.866	37.03
258.082	20.65
258.299	-10.07
258.515	43.18
258.732	-57.17
258.948	22.7
259.165	39.08
259.381	65.71
259.597	65.71
259.814	-36.69
260.03	-26.45
260.246	26.79
260.463	32.94
260.679	37.03
260.895	-18.26
261.112	-26.45
261.328	-16.21
261.544	-65.36
261.761	49.32
261.977	71.85
262.193	0.17
262.409	22.7
262.626	-38.74
262.842	59.56
263.058	6.31
263.274	37.03
263.49	22.7
263.707	26.79
263.923	22.7
264.139	-40.79
264.355	12.46
264.571	8.36
264.787	-1.88
265.004	88.23
265.22	0.17
265.436	-3.93
265.652	0.17
265.868	-3.93
266.084	-38.74
266.3	69.8
266.516	-57.17
266.732	82.09
266.948	4.27
267.164	73.9
267.38	151.72
267.596	-10.07
267.812	106.67
268.028	57.51
268.244	-20.31
268.46	0.17
268.676	28.84
268.892	96.43
269.108	14.51
269.324	-104.28
269.54	12.46
269.756	8.36
269.972	24.75
270.188	53.42
270.403	84.14
270.619	-32.6
270.835	32.94
271.051	-10.07
271.267	28.84
271.483	-18.26
271.698	4.27
271.914	71.85
272.13	39.08
272.346	16.55
272.562	-53.08
272.777	32.94
272.993	26.79
273.209	80.04
273.425	-30.55
273.64	-42.84
273.856	47.27
274.072	22.7
274.287	-30.55
274.503	26.79
274.719	12.46
274.934	2.22
275.15	-53.08
275.366	4.27
275.581	-53.08
275.797	47.27
276.012	2.22
276.228	-8.02
276.444	-22.36
276.659	6.31
276.875	28.84
277.09	80.04
277.306	-16.21
277.521	12.46
277.737	18.6
277.952	-63.32
278.168	8.36
278.383	16.55
278.599	45.23
278.814	-3.93
279.03	-14.17
279.245	43.18
279.461	80.04
279.676	61.61
279.892	45.23
280.107	2.22
280.322	39.08
280.538	14.51
280.753	12.46
280.969	49.32
281.184	-36.69
281.399	24.75
281.615	-71.51
281.83	4.27
282.045	39.08
282.26	-38.74
282.476	10.41
282.691	55.47
282.906	47.27
283.122	18.6
283.337	-3.93
283.552	24.75
283.767	-12.12
283.983	10.41
284.198	0.17
284.413	4.27
284.628	-20.31
284.843	-3.93
285.058	49.32
285.274	8.36
285.489	20.65
285.704	37.03
285.919	-40.79
286.134	-32.6
286.349	39.08
286.564	-8.02
286.779	20.65
286.995	-8.02
287.21	-48.98
287.425	53.42
287.64	-46.93
287.855	32.94
288.07	-22.36
288.285	-1.88
288.5	-16.21
288.715	18.6
288.93	0.17
289.145	-20.31
289.36	-20.31
289.575	-20.31
289.79	37.03
290.004	59.56
290.219	28.84
290.434	6.31
290.649	-40.79
290.864	26.79
291.079	4.27
291.294	82.09
291.509	-1.88
291.724	8.36
291.938	63.66
292.153	37.03
292.368	43.18
292.583	20.65
292.798	49.32
293.012	-24.4
293.227	82.09
293.442	34.99
293.657	57.51
293.871	2.22
294.086	-8.02
294.301	86.19
294.516	32.94
294.73	37.03
294.945	-8.02
295.16	-30.55
295.374	-10.07
295.589	6.31
295.804	47.27
296.018	-8.02
296.233	14.51
296.447	-3.93
296.662	8.36
296.877	4.27
297.091	10.41
297.306	55.47
297.52	-16.21
297.735	28.84
297.949	-53.08
298.164	-3.93
298.378	-42.84
298.593	43.18
298.807	41.13
299.022	22.7
299.236	26.79
299.451	49.32
299.665	41.13
299.88	34.99
300.094	-16.21
300.309	49.32
300.523	34.99
300.737	8.36
300.952	8.36
301.166	18.6
301.381	10.41
301.595	-44.88
301.809	43.18
302.024	-69.46
302.238	32.94
302.452	61.61
302.667	30.89
302.881	41.13
303.095	12.46
303.309	53.42
303.524	61.61
303.738	14.51
303.952	28.84
304.166	-59.22
304.381	10.41
304.595	-18.26
304.809	-30.55
305.023	-5.97
305.237	-69.46
305.452	71.85
305.666	28.84
305.88	57.51
306.094	-42.84
306.308	90.28
306.522	63.66
306.736	39.08
306.95	-36.69
307.164	41.13
307.379	12.46
307.593	20.65
307.807	73.9
308.021	2.22
308.235	26.79
308.449	-44.88
308.663	6.31
308.877	24.75
309.091	-59.22
309.305	-51.03
309.519	45.23
309.733	12.46
309.947	0.17
310.161	-8.02
310.374	67.75
310.588	71.85
310.802	-102.23
311.016	8.36
311.23	10.41
311.444	-8.02
311.658	18.6
311.872	94.38
312.085	57.51
312.299	69.8
312.513	32.94
312.727	34.99
312.941	-10.07
313.154	22.7
313.368	12.46
313.582	-22.36
313.796	28.84
314.009	-20.31
314.223	18.6
314.437	80.04
314.651	0.17
314.864	12.46
315.078	-1.88
315.292	16.55
315.505	37.03
315.719	147.62
315.933	16.55
316.146	63.66
316.36	49.32
316.573	30.89
316.787	-36.69
317.001	30.89
317.214	10.41
317.428	73.9
317.641	41.13
317.855	0.17
318.068	47.27
318.282	116.9
318.495	47.27
318.709	10.41
318.922	-26.45
319.136	39.08
319.349	39.08
319.563	51.37
319.776	41.13
319.99	20.65
320.203	51.37
320.417	-22.36
320.63	63.66
320.843	-3.93
321.057	16.55
321.27	18.6
321.483	4.27
321.697	57.51
321.91	22.7
322.124	26.79
322.337	10.41
322.55	14.51
322.763	28.84
322.977	57.51
323.19	6.31
323.403	80.04
323.617	10.41
323.83	63.66
324.043	-98.13
324.256	22.7
324.469	12.46
324.683	34.99
324.896	41.13
325.109	41.13
325.322	6.31
325.535	61.61
325.748	-3.93
325.962	71.85
326.175	-30.55
326.388	32.94
326.601	-75.6
326.814	53.42
327.027	-61.27
327.24	86.19
327.453	-18.26
327.666	47.27
327.879	53.42
328.092	34.99
328.305	6.31
328.518	-55.12
328.731	-100.18
328.944	-28.5
329.157	-1.88
329.37	14.51
329.583	41.13
329.796	67.75
330.009	2.22
330.222	57.51
330.435	16.55
330.648	34.99
330.861	16.55
331.073	61.61
331.286	22.7
331.499	69.8
331.712	4.27
331.925	61.61
332.138	-1.88
332.35	39.08
332.563	49.32
332.776	30.89
332.989	8.36
333.202	67.75
333.414	90.28
333.627	41.13
333.84	-10.07
334.053	-24.4
334.265	-22.36
334.478	18.6
334.691	-18.26
334.903	37.03
335.116	-16.21
335.329	22.7
335.541	-26.45
335.754	65.71
335.966	47.27
336.179	-8.02
336.392	6.31
336.604	24.75
336.817	45.23
337.029	-42.84
337.242	-8.02
337.454	37.03
337.667	-16.21
337.88	-5.97
338.092	4.27
338.305	77.99
338.517	57.51
338.729	-16.21
338.942	57.51
339.154	-12.12
339.367	-3.93
339.579	4.27
339.792	45.23
340.004	20.65
340.217	49.32
340.429	-26.45
340.641	16.55
340.854	-10.07
341.066	16.55
341.278	67.75
341.491	30.89
341.703	61.61
341.915	32.94
342.128	28.84
342.34	20.65
342.552	-20.31
342.764	22.7
342.977	53.42
343.189	51.37
343.401	45.23
343.613	-44.88
343.826	20.65
344.038	-16.21
344.25	26.79
344.462	26.79
344.674	43.18
344.886	73.9
345.099	12.46
345.311	59.56
345.523	30.89
345.735	26.79
345.947	49.32
346.159	34.99
346.371	49.32
346.583	-22.36
346.795	67.75
347.007	-16.21
347.219	-1.88
347.431	18.6
347.643	6.31
347.855	18.6
348.067	24.75
348.279	8.36
348.491	-36.69
348.703	-67.41
348.915	-46.93
349.127	-65.36
349.339	6.31
349.551	-30.55
349.763	106.67
349.975	28.84
350.187	39.08
350.399	43.18
350.61	34.99
350.822	-1.88
351.034	57.51
351.246	32.94
351.458	51.37
351.669	92.33
351.881	61.61
352.093	49.32
352.305	2.22
352.517	-63.32
352.728	53.42
352.94	-20.31
353.152	67.75
353.363	28.84
353.575	43.18
353.787	37.03
353.999	30.89
354.21	8.36
354.422	6.31
354.633	18.6
354.845	73.9
355.057	12.46
355.268	24.75
355.48	80.04
355.692	41.13
355.903	26.79
356.115	2.22
356.326	12.46
356.538	26.79
356.749	-30.55
356.961	77.99
357.172	26.79
357.384	-3.93
357.595	-3.93
357.807	39.08
358.018	14.51
358.23	-10.07
358.441	92.33
358.653	-22.36
358.864	32.94
359.075	-24.4
359.287	-12.12
359.498	8.36
359.709	65.71
359.921	-30.55
360.132	-22.36
360.344	-28.5
360.555	0.17
360.766	34.99
360.977	34.99
361.189	61.61
361.4	4.27
361.611	100.52
361.823	77.99
362.034	-8.02
362.245	-14.17
362.456	45.23
362.667	43.18
362.879	-3.93
363.09	22.7
363.301	94.38
363.512	-3.93
363.723	69.8
363.935	16.55
364.146	45.23
364.357	37.03
364.568	-8.02
364.779	-28.5
364.99	86.19
365.201	-28.5
365.412	55.47
365.623	-18.26
365.834	69.8
366.045	69.8
366.256	47.27
366.467	-16.21
366.678	61.61
366.889	75.95
367.1	-20.31
367.311	32.94
367.522	12.46
367.733	77.99
367.944	-20.31
368.155	39.08
368.366	22.7
368.577	-61.27
368.788	18.6
368.999	6.31
369.209	2.22
369.42	34.99
369.631	53.42
369.842	-3.93
370.053	55.47
370.264	45.23
370.474	0.17
370.685	92.33
370.896	8.36
371.107	28.84
371.317	-44.88
371.528	-14.17
371.739	-40.79
371.95	-28.5
372.16	49.32
372.371	4.27
372.582	45.23
372.792	-53.08
373.003	67.75
373.214	10.41
373.424	16.55
373.635	-12.12
373.846	49.32
374.056	-57.17
374.267	84.14
374.477	73.9
374.688	41.13
374.898	-20.31
375.109	8.36
375.319	6.31
375.53	18.6
375.74	-3.93
375.951	34.99
376.161	20.65
376.372	45.23
376.582	30.89
376.793	49.32
377.003	53.42
377.214	-22.36
377.424	4.27
377.635	-55.12
377.845	47.27
378.055	34.99
378.266	6.31
378.476	4.27
378.686	77.99
378.897	41.13
379.107	55.47
379.317	43.18
379.528	12.46
379.738	75.95
379.948	26.79
380.158	53.42
380.369	39.08
380.579	88.23
380.789	8.36
380.999	12.46
381.21	37.03
381.42	96.43
381.63	45.23
381.84	-10.07
382.05	47.27
382.261	26.79
382.471	10.41
382.681	-10.07
382.891	-1.88
383.101	49.32
383.311	39.08
383.521	45.23
383.731	-24.4
383.941	67.75
384.151	32.94
384.361	49.32
384.571	14.51
384.781	28.84
384.991	75.95
385.201	6.31
385.411	102.57
385.621	10.41
385.831	-1.88
386.041	2.22
386.251	49.32
386.461	20.65
386.671	-30.55
386.881	8.36
387.091	22.7
387.301	51.37
387.511	-1.88
387.72	63.66
387.93	90.28
388.14	73.9
388.35	88.23
388.56	45.23
388.769	-8.02
388.979	75.95
389.189	-16.21
389.399	53.42
389.609	59.56
389.818	-12.12
390.028	45.23
390.238	67.75
390.447	-30.55
390.657	77.99
390.867	53.42
391.076	-12.12
391.286	16.55
391.496	96.43
391.705	-44.88
391.915	82.09
392.125	77.99
392.334	47.27
392.544	49.32
392.753	49.32
392.963	24.75
393.172	-12.12
393.382	39.08
393.591	24.75
393.801	75.95
394.01	129.19
394.22	71.85
394.429	8.36
394.639	20.65
394.848	80.04
395.058	-28.5
395.267	-1.88
395.477	41.13
395.686	96.43
395.895	71.85
396.105	92.33
396.314	55.47
396.524	28.84
396.733	88.23
396.942	127.14
397.152	86.19
397.361	55.47
397.57	61.61
397.78	73.9
397.989	-14.17
398.198	45.23
398.407	0.17
398.617	18.6
398.826	-8.02
399.035	16.55
399.244	43.18
399.453	129.19
399.663	61.61
399.872	137.38
400.081	-75.6
400.29	16.55
400.499	26.79
400.708	65.71
400.917	6.31
401.127	65.71
401.336	86.19
401.545	39.08
401.754	88.23
401.963	-30.55
402.172	24.75
402.381	22.7
402.59	127.14
402.799	0.17
403.008	67.75
403.217	34.99
403.426	34.99
403.635	32.94
403.844	51.37
404.053	98.47
404.262	55.47
404.471	118.95
404.68	67.75
404.888	41.13
405.097	28.84
405.306	110.76
405.515	63.66
405.724	98.47
405.933	77.99
406.142	125.1
406.35	176.3
406.559	57.51
406.768	32.94
406.977	153.77
407.185	137.38
407.394	161.96
407.603	86.19
407.812	92.33
408.02	106.67
408.229	100.52
408.438	121
408.646	114.86
408.855	104.62
409.064	80.04
409.272	92.33
409.481	63.66
409.69	147.62
409.898	92.33
410.107	69.8
410.315	149.67
410.524	125.1
410.733	147.62
410.941	86.19
411.15	192.68
411.358	139.43
411.567	157.86
411.775	190.63
411.984	239.78
412.192	184.49
412.401	174.25
412.609	196.78
412.818	174.25
413.026	235.69
413.234	245.93
413.443	221.35
413.651	266.41
413.86	188.58
414.068	278.69
414.276	211.11
414.485	243.88
414.693	323.75
414.901	284.84
415.11	202.92
415.318	303.27
415.526	309.41
415.734	338.09
415.943	329.89
416.151	356.52
416.359	356.52
416.567	372.9
416.776	344.23
416.984	450.72
417.192	471.2
417.4	420
417.608	303.27
417.817	405.67
418.025	454.82
418.233	493.73
418.441	479.4
418.649	493.73
418.857	463.01
419.065	608.42
419.273	524.45
419.481	520.35
419.689	589.99
419.897	630.95
420.105	526.5
420.313	589.99
420.521	594.08
420.729	684.19
420.937	649.38
421.145	698.53
421.353	723.1
421.561	823.45
421.769	772.25
421.977	831.65
422.185	813.21
422.393	870.56
422.601	825.5
422.809	921.76
423.017	952.48
423.224	975
423.432	1020.06
423.64	1036.44
423.848	1220.76
424.056	1089.69
424.263	1251.48
424.471	1138.84
424.679	1185.94
424.887	1204.38
425.094	1298.58
425.302	1251.48
425.51	1372.31
425.718	1366.17
425.925	1423.51
426.133	1382.55
426.341	1511.57
426.548	1626.26
426.756	1632.4
426.964	1704.08
427.171	1710.22
427.379	1681.55
427.586	1679.51
427.794	1847.44
428.001	2035.85
428.209	1992.84
428.417	2017.42
428.624	2105.48
428.832	2181.26
429.039	2146.44
429.247	2005.13
429.454	2341
429.662	2519.17
429.869	2263.18
430.076	2496.64
430.284	2277.51
430.491	2422.92
430.699	2574.47
430.906	2650.24
431.114	2672.77
431.321	2756.74
431.528	2814.08
431.736	3031.16
431.943	3108.99
432.15	2975.87
432.358	3078.27
432.565	3229.82
432.772	3186.81
432.979	3442.81
433.187	3416.18
433.394	3489.91
433.601	3627.12
433.808	3688.56
434.016	3696.75
434.223	3881.07
434.43	3967.09
434.637	4022.38
434.844	4317.29
435.052	4309.1
435.259	4294.76
435.466	4276.33
435.673	4278.38
435.88	4343.91
436.087	4819.04
436.294	4952.16
436.501	4755.55
436.708	4722.79
436.915	4972.64
437.122	5167.2
437.329	5148.76
437.537	5494.87
437.743	5412.95
437.95	5378.14
438.157	5562.45
438.364	5797.97
438.571	5965.9
438.778	5896.27
438.985	6377.55
439.192	6131.79
439.399	6322.25
439.606	6215.76
439.813	6637.64
440.02	6955.07
440.227	6916.16
440.433	6778.95
440.64	6907.97
440.847	6922.31
441.054	7278.65
441.261	7551.03
441.467	7557.18
441.674	7561.27
441.881	7925.81
442.088	7960.63
442.294	7858.23
442.501	7962.67
442.708	8220.72
442.914	8552.49
443.121	8880.16
443.328	8579.11
443.534	9349.15
443.741	8962.08
443.948	8908.83
444.154	9324.57
444.361	9418.78
444.568	9584.66
444.774	9633.82
444.981	9666.58
445.187	9748.5
445.394	10481.67
445.6	10100.75
445.807	11188.22
446.013	10590.22
446.22	10975.24
446.426	11327.49
446.633	11456.51
446.839	11888.63
447.046	11137.02
447.252	12058.61
447.459	11923.44
447.665	11812.85
447.871	12494.83
448.078	12804.07
448.284	12234.74
448.491	12632.04
448.697	13076.45
448.903	13369.31
449.11	13463.52
449.316	13426.65
449.522	13686.75
449.728	13692.89
449.935	13879.25
450.141	13666.27
450.347	14305.23
450.553	13739.99
450.76	14096.34
450.966	14323.66
451.172	14125.01
451.378	14747.59
451.584	14372.82
451.791	14677.96
451.997	14786.51
452.203	14929.86
452.409	14847.94
452.615	14757.83
452.821	14151.63
453.027	14239.7
453.233	14378.96
453.44	14184.4
453.646	14540.75
453.852	14602.19
454.058	14700.49
454.264	14303.18
454.47	14550.99
454.676	14217.17
454.882	14700.49
455.088	13332.45
455.294	13576.16
455.5	13778.9
455.705	13789.14
455.911	13326.3
456.117	13082.6
456.323	12769.26
456.529	12230.64
456.735	12883.94
456.941	12423.15
457.147	12318.7
457.352	11751.42
457.558	11692.02
457.764	11712.5
457.97	11595.77
458.176	11227.14
458.381	11149.31
458.587	10743.81
458.793	10756.1
458.999	10022.93
459.204	10772.49
459.41	10612.74
459.616	9945.11
459.821	9756.69
460.027	9912.34
460.233	9809.94
460.438	9340.96
460.644	9304.09
460.85	8863.78
461.055	8613.93
461.261	8593.45
461.466	8175.66
461.672	8003.63
461.878	8411.18
462.083	7884.85
462.289	7659.57
462.494	7618.61
462.7	7346.23
462.905	7151.68
463.111	7260.22
463.316	7460.92
463.522	7123.01
463.727	7278.65
463.932	7180.35
464.138	7098.43
464.343	7135.29
464.549	6965.31
464.754	7301.18
464.959	7071.81
465.165	7061.57
465.37	6805.57
465.575	6613.06
465.781	6873.15
465.986	6916.16
466.191	6627.4
466.397	6504.52
466.602	6219.85
466.807	6320.2
467.012	6463.56
467.218	6428.74
467.423	6258.76
467.628	6332.49
467.833	6574.15
468.038	6389.83
468.244	6137.93
468.449	6303.82
468.654	6326.35
468.859	6074.45
469.064	6056.01
469.269	5742.68
469.474	5818.45
469.679	6088.78
469.885	5843.03
470.09	5759.06
470.295	6045.77
470.5	5806.16
470.705	5863.51
470.91	5711.96
471.115	5627.99
471.32	5791.83
471.525	5562.45
471.73	5527.64
471.935	5591.13
472.139	5404.76
472.344	5337.18
472.549	5349.47
472.754	5253.21
472.959	5183.58
473.164	5148.76
473.369	5085.28
473.574	5148.76
473.778	5249.11
473.983	5089.37
474.188	5134.43
474.393	4806.75
474.598	4890.72
474.802	4716.64
475.007	4802.66
475.212	4919.39
475.417	4685.92
475.621	4698.21
475.826	4716.64
476.031	4558.95
476.235	4651.11
476.44	4452.45
476.645	4399.21
476.849	4419.69
477.054	4468.84
477.259	4401.26
477.463	4374.63
477.668	4341.86
477.872	4352.1
478.077	4159.6
478.282	4157.55
478.486	3983.47
478.691	4204.65
478.895	4126.83
479.1	4049
479.304	4071.53
479.509	3962.99
479.713	4069.48
479.918	3932.27
480.122	3868.78
480.326	3932.27
480.531	4081.77
480.735	3754.1
480.94	3913.84
481.144	3940.46
481.348	3706.99
481.553	3770.48
481.757	3735.67
481.961	3793.01
482.166	3821.68
482.37	3922.03
482.574	3692.66
482.778	3696.75
482.983	3836.02
483.187	3821.68
483.391	3754.1
483.595	3739.76
483.8	3788.91
484.004	3704.95
484.208	3934.32
484.412	3807.34
484.616	3790.96
484.821	3776.63
485.025	3702.9
485.229	3756.15
485.433	3762.29
485.637	3774.58
485.841	3580.02
486.045	3686.51
486.249	3692.66
486.453	3784.82
486.657	3934.32
486.861	3752.05
487.065	3616.88
487.269	3840.11
487.473	3754.1
487.677	3840.11
487.881	3854.45
488.085	3721.33
488.289	3809.39
488.493	3829.87
488.697	3962.99
488.901	3709.04
489.105	3704.95
489.309	3815.54
489.512	3717.23
489.716	3805.3
489.92	3934.32
490.124	3801.2
490.328	3936.37
490.531	3756.15
490.735	3915.89
490.939	3891.31
491.143	3844.21
491.346	3823.73
491.55	3932.27
491.754	3915.89
491.958	3956.85
492.161	3885.17
492.365	3977.33
492.569	3958.89
492.772	3997.81
492.976	4124.78
493.18	3997.81
493.383	4116.59
493.587	4034.67
493.79	4251.75
493.994	4143.21
494.197	4241.51
494.401	4245.61
494.605	4202.6
494.808	4366.44
495.012	4317.29
495.215	4382.82
495.419	4429.93
495.622	4370.54
495.825	4401.26
496.029	4397.16
496.232	4542.57
496.436	4438.12
496.639	4624.48
496.843	4679.78
497.046	4579.43
497.249	4714.59
497.453	4786.27
497.656	4661.35
497.859	4806.75
498.063	4741.22
498.266	4941.92
498.469	4776.03
498.673	4841.57
498.876	5019.74
499.079	5079.13
499.282	5122.14
499.485	5220.44
499.689	5181.53
499.892	5335.13
500.095	5355.61
500.298	5509.21
500.501	5408.86
500.705	5656.66
500.908	5523.54
501.111	5765.2
501.314	5714
501.517	5716.05
501.72	5941.33
501.923	6013.01
502.126	6086.73
502.329	6045.77
502.532	5965.9
502.735	6160.46
502.938	6314.06
503.141	6387.79
503.344	6518.86
503.547	6500.42
503.75	6481.99
503.953	6568.01
504.156	6727.75
504.359	6752.32
504.562	6619.21
504.765	6928.45
504.968	6850.63
505.17	7135.29
505.373	7104.57
505.576	7161.92
505.779	7225.4
505.982	7432.25
506.185	7563.32
506.387	7530.55
506.59	7661.62
506.793	7649.33
506.996	7612.47
507.198	7907.38
507.401	7804.98
507.604	7944.24
507.807	7897.14
508.009	8331.31
508.212	8382.51
508.415	8331.31
508.617	8435.75
508.82	8486.95
509.022	8626.22
509.225	8577.06
509.428	8863.78
509.63	8863.78
509.833	8988.71
510.035	9267.23
510.238	8937.51
510.44	9232.41
510.643	9508.89
510.845	9494.55
511.048	9459.74
511.25	9791.51
511.453	9869.33
511.655	10113.04
511.858	9992.21
512.06	9973.78
512.262	10129.42
512.465	10412.04
512.667	10354.7
512.87	10530.83
513.072	10797.06
513.274	10653.7
513.477	10987.52
513.679	10921.99
513.881	11071.49
514.084	11155.46
514.286	11194.37
514.488	11448.32
514.69	11735.03
514.893	11595.77
515.095	11819
515.297	11915.25
515.499	12023.8
515.701	12105.71
515.904	12292.08
516.106	12339.18
516.308	12498.92
516.51	12806.12
516.712	12642.28
516.914	12744.68
517.116	13076.45
517.318	13283.3
517.52	13436.89
517.722	13131.75
517.925	13563.87
518.127	13438.94
518.329	13737.95
518.531	13850.58
518.733	14002.13
518.935	14055.38
519.136	13979.61
519.338	14260.18
519.54	14303.18
519.742	14647.24
519.944	14680.01
520.146	15091.65
520.348	15075.27
520.55	14989.25
520.752	15161.28
520.954	15523.77
521.155	15491.01
521.357	15849.4
521.559	16158.64
521.761	16134.07
521.963	16021.43
522.164	16246.71
522.366	16256.95
522.568	16324.53
522.77	16500.65
522.971	16981.93
523.173	16920.49
523.375	16936.87
523.576	17039.27
523.778	16965.54
523.98	17440.67
524.181	17270.69
524.383	17473.44
524.584	17528.74
524.786	17921.95
524.988	17715.1
525.189	18182.04
525.391	17964.95
525.592	17967
525.794	18603.92
525.995	18388.88
526.197	18532.24
526.398	18675.6
526.6	18601.87
526.801	18861.96
527.003	19222.41
527.204	18868.11
527.406	19187.59
527.607	19236.74
527.808	19308.42
528.01	19040.14
528.211	19396.48
528.412	20037.5
528.614	19392.39
528.815	19670.91
529.016	20025.21
529.218	19953.53
529.419	19783.55
529.62	19855.23
529.822	20215.67
530.023	20064.12
530.224	20154.23
530.425	20150.14
530.626	20346.74
530.828	20139.9
531.029	20588.4
531.23	20178.81
531.431	20612.98
531.632	20455.28
531.833	20604.78
532.035	20520.82
532.236	20518.77
532.437	20930.41
532.638	20592.5
532.839	20942.7
533.04	20688.75
533.241	20989.8
533.442	21006.19
533.643	20952.94
533.844	20901.74
534.045	21071.72
534.246	21071.72
534.447	20969.32
534.648	20772.72
534.849	21270.37
535.05	21018.47
535.251	21026.67
535.451	21098.34
535.652	21086.06
535.853	21010.28
536.054	21227.37
536.255	21391.2
536.456	20787.05
536.657	21315.43
536.857	21016.43
537.058	21159.78
537.259	21403.49
537.46	21253.99
537.66	21143.4
537.861	21241.7
538.062	21210.98
538.263	21274.47
538.463	21258.09
538.664	21004.14
538.865	21495.65
539.065	21370.72
539.266	20989.8
539.466	21716.83
539.667	21198.7
539.868	21483.36
540.068	21278.57
540.269	21299.05
540.469	21628.77
540.67	21243.75
540.87	21428.07
541.071	21329.77
541.271	21278.57
541.472	21102.44
541.672	21354.34
541.873	21444.45
542.073	21153.64
542.274	21249.89
542.474	21243.75
542.675	21063.53
542.875	21403.49
543.075	21417.83
543.276	20991.85
543.476	21270.37
543.676	21243.75
543.877	21237.61
544.077	21372.77
544.277	21368.68
544.478	21280.61
544.678	21196.65
544.878	21399.4
545.078	21079.91
545.279	21149.54
545.479	21122.92
545.679	21280.61
545.879	21292.9
546.079	21188.46
546.28	21309.29
546.48	21229.41
546.68	21245.8
546.88	21340.01
547.08	21532.51
547.28	21204.84
547.48	21288.81
547.68	21139.3
547.88	21038.95
548.081	21208.94
548.281	21038.95
548.481	21276.52
548.681	21632.86
548.881	21118.82
549.081	21206.89
549.28	21493.6
549.48	21432.16
549.68	21030.76
549.88	21657.44
550.08	21346.15
550.28	21276.52
550.48	21081.96
550.68	21415.78
550.88	21137.26
551.08	21335.91
551.279	21399.4
551.479	21061.48
551.679	21206.89
551.879	21163.88
552.079	20963.18
552.278	21344.1
552.478	21063.53
552.678	21446.5
552.878	21462.88
553.077	21319.53
553.277	21454.69
553.477	21411.68
553.676	21124.97
553.876	21041
554.076	21487.46
554.275	21055.34
554.475	20926.32
554.674	21000.04
554.874	20922.22
555.074	20670.32
555.273	21090.15
555.473	20782.96
555.672	21024.62
555.872	20707.18
556.071	20977.51
556.271	20817.77
556.47	21041
556.67	20592.5
556.869	20909.93
557.068	20995.95
557.268	20668.27
557.467	20825.96
557.667	20866.92
557.866	20764.53
558.065	20520.82
558.265	20348.79
558.464	20457.33
558.663	20701.04
558.863	20191.09
559.062	20754.29
559.261	20281.21
559.461	20418.42
559.66	20131.7
559.859	20316.02
560.058	20092.79
560.258	20244.34
560.457	20010.87
560.656	20248.44
560.855	20076.41
561.054	20328.31
561.253	19969.91
561.453	19959.67
561.652	20037.5
561.851	20189.05
562.05	19859.32
562.249	19756.93
562.448	19988.35
562.647	19879.8
562.846	19586.94
563.045	19693.44
563.244	19664.77
563.443	19525.5
563.642	19156.87
563.841	19318.66
564.04	19238.79
564.239	19591.04
564.438	19320.71
564.637	19349.38
564.836	19163.01
565.035	19015.56
565.234	19455.87
565.432	18878.35
565.631	19158.92
565.83	19089.29
566.029	19142.53
566.228	18849.68
566.427	18700.17
566.625	18593.68
566.824	18497.42
567.023	18683.79
567.222	18151.32
567.42	18657.17
567.619	18667.41
567.818	18257.81
568.016	18313.11
568.215	18505.62
568.414	18356.11
568.612	18179.99
568.811	18349.97
569.01	18089.88
569.208	17950.62
569.407	17858.46
569.605	17852.31
569.804	17837.98
570.002	17672.09
570.201	17862.55
570.4	17708.96
570.598	17618.85
570.797	17375.14
570.995	17631.13
571.193	17244.07
571.392	17489.82
571.59	17457.06
571.789	17242.02
571.987	17106.85
572.186	16920.49
572.384	17076.13
572.582	16908.2
572.781	17282.98
572.979	16701.36
573.177	16838.57
573.376	16857
573.574	16969.64
573.772	16918.44
573.971	16549.81
574.169	16940.97
574.367	16514.99
574.565	16613.29
574.763	16553.9
574.962	16283.57
575.16	16134.07
575.358	16224.18
575.556	16121.78
575.754	16478.13
575.952	16011.19
576.151	16392.11
576.349	16086.97
576.547	16062.39
576.745	15910.84
576.943	15873.98
577.141	15669.18
577.339	15939.51
577.537	15843.26
577.735	15824.83
577.933	15658.94
578.131	15685.56
578.329	15622.08
578.527	15456.19
578.725	15656.89
578.923	15642.56
579.121	15216.58
579.319	15390.66
579.516	15462.33
579.714	15247.3
579.912	15392.7
580.11	15306.69
580.308	15136.71
580.506	15108.04
580.704	15015.88
580.901	14946.25
581.099	14954.44
581.297	15015.88
581.495	14952.39
581.692	15089.6
581.89	14813.13
582.088	14825.42
582.285	14622.67
582.483	14798.79
582.681	14546.89
582.878	14653.39
583.076	14471.12
583.274	14452.69
583.471	14348.24
583.669	14456.78
583.866	14370.77
584.064	14471.12
584.262	13846.49
584.459	14350.29
584.657	14192.59
584.854	14403.53
585.052	13979.61
585.249	14106.58
585.447	14188.5
585.644	13987.8
585.841	14024.66
586.039	13952.98
586.236	13723.61
586.434	14057.43
586.631	13828.06
586.828	13610.97
587.026	13484
587.223	13561.82
587.42	13455.33
587.618	13484
587.815	13606.88
588.012	13465.57
588.21	13602.78
588.407	13424.61
588.604	13404.13
588.801	13271.01
588.999	13260.77
589.196	13246.43
589.393	13189.09
589.59	13176.8
589.787	13105.12
589.984	13131.75
590.182	12865.51
590.379	13078.5
590.576	12812.26
590.773	13084.64
590.97	12922.85
591.167	12890.09
591.364	12629.99
591.561	12892.13
591.758	12785.64
591.955	12406.77
592.152	12791.78
592.349	12791.78
592.546	12654.57
592.743	12472.3
592.94	12460.01
593.137	12523.5
593.334	12392.43
593.531	12181.49
593.727	12384.24
593.924	12541.93
594.121	12345.33
594.318	12322.8
594.515	12070.9
594.712	12185.58
594.908	12113.91
595.105	11911.16
595.302	12050.42
595.499	12214.26
595.696	11995.12
595.892	11907.06
596.089	11755.51
596.286	11800.57
596.482	11812.85
596.679	11841.53
596.876	11763.7
597.072	11505.66
597.269	11894.77
597.466	11421.69
597.662	11544.57
597.859	11458.56
598.055	11577.34
598.252	11630.59
598.448	11589.63
598.645	11517.95
598.841	11507.71
599.038	11483.13
599.234	11433.98
599.431	11114.5
599.627	11397.12
599.824	11352.06
600.02	11110.4
600.217	11083.78
600.413	10907.65
600.609	11161.6
600.806	11157.5
601.002	11014.15
601.198	11059.2
601.395	10913.8
601.591	11030.53
601.787	10946.56
601.984	10895.36
602.18	10885.12
602.376	10917.89
602.572	11034.63
602.769	10825.73
602.965	10878.98
603.161	10899.46
603.357	10420.24
603.553	10430.48
603.75	10444.81
603.946	10596.36
604.142	10680.33
604.338	10461.2
604.534	10512.39
604.73	10678.28
604.926	10393.61
605.122	10403.85
605.318	10299.41
605.514	10121.23
605.71	10477.58
605.906	10278.93
606.102	10291.21
606.298	10240.01
606.494	10188.82
606.69	10309.65
606.886	10174.48
607.082	10004.5
607.278	10117.14
607.474	9986.07
607.67	9922.58
607.866	10027.03
608.062	10004.5
608.257	9977.87
608.453	9900.05
608.649	9725.97
608.845	9928.72
609.041	9898
609.236	9822.23
609.432	9859.09
609.628	9768.98
609.824	9732.12
610.019	9711.64
610.215	9844.76
610.411	9779.22
610.606	9738.26
610.802	9832.47
610.998	9644.06
611.193	9785.37
611.389	9426.97
611.584	9390.11
611.78	9414.68
611.976	9375.77
612.171	9234.46
612.367	9308.19
612.562	9369.63
612.758	9263.13
612.953	9367.58
613.149	9601.05
613.344	8986.66
613.539	9289.76
613.735	9041.95
613.93	9277.47
614.126	9156.64
614.321	9426.97
614.517	9406.49
614.712	9289.76
614.907	8917.03
615.103	9058.34
615.298	9127.97
615.493	9011.23
615.688	9232.41
615.884	9123.87
616.079	9072.67
616.274	9134.11
616.47	8855.59
616.665	9070.62
616.86	8927.27
617.055	9078.82
617.25	8818.72
617.445	9101.34
617.641	8712.23
617.836	8878.12
618.031	8843.3
618.226	9017.38
618.421	8775.72
618.616	8904.74
618.811	8720.42
619.006	8663.08
619.201	8710.18
619.396	8812.58
619.591	8327.21
619.786	8634.41
619.981	8497.19
620.176	8667.17
620.371	8515.62
620.566	8458.28
620.761	8443.95
620.956	8380.46
621.151	8177.71
621.346	8370.22
621.541	8226.86
621.735	8204.33
621.93	8222.77
622.125	7966.77
622.32	7987.25
622.515	8007.73
622.709	8120.37
622.904	8001.58
623.099	7911.47
623.294	7972.91
623.488	7843.89
623.683	7718.96
623.878	7559.22
624.072	7616.57
624.267	7653.43
624.462	7667.77
624.656	7737.4
624.851	7628.85
625.046	7551.03
625.24	7508.02
625.435	7417.91
625.629	7438.39
625.824	7495.74
626.018	7340.09
626.213	7190.59
626.407	7454.78
626.602	7286.84
626.796	7290.94
626.991	7198.78
627.185	7010.37
627.38	7057.47
627.574	7067.71
627.768	6936.64
627.963	6824
628.157	6985.79
628.352	6928.45
628.546	6809.67
628.74	6907.97
628.935	6684.74
629.129	6860.87
629.323	6631.49
629.517	6873.15
629.712	6785.09
629.906	6760.52
630.1	6625.35
630.294	6682.69
630.489	6496.33
630.683	6664.26
630.877	6367.31
631.071	6420.55
631.265	6529.1
631.459	6492.23
631.653	6223.95
631.848	6316.11
632.042	6352.97
632.236	6430.79
632.43	6258.76
632.624	6211.66
632.818	6006.86
633.012	6090.83
633.206	6033.49
633.4	6004.82
633.594	6033.49
633.788	5978.19
633.982	5976.14
634.176	5965.9
634.369	5943.38
634.563	5840.98
634.757	5965.9
634.951	5757.01
635.145	5892.18
635.339	5822.55
635.533	5769.3
635.726	5738.58
635.92	5570.65
636.114	5636.18
636.308	5544.02
636.501	5556.31
636.695	5507.16
636.889	5470.3
637.083	5476.44
637.276	5361.75
637.47	5597.27
637.664	5482.58
637.857	5384.28
638.051	5419.1
638.244	5324.89
638.438	5386.33
638.632	5249.11
638.825	5212.25
639.019	5226.59
639.212	5179.48
639.406	5087.33
639.599	4982.88
639.793	5132.38
639.986	5081.18
640.18	5075.04
640.373	4903.01
640.567	5017.69
640.76	4870.24
640.954	4806.75
641.147	4726.88
641.34	4911.2
641.534	4851.81
641.727	4954.21
641.92	4884.58
642.114	4798.56
642.307	4749.41
642.5	4698.21
642.694	4649.06
642.887	4767.84
643.08	4659.3
643.273	4757.6
643.467	4808.8
643.66	4503.65
643.853	4407.4
644.046	4530.28
644.239	4575.33
644.432	4434.02
644.626	4448.36
644.819	4413.54
645.012	4474.98
645.205	4485.22
645.398	4429.93
645.591	4356.2
645.784	4173.93
645.977	4223.08
646.17	4227.18
646.363	4173.93
646.556	4266.09
646.749	4204.65
646.942	4104.3
647.135	4202.6
647.328	4128.88
647.521	4055.15
647.714	3962.99
647.907	4075.63
648.099	4051.05
648.292	4018.29
648.485	3934.32
648.678	3924.08
648.871	3987.57
649.064	3817.58
649.256	4022.38
649.449	3895.41
649.642	3915.89
649.835	3838.06
650.027	3940.46
650.22	3807.34
650.413	3838.06
650.605	3819.63
650.798	3790.96
650.991	3666.03
651.183	3682.42
651.376	3666.03
651.568	3698.8
651.761	3733.62
651.954	3553.4
652.146	3584.12
652.339	3512.44
652.531	3704.95
652.724	3588.21
652.916	3432.57
653.109	3459.19
653.301	3694.71
653.494	3522.68
653.686	3543.16
653.879	3455.09
654.071	3371.13
654.263	3371.13
654.456	3401.85
654.648	3426.42
654.84	3321.98
655.033	3461.24
655.225	3403.89
655.417	3342.46
655.61	3182.71
655.802	3227.77
655.994	3197.05
656.186	3278.97
656.379	3262.58
656.571	3240.06
656.763	3125.37
656.955	3205.24
657.148	3201.15
657.34	3252.35
657.532	3113.08
657.724	3127.42
657.916	3201.15
658.108	3127.42
658.3	2998.4
658.492	3053.69
658.684	3041.4
658.876	3008.64
659.068	3049.6
659.26	2936.96
659.452	3059.84
659.644	3174.52
659.836	2904.19
660.028	2988.16
660.22	2959.49
660.412	2883.71
660.604	2877.57
660.796	2926.72
660.988	2908.29
661.18	2781.31
661.372	2787.46
661.563	2914.43
661.755	2719.87
661.947	2900.09
662.139	2769.02
662.331	2881.66
662.522	2703.49
662.714	2760.83
662.906	2734.21
663.097	2773.12
663.289	2742.4
663.481	2611.33
663.673	2732.16
663.864	2607.23
664.056	2721.92
664.247	2801.79
664.439	2742.4
664.631	2574.47
664.822	2666.63
665.014	2568.32
665.205	2769.02
665.397	2584.71
665.588	2543.75
665.78	2508.93
665.971	2683.01
666.163	2572.42
666.354	2531.46
666.546	2576.52
666.737	2494.6
666.929	2535.56
667.12	2363.53
667.311	2498.69
667.503	2519.17
667.694	2429.06
667.885	2476.16
668.077	2400.39
668.268	2343.05
668.459	2361.48
668.651	2531.46
668.842	2437.25
669.033	2439.3
669.224	2330.76
669.416	2369.67
669.607	2271.37
669.798	2336.9
669.989	2508.93
670.18	2414.73
670.371	2248.84
670.563	2281.61
670.754	2308.23
670.945	2240.65
671.136	2332.81
671.327	2226.31
671.518	2308.23
671.709	2257.03
671.9	2433.16
672.091	2334.86
672.282	2218.12
672.473	2334.86
672.664	2297.99
672.855	2197.64
673.046	2197.64
673.237	2287.75
673.428	2234.5
673.619	2238.6
673.809	2189.45
674	2216.07
674.191	2197.64
674.382	2205.83
674.573	2179.21
674.764	2134.15
674.954	2209.93
675.145	2074.76
675.336	2140.3
675.527	2232.46
675.717	2152.59
675.908	2158.73
676.099	2168.97
676.289	2152.59
676.48	2150.54
676.671	2091.15
676.861	2220.17
677.052	2121.87
677.243	2068.62
677.433	2158.73
677.624	2072.72
677.814	2168.97
678.005	2195.59
678.195	2150.54
678.386	2099.34
678.576	2113.67
678.767	2132.11
678.957	2197.64
679.148	2179.21
679.338	1960.08
679.529	2033.8
679.719	2048.14
679.909	2134.15
680.1	2054.28
680.29	1998.99
680.481	2158.73
680.671	2109.58
680.861	2019.47
681.052	2039.95
681.242	2121.87
681.432	2072.72
681.622	2048.14
681.813	1933.45
682.003	2117.77
682.193	2025.61
682.383	2001.04
682.573	2003.08
682.764	2050.19
682.954	2039.95
683.144	2060.43
683.334	2070.67
683.524	2029.71
683.714	2173.07
683.904	2031.76
684.094	1966.22
684.284	2085
684.474	2085
684.664	2050.19
684.854	2115.72
685.044	2031.76
685.234	2015.37
685.424	1882.25
685.614	1984.65
685.804	2029.71
685.994	2123.91
686.184	2017.42
686.374	2080.91
686.564	1978.51
686.753	1992.84
686.943	1869.97
687.133	1947.79
687.323	1943.69
687.513	2007.18
687.702	2033.8
687.892	1874.06
688.082	2058.38
688.272	1853.58
688.461	1847.44
688.651	1927.31
688.841	1902.73
689.03	1908.88
689.22	1847.44
689.41	1908.88
689.599	1917.07
689.789	1783.95
689.979	1861.77
690.168	1945.74
690.358	1808.53
690.547	1822.86
690.737	1876.11
690.926	1921.17
691.116	1806.48
691.305	1890.45
691.495	1751.18
691.684	1720.46
691.874	1781.9
692.063	1792.14
692.252	1710.22
692.442	1843.34
692.631	1808.53
692.82	1648.79
693.01	1753.23
693.199	1814.67
693.388	1650.83
693.578	1710.22
693.767	1822.86
693.956	1736.85
694.146	1734.8
694.335	1781.9
694.524	1691.79
694.713	1745.04
694.902	1685.65
695.092	1822.86
695.281	1646.74
695.47	1753.23
695.659	1771.66
695.848	1710.22
696.037	1710.22
696.226	1669.27
696.415	1695.89
696.604	1638.55
696.793	1757.33
696.982	1640.59
697.171	1728.66
697.36	1697.94
697.549	1699.98
697.738	1763.47
697.927	1695.89
698.116	1742.99
698.305	1704.08
698.494	1708.18
698.683	1654.93
698.872	1663.12
699.061	1796.24
699.25	1749.14
699.438	1697.94
699.627	1781.9
699.816	1763.47
700.005	1734.8
700.193	1683.6
700.382	1650.83
700.571	1708.18
700.76	1753.23
700.948	1806.48
701.137	1663.12
701.326	1675.41
701.514	1712.27
701.703	1753.23
701.892	1691.79
702.08	1790.1
702.269	1722.51
702.457	1661.07
702.646	1773.71
702.834	1841.29
703.023	1751.18
703.212	1806.48
703.4	1802.38
703.589	1654.93
703.777	1745.04
703.965	1777.81
704.154	1720.46
704.342	1675.41
704.531	1710.22
704.719	1742.99
704.907	1720.46
705.096	1775.76
705.284	1702.03
705.472	1771.66
705.661	1712.27
705.849	1792.14
706.037	1849.49
706.226	1818.77
706.414	1769.62
706.602	1786
706.79	1783.95
706.979	1816.72
707.167	1767.57
707.355	1745.04
707.543	1753.23
707.731	1763.47
707.919	1773.71
708.107	1790.1
708.296	1706.13
708.484	1763.47
708.672	1796.24
708.86	1714.32
709.048	1771.66
709.236	1759.38
709.424	1769.62
709.612	1835.15
709.8	1734.8
709.988	1763.47
710.176	1853.58
710.364	1872.01
710.551	1790.1
710.739	1806.48
710.927	1831.05
711.115	1716.37
711.303	1769.62
711.491	1720.46
711.679	1792.14
711.866	1710.22
712.054	1761.42
712.242	1796.24
712.43	1814.67
712.617	1859.73
712.805	1822.86
712.993	1773.71
713.181	1742.99
713.368	1810.58
713.556	1718.42
713.744	1740.94
713.931	1843.34
714.119	1742.99
714.306	1841.29
714.494	1937.55
714.682	1751.18
714.869	1759.38
715.057	1771.66
715.244	1818.77
715.432	1847.44
715.619	1798.29
715.807	1699.98
715.994	1722.51
716.182	1747.09
716.369	1796.24
716.556	1812.62
716.744	1835.15
716.931	1759.38
717.119	1724.56
717.306	1753.23
717.493	1747.09
717.681	1724.56
717.868	1831.05
718.055	1759.38
718.242	1829.01
718.43	1851.53
718.617	1747.09
718.804	1773.71
718.991	1865.87
719.179	1779.86
719.366	1716.37
719.553	1751.18
719.74	1763.47
719.927	1806.48
720.114	1820.81
720.301	1734.8
720.488	1818.77
720.676	1802.38
720.863	1781.9
721.05	1886.35
721.237	1779.86
721.424	1859.73
721.611	1781.9
721.798	1738.9
721.985	1781.9
722.172	1845.39
722.358	1775.76
722.545	1859.73
722.732	1738.9
722.919	1812.62
723.106	1742.99
723.293	1702.03
723.48	1761.42
723.667	1757.33
723.853	1804.43
724.04	1802.38
724.227	1691.79
724.414	1773.71
724.6	1816.72
724.787	1810.58
724.974	1882.25
725.161	1857.68
725.347	1865.87
725.534	1710.22
725.72	1771.66
725.907	1896.59
726.094	1843.34
726.28	1824.91
726.467	1865.87
726.653	1818.77
726.84	1833.1
727.027	1841.29
727.213	1749.14
727.4	1702.03
727.586	1843.34
727.773	1853.58
727.959	1638.55
728.145	1761.42
728.332	1763.47
728.518	1769.62
728.705	1874.06
728.891	1751.18
729.077	1753.23
729.264	1863.82
729.45	1788.05
729.636	1718.42
729.823	1771.66
730.009	1878.16
730.195	1751.18
730.382	1890.45
730.568	1767.57
730.754	1747.09
730.94	1845.39
731.126	1734.8
731.313	1806.48
731.499	1781.9
731.685	1814.67
731.871	1699.98
732.057	1777.81
732.243	1761.42
732.429	1804.43
732.615	1943.69
732.801	1814.67
732.987	1706.13
733.173	1751.18
733.359	1767.57
733.545	1777.81
733.731	1745.04
733.917	1732.75
734.103	1798.29
734.289	1745.04
734.475	1663.12
734.661	1814.67
734.847	1724.56
735.033	1753.23
735.219	1843.34
735.404	1833.1
735.59	1824.91
735.776	1656.98
735.962	1730.7
736.148	1749.14
736.333	1722.51
736.519	1745.04
736.705	1742.99
736.89	1677.46
737.076	1755.28
737.262	1616.02
737.447	1685.65
737.633	1769.62
737.819	1753.23
738.004	1648.79
738.19	1683.6
738.375	1761.42
738.561	1724.56
738.747	1738.9
738.932	1677.46
739.118	1724.56
739.303	1648.79
739.489	1736.85
739.674	1755.28
739.859	1605.78
740.045	1622.16
740.23	1628.31
740.416	1689.74
740.601	1622.16
740.786	1620.11
740.972	1616.02
741.157	1654.93
741.342	1605.78
741.528	1601.68
741.713	1638.55
741.898	1534.1
742.084	1695.89
742.269	1601.68
742.454	1663.12
742.639	1640.59
742.824	1542.29
743.01	1599.63
743.195	1642.64
743.38	1642.64
743.565	1573.01
743.75	1683.6
743.935	1562.77
744.12	1517.72
744.305	1560.72
744.49	1663.12
744.675	1585.3
744.86	1491.09
745.045	1601.68
745.23	1570.96
745.415	1532.05
745.6	1511.57
745.785	1482.9
745.97	1448.08
746.155	1499.28
746.34	1523.86
746.525	1468.56
746.71	1476.76
746.895	1460.37
747.079	1419.41
747.264	1573.01
747.449	1431.7
747.634	1478.8
747.819	1437.84
748.003	1450.13
748.188	1327.25
748.373	1446.04
748.557	1413.27
748.742	1446.04
748.927	1333.4
749.111	1425.56
749.296	1292.44
749.481	1347.73
749.665	1337.49
749.85	1304.73
750.034	1286.3
750.219	1216.66
750.404	1226.9
750.588	1290.39
750.773	1214.62
750.957	1271.96
751.141	1314.97
751.326	1306.77
751.51	1237.14
751.695	1173.66
751.879	1208.47
752.064	1206.42
752.248	1274.01
752.432	1239.19
752.617	1151.13
752.801	1263.77
752.985	1261.72
753.17	1255.58
753.354	1220.76
753.538	1194.14
753.722	1097.88
753.907	1226.9
754.091	1138.84
754.275	1122.46
754.459	1089.69
754.643	1089.69
754.828	1026.2
755.012	1042.59
755.196	1169.56
755.38	1046.68
755.564	1093.79
755.748	1087.64
755.932	1069.21
756.116	1071.26
756.3	1110.17
756.484	1048.73
756.668	1061.02
756.852	985.24
757.036	977.05
757.22	1044.63
757.404	985.24
757.588	880.8
757.772	1114.27
757.956	1022.11
758.14	858.27
758.323	987.29
758.507	1003.68
758.691	968.86
758.875	925.85
759.059	1003.68
759.242	929.95
759.426	927.9
759.61	899.23
759.794	923.8
759.977	825.5
760.161	944.28
760.345	989.34
760.528	901.28
760.712	884.89
760.895	972.96
761.079	868.51
761.263	837.79
761.446	837.79
761.63	880.8
761.813	845.98
761.997	858.27
762.18	798.88
762.364	903.32
762.547	835.74
762.731	858.27
762.914	891.04
763.098	841.89
763.281	739.49
763.464	909.47
763.648	811.17
763.831	833.69
764.015	802.97
764.198	786.59
764.381	776.35
764.564	831.65
764.748	860.32
764.931	800.93
765.114	798.88
765.297	776.35
765.481	825.5
765.664	829.6
765.847	762.02
766.03	827.55
766.213	835.74
766.397	753.82
766.58	727.2
766.763	792.73
766.946	766.11
767.129	764.06
767.312	737.44
767.495	712.86
767.678	708.77
767.861	737.44
768.044	841.89
768.227	774.3
768.41	800.93
768.593	671.9
768.776	753.82
768.959	692.38
769.142	704.67
769.324	643.23
769.507	737.44
769.69	688.29
769.873	659.62
770.056	827.55
770.239	696.48
770.421	684.19
770.604	755.87
770.787	719.01
770.97	710.82
771.152	712.86
771.335	737.44
771.518	692.38
771.7	581.79
771.883	700.58
772.066	630.95
772.248	643.23
772.431	624.8
772.613	645.28
772.796	653.47
772.978	628.9
773.161	651.42
773.343	583.84
773.526	688.29
773.708	604.32
773.891	538.79
774.073	635.04
774.256	647.33
774.438	651.42
774.621	565.41
774.803	583.84
774.985	608.42
775.168	579.75
775.35	628.9
775.532	610.47
775.715	503.97
775.897	528.55
776.079	563.36
776.261	602.27
776.444	499.88
776.626	538.79
776.808	463.01
776.99	589.99
777.173	551.07
777.355	532.64
777.537	503.97
777.719	561.31
777.901	489.64
778.083	524.45
778.265	514.21
778.447	577.7
778.629	413.86
778.811	536.74
778.993	501.92
779.175	526.5
779.357	452.77
779.539	424.1
779.721	444.58
779.903	542.88
780.085	440.48
780.267	456.87
780.449	434.34
780.631	544.93
780.812	426.15
780.994	506.02
781.176	440.48
781.358	405.67
781.54	463.01
781.721	487.59
781.903	422.05
782.085	450.72
782.267	444.58
782.448	444.58
782.63	362.66
782.812	403.62
782.993	381.09
783.175	413.86
783.357	379.04
783.538	387.24
783.72	370.85
783.901	399.52
784.083	368.81
784.264	387.24
784.446	282.79
784.627	379.04
784.809	354.47
784.99	381.09
785.172	385.19
785.353	317.61
785.535	350.37
785.716	305.32
785.897	325.8
786.079	352.42
786.26	422.05
786.441	329.89
786.623	319.65
786.804	280.74
786.985	389.28
787.167	327.85
787.348	352.42
787.529	286.89
787.71	293.03
787.891	325.8
788.073	372.9
788.254	282.79
788.435	362.66
788.616	286.89
788.797	319.65
788.978	284.84
789.159	362.66
789.34	327.85
789.522	272.55
789.703	262.31
789.884	344.23
790.065	313.51
790.246	319.65
790.427	327.85
790.607	297.13
790.788	317.61
790.969	254.12
791.15	276.65
791.331	266.41
791.512	307.37
791.693	235.69
791.874	217.26
792.054	239.78
792.235	280.74
792.416	225.45
792.597	295.08
792.778	280.74
792.958	276.65
793.139	315.56
793.32	250.02
793.5	252.07
793.681	258.21
793.862	217.26
794.042	301.22
794.223	252.07
794.404	180.39
794.584	188.58
794.765	272.55
794.945	176.3
795.126	297.13
795.306	227.5
795.487	225.45
795.667	250.02
795.848	313.51
796.028	225.45
796.209	227.5
796.389	290.98
796.57	209.06
796.75	231.59
796.93	192.68
797.111	202.92
797.291	272.55
797.471	252.07
797.652	274.6
797.832	98.47
798.012	252.07
798.192	194.73
798.373	153.77
798.553	127.14
798.733	223.4
798.913	227.5
799.093	213.16
799.274	207.02
799.454	143.53
799.634	243.88
799.814	200.87
799.994	192.68
800.174	213.16
800.354	82.09
800.534	219.3
800.714	235.69
800.894	213.16
801.074	108.71
801.254	182.44
801.434	250.02
801.614	202.92
801.794	157.86
801.974	503.97
802.154	182.44
802.334	168.1
802.514	139.43
802.693	182.44
802.873	207.02
803.053	213.16
803.233	229.54
803.413	204.97
803.592	235.69
803.772	215.21
803.952	184.49
804.131	131.24
804.311	192.68
804.491	198.82
804.67	104.62
804.85	147.62
805.03	151.72
805.209	137.38
805.389	198.82
805.568	114.86
805.748	151.72
805.928	161.96
806.107	139.43
806.287	192.68
806.466	143.53
806.646	127.14
806.825	194.73
807.004	112.81
807.184	96.43
807.363	200.87
807.543	159.91
807.722	200.87
807.901	198.82
808.081	204.97
808.26	55.47
808.439	118.95
808.619	110.76
808.798	143.53
808.977	166.06
809.156	170.15
809.336	166.06
809.515	149.67
809.694	151.72
809.873	100.52
810.052	164.01
810.231	166.06
810.411	168.1
810.59	182.44
810.769	176.3
810.948	155.82
811.127	39.08
811.306	145.58
811.485	176.3
811.664	182.44
811.843	149.67
812.022	176.3
812.201	200.87
812.38	143.53
812.559	51.37
812.737	172.2
812.916	147.62
813.095	102.57
813.274	131.24
813.453	164.01
813.632	155.82
813.811	180.39
813.989	90.28
814.168	108.71
814.347	80.04
814.526	145.58
814.704	41.13
814.883	98.47
815.062	155.82
815.24	108.71
815.419	161.96
815.598	153.77
815.776	39.08
815.955	121
816.133	98.47
816.312	137.38
816.49	71.85
816.669	129.19
816.847	96.43
817.026	161.96
817.204	32.94
817.383	159.91
817.561	174.25
817.74	123.05
817.918	84.14
818.097	121
818.275	98.47
818.453	123.05
818.632	49.32
818.81	94.38
818.988	6.31
819.167	153.77
819.345	75.95
819.523	106.67
819.701	114.86
819.879	82.09
820.058	90.28
820.236	137.38
820.414	135.34
820.592	110.76
820.77	121
820.948	10.41
821.127	100.52
821.305	51.37
821.483	34.99
821.661	106.67
821.839	4.27
822.017	61.61
822.195	20.65
822.373	86.19
822.551	96.43
822.729	219.3
822.907	118.95
823.085	96.43
823.262	59.56
823.44	127.14
823.618	16.55
823.796	63.66
823.974	61.61
824.152	30.89
824.329	49.32
824.507	116.9
824.685	41.13
824.863	129.19
825.04	10.41
825.218	67.75
825.396	100.52
825.574	41.13
825.751	37.03
825.929	90.28
826.107	37.03
826.284	100.52
826.462	75.95
826.639	47.27
826.817	32.94
826.994	61.61
827.172	84.14
827.349	147.62
827.527	57.51
827.704	77.99
827.882	57.51
828.059	112.81
828.237	55.47
828.414	80.04
828.591	53.42
828.769	80.04
828.946	45.23
829.124	47.27
829.301	57.51
829.478	10.41
829.655	100.52
829.833	45.23
830.01	41.13
830.187	73.9
830.364	102.57
830.542	110.76
830.719	90.28
830.896	39.08
831.073	59.56
831.25	61.61
831.427	45.23
831.604	108.71
831.782	-12.12
831.959	63.66
832.136	34.99
832.313	102.57
832.49	45.23
832.667	41.13
832.844	90.28
833.021	77.99
833.198	65.71
833.374	84.14
833.551	57.51
833.728	8.36
833.905	-10.07
834.082	71.85
834.259	112.81
834.436	141.48
834.612	8.36
834.789	96.43
834.966	65.71
835.143	26.79
835.319	14.51
835.496	16.55
835.673	32.94
835.85	39.08
836.026	90.28
836.203	14.51
836.38	8.36
836.556	65.71
836.733	73.9
836.909	114.86
837.086	57.51
837.262	-16.21
837.439	-8.02
837.616	45.23
837.792	30.89
837.968	18.6
838.145	-24.4
838.321	108.71
838.498	39.08
838.674	51.37
838.851	88.23
839.027	18.6
839.203	-44.88
839.38	2.22
839.556	-1.88
839.732	143.53
839.909	49.32
840.085	8.36
840.261	-26.45
840.437	30.89
840.614	24.75
840.79	32.94
840.966	32.94
841.142	34.99
841.318	-12.12
841.494	-30.55
841.671	63.66
841.847	-18.26
842.023	10.41
842.199	82.09
842.375	26.79
842.551	34.99
842.727	59.56
842.903	102.57
843.079	-5.97
843.255	77.99
843.431	63.66
843.607	32.94
843.783	71.85
843.959	2.22
844.134	10.41
844.31	28.84
844.486	61.61
844.662	49.32
844.838	-67.41
845.013	59.56
845.189	94.38
845.365	10.41
845.541	-73.56
845.716	41.13
845.892	32.94
846.068	110.76
846.244	84.14
846.419	80.04
846.595	55.47
846.77	-22.36
846.946	28.84
847.122	16.55
847.297	73.9
847.473	4.27
847.648	12.46
847.824	22.7
847.999	-38.74
848.175	90.28
848.35	75.95
848.526	90.28
848.701	8.36
848.876	112.81
849.052	43.18
849.227	-16.21
849.403	18.6
849.578	37.03
849.753	37.03
849.929	65.71
850.104	8.36
850.279	0.17
850.454	-3.93
850.63	24.75
850.805	55.47
850.98	49.32
851.155	80.04
851.33	-30.55
851.505	2.22
851.681	8.36
851.856	2.22
852.031	143.53
852.206	-30.55
852.381	61.61
852.556	102.57
852.731	20.65
852.906	47.27
853.081	57.51
853.256	55.47
853.431	67.75
853.606	32.94
853.781	47.27
853.956	16.55
854.131	16.55
854.305	80.04
854.48	39.08
854.655	28.84
854.83	-3.93
855.005	14.51
855.18	20.65
855.354	12.46
855.529	55.47
855.704	-30.55
855.879	18.6
856.053	-8.02
856.228	26.79
856.403	-14.17
856.577	-24.4
856.752	16.55
856.926	100.52
857.101	32.94
857.276	2.22
857.45	24.75
857.625	45.23
857.799	51.37
857.974	6.31
858.148	73.9
858.323	30.89
858.497	-16.21
858.672	37.03
858.846	-14.17
859.02	37.03
859.195	-61.27
859.369	-22.36
859.543	-12.12
859.718	30.89
859.892	30.89
860.066	8.36
860.241	-28.5
860.415	26.79
860.589	-57.17
860.763	24.75
860.938	16.55
861.112	-10.07
861.286	63.66
861.46	45.23
861.634	28.84
861.808	49.32
861.982	-12.12
862.157	77.99
862.331	26.79
862.505	0.17
862.679	-1.88
862.853	14.51
863.027	-34.64
863.201	34.99
863.375	53.42
863.549	-10.07
863.722	-3.93
863.896	90.28
864.07	53.42
864.244	8.36
864.418	37.03
864.592	4.27
864.766	-32.6
864.939	-26.45
865.113	39.08
865.287	-40.79
865.461	-38.74
865.634	-32.6
865.808	-3.93
865.982	39.08
866.156	-12.12
866.329	47.27
866.503	22.7
866.676	41.13
866.85	8.36
867.024	94.38
867.197	14.51
867.371	75.95
867.544	45.23
867.718	45.23
867.891	43.18
868.065	8.36
868.238	8.36
868.412	41.13
868.585	86.19
868.759	84.14
868.932	37.03
869.105	-16.21
869.279	-1.88
869.452	-61.27
869.625	-77.65
869.799	8.36
869.972	-1.88
870.145	-3.93
870.319	14.51
870.492	0.17
870.665	12.46
870.838	28.84
871.011	-44.88
871.185	14.51
871.358	28.84
871.531	47.27
871.704	39.08
871.877	-42.84
872.05	-28.5
872.223	0.17
872.396	41.13
872.569	-40.79
872.742	-5.97
872.915	-12.12
873.088	28.84
873.261	18.6
873.434	26.79
873.607	88.23
873.78	10.41
873.953	0.17
874.126	-63.32
874.299	-44.88
874.471	-22.36
874.644	-30.55
874.817	45.23
874.99	30.89
875.163	-67.41
875.335	86.19
875.508	-51.03
875.681	37.03
875.853	0.17
876.026	-40.79
876.199	8.36
876.371	-34.64
876.544	-48.98
876.717	18.6
876.889	-73.56
877.062	-10.07
877.234	-51.03
877.407	53.42
877.579	-12.12
877.752	43.18
877.924	-20.31
878.097	8.36
878.269	-42.84
878.442	28.84
878.614	-5.97
878.786	-8.02
878.959	-75.6
879.131	14.51
879.303	-51.03
879.476	14.51
879.648	32.94
879.82	0.17
879.993	-16.21
880.165	20.65
880.337	12.46
880.509	28.84
880.681	30.89
880.854	-20.31
881.026	16.55
881.198	82.09
881.37	-8.02
881.542	30.89
881.714	-16.21
881.886	24.75
882.058	-48.98
882.23	-55.12
882.402	-20.31
882.574	14.51
882.746	-42.84
882.918	106.67
883.09	-24.4
883.262	28.84
883.434	-12.12
883.606	-20.31
883.778	-85.84
883.95	57.51
884.122	-59.22
884.293	53.42
884.465	-12.12
884.637	39.08
884.809	0.17
884.98	18.6
885.152	22.7
885.324	6.31
885.496	4.27
885.667	10.41
885.839	57.51
886.011	32.94
886.182	-18.26
886.354	-1.88
886.525	-12.12
886.697	-16.21
886.869	26.79
887.04	-20.31
887.212	-22.36
887.383	41.13
887.555	-28.5
887.726	-1.88
887.897	22.7
888.069	-30.55
888.24	2.22
888.412	-44.88
888.583	2.22
888.754	-8.02
888.926	6.31
889.097	-8.02
889.268	-28.5
889.44	2.22
889.611	4.27
889.782	41.13
889.953	37.03
890.125	-5.97
890.296	-24.4
890.467	-36.69
890.638	-3.93
890.809	37.03
890.98	-26.45
891.151	73.9
891.323	0.17
891.494	-12.12
891.665	16.55
891.836	37.03
892.007	-1.88
892.178	16.55
892.349	2.22
892.52	24.75
892.691	24.75
892.862	43.18
893.032	-40.79
893.203	32.94
893.374	57.51
893.545	-10.07
893.716	-46.93
893.887	22.7
894.057	0.17
894.228	10.41
894.399	14.51
894.57	14.51
894.74	30.89
894.911	10.41
895.082	-42.84
895.253	14.51
895.423	-24.4
895.594	55.47
895.764	-65.36
895.935	8.36
896.106	-14.17
896.276	32.94
896.447	-8.02
896.617	12.46
896.788	-44.88
896.958	12.46
897.129	30.89
897.299	-65.36
897.47	30.89
897.64	-34.64
897.81	71.85
897.981	-14.17
898.151	-20.31
898.322	28.84
898.492	20.65
898.662	18.6
898.832	-1.88
899.003	6.31
899.173	16.55
899.343	26.79
899.513	-44.88
