Data from USB4F104151__185__11-09-40-762.txt Node

Date: Wed Mar 12 11:09:40 EDT 2025
User: louis
Spectrometer: USB4F10415
Trigger mode: 4
Integration Time (sec): 2.000000E-2
Scans to average: 1
Electric dark correction enabled: true
Nonlinearity correction enabled: false
Boxcar width: 0
XAxis mode: Wavelengths
Number of Pixels in Spectrum: 3648
>>>>>Begin Spectral Data<<<<<
178.204	-78.16
178.424	-78.16
178.644	-78.16
178.864	-112.98
179.084	-88.4
179.304	20.14
179.524	-2.39
179.744	-10.58
179.964	9.9
180.184	-18.77
180.404	50.86
180.624	69.29
180.844	32.43
181.064	-35.16
181.283	-55.64
181.503	-61.78
181.723	1.71
181.943	-22.87
182.163	11.95
182.383	-16.73
182.602	75.43
182.822	-6.49
183.042	5.8
183.262	57
183.482	40.62
183.701	9.9
183.921	44.71
184.141	22.19
184.361	52.91
184.58	-35.16
184.8	-6.49
185.02	-4.44
185.239	85.67
185.459	28.33
185.679	108.2
185.898	26.28
186.118	118.44
186.338	79.53
186.557	22.19
186.777	42.67
186.997	38.57
187.216	11.95
187.436	67.24
187.655	-31.06
187.875	16.04
188.095	71.34
188.314	3.75
188.534	42.67
188.753	112.3
188.973	44.71
189.192	16.04
189.412	-10.58
189.631	63.15
189.851	75.43
190.07	24.23
190.29	9.9
190.509	-51.54
190.729	22.19
190.948	54.95
191.168	87.72
191.387	73.39
191.607	-14.68
191.826	114.34
192.045	67.24
192.265	-18.77
192.484	11.95
192.704	24.23
192.923	42.67
193.142	59.05
193.362	26.28
193.581	67.24
193.8	73.39
194.02	52.91
194.239	59.05
194.458	61.1
194.678	7.85
194.897	67.24
195.116	34.47
195.335	57
195.555	26.28
195.774	46.76
195.993	46.76
196.212	54.95
196.432	-12.63
196.651	18.09
196.87	61.1
197.089	34.47
197.308	22.19
197.528	69.29
197.747	34.47
197.966	-39.25
198.185	91.82
198.404	48.81
198.623	18.09
198.842	93.87
199.062	18.09
199.281	-18.77
199.5	1.71
199.719	59.05
199.938	9.9
200.157	52.91
200.376	-22.87
200.595	36.52
200.814	-2.39
201.033	11.95
201.252	18.09
201.471	93.87
201.69	30.38
201.909	77.48
202.128	61.1
202.347	63.15
202.566	-20.82
202.785	3.75
203.004	22.19
203.223	71.34
203.442	32.43
203.661	-18.77
203.879	-10.58
204.098	26.28
204.317	71.34
204.536	69.29
204.755	26.28
204.974	89.77
205.193	34.47
205.411	89.77
205.63	-24.92
205.849	57
206.068	5.8
206.287	-43.35
206.505	54.95
206.724	-43.35
206.943	3.75
207.162	38.57
207.381	9.9
207.599	36.52
207.818	-4.44
208.037	73.39
208.255	77.48
208.474	20.14
208.693	-57.68
208.911	87.72
209.13	-16.73
209.349	42.67
209.567	34.47
209.786	-12.63
210.005	42.67
210.223	54.95
210.442	18.09
210.661	122.54
210.879	5.8
211.098	63.15
211.316	11.95
211.535	16.04
211.753	13.99
211.972	13.99
212.191	9.9
212.409	1.71
212.628	77.48
212.846	63.15
213.065	1.71
213.283	42.67
213.502	-24.92
213.72	3.75
213.938	38.57
214.157	18.09
214.375	79.53
214.594	30.38
214.812	61.1
215.031	32.43
215.249	24.23
215.467	3.75
215.686	22.19
215.904	85.67
216.122	18.09
216.341	30.38
216.559	75.43
216.778	-4.44
216.996	34.47
217.214	83.63
217.432	-43.35
217.651	28.33
217.869	-8.53
218.087	-0.34
218.306	81.58
218.524	67.24
218.742	1.71
218.96	9.9
219.179	16.04
219.397	11.95
219.615	71.34
219.833	69.29
220.051	-82.26
220.27	44.71
220.488	13.99
220.706	42.67
220.924	1.71
221.142	9.9
221.36	18.09
221.578	48.81
221.796	7.85
222.015	3.75
222.233	-8.53
222.451	100.01
222.669	-35.16
222.887	140.97
223.105	-6.49
223.323	83.63
223.541	-35.16
223.759	75.43
223.977	-47.44
224.195	46.76
224.413	22.19
224.631	-51.54
224.849	-31.06
225.067	16.04
225.285	-14.68
225.503	36.52
225.721	-37.2
225.939	26.28
226.157	-41.3
226.375	134.82
226.592	-78.16
226.81	38.57
227.028	7.85
227.246	85.67
227.464	-16.73
227.682	149.16
227.9	38.57
228.117	16.04
228.335	85.67
228.553	67.24
228.771	54.95
228.989	7.85
229.206	-2.39
229.424	100.01
229.642	9.9
229.86	48.81
230.077	16.04
230.295	67.24
230.513	34.47
230.731	26.28
230.948	18.09
231.166	100.01
231.384	30.38
231.601	26.28
231.819	48.81
232.037	18.09
232.254	-8.53
232.472	-29.01
232.689	-37.2
232.907	-24.92
233.125	38.57
233.342	16.04
233.56	-41.3
233.777	83.63
233.995	30.38
234.213	-0.34
234.43	-16.73
234.648	26.28
234.865	30.38
235.083	34.47
235.3	81.58
235.518	5.8
235.735	-0.34
235.953	100.01
236.17	-0.34
236.388	26.28
236.605	85.67
236.822	95.91
237.04	32.43
237.257	-12.63
237.475	3.75
237.692	-0.34
237.909	32.43
238.127	-16.73
238.344	38.57
238.562	48.81
238.779	-37.2
238.996	38.57
239.214	46.76
239.431	26.28
239.648	-31.06
239.865	5.8
240.083	26.28
240.3	22.19
240.517	57
240.735	-10.58
240.952	59.05
241.169	7.85
241.386	36.52
241.603	28.33
241.821	104.11
242.038	67.24
242.255	22.19
242.472	34.47
242.689	36.52
242.907	-10.58
243.124	22.19
243.341	38.57
243.558	32.43
243.775	36.52
243.992	44.71
244.209	-26.96
244.426	18.09
244.643	13.99
244.86	40.62
245.078	42.67
245.295	50.86
245.512	13.99
245.729	18.09
245.946	5.8
246.163	-22.87
246.38	16.04
246.597	-16.73
246.814	52.91
247.031	104.11
247.248	20.14
247.464	38.57
247.681	36.52
247.898	50.86
248.115	9.9
248.332	77.48
248.549	-31.06
248.766	24.23
248.983	69.29
249.2	13.99
249.417	34.47
249.633	30.38
249.85	11.95
250.067	11.95
250.284	26.28
250.501	26.28
250.717	69.29
250.934	-18.77
251.151	36.52
251.368	38.57
251.585	16.04
251.801	34.47
252.018	36.52
252.235	-8.53
252.451	54.95
252.668	34.47
252.885	44.71
253.102	65.19
253.318	-0.34
253.535	24.23
253.752	-20.82
253.968	13.99
254.185	-22.87
254.401	5.8
254.618	61.1
254.835	24.23
255.051	75.43
255.268	83.63
255.484	-26.96
255.701	-2.39
255.917	28.33
256.134	24.23
256.351	50.86
256.567	5.8
256.784	-2.39
257	26.28
257.217	44.71
257.433	89.77
257.65	52.91
257.866	16.04
258.082	3.75
258.299	67.24
258.515	1.71
258.732	-16.73
258.948	13.99
259.165	93.87
259.381	-24.92
259.597	65.19
259.814	-39.25
260.03	59.05
260.246	3.75
260.463	81.58
260.679	-16.73
260.895	18.09
261.112	44.71
261.328	50.86
261.544	20.14
261.761	87.72
261.977	63.15
262.193	-45.4
262.409	-20.82
262.626	46.76
262.842	-26.96
263.058	-24.92
263.274	-39.25
263.49	26.28
263.707	34.47
263.923	18.09
264.139	3.75
264.355	102.06
264.571	89.77
264.787	-8.53
265.004	59.05
265.22	138.92
265.436	93.87
265.652	-6.49
265.868	9.9
266.084	9.9
266.3	-6.49
266.516	32.43
266.732	-10.58
266.948	75.43
267.164	73.39
267.38	24.23
267.596	22.19
267.812	42.67
268.028	22.19
268.244	59.05
268.46	71.34
268.676	3.75
268.892	-12.63
269.108	-31.06
269.324	85.67
269.54	-31.06
269.756	67.24
269.972	24.23
270.188	54.95
270.403	-18.77
270.619	102.06
270.835	40.62
271.051	-31.06
271.267	1.71
271.483	48.81
271.698	3.75
271.914	54.95
272.13	34.47
272.346	11.95
272.562	61.1
272.777	13.99
272.993	-18.77
273.209	83.63
273.425	73.39
273.64	32.43
273.856	54.95
274.072	30.38
274.287	-10.58
274.503	-65.88
274.719	22.19
274.934	-16.73
275.15	-14.68
275.366	42.67
275.581	-74.07
275.797	46.76
276.012	34.47
276.228	-12.63
276.444	7.85
276.659	124.58
276.875	22.19
277.09	11.95
277.306	36.52
277.521	79.53
277.737	-4.44
277.952	63.15
278.168	112.3
278.383	-6.49
278.599	28.33
278.814	61.1
279.03	91.82
279.245	5.8
279.461	75.43
279.676	46.76
279.892	48.81
280.107	38.57
280.322	59.05
280.538	24.23
280.753	63.15
280.969	106.15
281.184	91.82
281.399	50.86
281.615	16.04
281.83	30.38
282.045	-20.82
282.26	63.15
282.476	44.71
282.691	18.09
282.906	16.04
283.122	48.81
283.337	-22.87
283.552	34.47
283.767	-12.63
283.983	54.95
284.198	-39.25
284.413	24.23
284.628	32.43
284.843	83.63
285.058	36.52
285.274	24.23
285.489	5.8
285.704	93.87
285.919	11.95
286.134	59.05
286.349	61.1
286.564	44.71
286.779	71.34
286.995	3.75
287.21	-16.73
287.425	61.1
287.64	52.91
287.855	46.76
288.07	-12.63
288.285	91.82
288.5	26.28
288.715	16.04
288.93	20.14
289.145	16.04
289.36	30.38
289.575	79.53
289.79	52.91
290.004	-16.73
290.219	50.86
290.434	52.91
290.649	11.95
290.864	34.47
291.079	20.14
291.294	-22.87
291.509	63.15
291.724	30.38
291.938	9.9
292.153	42.67
292.368	50.86
292.583	-10.58
292.798	16.04
293.012	61.1
293.227	75.43
293.442	-6.49
293.657	40.62
293.871	-14.68
294.086	73.39
294.301	59.05
294.516	30.38
294.73	-10.58
294.945	-16.73
295.16	59.05
295.374	79.53
295.589	-26.96
295.804	-35.16
296.018	71.34
296.233	85.67
296.447	44.71
296.662	61.1
296.877	89.77
297.091	-4.44
297.306	-33.11
297.52	3.75
297.735	34.47
297.949	1.71
298.164	16.04
298.378	-8.53
298.593	-51.54
298.807	-18.77
299.022	83.63
299.236	75.43
299.451	54.95
299.665	100.01
299.88	-16.73
300.094	67.24
300.309	57
300.523	9.9
300.737	5.8
300.952	-6.49
301.166	5.8
301.381	52.91
301.595	91.82
301.809	16.04
302.024	-0.34
302.238	-2.39
302.452	13.99
302.667	7.85
302.881	57
303.095	16.04
303.309	50.86
303.524	-8.53
303.738	89.77
303.952	36.52
304.166	93.87
304.381	9.9
304.595	3.75
304.809	-6.49
305.023	22.19
305.237	-29.01
305.452	85.67
305.666	-2.39
305.88	77.48
306.094	-10.58
306.308	28.33
306.522	30.38
306.736	13.99
306.95	26.28
307.164	-18.77
307.379	71.34
307.593	34.47
307.807	79.53
308.021	46.76
308.235	59.05
308.449	38.57
308.663	-0.34
308.877	28.33
309.091	-31.06
309.305	59.05
309.519	9.9
309.733	54.95
309.947	38.57
310.161	120.49
310.374	50.86
310.588	61.1
310.802	18.09
311.016	67.24
311.23	42.67
311.444	11.95
311.658	28.33
311.872	30.38
312.085	59.05
312.299	77.48
312.513	52.91
312.727	93.87
312.941	-29.01
313.154	18.09
313.368	-2.39
313.582	13.99
313.796	59.05
314.009	-8.53
314.223	48.81
314.437	59.05
314.651	34.47
314.864	42.67
315.078	46.76
315.292	61.1
315.505	54.95
315.719	16.04
315.933	11.95
316.146	38.57
316.36	9.9
316.573	22.19
316.787	48.81
317.001	102.06
317.214	-20.82
317.428	104.11
317.641	36.52
317.855	18.09
318.068	-14.68
318.282	73.39
318.495	108.2
318.709	44.71
318.922	50.86
319.136	32.43
319.349	89.77
319.563	-12.63
319.776	1.71
319.99	1.71
320.203	77.48
320.417	32.43
320.63	83.63
320.843	147.11
321.057	1.71
321.27	32.43
321.483	-41.3
321.697	42.67
321.91	42.67
322.124	24.23
322.337	34.47
322.55	16.04
322.763	20.14
322.977	3.75
323.19	61.1
323.403	112.3
323.617	-0.34
323.83	18.09
324.043	-8.53
324.256	108.2
324.469	9.9
324.683	67.24
324.896	-14.68
325.109	22.19
325.322	13.99
325.535	48.81
325.748	46.76
325.962	67.24
326.175	65.19
326.388	75.43
326.601	34.47
326.814	3.75
327.027	1.71
327.24	79.53
327.453	5.8
327.666	-45.4
327.879	16.04
328.092	57
328.305	20.14
328.518	52.91
328.731	-4.44
328.944	95.91
329.157	34.47
329.37	5.8
329.583	67.24
329.796	3.75
330.009	-37.2
330.222	91.82
330.435	54.95
330.648	-0.34
330.861	57
331.073	30.38
331.286	32.43
331.499	79.53
331.712	-37.2
331.925	-31.06
332.138	59.05
332.35	13.99
332.563	-8.53
332.776	-6.49
332.989	-29.01
333.202	48.81
333.414	30.38
333.627	9.9
333.84	-53.59
334.053	-6.49
334.265	54.95
334.478	97.96
334.691	11.95
334.903	32.43
335.116	40.62
335.329	1.71
335.541	-24.92
335.754	65.19
335.966	-14.68
336.179	-4.44
336.392	-16.73
336.604	34.47
336.817	54.95
337.029	-16.73
337.242	48.81
337.454	48.81
337.667	-16.73
337.88	30.38
338.092	-41.3
338.305	118.44
338.517	-65.88
338.729	-29.01
338.942	75.43
339.154	63.15
339.367	-96.6
339.579	-33.11
339.792	36.52
340.004	71.34
340.217	-59.73
340.429	61.1
340.641	9.9
340.854	7.85
341.066	42.67
341.278	16.04
341.491	97.96
341.703	30.38
341.915	30.38
342.128	-22.87
342.34	9.9
342.552	95.91
342.764	22.19
342.977	67.24
343.189	22.19
343.401	67.24
343.613	-72.02
343.826	20.14
344.038	48.81
344.25	100.01
344.462	34.47
344.674	54.95
344.886	34.47
345.099	-6.49
345.311	75.43
345.523	57
345.735	38.57
345.947	9.9
346.159	1.71
346.371	32.43
346.583	59.05
346.795	22.19
347.007	44.71
347.219	13.99
347.431	26.28
347.643	48.81
347.855	34.47
348.067	34.47
348.279	-47.44
348.491	32.43
348.703	50.86
348.915	50.86
349.127	26.28
349.339	77.48
349.551	85.67
349.763	54.95
349.975	5.8
350.187	102.06
350.399	-0.34
350.61	36.52
350.822	57
351.034	91.82
351.246	-20.82
351.458	124.58
351.669	3.75
351.881	54.95
352.093	38.57
352.305	38.57
352.517	-18.77
352.728	75.43
352.94	40.62
353.152	11.95
353.363	114.34
353.575	61.1
353.787	16.04
353.999	40.62
354.21	54.95
354.422	65.19
354.633	32.43
354.845	85.67
355.057	67.24
355.268	65.19
355.48	95.91
355.692	5.8
355.903	71.34
356.115	67.24
356.326	-16.73
356.538	46.76
356.749	18.09
356.961	54.95
357.172	24.23
357.384	52.91
357.595	34.47
357.807	44.71
358.018	-8.53
358.23	48.81
358.441	5.8
358.653	63.15
358.864	-10.58
359.075	40.62
359.287	38.57
359.498	95.91
359.709	-26.96
359.921	54.95
360.132	48.81
360.344	106.15
360.555	112.3
360.766	1.71
360.977	18.09
361.189	97.96
361.4	132.78
361.611	42.67
361.823	85.67
362.034	3.75
362.245	26.28
362.456	85.67
362.667	22.19
362.879	63.15
363.09	13.99
363.301	50.86
363.512	-12.63
363.723	59.05
363.935	-22.87
364.146	65.19
364.357	67.24
364.568	57
364.779	-31.06
364.99	85.67
365.201	1.71
365.412	-18.77
365.623	54.95
365.834	-43.35
366.045	42.67
366.256	36.52
366.467	-0.34
366.678	-10.58
366.889	59.05
367.1	5.8
367.311	40.62
367.522	-6.49
367.733	16.04
367.944	40.62
368.155	57
368.366	52.91
368.577	85.67
368.788	-35.16
368.999	-6.49
369.209	44.71
369.42	89.77
369.631	75.43
369.842	87.72
370.053	-0.34
370.264	81.58
370.474	22.19
370.685	110.25
370.896	65.19
371.107	-8.53
371.317	77.48
371.528	40.62
371.739	100.01
371.95	3.75
372.16	63.15
372.371	16.04
372.582	26.28
372.792	59.05
373.003	54.95
373.214	-26.96
373.424	-2.39
373.635	16.04
373.846	46.76
374.056	32.43
374.267	65.19
374.477	46.76
374.688	32.43
374.898	-10.58
375.109	9.9
375.319	61.1
375.53	18.09
375.74	52.91
375.951	69.29
376.161	-41.3
376.372	83.63
376.582	9.9
376.793	65.19
377.003	-24.92
377.214	24.23
377.424	3.75
377.635	40.62
377.845	52.91
378.055	93.87
378.266	-43.35
378.476	-8.53
378.686	16.04
378.897	34.47
379.107	-0.34
379.317	11.95
379.528	-26.96
379.738	16.04
379.948	-20.82
380.158	77.48
380.369	-22.87
380.579	28.33
380.789	5.8
380.999	13.99
381.21	7.85
381.42	126.63
381.63	89.77
381.84	57
382.05	63.15
382.261	77.48
382.471	59.05
382.681	102.06
382.891	40.62
383.101	38.57
383.311	54.95
383.521	38.57
383.731	85.67
383.941	85.67
384.151	79.53
384.361	75.43
384.571	20.14
384.781	20.14
384.991	71.34
385.201	67.24
385.411	26.28
385.621	61.1
385.831	13.99
386.041	-14.68
386.251	-10.58
386.461	73.39
386.671	46.76
386.881	40.62
387.091	89.77
387.301	118.44
387.511	59.05
387.72	87.72
387.93	91.82
388.14	-14.68
388.35	54.95
388.56	26.28
388.769	-20.82
388.979	71.34
389.189	13.99
389.399	30.38
389.609	32.43
389.818	54.95
390.028	13.99
390.238	69.29
390.447	79.53
390.657	-0.34
390.867	22.19
391.076	-18.77
391.286	91.82
391.496	46.76
391.705	32.43
391.915	71.34
392.125	108.2
392.334	63.15
392.544	48.81
392.753	-22.87
392.963	-12.63
393.172	75.43
393.382	73.39
393.591	65.19
393.801	20.14
394.01	118.44
394.22	-2.39
394.429	67.24
394.639	54.95
394.848	124.58
395.058	-18.77
395.267	48.81
395.477	157.35
395.686	93.87
395.895	85.67
396.105	50.86
396.314	9.9
396.524	71.34
396.733	59.05
396.942	126.63
397.152	97.96
397.361	130.73
397.57	46.76
397.78	100.01
397.989	75.43
398.198	38.57
398.407	104.11
398.617	57
398.826	87.72
399.035	71.34
399.244	106.15
399.453	114.34
399.663	102.06
399.872	67.24
400.081	48.81
400.29	79.53
400.499	95.91
400.708	157.35
400.917	91.82
401.127	61.1
401.336	95.91
401.545	95.91
401.754	106.15
401.963	104.11
402.172	48.81
402.381	67.24
402.59	71.34
402.799	114.34
403.008	65.19
403.217	24.23
403.426	57
403.635	52.91
403.844	102.06
404.053	46.76
404.262	145.06
404.471	153.26
404.68	46.76
404.888	79.53
405.097	38.57
405.306	89.77
405.515	214.7
405.724	122.54
405.933	54.95
406.142	145.06
406.35	120.49
406.559	120.49
406.768	100.01
406.977	112.3
407.185	44.71
407.394	188.07
407.603	36.52
407.812	110.25
408.02	128.68
408.229	138.92
408.438	145.06
408.646	97.96
408.855	159.4
409.064	179.88
409.272	132.78
409.481	112.3
409.69	136.87
409.898	204.46
410.107	214.7
410.315	239.27
410.524	200.36
410.733	173.74
410.941	198.31
411.15	267.94
411.358	288.42
411.567	233.13
411.775	198.31
411.984	173.74
412.192	251.56
412.401	229.03
412.609	331.43
412.818	349.86
413.026	263.85
413.234	284.33
413.443	267.94
413.651	319.14
413.86	296.61
414.068	413.35
414.276	380.58
414.485	302.76
414.693	319.14
414.901	390.82
415.11	374.44
415.318	366.25
415.526	442.02
415.734	558.75
415.943	437.92
416.151	517.79
416.359	511.65
416.567	499.36
416.776	540.32
416.984	607.91
417.192	624.29
417.4	523.94
417.608	558.75
417.817	579.23
418.025	618.15
418.233	718.5
418.441	659.1
418.649	655.01
418.857	767.65
419.065	769.69
419.273	689.82
419.481	779.93
419.689	771.74
419.897	861.85
420.105	857.76
420.313	837.28
420.521	994.97
420.729	874.14
420.937	882.33
421.145	980.64
421.353	1138.33
421.561	1093.27
421.769	1062.55
421.977	1244.82
422.185	1146.52
422.393	1232.54
422.601	1306.26
422.809	1336.98
423.017	1271.45
423.224	1410.71
423.432	1466
423.64	1484.44
423.848	1613.46
424.056	1623.7
424.263	1648.27
424.471	1705.62
424.679	1695.38
424.887	1742.48
425.094	1805.97
425.302	1805.97
425.51	1795.73
425.718	1978
425.925	2045.58
426.133	2094.73
426.341	2172.55
426.548	2277
426.756	2315.91
426.964	2320.01
427.171	2426.5
427.379	2446.98
427.586	2584.2
427.794	2655.87
428.001	2811.52
428.209	2702.98
428.417	2786.94
428.624	2993.79
428.832	3049.08
429.039	3014.27
429.247	2930.3
429.454	3247.74
429.662	3528.31
429.869	3245.69
430.076	3384.95
430.284	3315.32
430.491	3522.16
430.699	3804.78
430.906	3739.25
431.114	3708.53
431.321	3841.65
431.528	3917.42
431.736	4277.87
431.943	4392.55
432.15	4324.97
432.358	4265.58
432.565	4630.12
432.772	4494.95
432.979	4855.39
433.187	4865.63
433.394	4961.89
433.601	5152.35
433.808	5307.99
434.016	5164.64
434.223	5469.78
434.43	5652.05
434.637	5523.03
434.844	6039.12
435.052	6067.79
435.259	6092.37
435.466	6104.65
435.673	6024.78
435.88	6430.28
436.087	6772.29
436.294	6796.87
436.501	6745.67
436.708	6735.43
436.915	6895.17
437.122	7394.87
437.329	7255.61
437.537	7560.76
437.743	7679.54
437.95	7527.99
438.157	7988.78
438.364	8326.7
438.571	8130.09
438.778	8074.8
438.985	8906.27
439.192	8678.95
439.399	8920.61
439.606	8752.68
439.813	9115.17
440.02	9799.19
440.227	9553.43
440.433	9395.74
440.64	9854.48
440.847	9747.99
441.054	9909.78
441.261	10530.31
441.467	10477.07
441.674	10604.04
441.881	11240.96
442.088	11050.5
442.294	10966.53
442.501	11218.43
442.708	11570.68
442.914	12043.76
443.121	12355.05
443.328	12054
443.534	13135.33
443.741	12465.64
443.948	12539.37
444.154	13239.78
444.361	13258.21
444.568	13581.79
444.774	13225.44
444.981	13428.19
445.187	13975
445.394	14642.64
445.6	14403.02
445.807	15535.55
446.013	15191.49
446.22	15349.18
446.426	15871.42
446.633	15898.04
446.839	16405.94
447.046	15771.07
447.252	16737.71
447.459	16659.88
447.665	16655.79
447.871	17313.19
448.078	18005.4
448.284	17325.47
448.491	17720.73
448.697	18380.18
448.903	18978.19
449.11	18859.4
449.316	18214.29
449.522	18832.78
449.728	19254.66
449.935	19051.91
450.141	19223.94
450.347	19699.07
450.553	18955.66
450.76	19344.77
450.966	19668.35
451.172	19889.53
451.378	20010.36
451.584	19770.75
451.791	20231.54
451.997	19924.35
452.203	20356.47
452.409	20409.72
452.615	20565.36
452.821	19817.85
453.027	19355.01
453.233	20335.99
453.44	19369.35
453.646	19916.15
453.852	19946.87
454.058	20266.36
454.264	19369.35
454.47	19809.66
454.676	19504.51
454.882	19914.11
455.088	18298.26
455.294	18677.13
455.5	18879.88
455.705	18988.42
455.911	18187.67
456.117	17804.7
456.323	17710.49
456.529	16612.78
456.735	17481.12
456.941	17135.01
457.147	16676.27
457.352	16199.09
457.558	16012.73
457.764	16094.65
457.97	15773.11
458.176	15345.09
458.381	15310.27
458.587	14491.09
458.793	14482.89
458.999	13962.71
459.204	14874.06
459.41	14362.06
459.616	13628.89
459.821	13737.43
460.027	13430.24
460.233	13164
460.438	12482.03
460.644	12428.78
460.85	12226.03
461.055	11902.45
461.261	11808.25
461.466	11077.12
461.672	10796.55
461.878	11566.59
462.083	10618.38
462.289	10331.66
462.494	10616.33
462.7	9868.82
462.905	9670.17
463.111	10112.53
463.316	9991.7
463.522	9885.2
463.727	9727.51
463.932	9643.54
464.138	9756.18
464.343	9672.22
464.549	9397.79
464.754	10053.14
464.959	9840.15
465.165	9549.34
465.37	9158.17
465.575	9115.17
465.781	9285.15
465.986	9342.49
466.191	8853.03
466.397	8781.35
466.602	8320.56
466.807	8891.94
467.012	8801.83
467.218	8791.59
467.423	8476.2
467.628	8599.08
467.833	9039.39
468.038	8613.42
468.244	8486.44
468.449	8879.65
468.654	8525.35
468.859	8406.57
469.064	8351.28
469.269	7953.97
469.474	8113.71
469.679	8451.63
469.885	7933.49
470.09	8177.2
470.295	8035.89
470.5	7902.77
470.705	7794.23
470.91	7861.81
471.115	7607.86
471.32	7966.26
471.525	7878.19
471.73	7740.98
471.935	7491.13
472.139	7382.59
472.344	7421.5
472.549	7337.53
472.754	7280.19
472.959	7239.23
473.164	6979.14
473.369	7001.66
473.574	7405.11
473.778	6915.65
473.983	6981.18
474.188	6886.98
474.393	6745.67
474.598	6796.87
474.802	6610.5
475.007	6622.79
475.212	6520.39
475.417	6155.85
475.621	6411.85
475.826	6270.54
476.031	6231.63
476.235	6092.37
476.44	6116.94
476.645	6012.49
476.849	5998.16
477.054	6014.54
477.259	5731.92
477.463	6075.98
477.668	5881.42
477.872	5901.9
478.077	5846.61
478.282	5584.47
478.486	5623.38
478.691	5488.21
478.895	5535.32
479.1	5467.74
479.304	5473.88
479.509	5391.96
479.713	5412.44
479.918	5271.13
480.122	5301.85
480.326	5244.51
480.531	5281.37
480.735	5348.95
480.94	5277.27
481.144	5447.26
481.348	5201.5
481.553	5193.31
481.757	4992.61
481.961	5131.87
482.166	5303.9
482.37	5154.4
482.574	5199.45
482.778	5140.06
482.983	5148.25
483.187	5174.88
483.391	5201.5
483.595	5111.39
483.8	5178.97
484.004	5131.87
484.208	5219.93
484.412	5252.7
484.616	5043.81
484.821	5133.92
485.025	5084.77
485.229	5185.12
485.433	5236.31
485.637	5049.95
485.841	4992.61
486.045	4998.75
486.249	5183.07
486.453	4929.12
486.657	5017.18
486.861	5113.44
487.065	4925.02
487.269	5166.68
487.473	5023.33
487.677	5178.97
487.881	5262.94
488.085	5142.11
488.289	5076.57
488.493	5142.11
488.697	5162.59
488.901	5252.7
489.105	5060.19
489.309	5234.27
489.512	5162.59
489.716	5002.85
489.92	5148.25
490.124	5072.48
490.328	5232.22
490.531	5121.63
490.735	5252.7
490.939	5299.8
491.143	5221.98
491.346	5187.16
491.55	5291.61
491.754	5248.6
491.958	5463.64
492.161	5422.68
492.365	5314.14
492.569	5328.47
492.772	5402.2
492.976	5500.5
493.18	5437.02
493.383	5492.31
493.587	5584.47
493.79	5758.55
493.994	5428.82
494.197	5525.08
494.401	5738.07
494.605	5705.3
494.808	5731.92
495.012	5662.29
495.215	5633.62
495.419	5819.99
495.622	5723.73
495.825	6008.4
496.029	5867.09
496.232	6116.94
496.436	5906
496.639	6123.09
496.843	6049.36
497.046	6272.59
497.249	6260.3
497.453	6471.24
497.656	6465.1
497.859	6340.17
498.063	6549.06
498.266	6563.4
498.469	6729.28
498.673	6581.83
498.876	6862.4
499.079	6751.81
499.282	6819.39
499.485	7124.54
499.689	6970.94
499.892	7149.12
500.095	6936.13
500.298	7376.44
500.501	7165.5
500.705	7466.55
500.908	7681.59
501.111	7804.47
501.314	7568.95
501.517	8091.18
501.72	7855.67
501.923	7704.12
502.126	8154.67
502.329	8156.72
502.532	8209.97
502.735	8326.7
502.938	8453.67
503.141	8410.67
503.344	8627.75
503.547	8644.13
503.75	8861.22
503.953	8908.32
504.156	9061.92
504.359	8893.99
504.562	9057.82
504.765	9131.55
504.968	9139.74
505.17	9414.17
505.373	9506.33
505.576	9631.26
505.779	9520.67
505.982	9618.97
506.185	9987.6
506.387	9922.07
506.59	10251.79
506.793	10421.77
506.996	10204.69
507.198	10528.27
507.401	10305.04
507.604	10640.9
507.807	10753.54
508.009	10839.56
508.212	11007.49
508.415	11324.93
508.617	11144.7
508.82	11335.17
509.022	11376.13
509.225	11552.25
509.428	11609.59
509.63	11697.66
509.833	11750.9
510.035	12076.53
510.238	12006.9
510.44	12275.18
510.643	12539.37
510.845	12539.37
511.048	12262.9
511.25	12715.5
511.453	12637.67
511.655	13354.46
511.858	13014.5
512.06	13213.15
512.262	13381.09
512.465	13639.13
512.667	13641.18
512.87	13643.23
513.072	13860.31
513.274	13880.79
513.477	14079.44
513.679	14310.86
513.881	14556.62
514.084	14466.51
514.286	14792.14
514.488	14806.47
514.69	15232.45
514.893	15148.48
515.095	15164.87
515.297	15185.35
515.499	15693.24
515.701	15588.8
515.904	15584.7
516.106	15918.52
516.308	15936.95
516.51	16278.96
516.712	16170.42
516.914	16551.34
517.116	16704.94
517.318	17042.85
517.52	16876.97
517.722	16926.12
517.925	17337.76
518.127	17563.04
518.329	17530.27
518.531	17747.36
518.733	17833.37
518.935	17974.68
519.136	18138.52
519.338	18333.07
519.54	18478.48
519.742	18808.2
519.944	18771.34
520.146	19262.85
520.348	19312
520.55	19289.48
520.752	19322.24
520.954	20055.42
521.155	19715.45
521.357	19805.56
521.559	20391.28
521.761	20471.15
521.963	20335.99
522.164	20534.64
522.366	20868.46
522.568	20659.57
522.77	21042.54
522.971	21325.16
523.173	21017.96
523.375	21282.15
523.576	21349.73
523.778	21527.91
523.98	21804.38
524.181	21749.09
524.383	22068.57
524.584	22166.87
524.786	22351.19
524.988	22005.08
525.189	22592.85
525.391	22689.1
525.592	22832.46
525.794	22699.34
525.995	22877.52
526.197	22908.24
526.398	23217.48
526.6	23307.59
526.801	23588.16
527.003	23414.09
527.204	23260.49
527.406	23928.13
527.607	24149.31
527.808	24352.06
528.01	23487.81
528.211	23924.03
528.412	24544.56
528.614	24251.7
528.815	24253.75
529.016	24546.61
529.218	24483.13
529.419	24499.51
529.62	24530.23
529.822	24450.36
530.023	24812.85
530.224	24837.42
530.425	24886.57
530.626	24558.9
530.828	24528.18
531.029	25308.46
531.23	24874.29
531.431	25099.56
531.632	25152.81
531.833	25001.26
532.035	25072.94
532.236	25253.16
532.437	25627.94
532.638	25009.45
532.839	25244.97
533.04	25404.71
533.241	25029.93
533.442	25744.67
533.643	25351.46
533.844	25316.65
534.045	25537.83
534.246	25341.22
534.447	25562.4
534.648	25451.81
534.849	25711.91
535.05	25163.05
535.251	25550.12
535.451	25599.27
535.652	25814.3
535.853	25916.7
536.054	25904.42
536.255	25795.87
536.456	25629.99
536.657	26141.98
536.857	25562.4
537.058	25726.24
537.259	26029.34
537.46	25668.9
537.66	25742.63
537.861	25683.23
538.062	25423.14
538.263	25931.04
538.463	25771.3
538.664	25820.45
538.865	25840.93
539.065	26033.44
539.266	25566.5
539.466	25900.32
539.667	25687.33
539.868	26576.15
540.068	25816.35
540.269	25646.37
540.469	25969.95
540.67	26115.36
540.87	25689.38
541.071	25771.3
541.271	25705.76
541.472	25648.42
541.672	25777.44
541.873	25546.02
542.073	25718.05
542.274	25840.93
542.474	25634.08
542.675	25525.54
542.875	26133.79
543.075	25775.39
543.276	25376.04
543.476	26135.84
543.676	25554.21
543.877	25877.79
544.077	25658.66
544.277	25529.64
544.478	25787.68
544.678	25654.56
544.878	25269.55
545.078	25685.28
545.279	25486.63
545.479	25937.18
545.679	25787.68
545.879	25572.64
546.079	25564.45
546.28	25842.98
546.48	25484.58
546.68	25576.74
546.88	25449.77
547.08	25937.18
547.28	25771.3
547.48	25644.32
547.68	25455.91
547.88	25193.77
548.081	25529.64
548.281	25783.59
548.481	25261.35
548.681	25830.69
548.881	25672.99
549.081	25847.07
549.28	25318.7
549.48	25685.28
549.68	25494.82
549.88	26041.63
550.08	25335.08
550.28	25603.36
550.48	25281.83
550.68	25623.84
550.88	25505.06
551.08	25247.02
551.279	25931.04
551.479	25281.83
551.679	25015.6
551.879	25601.32
552.079	25672.99
552.278	25242.92
552.478	25189.67
552.678	25228.59
552.878	25632.04
553.077	25232.68
553.277	25066.8
553.477	25541.92
553.676	25400.62
553.876	25406.76
554.076	25265.45
554.275	24894.77
554.475	25017.64
554.674	25173.29
554.874	25333.03
555.074	25058.6
555.273	25238.83
555.473	24995.12
555.672	25019.69
555.872	25234.73
556.071	25013.55
556.271	24941.87
556.47	24808.75
556.67	24548.66
556.869	24532.28
557.068	24743.22
557.268	24638.77
557.467	24997.17
557.667	24640.82
557.866	24786.22
558.065	24677.68
558.265	24456.5
558.464	24378.68
558.663	24722.74
558.863	24372.53
559.062	24694.07
559.261	24153.4
559.461	24747.31
559.66	24081.72
559.859	24569.14
560.058	24022.33
560.258	24071.48
560.457	23901.5
560.656	24311.1
560.855	23917.89
561.054	24180.03
561.253	23788.86
561.453	23899.45
561.652	24120.63
561.851	24206.65
562.05	23780.67
562.249	23551.3
562.448	24094.01
562.647	23739.71
562.846	23553.35
563.045	23661.89
563.244	23108.94
563.443	23498.05
563.642	23237.96
563.841	23256.39
564.04	23407.94
564.239	23213.38
564.438	22932.81
564.637	23086.41
564.836	23115.08
565.035	22877.52
565.234	22959.44
565.432	22707.54
565.631	22689.1
565.83	22773.07
566.029	22873.42
566.228	22648.15
566.427	22732.11
566.625	22363.48
566.824	22279.51
567.023	22676.82
567.222	22007.13
567.42	22269.27
567.619	22179.16
567.818	21992.8
568.016	22189.4
568.215	22037.85
568.414	22203.74
568.612	22132.06
568.811	21898.59
569.01	21851.49
569.208	21488.99
569.407	21738.85
569.605	21654.88
569.804	21640.54
570.002	21515.62
570.201	21372.26
570.4	21101.93
570.598	21441.89
570.797	21314.92
570.995	21290.34
571.193	20721.01
571.392	21329.25
571.59	21181.8
571.789	20839.79
571.987	20714.86
572.186	20895.08
572.384	20528.5
572.582	20583.79
572.781	20772.21
572.979	20342.13
573.177	20411.76
573.376	20692.33
573.574	20487.54
573.772	20125.05
573.971	20151.67
574.169	20364.66
574.367	19948.92
574.565	19930.49
574.763	19983.74
574.962	20245.88
575.16	19774.84
575.358	19871.1
575.556	19742.08
575.754	19965.31
575.952	19510.66
576.151	19520.9
576.349	19473.79
576.547	19322.24
576.745	19543.42
576.943	19522.94
577.141	19414.4
577.339	19203.46
577.537	19438.98
577.735	19414.4
577.933	18871.69
578.131	19088.78
578.329	18972.04
578.527	18720.14
578.725	18898.31
578.923	18822.54
579.121	18740.62
579.319	18468.24
579.516	18707.85
579.714	18808.2
579.912	18513.3
580.11	18408.85
580.308	18414.99
580.506	18388.37
580.704	18040.22
580.901	18163.09
581.099	18494.86
581.297	18242.96
581.495	18072.98
581.692	18257.3
581.89	17927.58
582.088	17862.04
582.285	18134.42
582.483	18025.88
582.681	17888.67
582.878	18122.13
583.076	17755.55
583.274	17788.32
583.471	17384.87
583.669	17544.61
583.866	17509.79
584.064	17427.87
584.262	17214.88
584.459	17517.98
584.657	17200.55
584.854	17458.59
585.052	17216.93
585.249	17440.16
585.447	16989.61
585.644	16965.03
585.841	17159.59
586.039	17135.01
586.236	16901.54
586.434	17059.24
586.631	16528.81
586.828	16504.24
587.026	17094.05
587.223	16739.76
587.42	16610.73
587.618	16625.07
587.815	16428.46
588.012	16543.15
588.21	16381.36
588.407	16602.54
588.604	16485.81
588.801	16455.09
588.999	16076.21
589.196	16047.54
589.393	16348.59
589.59	15975.86
589.787	16012.73
589.984	15994.29
590.182	15715.77
590.379	15719.87
590.576	15801.79
590.773	15742.39
590.97	15492.54
591.167	15732.15
591.364	15306.18
591.561	15656.38
591.758	15257.03
591.955	15549.89
592.152	15453.63
592.349	15451.58
592.546	15420.86
592.743	15209.92
592.94	15082.95
593.137	15343.04
593.334	15398.34
593.531	15023.56
593.727	15062.47
593.924	15052.23
594.121	14865.86
594.318	14980.55
594.515	14749.13
594.712	14884.3
594.908	14824.9
595.105	14882.25
595.302	14757.32
595.499	14749.13
595.696	14603.72
595.892	14454.22
596.089	14595.53
596.286	14638.54
596.482	14525.9
596.679	14585.29
596.876	14505.42
597.072	14360.02
597.269	14341.58
597.466	14099.92
597.662	13880.79
597.859	14056.92
598.055	14247.38
598.252	14116.31
598.448	14167.51
598.645	13862.36
598.841	13819.35
599.038	13872.6
599.234	13727.19
599.431	13835.74
599.627	13745.62
599.824	13460.96
600.02	13719
600.217	13764.06
600.413	13630.94
600.609	13747.67
600.806	13522.4
601.002	13784.54
601.198	13546.97
601.395	13204.96
601.591	13475.29
601.787	13413.85
601.984	12998.12
602.18	13284.83
602.376	13186.53
602.572	13196.77
602.769	13190.63
602.965	12840.42
603.161	13049.32
603.357	12928.49
603.553	12989.92
603.75	12961.25
603.946	12973.54
604.142	12801.51
604.338	12758.5
604.534	12692.97
604.73	12676.59
604.926	12494.32
605.122	12676.59
605.318	12656.11
605.514	12602.86
605.71	12473.84
605.906	12266.99
606.102	12580.33
606.298	12529.13
606.494	12449.26
606.69	12418.54
606.886	12316.14
607.082	12107.25
607.278	12242.42
607.474	12041.71
607.67	12316.14
607.866	11871.73
608.062	12133.87
608.257	11953.65
608.453	11986.42
608.649	11949.56
608.845	11910.64
609.041	11900.41
609.236	11927.03
609.432	11857.4
609.628	11810.29
609.824	12111.35
610.019	11695.61
610.215	11781.62
610.411	11943.41
610.606	11666.94
610.802	11490.81
610.998	11607.55
611.193	11353.6
611.389	11589.11
611.584	11843.06
611.78	11511.29
611.976	11331.07
612.171	11431.42
612.367	11517.43
612.562	11412.99
612.758	11343.36
612.953	11322.88
613.149	11621.88
613.344	11378.17
613.539	11388.41
613.735	11253.25
613.93	11314.69
614.126	11183.62
614.321	11345.41
614.517	11310.59
614.712	11132.42
614.907	11111.94
615.103	11122.18
615.298	11066.88
615.493	11230.72
615.688	11091.46
615.884	11134.46
616.079	10982.92
616.274	11007.49
616.47	11019.78
616.665	10995.2
616.86	10870.28
617.055	10941.96
617.25	10726.92
617.445	10909.19
617.641	10599.94
617.836	10771.97
618.031	10360.33
618.226	10726.92
618.421	10612.23
618.616	10737.16
618.811	10386.96
619.006	10757.64
619.201	10464.78
619.396	10817.03
619.591	10440.2
619.786	10470.92
619.981	10550.79
620.176	10319.37
620.371	10272.27
620.566	10092.05
620.761	10429.96
620.956	10454.54
621.151	10032.66
621.346	10102.29
621.541	9778.71
621.735	10100.24
621.93	9729.56
622.125	9926.16
622.32	9821.72
622.515	9811.48
622.709	9858.58
622.904	9737.75
623.099	9623.06
623.294	9594.39
623.488	9483.8
623.683	9485.85
623.878	9272.86
624.072	9391.64
624.267	9340.44
624.462	9324.06
624.656	9154.08
624.851	9264.67
625.046	9115.17
625.24	9158.17
625.435	9199.13
625.629	8975.91
625.824	8781.35
626.018	9143.84
626.213	8664.61
626.407	8930.85
626.602	8551.98
626.796	8805.92
626.991	8586.79
627.185	8551.98
627.38	8576.55
627.574	8523.3
627.768	8418.86
627.963	8381.99
628.157	8349.23
628.352	8459.82
628.546	8103.47
628.74	8529.45
628.935	8154.67
629.129	8336.94
629.323	7996.98
629.517	8117.81
629.712	8193.58
629.906	8064.56
630.1	7947.83
630.294	7943.73
630.489	7941.68
630.683	8015.41
630.877	7620.15
631.071	7761.46
631.265	7587.38
631.459	7421.5
631.653	7595.57
631.848	7530.04
632.042	7607.86
632.236	7640.63
632.43	7394.87
632.624	7478.84
632.818	7382.59
633.012	7188.03
633.206	7224.89
633.4	7427.64
633.594	7296.57
633.788	7253.56
633.982	7263.8
634.176	7380.54
634.369	7077.44
634.563	7048.77
634.757	6899.27
634.951	6972.99
635.145	6944.32
635.339	6860.35
635.533	6911.55
635.726	7036.48
635.92	6614.6
636.114	6835.78
636.308	6710.85
636.501	6735.43
636.695	6784.58
636.889	6700.61
637.083	6575.69
637.276	6600.26
637.47	6403.66
637.664	6475.34
637.857	6458.95
638.051	6477.38
638.244	6422.09
638.438	6366.79
638.632	6245.96
638.825	6205
639.019	6276.68
639.212	6260.3
639.406	6104.65
639.599	6164.04
639.793	6217.29
639.986	6053.45
640.18	5969.49
640.373	6078.03
640.567	6004.3
640.76	6207.05
640.954	5936.72
641.147	5793.36
641.34	5819.99
641.534	5791.31
641.727	5819.99
641.92	5776.98
642.114	5723.73
642.307	5635.67
642.5	5615.19
642.694	5596.76
642.887	5580.37
643.08	5586.52
643.273	5582.42
643.467	5547.61
643.66	5490.26
643.853	5307.99
644.046	5418.58
644.239	5348.95
644.432	5389.91
644.626	5357.14
644.819	5447.26
645.012	5293.66
645.205	5305.95
645.398	5213.79
645.591	5111.39
645.784	5148.25
645.977	5181.02
646.17	5254.75
646.363	5074.53
646.556	4937.31
646.749	5113.44
646.942	5164.64
647.135	4857.44
647.328	5008.99
647.521	5004.89
647.714	4884.06
647.907	4953.7
648.099	4935.26
648.292	4839.01
648.485	4759.14
648.678	4697.7
648.871	4587.11
649.064	4791.91
649.256	4728.42
649.449	4638.31
649.642	4560.49
649.835	4716.13
650.027	4630.12
650.22	4542.05
650.413	4574.82
650.605	4478.57
650.798	4408.94
650.991	4535.91
651.183	4488.81
651.376	4400.74
651.568	4386.41
651.761	4286.06
651.954	4447.85
652.146	4431.46
652.339	4322.92
652.531	4327.02
652.724	4171.37
652.916	4343.4
653.109	4226.67
653.301	4134.51
653.494	4232.81
653.686	4167.28
653.879	4343.4
654.071	4181.61
654.263	4134.51
654.456	4085.36
654.648	4093.55
654.84	4060.78
655.033	4017.77
655.225	4089.45
655.417	4050.54
655.61	3985.01
655.802	3841.65
655.994	4116.08
656.186	3792.5
656.379	3913.33
656.571	3851.89
656.763	3831.41
656.955	3735.15
657.148	3905.14
657.34	3858.03
657.532	3788.4
657.724	3710.58
657.916	3731.06
658.108	3647.09
658.3	3655.28
658.492	3616.37
658.684	3587.7
658.876	3583.6
659.068	3526.26
659.26	3536.5
659.452	3579.51
659.644	3520.12
659.836	3526.26
660.028	3489.4
660.22	3376.76
660.412	3505.78
660.604	3468.92
660.796	3477.11
660.988	3452.53
661.18	3354.23
661.372	3407.48
661.563	3421.81
661.755	3341.94
661.947	3389.05
662.139	3446.39
662.331	3360.38
662.522	3311.22
662.714	3268.22
662.906	3151.48
663.097	3298.94
663.289	3118.72
663.481	3276.41
663.673	3118.72
663.864	3155.58
664.056	3214.97
664.247	3081.85
664.439	3124.86
664.631	3206.78
664.822	3116.67
665.014	3040.89
665.205	3069.56
665.397	2944.64
665.588	3079.8
665.78	3073.66
665.971	3049.08
666.163	3006.08
666.354	2961.02
666.546	2836.1
666.737	2948.73
666.929	2875.01
667.12	2926.21
667.311	2989.69
667.503	2791.04
667.694	2932.35
667.885	2897.53
668.077	2823.81
668.268	2803.33
668.459	2860.67
668.651	2848.38
668.842	2639.49
669.033	2883.2
669.224	2875.01
669.416	2799.23
669.607	2809.47
669.798	2684.55
669.989	2745.98
670.18	2772.61
670.371	2774.66
670.563	2774.66
670.754	2629.25
670.945	2696.83
671.136	2719.36
671.327	2592.39
671.518	2649.73
671.709	2545.28
671.9	2586.24
672.091	2543.24
672.282	2518.66
672.473	2506.37
672.664	2608.77
672.855	2639.49
673.046	2590.34
673.237	2594.44
673.428	2596.48
673.619	2553.48
673.809	2539.14
674	2387.59
674.191	2432.65
674.382	2469.51
674.573	2307.72
674.764	2365.06
674.954	2430.6
675.145	2393.73
675.336	2416.26
675.527	2426.5
675.717	2360.97
675.908	2416.26
676.099	2496.13
676.289	2326.15
676.48	2322.06
676.671	2375.3
676.861	2391.69
677.052	2233.99
677.243	2246.28
677.433	2272.9
677.624	2352.77
677.814	2264.71
678.005	2281.1
678.195	2436.74
678.386	2209.42
678.576	2436.74
678.767	2205.32
678.957	2367.11
679.148	2291.34
679.338	2344.58
679.529	2311.82
679.719	2317.96
679.909	2256.52
680.1	2223.75
680.29	2258.57
680.481	2293.38
680.671	2272.9
680.861	2248.33
681.052	2199.18
681.242	2287.24
681.432	2262.66
681.622	2119.31
681.813	2266.76
682.003	2090.63
682.193	2166.41
682.383	2221.7
682.573	2182.79
682.764	2184.84
682.954	2188.94
683.144	2176.65
683.334	2152.07
683.524	2113.16
683.714	2240.14
683.904	2143.88
684.094	2043.53
684.284	2143.88
684.474	2137.74
684.664	2094.73
684.854	2074.25
685.044	2256.52
685.234	2184.84
685.424	2045.58
685.614	1978
685.804	2080.39
685.994	2168.46
686.184	2147.98
686.374	2135.69
686.564	2080.39
686.753	1988.24
686.943	1957.52
687.133	1894.03
687.323	1937.04
687.513	1943.18
687.702	2160.27
687.892	1932.94
688.082	2045.58
688.272	2102.92
688.461	2045.58
688.651	2006.67
688.841	1978
689.03	1918.61
689.22	1873.55
689.41	1988.24
689.599	1889.93
689.789	1904.27
689.979	1934.99
690.168	1951.37
690.358	1816.21
690.547	1842.83
690.737	1898.13
690.926	1855.12
691.116	1930.89
691.305	1955.47
691.495	1900.17
691.684	1736.34
691.874	1896.08
692.063	1922.7
692.252	1881.74
692.442	1873.55
692.631	1779.34
692.82	1865.36
693.01	1777.3
693.199	1816.21
693.388	1846.93
693.578	1728.14
693.767	1777.3
693.956	1754.77
694.146	1834.64
694.335	1767.06
694.524	1707.66
694.713	1793.68
694.902	1773.2
695.092	1748.62
695.281	1787.54
695.47	1762.96
695.659	1781.39
695.848	1744.53
696.037	1820.3
696.226	1738.38
696.415	1746.58
696.604	1838.73
696.793	1736.34
696.982	1769.1
697.171	1846.93
697.36	1785.49
697.549	1646.23
697.738	1775.25
697.927	1609.36
698.116	1853.07
698.305	1685.14
698.494	1715.86
698.683	1707.66
698.872	1822.35
699.061	1697.42
699.25	1693.33
699.438	1818.25
699.627	1838.73
699.816	1773.2
700.005	1695.38
700.193	1855.12
700.382	1685.14
700.571	1746.58
700.76	1707.66
700.948	1756.82
701.137	1803.92
701.326	1658.51
701.514	1752.72
701.703	1705.62
701.892	1754.77
702.08	1785.49
702.269	1638.03
702.457	1744.53
702.646	1793.68
702.834	1738.38
703.023	1717.9
703.212	1758.86
703.4	1810.06
703.589	1836.69
703.777	1707.66
703.965	1707.66
704.154	1638.03
704.342	1758.86
704.531	1668.75
704.719	1748.62
704.907	1844.88
705.096	1828.49
705.284	1754.77
705.472	1732.24
705.661	1773.2
705.849	1787.54
706.037	1853.07
706.226	1707.66
706.414	1666.71
706.602	1810.06
706.79	1828.49
706.979	1748.62
707.167	1765.01
707.355	1844.88
707.543	1791.63
707.731	1875.6
707.919	1656.47
708.107	1699.47
708.296	1668.75
708.484	1687.18
708.672	1738.38
708.86	1738.38
709.048	1750.67
709.236	1758.86
709.424	1752.72
709.612	1826.45
709.8	1726.1
709.988	1775.25
710.176	1697.42
710.364	1822.35
710.551	1822.35
710.739	1795.73
710.927	1740.43
711.115	1824.4
711.303	1775.25
711.491	1742.48
711.679	1840.78
711.866	1748.62
712.054	1844.88
712.242	1799.82
712.43	1754.77
712.617	1715.86
712.805	1771.15
712.993	1762.96
713.181	1717.9
713.368	1863.31
713.556	1771.15
713.744	1685.14
713.931	1824.4
714.119	1877.65
714.306	1791.63
714.494	1736.34
714.682	1842.83
714.869	1820.3
715.057	1824.4
715.244	1812.11
715.432	1842.83
715.619	1707.66
715.807	1775.25
715.994	1769.1
716.182	1775.25
716.369	1826.45
716.556	1820.3
716.744	1748.62
716.931	1760.91
717.119	1812.11
717.306	1844.88
717.493	1855.12
717.681	1851.02
717.868	1840.78
718.055	1693.33
718.242	1920.65
718.43	1914.51
718.617	1742.48
718.804	1734.29
718.991	1724.05
719.179	1869.45
719.366	1808.02
719.553	1730.19
719.74	1801.87
719.927	1728.14
720.114	1834.64
720.301	1803.92
720.488	1789.58
720.676	1812.11
720.863	1805.97
721.05	1758.86
721.237	1664.66
721.424	1836.69
721.611	1744.53
721.798	1611.41
721.985	1795.73
722.172	1848.97
722.358	1785.49
722.545	1791.63
722.732	1810.06
722.919	1846.93
723.106	1740.43
723.293	1752.72
723.48	1789.58
723.667	1867.41
723.853	1838.73
724.04	1889.93
724.227	1832.59
724.414	1795.73
724.6	1726.1
724.787	1754.77
724.974	1828.49
725.161	1842.83
725.347	1765.01
725.534	1773.2
725.72	1789.58
725.907	1785.49
726.094	1787.54
726.28	1826.45
726.467	1795.73
726.653	1750.67
726.84	1812.11
727.027	1871.5
727.213	1678.99
727.4	1814.16
727.586	1795.73
727.773	1748.62
727.959	1836.69
728.145	1771.15
728.332	1771.15
728.518	1695.38
728.705	1769.1
728.891	1826.45
729.077	1818.25
729.264	1912.46
729.45	1803.92
729.636	1910.41
729.823	1734.29
730.009	1799.82
730.195	1750.67
730.382	1777.3
730.568	1830.54
730.754	1656.47
730.94	1773.2
731.126	1826.45
731.313	1775.25
731.499	1715.86
731.685	1842.83
731.871	1791.63
732.057	1748.62
732.243	1787.54
732.429	1814.16
732.615	1740.43
732.801	1801.87
732.987	1771.15
733.173	1785.49
733.359	1695.38
733.545	1820.3
733.731	1701.52
733.917	1783.44
734.103	1719.95
734.289	1769.1
734.475	1767.06
734.661	1830.54
734.847	1791.63
735.033	1853.07
735.219	1771.15
735.404	1773.2
735.59	1783.44
735.776	1781.39
735.962	1797.78
736.148	1672.85
736.333	1775.25
736.519	1685.14
736.705	1722
736.89	1683.09
737.076	1795.73
737.262	1703.57
737.447	1713.81
737.633	1711.76
737.819	1648.27
738.004	1724.05
738.19	1783.44
738.375	1676.95
738.561	1683.09
738.747	1808.02
738.932	1648.27
739.118	1633.94
739.303	1722
739.489	1633.94
739.674	1531.54
739.859	1644.18
740.045	1582.74
740.23	1658.51
740.416	1687.18
740.601	1547.92
740.786	1744.53
740.972	1642.13
741.157	1656.47
741.342	1525.4
741.528	1547.92
741.713	1605.27
741.898	1558.16
742.084	1676.95
742.269	1619.6
742.454	1496.72
742.639	1560.21
742.824	1578.64
743.01	1650.32
743.195	1590.93
743.38	1537.68
743.565	1564.31
743.75	1605.27
743.935	1572.5
744.12	1633.94
744.305	1607.31
744.49	1500.82
744.675	1562.26
744.86	1605.27
745.045	1562.26
745.23	1595.03
745.415	1572.5
745.6	1478.29
745.785	1453.72
745.97	1533.59
746.155	1404.57
746.34	1447.57
746.525	1506.96
746.71	1543.83
746.895	1369.75
747.079	1437.33
747.264	1412.76
747.449	1427.09
747.634	1517.2
747.819	1437.33
748.003	1408.66
748.188	1359.51
748.373	1375.89
748.557	1416.85
748.742	1416.85
748.927	1373.85
749.111	1392.28
749.296	1287.83
749.481	1425.04
749.665	1334.93
749.85	1349.27
750.034	1242.78
750.219	1336.98
750.404	1228.44
750.588	1298.07
750.773	1285.78
750.957	1330.84
751.141	1236.63
751.326	1257.11
751.51	1259.16
751.695	1216.15
751.879	1255.06
752.064	1236.63
752.248	1169.05
752.432	1236.63
752.617	1238.68
752.801	1244.82
752.985	1164.95
753.17	1115.8
753.354	1142.43
753.538	1177.24
753.722	1183.38
753.907	1105.56
754.091	1144.47
754.275	1130.14
754.459	1119.9
754.643	1107.61
754.828	1089.18
755.012	1085.08
755.196	1078.94
755.38	1136.28
755.564	1040.03
755.748	966.3
755.932	1154.71
756.116	1109.66
756.3	1130.14
756.484	1072.79
756.668	1021.6
756.852	1019.55
757.036	968.35
757.22	1056.41
757.404	1111.71
757.588	997.02
757.772	976.54
757.956	986.78
758.14	1031.83
758.323	972.44
758.507	1056.41
758.691	927.39
758.875	972.44
759.059	964.25
759.242	935.58
759.426	943.77
759.61	984.73
759.794	863.9
759.977	956.06
760.161	956.06
760.345	966.3
760.528	927.39
760.712	847.52
760.895	837.28
761.079	945.82
761.263	845.47
761.446	859.81
761.63	837.28
761.813	876.19
761.997	855.71
762.18	886.43
762.364	839.33
762.547	865.95
762.731	816.8
762.914	870.05
763.098	888.48
763.281	837.28
763.464	857.76
763.648	781.98
763.831	824.99
764.015	822.94
764.198	861.85
764.381	833.18
764.564	861.85
764.748	792.22
764.931	767.65
765.114	804.51
765.297	847.52
765.481	804.51
765.664	874.14
765.847	851.61
766.03	853.66
766.213	718.5
766.397	788.13
766.58	671.39
766.763	757.41
766.946	691.87
767.129	738.98
767.312	745.12
767.495	773.79
767.678	788.13
767.861	718.5
768.044	784.03
768.227	722.59
768.41	806.56
768.593	781.98
768.776	730.78
768.959	698.02
769.142	747.17
769.324	765.6
769.507	741.02
769.69	806.56
769.873	693.92
770.056	720.54
770.239	624.29
770.421	818.85
770.604	685.73
770.787	759.46
770.97	784.03
771.152	671.39
771.335	671.39
771.518	587.43
771.7	691.87
771.883	718.5
772.066	677.54
772.248	695.97
772.431	683.68
772.613	655.01
772.796	663.2
772.978	728.74
773.161	677.54
773.343	698.02
773.526	595.62
773.708	669.34
773.891	687.78
774.073	595.62
774.256	568.99
774.438	700.06
774.621	665.25
774.803	525.99
774.985	673.44
775.168	657.06
775.35	601.76
775.532	665.25
775.715	495.27
775.897	605.86
776.079	628.39
776.261	579.23
776.444	577.19
776.626	566.95
776.808	532.13
776.99	532.13
777.173	470.69
777.355	571.04
777.537	556.71
777.719	536.23
777.901	532.13
778.083	530.08
778.265	542.37
778.447	550.56
778.629	546.47
778.811	427.68
778.993	548.51
779.175	573.09
779.357	503.46
779.539	560.8
779.721	538.27
779.903	468.64
780.085	476.84
780.267	429.73
780.449	470.69
780.631	579.23
780.812	525.99
780.994	566.95
781.176	499.36
781.358	442.02
781.54	405.16
781.721	429.73
781.903	454.31
782.085	437.92
782.267	587.43
782.448	427.68
782.63	413.35
782.812	472.74
782.993	493.22
783.175	456.36
783.357	405.16
783.538	421.54
783.72	347.81
783.901	421.54
784.083	480.93
784.264	507.55
784.446	362.15
784.627	390.82
784.809	487.08
784.99	325.29
785.172	439.97
785.353	448.16
785.535	333.48
785.716	376.48
785.897	333.48
786.079	292.52
786.26	448.16
786.441	374.44
786.623	302.76
786.804	362.15
786.985	409.25
787.167	368.29
787.348	366.25
787.529	333.48
787.71	396.96
787.891	399.01
788.073	280.23
788.254	339.62
788.435	351.91
788.616	333.48
788.797	372.39
788.978	251.56
789.159	345.77
789.34	390.82
789.522	378.53
789.703	360.1
789.884	382.63
790.065	345.77
790.246	345.77
790.427	304.81
790.607	372.39
790.788	321.19
790.969	255.65
791.15	343.72
791.331	265.89
791.512	288.42
791.693	226.98
791.874	269.99
792.054	337.57
792.235	310.95
792.416	272.04
792.597	257.7
792.778	296.61
792.958	218.79
793.139	265.89
793.32	243.37
793.5	286.37
793.681	331.43
793.862	296.61
794.042	251.56
794.223	237.22
794.404	247.46
794.584	253.61
794.765	241.32
794.945	300.71
795.126	288.42
795.306	263.85
795.487	233.13
795.667	251.56
795.848	313
796.028	198.31
796.209	235.18
796.389	329.38
796.57	224.94
796.75	202.41
796.93	274.09
797.111	263.85
797.291	272.04
797.471	186.02
797.652	276.13
797.832	179.88
798.012	327.33
798.192	290.47
798.373	249.51
798.553	280.23
798.733	310.95
798.913	163.5
799.093	218.79
799.274	284.33
799.454	257.7
799.634	294.57
799.814	251.56
799.994	237.22
800.174	278.18
800.354	194.22
800.534	134.82
800.714	183.98
800.894	136.87
801.074	257.7
801.254	130.73
801.434	198.31
801.614	192.17
801.794	212.65
801.974	552.61
802.154	200.36
802.334	210.6
802.514	196.26
802.693	233.13
802.873	149.16
803.053	288.42
803.233	220.84
803.413	206.5
803.592	89.77
803.772	112.3
803.952	200.36
804.131	175.78
804.311	167.59
804.491	116.39
804.67	212.65
804.85	229.03
805.03	177.83
805.209	153.26
805.389	188.07
805.568	153.26
805.748	157.35
805.928	181.93
806.107	143.02
806.287	157.35
806.466	114.34
806.646	151.21
806.825	171.69
807.004	173.74
807.184	132.78
807.363	171.69
807.543	151.21
807.722	122.54
807.901	190.12
808.081	157.35
808.26	194.22
808.439	169.64
808.619	186.02
808.798	175.78
808.977	214.7
809.156	143.02
809.336	204.46
809.515	177.83
809.694	140.97
809.873	108.2
810.052	128.68
810.231	177.83
810.411	57
810.59	108.2
810.769	147.11
810.948	188.07
811.127	126.63
811.306	145.06
811.485	169.64
811.664	161.45
811.843	161.45
812.022	220.84
812.201	151.21
812.38	155.3
812.559	192.17
812.737	151.21
812.916	122.54
813.095	91.82
813.274	243.37
813.453	214.7
813.632	124.58
813.811	87.72
813.989	130.73
814.168	136.87
814.347	140.97
814.526	157.35
814.704	122.54
814.883	169.64
815.062	69.29
815.24	79.53
815.419	179.88
815.598	126.63
815.776	91.82
815.955	130.73
816.133	147.11
816.312	116.39
816.49	145.06
816.669	120.49
816.847	138.92
817.026	153.26
817.204	136.87
817.383	143.02
817.561	95.91
817.74	200.36
817.918	120.49
818.097	52.91
818.275	138.92
818.453	179.88
818.632	75.43
818.81	73.39
818.988	112.3
819.167	83.63
819.345	91.82
819.523	171.69
819.701	75.43
819.879	239.27
820.058	161.45
820.236	149.16
820.414	130.73
820.592	145.06
820.77	108.2
820.948	59.05
821.127	122.54
821.305	177.83
821.483	77.48
821.661	120.49
821.839	220.84
822.017	95.91
822.195	54.95
822.373	143.02
822.551	40.62
822.729	143.02
822.907	143.02
823.085	100.01
823.262	165.54
823.44	114.34
823.618	97.96
823.796	59.05
823.974	112.3
824.152	91.82
824.329	71.34
824.507	138.92
824.685	122.54
824.863	132.78
825.04	20.14
825.218	87.72
825.396	28.33
825.574	106.15
825.751	73.39
825.929	140.97
826.107	102.06
826.284	52.91
826.462	52.91
826.639	69.29
826.817	83.63
826.994	136.87
827.172	112.3
827.349	116.39
827.527	159.4
827.704	130.73
827.882	108.2
828.059	75.43
828.237	42.67
828.414	54.95
828.591	48.81
828.769	75.43
828.946	63.15
829.124	120.49
829.301	44.71
829.478	104.11
829.655	100.01
829.833	106.15
830.01	114.34
830.187	75.43
830.364	48.81
830.542	100.01
830.719	118.44
830.896	65.19
831.073	97.96
831.25	-14.68
831.427	85.67
831.604	73.39
831.782	112.3
831.959	42.67
832.136	26.28
832.313	73.39
832.49	124.58
832.667	116.39
832.844	59.05
833.021	112.3
833.198	77.48
833.374	48.81
833.551	83.63
833.728	85.67
833.905	93.87
834.082	77.48
834.259	5.8
834.436	57
834.612	83.63
834.789	83.63
834.966	71.34
835.143	155.3
835.319	81.58
835.496	38.57
835.673	38.57
835.85	136.87
836.026	140.97
836.203	28.33
836.38	61.1
836.556	9.9
836.733	57
836.909	181.93
837.086	73.39
837.262	85.67
837.439	87.72
837.616	44.71
837.792	75.43
837.968	13.99
838.145	157.35
838.321	-33.11
838.498	124.58
838.674	46.76
838.851	44.71
839.027	118.44
839.203	-4.44
839.38	40.62
839.556	106.15
839.732	77.48
839.909	57
840.085	73.39
840.261	26.28
840.437	91.82
840.614	42.67
840.79	95.91
840.966	38.57
841.142	38.57
841.318	46.76
841.494	124.58
841.671	65.19
841.847	20.14
842.023	100.01
842.199	71.34
842.375	16.04
842.551	36.52
842.727	22.19
842.903	46.76
843.079	-18.77
843.255	83.63
843.431	-8.53
843.607	63.15
843.783	42.67
843.959	100.01
844.134	22.19
844.31	57
844.486	-43.35
844.662	30.38
844.838	114.34
845.013	69.29
845.189	-31.06
845.365	108.2
845.541	59.05
845.716	69.29
845.892	77.48
846.068	89.77
846.244	-10.58
846.419	81.58
846.595	50.86
846.77	30.38
846.946	30.38
847.122	151.21
847.297	71.34
847.473	169.64
847.648	40.62
847.824	61.1
847.999	65.19
848.175	32.43
848.35	97.96
848.526	67.24
848.701	48.81
848.876	122.54
849.052	11.95
849.227	30.38
849.403	42.67
849.578	87.72
849.753	30.38
849.929	-8.53
850.104	38.57
850.279	48.81
850.454	91.82
850.63	65.19
850.805	52.91
850.98	87.72
851.155	61.1
851.33	59.05
851.505	-16.73
851.681	87.72
851.856	48.81
852.031	-10.58
852.206	38.57
852.381	1.71
852.556	59.05
852.731	7.85
852.906	24.23
853.081	-8.53
853.256	40.62
853.431	7.85
853.606	9.9
853.781	30.38
853.956	-76.12
854.131	-39.25
854.305	-53.59
854.48	-2.39
854.655	34.47
854.83	69.29
855.005	38.57
855.18	5.8
855.354	71.34
855.529	75.43
855.704	9.9
855.879	69.29
856.053	34.47
856.228	30.38
856.403	-10.58
856.577	36.52
856.752	73.39
856.926	48.81
857.101	50.86
857.276	38.57
857.45	54.95
857.625	83.63
857.799	44.71
857.974	7.85
858.148	36.52
858.323	22.19
858.497	7.85
858.672	40.62
858.846	61.1
859.02	100.01
859.195	11.95
859.369	52.91
859.543	95.91
859.718	36.52
859.892	34.47
860.066	71.34
860.241	26.28
860.415	50.86
860.589	11.95
860.763	28.33
860.938	-43.35
861.112	83.63
861.286	5.8
861.46	54.95
861.634	48.81
861.808	-0.34
861.982	65.19
862.157	34.47
862.331	57
862.505	46.76
862.679	9.9
862.853	22.19
863.027	-57.68
863.201	48.81
863.375	24.23
863.549	18.09
863.722	89.77
863.896	81.58
864.07	16.04
864.244	-26.96
864.418	40.62
864.592	34.47
864.766	81.58
864.939	57
865.113	65.19
865.287	87.72
865.461	-22.87
865.634	50.86
865.808	18.09
865.982	30.38
866.156	34.47
866.329	-76.12
866.503	-2.39
866.676	73.39
866.85	-67.92
867.024	69.29
867.197	-16.73
867.371	63.15
867.544	42.67
867.718	-6.49
867.891	3.75
868.065	-4.44
868.238	5.8
868.412	13.99
868.585	32.43
868.759	-20.82
868.932	-43.35
869.105	75.43
869.279	38.57
869.452	5.8
869.625	-14.68
869.799	73.39
869.972	20.14
870.145	-14.68
870.319	-8.53
870.492	59.05
870.665	5.8
870.838	57
871.011	34.47
871.185	3.75
871.358	40.62
871.531	18.09
871.704	36.52
871.877	13.99
872.05	38.57
872.223	52.91
872.396	9.9
872.569	-22.87
872.742	1.71
872.915	20.14
873.088	36.52
873.261	-61.78
873.434	18.09
873.607	52.91
873.78	7.85
873.953	13.99
874.126	-10.58
874.299	32.43
874.471	-94.55
874.644	59.05
874.817	48.81
874.99	67.24
875.163	46.76
875.335	50.86
875.508	18.09
875.681	7.85
875.853	3.75
876.026	-10.58
876.199	38.57
876.371	34.47
876.544	-18.77
876.717	34.47
876.889	7.85
877.062	13.99
877.234	26.28
877.407	-22.87
877.579	-8.53
877.752	18.09
877.924	5.8
878.097	-26.96
878.269	75.43
878.442	95.91
878.614	42.67
878.786	28.33
878.959	-18.77
879.131	30.38
879.303	48.81
879.476	-24.92
879.648	79.53
879.82	20.14
879.993	44.71
880.165	22.19
880.337	13.99
880.509	-8.53
880.681	22.19
880.854	30.38
881.026	-2.39
881.198	73.39
881.37	-53.59
881.542	9.9
881.714	20.14
881.886	13.99
882.058	18.09
882.23	79.53
882.402	20.14
882.574	20.14
882.746	46.76
882.918	40.62
883.09	11.95
883.262	54.95
883.434	24.23
883.606	-22.87
883.778	-14.68
883.95	67.24
884.122	11.95
884.293	38.57
884.465	30.38
884.637	46.76
884.809	34.47
884.98	71.34
885.152	9.9
885.324	-14.68
885.496	81.58
885.667	63.15
885.839	1.71
886.011	91.82
886.182	3.75
886.354	95.91
886.525	36.52
886.697	-33.11
886.869	5.8
887.04	63.15
887.212	59.05
887.383	79.53
887.555	-16.73
887.726	18.09
887.897	-0.34
888.069	11.95
888.24	36.52
888.412	7.85
888.583	1.71
888.754	97.96
888.926	46.76
889.097	71.34
889.268	54.95
889.44	1.71
889.611	50.86
889.782	-45.4
889.953	-20.82
890.125	63.15
890.296	-96.6
890.467	26.28
890.638	13.99
890.809	11.95
890.98	1.71
891.151	-59.73
891.323	-0.34
891.494	5.8
891.665	38.57
891.836	40.62
892.007	-2.39
892.178	26.28
892.349	-43.35
892.52	67.24
892.691	54.95
892.862	11.95
893.032	-0.34
893.203	-31.06
893.374	1.71
893.545	5.8
893.716	-14.68
893.887	-22.87
894.057	-16.73
894.228	30.38
894.399	-18.77
894.57	-2.39
894.74	30.38
894.911	1.71
895.082	57
895.253	38.57
895.423	28.33
895.594	28.33
895.764	-2.39
895.935	26.28
896.106	-61.78
896.276	-39.25
896.447	-26.96
896.617	18.09
896.788	36.52
896.958	-6.49
897.129	-33.11
897.299	28.33
897.47	-6.49
897.64	20.14
897.81	36.52
897.981	-14.68
898.151	-39.25
898.322	-4.44
898.492	-22.87
898.662	-22.87
898.832	-49.49
899.003	24.23
899.173	38.57
899.343	-31.06
899.513	61.1
