Data from USB4F104151__66__11-06-08-126.txt Node

Date: Wed Mar 12 11:06:08 EDT 2025
User: louis
Spectrometer: USB4F10415
Trigger mode: 4
Integration Time (sec): 2.000000E-2
Scans to average: 1
Electric dark correction enabled: true
Nonlinearity correction enabled: false
Boxcar width: 0
XAxis mode: Wavelengths
Number of Pixels in Spectrum: 3648
>>>>>Begin Spectral Data<<<<<
178.204	-92.5
178.424	-92.5
178.644	-92.5
178.864	-76.12
179.084	-35.16
179.304	-49.49
179.524	-4.44
179.744	20.14
179.964	-2.39
180.184	-8.53
180.404	-14.68
180.624	9.9
180.844	16.04
181.064	40.62
181.283	-6.49
181.503	24.23
181.723	-24.92
181.943	122.54
182.163	91.82
182.383	24.23
182.602	97.96
182.822	63.15
183.042	104.11
183.262	65.19
183.482	75.43
183.701	36.52
183.921	77.48
184.141	106.15
184.361	77.48
184.58	-6.49
184.8	85.67
185.02	40.62
185.239	110.25
185.459	77.48
185.679	69.29
185.898	59.05
186.118	106.15
186.338	63.15
186.557	3.75
186.777	-18.77
186.997	57
187.216	30.38
187.436	100.01
187.655	108.2
187.875	69.29
188.095	-2.39
188.314	38.57
188.534	57
188.753	93.87
188.973	26.28
189.192	59.05
189.412	-14.68
189.631	38.57
189.851	50.86
190.07	85.67
190.29	48.81
190.509	16.04
190.729	11.95
190.948	118.44
191.168	183.98
191.387	36.52
191.607	18.09
191.826	138.92
192.045	42.67
192.265	26.28
192.484	118.44
192.704	24.23
192.923	50.86
193.142	100.01
193.362	22.19
193.581	100.01
193.8	59.05
194.02	73.39
194.239	73.39
194.458	28.33
194.678	104.11
194.897	110.25
195.116	7.85
195.335	83.63
195.555	44.71
195.774	65.19
195.993	26.28
196.212	93.87
196.432	28.33
196.651	59.05
196.87	69.29
197.089	126.63
197.308	165.54
197.528	79.53
197.747	69.29
197.966	-0.34
198.185	97.96
198.404	16.04
198.623	36.52
198.842	85.67
199.062	54.95
199.281	69.29
199.5	59.05
199.719	93.87
199.938	112.3
200.157	57
200.376	77.48
200.595	102.06
200.814	89.77
201.033	122.54
201.252	50.86
201.471	30.38
201.69	108.2
201.909	48.81
202.128	79.53
202.347	-18.77
202.566	-8.53
202.785	75.43
203.004	48.81
203.223	100.01
203.442	122.54
203.661	57
203.879	28.33
204.098	79.53
204.317	61.1
204.536	132.78
204.755	24.23
204.974	81.58
205.193	100.01
205.411	110.25
205.63	124.58
205.849	81.58
206.068	100.01
206.287	46.76
206.505	30.38
206.724	79.53
206.943	89.77
207.162	73.39
207.381	69.29
207.599	93.87
207.818	-18.77
208.037	40.62
208.255	-16.73
208.474	69.29
208.693	42.67
208.911	36.52
209.13	116.39
209.349	122.54
209.567	69.29
209.786	87.72
210.005	102.06
210.223	104.11
210.442	143.02
210.661	102.06
210.879	61.1
211.098	65.19
211.316	46.76
211.535	93.87
211.753	108.2
211.972	83.63
212.191	63.15
212.409	63.15
212.628	116.39
212.846	93.87
213.065	50.86
213.283	143.02
213.502	52.91
213.72	57
213.938	106.15
214.157	54.95
214.375	63.15
214.594	81.58
214.812	91.82
215.031	63.15
215.249	108.2
215.467	52.91
215.686	54.95
215.904	71.34
216.122	36.52
216.341	173.74
216.559	93.87
216.778	95.91
216.996	18.09
217.214	-4.44
217.432	87.72
217.651	93.87
217.869	36.52
218.087	97.96
218.306	102.06
218.524	16.04
218.742	18.09
218.96	118.44
219.179	69.29
219.397	22.19
219.615	87.72
219.833	77.48
220.051	108.2
220.27	114.34
220.488	-10.58
220.706	143.02
220.924	106.15
221.142	36.52
221.36	24.23
221.578	30.38
221.796	63.15
222.015	46.76
222.233	128.68
222.451	140.97
222.669	116.39
222.887	126.63
223.105	81.58
223.323	67.24
223.541	97.96
223.759	7.85
223.977	61.1
224.195	118.44
224.413	40.62
224.631	171.69
224.849	40.62
225.067	132.78
225.285	50.86
225.503	118.44
225.721	26.28
225.939	81.58
226.157	30.38
226.375	93.87
226.592	26.28
226.81	34.47
227.028	106.15
227.246	100.01
227.464	9.9
227.682	93.87
227.9	57
228.117	42.67
228.335	132.78
228.553	130.73
228.771	69.29
228.989	106.15
229.206	122.54
229.424	61.1
229.642	73.39
229.86	13.99
230.077	77.48
230.295	106.15
230.513	89.77
230.731	46.76
230.948	118.44
231.166	46.76
231.384	32.43
231.601	65.19
231.819	61.1
232.037	104.11
232.254	67.24
232.472	89.77
232.689	16.04
232.907	50.86
233.125	79.53
233.342	24.23
233.56	-22.87
233.777	42.67
233.995	87.72
234.213	169.64
234.43	40.62
234.648	38.57
234.865	50.86
235.083	75.43
235.3	34.47
235.518	-0.34
235.735	52.91
235.953	108.2
236.17	85.67
236.388	89.77
236.605	-37.2
236.822	157.35
237.04	73.39
237.257	65.19
237.475	-16.73
237.692	79.53
237.909	44.71
238.127	114.34
238.344	83.63
238.562	114.34
238.779	-0.34
238.996	57
239.214	130.73
239.431	106.15
239.648	77.48
239.865	38.57
240.083	91.82
240.3	-4.44
240.517	54.95
240.735	102.06
240.952	57
241.169	114.34
241.386	42.67
241.603	89.77
241.821	36.52
242.038	87.72
242.255	28.33
242.472	102.06
242.689	52.91
242.907	112.3
243.124	75.43
243.341	-0.34
243.558	100.01
243.775	89.77
243.992	61.1
244.209	138.92
244.426	69.29
244.643	73.39
244.86	16.04
245.078	175.78
245.295	59.05
245.512	89.77
245.729	83.63
245.946	77.48
246.163	65.19
246.38	118.44
246.597	52.91
246.814	100.01
247.031	132.78
247.248	67.24
247.464	36.52
247.681	18.09
247.898	122.54
248.115	91.82
248.332	114.34
248.549	93.87
248.766	91.82
248.983	44.71
249.2	100.01
249.417	95.91
249.633	50.86
249.85	110.25
250.067	-8.53
250.284	83.63
250.501	85.67
250.717	79.53
250.934	93.87
251.151	-35.16
251.368	59.05
251.585	102.06
251.801	124.58
252.018	59.05
252.235	52.91
252.451	36.52
252.668	46.76
252.885	102.06
253.102	106.15
253.318	91.82
253.535	116.39
253.752	50.86
253.968	71.34
254.185	63.15
254.401	34.47
254.618	73.39
254.835	42.67
255.051	65.19
255.268	24.23
255.484	77.48
255.701	24.23
255.917	-4.44
256.134	91.82
256.351	44.71
256.567	-14.68
256.784	65.19
257	-4.44
257.217	175.78
257.433	13.99
257.65	124.58
257.866	134.82
258.082	97.96
258.299	-2.39
258.515	44.71
258.732	26.28
258.948	48.81
259.165	67.24
259.381	32.43
259.597	9.9
259.814	30.38
260.03	136.87
260.246	54.95
260.463	104.11
260.679	75.43
260.895	130.73
261.112	38.57
261.328	-20.82
261.544	116.39
261.761	112.3
261.977	85.67
262.193	36.52
262.409	100.01
262.626	93.87
262.842	50.86
263.058	79.53
263.274	110.25
263.49	153.26
263.707	138.92
263.923	42.67
264.139	36.52
264.355	9.9
264.571	122.54
264.787	54.95
265.004	83.63
265.22	122.54
265.436	32.43
265.652	61.1
265.868	83.63
266.084	44.71
266.3	75.43
266.516	67.24
266.732	100.01
266.948	38.57
267.164	65.19
267.38	102.06
267.596	-4.44
267.812	61.1
268.028	151.21
268.244	73.39
268.46	95.91
268.676	83.63
268.892	11.95
269.108	65.19
269.324	9.9
269.54	85.67
269.756	97.96
269.972	130.73
270.188	52.91
270.403	67.24
270.619	63.15
270.835	48.81
271.051	40.62
271.267	79.53
271.483	3.75
271.698	85.67
271.914	67.24
272.13	57
272.346	54.95
272.562	91.82
272.777	73.39
272.993	30.38
273.209	93.87
273.425	85.67
273.64	28.33
273.856	104.11
274.072	136.87
274.287	85.67
274.503	112.3
274.719	89.77
274.934	67.24
275.15	20.14
275.366	52.91
275.581	112.3
275.797	85.67
276.012	77.48
276.228	52.91
276.444	69.29
276.659	91.82
276.875	65.19
277.09	85.67
277.306	128.68
277.521	104.11
277.737	75.43
277.952	52.91
278.168	38.57
278.383	130.73
278.599	34.47
278.814	67.24
279.03	136.87
279.245	212.65
279.461	114.34
279.676	5.8
279.892	30.38
280.107	-12.63
280.322	42.67
280.538	79.53
280.753	36.52
280.969	16.04
281.184	57
281.399	95.91
281.615	28.33
281.83	120.49
282.045	32.43
282.26	57
282.476	118.44
282.691	77.48
282.906	57
283.122	44.71
283.337	100.01
283.552	97.96
283.767	102.06
283.983	110.25
284.198	73.39
284.413	46.76
284.628	22.19
284.843	89.77
285.058	106.15
285.274	95.91
285.489	79.53
285.704	100.01
285.919	102.06
286.134	50.86
286.349	69.29
286.564	46.76
286.779	85.67
286.995	95.91
287.21	40.62
287.425	93.87
287.64	30.38
287.855	44.71
288.07	18.09
288.285	120.49
288.5	106.15
288.715	122.54
288.93	-0.34
289.145	75.43
289.36	106.15
289.575	114.34
289.79	106.15
290.004	134.82
290.219	128.68
290.434	52.91
290.649	69.29
290.864	65.19
291.079	32.43
291.294	81.58
291.509	91.82
291.724	7.85
291.938	3.75
292.153	128.68
292.368	20.14
292.583	71.34
292.798	120.49
293.012	24.23
293.227	77.48
293.442	91.82
293.657	71.34
293.871	73.39
294.086	69.29
294.301	108.2
294.516	128.68
294.73	67.24
294.945	65.19
295.16	85.67
295.374	77.48
295.589	138.92
295.804	46.76
296.018	145.06
296.233	104.11
296.447	34.47
296.662	77.48
296.877	95.91
297.091	77.48
297.306	57
297.52	83.63
297.735	100.01
297.949	40.62
298.164	116.39
298.378	63.15
298.593	116.39
298.807	42.67
299.022	73.39
299.236	126.63
299.451	69.29
299.665	143.02
299.88	69.29
300.094	147.11
300.309	52.91
300.523	77.48
300.737	89.77
300.952	122.54
301.166	106.15
301.381	-0.34
301.595	102.06
301.809	91.82
302.024	89.77
302.238	57
302.452	106.15
302.667	73.39
302.881	104.11
303.095	87.72
303.309	57
303.524	36.52
303.738	46.76
303.952	44.71
304.166	73.39
304.381	36.52
304.595	134.82
304.809	83.63
305.023	50.86
305.237	93.87
305.452	57
305.666	104.11
305.88	136.87
306.094	100.01
306.308	81.58
306.522	77.48
306.736	65.19
306.95	67.24
307.164	65.19
307.379	69.29
307.593	120.49
307.807	65.19
308.021	59.05
308.235	138.92
308.449	61.1
308.663	77.48
308.877	130.73
309.091	73.39
309.305	102.06
309.519	28.33
309.733	87.72
309.947	-12.63
310.161	18.09
310.374	52.91
310.588	114.34
310.802	91.82
311.016	11.95
311.23	34.47
311.444	44.71
311.658	52.91
311.872	124.58
312.085	97.96
312.299	159.4
312.513	108.2
312.727	126.63
312.941	-0.34
313.154	95.91
313.368	57
313.582	-0.34
313.796	3.75
314.009	63.15
314.223	108.2
314.437	134.82
314.651	40.62
314.864	208.55
315.078	110.25
315.292	120.49
315.505	67.24
315.719	114.34
315.933	89.77
316.146	30.38
316.36	9.9
316.573	169.64
316.787	89.77
317.001	128.68
317.214	81.58
317.428	7.85
317.641	7.85
317.855	71.34
318.068	32.43
318.282	40.62
318.495	165.54
318.709	83.63
318.922	102.06
319.136	61.1
319.349	42.67
319.563	65.19
319.776	91.82
319.99	91.82
320.203	124.58
320.417	69.29
320.63	110.25
320.843	93.87
321.057	54.95
321.27	104.11
321.483	104.11
321.697	61.1
321.91	67.24
322.124	132.78
322.337	159.4
322.55	102.06
322.763	69.29
322.977	155.3
323.19	7.85
323.403	93.87
323.617	50.86
323.83	112.3
324.043	-0.34
324.256	93.87
324.469	67.24
324.683	71.34
324.896	50.86
325.109	140.97
325.322	77.48
325.535	102.06
325.748	71.34
325.962	77.48
326.175	75.43
326.388	40.62
326.601	87.72
326.814	7.85
327.027	57
327.24	159.4
327.453	61.1
327.666	44.71
327.879	77.48
328.092	87.72
328.305	71.34
328.518	97.96
328.731	116.39
328.944	89.77
329.157	54.95
329.37	67.24
329.583	179.88
329.796	61.1
330.009	-14.68
330.222	110.25
330.435	59.05
330.648	114.34
330.861	57
331.073	132.78
331.286	46.76
331.499	145.06
331.712	28.33
331.925	132.78
332.138	65.19
332.35	151.21
332.563	-43.35
332.776	100.01
332.989	67.24
333.202	81.58
333.414	97.96
333.627	77.48
333.84	75.43
334.053	89.77
334.265	42.67
334.478	87.72
334.691	73.39
334.903	122.54
335.116	44.71
335.329	118.44
335.541	118.44
335.754	122.54
335.966	85.67
336.179	44.71
336.392	93.87
336.604	110.25
336.817	102.06
337.029	167.59
337.242	97.96
337.454	87.72
337.667	122.54
337.88	167.59
338.092	93.87
338.305	110.25
338.517	89.77
338.729	89.77
338.942	159.4
339.154	97.96
339.367	69.29
339.579	46.76
339.792	13.99
340.004	65.19
340.217	75.43
340.429	118.44
340.641	36.52
340.854	61.1
341.066	48.81
341.278	-2.39
341.491	108.2
341.703	93.87
341.915	108.2
342.128	91.82
342.34	69.29
342.552	120.49
342.764	171.69
342.977	67.24
343.189	73.39
343.401	65.19
343.613	7.85
343.826	85.67
344.038	7.85
344.25	136.87
344.462	120.49
344.674	48.81
344.886	108.2
345.099	116.39
345.311	114.34
345.523	93.87
345.735	116.39
345.947	46.76
346.159	147.11
346.371	83.63
346.583	83.63
346.795	138.92
347.007	67.24
347.219	85.67
347.431	65.19
347.643	106.15
347.855	32.43
348.067	13.99
348.279	50.86
348.491	79.53
348.703	77.48
348.915	93.87
349.127	75.43
349.339	128.68
349.551	40.62
349.763	79.53
349.975	65.19
350.187	124.58
350.399	114.34
350.61	-4.44
350.822	52.91
351.034	140.97
351.246	102.06
351.458	153.26
351.669	69.29
351.881	106.15
352.093	108.2
352.305	134.82
352.517	122.54
352.728	124.58
352.94	95.91
353.152	102.06
353.363	52.91
353.575	95.91
353.787	93.87
353.999	30.38
354.21	116.39
354.422	85.67
354.633	108.2
354.845	16.04
355.057	114.34
355.268	100.01
355.48	67.24
355.692	149.16
355.903	87.72
356.115	89.77
356.326	59.05
356.538	110.25
356.749	67.24
356.961	147.11
357.172	134.82
357.384	52.91
357.595	110.25
357.807	145.06
358.018	85.67
358.23	24.23
358.441	212.65
358.653	157.35
358.864	97.96
359.075	116.39
359.287	81.58
359.498	65.19
359.709	73.39
359.921	110.25
360.132	128.68
360.344	138.92
360.555	69.29
360.766	100.01
360.977	85.67
361.189	85.67
361.4	81.58
361.611	57
361.823	155.3
362.034	102.06
362.245	83.63
362.456	73.39
362.667	112.3
362.879	89.77
363.09	110.25
363.301	147.11
363.512	132.78
363.723	97.96
363.935	93.87
364.146	163.5
364.357	48.81
364.568	57
364.779	16.04
364.99	134.82
365.201	128.68
365.412	102.06
365.623	102.06
365.834	159.4
366.045	73.39
366.256	155.3
366.467	85.67
366.678	100.01
366.889	7.85
367.1	89.77
367.311	116.39
367.522	79.53
367.733	97.96
367.944	181.93
368.155	102.06
368.366	186.02
368.577	112.3
368.788	93.87
368.999	30.38
369.209	171.69
369.42	110.25
369.631	167.59
369.842	122.54
370.053	140.97
370.264	128.68
370.474	118.44
370.685	67.24
370.896	177.83
371.107	130.73
371.317	110.25
371.528	93.87
371.739	81.58
371.95	85.67
372.16	159.4
372.371	85.67
372.582	91.82
372.792	77.48
373.003	77.48
373.214	83.63
373.424	42.67
373.635	106.15
373.846	126.63
374.056	128.68
374.267	46.76
374.477	93.87
374.688	147.11
374.898	106.15
375.109	128.68
375.319	110.25
375.53	89.77
375.74	114.34
375.951	67.24
376.161	87.72
376.372	110.25
376.582	87.72
376.793	145.06
377.003	93.87
377.214	93.87
377.424	93.87
377.635	126.63
377.845	26.28
378.055	116.39
378.266	130.73
378.476	159.4
378.686	175.78
378.897	71.34
379.107	102.06
379.317	138.92
379.528	91.82
379.738	118.44
379.948	100.01
380.158	157.35
380.369	69.29
380.579	112.3
380.789	89.77
380.999	40.62
381.21	116.39
381.42	110.25
381.63	79.53
381.84	161.45
382.05	175.78
382.261	87.72
382.471	165.54
382.681	116.39
382.891	151.21
383.101	140.97
383.311	59.05
383.521	151.21
383.731	149.16
383.941	106.15
384.151	153.26
384.361	61.1
384.571	118.44
384.781	112.3
384.991	196.26
385.201	181.93
385.411	85.67
385.621	85.67
385.831	89.77
386.041	165.54
386.251	130.73
386.461	196.26
386.671	95.91
386.881	204.46
387.091	126.63
387.301	77.48
387.511	69.29
387.72	77.48
387.93	87.72
388.14	110.25
388.35	40.62
388.56	48.81
388.769	183.98
388.979	110.25
389.189	71.34
389.399	112.3
389.609	118.44
389.818	126.63
390.028	85.67
390.238	155.3
390.447	120.49
390.657	175.78
390.867	100.01
391.076	177.83
391.286	149.16
391.496	128.68
391.705	112.3
391.915	167.59
392.125	79.53
392.334	114.34
392.544	118.44
392.753	89.77
392.963	151.21
393.172	40.62
393.382	83.63
393.591	118.44
393.801	132.78
394.01	157.35
394.22	59.05
394.429	-2.39
394.639	122.54
394.848	75.43
395.058	157.35
395.267	132.78
395.477	145.06
395.686	153.26
395.895	116.39
396.105	138.92
396.314	179.88
396.524	159.4
396.733	155.3
396.942	79.53
397.152	120.49
397.361	171.69
397.57	122.54
397.78	134.82
397.989	151.21
398.198	210.6
398.407	147.11
398.617	235.18
398.826	196.26
399.035	132.78
399.244	151.21
399.453	155.3
399.663	173.74
399.872	179.88
400.081	100.01
400.29	167.59
400.499	32.43
400.708	165.54
400.917	214.7
401.127	167.59
401.336	226.98
401.545	222.89
401.754	171.69
401.963	140.97
402.172	204.46
402.381	204.46
402.59	196.26
402.799	229.03
403.008	214.7
403.217	188.07
403.426	179.88
403.635	149.16
403.844	253.61
404.053	198.31
404.262	216.74
404.471	224.94
404.68	216.74
404.888	208.55
405.097	196.26
405.306	267.94
405.515	274.09
405.724	173.74
405.933	134.82
406.142	151.21
406.35	218.79
406.559	243.37
406.768	251.56
406.977	231.08
407.185	241.32
407.394	290.47
407.603	255.65
407.812	323.24
408.02	249.51
408.229	343.72
408.438	276.13
408.646	245.41
408.855	347.81
409.064	272.04
409.272	331.43
409.481	429.73
409.69	319.14
409.898	378.53
410.107	409.25
410.315	382.63
410.524	452.26
410.733	407.2
410.941	382.63
411.15	419.49
411.358	460.45
411.567	517.79
411.775	470.69
411.984	515.75
412.192	528.03
412.401	499.36
412.609	644.77
412.818	523.94
413.026	652.96
413.234	564.9
413.443	632.48
413.651	759.46
413.86	720.54
414.068	751.26
414.276	745.12
414.485	753.31
414.693	839.33
414.901	837.28
415.11	902.81
415.318	802.46
415.526	868
415.734	1003.16
415.943	1064.6
416.151	1029.79
416.359	1037.98
416.567	1017.5
416.776	1062.55
416.984	1115.8
417.192	1230.49
417.4	1240.73
417.608	1154.71
417.817	1310.36
418.025	1367.7
418.233	1273.5
418.441	1289.88
418.649	1425.04
418.857	1539.73
419.065	1449.62
419.273	1531.54
419.481	1676.95
419.689	1674.9
419.897	1701.52
420.105	1760.91
420.313	1871.5
420.521	1877.65
420.729	1896.08
420.937	2031.24
421.145	2033.29
421.353	2176.65
421.561	2289.29
421.769	2307.72
421.977	2428.55
422.185	2410.12
422.393	2500.23
422.601	2688.64
422.809	2588.29
423.017	2780.8
423.224	2776.7
423.432	2881.15
423.64	3061.37
423.848	3298.94
424.056	3067.52
424.263	3427.96
424.471	3257.98
424.679	3288.7
424.887	3597.94
425.094	3659.38
425.302	3677.81
425.51	3812.98
425.718	3960.43
425.925	4068.97
426.133	4265.58
426.341	4388.46
426.548	4642.4
426.756	4679.27
426.964	4580.96
427.171	4818.53
427.379	5230.17
427.586	5181.02
427.794	5301.85
428.001	5693.01
428.209	5836.37
428.417	5740.12
428.624	6129.23
428.832	6172.24
429.039	6192.72
429.247	6170.19
429.454	6700.61
429.662	7044.67
429.869	6665.8
430.076	7155.26
430.284	7009.86
430.491	7325.24
430.699	7759.41
430.906	7659.06
431.114	7859.76
431.321	7962.16
431.528	8330.8
431.736	8767.01
431.943	9207.33
432.15	8799.78
432.358	9066.02
432.565	9500.19
432.772	9463.32
432.979	9854.48
433.187	10085.9
433.394	10085.9
433.601	11066.88
433.808	10823.17
434.016	10751.49
434.223	11107.84
434.43	11795.96
434.637	11699.7
434.844	12422.64
435.052	12586.47
435.259	12410.35
435.466	12903.91
435.673	12641.77
435.88	13403.61
436.087	14034.39
436.294	14022.1
436.501	13966.81
436.708	14032.34
436.915	14448.08
437.122	15015.37
437.329	15211.97
437.537	15578.56
437.743	15965.62
437.95	15781.31
438.157	16657.84
438.364	17261.99
438.571	17067.43
438.778	17317.28
438.985	19094.92
439.192	18347.41
439.399	18511.25
439.606	18453.91
439.813	19201.41
440.02	20616.56
440.227	20200.82
440.433	19885.44
440.64	20669.81
440.847	20700.53
441.054	21304.68
441.261	22381.91
441.467	22429.01
441.674	22412.63
441.881	23432.52
442.088	23553.35
442.294	23278.92
442.501	23967.04
442.708	24241.46
442.914	25265.45
443.121	26295.58
443.328	25701.67
443.534	27206.92
443.741	26658.07
443.948	26152.22
444.154	28316.92
444.361	27776.26
444.568	28013.82
444.774	28245.24
444.981	28632.31
445.187	29406.44
445.394	30743.77
445.6	30178.53
445.807	32998.58
446.013	31767.75
446.22	32292.03
446.426	33451.18
446.633	34172.07
446.839	34948.25
447.046	33666.22
447.252	35443.85
447.459	35194
447.665	35091.6
447.871	37010.55
448.078	38276.19
448.284	36324.48
448.491	37635.18
448.697	38749.28
448.903	39412.82
449.11	39683.15
449.316	38988.89
449.522	39607.37
449.728	40653.89
449.935	41024.57
450.141	41223.22
450.347	41583.66
450.553	40313.92
450.76	40993.85
450.966	42095.66
451.172	41833.52
451.378	42595.36
451.584	41833.52
451.791	42996.76
451.997	42755.1
452.203	43596.82
452.409	43263
452.615	43234.33
452.821	41548.85
453.027	41124.92
453.233	43295.77
453.44	41411.63
453.646	41833.52
453.852	42132.52
454.058	42900.51
454.264	41628.72
454.47	42224.68
454.676	40746.04
454.882	42382.37
455.088	38685.79
455.294	39507.02
455.5	40014.92
455.705	40225.86
455.911	38802.52
456.117	38204.52
456.323	37598.32
456.529	35873.93
456.735	37444.72
456.941	36074.63
457.147	35107.99
457.352	34456.73
457.558	34264.22
457.764	34219.17
457.97	33404.08
458.176	32715.96
458.381	32847.03
458.587	31458.51
458.793	31028.43
458.999	29588.71
459.204	31780.04
459.41	31046.86
459.616	28726.52
459.821	28787.96
460.027	28646.65
460.233	27921.66
460.438	26735.89
460.644	26877.2
460.85	25736.48
461.055	25140.52
461.261	25179.43
461.466	23319.88
461.672	22916.43
461.878	24362.29
462.083	22814.03
462.289	22441.3
462.494	22232.41
462.7	21165.42
462.905	20571.5
463.111	21456.23
463.316	21491.04
463.522	20766.06
463.727	21046.63
463.932	21216.61
464.138	20985.19
464.343	21058.92
464.549	20139.38
464.754	21124.46
464.959	20813.17
465.165	20788.59
465.37	19834.24
465.575	19447.17
465.781	20102.52
465.986	20321.65
466.191	19438.98
466.397	19213.7
466.602	18161.05
466.807	18998.66
467.012	18541.97
467.218	18726.28
467.423	18441.62
467.628	18791.82
467.833	19434.88
468.038	18695.57
468.244	18599.31
468.449	18779.53
468.654	18519.44
468.859	18269.59
469.064	18152.85
469.269	17290.66
469.474	17554.85
469.679	18040.22
469.885	17491.36
470.09	17730.97
470.295	17522.08
470.5	17046.95
470.705	17419.68
470.91	16684.46
471.115	16385.46
471.32	16856.49
471.525	16934.31
471.73	16455.09
471.935	16426.42
472.139	15762.87
472.344	15982.01
472.549	15861.18
472.754	15848.89
472.959	15453.63
473.164	15109.57
473.369	14931.4
473.574	15324.61
473.778	15064.52
473.983	15066.56
474.188	14800.33
474.393	14400.97
474.598	14554.57
474.802	14126.55
475.007	14198.23
475.212	14040.53
475.417	13587.93
475.621	13696.47
475.826	13667.8
476.031	13376.99
476.235	13374.94
476.44	13479.39
476.645	13084.13
476.849	13172.19
477.054	13037.03
477.259	12875.24
477.463	12932.58
477.668	12488.17
477.872	12600.81
478.077	12420.59
478.282	12340.72
478.486	12201.46
478.691	12062.19
478.895	12017.14
479.1	11879.93
479.304	11984.37
479.509	11707.9
479.713	11896.31
479.918	11654.65
480.122	11355.65
480.326	11695.61
480.531	11447.8
480.735	11283.97
480.94	11322.88
481.144	11820.53
481.348	11187.71
481.553	11374.08
481.757	11144.7
481.961	11228.67
482.166	11427.32
482.37	11191.81
482.574	10896.9
482.778	11218.43
482.983	11542.01
483.187	11130.37
483.391	11363.84
483.595	11181.57
483.8	10993.15
484.004	11087.36
484.208	11271.68
484.412	11230.72
484.616	11099.65
484.821	11093.51
485.025	11156.99
485.229	11185.66
485.433	11214.34
485.637	11161.09
485.841	10958.34
486.045	11126.27
486.249	10997.25
486.453	10882.56
486.657	10976.77
486.861	11202.05
487.065	10874.37
487.269	11257.34
487.473	10968.58
487.677	11439.61
487.881	11109.89
488.085	11226.62
488.289	11382.27
488.493	11238.91
488.697	11140.61
488.901	11167.23
489.105	11113.99
489.309	11382.27
489.512	11292.16
489.716	11488.76
489.92	11245.06
490.124	11169.28
490.328	11417.08
490.531	11304.45
490.735	11488.76
490.939	11529.72
491.143	11738.62
491.346	11417.08
491.55	11789.81
491.754	11683.32
491.958	11783.67
492.161	11931.12
492.365	11689.46
492.569	11855.35
492.772	11886.07
492.976	11982.32
493.18	11861.49
493.383	12264.94
493.587	12207.6
493.79	12330.48
493.994	12072.43
494.197	12396.01
494.401	12430.83
494.605	12723.69
494.808	12785.13
495.012	12768.74
495.215	13155.81
495.419	12957.16
495.622	12881.38
495.825	12875.24
496.029	12850.66
496.232	13313.5
496.436	13262.3
496.639	13772.25
496.843	13288.93
497.046	13692.38
497.249	14155.22
497.453	14218.71
497.656	14222.8
497.859	14226.9
498.063	14306.77
498.266	14749.13
498.469	14562.76
498.673	14783.95
498.876	15066.56
499.079	14945.73
499.282	15134.15
499.485	15666.62
499.689	15736.25
499.892	15744.44
500.095	15889.85
500.298	16494
500.501	16141.75
500.705	16739.76
500.908	16872.87
501.111	16995.75
501.314	16985.51
501.517	17124.77
501.72	17421.73
501.923	17610.14
502.126	17814.94
502.329	18236.82
502.532	18445.71
502.735	18421.14
502.938	18679.18
503.141	18816.4
503.344	19080.58
503.547	19189.13
503.75	19684.73
503.953	19631.49
504.156	19754.37
504.359	20131.19
504.562	20362.61
504.765	20596.08
504.968	20827.5
505.17	21263.72
505.373	20938.09
505.576	21497.19
505.779	21788
505.982	21851.49
506.185	22080.86
506.387	22537.55
506.59	22412.63
506.793	23186.76
506.996	22879.57
507.198	23807.3
507.401	23248.2
507.604	23780.67
507.807	23958.85
508.009	24575.28
508.212	24421.69
508.415	24720.69
508.617	24991.02
508.82	25552.16
509.022	25242.92
509.225	26004.77
509.428	25982.24
509.63	26223.9
509.833	26387.74
510.035	27018.51
510.238	26981.65
510.44	27294.99
510.643	27493.64
510.845	27876.61
511.048	27874.56
511.25	28407.03
511.453	28224.76
511.655	29502.7
511.858	29261.04
512.06	29402.35
512.262	30086.37
512.465	29857
512.667	30176.48
512.87	30610.65
513.072	30739.67
513.274	31655.11
513.477	31589.58
513.679	31771.85
513.881	31993.03
514.084	32240.83
514.286	32390.33
514.488	32670.9
514.69	33539.24
514.893	33914.02
515.095	33821.86
515.297	33969.32
515.499	34266.27
515.701	34593.95
515.904	34983.06
516.106	35212.43
516.308	35728.52
516.51	36168.83
516.712	36121.73
516.914	36584.57
517.116	37010.55
517.318	36740.22
517.52	37526.64
517.722	37743.72
517.925	38255.71
518.127	38831.19
518.329	38935.64
518.531	38671.45
518.733	39601.23
518.935	40031.3
519.136	39949.39
519.338	40504.38
519.54	40719.42
519.742	40774.72
519.944	41096.25
520.146	42177.58
520.348	41862.19
520.55	42253.35
520.752	42773.53
520.954	42783.77
521.155	43291.67
521.357	43451.41
521.559	43930.64
521.761	44434.44
521.963	44362.76
522.164	44610.56
522.366	44731.39
522.568	45153.27
522.77	45603.83
522.971	46306.28
523.173	46040.04
523.375	46416.87
523.576	46412.77
523.778	46558.18
523.98	46953.44
524.181	47522.77
524.383	47297.5
524.584	47948.75
524.786	47981.52
524.988	47561.68
525.189	48667.59
525.391	48763.84
525.592	49161.15
525.794	48966.59
525.995	48993.22
526.197	49284.03
526.398	49261.5
526.6	49980.34
526.801	50039.73
527.003	50320.3
527.204	50242.48
527.406	50559.91
527.607	50373.55
527.808	51065.76
528.01	50709.41
528.211	50607.01
528.412	51856.28
528.614	51528.6
528.815	51360.67
529.016	52036.5
529.218	52050.83
529.419	51719.06
529.62	52136.85
529.822	51856.28
530.023	52233.1
530.224	52257.68
530.425	52048.78
530.626	52204.43
530.828	51786.64
531.029	52976.51
531.23	52231.05
531.431	52368.27
531.632	52829.06
531.833	52728.71
532.035	52872.07
532.236	52792.2
532.437	53558.14
532.638	53044.1
532.839	53160.83
533.04	53320.57
533.241	52687.75
533.442	53930.87
533.643	53392.25
533.844	53496.7
534.045	53252.99
534.246	52919.17
534.447	53605.24
534.648	53353.34
534.849	53703.54
535.05	53195.65
535.251	53660.54
535.451	53752.69
535.652	53861.24
535.853	53586.81
536.054	53136.26
536.255	53953.4
536.456	53341.05
536.657	54502.25
536.857	53412.73
537.058	53736.31
537.259	54004.59
537.46	54156.14
537.66	53560.19
537.861	54100.85
538.062	53527.42
538.263	53787.51
538.463	53580.67
538.664	53482.36
538.865	54240.11
539.065	54014.83
539.266	53312.38
539.466	54430.57
539.667	53617.53
539.868	53896.05
540.068	53740.41
540.269	53697.4
540.469	54385.52
540.67	54106.99
540.87	53535.61
541.071	53726.07
541.271	53937.01
541.472	53803.89
541.672	53633.91
541.873	53558.14
542.073	53150.59
542.274	54350.7
542.474	53494.65
542.675	53195.65
542.875	54014.83
543.075	53597.05
543.276	53273.47
543.476	54051.7
543.676	53822.33
543.877	53863.28
544.077	53683.06
544.277	53803.89
544.478	53721.97
544.678	54072.18
544.878	53402.49
545.078	53621.62
545.279	53498.75
545.479	53638.01
545.679	53875.57
545.879	53506.94
546.079	53855.09
546.28	53396.35
546.48	53502.84
546.68	53404.54
546.88	53717.88
547.08	53142.4
547.28	53222.27
547.48	53052.29
547.68	53969.78
547.88	53271.42
548.081	53674.87
548.281	53533.56
548.481	53508.99
548.681	53414.78
548.881	53146.5
549.081	53586.81
549.28	52958.08
549.48	53519.23
549.68	53107.58
549.88	53758.84
550.08	52802.44
550.28	53701.5
550.48	53236.61
550.68	53689.21
550.88	53416.83
551.08	53408.64
551.279	53453.69
551.479	52794.25
551.679	53304.19
551.879	53117.82
552.079	53537.66
552.278	53130.11
552.478	53074.82
552.678	52999.04
552.878	53769.08
553.077	53310.33
553.277	52884.36
553.477	53826.42
553.676	52794.25
553.876	52667.27
554.076	52925.32
554.275	52704.13
554.475	52241.29
554.674	53134.21
554.874	52835.2
555.074	52829.06
555.273	52607.88
555.473	52853.64
555.672	52736.9
555.872	52421.51
556.071	52986.75
556.271	53134.21
556.47	52175.76
556.67	51991.44
556.869	52648.84
557.068	52427.66
557.268	52421.51
557.467	52503.43
557.667	52327.31
557.866	52495.24
558.065	52216.72
558.265	51973.01
558.464	52286.35
558.663	52462.47
558.863	51463.07
559.062	52519.82
559.261	51553.18
559.461	52614.02
559.66	51098.53
559.859	51557.27
560.058	51348.38
560.258	51413.91
560.457	51133.34
560.656	51878.8
560.855	51262.36
561.054	51180.45
561.253	50944.93
561.453	51487.64
561.652	51776.4
561.851	51624.85
562.05	51016.61
562.249	50754.47
562.448	51268.51
562.647	50733.99
562.846	51084.19
563.045	50422.7
563.244	50246.57
563.443	50459.56
563.642	50256.81
563.841	50111.41
564.04	50095.02
564.239	50191.28
564.438	49849.27
564.637	50275.24
564.836	49908.66
565.035	49619.89
565.234	49914.8
565.432	49552.31
565.631	49800.11
565.83	49423.29
566.029	49476.54
566.228	49263.55
566.427	49206.2
566.625	48937.92
566.824	48817.09
567.023	49271.74
567.222	48296.91
567.42	49185.72
567.619	48466.89
567.818	48509.89
568.016	48423.88
568.215	48495.56
568.414	48640.96
568.612	48903.1
568.811	48427.98
569.01	48057.29
569.208	47565.78
569.407	48452.55
569.605	47623.12
569.804	48307.15
570.002	47299.54
570.201	48032.72
570.4	47494.1
570.598	47193.05
570.797	47109.08
570.995	47086.56
571.193	46539.75
571.392	47330.26
571.59	46848.99
571.789	46816.22
571.987	46859.23
572.186	46750.69
572.384	46398.44
572.582	46873.57
572.781	46828.51
572.979	45865.97
573.177	46035.95
573.376	46246.89
573.574	45695.99
573.772	45906.93
573.971	45868.01
574.169	45521.91
574.367	45183.99
574.565	45337.59
574.763	45370.36
574.962	45206.52
575.16	45034.49
575.358	45171.71
575.556	44585.99
575.754	45028.35
575.952	44293.13
576.151	45177.85
576.349	44086.28
576.547	44407.81
576.745	44573.7
576.943	44266.5
577.141	44334.09
577.339	44385.29
577.537	43861.01
577.735	44176.39
577.933	43394.07
578.131	43770.89
578.329	43428.88
578.527	43340.82
578.725	43828.24
578.923	43508.75
579.121	43306.01
579.319	42916.89
579.516	43516.95
579.714	43201.56
579.912	42630.18
580.11	42736.67
580.308	42521.63
580.506	42777.63
580.704	41819.18
580.901	42535.97
581.099	42736.67
581.297	41774.13
581.495	41899.05
581.692	42439.72
581.89	41862.19
582.088	42017.83
582.285	41864.24
582.483	42050.6
582.681	41872.43
582.878	41487.41
583.076	41100.34
583.274	41501.75
583.471	40965.18
583.669	40817.72
583.866	40320.07
584.064	41182.26
584.262	40195.14
584.459	40731.71
584.657	40199.24
584.854	40574.02
585.052	40041.54
585.249	40655.93
585.447	40252.48
585.644	39695.44
585.841	40057.93
586.039	40225.86
586.236	39433.3
586.434	39787.6
586.631	39627.85
586.828	39425.11
587.026	39287.89
587.223	39423.06
587.42	39189.59
587.618	39154.77
587.815	39167.06
588.012	38632.54
588.21	38229.09
588.407	39398.48
588.604	38624.35
588.801	38093.93
588.999	38257.76
589.196	38282.34
589.393	38245.48
589.59	38210.66
589.787	38294.63
589.984	37733.48
590.182	37352.56
590.379	37999.72
590.576	37479.53
590.773	37454.96
590.97	37563.5
591.167	37708.91
591.364	36871.29
591.561	37749.87
591.758	36652.16
591.955	36598.91
592.152	37229.68
592.349	36619.39
592.546	36955.25
592.743	36596.86
592.94	36119.68
593.137	36365.44
593.334	36682.87
593.531	36005
593.727	36023.43
593.924	36048
594.121	35951.75
594.318	36039.81
594.515	35628.17
594.712	36066.44
594.908	35849.35
595.105	35763.34
595.302	35198.1
595.499	35378.32
595.696	35026.07
595.892	35075.22
596.089	34892.95
596.286	34968.73
596.482	34725.02
596.679	34743.45
596.876	34749.59
597.072	34598.04
597.269	34725.02
597.466	34151.59
597.662	34301.09
597.859	34135.2
598.055	34548.89
598.252	34053.28
598.448	33873.06
598.645	33608.87
598.841	33277.1
599.038	33678.5
599.234	33932.45
599.431	33324.21
599.627	33510.57
599.824	33328.3
600.02	32947.38
600.217	33293.49
600.413	33082.55
600.609	32912.56
600.806	32965.81
601.002	32789.69
601.198	32703.67
601.395	32328.89
601.591	32697.53
601.787	32388.28
601.984	32126.14
602.18	32490.68
602.376	32126.14
602.572	32021.7
602.769	32001.22
602.965	31601.86
603.161	31722.69
603.357	31495.37
603.553	31360.2
603.75	31689.93
603.946	31493.32
604.142	31476.94
604.338	30983.38
604.534	31233.23
604.73	30659.8
604.926	30913.75
605.122	31083.73
605.318	30899.41
605.514	30983.38
605.71	30280.92
605.906	30844.12
606.102	30708.95
606.298	30655.7
606.494	30760.15
606.69	30508.25
606.886	30766.29
607.082	29875.43
607.278	30440.67
607.474	29826.28
607.67	30041.31
607.866	29637.86
608.062	30217.44
608.257	29670.63
608.453	29938.91
608.649	29754.6
608.845	29646.05
609.041	29865.19
609.236	29983.97
609.432	29299.95
609.628	29523.18
609.824	29408.49
610.019	29637.86
610.215	29351.15
610.411	29394.15
610.606	29013.23
610.802	29414.63
610.998	29052.14
611.193	29232.36
611.389	29152.49
611.584	28826.87
611.78	28955.89
611.976	28718.32
612.171	29086.96
612.367	28701.94
612.562	28636.41
612.758	28157.18
612.953	28564.73
613.149	28892.4
613.344	28218.62
613.539	29007.09
613.735	28423.42
613.93	28476.66
614.126	28419.32
614.321	28339.45
614.517	28296.44
614.712	28060.93
614.907	27759.88
615.103	28298.49
615.298	27852.03
615.493	28089.6
615.688	27737.35
615.884	28163.32
616.079	27841.79
616.274	27952.38
616.47	27915.52
616.665	27819.27
616.86	27792.64
617.055	27512.07
617.25	27598.09
617.445	27751.68
617.641	27555.08
617.836	27694.34
618.031	27006.22
618.226	27381
618.421	27247.88
618.616	27360.52
618.811	26805.52
619.006	27526.41
619.201	26600.72
619.396	26916.11
619.591	26295.58
619.786	26903.82
619.981	26203.42
620.176	26559.77
620.371	26182.94
620.566	26197.27
620.761	26049.82
620.956	26051.87
621.151	26041.63
621.346	26125.6
621.541	25615.65
621.735	25963.81
621.93	25351.46
622.125	25443.62
622.32	24982.83
622.515	25535.78
622.709	24876.34
622.904	24880.43
623.099	24855.86
623.294	25107.76
623.488	24470.84
623.683	24843.57
623.878	24233.27
624.072	24130.87
624.267	24096.06
624.462	24057.15
624.656	23829.82
624.851	23846.21
625.046	23467.33
625.24	23723.33
625.435	23160.14
625.629	23407.94
625.824	23221.58
626.018	23258.44
626.213	22613.33
626.407	23061.83
626.602	22695.25
626.796	22867.28
626.991	22717.78
627.185	22529.36
627.38	22467.92
627.574	22011.23
627.768	22037.85
627.963	21917.02
628.157	21638.5
628.352	22023.51
628.546	21562.72
628.74	21761.37
628.935	21319.01
629.129	21503.33
629.323	21048.68
629.517	21282.15
629.712	20917.61
629.906	21050.73
630.1	20610.42
630.294	20651.38
630.489	20696.43
630.683	20444.53
630.877	19910.01
631.071	20661.62
631.265	20514.16
631.459	20032.89
631.653	20206.97
631.848	20112.76
632.042	20057.46
632.236	19668.35
632.43	19568
632.624	19719.55
632.818	19549.57
633.012	19256.71
633.206	19346.82
633.4	19379.59
633.594	18750.86
633.788	19002.76
633.982	18963.85
634.176	18859.4
634.369	18759.05
634.563	18376.08
634.757	18279.83
634.951	18470.29
635.145	18290.07
635.339	18367.89
635.533	18392.47
635.726	18144.66
635.92	17786.27
636.114	18001.3
636.308	17802.65
636.501	17724.83
636.695	17558.94
636.889	17454.5
637.083	17493.41
637.276	17542.56
637.47	17143.21
637.664	17114.53
637.857	17382.82
638.051	17087.91
638.244	16811.43
638.438	16858.54
638.632	16930.22
638.825	16756.14
639.019	16692.65
639.212	16373.17
639.406	16350.64
639.599	16440.75
639.793	16524.72
639.986	16358.83
640.18	16012.73
640.373	16199.09
640.567	15670.72
640.76	15779.26
640.954	15793.59
641.147	15621.56
641.34	15601.08
641.534	15744.44
641.727	15513.02
641.92	15470.01
642.114	15455.68
642.307	15343.04
642.5	15238.59
642.694	14790.09
642.887	15125.96
643.08	14939.59
643.273	14980.55
643.467	14740.94
643.66	14622.16
643.853	14458.32
644.046	14464.46
644.239	14575.05
644.432	14577.1
644.626	14292.43
644.819	14306.77
645.012	14208.47
645.205	13831.64
645.398	14255.57
645.591	13923.8
645.784	14144.98
645.977	13497.82
646.17	13852.12
646.363	13651.42
646.556	13692.38
646.749	13643.23
646.942	13643.23
647.135	13260.26
647.328	13221.34
647.521	13229.54
647.714	13047.27
647.907	13272.54
648.099	13223.39
648.292	13133.28
648.485	13178.34
648.678	12801.51
648.871	12703.21
649.064	12787.18
649.256	13032.93
649.449	12613.1
649.642	12774.89
649.835	12393.97
650.027	12535.28
650.22	12678.63
650.413	12398.06
650.605	12260.85
650.798	12176.88
650.991	11988.47
651.183	12180.98
651.376	12070.39
651.568	11822.58
651.761	11843.06
651.954	12070.39
652.146	11697.66
652.339	11828.73
652.531	11785.72
652.724	11707.9
652.916	11398.65
653.109	11333.12
653.301	11562.49
653.494	11470.33
653.686	11263.49
653.879	11466.24
654.071	11265.53
654.263	11118.08
654.456	10984.96
654.648	11243.01
654.84	10880.52
655.033	10968.58
655.225	10933.76
655.417	10911.24
655.61	10718.73
655.802	10884.61
655.994	10569.23
656.186	10657.29
656.379	10520.07
656.571	10477.07
656.763	10366.48
656.955	10364.43
657.148	10186.26
657.34	10604.04
657.532	10137.1
657.724	10231.31
657.916	10372.62
658.108	10210.83
658.3	10176.02
658.492	10120.72
658.684	9983.51
658.876	9879.06
659.068	9815.57
659.26	9799.19
659.452	9840.15
659.644	9711.13
659.836	9545.24
660.028	9960.98
660.22	9526.81
660.412	9330.2
660.604	9487.9
660.796	9473.56
660.988	9295.39
661.18	9285.15
661.372	9080.35
661.563	9201.18
661.755	9039.39
661.947	9141.79
662.139	9158.17
662.331	8877.6
662.522	8939.04
662.714	8900.13
662.906	8963.62
663.097	8867.36
663.289	8715.81
663.481	8752.68
663.673	8629.8
663.864	8629.8
664.056	8398.38
664.247	8719.91
664.439	8492.59
664.631	8543.78
664.822	8633.89
665.014	8494.63
665.205	8433.19
665.397	8367.66
665.588	8369.71
665.78	8261.16
665.971	8218.16
666.163	8255.02
666.354	8089.14
666.546	8111.66
666.737	8064.56
666.929	7992.88
667.12	8062.51
667.311	7943.73
667.503	7956.02
667.694	7859.76
667.885	7925.3
668.077	7865.91
668.268	7767.6
668.459	7661.11
668.651	7716.4
668.842	7702.07
669.033	7556.66
669.224	7693.88
669.416	7503.42
669.607	7736.88
669.798	7315
669.989	7599.67
670.18	7341.63
670.371	7454.26
670.563	7360.06
670.754	7228.99
670.945	7241.28
671.136	7196.22
671.327	7284.28
671.518	7157.31
671.709	7163.45
671.9	7179.84
672.091	7142.97
672.282	6899.27
672.473	7153.21
672.664	6925.89
672.855	7036.48
673.046	7079.49
673.237	6878.79
673.428	6956.61
673.619	6917.7
673.809	6897.22
674	6917.7
674.191	7065.15
674.382	6882.88
674.573	6770.24
674.764	6856.26
674.954	6790.72
675.145	6684.23
675.336	6630.98
675.527	6602.31
675.717	6563.4
675.908	6508.1
676.099	6628.93
676.289	6432.33
676.48	6497.86
676.671	6252.11
676.861	6442.57
677.052	6256.2
677.243	6440.52
677.433	6350.41
677.624	6317.64
677.814	6229.58
678.005	6327.88
678.195	6291.02
678.386	6307.4
678.576	6172.24
678.767	6155.85
678.957	6170.19
679.148	6256.2
679.338	6141.52
679.529	6041.17
679.719	6010.45
679.909	6129.23
680.1	5971.54
680.29	6057.55
680.481	6080.08
680.671	5949.01
680.861	5934.67
681.052	5965.39
681.242	5795.41
681.432	5936.72
681.622	5758.55
681.813	5748.31
682.003	5889.62
682.193	5709.4
682.383	5813.84
682.573	5607
682.764	5817.94
682.954	5727.83
683.144	5772.88
683.334	5652.05
683.524	5787.22
683.714	5688.92
683.904	5498.45
684.094	5709.4
684.284	5719.64
684.474	5670.48
684.664	5774.93
684.854	5776.98
685.044	5520.98
685.234	5432.92
685.424	5383.77
685.614	5473.88
685.804	5353.05
685.994	5494.36
686.184	5508.69
686.374	5459.54
686.564	5312.09
686.753	5492.31
686.943	5275.23
687.133	5256.79
687.323	5512.79
687.513	5095
687.702	5340.76
687.892	5123.68
688.082	5201.5
688.272	5385.82
688.461	5101.15
688.651	5187.16
688.841	5023.33
689.03	5199.45
689.22	5008.99
689.41	5008.99
689.599	4953.7
689.789	5045.85
689.979	5037.66
690.168	5027.42
690.358	5054.05
690.547	4914.78
690.737	4894.3
690.926	4722.27
691.116	4818.53
691.305	4963.93
691.495	4810.34
691.684	4793.95
691.874	4847.2
692.063	4738.66
692.252	4925.02
692.442	4767.33
692.631	4626.02
692.82	4662.88
693.01	4771.43
693.199	4609.64
693.388	4716.13
693.578	4654.69
693.767	4689.51
693.956	4591.2
694.146	4492.9
694.335	4482.66
694.524	4468.33
694.713	4689.51
694.902	4507.24
695.092	4507.24
695.281	4314.73
695.47	4519.53
695.659	4433.51
695.848	4552.29
696.037	4294.25
696.226	4410.98
696.415	4380.26
696.604	4431.46
696.793	4427.37
696.982	4509.29
697.171	4423.27
697.36	4402.79
697.549	4376.17
697.738	4236.91
697.927	4353.64
698.116	4247.15
698.305	4208.23
698.494	4406.89
698.683	4251.24
698.872	4357.74
699.061	4204.14
699.25	4271.72
699.438	4157.04
699.627	4253.29
699.816	4333.16
700.005	4216.43
700.193	4169.32
700.382	4304.49
700.571	4228.71
700.76	4132.46
700.948	4548.2
701.137	4255.34
701.326	4210.28
701.514	4288.11
701.703	3993.2
701.892	4329.06
702.08	4365.93
702.269	4109.93
702.457	4154.99
702.646	4126.32
702.834	4046.44
703.023	4120.17
703.212	4109.93
703.4	4169.32
703.589	4009.58
703.777	4060.78
703.965	3954.29
704.154	4021.87
704.342	4013.68
704.531	4013.68
704.719	4052.59
704.907	4042.35
705.096	4046.44
705.284	3982.96
705.472	3915.37
705.661	3933.81
705.849	4114.03
706.037	4025.97
706.226	3927.66
706.414	4038.25
706.602	3913.33
706.79	3985.01
706.979	3812.98
707.167	3948.14
707.355	3909.23
707.543	4042.35
707.731	4054.64
707.919	3942
708.107	3804.78
708.296	3903.09
708.484	4040.3
708.672	3923.57
708.86	3798.64
709.048	3769.97
709.236	3751.54
709.424	3794.54
709.612	3849.84
709.8	3862.13
709.988	3944.05
710.176	3841.65
710.364	3837.55
710.551	3704.43
710.739	3726.96
710.927	3696.24
711.115	3876.46
711.303	3663.47
711.491	3841.65
711.679	3847.79
711.866	3784.3
712.054	3767.92
712.242	3624.56
712.43	3688.05
712.617	3612.28
712.805	3638.9
712.993	3661.43
713.181	3669.62
713.368	3565.17
713.556	3604.08
713.744	3513.97
713.931	3677.81
714.119	3778.16
714.306	3606.13
714.494	3595.89
714.682	3552.88
714.869	3524.21
715.057	3495.54
715.244	3440.25
715.432	3655.28
715.619	3544.69
715.807	3624.56
715.994	3688.05
716.182	3579.51
716.369	3554.93
716.556	3731.06
716.744	3493.49
716.931	3626.61
717.119	3638.9
717.306	3524.21
717.493	3505.78
717.681	3499.64
717.868	3524.21
718.055	3571.32
718.242	3608.18
718.43	3477.11
718.617	3413.62
718.804	3507.83
718.991	3499.64
719.179	3473.01
719.366	3483.25
719.553	3405.43
719.74	3300.98
719.927	3415.67
720.114	3325.56
720.301	3401.33
720.488	3444.34
720.676	3413.62
720.863	3327.61
721.05	3436.15
721.237	3421.81
721.424	3327.61
721.611	3419.77
721.798	3348.09
721.985	3296.89
722.172	3231.35
722.358	3290.74
722.545	3219.07
722.732	3315.32
722.919	3214.97
723.106	3321.46
723.293	3212.92
723.48	3315.32
723.667	3333.75
723.853	3174.01
724.04	3311.22
724.227	3180.15
724.414	3411.57
724.6	3325.56
724.787	3178.11
724.974	3315.32
725.161	3247.74
725.347	3114.62
725.534	3204.73
725.72	3276.41
725.907	3288.7
726.094	3264.12
726.28	3077.76
726.467	3122.81
726.653	3106.43
726.84	3165.82
727.027	3163.77
727.213	3206.78
727.4	3114.62
727.586	3133.05
727.773	3219.07
727.959	3108.48
728.145	3153.53
728.332	3120.76
728.518	3145.34
728.705	3190.39
728.891	3112.57
729.077	3073.66
729.264	3075.71
729.45	3176.06
729.636	3106.43
729.823	3071.61
730.009	3098.24
730.195	3141.24
730.382	3034.75
730.568	3124.86
730.754	3083.9
730.94	3149.43
731.126	3071.61
731.313	3120.76
731.499	3106.43
731.685	3100.28
731.871	3071.61
732.057	3069.56
732.243	3047.04
732.429	3010.17
732.615	2946.69
732.801	3077.76
732.987	3008.12
733.173	3001.98
733.359	2981.5
733.545	3038.84
733.731	2879.1
733.917	2913.92
734.103	2901.63
734.289	3020.41
734.475	3032.7
734.661	3044.99
734.847	3006.08
735.033	2987.65
735.219	2920.06
735.404	3102.33
735.59	2967.17
735.776	2889.34
735.962	3049.08
736.148	2967.17
736.333	2901.63
736.519	2928.25
736.705	2993.79
736.89	2870.91
737.076	2956.93
737.262	3051.13
737.447	2903.68
737.633	2768.51
737.819	2889.34
738.004	2754.18
738.19	2809.47
738.375	2743.94
738.561	2825.86
738.747	2743.94
738.932	2817.66
739.118	2756.22
739.303	2864.77
739.489	2772.61
739.674	2723.46
739.859	2805.38
740.045	2805.38
740.23	2823.81
740.416	2717.31
740.601	2815.62
740.786	2809.47
740.972	2633.35
741.157	2721.41
741.342	2776.7
741.528	2627.2
741.713	2668.16
741.898	2641.54
742.084	2643.59
742.269	2571.91
742.454	2604.67
742.639	2621.06
742.824	2705.03
743.01	2680.45
743.195	2684.55
743.38	2723.46
743.565	2473.6
743.75	2543.24
743.935	2520.71
744.12	2684.55
744.305	2467.46
744.49	2514.56
744.675	2582.15
744.86	2578.05
745.045	2498.18
745.23	2608.77
745.415	2383.49
745.6	2446.98
745.785	2422.41
745.97	2377.35
746.155	2438.79
746.34	2451.08
746.525	2436.74
746.71	2598.53
746.895	2338.44
747.079	2338.44
747.264	2326.15
747.449	2434.69
747.634	2375.3
747.819	2311.82
748.003	2197.13
748.188	2293.38
748.373	2233.99
748.557	2188.94
748.742	2266.76
748.927	2225.8
749.111	2182.79
749.296	2117.26
749.481	2207.37
749.665	2152.07
749.85	2246.28
750.034	2123.4
750.219	2162.31
750.404	2074.25
750.588	2055.82
750.773	2088.59
750.957	2000.52
751.141	2076.3
751.326	2018.96
751.51	1932.94
751.695	2039.44
751.879	2010.76
752.064	2070.16
752.248	1996.43
752.432	1996.43
752.617	1910.41
752.801	1918.61
752.985	1885.84
753.17	1887.89
753.354	1949.32
753.538	1836.69
753.722	1797.78
753.907	1891.98
754.091	1873.55
754.275	1855.12
754.459	1812.11
754.643	1773.2
754.828	1740.43
755.012	1785.49
755.196	1758.86
755.38	1736.34
755.564	1789.58
755.748	1752.72
755.932	1730.19
756.116	1752.72
756.3	1631.89
756.484	1631.89
756.668	1605.27
756.852	1703.57
757.036	1769.1
757.22	1621.65
757.404	1564.31
757.588	1592.98
757.772	1554.07
757.956	1670.8
758.14	1609.36
758.323	1552.02
758.507	1623.7
758.691	1576.59
758.875	1560.21
759.059	1592.98
759.242	1547.92
759.426	1517.2
759.61	1437.33
759.794	1404.57
759.977	1369.75
760.161	1566.35
760.345	1470.1
760.528	1468.05
760.712	1455.76
760.895	1521.3
761.079	1418.9
761.263	1406.61
761.446	1435.28
761.63	1494.68
761.813	1320.6
761.997	1310.36
762.18	1304.21
762.364	1400.47
762.547	1418.9
762.731	1416.85
762.914	1441.43
763.098	1406.61
763.281	1369.75
763.464	1347.22
763.648	1310.36
763.831	1283.74
764.015	1234.58
764.198	1388.18
764.381	1205.91
764.564	1336.98
764.748	1322.65
764.931	1318.55
765.114	1334.93
765.297	1281.69
765.481	1236.63
765.664	1328.79
765.847	1185.43
766.03	1293.97
766.213	1222.3
766.397	1271.45
766.58	1334.93
766.763	1367.7
766.946	1267.35
767.129	1187.48
767.312	1183.38
767.495	1255.06
767.678	1160.86
767.861	1212.06
768.044	1179.29
768.227	1253.02
768.41	1257.11
768.593	1207.96
768.776	1132.19
768.959	1205.91
769.142	1179.29
769.324	1218.2
769.507	1105.56
769.69	1207.96
769.873	1169.05
770.056	1169.05
770.239	1050.27
770.421	1212.06
770.604	1132.19
770.787	1177.24
770.97	1128.09
771.152	1103.51
771.335	1076.89
771.518	1021.6
771.7	1113.75
771.883	1083.03
772.066	1156.76
772.248	1078.94
772.431	1126.04
772.613	1095.32
772.796	1111.71
772.978	1070.75
773.161	1128.09
773.343	1105.56
773.526	1056.41
773.708	1011.36
773.891	1058.46
774.073	1093.27
774.256	1064.6
774.438	1107.61
774.621	913.05
774.803	1015.45
774.985	964.25
775.168	964.25
775.35	1011.36
775.532	917.15
775.715	863.9
775.897	859.81
776.079	958.11
776.261	1009.31
776.444	943.77
776.626	888.48
776.808	902.81
776.99	900.76
777.173	919.2
777.355	876.19
777.537	900.76
777.719	833.18
777.901	847.52
778.083	843.42
778.265	835.23
778.447	861.85
778.629	865.95
778.811	798.37
778.993	790.17
779.175	884.38
779.357	900.76
779.539	806.56
779.721	827.04
779.903	773.79
780.085	798.37
780.267	810.65
780.449	802.46
780.631	761.5
780.812	759.46
780.994	734.88
781.176	724.64
781.358	732.83
781.54	761.5
781.721	753.31
781.903	784.03
782.085	673.44
782.267	677.54
782.448	679.58
782.63	667.3
782.812	657.06
782.993	753.31
783.175	759.46
783.357	661.15
783.538	716.45
783.72	683.68
783.901	734.88
784.083	638.62
784.264	652.96
784.446	677.54
784.627	714.4
784.809	704.16
784.99	626.34
785.172	644.77
785.353	595.62
785.535	620.19
785.716	583.33
785.897	646.82
786.079	648.86
786.26	652.96
786.441	644.77
786.623	614.05
786.804	624.29
786.985	622.24
787.167	622.24
787.348	630.43
787.529	571.04
787.71	603.81
787.891	632.48
788.073	554.66
788.254	579.23
788.435	648.86
788.616	515.75
788.797	528.03
788.978	538.27
789.159	550.56
789.34	616.1
789.522	532.13
789.703	548.51
789.884	528.03
790.065	472.74
790.246	462.5
790.427	519.84
790.607	530.08
790.788	511.65
790.969	489.12
791.15	581.28
791.331	470.69
791.512	423.59
791.693	392.87
791.874	507.55
792.054	517.79
792.235	460.45
792.416	454.31
792.597	487.08
792.778	507.55
792.958	485.03
793.139	409.25
793.32	458.4
793.5	485.03
793.681	493.22
793.862	478.88
794.042	478.88
794.223	462.5
794.404	413.35
794.584	437.92
794.765	405.16
794.945	446.12
795.126	466.6
795.306	388.77
795.487	392.87
795.667	343.72
795.848	485.03
796.028	421.54
796.209	464.55
796.389	429.73
796.57	392.87
796.75	403.11
796.93	390.82
797.111	417.44
797.291	456.36
797.471	310.95
797.652	384.68
797.832	390.82
798.012	493.22
798.192	388.77
798.373	366.25
798.553	386.72
798.733	294.57
798.913	304.81
799.093	380.58
799.274	396.96
799.454	409.25
799.634	399.01
799.814	405.16
799.994	421.54
800.174	423.59
800.354	347.81
800.534	345.77
800.714	358.05
800.894	358.05
801.074	358.05
801.254	376.48
801.434	392.87
801.614	335.53
801.794	337.57
801.974	673.44
802.154	358.05
802.334	360.1
802.514	366.25
802.693	304.81
802.873	339.62
803.053	317.09
803.233	325.29
803.413	286.37
803.592	372.39
803.772	333.48
803.952	390.82
804.131	278.18
804.311	339.62
804.491	360.1
804.67	360.1
804.85	257.7
805.03	290.47
805.209	382.63
805.389	255.65
805.568	276.13
805.748	280.23
805.928	325.29
806.107	276.13
806.287	335.53
806.466	267.94
806.646	364.2
806.825	337.57
807.004	306.85
807.184	333.48
807.363	315.05
807.543	282.28
807.722	288.42
807.901	349.86
808.081	360.1
808.26	253.61
808.439	249.51
808.619	315.05
808.798	247.46
808.977	259.75
809.156	331.43
809.336	280.23
809.515	243.37
809.694	249.51
809.873	286.37
810.052	327.33
810.231	331.43
810.411	325.29
810.59	313
810.769	321.19
810.948	276.13
811.127	302.76
811.306	288.42
811.485	241.32
811.664	274.09
811.843	280.23
812.022	269.99
812.201	272.04
812.38	323.24
812.559	177.83
812.737	315.05
812.916	261.8
813.095	206.5
813.274	288.42
813.453	220.84
813.632	294.57
813.811	247.46
813.989	226.98
814.168	253.61
814.347	292.52
814.526	229.03
814.704	274.09
814.883	226.98
815.062	282.28
815.24	245.41
815.419	192.17
815.598	171.69
815.776	237.22
815.955	229.03
816.133	147.11
816.312	261.8
816.49	210.6
816.669	255.65
816.847	241.32
817.026	224.94
817.204	239.27
817.383	204.46
817.561	261.8
817.74	231.08
817.918	274.09
818.097	200.36
818.275	136.87
818.453	140.97
818.632	179.88
818.81	249.51
818.988	153.26
819.167	263.85
819.345	167.59
819.523	247.46
819.701	241.32
819.879	212.65
820.058	183.98
820.236	294.57
820.414	200.36
820.592	192.17
820.77	192.17
820.948	222.89
821.127	183.98
821.305	218.79
821.483	175.78
821.661	241.32
821.839	157.35
822.017	134.82
822.195	198.31
822.373	231.08
822.551	177.83
822.729	169.64
822.907	190.12
823.085	267.94
823.262	130.73
823.44	284.33
823.618	181.93
823.796	173.74
823.974	183.98
824.152	114.34
824.329	67.24
824.507	269.99
824.685	179.88
824.863	149.16
825.04	134.82
825.218	267.94
825.396	179.88
825.574	177.83
825.751	243.37
825.929	222.89
826.107	212.65
826.284	171.69
826.462	183.98
826.639	214.7
826.817	198.31
826.994	188.07
827.172	186.02
827.349	188.07
827.527	104.11
827.704	196.26
827.882	122.54
828.059	173.74
828.237	147.11
828.414	169.64
828.591	157.35
828.769	231.08
828.946	143.02
829.124	173.74
829.301	159.4
829.478	138.92
829.655	181.93
829.833	157.35
830.01	106.15
830.187	169.64
830.364	159.4
830.542	132.78
830.719	175.78
830.896	220.84
831.073	130.73
831.25	112.3
831.427	145.06
831.604	151.21
831.782	196.26
831.959	97.96
832.136	59.05
832.313	149.16
832.49	87.72
832.667	167.59
832.844	130.73
833.021	229.03
833.198	128.68
833.374	122.54
833.551	255.65
833.728	173.74
833.905	52.91
834.082	81.58
834.259	110.25
834.436	206.5
834.612	102.06
834.789	134.82
834.966	118.44
835.143	112.3
835.319	194.22
835.496	157.35
835.673	177.83
835.85	253.61
836.026	124.58
836.203	210.6
836.38	83.63
836.556	116.39
836.733	108.2
836.909	143.02
837.086	89.77
837.262	75.43
837.439	132.78
837.616	102.06
837.792	130.73
837.968	79.53
838.145	85.67
838.321	110.25
838.498	149.16
838.674	171.69
838.851	106.15
839.027	73.39
839.203	102.06
839.38	151.21
839.556	130.73
839.732	157.35
839.909	100.01
840.085	167.59
840.261	112.3
840.437	116.39
840.614	81.58
840.79	175.78
840.966	93.87
841.142	171.69
841.318	151.21
841.494	83.63
841.671	128.68
841.847	95.91
842.023	120.49
842.199	192.17
842.375	122.54
842.551	-2.39
842.727	63.15
842.903	200.36
843.079	79.53
843.255	108.2
843.431	69.29
843.607	95.91
843.783	52.91
843.959	210.6
844.134	83.63
844.31	102.06
844.486	83.63
844.662	102.06
844.838	67.24
845.013	36.52
845.189	93.87
845.365	16.04
845.541	110.25
845.716	102.06
845.892	138.92
846.068	183.98
846.244	79.53
846.419	188.07
846.595	54.95
846.77	63.15
846.946	93.87
847.122	145.06
847.297	-4.44
847.473	63.15
847.648	57
847.824	122.54
847.999	124.58
848.175	108.2
848.35	69.29
848.526	134.82
848.701	173.74
848.876	126.63
849.052	83.63
849.227	153.26
849.403	95.91
849.578	73.39
849.753	75.43
849.929	122.54
850.104	44.71
850.279	143.02
850.454	124.58
850.63	110.25
850.805	143.02
850.98	95.91
851.155	124.58
851.33	145.06
851.505	50.86
851.681	102.06
851.856	87.72
852.031	114.34
852.206	112.3
852.381	63.15
852.556	163.5
852.731	40.62
852.906	169.64
853.081	71.34
853.256	89.77
853.431	75.43
853.606	110.25
853.781	59.05
853.956	44.71
854.131	112.3
854.305	110.25
854.48	149.16
854.655	50.86
854.83	122.54
855.005	57
855.18	114.34
855.354	59.05
855.529	106.15
855.704	140.97
855.879	128.68
856.053	87.72
856.228	77.48
856.403	69.29
856.577	79.53
856.752	91.82
856.926	128.68
857.101	128.68
857.276	30.38
857.45	75.43
857.625	167.59
857.799	116.39
857.974	26.28
858.148	44.71
858.323	48.81
858.497	3.75
858.672	130.73
858.846	61.1
859.02	110.25
859.195	-4.44
859.369	102.06
859.543	61.1
859.718	134.82
859.892	153.26
860.066	20.14
860.241	104.11
860.415	108.2
860.589	65.19
860.763	112.3
860.938	18.09
861.112	57
861.286	30.38
861.46	97.96
861.634	71.34
861.808	91.82
861.982	169.64
862.157	44.71
862.331	38.57
862.505	3.75
862.679	140.97
862.853	9.9
863.027	11.95
863.201	124.58
863.375	5.8
863.549	73.39
863.722	73.39
863.896	11.95
864.07	77.48
864.244	81.58
864.418	42.67
864.592	52.91
864.766	57
864.939	-0.34
865.113	110.25
865.287	40.62
865.461	-0.34
865.634	93.87
865.808	120.49
865.982	190.12
866.156	95.91
866.329	75.43
866.503	112.3
866.676	93.87
866.85	89.77
867.024	30.38
867.197	89.77
867.371	71.34
867.544	85.67
867.718	57
867.891	87.72
868.065	38.57
868.238	100.01
868.412	120.49
868.585	71.34
868.759	57
868.932	67.24
869.105	34.47
869.279	104.11
869.452	77.48
869.625	93.87
869.799	54.95
869.972	5.8
870.145	28.33
870.319	32.43
870.492	65.19
870.665	50.86
870.838	16.04
871.011	83.63
871.185	63.15
871.358	-6.49
871.531	65.19
871.704	126.63
871.877	73.39
872.05	-31.06
872.223	102.06
872.396	38.57
872.569	83.63
872.742	36.52
872.915	18.09
873.088	52.91
873.261	40.62
873.434	81.58
873.607	69.29
873.78	46.76
873.953	57
874.126	73.39
874.299	48.81
874.471	77.48
874.644	110.25
874.817	95.91
874.99	7.85
875.163	85.67
875.335	30.38
875.508	48.81
875.681	143.02
875.853	20.14
876.026	79.53
876.199	44.71
876.371	153.26
876.544	52.91
876.717	79.53
876.889	-6.49
877.062	91.82
877.234	9.9
877.407	59.05
877.579	77.48
877.752	95.91
877.924	26.28
878.097	59.05
878.269	79.53
878.442	83.63
878.614	112.3
878.786	83.63
878.959	44.71
879.131	26.28
879.303	69.29
879.476	147.11
879.648	97.96
879.82	34.47
879.993	67.24
880.165	36.52
880.337	26.28
880.509	38.57
880.681	16.04
880.854	36.52
881.026	46.76
881.198	73.39
881.37	97.96
881.542	79.53
881.714	97.96
881.886	3.75
882.058	75.43
882.23	54.95
882.402	67.24
882.574	63.15
882.746	32.43
882.918	100.01
883.09	28.33
883.262	28.33
883.434	65.19
883.606	81.58
883.778	-0.34
883.95	61.1
884.122	-18.77
884.293	52.91
884.465	36.52
884.637	36.52
884.809	120.49
884.98	65.19
885.152	91.82
885.324	-4.44
885.496	44.71
885.667	34.47
885.839	108.2
886.011	44.71
886.182	136.87
886.354	28.33
886.525	77.48
886.697	69.29
886.869	63.15
887.04	83.63
887.212	44.71
887.383	110.25
887.555	-4.44
887.726	18.09
887.897	-10.58
888.069	5.8
888.24	118.44
888.412	128.68
888.583	126.63
888.754	122.54
888.926	40.62
889.097	89.77
889.268	3.75
889.44	69.29
889.611	42.67
889.782	9.9
889.953	-18.77
890.125	81.58
890.296	-6.49
890.467	65.19
890.638	112.3
890.809	20.14
890.98	89.77
891.151	122.54
891.323	22.19
891.494	95.91
891.665	34.47
891.836	97.96
892.007	81.58
892.178	89.77
892.349	100.01
892.52	32.43
892.691	36.52
892.862	46.76
893.032	85.67
893.203	132.78
893.374	97.96
893.545	108.2
893.716	75.43
893.887	57
894.057	85.67
894.228	20.14
894.399	-16.73
894.57	7.85
894.74	75.43
894.911	75.43
895.082	48.81
895.253	13.99
895.423	67.24
895.594	50.86
895.764	44.71
895.935	32.43
896.106	-12.63
896.276	-22.87
896.447	50.86
896.617	81.58
896.788	16.04
896.958	9.9
897.129	-6.49
897.299	-6.49
897.47	24.23
897.64	36.52
897.81	-6.49
897.981	13.99
898.151	30.38
898.322	48.81
898.492	40.62
898.662	32.43
898.832	85.67
899.003	102.06
899.173	106.15
899.343	44.71
899.513	54.95
