Data from USB4F104151__106__11-07-12-859.txt Node

Date: Wed Mar 12 11:07:12 EDT 2025
User: louis
Spectrometer: USB4F10415
Trigger mode: 4
Integration Time (sec): 2.000000E-2
Scans to average: 1
Electric dark correction enabled: true
Nonlinearity correction enabled: false
Boxcar width: 0
XAxis mode: Wavelengths
Number of Pixels in Spectrum: 3648
>>>>>Begin Spectral Data<<<<<
178.204	-100.35
178.424	-100.35
178.644	-100.35
178.864	-88.06
179.084	-53.25
179.304	28.67
179.524	36.86
179.744	-59.39
179.964	36.86
180.184	55.3
180.404	14.34
180.624	-96.25
180.844	-0
181.064	-43.01
181.283	67.58
181.503	-36.86
181.723	-4.1
181.943	-65.54
182.163	73.73
182.383	24.58
182.602	67.58
182.822	4.1
183.042	-24.58
183.262	10.24
183.482	22.53
183.701	-32.77
183.921	18.43
184.141	-51.2
184.361	45.06
184.58	51.2
184.8	-86.01
185.02	-73.73
185.239	-24.58
185.459	-40.96
185.679	-30.72
185.898	-22.53
186.118	-43.01
186.338	-8.19
186.557	104.45
186.777	45.06
186.997	-4.1
187.216	4.1
187.436	26.62
187.655	36.86
187.875	4.1
188.095	-10.24
188.314	59.39
188.534	69.63
188.753	30.72
188.973	30.72
189.192	24.58
189.412	20.48
189.631	45.06
189.851	4.1
190.07	18.43
190.29	38.91
190.509	61.44
190.729	8.19
190.948	-32.77
191.168	49.15
191.387	45.06
191.607	-6.14
191.826	65.53
192.045	6.14
192.265	20.48
192.484	63.49
192.704	55.3
192.923	32.77
193.142	-12.29
193.362	-18.43
193.581	77.82
193.8	20.48
194.02	24.58
194.239	-30.72
194.458	12.29
194.678	75.77
194.897	-43.01
195.116	28.67
195.335	-24.58
195.555	49.15
195.774	94.21
195.993	-12.29
196.212	-8.19
196.432	32.77
196.651	4.1
196.87	47.1
197.089	55.3
197.308	-43.01
197.528	88.06
197.747	-94.21
197.966	6.14
198.185	49.15
198.404	-0
198.623	57.34
198.842	6.14
199.062	38.91
199.281	57.34
199.5	4.1
199.719	53.25
199.938	-12.29
200.157	8.19
200.376	-14.34
200.595	12.29
200.814	86.01
201.033	51.2
201.252	61.44
201.471	24.58
201.69	-18.43
201.909	57.34
202.128	12.29
202.347	57.34
202.566	55.3
202.785	8.19
203.004	-0
203.223	30.72
203.442	67.58
203.661	-24.58
203.879	69.63
204.098	75.77
204.317	30.72
204.536	55.3
204.755	45.06
204.974	10.24
205.193	43.01
205.411	51.2
205.63	32.77
205.849	47.1
206.068	26.62
206.287	24.58
206.505	16.38
206.724	-0
206.943	2.05
207.162	18.43
207.381	51.2
207.599	61.44
207.818	-36.86
208.037	18.43
208.255	45.06
208.474	-2.05
208.693	49.15
208.911	-30.72
209.13	14.34
209.349	69.63
209.567	4.1
209.786	53.25
210.005	30.72
210.223	-16.38
210.442	-30.72
210.661	71.68
210.879	79.87
211.098	38.91
211.316	83.97
211.535	36.86
211.753	10.24
211.972	55.3
212.191	114.69
212.409	24.58
212.628	59.39
212.846	45.06
213.065	30.72
213.283	-14.34
213.502	67.58
213.72	-12.29
213.938	6.14
214.157	77.82
214.375	12.29
214.594	43.01
214.812	-26.62
215.031	-12.29
215.249	16.38
215.467	16.38
215.686	24.58
215.904	-4.1
216.122	2.05
216.341	22.53
216.559	-12.29
216.778	-4.1
216.996	73.73
217.214	-24.58
217.432	104.45
217.651	8.19
217.869	63.49
218.087	43.01
218.306	53.25
218.524	69.63
218.742	59.39
218.96	-24.58
219.179	-34.82
219.397	-30.72
219.615	92.16
219.833	79.87
220.051	18.43
220.27	114.69
220.488	16.38
220.706	24.58
220.924	-24.58
221.142	69.63
221.36	26.62
221.578	61.44
221.796	40.96
222.015	88.06
222.233	-8.19
222.451	77.82
222.669	-16.38
222.887	83.97
223.105	-20.48
223.323	-34.82
223.541	-30.72
223.759	45.06
223.977	26.62
224.195	-16.38
224.413	20.48
224.631	172.03
224.849	32.77
225.067	53.25
225.285	18.43
225.503	-28.67
225.721	8.19
225.939	-16.38
226.157	10.24
226.375	32.77
226.592	-36.86
226.81	-90.11
227.028	8.19
227.246	6.14
227.464	-47.1
227.682	34.82
227.9	94.21
228.117	14.34
228.335	16.38
228.553	88.06
228.771	-22.53
228.989	30.72
229.206	120.83
229.424	40.96
229.642	-10.24
229.86	104.45
230.077	57.34
230.295	20.48
230.513	55.3
230.731	43.01
230.948	30.72
231.166	24.58
231.384	-16.38
231.601	61.44
231.819	53.25
232.037	-12.29
232.254	59.39
232.472	49.15
232.689	-57.34
232.907	24.58
233.125	32.77
233.342	30.72
233.56	30.72
233.777	38.91
233.995	73.73
234.213	30.72
234.43	32.77
234.648	-16.38
234.865	28.67
235.083	73.73
235.3	24.58
235.518	104.45
235.735	22.53
235.953	-26.62
236.17	18.43
236.388	32.77
236.605	-8.19
236.822	94.21
237.04	32.77
237.257	2.05
237.475	47.1
237.692	67.58
237.909	51.2
238.127	-59.39
238.344	14.34
238.562	10.24
238.779	28.67
238.996	-14.34
239.214	12.29
239.431	79.87
239.648	-83.97
239.865	69.63
240.083	28.67
240.3	-55.3
240.517	10.24
240.735	12.29
240.952	20.48
241.169	18.43
241.386	61.44
241.603	-20.48
241.821	36.86
242.038	63.49
242.255	57.34
242.472	34.82
242.689	47.1
242.907	-2.05
243.124	94.21
243.341	-16.38
243.558	-2.05
243.775	-24.58
243.992	47.1
244.209	55.3
244.426	110.59
244.643	6.14
244.86	12.29
245.078	28.67
245.295	38.91
245.512	22.53
245.729	45.06
245.946	10.24
246.163	18.43
246.38	4.1
246.597	8.19
246.814	34.82
247.031	-32.77
247.248	77.82
247.464	-53.25
247.681	28.67
247.898	-24.58
248.115	96.25
248.332	110.59
248.549	106.49
248.766	65.53
248.983	-14.34
249.2	36.86
249.417	69.63
249.633	51.2
249.85	61.44
250.067	55.3
250.284	30.72
250.501	-38.91
250.717	71.68
250.934	81.92
251.151	47.1
251.368	-12.29
251.585	77.82
251.801	26.62
252.018	-38.91
252.235	-8.19
252.451	6.14
252.668	-4.1
252.885	71.68
253.102	-8.19
253.318	24.58
253.535	45.06
253.752	-6.14
253.968	77.82
254.185	-0
254.401	-0
254.618	106.49
254.835	36.86
255.051	67.58
255.268	-18.43
255.484	53.25
255.701	57.34
255.917	26.62
256.134	12.29
256.351	-18.43
256.567	-18.43
256.784	55.3
257	-6.14
257.217	-16.38
257.433	6.14
257.65	36.86
257.866	45.06
258.082	45.06
258.299	8.19
258.515	10.24
258.732	61.44
258.948	57.34
259.165	51.2
259.381	-28.67
259.597	45.06
259.814	-8.19
260.03	-40.96
260.246	-2.05
260.463	86.01
260.679	98.3
260.895	-43.01
261.112	53.25
261.328	57.34
261.544	28.67
261.761	6.14
261.977	16.38
262.193	-69.63
262.409	-36.86
262.626	40.96
262.842	-20.48
263.058	43.01
263.274	40.96
263.49	18.43
263.707	73.73
263.923	49.15
264.139	40.96
264.355	26.62
264.571	116.73
264.787	-28.67
265.004	10.24
265.22	30.72
265.436	-8.19
265.652	-4.1
265.868	-0
266.084	57.34
266.3	61.44
266.516	-12.29
266.732	65.53
266.948	14.34
267.164	26.62
267.38	69.63
267.596	90.11
267.812	75.77
268.028	22.53
268.244	30.72
268.46	24.58
268.676	-8.19
268.892	73.73
269.108	43.01
269.324	8.19
269.54	4.1
269.756	-0
269.972	-6.14
270.188	63.49
270.403	28.67
270.619	55.3
270.835	36.86
271.051	10.24
271.267	20.48
271.483	6.14
271.698	75.77
271.914	90.11
272.13	-24.58
272.346	79.87
272.562	36.86
272.777	-18.43
272.993	10.24
273.209	24.58
273.425	10.24
273.64	43.01
273.856	63.49
274.072	-51.2
274.287	81.92
274.503	28.67
274.719	69.63
274.934	45.06
275.15	61.44
275.366	-45.06
275.581	-4.1
275.797	81.92
276.012	53.25
276.228	79.87
276.444	-47.1
276.659	53.25
276.875	12.29
277.09	14.34
277.306	34.82
277.521	26.62
277.737	-16.38
277.952	71.68
278.168	22.53
278.383	40.96
278.599	75.77
278.814	43.01
279.03	-12.29
279.245	51.2
279.461	16.38
279.676	30.72
279.892	-45.06
280.107	45.06
280.322	-14.34
280.538	-18.43
280.753	8.19
280.969	69.63
281.184	55.3
281.399	73.73
281.615	-49.15
281.83	38.91
282.045	38.91
282.26	53.25
282.476	-30.72
282.691	71.68
282.906	38.91
283.122	12.29
283.337	106.49
283.552	94.21
283.767	-2.05
283.983	-4.1
284.198	32.77
284.413	20.48
284.628	30.72
284.843	10.24
285.058	24.58
285.274	8.19
285.489	16.38
285.704	-32.77
285.919	-4.1
286.134	36.86
286.349	18.43
286.564	61.44
286.779	61.44
286.995	16.38
287.21	32.77
287.425	-20.48
287.64	30.72
287.855	16.38
288.07	32.77
288.285	22.53
288.5	26.62
288.715	28.67
288.93	49.15
289.145	59.39
289.36	61.44
289.575	49.15
289.79	12.29
290.004	22.53
290.219	51.2
290.434	75.77
290.649	59.39
290.864	71.68
291.079	77.82
291.294	45.06
291.509	59.39
291.724	63.49
291.938	20.48
292.153	-24.58
292.368	28.67
292.583	-2.05
292.798	77.82
293.012	36.86
293.227	18.43
293.442	-18.43
293.657	32.77
293.871	12.29
294.086	24.58
294.301	-16.38
294.516	79.87
294.73	55.3
294.945	-12.29
295.16	22.53
295.374	63.49
295.589	114.69
295.804	38.91
296.018	-28.67
296.233	53.25
296.447	8.19
296.662	-55.3
296.877	83.97
297.091	40.96
297.306	26.62
297.52	-61.44
297.735	51.2
297.949	73.73
298.164	12.29
298.378	32.77
298.593	-38.91
298.807	28.67
299.022	57.34
299.236	47.1
299.451	38.91
299.665	18.43
299.88	69.63
300.094	10.24
300.309	24.58
300.523	79.87
300.737	-4.1
300.952	57.34
301.166	47.1
301.381	30.72
301.595	38.91
301.809	53.25
302.024	45.06
302.238	-12.29
302.452	-0
302.667	26.62
302.881	24.58
303.095	71.68
303.309	-10.24
303.524	-0
303.738	28.67
303.952	24.58
304.166	106.49
304.381	26.62
304.595	43.01
304.809	12.29
305.023	47.1
305.237	26.62
305.452	69.63
305.666	8.19
305.88	2.05
306.094	110.59
306.308	63.49
306.522	53.25
306.736	45.06
306.95	61.44
307.164	36.86
307.379	47.1
307.593	63.49
307.807	20.48
308.021	34.82
308.235	49.15
308.449	45.06
308.663	4.1
308.877	59.39
309.091	57.34
309.305	59.39
309.519	67.58
309.733	36.86
309.947	-18.43
310.161	88.06
310.374	55.3
310.588	61.44
310.802	65.53
311.016	-30.72
311.23	55.3
311.444	45.06
311.658	34.82
311.872	106.49
312.085	-8.19
312.299	94.21
312.513	22.53
312.727	6.14
312.941	-10.24
313.154	-20.48
313.368	51.2
313.582	55.3
313.796	45.06
314.009	-20.48
314.223	45.06
314.437	59.39
314.651	43.01
314.864	28.67
315.078	18.43
315.292	75.77
315.505	-26.62
315.719	40.96
315.933	45.06
316.146	100.35
316.36	43.01
316.573	43.01
316.787	18.43
317.001	61.44
317.214	10.24
317.428	55.3
317.641	36.86
317.855	79.87
318.068	102.4
318.282	71.68
318.495	120.83
318.709	45.06
318.922	65.53
319.136	108.54
319.349	40.96
319.563	-2.05
319.776	34.82
319.99	-49.15
320.203	10.24
320.417	-16.38
320.63	141.31
320.843	28.67
321.057	-36.86
321.27	96.25
321.483	73.73
321.697	18.43
321.91	-16.38
322.124	96.25
322.337	30.72
322.55	43.01
322.763	57.34
322.977	-4.1
323.19	18.43
323.403	4.1
323.617	22.53
323.83	45.06
324.043	-34.82
324.256	59.39
324.469	26.62
324.683	20.48
324.896	32.77
325.109	14.34
325.322	32.77
325.535	61.44
325.748	79.87
325.962	30.72
326.175	98.3
326.388	10.24
326.601	47.1
326.814	69.63
327.027	36.86
327.24	124.93
327.453	36.86
327.666	-8.19
327.879	96.25
328.092	63.49
328.305	-0
328.518	28.67
328.731	67.58
328.944	69.63
329.157	45.06
329.37	71.68
329.583	51.2
329.796	32.77
330.009	61.44
330.222	-12.29
330.435	-6.14
330.648	75.77
330.861	53.25
331.073	20.48
331.286	96.25
331.499	28.67
331.712	34.82
331.925	71.68
332.138	-26.62
332.35	104.45
332.563	81.92
332.776	-20.48
332.989	43.01
333.202	102.4
333.414	114.69
333.627	51.2
333.84	4.1
334.053	61.44
334.265	96.25
334.478	61.44
334.691	-6.14
334.903	88.06
335.116	81.92
335.329	30.72
335.541	69.63
335.754	122.88
335.966	32.77
336.179	38.91
336.392	32.77
336.604	88.06
336.817	81.92
337.029	-20.48
337.242	-0
337.454	-8.19
337.667	8.19
337.88	81.92
338.092	12.29
338.305	40.96
338.517	-2.05
338.729	159.74
338.942	65.53
339.154	24.58
339.367	34.82
339.579	47.1
339.792	-2.05
340.004	83.97
340.217	57.34
340.429	98.3
340.641	-34.82
340.854	63.49
341.066	71.68
341.278	38.91
341.491	118.78
341.703	8.19
341.915	57.34
342.128	38.91
342.34	28.67
342.552	63.49
342.764	73.73
342.977	94.21
343.189	2.05
343.401	30.72
343.613	-30.72
343.826	-38.91
344.038	43.01
344.25	90.11
344.462	34.82
344.674	12.29
344.886	18.43
345.099	47.1
345.311	51.2
345.523	38.91
345.735	28.67
345.947	100.35
346.159	30.72
346.371	6.14
346.583	47.1
346.795	47.1
347.007	112.64
347.219	51.2
347.431	65.53
347.643	77.82
347.855	73.73
348.067	96.25
348.279	49.15
348.491	32.77
348.703	69.63
348.915	22.53
349.127	38.91
349.339	45.06
349.551	88.06
349.763	65.53
349.975	110.59
350.187	55.3
350.399	43.01
350.61	24.58
350.822	16.38
351.034	51.2
351.246	49.15
351.458	63.49
351.669	110.59
351.881	-6.14
352.093	122.88
352.305	75.77
352.517	24.58
352.728	65.53
352.94	59.39
353.152	38.91
353.363	-14.34
353.575	90.11
353.787	67.58
353.999	16.38
354.21	61.44
354.422	34.82
354.633	69.63
354.845	106.49
355.057	24.58
355.268	40.96
355.48	45.06
355.692	-0
355.903	96.25
356.115	55.3
356.326	47.1
356.538	75.77
356.749	-26.62
356.961	102.4
357.172	49.15
357.384	67.58
357.595	88.06
357.807	16.38
358.018	10.24
358.23	12.29
358.441	67.58
358.653	59.39
358.864	-20.48
359.075	90.11
359.287	24.58
359.498	129.02
359.709	104.45
359.921	61.44
360.132	24.58
360.344	-4.1
360.555	-12.29
360.766	26.62
360.977	34.82
361.189	61.44
361.4	81.92
361.611	83.97
361.823	34.82
362.034	32.77
362.245	24.58
362.456	65.53
362.667	36.86
362.879	92.16
363.09	96.25
363.301	-4.1
363.512	38.91
363.723	81.92
363.935	40.96
364.146	98.3
364.357	-10.24
364.568	94.21
364.779	45.06
364.99	6.14
365.201	28.67
365.412	106.49
365.623	36.86
365.834	81.92
366.045	-18.43
366.256	43.01
366.467	69.63
366.678	28.67
366.889	79.87
367.1	30.72
367.311	49.15
367.522	57.34
367.733	26.62
367.944	81.92
368.155	65.53
368.366	49.15
368.577	2.05
368.788	20.48
368.999	38.91
369.209	90.11
369.42	102.4
369.631	100.35
369.842	53.25
370.053	61.44
370.264	32.77
370.474	45.06
370.685	71.68
370.896	100.35
371.107	96.25
371.317	24.58
371.528	61.44
371.739	77.82
371.95	51.2
372.16	40.96
372.371	69.63
372.582	96.25
372.792	63.49
373.003	-26.62
373.214	71.68
373.424	83.97
373.635	-4.1
373.846	24.58
374.056	110.59
374.267	81.92
374.477	69.63
374.688	63.49
374.898	102.4
375.109	-63.49
375.319	55.3
375.53	102.4
375.74	65.53
375.951	6.14
376.161	20.48
376.372	129.02
376.582	20.48
376.793	81.92
377.003	53.25
377.214	90.11
377.424	69.63
377.635	118.78
377.845	94.21
378.055	100.35
378.266	2.05
378.476	10.24
378.686	10.24
378.897	34.82
379.107	53.25
379.317	83.97
379.528	83.97
379.738	4.1
379.948	61.44
380.158	75.77
380.369	61.44
380.579	51.2
380.789	83.97
380.999	120.83
381.21	104.45
381.42	40.96
381.63	69.63
381.84	59.39
382.05	36.86
382.261	102.4
382.471	49.15
382.681	141.31
382.891	32.77
383.101	133.12
383.311	20.48
383.521	106.49
383.731	30.72
383.941	79.87
384.151	100.35
384.361	81.92
384.571	90.11
384.781	86.01
384.991	100.35
385.201	159.74
385.411	49.15
385.621	45.06
385.831	71.68
386.041	86.01
386.251	71.68
386.461	51.2
386.671	63.49
386.881	69.63
387.091	94.21
387.301	110.59
387.511	98.3
387.72	131.07
387.93	-14.34
388.14	79.87
388.35	43.01
388.56	71.68
388.769	45.06
388.979	28.67
389.189	-53.25
389.399	75.77
389.609	139.26
389.818	112.64
390.028	86.01
390.238	61.44
390.447	65.53
390.657	24.58
390.867	71.68
391.076	88.06
391.286	53.25
391.496	114.69
391.705	73.73
391.915	98.3
392.125	135.17
392.334	8.19
392.544	172.03
392.753	22.53
392.963	24.58
393.172	124.93
393.382	108.54
393.591	118.78
393.801	131.07
394.01	112.64
394.22	36.86
394.429	110.59
394.639	63.49
394.848	143.36
395.058	59.39
395.267	133.12
395.477	77.82
395.686	118.78
395.895	163.84
396.105	61.44
396.314	102.4
396.524	49.15
396.733	116.73
396.942	192.51
397.152	151.55
397.361	122.88
397.57	114.69
397.78	114.69
397.989	102.4
398.198	63.49
398.407	100.35
398.617	106.49
398.826	71.68
399.035	118.78
399.244	106.49
399.453	122.88
399.663	126.97
399.872	180.22
400.081	200.7
400.29	149.5
400.499	24.58
400.708	194.56
400.917	90.11
401.127	147.45
401.336	106.49
401.545	169.98
401.754	131.07
401.963	118.78
402.172	139.26
402.381	122.88
402.59	98.3
402.799	151.55
403.008	120.83
403.217	163.84
403.426	212.99
403.635	94.21
403.844	241.66
404.053	204.8
404.262	172.03
404.471	180.22
404.68	165.89
404.888	192.51
405.097	165.89
405.306	198.65
405.515	167.93
405.724	149.5
405.933	210.94
406.142	247.8
406.35	307.2
406.559	241.66
406.768	176.13
406.977	217.08
407.185	235.52
407.394	245.76
407.603	239.61
407.812	296.96
408.02	299
408.229	258.04
408.438	229.37
408.646	219.13
408.855	270.33
409.064	262.14
409.272	329.72
409.481	362.49
409.69	360.44
409.898	389.11
410.107	434.17
410.315	352.25
410.524	405.5
410.733	514.04
410.941	413.69
411.15	471.03
411.358	487.42
411.567	473.08
411.775	546.81
411.984	493.56
412.192	587.77
412.401	524.28
412.609	614.39
412.818	686.07
413.026	624.63
413.234	598.01
413.443	643.06
413.651	704.5
413.86	786.42
414.068	778.23
414.276	784.37
414.485	712.69
414.693	845.81
414.901	806.9
415.11	950.26
415.318	880.63
415.526	925.68
415.734	1028.08
415.943	1003.5
416.151	1107.95
416.359	1048.56
416.567	1177.58
416.776	1118.19
416.984	1183.73
417.192	1288.17
417.4	1294.32
417.608	1247.21
417.817	1376.23
418.025	1382.38
418.233	1495.02
418.441	1478.63
418.649	1607.66
418.857	1662.95
419.065	1646.57
419.273	1650.66
419.481	1710.05
419.689	1847.27
419.897	2041.82
420.105	2043.87
420.313	2009.06
420.521	2170.85
420.729	2195.42
420.937	2136.03
421.145	2369.5
421.353	2498.52
421.561	2615.26
421.769	2584.54
421.977	2799.57
422.185	2576.34
422.393	2650.07
422.601	3063.76
422.809	3092.43
423.017	3010.51
423.224	3215.31
423.432	3334.09
423.64	3235.79
423.848	3450.83
424.056	3600.33
424.263	3737.54
424.471	3680.2
424.679	3876.8
424.887	3956.68
425.094	4206.53
425.302	4181.95
425.51	4360.13
425.718	4538.3
425.925	4562.87
426.133	4673.46
426.341	4978.61
426.548	5197.74
426.756	5230.51
426.964	5234.61
427.171	5539.76
427.379	5844.9
427.586	5842.85
427.794	5996.45
428.001	6231.97
428.209	6541.21
428.417	6432.67
428.624	6926.23
428.832	6764.44
429.039	6915.99
429.247	6811.54
429.454	7600.01
429.662	8066.95
429.869	7567.24
430.076	7985.03
430.284	7710.6
430.491	8071.04
430.699	8640.38
430.906	8613.76
431.114	8656.76
431.321	9019.25
431.528	9133.94
431.736	9824.11
431.943	10096.49
432.15	9975.66
432.358	10184.55
432.565	10590.05
432.772	10573.66
432.979	11171.67
433.187	11382.61
433.394	11460.43
433.601	12136.26
433.808	12134.21
434.016	11960.14
434.223	12787.52
434.43	13494.07
434.637	13213.49
434.844	14079.79
435.052	14452.52
435.259	14047.02
435.466	14139.18
435.673	14323.49
435.88	15179.54
436.087	15931.15
436.294	15824.65
436.501	15394.58
436.708	15734.54
436.915	16449.28
437.122	17239.8
437.329	16856.83
437.537	17665.78
437.743	17856.24
437.95	17702.64
438.157	18538.21
438.364	19175.13
438.571	18943.71
438.778	19257.05
438.985	21042.88
439.192	20475.59
439.399	20858.56
439.606	20397.77
439.813	21526.2
440.02	23027.36
440.227	22415.02
440.433	22343.34
440.64	23039.65
440.847	22603.43
441.054	23344.8
441.261	24807.05
441.467	24440.46
441.674	25001.6
441.881	26130.03
442.088	25941.62
442.294	26011.25
442.501	26455.66
442.708	27055.72
442.914	28272.21
443.121	29091.4
443.328	28259.92
443.534	30471.73
443.741	29707.83
443.948	29312.58
444.154	31606.3
444.361	31043.11
444.568	31376.93
444.774	31743.52
444.981	31729.18
445.187	32677.39
445.394	34217.46
445.6	33668.61
445.807	36722.13
446.013	35151.34
446.22	35974.62
446.426	37281.22
446.633	37119.43
446.839	38942.13
447.046	37189.06
447.252	39183.79
447.459	39024.04
447.665	38974.89
447.871	40934.8
448.078	42689.91
448.284	39943.58
448.491	41631.11
448.697	43068.78
448.903	43398.51
449.11	43971.94
449.316	42859.89
449.522	43480.42
449.728	45172.05
449.935	45217.1
450.141	45090.13
450.347	46218.56
450.553	44438.87
450.76	44877.14
450.966	46791.99
451.172	46302.53
451.378	46964.02
451.584	46605.62
451.791	47396.14
451.997	47134
452.203	47592.75
452.409	48031.01
452.615	47740.2
452.821	45962.56
453.027	45483.34
453.233	48198.94
453.44	45978.95
453.646	46636.34
453.852	46841.14
454.058	47777.06
454.264	45712.71
454.47	46933.3
454.676	45483.34
454.882	47293.74
455.088	43154.8
455.294	43894.11
455.5	44158.3
455.705	44283.23
455.911	42712.44
456.117	42210.68
456.323	41840
456.529	39425.45
456.735	40848.78
456.941	39718.31
457.147	39511.46
457.352	38002.11
457.558	37602.75
457.764	37707.2
457.97	36959.69
458.176	36107.74
458.381	36427.22
458.587	34495.99
458.793	34145.78
458.999	32675.34
459.204	35024.36
459.41	34078.2
459.616	31766.04
459.821	31753.76
460.027	31778.33
460.233	31077.93
460.438	29611.58
460.644	29967.93
460.85	28399.18
461.055	28182.1
461.261	27758.17
461.466	25865.85
461.672	25216.64
461.878	27106.91
462.083	25343.61
462.289	24817.29
462.494	24426.12
462.7	23590.55
462.905	22783.65
463.111	23791.25
463.316	23869.08
463.522	23279.26
463.727	23355.04
463.932	23232.16
464.138	23168.67
464.343	22994.59
464.549	22503.08
464.754	23223.97
464.959	22972.07
465.165	22902.43
465.37	21982.9
465.575	21712.56
465.781	22242.99
465.986	22281.9
466.191	21575.35
466.397	20993.73
466.602	20205.26
466.807	20823.75
467.012	20670.15
467.218	20942.53
467.423	20643.52
467.628	20534.98
467.833	21466.81
468.038	20764.36
468.244	20111.05
468.449	20897.47
468.654	20248.27
468.859	20074.19
469.064	20010.7
469.269	19271.39
469.474	19402.46
469.679	19848.91
469.885	19009.25
470.09	19431.13
470.295	19502.81
470.5	18683.62
470.705	18953.95
470.91	18777.83
471.115	18075.37
471.32	18753.25
471.525	18188.01
471.73	17878.77
471.935	17848.05
472.139	17434.36
472.344	17659.63
472.549	17483.51
472.754	17389.3
472.959	16977.66
473.164	16547.59
473.369	16307.98
473.574	16887.55
473.778	16424.71
473.983	16729.86
474.188	16633.6
474.393	15750.93
474.598	15765.26
474.802	15787.79
475.007	15619.86
475.212	15597.33
475.417	14823.2
475.621	14772
475.826	15169.3
476.031	14610.21
476.235	14384.93
476.44	14694.18
476.645	14429.99
476.849	14503.71
477.054	14200.62
477.259	13827.89
477.463	13745.97
477.668	13506.35
477.872	13762.35
478.077	13684.53
478.282	13223.73
478.486	13231.93
478.691	12965.69
478.895	13250.36
479.1	13082.42
479.304	13274.93
479.509	12574.53
479.713	12754.75
479.918	12455.75
480.122	12545.86
480.326	12713.79
480.531	12830.52
480.735	12590.91
480.94	12592.96
481.144	12642.11
481.348	12279.62
481.553	12506.95
481.757	11978.57
481.961	12246.85
482.166	12484.42
482.37	12388.16
482.574	11892.55
482.778	12089.16
482.983	12320.58
483.187	12218.18
483.391	12316.48
483.595	12160.84
483.8	12154.69
484.004	11966.28
484.208	12248.9
484.412	12054.34
484.616	12330.82
484.821	12298.05
485.025	11945.8
485.229	12218.18
485.433	11947.85
485.637	12083.02
485.841	12033.86
486.045	12083.02
486.249	11964.23
486.453	11896.65
486.657	12271.43
486.861	12324.68
487.065	11587.41
487.269	12220.23
487.473	11972.43
487.677	12019.53
487.881	12132.17
488.085	12128.07
488.289	12019.53
488.493	12236.61
488.697	12312.39
488.901	12197.7
489.105	12083.02
489.309	12152.65
489.512	12304.2
489.716	12134.21
489.92	12502.85
490.124	12371.78
490.328	12420.93
490.531	12515.14
490.735	12396.35
490.939	12465.99
491.143	12316.48
491.346	12371.78
491.55	12769.09
491.754	12758.85
491.958	12848.96
492.161	12570.43
492.365	13039.42
492.569	12894.01
492.772	12764.99
492.976	12982.07
493.18	12973.88
493.383	13254.45
493.587	13426.48
493.79	13434.67
493.994	13176.63
494.197	13514.55
494.401	13506.35
494.605	13442.87
494.808	13817.65
495.012	13793.07
495.215	13786.93
495.419	13897.52
495.622	14020.39
495.825	14239.53
496.029	14235.43
496.232	14368.55
496.436	14327.59
496.639	14647.07
496.843	14665.5
497.046	14909.21
497.249	15007.51
497.453	15138.58
497.656	15187.74
497.859	15484.69
498.063	15224.6
498.266	16205.58
498.469	16117.51
498.673	15945.48
498.876	16330.5
499.079	16428.81
499.282	16570.12
499.485	16797.44
499.689	17037.05
499.892	17135.35
500.095	17129.21
500.298	17592.05
500.501	17704.69
500.705	17782.51
500.908	18079.47
501.111	18065.13
501.314	18409.19
501.517	18636.52
501.72	18759.39
501.923	18839.26
502.126	19152.6
502.329	19504.85
502.532	19418.84
502.735	19578.58
502.938	20231.88
503.141	20371.15
503.344	20547.27
503.547	20377.29
503.75	20813.51
503.953	21184.19
504.156	21302.97
504.359	21444.28
504.562	22101.68
504.765	22136.49
504.968	22181.55
505.17	22396.59
505.373	22439.59
505.576	22890.15
505.779	23183.01
505.982	23322.27
506.185	23848.6
506.387	23824.02
506.59	24321.68
506.793	24385.16
506.996	24317.58
507.198	25067.14
507.401	25005.7
507.604	25212.54
507.807	25435.77
508.009	25937.52
508.212	25937.52
508.415	26556.01
508.617	26596.97
508.82	26816.1
509.022	26883.69
509.225	27592.28
509.428	27743.83
509.63	28071.51
509.833	28008.02
510.035	28661.32
510.238	28241.49
510.44	28900.93
510.643	29693.5
510.845	29750.84
511.048	29513.28
511.25	30225.97
511.453	30176.82
511.655	31460.9
511.858	30926.38
512.06	31071.78
512.262	31620.64
512.465	31583.77
512.667	31999.51
512.87	32286.23
513.072	32161.3
513.274	33232.39
513.477	33758.72
513.679	33562.11
513.881	33930.75
514.084	34510.32
514.286	34063.86
514.488	34735.6
514.69	35608.03
514.893	35454.43
515.095	36015.58
515.297	35962.33
515.499	35954.14
515.701	36693.46
515.904	36877.77
516.106	37451.2
516.308	37457.35
516.51	37836.22
516.712	38092.22
516.914	38528.44
517.116	39396.77
517.318	39321
517.52	39099.82
517.722	39593.38
517.925	40043.93
518.127	40650.13
518.329	40926.61
518.531	41008.53
518.733	40906.13
518.935	41473.42
519.136	41710.98
519.338	42233.21
519.54	42378.62
519.742	43361.64
519.944	43595.11
520.146	43689.32
520.348	44408.15
520.55	44381.53
520.752	44399.96
520.954	45198.67
521.155	45061.46
521.357	45561.16
521.559	46277.95
521.761	46308.67
521.963	46234.94
522.164	46691.64
522.366	46728.5
522.568	47523.11
522.77	47617.32
522.971	48168.22
523.173	47650.09
523.375	48434.46
523.576	48561.43
523.778	48712.98
523.98	49308.94
524.181	48909.59
524.383	49491.21
524.584	50042.12
524.786	49943.81
524.988	50240.77
525.189	50545.92
525.391	51002.61
525.592	51395.82
525.794	51197.17
525.995	51115.25
526.197	51604.72
526.398	51492.08
526.6	51971.3
526.801	51913.96
527.003	52114.66
527.204	52141.28
527.406	52724.96
527.607	52458.72
527.808	53089.49
528.01	52159.72
528.211	52800.73
528.412	53578.96
528.614	53388.5
528.815	53626.06
529.016	53873.87
529.218	53609.68
529.419	53531.86
529.62	53966.02
529.822	53494.99
530.023	53753.04
530.224	54246.6
530.425	54195.4
530.626	53609.68
530.828	53935.3
531.029	55063.74
531.23	54154.44
531.431	54564.03
531.632	54686.91
531.833	54899.9
532.035	54529.22
532.236	54744.25
532.437	55065.78
532.638	54559.94
532.839	55219.38
533.04	55315.64
533.241	54617.28
533.442	55719.09
533.643	55188.66
533.844	54867.13
534.045	55123.13
534.246	55145.65
534.447	55663.79
534.648	55076.02
534.849	55588.02
535.05	55276.72
535.251	55526.58
535.451	55448.75
535.652	55362.74
535.853	55375.03
536.054	55084.22
536.255	55284.92
536.456	55039.16
536.657	55919.79
536.857	55350.45
537.058	55502
537.259	55927.98
537.46	55948.46
537.66	55231.67
537.861	55653.55
538.062	55426.23
538.263	55684.27
538.463	55448.75
538.664	55803.05
538.865	55731.37
539.065	55932.07
539.266	55119.03
539.466	55706.8
539.667	55221.43
539.868	55856.3
540.068	55284.92
540.269	55219.38
540.469	55741.61
540.67	55170.23
540.87	55174.33
541.071	55694.51
541.271	55284.92
541.472	55329.97
541.672	54944.95
541.873	55022.78
542.073	55162.04
542.274	55788.72
542.474	55190.71
542.675	55084.22
542.875	55456.95
543.075	55162.04
543.276	54912.19
543.476	55469.23
543.676	54828.22
543.877	55618.74
544.077	54973.63
544.277	55176.37
544.478	54987.96
544.678	55317.68
544.878	55123.13
545.078	55219.38
545.279	54752.44
545.479	54959.29
545.679	55106.74
545.879	54854.84
546.079	54799.55
546.28	54940.86
546.48	54228.16
546.68	55153.85
546.88	55098.55
547.08	55180.47
547.28	55014.58
547.48	54680.77
547.68	54953.15
547.88	54682.81
548.081	54893.75
548.281	54932.67
548.481	54342.85
548.681	55157.94
548.881	54715.58
549.081	54754.49
549.28	54260.93
549.48	55030.97
549.68	54711.49
549.88	55151.8
550.08	54557.89
550.28	54740.16
550.48	54752.44
550.68	55415.99
550.88	54414.53
551.08	54195.4
551.279	54856.89
551.479	54156.49
551.679	54580.42
551.879	54666.43
552.079	54799.55
552.278	54097.09
552.478	54275.27
552.678	54832.32
552.878	54598.85
553.077	54555.84
553.277	53812.43
553.477	54938.81
553.676	54070.47
553.876	54643.9
554.076	54219.97
554.275	54408.39
554.475	53486.8
554.674	53748.94
554.874	54095.05
555.074	53802.19
555.273	54498.5
555.473	54355.14
555.672	53802.19
555.872	53986.5
556.071	53683.4
556.271	53996.74
556.47	53458.13
556.67	53415.12
556.869	53724.36
557.068	53873.87
557.268	53163.22
557.467	53568.72
557.667	53339.35
557.866	53345.49
558.065	53392.59
558.265	52884.7
558.464	52681.95
558.663	53546.19
558.863	52755.67
559.062	53765.32
559.261	52597.98
559.461	53652.69
559.66	52266.21
559.859	52841.69
560.058	52253.92
560.258	52684
560.457	52264.16
560.656	52647.13
560.855	52311.27
561.054	52176.1
561.253	52024.55
561.453	52167.91
561.652	52204.77
561.851	52239.59
562.05	51537.13
562.249	51541.23
562.448	52225.25
562.647	51987.69
562.846	51778.79
563.045	51705.07
563.244	51096.82
563.443	52180.2
563.642	51102.96
563.841	51234.03
564.04	51109.11
564.239	51696.88
564.438	50988.28
564.637	51205.36
564.836	51444.97
565.035	50973.94
565.234	50830.58
565.432	50320.64
565.631	50523.39
565.83	50908.41
566.029	50658.55
566.228	50277.63
566.427	50212.1
566.625	50431.23
566.824	49558.8
567.023	49997.06
567.222	49329.42
567.42	49718.54
567.619	49616.14
567.818	49614.09
568.016	49476.88
568.215	49882.37
568.414	49321.23
568.612	49640.71
568.811	49042.71
569.01	49493.26
569.208	48264.48
569.407	48923.93
569.605	48426.27
569.804	48788.76
570.002	48362.78
570.201	48854.29
570.4	47973.67
570.598	47654.18
570.797	47924.52
570.995	47928.61
571.193	47435.05
571.392	47979.81
571.59	47303.98
571.789	47244.59
571.987	47428.91
572.186	47240.5
572.384	47238.45
572.582	47394.09
572.781	47019.31
572.979	46511.42
573.177	47072.56
573.376	47209.78
573.574	46671.16
573.772	47146.29
573.971	46449.98
574.169	46308.67
574.367	46198.08
574.565	46286.14
574.763	45843.78
574.962	45886.79
575.16	45266.25
575.358	46054.72
575.556	45548.87
575.754	46120.26
575.952	45286.73
576.151	45421.9
576.349	44770.64
576.547	45139.28
576.745	45194.57
576.943	45182.29
577.141	44686.68
577.339	44983.63
577.537	44174.69
577.735	44412.25
577.933	43941.22
578.131	44483.93
578.329	44242.27
578.527	44041.57
578.725	44025.18
578.923	44385.63
579.121	43849.06
579.319	43984.22
579.516	43801.96
579.714	43580.77
579.912	43126.13
580.11	43173.23
580.308	43054.45
580.506	43066.73
580.704	42415.48
580.901	42931.57
581.099	42861.94
581.297	42294.65
581.495	42737.01
581.692	42474.87
581.89	42032.51
582.088	42368.38
582.285	41956.74
582.483	42521.98
582.681	41723.27
582.878	41905.54
583.076	41514.37
583.274	41569.67
583.471	40951.18
583.669	41782.66
583.866	41336.2
584.064	41573.77
584.262	40910.22
584.459	40942.99
584.657	40932.75
584.854	41325.96
585.052	40453.53
585.249	40615.32
585.447	40967.57
585.644	40269.21
585.841	40596.88
586.039	40656.28
586.236	39626.15
586.434	40029.6
586.631	39773.6
586.828	39867.81
587.026	40048.03
587.223	39314.86
587.42	39185.83
587.618	39927.2
587.815	38761.9
588.012	38761.9
588.21	38856.11
588.407	39400.87
588.604	39167.4
588.801	38759.86
588.999	38620.59
589.196	38794.67
589.393	38759.86
589.59	38639.03
589.787	38360.5
589.984	38127.03
590.182	37565.89
590.379	38176.19
590.576	37838.27
590.773	37662.15
590.97	37385.67
591.167	37746.11
591.364	37123.53
591.561	37844.41
591.758	36967.88
591.955	37021.13
592.152	37377.48
592.349	37281.22
592.546	36589.01
592.743	36402.64
592.94	36369.88
593.137	36802
593.334	36335.06
593.531	36357.59
593.727	36390.36
593.924	36576.72
594.121	35911.13
594.318	36263.38
594.515	35616.22
594.712	35673.57
594.908	35438.05
595.105	35470.82
595.302	35294.69
595.499	35618.27
595.696	35177.96
595.892	35280.36
596.089	35040.75
596.286	35059.18
596.482	35145.19
596.679	34782.7
596.876	34731.5
597.072	34190.84
597.269	34745.84
597.466	34119.16
597.662	34188.79
597.859	34162.17
598.055	34528.75
598.252	34049.53
598.448	33654.27
598.645	33922.55
598.841	33547.78
599.038	33934.84
599.234	33969.66
599.431	33326.6
599.627	33037.83
599.824	33488.38
600.02	33191.43
600.217	33453.57
600.413	32765.45
600.609	32927.24
600.806	32538.13
601.002	32767.5
601.198	32433.68
601.395	32323.09
601.591	32345.62
601.787	32415.25
601.984	32015.9
602.18	32658.96
602.376	32273.94
602.572	31815.19
602.769	31606.3
602.965	31632.93
603.161	31761.95
603.357	31354.4
603.553	31489.57
603.75	31634.97
603.946	31270.43
604.142	31151.65
604.338	30713.39
604.534	31485.47
604.73	31180.32
604.926	31157.8
605.122	30922.28
605.318	30658.09
605.514	30608.94
605.71	30637.61
605.906	30475.82
606.102	30500.4
606.298	30043.7
606.494	30254.64
606.69	30254.64
606.886	30117.43
607.082	29767.23
607.278	29951.54
607.474	29638.2
607.67	30084.66
607.866	29689.4
608.062	29865.53
608.257	29511.23
608.453	29572.67
608.649	29576.76
608.845	28948.04
609.041	29412.93
609.236	29576.76
609.432	29292.1
609.628	29527.61
609.824	29083.2
610.019	28921.41
610.215	28765.77
610.411	29437.5
610.606	28958.28
610.802	29226.56
610.998	28427.85
611.193	28661.32
611.389	28474.96
611.584	28339.79
611.78	28515.92
611.976	28384.85
612.171	28284.5
612.367	28309.07
612.562	28325.46
612.758	27770.46
612.953	28124.75
613.149	28558.92
613.344	27469.4
613.539	28251.73
613.735	28167.76
613.93	28147.28
614.126	27833.94
614.321	28192.34
614.517	27733.59
614.712	27901.53
614.907	27889.24
615.103	27850.33
615.298	27526.75
615.493	27776.6
615.688	27399.77
615.884	28110.42
616.079	27448.93
616.274	27493.98
616.47	27616.86
616.665	27352.67
616.86	27035.24
617.055	27000.42
617.25	26771.05
617.445	27211.36
617.641	26519.15
617.836	27074.15
618.031	26650.22
618.226	27145.83
618.421	26695.27
618.616	27178.59
618.811	26252.91
619.006	26818.15
619.201	26168.94
619.396	26410.6
619.591	26084.98
619.786	26111.6
619.981	25615.99
620.176	26091.12
620.371	25960.05
620.566	25476.73
620.761	25710.2
620.956	25394.81
621.151	24960.64
621.346	25460.35
621.541	25017.99
621.735	25210.5
621.93	24698.5
622.125	25218.69
622.32	24712.84
622.515	24790.66
622.709	24643.21
622.904	24493.71
623.099	24237.71
623.294	24567.43
623.488	23864.98
623.683	24143.5
623.878	23791.25
624.072	24049.3
624.267	23727.77
624.462	23205.53
624.656	23174.81
624.851	23209.63
625.046	23246.49
625.24	22945.44
625.435	22830.76
625.629	23035.55
625.824	22630.05
626.018	22593.19
626.213	22017.71
626.407	22361.77
626.602	21817.01
626.796	21913.27
626.991	21903.03
627.185	21984.94
627.38	21409.47
627.574	21411.51
627.768	21460.66
627.963	21413.56
628.157	21096.13
628.352	21188.28
628.546	20725.44
628.74	21321.4
628.935	20932.29
629.129	20758.21
629.323	20516.55
629.517	20137.68
629.712	20405.96
629.906	20197.07
630.1	20008.65
630.294	20225.74
630.489	19846.87
630.683	20186.83
630.877	19404.5
631.071	19656.4
631.265	19613.4
631.459	19617.49
631.653	19244.76
631.848	19535.57
632.042	19078.88
632.236	19123.93
632.43	18843.36
632.624	18738.91
632.818	19066.59
633.012	18562.79
633.206	18536.17
633.4	18861.79
633.594	18179.82
633.788	18409.19
633.982	18249.45
634.176	18476.77
634.369	18116.33
634.563	17942.25
634.757	17856.24
634.951	17932.01
635.145	17913.58
635.339	17972.97
635.533	17653.49
635.726	17630.96
635.92	17465.08
636.114	17413.88
636.308	17237.75
636.501	17221.37
636.695	17108.73
636.889	17004.28
637.083	16631.55
637.276	16514.82
637.47	16563.97
637.664	16682.75
637.857	16586.5
638.051	16506.63
638.244	16117.51
638.438	16320.26
638.632	16041.74
638.825	15843.09
639.019	16076.55
639.212	15920.91
639.406	15826.7
639.599	15838.99
639.793	15693.58
639.986	15599.38
640.18	15537.94
640.373	15609.62
640.567	15283.99
640.76	15400.72
640.954	15208.22
641.147	15101.72
641.34	15181.59
641.534	14954.27
641.727	14933.79
641.92	15056.67
642.114	14524.19
642.307	14753.57
642.5	14659.36
642.694	14315.3
642.887	14386.98
643.08	14411.56
643.273	14260.01
643.467	14286.63
643.66	13909.8
643.853	14180.14
644.046	13967.15
644.239	13985.58
644.432	13766.45
644.626	13684.53
644.819	13621.04
645.012	13717.29
645.205	13432.63
645.398	13668.14
645.591	13481.78
645.784	13496.11
645.977	13145.91
646.17	13340.47
646.363	13313.84
646.556	12855.1
646.749	13029.18
646.942	13180.73
647.135	12808
647.328	12912.44
647.521	12812.09
647.714	12537.66
647.907	12605.25
648.099	12320.58
648.292	12578.62
648.485	12425.03
648.678	12375.88
648.871	12377.92
649.064	12253
649.256	12336.96
649.449	12162.89
649.642	12171.08
649.835	12005.19
650.027	12074.82
650.22	11667.28
650.413	11611.98
650.605	11611.98
650.798	11880.27
650.991	11716.43
651.183	11519.82
651.376	11521.87
651.568	11513.68
651.761	11648.85
651.954	11245.4
652.146	11253.59
652.339	11251.54
652.531	11384.66
652.724	11030.36
652.916	10913.63
653.109	11046.74
653.301	10975.06
653.494	11036.5
653.686	10555.23
653.879	10954.58
654.071	10663.77
654.263	10594.14
654.456	10729.31
654.648	10567.52
654.84	10428.26
655.033	10346.34
655.225	10499.94
655.417	10409.83
655.61	10211.17
655.802	10377.06
655.994	10200.93
656.186	10336.1
656.379	9953.13
656.571	10059.62
656.763	9985.9
656.955	9850.73
657.148	10059.62
657.34	9752.43
657.532	9604.97
657.724	9805.67
657.916	9842.54
658.108	9643.88
658.3	9609.07
658.492	9514.86
658.684	9443.18
658.876	9463.66
659.068	9492.34
659.26	9320.31
659.452	9486.19
659.644	9154.42
659.836	9336.69
660.028	9283.44
660.22	8955.77
660.412	9097.08
660.604	8759.16
660.796	9062.26
660.988	8769.4
661.18	8998.77
661.372	8861.56
661.563	8957.82
661.755	8789.88
661.947	8757.11
662.139	8583.04
662.331	8595.32
662.522	8550.27
662.714	8484.73
662.906	8454.01
663.097	8460.16
663.289	8517.5
663.481	8257.41
663.673	8300.42
663.864	8279.94
664.056	8032.13
664.247	8189.83
664.439	8122.24
664.631	8083.33
664.822	8069
665.014	8220.55
665.205	7923.59
665.397	7978.89
665.588	7708.55
665.78	7997.32
665.971	7954.31
666.163	7899.02
666.354	7856.01
666.546	7784.33
666.737	7606.16
666.929	7489.42
667.12	7761.8
667.311	7612.3
667.503	7466.89
667.694	7475.09
667.885	7548.81
668.077	7446.41
668.268	7311.25
668.459	7317.39
668.651	7395.22
668.842	7243.67
669.033	7258
669.224	7268.24
669.416	7294.86
669.607	7245.71
669.798	7317.39
669.989	7159.7
670.18	6983.57
670.371	6825.88
670.563	6995.86
670.754	6836.12
670.945	6864.79
671.136	6825.88
671.327	6811.54
671.518	6793.11
671.709	6875.03
671.9	6897.56
672.091	6772.63
672.282	6737.82
672.473	6582.17
672.664	6619.03
672.855	6721.43
673.046	6621.08
673.237	6492.06
673.428	6510.49
673.619	6571.93
673.809	6543.26
674	6416.29
674.191	6504.35
674.382	6358.94
674.573	6365.09
674.764	6299.55
674.954	6404
675.145	6246.3
675.336	6487.97
675.527	6352.8
675.717	6389.66
675.908	6117.28
676.099	6346.66
676.289	6211.49
676.48	6221.73
676.671	6168.48
676.861	6115.23
677.052	6086.56
677.243	6076.32
677.433	5881.77
677.624	6168.48
677.814	5996.45
678.005	5920.68
678.195	5959.59
678.386	5863.33
678.576	5713.83
678.767	5793.7
678.957	5900.2
679.148	5988.26
679.338	5736.36
679.529	5713.83
679.719	5668.78
679.909	5900.2
680.1	5717.93
680.29	5834.66
680.481	5674.92
680.671	5728.17
680.861	5545.9
681.052	5660.59
681.242	5521.32
681.432	5851.05
681.622	5625.77
681.813	5576.62
682.003	5640.11
682.193	5550
682.383	5529.52
682.573	5629.87
682.764	5439.4
682.954	5562.28
683.144	5359.53
683.334	5361.58
683.524	5382.06
683.714	5281.71
683.904	5451.69
684.094	5316.53
684.284	5224.37
684.474	5326.77
684.664	5369.77
684.854	5255.09
685.044	5334.96
685.234	5273.52
685.424	5234.61
685.614	5291.95
685.804	5169.07
685.994	5310.38
686.184	5240.75
686.374	5152.69
686.564	5038
686.753	4984.76
686.943	5070.77
687.133	5140.4
687.323	5021.62
687.513	4921.27
687.702	5111.73
687.892	4962.23
688.082	4831.16
688.272	4882.36
688.461	4999.09
688.651	4894.65
688.841	4736.95
689.03	4859.83
689.22	4835.25
689.41	4894.65
689.599	4777.91
689.789	4827.06
689.979	4745.14
690.168	4734.9
690.358	4716.47
690.547	4790.2
690.737	4706.23
690.926	4612.03
691.116	4552.63
691.305	4589.5
691.495	4622.27
691.684	4638.65
691.874	4542.39
692.063	4554.68
692.252	4460.48
692.442	4693.94
692.631	4417.47
692.82	4595.64
693.01	4485.05
693.199	4456.38
693.388	4347.84
693.578	4384.7
693.767	4419.52
693.956	4257.73
694.146	4364.22
694.335	4263.87
694.524	4409.28
694.713	4298.69
694.902	4294.59
695.092	4222.91
695.281	4229.06
695.47	4231.1
695.659	4319.17
695.848	4095.94
696.037	4235.2
696.226	4407.23
696.415	4061.12
696.604	4227.01
696.793	4171.71
696.982	4087.75
697.171	4249.54
697.36	4085.7
697.549	4065.22
697.738	3979.2
697.927	3981.25
698.116	4257.73
698.305	3887.04
698.494	4044.74
698.683	3841.99
698.872	4009.92
699.061	4128.7
699.25	4192.19
699.438	4014.02
699.627	4030.4
699.816	4030.4
700.005	3997.64
700.193	3887.04
700.382	3936.2
700.571	3962.82
700.76	3928
700.948	4014.02
701.137	4034.5
701.326	3870.66
701.514	3821.51
701.703	3917.76
701.892	4018.11
702.08	3938.24
702.269	3950.53
702.457	3911.62
702.646	3925.96
702.834	3899.33
703.023	3852.23
703.212	3968.96
703.4	3948.48
703.589	3868.61
703.777	3991.49
703.965	3862.47
704.154	3872.71
704.342	3792.84
704.531	3889.09
704.719	3776.45
704.907	3815.37
705.096	3739.59
705.284	3790.79
705.472	3708.87
705.661	3801.03
705.849	3747.78
706.037	3854.28
706.226	3678.15
706.414	3606.47
706.602	3768.26
706.79	3872.71
706.979	3741.64
707.167	3637.19
707.355	3598.28
707.543	3614.66
707.731	3700.68
707.919	3737.54
708.107	3592.14
708.296	3696.58
708.484	3655.62
708.672	3678.15
708.86	3616.71
709.048	3583.95
709.236	3657.67
709.424	3553.23
709.612	3557.32
709.8	3575.75
709.988	3577.8
710.176	3651.53
710.364	3606.47
710.551	3524.55
710.739	3649.48
710.927	3614.66
711.115	3557.32
711.303	3557.32
711.491	3616.71
711.679	3504.07
711.866	3577.8
712.054	3553.23
712.242	3422.16
712.43	3565.51
712.617	3487.69
712.805	3510.22
712.993	3540.94
713.181	3524.55
713.368	3493.83
713.556	3485.64
713.744	3454.92
713.931	3641.29
714.119	3489.74
714.306	3538.89
714.494	3495.88
714.682	3432.4
714.869	3436.49
715.057	3428.3
715.244	3309.52
715.432	3565.51
715.619	3514.31
715.807	3491.79
715.994	3330
716.182	3465.16
716.369	3440.59
716.556	3452.88
716.744	3471.31
716.931	3420.11
717.119	3375.05
717.306	3426.25
717.493	3497.93
717.681	3362.76
717.868	3487.69
718.055	3317.71
718.242	3368.91
718.43	3289.04
718.617	3373
718.804	3356.62
718.991	3303.37
719.179	3383.24
719.366	3278.8
719.553	3209.17
719.74	3213.26
719.927	3327.95
720.114	3409.87
720.301	3368.91
720.488	3346.38
720.676	3243.98
720.863	3305.42
721.05	3317.71
721.237	3268.56
721.424	3080.14
721.611	3317.71
721.798	3223.5
721.985	3252.17
722.172	3221.45
722.358	3309.52
722.545	3340.24
722.732	3248.08
722.919	3188.69
723.106	3203.02
723.293	3229.65
723.48	3209.17
723.667	3184.59
723.853	3145.68
724.04	3293.13
724.227	3114.96
724.414	3166.16
724.6	3133.39
724.787	3174.35
724.974	3143.63
725.161	3272.65
725.347	3155.92
725.534	3219.41
725.72	3119.06
725.907	3205.07
726.094	3119.06
726.28	3184.59
726.467	3110.86
726.653	3229.65
726.84	3166.16
727.027	3284.94
727.213	3002.32
727.4	3203.02
727.586	3248.08
727.773	3135.44
727.959	3147.73
728.145	3071.95
728.332	3108.82
728.518	3131.34
728.705	3086.29
728.891	3030.99
729.077	3033.04
729.264	3049.43
729.45	3127.25
729.636	3157.97
729.823	3094.48
730.009	2992.08
730.195	2854.87
730.382	3006.42
730.568	2967.51
730.754	3121.1
730.94	3035.09
731.126	2977.75
731.313	3035.09
731.499	2942.93
731.685	3114.96
731.871	3022.8
732.057	3018.71
732.243	3071.95
732.429	3006.42
732.615	3010.51
732.801	3006.42
732.987	2965.46
733.173	3028.95
733.359	2904.02
733.545	2973.65
733.731	2998.23
733.917	2983.89
734.103	3114.96
734.289	2963.41
734.475	2971.6
734.661	2981.84
734.847	2924.5
735.033	2967.51
735.219	2873.3
735.404	2901.97
735.59	2977.75
735.776	2920.4
735.962	3090.38
736.148	2836.44
736.333	2885.59
736.519	2846.68
736.705	2994.13
736.89	2906.07
737.076	3002.32
737.262	2797.53
737.447	2883.54
737.633	2766.81
737.819	2811.86
738.004	2779.09
738.19	2820.05
738.375	2822.1
738.561	2813.91
738.747	2881.49
738.932	2846.68
739.118	2924.5
739.303	2791.38
739.489	2750.42
739.674	2746.33
739.859	2723.8
740.045	2787.29
740.23	2830.29
740.416	2736.09
740.601	2875.35
740.786	2695.13
740.972	2723.8
741.157	2711.51
741.342	2621.4
741.528	2627.54
741.713	2723.8
741.898	2787.29
742.084	2578.39
742.269	2772.95
742.454	2658.26
742.639	2686.93
742.824	2662.36
743.01	2613.21
743.195	2609.11
743.38	2619.35
743.565	2609.11
743.75	2678.74
743.935	2627.54
744.12	2668.5
744.305	2625.5
744.49	2568.15
744.675	2465.75
744.86	2580.44
745.045	2529.24
745.23	2342.88
745.415	2473.95
745.6	2531.29
745.785	2387.93
745.97	2482.14
746.155	2426.84
746.34	2424.8
746.525	2267.1
746.71	2410.46
746.895	2271.2
747.079	2377.69
747.264	2402.27
747.449	2359.26
747.634	2330.59
747.819	2322.4
748.003	2281.44
748.188	2340.83
748.373	2234.33
748.557	2242.53
748.742	2164.7
748.927	2234.33
749.111	2179.04
749.296	2146.27
749.481	2293.72
749.665	2277.34
749.85	2039.78
750.034	2164.7
750.219	2119.65
750.404	2017.25
750.588	2076.64
750.773	2062.3
750.957	2029.54
751.141	2062.3
751.326	2007.01
751.51	2095.07
751.695	2074.59
751.879	1968.1
752.064	2045.92
752.248	1961.95
752.432	1984.48
752.617	1943.52
752.801	1955.81
752.985	1923.04
753.17	1929.19
753.354	1847.27
753.538	1980.39
753.722	1849.32
753.907	1853.41
754.091	1847.27
754.275	1708.01
754.459	1841.12
754.643	1810.4
754.828	1759.21
755.012	1777.64
755.196	1906.66
755.38	1824.74
755.564	1695.72
755.748	1660.9
755.932	1708.01
756.116	1697.77
756.3	1662.95
756.484	1644.52
756.668	1679.33
756.852	1667.05
757.036	1695.72
757.22	1568.74
757.404	1581.03
757.588	1624.04
757.772	1636.33
757.956	1652.71
758.14	1632.23
758.323	1556.46
758.507	1574.89
758.691	1568.74
758.875	1636.33
759.059	1578.98
759.242	1425.39
759.426	1523.69
759.61	1458.15
759.794	1521.64
759.977	1544.17
760.161	1542.12
760.345	1538.02
760.528	1435.63
760.712	1505.26
760.895	1447.91
761.079	1427.43
761.263	1474.54
761.446	1458.15
761.63	1400.81
761.813	1449.96
761.997	1439.72
762.18	1406.95
762.364	1415.15
762.547	1417.19
762.731	1310.7
762.914	1374.19
763.098	1257.45
763.281	1402.86
763.464	1292.27
763.648	1443.82
763.831	1425.39
764.015	1413.1
764.198	1343.47
764.381	1400.81
764.564	1200.11
764.748	1351.66
764.931	1273.84
765.114	1239.02
765.297	1302.51
765.481	1232.88
765.664	1298.41
765.847	1220.59
766.03	1288.17
766.213	1318.89
766.397	1251.31
766.58	1253.36
766.763	1253.36
766.946	1122.29
767.129	1224.69
767.312	1271.79
767.495	1193.97
767.678	1155.05
767.861	1218.54
768.044	1146.86
768.227	1228.78
768.41	1241.07
768.593	1273.84
768.776	1292.27
768.959	1146.86
769.142	1118.19
769.324	1222.64
769.507	1212.4
769.69	1091.57
769.873	1204.21
770.056	1142.77
770.239	1144.81
770.421	1148.91
770.604	1146.86
770.787	1198.06
770.97	1165.29
771.152	1093.62
771.335	1083.38
771.518	1069.04
771.7	1107.95
771.883	1015.79
772.066	1066.99
772.248	1081.33
772.431	1046.51
772.613	1062.9
772.796	1028.08
772.978	1114.09
773.161	1058.8
773.343	1091.57
773.526	1011.7
773.708	1021.94
773.891	991.22
774.073	960.5
774.256	1038.32
774.438	1019.89
774.621	1005.55
774.803	956.4
774.985	970.74
775.168	1058.8
775.35	909.3
775.532	917.49
775.715	944.11
775.897	915.44
776.079	911.35
776.261	940.02
776.444	915.44
776.626	872.43
776.808	960.5
776.99	958.45
777.173	880.63
777.355	874.48
777.537	829.43
777.719	833.52
777.901	903.15
778.083	856.05
778.265	888.82
778.447	886.77
778.629	880.63
778.811	860.15
778.993	882.67
779.175	827.38
779.357	839.67
779.539	888.82
779.721	839.67
779.903	811
780.085	692.21
780.267	731.12
780.449	897.01
780.631	749.56
780.812	770.04
780.994	829.43
781.176	708.6
781.358	880.63
781.54	700.41
781.721	751.6
781.903	675.83
782.085	718.84
782.267	669.69
782.448	696.31
782.63	739.32
782.812	649.21
782.993	761.84
783.175	788.47
783.357	643.06
783.538	659.45
783.72	655.35
783.901	634.87
784.083	702.45
784.264	688.12
784.446	595.96
784.627	630.77
784.809	587.77
784.99	645.11
785.172	692.21
785.353	702.45
785.535	647.16
785.716	548.86
785.897	614.39
786.079	632.82
786.26	524.28
786.441	608.25
786.623	577.53
786.804	442.36
786.985	561.14
787.167	548.86
787.348	526.33
787.529	565.24
787.71	659.45
787.891	557.05
788.073	520.18
788.254	557.05
788.435	536.57
788.616	526.33
788.797	516.09
788.978	534.52
789.159	487.42
789.34	526.33
789.522	495.61
789.703	405.5
789.884	511.99
790.065	477.18
790.246	530.42
790.427	448.51
790.607	434.17
790.788	462.84
790.969	452.6
791.15	450.55
791.331	450.55
791.512	503.8
791.693	428.03
791.874	436.22
792.054	458.74
792.235	456.7
792.416	417.79
792.597	385.02
792.778	432.12
792.958	479.22
793.139	423.93
793.32	374.78
793.5	385.02
793.681	389.11
793.862	428.03
794.042	339.96
794.223	417.79
794.404	417.79
794.584	344.06
794.765	358.39
794.945	389.11
795.126	342.01
795.306	460.79
795.487	364.54
795.667	380.92
795.848	372.73
796.028	368.63
796.209	358.39
796.389	454.65
796.57	415.74
796.75	380.92
796.93	380.92
797.111	352.25
797.291	372.73
797.471	299
797.652	372.73
797.832	294.91
798.012	403.45
798.192	374.78
798.373	409.59
798.553	354.3
798.733	403.45
798.913	311.29
799.093	376.83
799.274	339.96
799.454	342.01
799.634	391.16
799.814	307.2
799.994	389.11
800.174	335.87
800.354	325.63
800.534	323.58
800.714	350.2
800.894	370.68
801.074	327.67
801.254	270.33
801.434	315.39
801.614	299
801.794	311.29
801.974	673.78
802.154	327.67
802.334	342.01
802.514	268.28
802.693	327.67
802.873	348.15
803.053	333.82
803.233	284.67
803.413	323.58
803.592	264.19
803.772	319.48
803.952	311.29
804.131	239.61
804.311	331.77
804.491	315.39
804.67	208.89
804.85	241.66
805.03	282.62
805.209	260.09
805.389	288.76
805.568	249.85
805.748	307.2
805.928	292.86
806.107	258.04
806.287	278.52
806.466	241.66
806.646	286.72
806.825	274.43
807.004	241.66
807.184	247.8
807.363	276.48
807.543	229.37
807.722	225.28
807.901	256
808.081	229.37
808.26	231.42
808.439	229.37
808.619	266.24
808.798	215.04
808.977	278.52
809.156	219.13
809.336	192.51
809.515	184.32
809.694	249.85
809.873	192.51
810.052	264.19
810.231	264.19
810.411	135.17
810.59	157.69
810.769	241.66
810.948	204.8
811.127	217.08
811.306	217.08
811.485	174.08
811.664	231.42
811.843	249.85
812.022	176.13
812.201	202.75
812.38	184.32
812.559	149.5
812.737	258.04
812.916	239.61
813.095	172.03
813.274	200.7
813.453	188.41
813.632	153.6
813.811	301.05
813.989	200.7
814.168	184.32
814.347	215.04
814.526	210.94
814.704	167.93
814.883	196.6
815.062	233.47
815.24	174.08
815.419	157.69
815.598	174.08
815.776	137.21
815.955	204.8
816.133	176.13
816.312	198.65
816.49	198.65
816.669	147.45
816.847	114.69
817.026	239.61
817.204	212.99
817.383	188.41
817.561	151.55
817.74	172.03
817.918	145.41
818.097	151.55
818.275	163.84
818.453	182.27
818.632	198.65
818.81	151.55
818.988	112.64
819.167	196.6
819.345	163.84
819.523	122.88
819.701	198.65
819.879	180.22
820.058	157.69
820.236	122.88
820.414	163.84
820.592	114.69
820.77	126.97
820.948	114.69
821.127	106.49
821.305	180.22
821.483	126.97
821.661	163.84
821.839	178.17
822.017	219.13
822.195	59.39
822.373	167.93
822.551	143.36
822.729	94.21
822.907	192.51
823.085	163.84
823.262	192.51
823.44	135.17
823.618	139.26
823.796	86.01
823.974	223.23
824.152	94.21
824.329	155.65
824.507	163.84
824.685	139.26
824.863	102.4
825.04	65.53
825.218	182.27
825.396	157.69
825.574	145.41
825.751	172.03
825.929	176.13
826.107	114.69
826.284	190.46
826.462	94.21
826.639	157.69
826.817	194.56
826.994	133.12
827.172	94.21
827.349	90.11
827.527	141.31
827.704	94.21
827.882	100.35
828.059	129.02
828.237	53.25
828.414	153.6
828.591	116.73
828.769	172.03
828.946	98.3
829.124	86.01
829.301	92.16
829.478	133.12
829.655	139.26
829.833	163.84
830.01	51.2
830.187	108.54
830.364	67.58
830.542	90.11
830.719	145.41
830.896	145.41
831.073	28.67
831.25	63.49
831.427	110.59
831.604	163.84
831.782	88.06
831.959	116.73
832.136	77.82
832.313	116.73
832.49	110.59
832.667	149.5
832.844	135.17
833.021	178.17
833.198	116.73
833.374	100.35
833.551	88.06
833.728	79.87
833.905	129.02
834.082	133.12
834.259	73.73
834.436	112.64
834.612	90.11
834.789	174.08
834.966	81.92
835.143	53.25
835.319	122.88
835.496	81.92
835.673	110.59
835.85	77.82
836.026	2.05
836.203	137.21
836.38	98.3
836.556	120.83
836.733	63.49
836.909	139.26
837.086	43.01
837.262	90.11
837.439	67.58
837.616	22.53
837.792	53.25
837.968	112.64
838.145	69.63
838.321	90.11
838.498	61.44
838.674	59.39
838.851	90.11
839.027	100.35
839.203	86.01
839.38	110.59
839.556	73.73
839.732	118.78
839.909	47.1
840.085	63.49
840.261	86.01
840.437	88.06
840.614	57.34
840.79	114.69
840.966	-24.58
841.142	126.97
841.318	86.01
841.494	118.78
841.671	90.11
841.847	49.15
842.023	135.17
842.199	96.25
842.375	143.36
842.551	-32.77
842.727	43.01
842.903	155.65
843.079	45.06
843.255	135.17
843.431	45.06
843.607	55.3
843.783	6.14
843.959	90.11
844.134	108.54
844.31	92.16
844.486	6.14
844.662	26.62
844.838	65.53
845.013	86.01
845.189	92.16
845.365	22.53
845.541	73.73
845.716	57.34
845.892	69.63
846.068	32.77
846.244	36.86
846.419	102.4
846.595	36.86
846.77	57.34
846.946	79.87
847.122	30.72
847.297	112.64
847.473	55.3
847.648	86.01
847.824	55.3
847.999	83.97
848.175	118.78
848.35	104.45
848.526	63.49
848.701	22.53
848.876	143.36
849.052	77.82
849.227	116.73
849.403	34.82
849.578	61.44
849.753	24.58
849.929	65.53
850.104	-8.19
850.279	63.49
850.454	73.73
850.63	36.86
850.805	59.39
850.98	75.77
851.155	-8.19
851.33	28.67
851.505	77.82
851.681	51.2
851.856	-4.1
852.031	2.05
852.206	55.3
852.381	92.16
852.556	94.21
852.731	86.01
852.906	43.01
853.081	49.15
853.256	28.67
853.431	36.86
853.606	28.67
853.781	71.68
853.956	24.58
854.131	71.68
854.305	16.38
854.48	8.19
854.655	20.48
854.83	2.05
855.005	-40.96
855.18	65.53
855.354	45.06
855.529	61.44
855.704	108.54
855.879	-20.48
856.053	57.34
856.228	75.77
856.403	4.1
856.577	40.96
856.752	10.24
856.926	77.82
857.101	36.86
857.276	-26.62
857.45	71.68
857.625	-45.06
857.799	38.91
857.974	49.15
858.148	-24.58
858.323	-2.05
858.497	61.44
858.672	-2.05
858.846	28.67
859.02	88.06
859.195	-4.1
859.369	102.4
859.543	12.29
859.718	79.87
859.892	77.82
860.066	83.97
860.241	14.34
860.415	28.67
860.589	-38.91
860.763	94.21
860.938	32.77
861.112	45.06
861.286	-4.1
861.46	14.34
861.634	-8.19
861.808	65.53
861.982	-30.72
862.157	-22.53
862.331	100.35
862.505	32.77
862.679	2.05
862.853	47.1
863.027	30.72
863.201	83.97
863.375	-57.34
863.549	-6.14
863.722	30.72
863.896	57.34
864.07	53.25
864.244	28.67
864.418	86.01
864.592	10.24
864.766	43.01
864.939	45.06
865.113	36.86
865.287	69.63
865.461	122.88
865.634	61.44
865.808	94.21
865.982	38.91
866.156	16.38
866.329	-2.05
866.503	53.25
866.676	40.96
866.85	-16.38
867.024	14.34
867.197	34.82
867.371	102.4
867.544	-0
867.718	-0
867.891	-34.82
868.065	24.58
868.238	61.44
868.412	45.06
868.585	-69.63
868.759	59.39
868.932	10.24
869.105	28.67
869.279	-57.34
869.452	-12.29
869.625	40.96
869.799	22.53
869.972	-16.38
870.145	47.1
870.319	-47.1
870.492	-4.1
870.665	8.19
870.838	14.34
871.011	-12.29
871.185	-8.19
871.358	-12.29
871.531	73.73
871.704	-47.1
871.877	14.34
872.05	-32.77
872.223	34.82
872.396	79.87
872.569	-4.1
872.742	32.77
872.915	63.49
873.088	69.63
873.261	18.43
873.434	-12.29
873.607	36.86
873.78	26.62
873.953	18.43
874.126	6.14
874.299	16.38
874.471	-55.3
874.644	51.2
874.817	-2.05
874.99	61.44
875.163	-8.19
875.335	32.77
875.508	8.19
875.681	53.25
875.853	22.53
876.026	-8.19
876.199	30.72
876.371	45.06
876.544	-4.1
876.717	73.73
876.889	67.58
877.062	-8.19
877.234	-36.86
877.407	-24.58
877.579	36.86
877.752	12.29
877.924	4.1
878.097	63.49
878.269	28.67
878.442	86.01
878.614	-32.77
878.786	2.05
878.959	43.01
879.131	-14.34
879.303	63.49
879.476	98.3
879.648	10.24
879.82	67.58
879.993	-32.77
880.165	45.06
880.337	59.39
880.509	53.25
880.681	-8.19
880.854	-2.05
881.026	32.77
881.198	16.38
881.37	-32.77
881.542	24.58
881.714	-49.15
881.886	40.96
882.058	-24.58
882.23	-18.43
882.402	45.06
882.574	90.11
882.746	22.53
882.918	-8.19
883.09	20.48
883.262	43.01
883.434	-12.29
883.606	8.19
883.778	-16.38
883.95	69.63
884.122	-26.62
884.293	30.72
884.465	49.15
884.637	14.34
884.809	-16.38
884.98	-24.58
885.152	6.14
885.324	65.53
885.496	26.62
885.667	38.91
885.839	-8.19
886.011	32.77
886.182	-4.1
886.354	51.2
886.525	63.49
886.697	45.06
886.869	-24.58
887.04	2.05
887.212	59.39
887.383	40.96
887.555	-24.58
887.726	-26.62
887.897	-10.24
888.069	14.34
888.24	61.44
888.412	49.15
888.583	-34.82
888.754	-55.3
888.926	36.86
889.097	-43.01
889.268	20.48
889.44	45.06
889.611	26.62
889.782	10.24
889.953	4.1
890.125	83.97
890.296	-22.53
890.467	-10.24
890.638	51.2
890.809	-22.53
890.98	-30.72
891.151	-28.67
891.323	26.62
891.494	22.53
891.665	-10.24
891.836	38.91
892.007	12.29
892.178	18.43
892.349	106.49
892.52	-14.34
892.691	28.67
892.862	-40.96
893.032	-16.38
893.203	-20.48
893.374	-69.63
893.545	69.63
893.716	10.24
893.887	38.91
894.057	-65.54
894.228	28.67
894.399	40.96
894.57	22.53
894.74	-10.24
894.911	38.91
895.082	18.43
895.253	38.91
895.423	26.62
895.594	61.44
895.764	-18.43
895.935	-57.34
896.106	28.67
896.276	38.91
896.447	26.62
896.617	26.62
896.788	6.14
896.958	-10.24
897.129	40.96
897.299	-43.01
897.47	10.24
897.64	51.2
897.81	12.29
897.981	-8.19
898.151	51.2
898.322	71.68
898.492	-4.1
898.662	16.38
898.832	-0
899.003	-67.58
899.173	8.19
899.343	26.62
899.513	6.14
