Data from USB4F104151__196__11-10-02-026.txt Node

Date: Wed Mar 12 11:10:02 EDT 2025
User: louis
Spectrometer: USB4F10415
Trigger mode: 4
Integration Time (sec): 2.000000E-2
Scans to average: 1
Electric dark correction enabled: true
Nonlinearity correction enabled: false
Boxcar width: 0
XAxis mode: Wavelengths
Number of Pixels in Spectrum: 3648
>>>>>Begin Spectral Data<<<<<
178.204	-93.69
178.424	-93.69
178.644	-93.69
178.864	-144.89
179.084	-42.5
179.304	-5.63
179.524	-5.63
179.744	-3.58
179.964	2.56
180.184	20.99
180.404	-7.68
180.624	-54.78
180.844	27.14
181.064	6.66
181.283	2.56
181.503	14.85
181.723	2.56
181.943	-52.74
182.163	33.28
182.383	47.62
182.602	-46.59
182.822	64
183.042	29.18
183.262	-69.12
183.482	-46.59
183.701	70.14
183.921	2.56
184.141	-7.68
184.361	86.53
184.58	-19.97
184.8	-11.78
185.02	-9.73
185.239	68.09
185.459	8.7
185.679	-9.73
185.898	-110.08
186.118	27.14
186.338	68.09
186.557	49.66
186.777	39.42
186.997	23.04
187.216	8.7
187.436	6.66
187.655	10.75
187.875	-44.54
188.095	37.38
188.314	4.61
188.534	35.33
188.753	-15.87
188.973	10.75
189.192	-9.73
189.412	64
189.631	-13.82
189.851	51.71
190.07	35.33
190.29	-87.55
190.509	45.57
190.729	-13.82
190.948	33.28
191.168	76.29
191.387	49.66
191.607	37.38
191.826	-15.87
192.045	-24.06
192.265	45.57
192.484	31.23
192.704	-15.87
192.923	27.14
193.142	82.43
193.362	39.42
193.581	-22.02
193.8	18.94
194.02	4.61
194.239	-11.78
194.458	-46.59
194.678	14.85
194.897	33.28
195.116	-36.35
195.335	-30.21
195.555	6.66
195.774	-22.02
195.993	-26.11
196.212	12.8
196.432	-60.93
196.651	8.7
196.87	-54.78
197.089	23.04
197.308	23.04
197.528	68.09
197.747	-44.54
197.966	2.56
198.185	-17.92
198.404	-36.35
198.623	-1.54
198.842	-19.97
199.062	76.29
199.281	-26.11
199.5	-7.68
199.719	23.04
199.938	47.62
200.157	45.57
200.376	43.52
200.595	78.33
200.814	64
201.033	-50.69
201.252	14.85
201.471	82.43
201.69	14.85
201.909	-9.73
202.128	27.14
202.347	66.05
202.566	16.9
202.785	-26.11
203.004	-13.82
203.223	72.19
203.442	47.62
203.661	57.86
203.879	-28.16
204.098	-30.21
204.317	-79.36
204.536	41.47
204.755	41.47
204.974	-69.12
205.193	51.71
205.411	23.04
205.63	-1.54
205.849	-5.63
206.068	39.42
206.287	12.8
206.505	-17.92
206.724	47.62
206.943	-58.88
207.162	-24.06
207.381	29.18
207.599	-32.26
207.818	0.51
208.037	-13.82
208.255	-22.02
208.474	6.66
208.693	6.66
208.911	-7.68
209.13	-22.02
209.349	-17.92
209.567	-1.54
209.786	45.57
210.005	-30.21
210.223	-22.02
210.442	-11.78
210.661	-13.82
210.879	0.51
211.098	53.76
211.316	-9.73
211.535	70.14
211.753	37.38
211.972	4.61
212.191	31.23
212.409	27.14
212.628	-38.4
212.846	18.94
213.065	20.99
213.283	92.67
213.502	-67.07
213.72	64
213.938	-5.63
214.157	14.85
214.375	0.51
214.594	14.85
214.812	-56.83
215.031	-7.68
215.249	-1.54
215.467	8.7
215.686	-26.11
215.904	39.42
216.122	2.56
216.341	27.14
216.559	16.9
216.778	51.71
216.996	-5.63
217.214	-50.69
217.432	-32.26
217.651	-77.31
217.869	39.42
218.087	74.24
218.306	4.61
218.524	6.66
218.742	2.56
218.96	-32.26
219.179	-5.63
219.397	27.14
219.615	47.62
219.833	78.33
220.051	4.61
220.27	35.33
220.488	20.99
220.706	-1.54
220.924	12.8
221.142	27.14
221.36	35.33
221.578	-40.45
221.796	18.94
222.015	0.51
222.233	4.61
222.451	23.04
222.669	-15.87
222.887	96.77
223.105	-17.92
223.323	68.09
223.541	-19.97
223.759	29.18
223.977	-73.21
224.195	39.42
224.413	45.57
224.631	43.52
224.849	12.8
225.067	2.56
225.285	-1.54
225.503	23.04
225.721	0.51
225.939	64
226.157	14.85
226.375	100.86
226.592	-3.58
226.81	10.75
227.028	45.57
227.246	80.38
227.464	8.7
227.682	37.38
227.9	4.61
228.117	10.75
228.335	53.76
228.553	2.56
228.771	27.14
228.989	68.09
229.206	16.9
229.424	0.51
229.642	6.66
229.86	-13.82
230.077	23.04
230.295	-22.02
230.513	18.94
230.731	-44.54
230.948	12.8
231.166	55.81
231.384	-13.82
231.601	-36.35
231.819	-9.73
232.037	2.56
232.254	-22.02
232.472	12.8
232.689	10.75
232.907	2.56
233.125	-28.16
233.342	39.42
233.56	-44.54
233.777	35.33
233.995	-7.68
234.213	43.52
234.43	18.94
234.648	-26.11
234.865	2.56
235.083	29.18
235.3	14.85
235.518	-3.58
235.735	76.29
235.953	31.23
236.17	-30.21
236.388	-1.54
236.605	-17.92
236.822	39.42
237.04	23.04
237.257	23.04
237.475	-26.11
237.692	-73.21
237.909	-1.54
238.127	20.99
238.344	-24.06
238.562	39.42
238.779	10.75
238.996	-36.35
239.214	-1.54
239.431	41.47
239.648	6.66
239.865	55.81
240.083	20.99
240.3	-22.02
240.517	-15.87
240.735	39.42
240.952	31.23
241.169	-69.12
241.386	23.04
241.603	10.75
241.821	10.75
242.038	25.09
242.255	29.18
242.472	2.56
242.689	-19.97
242.907	-11.78
243.124	18.94
243.341	59.9
243.558	-3.58
243.775	-28.16
243.992	-15.87
244.209	45.57
244.426	33.28
244.643	27.14
244.86	27.14
245.078	-13.82
245.295	66.05
245.512	2.56
245.729	6.66
245.946	55.81
246.163	35.33
246.38	-52.74
246.597	20.99
246.814	29.18
247.031	-38.4
247.248	-3.58
247.464	78.33
247.681	29.18
247.898	100.86
248.115	84.48
248.332	-32.26
248.549	57.86
248.766	20.99
248.983	16.9
249.2	-67.07
249.417	20.99
249.633	6.66
249.85	10.75
250.067	115.2
250.284	18.94
250.501	78.33
250.717	-19.97
250.934	4.61
251.151	25.09
251.368	-46.59
251.585	20.99
251.801	0.51
252.018	-71.17
252.235	14.85
252.451	27.14
252.668	12.8
252.885	-9.73
253.102	14.85
253.318	104.96
253.535	-77.31
253.752	53.76
253.968	39.42
254.185	-11.78
254.401	-24.06
254.618	2.56
254.835	-17.92
255.051	-22.02
255.268	-65.02
255.484	-3.58
255.701	-17.92
255.917	2.56
256.134	-1.54
256.351	4.61
256.567	-5.63
256.784	-9.73
257	-73.21
257.217	61.95
257.433	29.18
257.65	70.14
257.866	-34.3
258.082	-40.45
258.299	64
258.515	23.04
258.732	0.51
258.948	92.67
259.165	45.57
259.381	61.95
259.597	-30.21
259.814	16.9
260.03	-5.63
260.246	-34.3
260.463	-15.87
260.679	-34.3
260.895	-22.02
261.112	25.09
261.328	49.66
261.544	16.9
261.761	43.52
261.977	-5.63
262.193	14.85
262.409	-17.92
262.626	-30.21
262.842	29.18
263.058	6.66
263.274	-73.21
263.49	35.33
263.707	-34.3
263.923	-1.54
264.139	-79.36
264.355	-38.4
264.571	2.56
264.787	-1.54
265.004	25.09
265.22	68.09
265.436	23.04
265.652	14.85
265.868	53.76
266.084	-46.59
266.3	-17.92
266.516	0.51
266.732	104.96
266.948	37.38
267.164	4.61
267.38	8.7
267.596	41.47
267.812	25.09
268.028	-28.16
268.244	23.04
268.46	-38.4
268.676	-38.4
268.892	2.56
269.108	18.94
269.324	41.47
269.54	-40.45
269.756	41.47
269.972	-30.21
270.188	-24.06
270.403	-24.06
270.619	-38.4
270.835	-9.73
271.051	47.62
271.267	2.56
271.483	-9.73
271.698	80.38
271.914	-19.97
272.13	-28.16
272.346	-22.02
272.562	72.19
272.777	64
272.993	27.14
273.209	39.42
273.425	6.66
273.64	-17.92
273.856	-24.06
274.072	18.94
274.287	41.47
274.503	-40.45
274.719	23.04
274.934	20.99
275.15	2.56
275.366	20.99
275.581	14.85
275.797	-22.02
276.012	-42.5
276.228	-9.73
276.444	8.7
276.659	25.09
276.875	-38.4
277.09	27.14
277.306	-9.73
277.521	25.09
277.737	-60.93
277.952	43.52
278.168	-30.21
278.383	16.9
278.599	-5.63
278.814	-24.06
279.03	-54.78
279.245	41.47
279.461	-32.26
279.676	-24.06
279.892	109.05
280.107	10.75
280.322	2.56
280.538	64
280.753	53.76
280.969	12.8
281.184	6.66
281.399	-13.82
281.615	4.61
281.83	10.75
282.045	-38.4
282.26	25.09
282.476	-26.11
282.691	41.47
282.906	55.81
283.122	-11.78
283.337	-58.88
283.552	74.24
283.767	-17.92
283.983	61.95
284.198	-17.92
284.413	35.33
284.628	51.71
284.843	-34.3
285.058	55.81
285.274	35.33
285.489	-15.87
285.704	47.62
285.919	-11.78
286.134	86.53
286.349	20.99
286.564	47.62
286.779	61.95
286.995	47.62
287.21	43.52
287.425	-60.93
287.64	27.14
287.855	-3.58
288.07	-34.3
288.285	12.8
288.5	-26.11
288.715	86.53
288.93	-44.54
289.145	-17.92
289.36	0.51
289.575	-24.06
289.79	64
290.004	27.14
290.219	-28.16
290.434	-67.07
290.649	-58.88
290.864	-13.82
291.079	-71.17
291.294	27.14
291.509	18.94
291.724	31.23
291.938	8.7
292.153	57.86
292.368	-17.92
292.583	31.23
292.798	80.38
293.012	-19.97
293.227	14.85
293.442	14.85
293.657	14.85
293.871	18.94
294.086	76.29
294.301	55.81
294.516	27.14
294.73	10.75
294.945	-50.69
295.16	6.66
295.374	27.14
295.589	0.51
295.804	45.57
296.018	-3.58
296.233	10.75
296.447	-19.97
296.662	-7.68
296.877	10.75
297.091	51.71
297.306	-11.78
297.52	14.85
297.735	2.56
297.949	33.28
298.164	-22.02
298.378	23.04
298.593	57.86
298.807	16.9
299.022	10.75
299.236	27.14
299.451	43.52
299.665	4.61
299.88	-11.78
300.094	16.9
300.309	72.19
300.523	-32.26
300.737	-17.92
300.952	53.76
301.166	39.42
301.381	-34.3
301.595	23.04
301.809	-3.58
302.024	-32.26
302.238	6.66
302.452	98.81
302.667	57.86
302.881	68.09
303.095	-15.87
303.309	12.8
303.524	12.8
303.738	23.04
303.952	-42.5
304.166	37.38
304.381	2.56
304.595	39.42
304.809	18.94
305.023	45.57
305.237	-9.73
305.452	76.29
305.666	78.33
305.88	43.52
306.094	47.62
306.308	31.23
306.522	68.09
306.736	4.61
306.95	49.66
307.164	-22.02
307.379	-69.12
307.593	4.61
307.807	14.85
308.021	98.81
308.235	37.38
308.449	-40.45
308.663	49.66
308.877	76.29
309.091	6.66
309.305	37.38
309.519	-62.98
309.733	-9.73
309.947	18.94
310.161	-26.11
310.374	25.09
310.588	33.28
310.802	-32.26
311.016	8.7
311.23	10.75
311.444	-54.78
311.658	-42.5
311.872	39.42
312.085	-13.82
312.299	10.75
312.513	-13.82
312.727	2.56
312.941	-17.92
313.154	23.04
313.368	20.99
313.582	64
313.796	4.61
314.009	2.56
314.223	74.24
314.437	33.28
314.651	76.29
314.864	-32.26
315.078	-36.35
315.292	43.52
315.505	31.23
315.719	111.1
315.933	23.04
316.146	-9.73
316.36	-69.12
316.573	35.33
316.787	-26.11
317.001	61.95
317.214	-46.59
317.428	78.33
317.641	-38.4
317.855	-9.73
318.068	39.42
318.282	35.33
318.495	33.28
318.709	12.8
318.922	6.66
319.136	72.19
319.349	0.51
319.563	4.61
319.776	39.42
319.99	18.94
320.203	20.99
320.417	66.05
320.63	18.94
320.843	33.28
321.057	-34.3
321.27	39.42
321.483	33.28
321.697	96.77
321.91	14.85
322.124	23.04
322.337	27.14
322.55	2.56
322.763	39.42
322.977	16.9
323.19	12.8
323.403	57.86
323.617	-1.54
323.83	4.61
324.043	-46.59
324.256	-9.73
324.469	18.94
324.683	35.33
324.896	47.62
325.109	61.95
325.322	-9.73
325.535	25.09
325.748	-24.06
325.962	4.61
326.175	8.7
326.388	16.9
326.601	-48.64
326.814	-26.11
327.027	-13.82
327.24	127.49
327.453	-36.35
327.666	14.85
327.879	29.18
328.092	72.19
328.305	37.38
328.518	-9.73
328.731	-26.11
328.944	-28.16
329.157	33.28
329.37	27.14
329.583	43.52
329.796	0.51
330.009	-24.06
330.222	-13.82
330.435	39.42
330.648	64
330.861	-24.06
331.073	47.62
331.286	16.9
331.499	25.09
331.712	12.8
331.925	49.66
332.138	27.14
332.35	53.76
332.563	16.9
332.776	98.81
332.989	10.75
333.202	16.9
333.414	92.67
333.627	6.66
333.84	6.66
334.053	72.19
334.265	20.99
334.478	-3.58
334.691	14.85
334.903	-15.87
335.116	-34.3
335.329	-1.54
335.541	16.9
335.754	49.66
335.966	-1.54
336.179	-7.68
336.392	8.7
336.604	-3.58
336.817	18.94
337.029	2.56
337.242	74.24
337.454	23.04
337.667	-30.21
337.88	-5.63
338.092	25.09
338.305	-54.78
338.517	-3.58
338.729	37.38
338.942	10.75
339.154	12.8
339.367	45.57
339.579	-42.5
339.792	-40.45
340.004	-1.54
340.217	18.94
340.429	90.62
340.641	-15.87
340.854	4.61
341.066	-11.78
341.278	-26.11
341.491	64
341.703	-19.97
341.915	-3.58
342.128	35.33
342.34	-11.78
342.552	39.42
342.764	-1.54
342.977	10.75
343.189	-62.98
343.401	10.75
343.613	2.56
343.826	-3.58
344.038	-1.54
344.25	4.61
344.462	4.61
344.674	-5.63
344.886	-13.82
345.099	-38.4
345.311	-11.78
345.523	-3.58
345.735	-42.5
345.947	68.09
346.159	8.7
346.371	0.51
346.583	-1.54
346.795	74.24
347.007	-26.11
347.219	100.86
347.431	4.61
347.643	8.7
347.855	-1.54
348.067	-46.59
348.279	-46.59
348.491	-5.63
348.703	-3.58
348.915	10.75
349.127	-38.4
349.339	-19.97
349.551	-34.3
349.763	20.99
349.975	-93.69
350.187	74.24
350.399	39.42
350.61	31.23
350.822	-26.11
351.034	-9.73
351.246	16.9
351.458	49.66
351.669	4.61
351.881	64
352.093	78.33
352.305	31.23
352.517	4.61
352.728	-65.02
352.94	-56.83
353.152	-9.73
353.363	-36.35
353.575	-36.35
353.787	-62.98
353.999	-19.97
354.21	102.91
354.422	-26.11
354.633	4.61
354.845	8.7
355.057	18.94
355.268	-17.92
355.48	51.71
355.692	12.8
355.903	23.04
356.115	18.94
356.326	-24.06
356.538	57.86
356.749	29.18
356.961	53.76
357.172	-9.73
357.384	6.66
357.595	33.28
357.807	57.86
358.018	0.51
358.23	35.33
358.441	64
358.653	12.8
358.864	20.99
359.075	23.04
359.287	-32.26
359.498	31.23
359.709	33.28
359.921	12.8
360.132	-3.58
360.344	6.66
360.555	23.04
360.766	84.48
360.977	-15.87
361.189	25.09
361.4	-30.21
361.611	98.81
361.823	55.81
362.034	27.14
362.245	47.62
362.456	72.19
362.667	66.05
362.879	33.28
363.09	-32.26
363.301	-5.63
363.512	23.04
363.723	76.29
363.935	-81.41
364.146	2.56
364.357	43.52
364.568	-50.69
364.779	29.18
364.99	23.04
365.201	-54.78
365.412	-32.26
365.623	-19.97
365.834	0.51
366.045	-5.63
366.256	49.66
366.467	82.43
366.678	-15.87
366.889	-42.5
367.1	-5.63
367.311	14.85
367.522	-22.02
367.733	55.81
367.944	-3.58
368.155	-1.54
368.366	6.66
368.577	-13.82
368.788	-7.68
368.999	-7.68
369.209	-26.11
369.42	16.9
369.631	84.48
369.842	-34.3
370.053	-11.78
370.264	121.34
370.474	76.29
370.685	51.71
370.896	-5.63
371.107	6.66
371.317	72.19
371.528	-71.17
371.739	-3.58
371.95	25.09
372.16	74.24
372.371	47.62
372.582	29.18
372.792	37.38
373.003	18.94
373.214	-28.16
373.424	8.7
373.635	2.56
373.846	35.33
374.056	-17.92
374.267	31.23
374.477	64
374.688	-9.73
374.898	-11.78
375.109	-13.82
375.319	-13.82
375.53	-11.78
375.74	64
375.951	29.18
376.161	2.56
376.372	10.75
376.582	0.51
376.793	12.8
377.003	33.28
377.214	35.33
377.424	61.95
377.635	6.66
377.845	12.8
378.055	31.23
378.266	41.47
378.476	31.23
378.686	23.04
378.897	92.67
379.107	-15.87
379.317	47.62
379.528	18.94
379.738	-1.54
379.948	33.28
380.158	6.66
380.369	92.67
380.579	33.28
380.789	8.7
380.999	150.01
381.21	6.66
381.42	35.33
381.63	10.75
381.84	14.85
382.05	37.38
382.261	23.04
382.471	47.62
382.681	8.7
382.891	47.62
383.101	43.52
383.311	27.14
383.521	-73.21
383.731	-46.59
383.941	25.09
384.151	-30.21
384.361	29.18
384.571	-32.26
384.781	43.52
384.991	20.99
385.201	-1.54
385.411	-42.5
385.621	23.04
385.831	18.94
386.041	104.96
386.251	43.52
386.461	18.94
386.671	59.9
386.881	29.18
387.091	23.04
387.301	49.66
387.511	20.99
387.72	-19.97
387.93	53.76
388.14	-3.58
388.35	2.56
388.56	23.04
388.769	61.95
388.979	2.56
389.189	-42.5
389.399	-75.26
389.609	10.75
389.818	70.14
390.028	2.56
390.238	18.94
390.447	-7.68
390.657	27.14
390.867	-52.74
391.076	16.9
391.286	88.57
391.496	-15.87
391.705	-13.82
391.915	20.99
392.125	64
392.334	35.33
392.544	-3.58
392.753	41.47
392.963	14.85
393.172	10.75
393.382	-48.64
393.591	-9.73
393.801	-3.58
394.01	2.56
394.22	6.66
394.429	-99.84
394.639	-11.78
394.848	39.42
395.058	-13.82
395.267	53.76
395.477	18.94
395.686	25.09
395.895	4.61
396.105	12.8
396.314	41.47
396.524	31.23
396.733	14.85
396.942	57.86
397.152	53.76
397.361	80.38
397.57	61.95
397.78	113.15
397.989	61.95
398.198	43.52
398.407	12.8
398.617	45.57
398.826	8.7
399.035	-17.92
399.244	51.71
399.453	2.56
399.663	23.04
399.872	72.19
400.081	31.23
400.29	43.52
400.499	59.9
400.708	37.38
400.917	88.57
401.127	25.09
401.336	20.99
401.545	70.14
401.754	31.23
401.963	18.94
402.172	25.09
402.381	70.14
402.59	84.48
402.799	-3.58
403.008	37.38
403.217	80.38
403.426	-34.3
403.635	31.23
403.844	8.7
404.053	80.38
404.262	94.72
404.471	57.86
404.68	20.99
404.888	68.09
405.097	86.53
405.306	41.47
405.515	-9.73
405.724	18.94
405.933	53.76
406.142	86.53
406.35	76.29
406.559	121.34
406.768	76.29
406.977	96.77
407.185	78.33
407.394	35.33
407.603	59.9
407.812	35.33
408.02	-1.54
408.229	0.51
408.438	86.53
408.646	78.33
408.855	49.66
409.064	90.62
409.272	76.29
409.481	84.48
409.69	104.96
409.898	84.48
410.107	74.24
410.315	92.67
410.524	119.29
410.733	41.47
410.941	80.38
411.15	129.53
411.358	59.9
411.567	160.25
411.775	96.77
411.984	80.38
412.192	117.25
412.401	158.21
412.609	158.21
412.818	143.87
413.026	162.3
413.234	166.4
413.443	98.81
413.651	96.77
413.86	197.12
414.068	199.16
414.276	211.45
414.485	158.21
414.693	168.45
414.901	303.61
415.11	176.64
415.318	205.31
415.526	197.12
415.734	211.45
415.943	195.07
416.151	268.8
416.359	166.4
416.567	186.88
416.776	238.08
416.984	305.66
417.192	389.63
417.4	262.65
417.608	244.22
417.817	301.56
418.025	344.57
418.233	360.95
418.441	393.72
418.649	393.72
418.857	410.11
419.065	420.35
419.273	424.44
419.481	336.38
419.689	487.93
419.897	416.25
420.105	403.96
420.313	463.35
420.521	479.74
420.729	471.54
420.937	489.98
421.145	588.28
421.353	532.98
421.561	600.57
421.769	580.09
421.977	682.49
422.185	621.05
422.393	610.81
422.601	676.34
422.809	707.06
423.017	737.78
423.224	696.82
423.432	735.73
423.64	741.88
423.848	897.52
424.056	758.26
424.263	827.89
424.471	846.32
424.679	920.05
424.887	866.8
425.094	1067.5
425.302	1001.97
425.51	905.71
425.718	942.58
425.925	958.96
426.133	1079.79
426.341	1182.19
426.548	1208.81
426.756	1174
426.964	1235.44
427.171	1296.88
427.379	1317.36
427.586	1348.08
427.794	1317.36
428.001	1507.82
428.209	1407.47
428.417	1526.25
428.624	1509.86
428.832	1634.79
429.039	1513.96
429.247	1657.32
429.454	1737.19
429.662	1812.96
429.869	1685.99
430.076	1812.96
430.284	1901.03
430.491	1825.25
430.699	1974.75
430.906	1888.74
431.114	2064.86
431.321	2058.72
431.528	2075.1
431.736	2206.17
431.943	2304.48
432.15	2216.41
432.358	2224.61
432.565	2390.49
432.772	2410.97
432.979	2523.61
433.187	2519.51
433.394	2552.28
433.601	2683.35
433.808	2689.49
434.016	2683.35
434.223	2800.09
434.43	3004.88
434.637	2943.44
434.844	3101.14
435.052	3279.31
435.259	3099.09
435.466	3156.43
435.673	3275.21
435.88	3381.71
436.087	3566.03
436.294	3672.52
436.501	3369.42
436.708	3480.01
436.915	3606.98
437.122	3774.92
437.329	3709.38
437.537	3776.97
437.743	3957.19
437.95	4000.19
438.157	4098.5
438.364	4311.49
438.571	4356.54
438.778	4245.95
438.985	4628.92
439.192	4495.8
439.399	4819.38
439.606	4721.08
439.813	4731.32
440.02	5097.91
440.227	5161.39
440.433	4940.21
440.64	5083.57
440.847	4946.36
441.054	5249.46
441.261	5589.42
441.467	5519.79
441.674	5708.2
441.881	5808.55
442.088	5829.03
442.294	5724.58
442.501	5908.9
442.708	6076.84
442.914	6195.62
443.121	6472.09
443.328	6572.44
443.534	6764.95
443.741	6623.64
443.948	6468
444.154	7104.92
444.361	6998.42
444.568	7084.44
444.774	7018.9
444.981	6947.22
445.187	7244.18
445.394	7514.51
445.6	7600.52
445.807	8268.16
446.013	7707.02
446.22	7866.76
446.426	8245.63
446.633	8464.77
446.839	8567.17
447.046	8231.3
447.252	8751.48
447.459	8708.48
447.665	8677.76
447.871	9048.44
448.078	9255.28
448.284	9277.81
448.491	9376.11
448.697	9603.44
448.903	9754.99
449.11	9738.6
449.316	9591.15
449.522	9718.12
449.728	9992.55
449.935	10140.01
450.141	10097
450.347	10492.26
450.553	10115.43
450.76	10109.29
450.966	10525.02
451.172	10482.02
451.378	10625.37
451.584	10266.98
451.791	10744.16
451.997	10711.39
452.203	10879.32
452.409	10717.53
452.615	10590.56
452.821	10312.03
453.027	10193.25
453.233	10762.59
453.44	10209.64
453.646	10320.23
453.852	10467.68
454.058	10662.24
454.264	10275.17
454.47	10488.16
454.676	10135.91
454.882	10445.15
455.088	9648.49
455.294	9845.1
455.5	9873.77
455.705	9953.64
455.911	9740.65
456.117	9433.46
456.323	9214.32
456.529	8872.31
456.735	9329.01
456.941	8964.47
457.147	8659.32
457.352	8518.01
457.558	8425.86
457.764	8331.65
457.97	8374.66
458.176	8112.52
458.381	8118.66
458.587	7747.98
458.793	7709.07
458.999	7393.68
459.204	7877
459.41	7649.68
459.616	7205.27
459.821	6916.5
460.027	7033.24
460.233	6912.41
460.438	6584.73
460.644	6717.85
460.85	6248.86
461.055	6336.93
461.261	6341.02
461.466	5796.26
461.672	5478.83
461.878	6015.4
462.083	5704.1
462.289	5491.12
462.494	5538.22
462.7	5222.83
462.905	5312.94
463.111	5261.74
463.316	5370.29
463.522	5095.86
463.727	5155.25
463.932	5231.02
464.138	5091.76
464.343	5145.01
464.549	4991.41
464.754	5282.22
464.959	5214.64
465.165	5015.99
465.37	4794.81
465.575	4676.02
465.781	4991.41
465.986	4991.41
466.191	4901.3
466.397	4583.87
466.602	4497.85
466.807	4608.44
467.012	4624.83
467.218	4544.95
467.423	4530.62
467.628	4757.94
467.833	4878.77
468.038	4716.98
468.244	4424.12
468.449	4704.7
468.654	4565.43
468.859	4596.15
469.064	4364.73
469.269	4227.52
469.474	4323.77
469.679	4446.65
469.885	4362.69
470.09	4315.58
470.295	4405.69
470.5	4186.56
470.705	4270.53
470.91	4078.02
471.115	4164.03
471.32	4231.62
471.525	4174.27
471.73	3983.81
471.935	3967.43
472.139	3926.47
472.344	4061.63
472.549	4014.53
472.754	3817.93
472.959	3752.39
473.164	3715.53
473.369	3799.49
473.574	3764.68
473.778	3606.98
473.983	3746.25
474.188	3662.28
474.393	3580.36
474.598	3580.36
474.802	3633.61
475.007	3488.2
475.212	3477.96
475.417	3277.26
475.621	3328.46
475.826	3324.37
476.031	3379.66
476.235	3230.16
476.44	3303.89
476.645	3318.22
476.849	3267.02
477.054	3307.98
477.259	3228.11
477.463	3250.64
477.668	3060.18
477.872	3203.54
478.077	3115.47
478.282	2982.35
478.486	3101.14
478.691	2939.35
478.895	3021.27
479.1	3039.7
479.304	2865.62
479.509	2877.91
479.713	3115.47
479.918	2957.78
480.122	2875.86
480.326	2843.09
480.531	2832.85
480.735	2929.11
480.94	2816.47
481.144	2904.53
481.348	2750.93
481.553	2738.65
481.757	2656.73
481.961	2863.57
482.166	2812.37
482.37	2728.41
482.574	2699.73
482.778	2769.37
482.983	2867.67
483.187	2709.97
483.391	2824.66
483.595	2882
483.8	2746.84
484.004	2820.56
484.208	2615.77
484.412	2750.93
484.616	2771.41
484.821	2728.41
485.025	2689.49
485.229	2740.69
485.433	2687.45
485.637	2732.5
485.841	2707.93
486.045	2750.93
486.249	2656.73
486.453	2759.13
486.657	2621.91
486.861	2599.38
487.065	2716.12
487.269	2675.16
487.473	2769.37
487.677	2802.13
487.881	2822.61
488.085	2695.64
488.289	2890.2
488.493	2795.99
488.697	2687.45
488.901	2808.28
489.105	2802.13
489.309	2767.32
489.512	2808.28
489.716	2785.75
489.92	2839
490.124	2830.8
490.328	2859.48
490.531	2742.74
490.735	2873.81
490.939	2902.48
491.143	2769.37
491.346	2769.37
491.55	2892.24
491.754	2865.62
491.958	2986.45
492.161	2740.69
492.365	2824.66
492.569	2787.8
492.772	2935.25
492.976	2896.34
493.18	2904.53
493.383	3019.22
493.587	2972.11
493.79	2974.16
493.994	3060.18
494.197	3008.98
494.401	3015.12
494.605	3172.82
494.808	3158.48
495.012	3185.1
495.215	3017.17
495.419	3119.57
495.622	3148.24
495.825	3094.99
496.029	3195.34
496.232	3328.46
496.436	3287.5
496.639	3451.34
496.843	3344.84
497.046	3420.62
497.249	3627.46
497.453	3406.28
497.656	3418.57
497.859	3592.65
498.063	3611.08
498.266	3545.55
498.469	3570.12
498.673	3649.99
498.876	3738.05
499.079	3625.42
499.282	3740.1
499.485	3844.55
499.689	3770.82
499.892	3924.42
500.095	3791.3
500.298	3961.28
500.501	3891.65
500.705	3977.67
500.908	4092.35
501.111	4043.2
501.314	4198.85
501.517	4057.54
501.72	4360.64
501.923	4211.14
502.126	4516.28
502.329	4409.79
502.532	4381.12
502.735	4608.44
502.938	4516.28
503.141	4561.34
503.344	4788.66
503.547	4657.59
503.75	4700.6
503.953	4882.87
504.156	4903.35
504.359	4878.77
504.562	5075.38
504.765	5196.21
504.968	4901.3
505.17	5185.97
505.373	5167.54
505.576	5216.69
505.779	5300.66
505.982	5366.19
506.185	5439.92
506.387	5546.41
506.59	5657
506.793	5763.5
506.996	5595.56
507.198	5747.11
507.401	5730.73
507.604	5980.58
507.807	5913
508.009	5945.77
508.212	6089.12
508.415	6193.57
508.617	6125.99
508.82	6277.54
509.022	6244.77
509.225	6263.2
509.428	6455.71
509.63	6461.85
509.833	6613.4
510.035	6660.51
510.238	6433.18
510.44	6586.78
510.643	6791.58
510.845	6848.92
511.048	6676.89
511.25	6957.46
511.453	7072.15
511.655	7246.23
511.858	7334.29
512.06	7399.82
512.262	7444.88
512.465	7590.28
512.667	7567.76
512.87	7436.69
513.072	7543.18
513.274	7813.51
513.477	8010.12
513.679	7993.73
513.881	7946.63
514.084	8038.79
514.286	8016.26
514.488	8096.13
514.69	8448.38
514.893	8475.01
515.095	8515.97
515.297	8657.28
515.499	8382.85
515.701	8558.97
515.904	8712.57
516.106	8870.26
516.308	8931.7
516.51	9007.48
516.712	9259.38
516.914	9208.18
517.116	9279.86
517.318	9185.65
517.52	9546.09
517.722	9830.76
517.925	9482.61
518.127	9709.93
518.329	9804.14
518.531	9935.21
518.733	10037.61
518.935	10021.22
519.136	10416.48
519.338	10207.59
519.54	10246.5
519.742	10297.7
519.944	10537.31
520.146	10692.96
520.348	10756.44
520.55	10709.34
520.752	10826.07
520.954	11041.11
521.155	11016.54
521.357	11321.68
521.559	11475.28
521.761	11512.14
521.963	11368.79
522.164	11342.16
522.366	11573.58
522.568	11716.94
522.77	11747.66
522.971	11759.95
523.173	11913.55
523.375	12077.38
523.576	11987.27
523.778	12110.15
523.98	12214.6
524.181	12177.73
524.383	12353.86
524.584	12347.72
524.786	12572.99
524.988	12437.83
525.189	12646.72
525.391	12736.83
525.592	12794.17
525.794	12998.97
525.995	13050.17
526.197	12980.54
526.398	13183.29
526.6	13099.32
526.801	13160.76
527.003	13273.4
527.204	13295.93
527.406	13455.67
527.607	13394.23
527.808	13551.92
528.01	13340.98
528.211	13441.33
528.412	13639.98
528.614	13386.04
528.815	13588.78
529.016	13789.49
529.218	13609.26
529.419	13668.66
529.62	13873.45
529.822	13818.16
530.023	13601.07
530.224	14123.3
530.425	13943.08
530.626	13898.03
530.828	13879.6
531.029	14272.81
531.23	14072.11
531.431	14125.35
531.632	14121.26
531.833	14293.29
532.035	14170.41
532.236	14137.64
532.437	14158.12
532.638	14289.19
532.839	14250.28
533.04	14393.64
533.241	14246.18
533.442	14418.21
533.643	14506.27
533.844	14430.5
534.045	14465.32
534.246	14072.11
534.447	14610.72
534.648	14385.44
534.849	14438.69
535.05	14412.07
535.251	14723.36
535.451	14360.87
535.652	14766.37
535.853	14289.19
536.054	14467.36
536.255	14735.65
536.456	14369.06
536.657	14854.43
536.857	14512.42
537.058	14571.81
537.259	14641.44
537.46	14612.77
537.66	14467.36
537.861	14504.23
538.062	14446.88
538.263	14379.3
538.463	14553.38
538.664	14600.48
538.865	14657.82
539.065	14647.58
539.266	14442.79
539.466	14893.34
539.667	14616.86
539.868	14780.7
540.068	14659.87
540.269	14610.72
540.469	14807.33
540.67	14612.77
540.87	14629.15
541.071	14633.25
541.271	14565.67
541.472	14762.27
541.672	14606.63
541.873	14270.76
542.073	14383.4
542.274	14647.58
542.474	14399.78
542.675	14287.14
542.875	14508.32
543.075	14293.29
543.276	14602.53
543.476	14803.23
543.676	14633.25
543.877	14721.31
544.077	14510.37
544.277	14625.06
544.478	14514.47
544.678	14870.81
544.878	14473.51
545.078	14588.19
545.279	14717.22
545.479	14440.74
545.679	14731.55
545.879	14723.36
546.079	14610.72
546.28	14485.79
546.48	14436.64
546.68	14725.41
546.88	14840.09
547.08	14596.39
547.28	14580
547.48	14346.53
547.68	14674.21
547.88	14491.94
548.081	14653.73
548.281	14543.14
548.481	14598.43
548.681	14666.02
548.881	14711.07
549.081	14553.38
549.28	14432.55
549.48	14776.61
549.68	14698.78
549.88	14856.48
550.08	14534.95
550.28	14637.34
550.48	14463.27
550.68	14481.7
550.88	14410.02
551.08	14514.47
551.279	14666.02
551.479	14690.59
551.679	14412.07
551.879	14592.29
552.079	14479.65
552.278	14641.44
552.478	14672.16
552.678	14475.56
552.878	14352.68
553.077	14534.95
553.277	14375.2
553.477	14719.26
553.676	14250.28
553.876	14303.53
554.076	14594.34
554.275	14373.16
554.475	14276.9
554.674	14440.74
554.874	14420.26
555.074	14276.9
555.273	14326.05
555.473	14571.81
555.672	14233.89
555.872	14362.92
556.071	14311.72
556.271	14385.44
556.47	14299.43
556.67	14031.15
556.869	14373.16
557.068	14303.53
557.268	14141.74
557.467	14059.82
557.667	14194.98
557.866	14344.49
558.065	13979.95
558.265	13908.27
558.464	14035.24
558.663	14108.97
558.863	13943.08
559.062	14158.12
559.261	13752.62
559.461	14119.21
559.66	13646.13
559.859	13908.27
560.058	13779.25
560.258	13947.18
560.457	13654.32
560.656	14033.19
560.855	13594.93
561.054	13873.45
561.253	13742.38
561.453	13924.65
561.652	13629.74
561.851	13633.84
562.05	13486.39
562.249	13461.81
562.448	13676.85
562.647	13605.17
562.846	13824.3
563.045	13510.96
563.244	13412.66
563.443	13637.94
563.642	13646.13
563.841	13369.65
564.04	13427
564.239	13531.44
564.438	13412.66
564.637	13553.97
564.836	13377.84
565.035	13087.03
565.234	13244.73
565.432	13349.17
565.631	13101.37
565.83	13320.5
566.029	12904.76
566.228	13097.27
566.427	12927.29
566.625	13140.28
566.824	12818.75
567.023	12933.43
567.222	12677.44
567.42	13003.07
567.619	12665.15
567.818	12740.93
568.016	12747.07
568.215	12831.04
568.414	12652.86
568.612	12618.05
568.811	12826.94
569.01	12788.03
569.208	12454.21
569.407	12689.73
569.605	12407.11
569.804	12564.8
570.002	12355.91
570.201	12499.27
570.4	12478.79
570.598	12147.01
570.797	12087.62
570.995	12292.42
571.193	11993.42
571.392	12093.77
571.59	11841.87
571.789	12138.82
571.987	12108.1
572.186	11880.78
572.384	11923.79
572.582	11983.18
572.781	12022.09
572.979	11721.04
573.177	11852.11
573.376	11954.51
573.574	11604.3
573.772	11780.43
573.971	11753.8
574.169	11626.83
574.367	11401.55
574.565	11663.69
574.763	11587.92
574.962	11446.61
575.16	11266.39
575.358	11362.64
575.556	11428.18
575.754	11671.89
575.952	11303.25
576.151	11295.06
576.349	11125.08
576.547	11166.04
576.745	11223.38
576.943	11143.51
577.141	11045.21
577.339	11178.33
577.537	10998.1
577.735	10916.19
577.933	11012.44
578.131	10944.86
578.329	11030.87
578.527	10903.9
578.725	10799.45
578.923	10895.71
579.121	10838.36
579.319	10805.6
579.516	10735.96
579.714	10879.32
579.912	10686.81
580.11	10668.38
580.308	10742.11
580.506	10666.33
580.704	10365.28
580.901	10461.54
581.099	10799.45
581.297	10510.69
581.495	10266.98
581.692	10473.82
581.89	10400.1
582.088	10553.69
582.285	10248.55
582.483	10416.48
582.681	10436.96
582.878	10338.66
583.076	10154.34
583.274	10338.66
583.471	10051.94
583.669	10013.03
583.866	9924.97
584.064	10219.88
584.262	9906.54
584.459	10254.69
584.657	10160.48
584.854	10094.95
585.052	9974.12
585.249	10109.29
585.447	9875.82
585.644	9857.39
585.841	10049.89
586.039	9933.16
586.236	9744.75
586.434	9869.67
586.631	9679.21
586.828	9640.3
587.026	9718.12
587.223	9531.76
587.42	9572.72
587.618	9611.63
587.815	9464.18
588.012	9519.47
588.21	9535.85
588.407	9406.83
588.604	9558.38
588.801	9240.95
588.999	9216.37
589.196	9468.27
589.393	9206.13
589.59	9279.86
589.787	9279.86
589.984	9230.71
590.182	9136.5
590.379	9195.89
590.576	9054.58
590.773	9111.92
590.97	9179.51
591.167	9122.16
591.364	9107.83
591.561	9077.11
591.758	8909.18
591.955	9064.82
592.152	8927.61
592.349	8880.5
592.546	9052.53
592.743	8898.94
592.94	8806.78
593.137	8919.42
593.334	8659.32
593.531	8835.45
593.727	8755.58
593.924	8946.04
594.121	8546.69
594.318	8624.51
594.515	8610.17
594.712	8647.04
594.908	8501.63
595.105	8573.31
595.302	8307.07
595.499	8550.78
595.696	8454.53
595.892	8372.61
596.089	8259.97
596.286	8505.73
596.482	8601.98
596.679	8173.96
596.876	8317.31
597.072	8305.03
597.269	8403.33
597.466	8145.28
597.662	8153.48
597.859	8294.79
598.055	8270.21
598.252	7825.8
598.448	8139.14
598.645	8159.62
598.841	7954.82
599.038	7946.63
599.234	8198.53
599.431	7967.11
599.627	7995.78
599.824	8055.17
600.02	7840.14
600.217	7897.48
600.413	7768.46
600.609	7885.19
600.806	7790.99
601.002	7803.27
601.198	7707.02
601.395	7936.39
601.591	7661.96
601.787	7721.35
601.984	7635.34
602.18	7807.37
602.376	7639.44
602.572	7586.19
602.769	7487.89
602.965	7313.81
603.161	7500.17
603.357	7571.85
603.553	7569.8
603.75	7395.73
603.946	7381.39
604.142	7461.26
604.338	7365.01
604.534	7498.13
604.73	7414.16
604.926	7283.09
605.122	7344.53
605.318	7180.69
605.514	7205.27
605.71	7129.49
605.906	7166.35
606.102	7229.84
606.298	7293.33
606.494	7225.75
606.69	7246.23
606.886	7287.18
607.082	7043.48
607.278	7068.05
607.474	7004.57
607.67	7061.91
607.866	7053.72
608.062	7023
608.257	6973.85
608.453	7018.9
608.649	7135.64
608.845	6807.96
609.041	6885.78
609.236	6967.7
609.432	6945.17
609.628	6885.78
609.824	6799.77
610.019	6703.51
610.215	6859.16
610.411	6764.95
610.606	6840.73
610.802	6797.72
610.998	6680.99
611.193	6914.45
611.389	6685.08
611.584	6664.6
611.78	6760.86
611.976	6742.43
612.171	6791.58
612.367	6621.59
612.562	6519.2
612.758	6435.23
612.953	6474.14
613.149	6498.72
613.344	6629.79
613.539	6609.31
613.735	6400.41
613.93	6545.82
614.126	6179.23
614.321	6418.85
614.517	6404.51
614.712	6490.52
614.907	6404.51
615.103	6429.09
615.298	6379.93
615.493	6341.02
615.688	6322.59
615.884	6388.13
616.079	6277.54
616.274	6484.38
616.47	6234.53
616.665	6427.04
616.86	6347.17
617.055	6250.91
617.25	6379.93
617.445	6461.85
617.641	6193.57
617.836	6298.02
618.031	6023.59
618.226	6222.24
618.421	6111.65
618.616	6238.62
618.811	6314.4
619.006	6314.4
619.201	6062.5
619.396	6085.03
619.591	6005.16
619.786	6029.73
619.981	5902.76
620.176	6023.59
620.371	5962.15
620.566	5818.79
620.761	5814.7
620.956	5949.86
621.151	5681.58
621.346	5740.97
621.541	5570.99
621.735	5925.29
621.93	5597.61
622.125	5650.86
622.32	5630.38
622.515	5702.06
622.709	5472.68
622.904	5560.75
623.099	5566.89
623.294	5650.86
623.488	5368.24
623.683	5532.08
623.878	5235.12
624.072	5480.88
624.267	5364.14
624.462	5366.19
624.656	5341.61
624.851	5276.08
625.046	5378.48
625.24	5317.04
625.435	5124.53
625.629	5099.95
625.824	5251.5
626.018	5167.54
626.213	5212.59
626.407	5118.39
626.602	5030.32
626.796	4929.97
626.991	5020.08
627.185	4954.55
627.38	4784.57
627.574	4866.49
627.768	4985.27
627.963	4780.47
628.157	4929.97
628.352	4735.42
628.546	4829.62
628.74	4733.37
628.935	4800.95
629.129	4819.38
629.323	4733.37
629.517	4686.26
629.712	4598.2
629.906	4723.13
630.1	4540.86
630.294	4440.51
630.489	4436.41
630.683	4655.54
630.877	4528.57
631.071	4520.38
631.265	4444.6
631.459	4495.8
631.653	4299.2
631.848	4424.12
632.042	4256.19
632.236	4348.35
632.43	4487.61
632.624	4432.32
632.818	4409.79
633.012	4221.38
633.206	4211.14
633.4	4362.69
633.594	4245.95
633.788	4266.43
633.982	4139.46
634.176	4090.31
634.369	3961.28
634.563	4180.42
634.757	4020.67
634.951	4016.58
635.145	3949
635.339	4018.63
635.533	4020.67
635.726	3826.12
635.92	3883.46
636.114	3975.62
636.308	3793.35
636.501	3905.99
636.695	3795.4
636.889	3703.24
637.083	3774.92
637.276	3797.45
637.47	3905.99
637.664	3703.24
637.857	3789.25
638.051	3766.73
638.244	3758.53
638.438	3561.93
638.632	3666.38
638.825	3623.37
639.019	3684.81
639.212	3551.69
639.406	3617.22
639.599	3570.12
639.793	3545.55
639.986	3379.66
640.18	3463.63
640.373	3525.07
640.567	3389.9
640.76	3480.01
640.954	3367.37
641.147	3197.39
641.34	3385.8
641.534	3412.43
641.727	3267.02
641.92	3426.76
642.114	3314.13
642.307	3234.25
642.5	3269.07
642.694	3248.59
642.887	3158.48
643.08	3205.58
643.273	3271.12
643.467	3105.23
643.66	3160.53
643.853	3234.25
644.046	3076.56
644.239	3181.01
644.432	3064.27
644.626	2986.45
644.819	3031.51
645.012	3015.12
645.205	2955.73
645.398	3056.08
645.591	3013.07
645.784	3013.07
645.977	2896.34
646.17	2830.8
646.363	2873.81
646.556	2896.34
646.749	2902.48
646.942	2877.91
647.135	2933.2
647.328	2802.13
647.521	2826.71
647.714	2718.17
647.907	2894.29
648.099	2867.67
648.292	2738.65
648.485	2773.46
648.678	2695.64
648.871	2746.84
649.064	2777.56
649.256	2728.41
649.449	2548.19
649.642	2511.32
649.835	2621.91
650.027	2507.23
650.22	2611.67
650.413	2484.7
650.605	2501.08
650.798	2441.69
650.991	2427.35
651.183	2619.86
651.376	2507.23
651.568	2521.56
651.761	2511.32
651.954	2484.7
652.146	2515.42
652.339	2396.64
652.531	2480.6
652.724	2421.21
652.916	2367.96
653.109	2496.99
653.301	2318.81
653.494	2337.24
653.686	2386.4
653.879	2363.87
654.071	2382.3
654.263	2349.53
654.456	2449.88
654.648	2300.38
654.84	2318.81
655.033	2204.13
655.225	2320.86
655.417	2302.43
655.61	2406.88
655.802	2249.18
655.994	2210.27
656.186	2284
656.379	2247.13
656.571	2177.5
656.763	2093.54
656.955	2132.45
657.148	2169.31
657.34	2222.56
657.532	2075.1
657.724	2083.3
657.916	2183.65
658.108	2052.58
658.3	1972.71
658.492	2134.5
658.684	2052.58
658.876	1952.23
659.068	1999.33
659.26	1980.9
659.452	1982.95
659.644	2005.47
659.836	2009.57
660.028	1890.79
660.22	2011.62
660.412	1984.99
660.604	1944.03
660.796	1993.19
660.988	1960.42
661.18	1905.12
661.372	1997.28
661.563	1831.4
661.755	1796.58
661.947	1941.99
662.139	1835.49
662.331	1853.92
662.522	1772
662.714	1767.91
662.906	1726.95
663.097	1815.01
663.289	1800.68
663.481	1802.72
663.673	1831.4
663.864	1749.48
664.056	1765.86
664.247	1808.87
664.439	1683.94
664.631	1808.87
664.822	1745.38
665.014	1778.15
665.205	1898.98
665.397	1737.19
665.588	1726.95
665.78	1610.22
665.971	1724.9
666.163	1796.58
666.354	1628.65
666.546	1620.46
666.737	1737.19
666.929	1647.08
667.12	1649.13
667.311	1692.13
667.503	1602.02
667.694	1663.46
667.885	1616.36
668.077	1677.8
668.268	1573.35
668.459	1571.3
668.651	1460.71
668.842	1577.45
669.033	1546.73
669.224	1589.74
669.416	1483.24
669.607	1575.4
669.798	1458.67
669.989	1567.21
670.18	1546.73
670.371	1642.98
670.563	1481.19
670.754	1491.43
670.945	1432.04
671.136	1511.91
671.327	1399.27
671.518	1518.06
671.709	1597.93
671.9	1579.5
672.091	1413.61
672.282	1479.15
672.473	1456.62
672.664	1403.37
672.855	1452.52
673.046	1389.03
673.237	1509.86
673.428	1429.99
673.619	1427.95
673.809	1395.18
674	1427.95
674.191	1423.85
674.382	1384.94
674.573	1378.79
674.764	1333.74
674.954	1354.22
675.145	1348.08
675.336	1403.37
675.527	1393.13
675.717	1329.64
675.908	1341.93
676.099	1360.36
676.289	1348.08
676.48	1421.8
676.671	1405.42
676.861	1346.03
677.052	1374.7
677.243	1309.16
677.433	1327.6
677.624	1376.75
677.814	1374.7
678.005	1329.64
678.195	1362.41
678.386	1368.56
678.576	1292.78
678.767	1257.96
678.957	1360.36
679.148	1305.07
679.338	1262.06
679.529	1325.55
679.719	1362.41
679.909	1300.97
680.1	1366.51
680.29	1321.45
680.481	1307.12
680.671	1325.55
680.861	1270.25
681.052	1260.01
681.242	1241.58
681.432	1288.68
681.622	1292.78
681.813	1208.81
682.003	1249.77
682.193	1260.01
682.383	1266.16
682.573	1188.33
682.764	1251.82
682.954	1243.63
683.144	1262.06
683.334	1124.85
683.524	1174
683.714	1305.07
683.904	1214.96
684.094	1245.68
684.284	1266.16
684.474	1272.3
684.664	1247.72
684.854	1262.06
685.044	1212.91
685.234	1217.01
685.424	1212.91
685.614	1182.19
685.804	1266.16
685.994	1249.77
686.184	1182.19
686.374	1159.66
686.564	1145.33
686.753	1149.42
686.943	1186.29
687.133	1151.47
687.323	1165.81
687.513	1202.67
687.702	1044.98
687.892	1120.75
688.082	1233.39
688.272	1092.08
688.461	1094.13
688.651	1196.53
688.841	1053.17
689.03	1092.08
689.22	1241.58
689.41	1044.98
689.599	1040.88
689.789	1057.26
689.979	1206.77
690.168	1079.79
690.358	1133.04
690.547	1057.26
690.737	1153.52
690.926	1040.88
691.116	1024.5
691.305	1085.94
691.495	1049.07
691.684	1092.08
691.874	1008.11
692.063	1079.79
692.252	963.06
692.442	1096.18
692.631	1094.13
692.82	1073.65
693.01	1114.61
693.199	1040.88
693.388	1057.26
693.578	969.2
693.767	1036.78
693.956	1036.78
694.146	1096.18
694.335	1065.46
694.524	983.54
694.713	963.06
694.902	920.05
695.092	899.57
695.281	975.35
695.47	938.48
695.659	965.11
695.848	1024.5
696.037	979.44
696.226	1069.55
696.415	1042.93
696.604	1024.5
696.793	1016.3
696.982	1022.45
697.171	1006.06
697.36	985.58
697.549	961.01
697.738	973.3
697.927	1063.41
698.116	952.82
698.305	1055.22
698.494	993.78
698.683	1055.22
698.872	1014.26
699.061	1026.54
699.25	975.35
699.438	967.15
699.627	1001.97
699.816	1022.45
700.005	993.78
700.193	1016.3
700.382	983.54
700.571	956.91
700.76	987.63
700.948	1030.64
701.137	944.63
701.326	918
701.514	922.1
701.703	997.87
701.892	1026.54
702.08	1075.7
702.269	1059.31
702.457	922.1
702.646	1022.45
702.834	950.77
703.023	891.38
703.212	1014.26
703.4	1008.11
703.589	1016.3
703.777	899.57
703.965	936.43
704.154	958.96
704.342	989.68
704.531	1008.11
704.719	1042.93
704.907	1047.02
705.096	1032.69
705.284	1006.06
705.472	977.39
705.661	1004.02
705.849	989.68
706.037	922.1
706.226	975.35
706.414	938.48
706.602	1014.26
706.79	1024.5
706.979	1012.21
707.167	934.39
707.355	915.95
707.543	930.29
707.731	983.54
707.919	973.3
708.107	1075.7
708.296	891.38
708.484	928.24
708.672	1001.97
708.86	1004.02
709.048	952.82
709.236	973.3
709.424	965.11
709.612	989.68
709.8	975.35
709.988	1083.89
710.176	1026.54
710.364	1001.97
710.551	1028.59
710.739	979.44
710.927	977.39
711.115	987.63
711.303	948.72
711.491	1018.35
711.679	989.68
711.866	971.25
712.054	1018.35
712.242	967.15
712.43	1067.5
712.617	1040.88
712.805	961.01
712.993	1038.83
713.181	1036.78
713.368	1008.11
713.556	969.2
713.744	965.11
713.931	1030.64
714.119	997.87
714.306	909.81
714.494	981.49
714.682	1018.35
714.869	958.96
715.057	948.72
715.244	1006.06
715.432	934.39
715.619	911.86
715.807	940.53
715.994	858.61
716.182	1051.12
716.369	967.15
716.556	981.49
716.744	934.39
716.931	973.3
717.119	940.53
717.306	1016.3
717.493	1079.79
717.681	909.81
717.868	1008.11
718.055	963.06
718.242	1010.16
718.43	1028.59
718.617	1020.4
718.804	1034.74
718.991	1030.64
719.179	932.34
719.366	938.48
719.553	979.44
719.74	991.73
719.927	922.1
720.114	973.3
720.301	985.58
720.488	928.24
720.676	901.62
720.863	1092.08
721.05	961.01
721.237	1049.07
721.424	905.71
721.611	956.91
721.798	918
721.985	913.91
722.172	860.66
722.358	1047.02
722.545	879.09
722.732	963.06
722.919	987.63
723.106	971.25
723.293	1047.02
723.48	950.77
723.667	942.58
723.853	975.35
724.04	969.2
724.227	932.34
724.414	932.34
724.6	1047.02
724.787	946.67
724.974	940.53
725.161	932.34
725.347	911.86
725.534	967.15
725.72	985.58
725.907	1016.3
726.094	954.87
726.28	924.15
726.467	926.19
726.653	973.3
726.84	1030.64
727.027	920.05
727.213	936.43
727.4	981.49
727.586	993.78
727.773	920.05
727.959	895.47
728.145	1055.22
728.332	1036.78
728.518	879.09
728.705	961.01
728.891	952.82
729.077	1030.64
729.264	903.67
729.45	893.43
729.636	932.34
729.823	872.95
730.009	965.11
730.195	918
730.382	891.38
730.568	965.11
730.754	944.63
730.94	989.68
731.126	961.01
731.313	920.05
731.499	907.76
731.685	1014.26
731.871	868.85
732.057	915.95
732.243	891.38
732.429	1004.02
732.615	967.15
732.801	938.48
732.987	883.19
733.173	829.94
733.359	944.63
733.545	872.95
733.731	856.56
733.917	1012.21
734.103	989.68
734.289	1030.64
734.475	948.72
734.661	1022.45
734.847	1018.35
735.033	956.91
735.219	944.63
735.404	868.85
735.59	981.49
735.776	948.72
735.962	838.13
736.148	983.54
736.333	862.71
736.519	846.32
736.705	973.3
736.89	928.24
737.076	874.99
737.262	920.05
737.447	809.46
737.633	926.19
737.819	967.15
738.004	838.13
738.19	899.57
738.375	905.71
738.561	856.56
738.747	883.19
738.932	815.6
739.118	905.71
739.303	967.15
739.489	885.23
739.674	887.28
739.859	870.9
740.045	874.99
740.23	920.05
740.416	901.62
740.601	858.61
740.786	840.18
740.972	856.56
741.157	846.32
741.342	756.21
741.528	778.74
741.713	803.32
741.898	819.7
742.084	895.47
742.269	872.95
742.454	903.67
742.639	879.09
742.824	874.99
743.01	883.19
743.195	838.13
743.38	758.26
743.565	840.18
743.75	827.89
743.935	809.46
744.12	766.45
744.305	758.26
744.49	823.8
744.675	842.23
744.86	748.02
745.045	797.17
745.23	770.55
745.415	754.16
745.6	719.35
745.785	866.8
745.97	801.27
746.155	733.68
746.34	692.73
746.525	846.32
746.71	788.98
746.895	827.89
747.079	748.02
747.264	698.87
747.449	776.69
747.634	717.3
747.819	729.59
748.003	748.02
748.188	762.36
748.373	639.48
748.557	694.77
748.742	702.97
748.927	705.01
749.111	743.92
749.296	702.97
749.481	770.55
749.665	715.25
749.85	674.29
750.034	698.87
750.219	723.44
750.404	719.35
750.588	686.58
750.773	705.01
750.957	662.01
751.141	717.3
751.326	735.73
751.51	586.23
751.695	627.19
751.879	621.05
752.064	700.92
752.248	606.71
752.432	629.24
752.617	664.05
752.801	643.57
752.985	551.42
753.17	600.57
753.354	594.42
753.538	602.61
753.722	573.94
753.907	563.7
754.091	612.85
754.275	555.51
754.459	614.9
754.643	498.17
754.828	578.04
755.012	535.03
755.196	504.31
755.38	602.61
755.564	508.41
755.748	664.05
755.932	582.14
756.116	596.47
756.3	532.98
756.484	602.61
756.668	565.75
756.852	543.22
757.036	518.65
757.22	426.49
757.404	500.22
757.588	588.28
757.772	485.88
757.956	481.78
758.14	530.94
758.323	539.13
758.507	451.07
758.691	453.11
758.875	485.88
759.059	530.94
759.242	522.74
759.426	518.65
759.61	481.78
759.794	563.7
759.977	487.93
760.161	537.08
760.345	502.26
760.528	432.63
760.712	502.26
760.895	489.98
761.079	446.97
761.263	492.02
761.446	408.06
761.63	403.96
761.813	416.25
761.997	442.87
762.18	442.87
762.364	428.54
762.547	426.49
762.731	494.07
762.914	473.59
763.098	451.07
763.281	446.97
763.464	436.73
763.648	449.02
763.831	383.48
764.015	403.96
764.198	420.35
764.381	426.49
764.564	371.19
764.748	395.77
764.931	350.71
765.114	391.67
765.297	475.64
765.481	416.25
765.664	342.52
765.847	436.73
766.03	467.45
766.213	387.58
766.397	498.17
766.58	440.83
766.763	418.3
766.946	446.97
767.129	408.06
767.312	438.78
767.495	442.87
767.678	367.1
767.861	428.54
768.044	383.48
768.227	401.91
768.41	354.81
768.593	424.44
768.776	309.76
768.959	371.19
769.142	356.86
769.324	389.63
769.507	336.38
769.69	379.39
769.873	360.95
770.056	432.63
770.239	393.72
770.421	344.57
770.604	410.11
770.787	356.86
770.97	293.37
771.152	289.28
771.335	291.32
771.518	365.05
771.7	373.24
771.883	293.37
772.066	266.75
772.248	412.15
772.431	274.94
772.613	338.43
772.796	358.91
772.978	307.71
773.161	399.87
773.343	299.52
773.526	246.27
773.708	320
773.891	307.71
774.073	326.14
774.256	305.66
774.438	352.76
774.621	346.62
774.803	383.48
774.985	295.42
775.168	340.47
775.35	336.38
775.532	285.18
775.715	309.76
775.897	293.37
776.079	274.94
776.261	311.8
776.444	285.18
776.626	317.95
776.808	285.18
776.99	328.19
777.173	272.89
777.355	262.65
777.537	317.95
777.719	299.52
777.901	252.41
778.083	352.76
778.265	238.08
778.447	340.47
778.629	246.27
778.811	223.74
778.993	313.85
779.175	225.79
779.357	315.9
779.539	152.06
779.721	211.45
779.903	160.25
780.085	258.56
780.267	221.69
780.449	254.46
780.631	256.51
780.812	250.36
780.994	285.18
781.176	223.74
781.358	256.51
781.54	248.32
781.721	215.55
781.903	354.81
782.085	240.12
782.267	215.55
782.448	244.22
782.63	229.88
782.812	158.21
782.993	260.6
783.175	209.4
783.357	260.6
783.538	164.35
783.72	240.12
783.901	231.93
784.083	309.76
784.264	190.97
784.446	231.93
784.627	184.83
784.809	193.02
784.99	139.77
785.172	289.28
785.353	164.35
785.535	92.67
785.716	172.54
785.897	186.88
786.079	203.26
786.26	190.97
786.441	154.11
786.623	137.73
786.804	174.59
786.985	215.55
787.167	209.4
787.348	186.88
787.529	156.16
787.71	199.16
787.891	195.07
788.073	190.97
788.254	104.96
788.435	131.58
788.616	147.97
788.797	158.21
788.978	150.01
789.159	156.16
789.34	174.59
789.522	137.73
789.703	176.64
789.884	123.39
790.065	113.15
790.246	166.4
790.427	92.67
790.607	211.45
790.788	135.68
790.969	107.01
791.15	147.97
791.331	172.54
791.512	154.11
791.693	156.16
791.874	115.2
792.054	188.93
792.235	111.1
792.416	150.01
792.597	174.59
792.778	182.78
792.958	137.73
793.139	117.25
793.32	135.68
793.5	172.54
793.681	207.36
793.862	127.49
794.042	170.49
794.223	117.25
794.404	111.1
794.584	104.96
794.765	123.39
794.945	129.53
795.126	131.58
795.306	143.87
795.487	170.49
795.667	96.77
795.848	98.81
796.028	113.15
796.209	115.2
796.389	61.95
796.57	129.53
796.75	121.34
796.93	90.62
797.111	121.34
797.291	45.57
797.471	96.77
797.652	66.05
797.832	113.15
798.012	168.45
798.192	125.44
798.373	104.96
798.553	33.28
798.733	84.48
798.913	51.71
799.093	70.14
799.274	92.67
799.454	145.92
799.634	125.44
799.814	127.49
799.994	92.67
800.174	84.48
800.354	131.58
800.534	57.86
800.714	98.81
800.894	100.86
801.074	94.72
801.254	143.87
801.434	49.66
801.614	72.19
801.794	59.9
801.974	471.54
802.154	61.95
802.334	100.86
802.514	41.47
802.693	125.44
802.873	41.47
803.053	139.77
803.233	31.23
803.413	-13.82
803.592	76.29
803.772	107.01
803.952	102.91
804.131	80.38
804.311	39.42
804.491	127.49
804.67	47.62
804.85	20.99
805.03	100.86
805.209	152.06
805.389	113.15
805.568	-40.45
805.748	33.28
805.928	115.2
806.107	41.47
806.287	111.1
806.466	78.33
806.646	104.96
806.825	102.91
807.004	6.66
807.184	80.38
807.363	135.68
807.543	156.16
807.722	18.94
807.901	45.57
808.081	115.2
808.26	0.51
808.439	35.33
808.619	41.47
808.798	4.61
808.977	33.28
809.156	84.48
809.336	125.44
809.515	35.33
809.694	72.19
809.873	25.09
810.052	43.52
810.231	121.34
810.411	45.57
810.59	78.33
810.769	131.58
810.948	107.01
811.127	18.94
811.306	53.76
811.485	98.81
811.664	88.57
811.843	25.09
812.022	59.9
812.201	31.23
812.38	109.05
812.559	33.28
812.737	61.95
812.916	37.38
813.095	20.99
813.274	84.48
813.453	98.81
813.632	-11.78
813.811	107.01
813.989	113.15
814.168	37.38
814.347	-7.68
814.526	2.56
814.704	84.48
814.883	125.44
815.062	0.51
815.24	70.14
815.419	41.47
815.598	41.47
815.776	72.19
815.955	109.05
816.133	18.94
816.312	82.43
816.49	37.38
816.669	68.09
816.847	55.81
817.026	115.2
817.204	57.86
817.383	64
817.561	16.9
817.74	94.72
817.918	96.77
818.097	41.47
818.275	0.51
818.453	23.04
818.632	27.14
818.81	-46.59
818.988	12.8
819.167	55.81
819.345	-13.82
819.523	70.14
819.701	51.71
819.879	-1.54
820.058	59.9
820.236	27.14
820.414	-5.63
820.592	8.7
820.77	-1.54
820.948	55.81
821.127	-19.97
821.305	92.67
821.483	27.14
821.661	47.62
821.839	31.23
822.017	41.47
822.195	31.23
822.373	25.09
822.551	-3.58
822.729	104.96
822.907	35.33
823.085	74.24
823.262	-19.97
823.44	66.05
823.618	23.04
823.796	90.62
823.974	10.75
824.152	-52.74
824.329	51.71
824.507	59.9
824.685	53.76
824.863	-5.63
825.04	59.9
825.218	51.71
825.396	25.09
825.574	96.77
825.751	33.28
825.929	82.43
826.107	-26.11
826.284	8.7
826.462	8.7
826.639	82.43
826.817	37.38
826.994	64
827.172	80.38
827.349	29.18
827.527	-9.73
827.704	-1.54
827.882	2.56
828.059	-5.63
828.237	6.66
828.414	41.47
828.591	-81.41
828.769	31.23
828.946	51.71
829.124	-19.97
829.301	80.38
829.478	39.42
829.655	66.05
829.833	31.23
830.01	59.9
830.187	70.14
830.364	14.85
830.542	64
830.719	10.75
830.896	68.09
831.073	-5.63
831.25	35.33
831.427	43.52
831.604	78.33
831.782	20.99
831.959	55.81
832.136	-22.02
832.313	2.56
832.49	14.85
832.667	33.28
832.844	-13.82
833.021	61.95
833.198	23.04
833.374	20.99
833.551	-48.64
833.728	88.57
833.905	64
834.082	8.7
834.259	6.66
834.436	51.71
834.612	57.86
834.789	25.09
834.966	33.28
835.143	23.04
835.319	8.7
835.496	18.94
835.673	41.47
835.85	98.81
836.026	-5.63
836.203	88.57
836.38	6.66
836.556	92.67
836.733	53.76
836.909	100.86
837.086	74.24
837.262	4.61
837.439	6.66
837.616	-7.68
837.792	6.66
837.968	-22.02
838.145	16.9
838.321	35.33
838.498	12.8
838.674	41.47
838.851	39.42
839.027	-24.06
839.203	43.52
839.38	0.51
839.556	37.38
839.732	72.19
839.909	-5.63
840.085	64
840.261	-19.97
840.437	23.04
840.614	43.52
840.79	27.14
840.966	-28.16
841.142	25.09
841.318	31.23
841.494	2.56
841.671	68.09
841.847	57.86
842.023	14.85
842.199	88.57
842.375	18.94
842.551	-11.78
842.727	10.75
842.903	-5.63
843.079	33.28
843.255	-1.54
843.431	-1.54
843.607	41.47
843.783	-32.26
843.959	70.14
844.134	68.09
844.31	70.14
844.486	59.9
844.662	14.85
844.838	59.9
845.013	-13.82
845.189	39.42
845.365	-36.35
845.541	-15.87
845.716	-19.97
845.892	16.9
846.068	39.42
846.244	-1.54
846.419	16.9
846.595	2.56
846.77	10.75
846.946	51.71
847.122	14.85
847.297	27.14
847.473	-5.63
847.648	-24.06
847.824	43.52
847.999	-42.5
848.175	-50.69
848.35	2.56
848.526	47.62
848.701	14.85
848.876	-22.02
849.052	-17.92
849.227	12.8
849.403	33.28
849.578	-40.45
849.753	20.99
849.929	66.05
850.104	-13.82
850.279	45.57
850.454	23.04
850.63	4.61
850.805	23.04
850.98	-17.92
851.155	-42.5
851.33	4.61
851.505	64
851.681	-3.58
851.856	-46.59
852.031	-22.02
852.206	29.18
852.381	-3.58
852.556	76.29
852.731	10.75
852.906	31.23
853.081	74.24
853.256	23.04
853.431	41.47
853.606	18.94
853.781	2.56
853.956	-9.73
854.131	37.38
854.305	29.18
854.48	18.94
854.655	-19.97
854.83	-19.97
855.005	-46.59
855.18	47.62
855.354	0.51
855.529	45.57
855.704	-5.63
855.879	33.28
856.053	8.7
856.228	35.33
856.403	-52.74
856.577	-9.73
856.752	-15.87
856.926	51.71
857.101	8.7
857.276	-40.45
857.45	23.04
857.625	4.61
857.799	-32.26
857.974	-1.54
858.148	0.51
858.323	12.8
858.497	-26.11
858.672	-9.73
858.846	-42.5
859.02	80.38
859.195	-65.02
859.369	27.14
859.543	25.09
859.718	64
859.892	64
860.066	14.85
860.241	-48.64
860.415	25.09
860.589	41.47
860.763	-17.92
860.938	53.76
861.112	-11.78
861.286	23.04
861.46	0.51
861.634	-56.83
861.808	41.47
861.982	12.8
862.157	-144.89
862.331	-40.45
862.505	88.57
862.679	-24.06
862.853	-36.35
863.027	-7.68
863.201	8.7
863.375	33.28
863.549	-42.5
863.722	-81.41
863.896	4.61
864.07	-38.4
864.244	-17.92
864.418	33.28
864.592	-26.11
864.766	-26.11
864.939	-5.63
865.113	59.9
865.287	-71.17
865.461	-40.45
865.634	-5.63
865.808	-42.5
865.982	12.8
866.156	-9.73
866.329	-30.21
866.503	23.04
866.676	-42.5
866.85	-3.58
867.024	39.42
867.197	4.61
867.371	-15.87
867.544	10.75
867.718	-15.87
867.891	45.57
868.065	2.56
868.238	-17.92
868.412	-46.59
868.585	-5.63
868.759	-54.78
868.932	10.75
869.105	55.81
869.279	39.42
869.452	2.56
869.625	-87.55
869.799	-9.73
869.972	-15.87
870.145	-17.92
870.319	-7.68
870.492	-26.11
870.665	0.51
870.838	57.86
871.011	-54.78
871.185	-22.02
871.358	-13.82
871.531	27.14
871.704	23.04
871.877	27.14
872.05	-48.64
872.223	-1.54
872.396	-42.5
872.569	51.71
872.742	16.9
872.915	33.28
873.088	29.18
873.261	-22.02
873.434	-22.02
873.607	-1.54
873.78	20.99
873.953	-1.54
874.126	4.61
874.299	16.9
874.471	66.05
874.644	-52.74
874.817	51.71
874.99	16.9
875.163	-26.11
875.335	-32.26
875.508	-26.11
875.681	8.7
875.853	-26.11
876.026	-11.78
876.199	47.62
876.371	12.8
876.544	-7.68
876.717	23.04
876.889	-22.02
877.062	31.23
877.234	-30.21
877.407	31.23
877.579	-36.35
877.752	49.66
877.924	47.62
878.097	27.14
878.269	-24.06
878.442	6.66
878.614	-65.02
878.786	43.52
878.959	-1.54
879.131	31.23
879.303	-36.35
879.476	14.85
879.648	37.38
879.82	31.23
879.993	23.04
880.165	-65.02
880.337	-103.93
880.509	-1.54
880.681	-30.21
880.854	2.56
881.026	59.9
881.198	47.62
881.37	-52.74
881.542	-17.92
881.714	-22.02
881.886	-54.78
882.058	-40.45
882.23	-38.4
882.402	27.14
882.574	-13.82
882.746	35.33
882.918	-28.16
883.09	41.47
883.262	-5.63
883.434	45.57
883.606	20.99
883.778	8.7
883.95	12.8
884.122	-5.63
884.293	23.04
884.465	-26.11
884.637	-15.87
884.809	-22.02
884.98	123.39
885.152	45.57
885.324	41.47
885.496	-26.11
885.667	-26.11
885.839	-24.06
886.011	14.85
886.182	72.19
886.354	-3.58
886.525	-22.02
886.697	37.38
886.869	4.61
887.04	35.33
887.212	-13.82
887.383	68.09
887.555	16.9
887.726	10.75
887.897	-13.82
888.069	6.66
888.24	-22.02
888.412	33.28
888.583	49.66
888.754	8.7
888.926	-26.11
889.097	35.33
889.268	31.23
889.44	20.99
889.611	-87.55
889.782	16.9
889.953	-3.58
890.125	41.47
890.296	-28.16
890.467	4.61
890.638	-11.78
890.809	6.66
890.98	-46.59
891.151	39.42
891.323	64
891.494	23.04
891.665	72.19
891.836	-19.97
892.007	51.71
892.178	68.09
892.349	49.66
892.52	-5.63
892.691	-58.88
892.862	23.04
893.032	-22.02
893.203	0.51
893.374	2.56
893.545	-11.78
893.716	-58.88
893.887	16.9
894.057	-32.26
894.228	-87.55
894.399	10.75
894.57	49.66
894.74	16.9
894.911	-34.3
895.082	12.8
895.253	8.7
895.423	-5.63
895.594	-40.45
895.764	-34.3
895.935	2.56
896.106	27.14
896.276	20.99
896.447	35.33
896.617	0.51
896.788	-3.58
896.958	-42.5
897.129	-44.54
897.299	-28.16
897.47	25.09
897.64	43.52
897.81	-28.16
897.981	8.7
898.151	10.75
898.322	51.71
898.492	-3.58
898.662	-69.12
898.832	14.85
899.003	-40.45
899.173	-11.78
899.343	-24.06
899.513	-15.87
