Data from USB4F104151__121__11-07-29-497.txt Node

Date: Wed Mar 12 11:07:29 EDT 2025
User: louis
Spectrometer: USB4F10415
Trigger mode: 4
Integration Time (sec): 2.000000E-2
Scans to average: 1
Electric dark correction enabled: true
Nonlinearity correction enabled: false
Boxcar width: 0
XAxis mode: Wavelengths
Number of Pixels in Spectrum: 3648
>>>>>Begin Spectral Data<<<<<
178.204	-30.04
178.424	-30.04
178.644	-30.04
178.864	-93.52
179.084	-126.29
179.304	29.35
179.524	-66.9
179.744	51.88
179.964	19.11
180.184	-50.52
180.404	-17.75
180.624	-13.65
180.844	2.73
181.064	-21.85
181.283	37.55
181.503	23.21
181.723	6.83
181.943	-7.51
182.163	15.02
182.383	6.83
182.602	12.97
182.822	41.64
183.042	-13.65
183.262	-9.56
183.482	-56.66
183.701	37.55
183.921	101.03
184.141	-3.41
184.361	-7.51
184.58	-3.41
184.8	96.94
185.02	2.73
185.239	101.03
185.459	-66.9
185.679	-11.61
185.898	0.68
186.118	8.87
186.338	8.87
186.557	51.88
186.777	-9.56
186.997	-21.85
187.216	74.41
187.436	25.26
187.655	21.16
187.875	23.21
188.095	80.55
188.314	51.88
188.534	66.22
188.753	6.83
188.973	76.46
189.192	27.31
189.412	68.27
189.631	4.78
189.851	68.27
190.07	82.6
190.29	109.22
190.509	-3.41
190.729	66.22
190.948	25.26
191.168	96.94
191.387	51.88
191.607	17.07
191.826	43.69
192.045	29.35
192.265	51.88
192.484	33.45
192.704	37.55
192.923	-27.99
193.142	141.99
193.362	-9.56
193.581	109.22
193.8	115.37
194.02	66.22
194.239	31.4
194.458	53.93
194.678	39.59
194.897	33.45
195.116	19.11
195.335	60.07
195.555	4.78
195.774	8.87
195.993	55.98
196.212	94.89
196.432	-21.85
196.651	62.12
196.87	-23.89
197.089	-11.61
197.308	10.92
197.528	37.55
197.747	47.79
197.966	27.31
198.185	-5.46
198.404	76.46
198.623	78.51
198.842	8.87
199.062	66.22
199.281	70.31
199.5	-40.28
199.719	8.87
199.938	107.18
200.157	60.07
200.376	58.03
200.595	58.03
200.814	23.21
201.033	-19.8
201.252	39.59
201.471	41.64
201.69	2.73
201.909	12.97
202.128	25.26
202.347	19.11
202.566	-52.56
202.785	17.07
203.004	43.69
203.223	43.69
203.442	35.5
203.661	60.07
203.879	92.84
204.098	-21.85
204.317	10.92
204.536	115.37
204.755	-13.65
204.974	92.84
205.193	23.21
205.411	131.75
205.63	60.07
205.849	41.64
206.068	64.17
206.287	39.59
206.505	10.92
206.724	-58.71
206.943	-5.46
207.162	10.92
207.381	-1.37
207.599	-9.56
207.818	27.31
208.037	101.03
208.255	-9.56
208.474	47.79
208.693	31.4
208.911	-19.8
209.13	47.79
209.349	45.74
209.567	-17.75
209.786	72.36
210.005	49.83
210.223	82.6
210.442	-3.41
210.661	-7.51
210.879	101.03
211.098	66.22
211.316	27.31
211.535	19.11
211.753	-7.51
211.972	-3.41
212.191	-5.46
212.409	-27.99
212.628	19.11
212.846	49.83
213.065	115.37
213.283	23.21
213.502	90.79
213.72	53.93
213.938	55.98
214.157	10.92
214.375	4.78
214.594	-9.56
214.812	49.83
215.031	39.59
215.249	33.45
215.467	19.11
215.686	68.27
215.904	60.07
216.122	-3.41
216.341	35.5
216.559	35.5
216.778	0.68
216.996	88.75
217.214	80.55
217.432	62.12
217.651	-36.18
217.869	21.16
218.087	27.31
218.306	51.88
218.524	66.22
218.742	68.27
218.96	10.92
219.179	55.98
219.397	70.31
219.615	76.46
219.833	47.79
220.051	15.02
220.27	90.79
220.488	35.5
220.706	94.89
220.924	2.73
221.142	64.17
221.36	25.26
221.578	25.26
221.796	27.31
222.015	25.26
222.233	-9.56
222.451	6.83
222.669	-13.65
222.887	58.03
223.105	27.31
223.323	4.78
223.541	-25.94
223.759	12.97
223.977	-5.46
224.195	-1.37
224.413	86.7
224.631	12.97
224.849	6.83
225.067	80.55
225.285	62.12
225.503	6.83
225.721	-48.47
225.939	37.55
226.157	39.59
226.375	111.27
226.592	-25.94
226.81	6.83
227.028	96.94
227.246	39.59
227.464	12.97
227.682	8.87
227.9	33.45
228.117	-21.85
228.335	10.92
228.553	21.16
228.771	90.79
228.989	8.87
229.206	51.88
229.424	68.27
229.642	51.88
229.86	37.55
230.077	23.21
230.295	15.02
230.513	111.27
230.731	58.03
230.948	94.89
231.166	51.88
231.384	17.07
231.601	103.08
231.819	-17.75
232.037	-46.42
232.254	55.98
232.472	49.83
232.689	39.59
232.907	41.64
233.125	-11.61
233.342	0.68
233.56	51.88
233.777	98.99
233.995	33.45
234.213	33.45
234.43	-1.37
234.648	80.55
234.865	4.78
235.083	0.68
235.3	66.22
235.518	64.17
235.735	68.27
235.953	70.31
236.17	4.78
236.388	84.65
236.605	84.65
236.822	-17.75
237.04	15.02
237.257	-17.75
237.475	70.31
237.692	86.7
237.909	-7.51
238.127	39.59
238.344	21.16
238.562	39.59
238.779	15.02
238.996	25.26
239.214	17.07
239.431	2.73
239.648	51.88
239.865	51.88
240.083	123.56
240.3	72.36
240.517	41.64
240.735	12.97
240.952	115.37
241.169	80.55
241.386	2.73
241.603	-13.65
241.821	111.27
242.038	29.35
242.255	51.88
242.472	27.31
242.689	53.93
242.907	64.17
243.124	8.87
243.341	15.02
243.558	37.55
243.775	-9.56
243.992	66.22
244.209	23.21
244.426	51.88
244.643	39.59
244.86	15.02
245.078	39.59
245.295	66.22
245.512	90.79
245.729	6.83
245.946	78.51
246.163	-30.04
246.38	17.07
246.597	-5.46
246.814	39.59
247.031	31.4
247.248	47.79
247.464	35.5
247.681	-9.56
247.898	21.16
248.115	94.89
248.332	-11.61
248.549	43.69
248.766	86.7
248.983	51.88
249.2	41.64
249.417	10.92
249.633	2.73
249.85	127.66
250.067	84.65
250.284	21.16
250.501	15.02
250.717	72.36
250.934	-17.75
251.151	-5.46
251.368	-7.51
251.585	68.27
251.801	-34.13
252.018	2.73
252.235	45.74
252.451	33.45
252.668	15.02
252.885	33.45
253.102	62.12
253.318	12.97
253.535	37.55
253.752	23.21
253.968	0.68
254.185	-3.41
254.401	-21.85
254.618	31.4
254.835	-11.61
255.051	53.93
255.268	39.59
255.484	31.4
255.701	0.68
255.917	29.35
256.134	76.46
256.351	31.4
256.567	55.98
256.784	111.27
257	10.92
257.217	25.26
257.433	-3.41
257.65	43.69
257.866	31.4
258.082	78.51
258.299	49.83
258.515	53.93
258.732	37.55
258.948	2.73
259.165	17.07
259.381	15.02
259.597	55.98
259.814	55.98
260.03	15.02
260.246	12.97
260.463	49.83
260.679	37.55
260.895	60.07
261.112	117.42
261.328	-46.42
261.544	4.78
261.761	62.12
261.977	72.36
262.193	37.55
262.409	-13.65
262.626	51.88
262.842	43.69
263.058	-3.41
263.274	80.55
263.49	-64.85
263.707	82.6
263.923	-1.37
264.139	29.35
264.355	6.83
264.571	105.13
264.787	31.4
265.004	115.37
265.22	60.07
265.436	-30.04
265.652	-7.51
265.868	2.73
266.084	-7.51
266.3	66.22
266.516	4.78
266.732	41.64
266.948	-48.47
267.164	-25.94
267.38	10.92
267.596	-1.37
267.812	82.6
268.028	31.4
268.244	51.88
268.46	-58.71
268.676	78.51
268.892	53.93
269.108	27.31
269.324	2.73
269.54	31.4
269.756	23.21
269.972	55.98
270.188	115.37
270.403	12.97
270.619	127.66
270.835	43.69
271.051	-48.47
271.267	47.79
271.483	45.74
271.698	0.68
271.914	98.99
272.13	39.59
272.346	84.65
272.562	74.41
272.777	15.02
272.993	10.92
273.209	37.55
273.425	45.74
273.64	60.07
273.856	29.35
274.072	47.79
274.287	-46.42
274.503	101.03
274.719	-36.18
274.934	39.59
275.15	29.35
275.366	35.5
275.581	-1.37
275.797	15.02
276.012	58.03
276.228	-40.28
276.444	15.02
276.659	98.99
276.875	-11.61
277.09	21.16
277.306	35.5
277.521	35.5
277.737	12.97
277.952	37.55
278.168	0.68
278.383	90.79
278.599	12.97
278.814	29.35
279.03	51.88
279.245	68.27
279.461	17.07
279.676	113.32
279.892	60.07
280.107	37.55
280.322	74.41
280.538	115.37
280.753	72.36
280.969	31.4
281.184	35.5
281.399	82.6
281.615	76.46
281.83	70.31
282.045	74.41
282.26	-13.65
282.476	23.21
282.691	25.26
282.906	2.73
283.122	12.97
283.337	27.31
283.552	84.65
283.767	37.55
283.983	37.55
284.198	111.27
284.413	-54.61
284.628	60.07
284.843	70.31
285.058	41.64
285.274	-9.56
285.489	29.35
285.704	-19.8
285.919	78.51
286.134	86.7
286.349	-21.85
286.564	31.4
286.779	92.84
286.995	33.45
287.21	17.07
287.425	76.46
287.64	-11.61
287.855	35.5
288.07	39.59
288.285	41.64
288.5	27.31
288.715	43.69
288.93	31.4
289.145	33.45
289.36	72.36
289.575	107.18
289.79	39.59
290.004	17.07
290.219	109.22
290.434	39.59
290.649	21.16
290.864	8.87
291.079	2.73
291.294	25.26
291.509	39.59
291.724	39.59
291.938	-11.61
292.153	37.55
292.368	-48.47
292.583	10.92
292.798	15.02
293.012	41.64
293.227	72.36
293.442	12.97
293.657	45.74
293.871	35.5
294.086	27.31
294.301	115.37
294.516	90.79
294.73	-7.51
294.945	74.41
295.16	12.97
295.374	82.6
295.589	88.75
295.804	2.73
296.018	74.41
296.233	103.08
296.447	125.61
296.662	60.07
296.877	96.94
297.091	84.65
297.306	94.89
297.52	70.31
297.735	86.7
297.949	-48.47
298.164	27.31
298.378	27.31
298.593	47.79
298.807	33.45
299.022	62.12
299.236	41.64
299.451	27.31
299.665	0.68
299.88	21.16
300.094	35.5
300.309	68.27
300.523	-5.46
300.737	15.02
300.952	41.64
301.166	21.16
301.381	49.83
301.595	49.83
301.809	19.11
302.024	21.16
302.238	6.83
302.452	37.55
302.667	119.46
302.881	53.93
303.095	70.31
303.309	55.98
303.524	64.17
303.738	86.7
303.952	68.27
304.166	74.41
304.381	4.78
304.595	80.55
304.809	43.69
305.023	39.59
305.237	2.73
305.452	15.02
305.666	27.31
305.88	-42.32
306.094	-23.89
306.308	82.6
306.522	96.94
306.736	58.03
306.95	80.55
307.164	84.65
307.379	2.73
307.593	51.88
307.807	43.69
308.021	17.07
308.235	-1.37
308.449	62.12
308.663	23.21
308.877	68.27
309.091	41.64
309.305	37.55
309.519	78.51
309.733	66.22
309.947	53.93
310.161	-46.42
310.374	33.45
310.588	23.21
310.802	12.97
311.016	35.5
311.23	12.97
311.444	45.74
311.658	86.7
311.872	78.51
312.085	-1.37
312.299	35.5
312.513	66.22
312.727	72.36
312.941	55.98
313.154	37.55
313.368	82.6
313.582	70.31
313.796	27.31
314.009	80.55
314.223	35.5
314.437	82.6
314.651	76.46
314.864	49.83
315.078	125.61
315.292	23.21
315.505	-19.8
315.719	-21.85
315.933	53.93
316.146	19.11
316.36	8.87
316.573	119.46
316.787	-3.41
317.001	60.07
317.214	21.16
317.428	19.11
317.641	27.31
317.855	55.98
318.068	15.02
318.282	41.64
318.495	84.65
318.709	144.04
318.922	-27.99
319.136	92.84
319.349	80.55
319.563	101.03
319.776	15.02
319.99	113.32
320.203	29.35
320.417	-7.51
320.63	58.03
320.843	-25.94
321.057	29.35
321.27	55.98
321.483	117.42
321.697	58.03
321.91	39.59
322.124	105.13
322.337	47.79
322.55	-15.7
322.763	88.75
322.977	94.89
323.19	43.69
323.403	2.73
323.617	33.45
323.83	84.65
324.043	-32.08
324.256	107.18
324.469	23.21
324.683	107.18
324.896	19.11
325.109	41.64
325.322	29.35
325.535	88.75
325.748	51.88
325.962	-3.41
326.175	168.62
326.388	4.78
326.601	72.36
326.814	49.83
327.027	8.87
327.24	119.46
327.453	-3.41
327.666	105.13
327.879	-56.66
328.092	58.03
328.305	43.69
328.518	-1.37
328.731	51.88
328.944	55.98
329.157	21.16
329.37	60.07
329.583	74.41
329.796	78.51
330.009	35.5
330.222	0.68
330.435	115.37
330.648	49.83
330.861	78.51
331.073	15.02
331.286	152.23
331.499	43.69
331.712	88.75
331.925	60.07
332.138	4.78
332.35	139.94
332.563	-25.94
332.776	37.55
332.989	76.46
333.202	41.64
333.414	-27.99
333.627	84.65
333.84	-23.89
334.053	88.75
334.265	72.36
334.478	105.13
334.691	80.55
334.903	10.92
335.116	47.79
335.329	96.94
335.541	76.46
335.754	80.55
335.966	49.83
336.179	64.17
336.392	60.07
336.604	43.69
336.817	72.36
337.029	115.37
337.242	37.55
337.454	72.36
337.667	-27.99
337.88	164.52
338.092	76.46
338.305	15.02
338.517	19.11
338.729	94.89
338.942	-13.65
339.154	0.68
339.367	-9.56
339.579	17.07
339.792	105.13
340.004	47.79
340.217	-7.51
340.429	35.5
340.641	80.55
340.854	49.83
341.066	19.11
341.278	109.22
341.491	86.7
341.703	107.18
341.915	2.73
342.128	76.46
342.34	43.69
342.552	53.93
342.764	103.08
342.977	25.26
343.189	66.22
343.401	45.74
343.613	68.27
343.826	51.88
344.038	35.5
344.25	117.42
344.462	0.68
344.674	-42.32
344.886	72.36
345.099	60.07
345.311	10.92
345.523	55.98
345.735	-15.7
345.947	-9.56
346.159	90.79
346.371	96.94
346.583	37.55
346.795	158.38
347.007	19.11
347.219	78.51
347.431	66.22
347.643	141.99
347.855	10.92
348.067	68.27
348.279	60.07
348.491	4.78
348.703	51.88
348.915	92.84
349.127	43.69
349.339	23.21
349.551	-3.41
349.763	66.22
349.975	12.97
350.187	49.83
350.399	58.03
350.61	8.87
350.822	0.68
351.034	80.55
351.246	68.27
351.458	86.7
351.669	10.92
351.881	78.51
352.093	103.08
352.305	72.36
352.517	2.73
352.728	55.98
352.94	43.69
353.152	23.21
353.363	23.21
353.575	92.84
353.787	107.18
353.999	92.84
354.21	51.88
354.422	64.17
354.633	23.21
354.845	6.83
355.057	121.51
355.268	21.16
355.48	152.23
355.692	21.16
355.903	39.59
356.115	60.07
356.326	29.35
356.538	49.83
356.749	35.5
356.961	129.7
357.172	19.11
357.384	45.74
357.595	41.64
357.807	29.35
358.018	-11.61
358.23	58.03
358.441	33.45
358.653	109.22
358.864	27.31
359.075	58.03
359.287	98.99
359.498	90.79
359.709	45.74
359.921	29.35
360.132	33.45
360.344	23.21
360.555	137.9
360.766	68.27
360.977	47.79
361.189	70.31
361.4	53.93
361.611	137.9
361.823	53.93
362.034	10.92
362.245	10.92
362.456	12.97
362.667	31.4
362.879	111.27
363.09	51.88
363.301	119.46
363.512	78.51
363.723	29.35
363.935	60.07
364.146	86.7
364.357	8.87
364.568	58.03
364.779	45.74
364.99	115.37
365.201	41.64
365.412	66.22
365.623	4.78
365.834	78.51
366.045	25.26
366.256	64.17
366.467	21.16
366.678	41.64
366.889	-25.94
367.1	76.46
367.311	33.45
367.522	8.87
367.733	139.94
367.944	-19.8
368.155	23.21
368.366	86.7
368.577	94.89
368.788	66.22
368.999	68.27
369.209	109.22
369.42	31.4
369.631	144.04
369.842	166.57
370.053	37.55
370.264	90.79
370.474	72.36
370.685	41.64
370.896	74.41
371.107	98.99
371.317	92.84
371.528	127.66
371.739	107.18
371.95	74.41
372.16	94.89
372.371	37.55
372.582	41.64
372.792	31.4
373.003	58.03
373.214	125.61
373.424	60.07
373.635	107.18
373.846	68.27
374.056	-71
374.267	51.88
374.477	72.36
374.688	96.94
374.898	101.03
375.109	47.79
375.319	21.16
375.53	90.79
375.74	58.03
375.951	109.22
376.161	23.21
376.372	74.41
376.582	10.92
376.793	135.85
377.003	60.07
377.214	51.88
377.424	21.16
377.635	90.79
377.845	103.08
378.055	55.98
378.266	64.17
378.476	43.69
378.686	74.41
378.897	39.59
379.107	162.47
379.317	68.27
379.528	37.55
379.738	31.4
379.948	55.98
380.158	115.37
380.369	107.18
380.579	117.42
380.789	88.75
380.999	119.46
381.21	64.17
381.42	164.52
381.63	47.79
381.84	35.5
382.05	37.55
382.261	170.66
382.471	17.07
382.681	92.84
382.891	76.46
383.101	80.55
383.311	66.22
383.521	162.47
383.731	10.92
383.941	84.65
384.151	53.93
384.361	64.17
384.571	25.26
384.781	101.03
384.991	47.79
385.201	90.79
385.411	33.45
385.621	47.79
385.831	10.92
386.041	80.55
386.251	125.61
386.461	45.74
386.671	60.07
386.881	62.12
387.091	107.18
387.301	115.37
387.511	94.89
387.72	156.33
387.93	105.13
388.14	33.45
388.35	74.41
388.56	96.94
388.769	96.94
388.979	66.22
389.189	12.97
389.399	127.66
389.609	76.46
389.818	78.51
390.028	101.03
390.238	84.65
390.447	76.46
390.657	101.03
390.867	70.31
391.076	19.11
391.286	80.55
391.496	127.66
391.705	152.23
391.915	84.65
392.125	31.4
392.334	92.84
392.544	76.46
392.753	76.46
392.963	62.12
393.172	162.47
393.382	60.07
393.591	156.33
393.801	105.13
394.01	31.4
394.22	31.4
394.429	92.84
394.639	68.27
394.848	58.03
395.058	60.07
395.267	107.18
395.477	92.84
395.686	107.18
395.895	139.94
396.105	111.27
396.314	133.8
396.524	80.55
396.733	125.61
396.942	109.22
397.152	121.51
397.361	141.99
397.57	70.31
397.78	121.51
397.989	137.9
398.198	133.8
398.407	182.95
398.617	76.46
398.826	150.18
399.035	96.94
399.244	115.37
399.453	217.77
399.663	158.38
399.872	94.89
400.081	141.99
400.29	133.8
400.499	105.13
400.708	242.34
400.917	133.8
401.127	133.8
401.336	178.86
401.545	180.9
401.754	185
401.963	162.47
402.172	62.12
402.381	215.72
402.59	131.75
402.799	113.32
403.008	170.66
403.217	150.18
403.426	96.94
403.635	125.61
403.844	146.09
404.053	217.77
404.262	185
404.471	193.19
404.68	191.14
404.888	172.71
405.097	160.42
405.306	223.91
405.515	232.1
405.724	187.05
405.933	256.68
406.142	260.77
406.35	268.97
406.559	193.19
406.768	277.16
406.977	299.69
407.185	297.64
407.394	205.48
407.603	336.55
407.812	271.01
408.02	379.56
408.229	311.97
408.438	385.7
408.646	342.69
408.855	254.63
409.064	348.84
409.272	324.26
409.481	395.94
409.69	414.37
409.898	307.88
410.107	438.95
410.315	471.72
410.524	381.6
410.733	481.96
410.941	383.65
411.15	428.71
411.358	527.01
411.567	488.1
411.775	539.3
411.984	514.72
412.192	664.22
412.401	637.6
412.609	606.88
412.818	676.51
413.026	692.9
413.234	719.52
413.443	789.15
413.651	744.1
413.86	770.72
414.068	850.59
414.276	826.01
414.485	750.24
414.693	856.73
414.901	887.45
415.11	940.7
415.318	879.26
415.526	989.85
415.734	963.23
415.943	993.95
416.151	1114.78
416.359	1159.83
416.567	1157.78
416.776	1266.33
416.984	1329.81
417.192	1346.2
417.4	1264.28
417.608	1374.87
417.817	1483.41
418.025	1536.66
418.233	1524.37
418.441	1522.32
418.649	1600.15
418.857	1786.51
419.065	1817.23
419.273	1768.08
419.481	1745.55
419.689	2001.55
419.897	2093.71
420.105	2046.6
420.313	2194.06
420.521	2165.39
420.729	2196.11
420.937	2224.78
421.145	2314.89
421.353	2472.58
421.561	2476.68
421.769	2644.61
421.977	2790.02
422.185	2681.47
422.393	2873.98
422.601	3148.41
422.809	3150.46
423.017	3136.12
423.224	3273.34
423.432	3359.35
423.64	3439.22
423.848	3668.59
424.056	3658.35
424.263	3953.26
424.471	3852.91
424.679	4029.04
424.887	4143.72
425.094	4250.22
425.302	4280.94
425.51	4479.59
425.718	4528.74
425.925	4643.43
426.133	4799.07
426.341	5053.02
426.548	5319.26
426.756	5323.35
426.964	5372.5
427.171	5712.47
427.379	5790.29
427.586	6081.1
427.794	6007.37
428.001	6410.82
428.209	6781.51
428.417	6376.01
428.624	7082.56
428.832	6859.33
429.039	7221.82
429.247	7168.57
429.454	7678.52
429.662	8186.41
429.869	7615.03
430.076	8167.98
430.284	7899.7
430.491	8413.74
430.699	8704.55
430.906	8782.37
431.114	9044.51
431.321	9357.85
431.528	9531.93
431.736	10103.31
431.943	10609.16
432.15	10107.41
432.358	10320.4
432.565	10910.21
432.772	10895.88
432.979	11563.51
433.187	11735.54
433.394	12046.83
433.601	12394.99
433.808	12370.41
434.016	12354.03
434.223	12925.41
434.43	13814.23
434.637	13378.01
434.844	14399.95
435.052	14711.24
435.259	14543.31
435.466	14621.13
435.673	14318.03
435.88	15319.49
436.087	16202.16
436.294	16380.34
436.501	15876.54
436.708	16271.79
436.915	16546.22
437.122	17662.37
437.329	17574.3
437.537	17744.28
437.743	18491.79
437.95	18239.89
438.157	19208.58
438.364	19790.2
438.571	19677.57
438.778	19802.49
438.985	21934.43
439.192	20717.93
439.399	21469.54
439.606	20994.41
439.813	22198.62
440.02	23544.13
440.227	22931.79
440.433	22778.19
440.64	23638.34
440.847	23419.21
441.054	24193.34
441.261	25432.36
441.467	25141.55
441.674	25803.04
441.881	26874.13
442.088	26886.42
442.294	26351.9
442.501	27210
442.708	27910.4
442.914	28528.89
443.121	29581.54
443.328	29284.59
443.534	30886.1
443.741	30286.04
443.948	29823.2
444.154	32456.89
444.361	31862.98
444.568	32047.3
444.774	32041.15
444.981	32741.56
445.187	33558.7
445.394	34910.36
445.6	34451.61
445.807	37695.6
446.013	36124.8
446.22	37036.15
446.426	38195.3
446.633	38361.19
446.839	39911.5
447.046	37951.59
447.252	39882.83
447.459	40095.81
447.665	40017.99
447.871	41386.04
448.078	43358.23
448.284	41218.1
448.491	42594.34
448.697	44240.9
448.903	44527.62
449.11	44939.26
449.316	43802.64
449.522	44894.21
449.728	45969.39
449.935	46434.28
450.141	46247.91
450.347	47136.73
450.553	45580.28
450.76	46288.87
450.966	47755.22
451.172	47380.44
451.378	48244.68
451.584	47648.72
451.791	48392.14
451.997	48336.84
452.203	48975.81
452.409	48910.27
452.615	48488.39
452.821	47237.08
453.027	46780.38
453.233	48814.02
453.44	46745.57
453.646	47402.97
453.852	47448.02
454.058	48271.31
454.264	46448.61
454.47	47583.19
454.676	46252.01
454.882	48160.72
455.088	43853.84
455.294	44644.35
455.5	45012.99
455.705	45608.95
455.911	43626.51
456.117	42987.55
456.323	42127.4
456.529	40341.57
456.735	41713.71
456.941	40415.3
457.147	40198.21
457.352	38594.65
457.558	38377.57
457.764	38322.27
457.97	37945.45
458.176	36913.27
458.381	36687.99
458.587	34955.41
458.793	35156.11
458.999	33337.52
459.204	35596.43
459.41	34920.6
459.616	32438.46
459.821	32618.68
460.027	32366.78
460.233	31662.28
460.438	30636.25
460.644	30181.6
460.85	28975.34
461.055	28715.25
461.261	28463.35
461.466	26464.53
461.672	25800.99
461.878	27537.67
462.083	26224.92
462.289	25227.56
462.494	24629.55
462.7	23828.8
462.905	23306.57
463.111	24244.54
463.316	24400.18
463.522	23599.43
463.727	23572.8
463.932	23314.76
464.138	23527.75
464.343	23599.43
464.549	22909.26
464.754	23462.21
464.959	23357.77
465.165	23138.63
465.37	22528.34
465.575	21897.56
465.781	22657.36
465.986	22589.78
466.191	22075.74
466.397	21492.07
466.602	20513.14
466.807	21254.5
467.012	21117.29
467.218	21154.15
467.423	20535.67
467.628	21107.05
467.833	22055.26
468.038	20982.12
468.244	20435.31
468.449	21592.42
468.654	20703.6
468.859	20291.96
469.064	20089.21
469.269	19442.05
469.474	19790.2
469.679	19753.34
469.885	19513.73
470.09	19822.97
470.295	19499.39
470.5	19235.21
470.705	19124.61
470.91	18667.92
471.115	18272.66
471.32	18870.67
471.525	18407.83
471.73	18266.52
471.935	18131.35
472.139	17670.56
472.344	17844.63
472.549	17795.48
472.754	17627.55
472.959	17066.41
473.164	16734.64
473.369	16372.14
473.574	17174.95
473.778	16931.24
473.983	16564.65
474.188	16736.68
474.393	16069.05
474.598	15952.31
474.802	15944.12
475.007	15854.01
475.212	15841.72
475.417	15071.68
475.621	15061.44
475.826	15565.25
476.031	14705.1
476.235	14721.48
476.44	14873.03
476.645	14610.89
476.849	14731.72
477.054	14498.25
477.259	14375.38
477.463	14131.67
477.668	13916.63
477.872	13912.53
478.077	13869.53
478.282	13502.94
478.486	13535.71
478.691	13586.91
478.895	13193.7
479.1	13105.63
479.304	13150.69
479.509	12902.89
479.713	13298.14
479.918	12915.17
480.122	12470.76
480.326	12988.9
480.531	12777.96
480.735	12724.71
480.94	12659.18
481.144	12825.06
481.348	12444.14
481.553	12548.59
481.757	12329.45
481.961	12411.37
482.166	12540.4
482.37	12495.34
482.574	12343.79
482.778	12378.61
482.983	12446.19
483.187	12532.2
483.391	12141.04
483.595	12319.21
483.8	11944.44
484.004	12399.09
484.208	12302.83
484.412	12204.53
484.616	12134.9
484.821	12282.35
485.025	11739.64
485.229	12272.11
485.433	12210.67
485.637	12116.47
485.841	12024.31
486.045	12175.86
486.249	12190.19
486.453	12124.66
486.657	12167.66
486.861	12190.19
487.065	12122.61
487.269	12110.32
487.473	11782.65
487.677	12196.34
487.881	12296.69
488.085	12274.16
488.289	12435.95
488.493	12225.01
488.697	12274.16
488.901	12159.47
489.105	12212.72
489.309	12407.28
489.512	12450.28
489.716	12274.16
489.92	12351.98
490.124	12237.3
490.328	12517.87
490.531	12220.91
490.735	12657.13
490.939	12704.23
491.143	12468.72
491.346	12503.53
491.55	12681.71
491.754	12655.08
491.958	12665.32
492.161	12808.68
492.365	13191.65
492.569	12884.45
492.772	12896.74
492.976	13064.68
493.18	12976.61
493.383	13416.93
493.587	13140.45
493.79	13408.73
493.994	13226.46
494.197	13439.45
494.401	13404.64
494.605	13531.61
494.808	13887.96
495.012	13621.72
495.215	13832.66
495.419	14010.84
495.622	13924.82
495.825	14180.82
496.029	14404.05
496.232	14436.81
496.436	14387.66
496.639	14752.2
496.843	14705.1
497.046	15096.26
497.249	15190.47
497.453	15278.53
497.656	15448.51
497.859	15337.92
498.063	15520.19
498.266	15983.03
498.469	15673.79
498.673	16001.46
498.876	16275.89
499.079	16626.09
499.282	16368.05
499.485	16765.35
499.689	16734.64
499.892	16949.67
500.095	17127.85
500.298	17293.73
500.501	17213.86
500.705	17838.49
500.908	18200.98
501.111	18252.18
501.314	18420.11
501.517	18770.32
501.72	18737.55
501.923	18729.36
502.126	19186.05
502.329	19569.02
502.532	19659.13
502.735	19485.06
502.938	20146.55
503.141	20238.71
503.344	20427.12
503.547	20644.21
503.75	20818.28
503.953	21125.48
504.156	21283.17
504.359	21203.3
504.562	21664.1
504.765	22036.83
504.968	22112.6
505.17	22657.36
505.373	22686.03
505.576	22942.03
505.779	23097.67
505.982	23497.03
506.185	23615.81
506.387	24035.64
506.59	24033.6
506.793	24543.54
506.996	24475.96
507.198	25164.07
507.401	24873.26
507.604	25323.82
507.807	26122.52
508.009	25723.17
508.212	26321.18
508.415	26556.69
508.617	26532.12
508.82	26943.76
509.022	26818.83
509.225	27210
509.428	27664.64
509.63	28238.08
509.833	27853.06
510.035	28692.72
510.238	28512.5
510.44	28911.86
510.643	29329.64
510.845	29368.55
511.048	29411.56
511.25	30038.24
511.453	29933.79
511.655	31041.74
511.858	30597.34
512.06	31123.66
512.262	31371.47
512.465	31762.63
512.667	31932.61
512.87	32141.5
513.072	32213.18
513.274	32487.61
513.477	33130.67
513.679	33255.6
513.881	33910.95
514.084	33853.61
514.286	34275.49
514.488	34398.37
514.69	35295.38
514.893	35305.62
515.095	35573.9
515.297	35864.71
515.499	36003.97
515.701	36397.18
515.904	36894.84
516.106	37171.32
516.308	37455.98
516.51	38025.32
516.712	37875.82
516.914	38203.49
517.116	38738.01
517.318	38590.56
517.52	39129.17
517.722	39415.89
517.925	39809.1
518.127	40339.52
518.329	40505.41
518.531	40132.68
518.733	41234.49
518.935	41492.53
519.136	41269.3
519.338	42027.05
519.54	42225.7
519.742	42430.5
519.944	42528.8
520.146	42940.44
520.348	43556.88
520.55	43636.75
520.752	43692.05
520.954	44765.18
521.155	44134.41
521.357	45262.84
521.559	45273.08
521.761	45600.75
521.963	45957.1
522.164	45803.5
522.366	46479.33
522.568	46759.91
522.77	47112.16
522.971	47480.79
523.173	47259.61
523.375	48023.5
523.576	48156.62
523.778	47994.83
523.98	48664.52
524.181	49057.73
524.383	48711.62
524.584	49274.81
524.786	49172.41
524.988	49395.64
525.189	49678.26
525.391	49819.57
525.592	50397.1
525.794	50610.09
525.995	50591.65
526.197	50855.84
526.398	50397.1
526.6	51115.93
526.801	51269.53
527.003	51709.85
527.204	51939.22
527.406	51898.26
527.607	52078.48
527.808	52522.89
528.01	51842.96
528.211	52344.72
528.412	52973.44
528.614	52817.8
528.815	52860.8
529.016	53677.94
529.218	52955.01
529.419	53360.51
529.62	53049.22
529.822	53538.68
530.023	53598.07
530.224	53450.62
530.425	53286.78
530.626	53258.11
530.828	53290.88
531.029	54280.05
531.23	53614.46
531.431	53831.54
531.632	53972.85
531.833	54034.29
532.035	53743.48
532.236	53985.14
532.437	54484.84
532.638	54009.71
532.839	54144.88
533.04	54540.14
533.241	53999.47
533.442	54988.64
533.643	54445.93
533.844	54472.56
534.045	54515.56
534.246	54228.85
534.447	54804.33
534.648	54501.23
534.849	54628.2
535.05	54333.29
535.251	54507.37
535.451	54820.71
535.652	54388.59
535.853	54472.56
536.054	54476.65
536.255	55009.12
536.456	54488.94
536.657	55340.89
536.857	54792.04
537.058	54691.69
537.259	54904.68
537.46	55193.44
537.66	54458.22
537.861	54689.64
538.062	54693.74
538.263	54712.17
538.463	54296.43
538.664	54620.01
538.865	54982.5
539.065	55099.23
539.266	54214.51
539.466	55291.74
539.667	54161.26
539.868	55265.12
540.068	54222.7
540.269	54310.77
540.469	55052.13
540.67	54644.58
540.87	54345.58
541.071	54364.01
541.271	54724.46
541.472	54452.08
541.672	54230.9
541.873	54632.3
542.073	53698.42
542.274	54751.08
542.474	54206.32
542.675	54099.83
542.875	54744.94
543.075	54239.09
543.276	53839.73
543.476	54577
543.676	53704.57
543.877	54620.01
544.077	53784.44
544.277	54175.6
544.478	54525.8
544.678	54263.66
544.878	54218.61
545.078	54095.73
545.279	53907.32
545.479	53598.07
545.679	54370.16
545.879	54216.56
546.079	54368.11
546.28	54161.26
546.48	53475.19
546.68	54390.64
546.88	54202.22
547.08	54087.54
547.28	53737.33
547.48	53815.16
547.68	54275.95
547.88	53411.71
548.081	54026.1
548.281	54382.44
548.481	53587.83
548.681	54341.49
548.881	53747.57
549.081	53917.56
549.28	53817.21
549.48	54300.53
549.68	53792.63
549.88	54349.68
550.08	53587.83
550.28	54159.22
550.48	53624.7
550.68	53974.9
550.88	53770.1
551.08	53403.52
551.279	53829.49
551.479	53329.79
551.679	53403.52
551.879	53342.08
552.079	53864.31
552.278	53309.31
552.478	53700.47
552.678	53755.77
552.878	53907.32
553.077	53313.41
553.277	52979.59
553.477	53481.34
553.676	53139.33
553.876	52987.78
554.076	53075.84
554.275	53049.22
554.475	52567.94
554.674	53380.99
554.874	53133.18
555.074	52858.76
555.273	53270.4
555.473	53161.86
555.672	53282.69
555.872	52940.67
556.071	52793.22
556.271	53518.2
556.47	53047.17
556.67	52066.19
556.869	52594.57
557.068	52952.96
557.268	52426.63
557.467	52516.75
557.667	52359.05
557.866	52402.06
558.065	52236.17
558.265	51875.73
558.464	52023.18
558.663	52756.36
558.863	51814.29
559.062	52578.18
559.261	51691.41
559.461	52723.59
559.66	51240.86
559.859	51834.77
560.058	51341.21
560.258	51928.98
560.457	51384.22
560.656	51902.35
560.855	51267.48
561.054	51613.59
561.253	51122.08
561.453	51290.01
561.652	51337.12
561.851	51328.92
562.05	50751.4
562.249	50522.02
562.448	50835.36
562.647	51197.85
562.846	50446.25
563.045	50605.99
563.244	50270.12
563.443	51503
563.642	50053.04
563.841	50354.09
564.04	50114.48
564.239	50556.84
564.438	49917.87
564.637	50046.89
564.836	49827.76
565.035	49436.6
565.234	50134.96
565.432	49592.25
565.631	49407.93
565.83	49444.79
566.029	48959.42
566.228	48943.04
566.427	49143.74
566.625	48928.7
566.824	48426.95
567.023	49049.53
567.222	47974.35
567.42	48953.28
567.619	48656.32
567.818	48377.8
568.016	48279.5
568.215	48807.87
568.414	48314.31
568.612	48429
568.811	47849.42
569.01	48420.81
569.208	47708.11
569.407	47912.91
569.605	47263.71
569.804	47964.11
570.002	47468.5
570.201	47405.02
570.4	47153.12
570.598	47128.54
570.797	46931.93
570.995	47292.38
571.193	46641.12
571.392	46907.36
571.59	46278.63
571.789	46368.74
571.987	46237.67
572.186	46639.07
572.384	46034.92
572.582	46071.79
572.781	46518.24
572.979	45469.68
573.177	45823.98
573.376	45848.56
573.574	45610.99
573.772	45699.06
573.971	45404.15
574.169	44978.17
574.367	45060.09
574.565	45068.28
574.763	44918.78
574.962	45076.47
575.16	44277.77
575.358	45027.32
575.556	44279.82
575.754	45121.53
575.952	44154.89
576.151	44806.14
576.349	43687.95
576.547	44011.53
576.745	43909.13
576.943	44269.58
577.141	43501.59
577.339	43997.2
577.537	43737.1
577.735	43556.88
577.933	43171.86
578.131	43700.24
578.329	43145.24
578.527	42940.44
578.725	42827.81
578.923	42922.01
579.121	42438.69
579.319	42962.97
579.516	43032.6
579.714	42328.1
579.912	42293.29
580.11	42487.84
580.308	42410.02
580.506	42305.57
580.704	41549.87
580.901	41730.09
581.099	42070.06
581.297	42027.05
581.495	41328.69
581.692	41543.73
581.89	41175.09
582.088	41619.5
582.285	40958.01
582.483	41300.02
582.681	41150.52
582.878	40915
583.076	40554.56
583.274	40845.37
583.471	40226.88
583.669	40556.61
583.866	39966.79
584.064	40317
584.262	39936.07
584.459	40583.23
584.657	39626.83
584.854	40026.18
585.052	39235.67
585.249	39886.92
585.447	39743.56
585.644	39366.74
585.841	39534.67
586.039	39735.37
586.236	38887.51
586.434	39032.92
586.631	38727.77
586.828	38989.91
587.026	38959.19
587.223	38531.17
587.42	38572.13
587.618	38590.56
587.815	38129.76
588.012	38133.86
588.21	38146.15
588.407	38469.73
588.604	38135.91
588.801	37994.6
588.999	37697.64
589.196	37630.06
589.393	37548.14
589.59	37474.41
589.787	37294.19
589.984	36620.41
590.182	36690.04
590.379	36982.9
590.576	36581.5
590.773	36573.31
590.97	36782.2
591.167	37525.61
591.364	36163.71
591.561	36503.68
591.758	35975.3
591.955	36151.43
592.152	36407.42
592.349	35809.42
592.546	36028.55
592.743	35782.79
592.94	35313.81
593.137	35508.36
593.334	35889.29
593.531	35256.46
593.727	35461.26
593.924	35188.88
594.121	35086.48
594.318	35342.48
594.515	34656.41
594.712	35106.96
594.908	34603.16
595.105	34830.49
595.302	34539.68
595.499	34574.49
595.696	34103.46
595.892	34222.24
596.089	34183.33
596.286	34433.18
596.482	34212
596.679	34005.16
596.876	33851.56
597.072	33620.14
597.269	33632.43
597.466	33482.92
597.662	33317.04
597.859	33263.79
598.055	33132.72
598.252	33343.66
598.448	32880.82
598.645	32469.18
598.841	32673.98
599.038	32794.81
599.234	32616.63
599.431	32420.03
599.627	32338.11
599.824	32536.76
600.02	31873.22
600.217	32346.3
600.413	32123.07
600.609	31619.27
600.806	31688.9
601.002	32211.14
601.198	31588.55
601.395	31402.19
601.591	31373.52
601.787	31551.69
601.984	31307.98
602.18	31332.56
602.376	31283.41
602.572	31119.57
602.769	30931.15
602.965	30699.73
603.161	30841.04
603.357	30865.62
603.553	30423.26
603.75	30619.86
603.946	30425.31
604.142	30367.96
604.338	29855.97
604.534	30359.77
604.73	30134.49
604.926	29946.08
605.122	29839.59
605.318	29833.44
605.514	29526.25
605.71	29567.21
605.906	29415.66
606.102	29622.5
606.298	29903.07
606.494	29294.83
606.69	28934.39
606.886	29503.72
607.082	28619
607.278	29184.24
607.474	28731.64
607.67	29149.42
607.866	28659.96
608.062	29372.65
608.257	28451.06
608.453	28684.53
608.649	28897.52
608.845	28508.41
609.041	28928.24
609.236	28422.39
609.432	28387.58
609.628	28104.96
609.824	28422.39
610.019	27873.54
610.215	28201.21
610.411	28377.34
610.606	27963.65
610.802	27986.18
610.998	28074.24
611.193	28059.9
611.389	27676.93
611.584	27625.73
611.78	27586.82
611.976	27949.31
612.171	27599.11
612.367	27490.57
612.562	27431.18
612.758	27119.88
612.953	26964.24
613.149	27250.95
613.344	27142.41
613.539	27744.52
613.735	27136.27
613.93	27093.26
614.126	27420.94
614.321	27279.63
614.517	27259.15
614.712	27150.6
614.907	27033.87
615.103	26829.07
615.298	26927.38
615.493	27111.69
615.688	26417.43
615.884	26951.95
616.079	26607.89
616.274	26599.7
616.47	26288.41
616.665	26634.52
616.86	26355.99
617.055	26263.83
617.25	26093.85
617.445	26284.31
617.641	25899.3
617.836	26343.7
618.031	26118.43
618.226	25921.82
618.421	25729.31
618.616	26007.84
618.811	25768.23
619.006	26163.48
619.201	25188.65
619.396	25745.7
619.591	25067.82
619.786	25534.76
619.981	24990
620.176	25172.27
620.371	24953.13
620.566	25334.06
620.761	24774.96
620.956	24834.35
621.151	24555.83
621.346	24498.48
621.541	24441.14
621.735	24641.84
621.93	24293.69
622.125	24359.22
622.32	23716.16
622.515	23654.72
622.709	23558.47
622.904	23535.94
623.099	23658.82
623.294	23626.05
623.488	23236.94
623.683	23314.76
623.878	22788.43
624.072	22972.75
624.267	22837.58
624.462	22778.19
624.656	22321.49
624.851	22634.83
625.046	22262.1
625.24	22382.93
625.435	21950.81
625.629	21995.87
625.824	21662.05
626.018	21858.65
626.213	21326.18
626.407	21543.27
626.602	21225.83
626.796	21565.79
626.991	21266.79
627.185	21027.18
627.38	20824.43
627.574	20881.77
627.768	20619.63
627.963	20681.07
628.157	20476.27
628.352	20801.9
628.546	19906.94
628.74	20322.68
628.935	20117.88
629.129	20011.39
629.323	20111.74
629.517	19874.17
629.712	19696
629.906	19669.37
630.1	19501.44
630.294	19665.28
630.489	19462.53
630.683	19521.92
630.877	18999.69
631.071	19018.12
631.265	18928.01
631.459	18930.06
631.653	18575.76
631.848	18749.84
632.042	18684.3
632.236	18663.82
632.43	18309.52
632.624	18182.55
632.818	18225.56
633.012	18211.22
633.206	17971.61
633.4	18047.38
633.594	17951.13
633.788	17971.61
633.982	17727.9
634.176	17488.29
634.369	17650.08
634.563	17422.75
634.757	17332.64
634.951	17090.98
635.145	17383.84
635.339	17207.72
635.533	16986.54
635.726	17013.16
635.92	16540.08
636.114	16669.1
636.308	16622
636.501	16560.56
636.695	16320.95
636.889	16314.8
637.083	16449.97
637.276	15989.17
637.47	15919.54
637.664	16146.87
637.857	15968.69
638.051	15989.17
638.244	15788.47
638.438	15585.72
638.632	15731.13
638.825	15493.57
639.019	15397.31
639.212	15333.82
639.406	15348.16
639.599	15223.23
639.793	15358.4
639.986	15106.5
640.18	14846.41
640.373	14946.76
640.567	14856.65
640.76	15002.05
640.954	14653.9
641.147	14539.21
641.34	14367.18
641.534	14477.77
641.727	14248.4
641.92	14426.57
642.114	14526.92
642.307	14215.63
642.5	14207.44
642.694	14008.79
642.887	13822.42
643.08	14055.89
643.273	13828.57
643.467	13699.55
643.66	13736.41
643.853	13771.22
644.046	13212.13
644.239	13402.59
644.432	13285.86
644.626	13339.1
644.819	13214.18
645.012	13296.1
645.205	13152.74
645.398	12995.04
645.591	12870.12
645.784	13113.83
645.977	12798.44
646.17	12681.71
646.363	12876.26
646.556	12597.74
646.749	12640.75
646.942	12714.47
647.135	12403.18
647.328	12442.09
647.521	12245.49
647.714	12319.21
647.907	12210.67
648.099	12286.45
648.292	12089.84
648.485	11823.61
648.678	12120.56
648.871	11903.48
649.064	11821.56
649.256	11784.69
649.449	11534.84
649.642	11706.87
649.835	11385.34
650.027	11557.37
650.22	11407.87
650.413	11346.43
650.605	11194.88
650.798	11311.61
650.991	11229.7
651.183	11065.86
651.376	10928.64
651.568	11102.72
651.761	10998.27
651.954	10844.68
652.146	10770.95
652.339	10906.12
652.531	11006.47
652.724	10703.37
652.916	10545.67
653.109	10627.59
653.301	10387.98
653.494	10514.95
653.686	10488.33
653.879	10689.03
654.071	10510.86
654.263	10418.7
654.456	10265.1
654.648	10179.09
654.84	10203.66
655.033	10152.46
655.225	10164.75
655.417	9955.86
655.61	9935.38
655.802	9875.99
655.994	9726.49
656.186	9970.19
656.379	9875.99
656.571	9716.25
656.763	9603.61
656.955	9542.17
657.148	9511.45
657.34	9611.8
657.532	9304.6
657.724	9370.14
657.916	9392.67
658.108	9396.76
658.3	9220.64
658.492	9200.16
658.684	9021.99
658.876	9017.89
659.068	8976.93
659.26	9054.75
659.452	9005.6
659.644	9048.61
659.836	8958.5
660.028	8899.11
660.22	8692.26
660.412	8710.69
660.604	8802.85
660.796	8722.98
660.988	8823.33
661.18	8598.06
661.372	8520.23
661.563	8591.91
661.755	8372.78
661.947	8325.68
662.139	8415.79
662.331	8372.78
662.522	8348.2
662.714	8182.32
662.906	7823.92
663.097	8047.15
663.289	7940.66
663.481	7971.38
663.673	8020.53
663.864	7965.23
664.056	7868.98
664.247	7961.14
664.439	7875.12
664.631	7815.73
664.822	7664.18
665.014	7797.3
665.205	7819.83
665.397	7864.88
665.588	7615.03
665.78	7703.09
665.971	7535.16
666.163	7580.21
666.354	7492.15
666.546	7565.88
666.737	7203.39
666.929	7363.13
667.12	7330.36
667.311	7397.95
667.503	7195.2
667.694	7199.29
667.885	7019.07
668.077	7033.41
668.268	6984.26
668.459	7098.94
668.651	6969.92
668.842	7021.12
669.033	7049.79
669.224	6994.5
669.416	6955.58
669.607	6828.61
669.798	6863.43
669.989	6855.23
670.18	6728.26
670.371	6832.71
670.563	6543.94
670.754	6758.98
670.945	6511.18
671.136	6666.82
671.327	6679.11
671.518	6589
671.709	6578.76
671.9	6445.64
672.091	6527.56
672.282	6302.28
672.473	6296.14
672.664	6543.94
672.855	6333
673.046	6359.63
673.237	6343.24
673.428	6316.62
673.619	6312.52
673.809	6240.84
674	6183.5
674.191	6195.79
674.382	6134.35
674.573	6109.77
674.764	6040.14
674.954	6027.85
675.145	6068.81
675.336	5954.13
675.527	5902.93
675.717	6058.57
675.908	6044.24
676.099	5997.14
676.289	6064.72
676.48	5939.79
676.671	5812.82
676.861	5780.05
677.052	5843.54
677.243	5831.25
677.433	5548.63
677.624	5884.5
677.814	5663.32
678.005	5653.08
678.195	5601.88
678.386	5694.04
678.576	5696.08
678.767	5640.79
678.957	5624.4
679.148	5554.77
679.338	5622.36
679.529	5646.93
679.719	5558.87
679.909	5712.47
680.1	5366.36
680.29	5542.49
680.481	5487.19
680.671	5360.22
680.861	5495.38
681.052	5444.18
681.242	5554.77
681.432	5440.09
681.622	5345.88
681.813	5390.94
682.003	5360.22
682.193	5384.79
682.383	5599.83
682.573	5331.55
682.764	5245.53
682.954	5341.79
683.144	5304.92
683.334	5233.24
683.524	5247.58
683.714	5184.09
683.904	5255.77
684.094	5120.6
684.284	5112.41
684.474	5212.76
684.664	5073.5
684.854	4975.2
685.044	4999.77
685.234	5038.69
685.424	5032.54
685.614	5001.82
685.804	5069.41
685.994	4887.14
686.184	4803.17
686.374	4932.19
686.564	4969.05
686.753	4870.75
686.943	4831.84
687.133	4960.86
687.323	4903.52
687.513	5012.06
687.702	4700.77
687.892	4809.31
688.082	4713.06
688.272	4788.83
688.461	4680.29
688.651	4741.73
688.841	4745.83
689.03	4723.3
689.22	4614.76
689.41	4610.66
689.599	4618.85
689.789	4563.56
689.979	4516.45
690.168	4538.98
690.358	4561.51
690.547	4328.04
690.737	4516.45
690.926	4440.68
691.116	4479.59
691.305	4489.83
691.495	4498.02
691.684	4459.11
691.874	4596.32
692.063	4350.57
692.252	4481.64
692.442	4278.89
692.631	4276.84
692.82	4362.86
693.01	4239.98
693.199	4229.74
693.388	4141.68
693.578	4244.07
693.767	4305.51
693.956	4192.87
694.146	4156.01
694.335	4254.31
694.524	4070
694.713	4219.5
694.902	4110.96
695.092	4192.87
695.281	4106.86
695.47	4190.83
695.659	4110.96
695.848	4035.18
696.037	4008.56
696.226	4131.44
696.415	4008.56
696.604	4125.29
696.793	4072.04
696.982	4057.71
697.171	4106.86
697.36	4172.39
697.549	4057.71
697.738	3850.86
697.927	3889.78
698.116	4055.66
698.305	3955.31
698.494	4008.56
698.683	4053.61
698.872	3965.55
699.061	3904.11
699.25	3902.06
699.438	4010.61
699.627	3961.45
699.816	3938.93
700.005	3820.14
700.193	3943.02
700.382	3938.93
700.571	3777.14
700.76	3949.17
700.948	3842.67
701.137	3803.76
701.326	3820.14
701.514	3916.4
701.703	3865.2
701.892	3734.13
702.08	3807.86
702.269	3850.86
702.457	3793.52
702.646	3695.22
702.834	3742.32
703.023	3787.38
703.212	3828.34
703.4	3748.47
703.589	3662.45
703.777	3713.65
703.965	3627.64
704.154	3893.87
704.342	3648.11
704.531	3594.87
704.719	3818.1
704.907	3750.51
705.096	3574.39
705.284	3689.07
705.472	3680.88
705.661	3631.73
705.849	3652.21
706.037	3740.27
706.226	3707.51
706.414	3719.79
706.602	3689.07
706.79	3756.66
706.979	3566.2
707.167	3635.83
707.355	3601.01
707.543	3631.73
707.731	3680.88
707.919	3596.92
708.107	3701.36
708.296	3523.19
708.484	3547.76
708.672	3541.62
708.86	3596.92
709.048	3469.94
709.236	3615.35
709.424	3609.2
709.612	3625.59
709.8	3590.77
709.988	3615.35
710.176	3592.82
710.364	3750.51
710.551	3517.04
710.739	3506.81
710.927	3492.47
711.115	3424.89
711.303	3582.58
711.491	3553.91
711.679	3482.23
711.866	3445.37
712.054	3482.23
712.242	3392.12
712.43	3496.57
712.617	3566.2
712.805	3422.84
712.993	3406.45
713.181	3433.08
713.368	3447.41
713.556	3476.09
713.744	3328.63
713.931	3588.72
714.119	3435.13
714.306	3467.89
714.494	3353.21
714.682	3500.66
714.869	3390.07
715.057	3484.28
715.244	3334.78
715.432	3426.93
715.619	3496.57
715.807	3267.19
715.994	3435.13
716.182	3388.02
716.369	3299.96
716.556	3373.69
716.744	3236.47
716.931	3377.78
717.119	3371.64
717.306	3373.69
717.493	3375.74
717.681	3404.41
717.868	3287.67
718.055	3369.59
718.242	3201.66
718.43	3293.82
718.617	3234.43
718.804	3285.62
718.991	3244.67
719.179	3297.91
719.366	3195.51
719.553	3318.39
719.74	3256.95
719.927	3297.91
720.114	3310.2
720.301	3277.43
720.488	3172.99
720.676	3220.09
720.863	3170.94
721.05	3183.23
721.237	3113.6
721.424	3265.14
721.611	3275.38
721.798	3240.57
721.985	3275.38
722.172	3224.19
722.358	3148.41
722.545	3240.57
722.732	3148.41
722.919	3148.41
723.106	3164.79
723.293	3140.22
723.48	3062.4
723.667	3246.71
723.853	3207.8
724.04	3158.65
724.227	3078.78
724.414	3058.3
724.6	3142.27
724.787	3164.79
724.974	3113.6
725.161	3078.78
725.347	2960
725.534	3089.02
725.72	3050.11
725.907	3172.99
726.094	3050.11
726.28	3013.24
726.467	3021.44
726.653	3017.34
726.84	3207.8
727.027	3142.27
727.213	3152.51
727.4	3115.64
727.586	3027.58
727.773	3015.29
727.959	3084.92
728.145	3164.79
728.332	3058.3
728.518	2986.62
728.705	3101.31
728.891	2980.48
729.077	2943.61
729.264	3033.72
729.45	3017.34
729.636	3099.26
729.823	2976.38
730.009	2964.09
730.195	2976.38
730.382	2990.72
730.568	3035.77
730.754	3033.72
730.94	2990.72
731.126	3019.39
731.313	2935.42
731.499	2921.09
731.685	2931.33
731.871	2939.52
732.057	2851.46
732.243	3025.53
732.429	2992.76
732.615	3029.63
732.801	3013.24
732.987	2945.66
733.173	2910.85
733.359	2927.23
733.545	2919.04
733.731	2968.19
733.917	2833.02
734.103	2962.05
734.289	2914.94
734.475	2859.65
734.661	3062.4
734.847	2871.93
735.033	2957.95
735.219	2894.46
735.404	2916.99
735.59	3039.87
735.776	2935.42
735.962	2871.93
736.148	2876.03
736.333	2857.6
736.519	2775.68
736.705	2937.47
736.89	2947.71
737.076	2880.13
737.262	2660.99
737.447	2878.08
737.633	2845.31
737.819	2808.45
738.004	2792.06
738.19	2859.65
738.375	2792.06
738.561	2802.3
738.747	2597.51
738.932	2841.22
739.118	2787.97
739.303	2747.01
739.489	2798.21
739.674	2699.91
739.859	2714.24
740.045	2714.24
740.23	2736.77
740.416	2640.51
740.601	2671.23
740.786	2767.49
740.972	2728.58
741.157	2579.08
741.342	2542.21
741.528	2601.6
741.713	2679.43
741.898	2677.38
742.084	2742.91
742.269	2591.36
742.454	2640.51
742.639	2761.34
742.824	2513.54
743.01	2587.27
743.195	2450.05
743.38	2488.96
743.565	2488.96
743.75	2544.26
743.935	2628.23
744.12	2599.55
744.305	2452.1
744.49	2511.49
744.675	2626.18
744.86	2542.21
745.045	2435.72
745.23	2509.44
745.415	2386.57
745.6	2509.44
745.785	2411.14
745.97	2466.44
746.155	2421.38
746.34	2359.94
746.525	2353.8
746.71	2372.23
746.895	2405
747.079	2210.44
747.264	2353.8
747.449	2370.18
747.634	2179.72
747.819	2249.35
748.003	2241.16
748.188	2241.16
748.373	2157.19
748.557	2167.43
748.742	2206.34
748.927	2232.97
749.111	2091.66
749.296	2173.58
749.481	2257.54
749.665	2212.49
749.85	2183.82
750.034	2046.6
750.219	2126.47
750.404	2077.32
750.588	2062.99
750.773	1940.11
750.957	1970.83
751.141	2071.18
751.326	2005.64
751.51	2052.75
751.695	1968.78
751.879	1946.25
752.064	2013.84
752.248	1968.78
752.432	1997.45
752.617	1862.29
752.801	1880.72
752.985	1847.95
753.17	1929.87
753.354	1862.29
753.538	1837.71
753.722	1862.29
753.907	1786.51
754.091	1866.38
754.275	1704.59
754.459	1694.35
754.643	1817.23
754.828	1682.06
755.012	1677.97
755.196	1778.32
755.38	1751.7
755.564	1708.69
755.748	1694.35
755.932	1626.77
756.116	1688.21
756.3	1735.31
756.484	1647.25
756.668	1686.16
756.852	1710.74
757.036	1591.95
757.22	1540.76
757.404	1655.44
757.588	1583.76
757.772	1622.67
757.956	1581.71
758.14	1618.58
758.323	1555.09
758.507	1645.2
758.691	1462.93
758.875	1637.01
759.059	1489.56
759.242	1538.71
759.426	1440.4
759.61	1448.6
759.794	1462.93
759.977	1532.56
760.161	1530.52
760.345	1534.61
760.528	1458.84
760.712	1385.11
760.895	1395.35
761.079	1335.96
761.263	1479.32
761.446	1434.26
761.63	1393.3
761.813	1421.97
761.997	1516.18
762.18	1299.09
762.364	1307.29
762.547	1354.39
762.731	1295
762.914	1329.81
763.098	1446.55
763.281	1354.39
763.464	1188.5
763.648	1313.43
763.831	1333.91
764.015	1305.24
764.198	1276.57
764.381	1276.57
764.564	1274.52
764.748	1292.95
764.931	1360.53
765.114	1231.51
765.297	1354.39
765.481	1200.79
765.664	1311.38
765.847	1266.33
766.03	1251.99
766.213	1155.74
766.397	1227.42
766.58	1165.98
766.763	1155.74
766.946	1262.23
767.129	1147.55
767.312	1186.46
767.495	1225.37
767.678	1180.31
767.861	1182.36
768.044	1157.78
768.227	1190.55
768.41	1165.98
768.593	1133.21
768.776	1120.92
768.959	1129.11
769.142	1184.41
769.324	1053.34
769.507	1178.26
769.69	1149.59
769.873	1178.26
770.056	1077.91
770.239	1088.15
770.421	1118.87
770.604	1120.92
770.787	1122.97
770.97	1026.71
771.152	1065.63
771.335	1141.4
771.518	1159.83
771.7	1116.83
771.883	1127.07
772.066	1092.25
772.248	1022.62
772.431	1075.87
772.613	1008.28
772.796	961.18
772.978	1014.43
773.161	1104.54
773.343	975.52
773.526	860.83
773.708	914.08
773.891	1010.33
774.073	955.04
774.256	946.84
774.438	1055.39
774.621	1032.86
774.803	971.42
774.985	996
775.168	946.84
775.35	805.53
775.532	844.45
775.715	899.74
775.897	905.88
776.079	944.8
776.261	909.98
776.444	850.59
776.626	854.69
776.808	838.3
776.99	856.73
777.173	817.82
777.355	907.93
777.537	791.2
777.719	830.11
777.901	817.82
778.083	811.68
778.265	713.38
778.447	766.62
778.629	754.34
778.811	811.68
778.993	838.3
779.175	817.82
779.357	727.71
779.539	766.62
779.721	733.86
779.903	785.05
780.085	764.57
780.267	684.7
780.449	656.03
780.631	807.58
780.812	805.53
780.994	664.22
781.176	717.47
781.358	750.24
781.54	672.42
781.721	615.07
781.903	696.99
782.085	701.09
782.267	703.14
782.448	651.94
782.63	696.99
782.812	592.55
782.993	748.19
783.175	647.84
783.357	606.88
783.538	641.7
783.72	647.84
783.901	617.12
784.083	586.4
784.264	619.17
784.446	598.69
784.627	572.07
784.809	557.73
784.99	590.5
785.172	647.84
785.353	574.11
785.535	559.78
785.716	545.44
785.897	524.96
786.079	588.45
786.26	594.59
786.441	563.87
786.623	479.91
786.804	498.34
786.985	510.63
787.167	522.91
787.348	527.01
787.529	563.87
787.71	598.69
787.891	561.83
788.073	520.87
788.254	496.29
788.435	465.57
788.616	445.09
788.797	451.24
788.978	496.29
789.159	428.71
789.34	492.2
789.522	445.09
789.703	438.95
789.884	518.82
790.065	484
790.246	449.19
790.427	471.72
790.607	443.04
790.788	451.24
790.969	486.05
791.15	410.28
791.331	481.96
791.512	479.91
791.693	395.94
791.874	428.71
792.054	467.62
792.235	467.62
792.416	465.57
792.597	404.13
792.778	449.19
792.958	430.76
793.139	436.9
793.32	418.47
793.5	402.08
793.681	385.7
793.862	512.67
794.042	479.91
794.223	359.08
794.404	338.6
794.584	383.65
794.765	320.17
794.945	451.24
795.126	420.52
795.306	410.28
795.487	359.08
795.667	352.93
795.848	441
796.028	381.6
796.209	354.98
796.389	369.32
796.57	424.61
796.75	307.88
796.93	332.45
797.111	387.75
797.291	322.21
797.471	397.99
797.652	336.55
797.832	371.36
798.012	402.08
798.192	293.54
798.373	326.31
798.553	400.04
798.733	332.45
798.913	336.55
799.093	381.6
799.274	328.36
799.454	260.77
799.634	264.87
799.814	400.04
799.994	393.89
800.174	379.56
800.354	342.69
800.534	361.13
800.714	359.08
800.894	273.06
801.074	305.83
801.254	232.1
801.434	352.93
801.614	309.93
801.794	316.07
801.974	613.03
802.154	236.2
802.334	314.02
802.514	258.73
802.693	258.73
802.873	250.53
803.053	344.74
803.233	223.91
803.413	301.73
803.592	326.31
803.772	232.1
803.952	316.07
804.131	295.59
804.311	273.06
804.491	336.55
804.67	232.1
804.85	266.92
805.03	273.06
805.209	371.36
805.389	199.34
805.568	248.49
805.748	322.21
805.928	252.58
806.107	273.06
806.287	291.49
806.466	228.01
806.646	207.53
806.825	244.39
807.004	203.43
807.184	266.92
807.363	350.89
807.543	244.39
807.722	211.62
807.901	211.62
808.081	283.3
808.26	264.87
808.439	211.62
808.619	238.25
808.798	211.62
808.977	232.1
809.156	160.42
809.336	318.12
809.515	232.1
809.694	260.77
809.873	258.73
810.052	258.73
810.231	258.73
810.411	187.05
810.59	225.96
810.769	223.91
810.948	205.48
811.127	215.72
811.306	230.06
811.485	156.33
811.664	191.14
811.843	191.14
812.022	180.9
812.201	162.47
812.38	180.9
812.559	150.18
812.737	166.57
812.916	193.19
813.095	238.25
813.274	199.34
813.453	273.06
813.632	236.2
813.811	260.77
813.989	205.48
814.168	182.95
814.347	166.57
814.526	221.86
814.704	189.1
814.883	168.62
815.062	182.95
815.24	152.23
815.419	113.32
815.598	240.29
815.776	236.2
815.955	199.34
816.133	232.1
816.312	146.09
816.49	182.95
816.669	164.52
816.847	217.77
817.026	170.66
817.204	180.9
817.383	178.86
817.561	115.37
817.74	135.85
817.918	213.67
818.097	166.57
818.275	150.18
818.453	211.62
818.632	168.62
818.81	158.38
818.988	125.61
819.167	127.66
819.345	209.58
819.523	160.42
819.701	84.65
819.879	201.38
820.058	162.47
820.236	238.25
820.414	191.14
820.592	160.42
820.77	84.65
820.948	96.94
821.127	150.18
821.305	137.9
821.483	98.99
821.661	174.76
821.839	139.94
822.017	141.99
822.195	133.8
822.373	178.86
822.551	203.43
822.729	141.99
822.907	148.14
823.085	170.66
823.262	176.81
823.44	189.1
823.618	150.18
823.796	150.18
823.974	123.56
824.152	72.36
824.329	105.13
824.507	193.19
824.685	78.51
824.863	150.18
825.04	185
825.218	141.99
825.396	203.43
825.574	109.22
825.751	90.79
825.929	191.14
826.107	172.71
826.284	96.94
826.462	90.79
826.639	88.75
826.817	109.22
826.994	129.7
827.172	174.76
827.349	158.38
827.527	109.22
827.704	62.12
827.882	139.94
828.059	129.7
828.237	150.18
828.414	187.05
828.591	37.55
828.769	60.07
828.946	103.08
829.124	154.28
829.301	82.6
829.478	103.08
829.655	125.61
829.833	49.83
830.01	68.27
830.187	92.84
830.364	109.22
830.542	117.42
830.719	115.37
830.896	131.75
831.073	131.75
831.25	109.22
831.427	111.27
831.604	0.68
831.782	123.56
831.959	191.14
832.136	139.94
832.313	84.65
832.49	31.4
832.667	111.27
832.844	84.65
833.021	150.18
833.198	113.32
833.374	103.08
833.551	84.65
833.728	84.65
833.905	127.66
834.082	47.79
834.259	86.7
834.436	127.66
834.612	86.7
834.789	131.75
834.966	55.98
835.143	129.7
835.319	76.46
835.496	105.13
835.673	123.56
835.85	133.8
836.026	70.31
836.203	133.8
836.38	80.55
836.556	70.31
836.733	37.55
836.909	178.86
837.086	125.61
837.262	121.51
837.439	55.98
837.616	64.17
837.792	96.94
837.968	70.31
838.145	23.21
838.321	92.84
838.498	86.7
838.674	78.51
838.851	103.08
839.027	111.27
839.203	111.27
839.38	96.94
839.556	58.03
839.732	152.23
839.909	101.03
840.085	58.03
840.261	8.87
840.437	121.51
840.614	41.64
840.79	82.6
840.966	113.32
841.142	109.22
841.318	33.45
841.494	70.31
841.671	19.11
841.847	84.65
842.023	70.31
842.199	137.9
842.375	70.31
842.551	31.4
842.727	84.65
842.903	107.18
843.079	62.12
843.255	96.94
843.431	72.36
843.607	64.17
843.783	66.22
843.959	49.83
844.134	101.03
844.31	66.22
844.486	80.55
844.662	47.79
844.838	41.64
845.013	96.94
845.189	49.83
845.365	109.22
845.541	6.83
845.716	68.27
845.892	82.6
846.068	109.22
846.244	-32.08
846.419	39.59
846.595	101.03
846.77	12.97
846.946	111.27
847.122	47.79
847.297	84.65
847.473	127.66
847.648	21.16
847.824	39.59
847.999	92.84
848.175	4.78
848.35	66.22
848.526	170.66
848.701	37.55
848.876	101.03
849.052	41.64
849.227	53.93
849.403	55.98
849.578	31.4
849.753	47.79
849.929	51.88
850.104	55.98
850.279	15.02
850.454	-17.75
850.63	96.94
850.805	113.32
850.98	107.18
851.155	39.59
851.33	80.55
851.505	101.03
851.681	92.84
851.856	78.51
852.031	35.5
852.206	49.83
852.381	109.22
852.556	43.69
852.731	76.46
852.906	45.74
853.081	107.18
853.256	84.65
853.431	27.31
853.606	80.55
853.781	-11.61
853.956	-5.46
854.131	70.31
854.305	72.36
854.48	58.03
854.655	19.11
854.83	80.55
855.005	23.21
855.18	111.27
855.354	58.03
855.529	35.5
855.704	31.4
855.879	72.36
856.053	78.51
856.228	23.21
856.403	-15.7
856.577	-1.37
856.752	66.22
856.926	70.31
857.101	15.02
857.276	150.18
857.45	64.17
857.625	43.69
857.799	49.83
857.974	39.59
858.148	23.21
858.323	12.97
858.497	64.17
858.672	19.11
858.846	-71
859.02	166.57
859.195	10.92
859.369	21.16
859.543	80.55
859.718	25.26
859.892	-32.08
860.066	53.93
860.241	-58.71
860.415	-15.7
860.589	41.64
860.763	92.84
860.938	60.07
861.112	-13.65
861.286	-3.41
861.46	15.02
861.634	6.83
861.808	101.03
861.982	8.87
862.157	72.36
862.331	70.31
862.505	6.83
862.679	60.07
862.853	64.17
863.027	76.46
863.201	27.31
863.375	88.75
863.549	2.73
863.722	-25.94
863.896	37.55
864.07	70.31
864.244	80.55
864.418	60.07
864.592	-15.7
864.766	88.75
864.939	88.75
865.113	10.92
865.287	72.36
865.461	-7.51
865.634	49.83
865.808	2.73
865.982	51.88
866.156	-7.51
866.329	62.12
866.503	-44.37
866.676	62.12
866.85	70.31
867.024	2.73
867.197	25.26
867.371	25.26
867.544	68.27
867.718	78.51
867.891	60.07
868.065	29.35
868.238	49.83
868.412	23.21
868.585	10.92
868.759	12.97
868.932	62.12
869.105	39.59
869.279	-30.04
869.452	-36.18
869.625	53.93
869.799	-44.37
869.972	-23.89
870.145	68.27
870.319	8.87
870.492	8.87
870.665	-71
870.838	29.35
871.011	-42.32
871.185	39.59
871.358	-7.51
871.531	49.83
871.704	55.98
871.877	-15.7
872.05	51.88
872.223	10.92
872.396	-30.04
872.569	64.17
872.742	-30.04
872.915	33.45
873.088	-66.9
873.261	10.92
873.434	43.69
873.607	10.92
873.78	66.22
873.953	-66.9
874.126	37.55
874.299	70.31
874.471	62.12
874.644	43.69
874.817	80.55
874.99	51.88
875.163	-13.65
875.335	101.03
875.508	-3.41
875.681	119.46
875.853	-27.99
876.026	0.68
876.199	15.02
876.371	-23.89
876.544	6.83
876.717	55.98
876.889	94.89
877.062	-19.8
877.234	23.21
877.407	12.97
877.579	0.68
877.752	49.83
877.924	-42.32
878.097	60.07
878.269	-11.61
878.442	2.73
878.614	-5.46
878.786	-42.32
878.959	25.26
879.131	-60.76
879.303	-48.47
879.476	-56.66
879.648	68.27
879.82	-44.37
879.993	41.64
880.165	8.87
880.337	37.55
880.509	58.03
880.681	-3.41
880.854	-42.32
881.026	4.78
881.198	-66.9
881.37	17.07
881.542	25.26
881.714	-36.18
881.886	70.31
882.058	0.68
882.23	47.79
882.402	-17.75
882.574	29.35
882.746	8.87
882.918	8.87
883.09	58.03
883.262	19.11
883.434	-40.28
883.606	-27.99
883.778	33.45
883.95	58.03
884.122	-36.18
884.293	53.93
884.465	98.99
884.637	35.5
884.809	19.11
884.98	74.41
885.152	43.69
885.324	4.78
885.496	-75.09
885.667	82.6
885.839	12.97
886.011	17.07
886.182	-25.94
886.354	62.12
886.525	27.31
886.697	2.73
886.869	21.16
887.04	8.87
887.212	-17.75
887.383	55.98
887.555	15.02
887.726	88.75
887.897	-21.85
888.069	53.93
888.24	47.79
888.412	41.64
888.583	60.07
888.754	35.5
888.926	27.31
889.097	15.02
889.268	25.26
889.44	6.83
889.611	-21.85
889.782	-15.7
889.953	31.4
890.125	25.26
890.296	-50.52
890.467	-19.8
890.638	-23.89
890.809	0.68
890.98	27.31
891.151	6.83
891.323	76.46
891.494	-17.75
891.665	6.83
891.836	66.22
892.007	2.73
892.178	49.83
892.349	37.55
892.52	-17.75
892.691	4.78
892.862	37.55
893.032	-19.8
893.203	-21.85
893.374	37.55
893.545	55.98
893.716	33.45
893.887	66.22
894.057	-71
894.228	-13.65
894.399	-32.08
894.57	-48.47
894.74	33.45
894.911	70.31
895.082	2.73
895.253	62.12
895.423	6.83
895.594	4.78
895.764	-1.37
895.935	-15.7
896.106	-17.75
896.276	15.02
896.447	15.02
896.617	105.13
896.788	-30.04
896.958	27.31
897.129	62.12
897.299	-15.7
897.47	10.92
897.64	-9.56
897.81	53.93
897.981	-19.8
898.151	-7.51
898.322	82.6
898.492	-9.56
898.662	19.11
898.832	-54.61
899.003	27.31
899.173	-50.52
899.343	-36.18
899.513	84.65
