Data from USB4F104151__21__11-05-02-952.txt Node

Date: Wed Mar 12 11:05:02 EDT 2025
User: louis
Spectrometer: USB4F10415
Trigger mode: 4
Integration Time (sec): 2.000000E-2
Scans to average: 1
Electric dark correction enabled: true
Nonlinearity correction enabled: false
Boxcar width: 0
XAxis mode: Wavelengths
Number of Pixels in Spectrum: 3648
>>>>>Begin Spectral Data<<<<<
178.204	-74.92
178.424	-74.92
178.644	-74.92
178.864	-66.73
179.084	-40.11
179.304	-15.53
179.524	-15.53
179.744	0.85
179.964	2.9
180.184	21.33
180.404	-19.63
180.624	70.48
180.844	21.33
181.064	-15.53
181.283	-25.77
181.503	-21.67
181.723	-3.24
181.943	-23.72
182.163	43.86
182.383	-62.63
182.602	37.72
182.822	31.57
183.042	-11.43
183.262	-11.43
183.482	41.81
183.701	19.29
183.921	37.72
184.141	-19.63
184.361	15.19
184.58	37.72
184.8	43.86
185.02	-42.15
185.239	-7.34
185.459	39.76
185.679	13.14
185.898	-27.82
186.118	113.49
186.338	74.58
186.557	-29.87
186.777	2.9
186.997	-13.48
187.216	31.57
187.436	29.52
187.655	60.24
187.875	33.62
188.095	62.29
188.314	33.62
188.534	76.63
188.753	-99.5
188.973	17.24
189.192	23.38
189.412	68.44
189.631	37.72
189.851	29.52
190.07	-1.19
190.29	25.43
190.509	-11.43
190.729	7
190.948	25.43
191.168	4.95
191.387	19.29
191.607	-9.39
191.826	33.62
192.045	-31.91
192.265	0.85
192.484	-23.72
192.704	-42.15
192.923	-15.53
193.142	-1.19
193.362	78.68
193.581	54.1
193.8	19.29
194.02	-21.67
194.239	-21.67
194.458	64.34
194.678	4.95
194.897	56.15
195.116	-27.82
195.335	-27.82
195.555	13.14
195.774	21.33
195.993	50
196.212	19.29
196.432	2.9
196.651	23.38
196.87	64.34
197.089	29.52
197.308	25.43
197.528	39.76
197.747	-42.15
197.966	7
198.185	15.19
198.404	35.67
198.623	-48.3
198.842	11.09
199.062	-36.01
199.281	84.82
199.5	-3.24
199.719	-60.59
199.938	74.58
200.157	-27.82
200.376	33.62
200.595	-31.91
200.814	11.09
201.033	19.29
201.252	117.59
201.471	-1.19
201.69	35.67
201.909	25.43
202.128	4.95
202.347	31.57
202.566	66.39
202.785	-42.15
203.004	-7.34
203.223	62.29
203.442	21.33
203.661	-7.34
203.879	58.2
204.098	-13.48
204.317	17.24
204.536	23.38
204.755	-17.58
204.974	37.72
205.193	29.52
205.411	41.81
205.63	21.33
205.849	-13.48
206.068	-23.72
206.287	-31.91
206.505	39.76
206.724	25.43
206.943	107.35
207.162	45.91
207.381	78.68
207.599	17.24
207.818	70.48
208.037	-27.82
208.255	4.95
208.474	33.62
208.693	-3.24
208.911	9.05
209.13	27.48
209.349	4.95
209.567	-7.34
209.786	21.33
210.005	41.81
210.223	-5.29
210.442	-74.92
210.661	-40.11
210.879	47.96
211.098	4.95
211.316	-7.34
211.535	31.57
211.753	45.91
211.972	-3.24
212.191	11.09
212.409	31.57
212.628	15.19
212.846	64.34
213.065	-7.34
213.283	56.15
213.502	15.19
213.72	33.62
213.938	-15.53
214.157	41.81
214.375	86.87
214.594	52.05
214.812	0.85
215.031	113.49
215.249	-19.63
215.467	97.11
215.686	21.33
215.904	50
216.122	-3.24
216.341	103.25
216.559	25.43
216.778	45.91
216.996	17.24
217.214	29.52
217.432	11.09
217.651	-17.58
217.869	-48.3
218.087	11.09
218.306	35.67
218.524	50
218.742	-81.07
218.96	90.96
219.179	45.91
219.397	-46.25
219.615	93.01
219.833	-17.58
220.051	17.24
220.27	72.53
220.488	29.52
220.706	41.81
220.924	25.43
221.142	29.52
221.36	7
221.578	39.76
221.796	-58.54
222.015	52.05
222.233	31.57
222.451	54.1
222.669	-7.34
222.887	-56.49
223.105	31.57
223.323	25.43
223.541	-54.44
223.759	58.2
223.977	15.19
224.195	88.92
224.413	21.33
224.631	-13.48
224.849	-44.2
225.067	80.72
225.285	58.2
225.503	35.67
225.721	84.82
225.939	50
226.157	-42.15
226.375	41.81
226.592	-15.53
226.81	-15.53
227.028	45.91
227.246	37.72
227.464	50
227.682	21.33
227.9	11.09
228.117	25.43
228.335	-15.53
228.553	64.34
228.771	27.48
228.989	58.2
229.206	25.43
229.424	25.43
229.642	17.24
229.86	-23.72
230.077	-54.44
230.295	33.62
230.513	-5.29
230.731	72.53
230.948	50
231.166	70.48
231.384	47.96
231.601	58.2
231.819	2.9
232.037	-36.01
232.254	17.24
232.472	-21.67
232.689	-23.72
232.907	9.05
233.125	62.29
233.342	0.85
233.56	21.33
233.777	-27.82
233.995	50
234.213	21.33
234.43	60.24
234.648	19.29
234.865	13.14
235.083	33.62
235.3	-15.53
235.518	-25.77
235.735	60.24
235.953	35.67
236.17	21.33
236.388	25.43
236.605	80.72
236.822	29.52
237.04	37.72
237.257	-36.01
237.475	56.15
237.692	13.14
237.909	-3.24
238.127	35.67
238.344	58.2
238.562	74.58
238.779	-3.24
238.996	15.19
239.214	-1.19
239.431	43.86
239.648	123.73
239.865	56.15
240.083	58.2
240.3	56.15
240.517	-17.58
240.735	21.33
240.952	7
241.169	68.44
241.386	39.76
241.603	13.14
241.821	37.72
242.038	41.81
242.255	21.33
242.472	-54.44
242.689	43.86
242.907	-9.39
243.124	33.62
243.341	-48.3
243.558	-60.59
243.775	-50.35
243.992	-48.3
244.209	0.85
244.426	62.29
244.643	41.81
244.86	41.81
245.078	74.58
245.295	25.43
245.512	78.68
245.729	31.57
245.946	68.44
246.163	15.19
246.38	9.05
246.597	56.15
246.814	7
247.031	-23.72
247.248	76.63
247.464	70.48
247.681	54.1
247.898	-11.43
248.115	21.33
248.332	47.96
248.549	88.92
248.766	-3.24
248.983	11.09
249.2	25.43
249.417	54.1
249.633	-3.24
249.85	29.52
250.067	66.39
250.284	88.92
250.501	41.81
250.717	78.68
250.934	-25.77
251.151	-52.39
251.368	-31.91
251.585	72.53
251.801	21.33
252.018	41.81
252.235	66.39
252.451	62.29
252.668	-175.27
252.885	54.1
253.102	13.14
253.318	-33.96
253.535	9.05
253.752	11.09
253.968	-40.11
254.185	23.38
254.401	-17.58
254.618	58.2
254.835	17.24
255.051	148.31
255.268	29.52
255.484	95.06
255.701	-48.3
255.917	29.52
256.134	-1.19
256.351	121.68
256.567	-25.77
256.784	86.87
257	0.85
257.217	11.09
257.433	47.96
257.65	39.76
257.866	76.63
258.082	-25.77
258.299	70.48
258.515	-33.96
258.732	37.72
258.948	95.06
259.165	76.63
259.381	52.05
259.597	-23.72
259.814	17.24
260.03	78.68
260.246	-1.19
260.463	17.24
260.679	31.57
260.895	-83.11
261.112	-52.39
261.328	-60.59
261.544	9.05
261.761	-3.24
261.977	54.1
262.193	15.19
262.409	13.14
262.626	37.72
262.842	78.68
263.058	-48.3
263.274	60.24
263.49	0.85
263.707	72.53
263.923	33.62
264.139	50
264.355	2.9
264.571	37.72
264.787	37.72
265.004	25.43
265.22	0.85
265.436	56.15
265.652	31.57
265.868	62.29
266.084	17.24
266.3	-56.49
266.516	15.19
266.732	35.67
266.948	0.85
267.164	58.2
267.38	99.16
267.596	27.48
267.812	39.76
268.028	-42.15
268.244	47.96
268.46	45.91
268.676	15.19
268.892	86.87
269.108	17.24
269.324	4.95
269.54	-9.39
269.756	47.96
269.972	62.29
270.188	45.91
270.403	-40.11
270.619	-7.34
270.835	15.19
271.051	62.29
271.267	25.43
271.483	107.35
271.698	54.1
271.914	19.29
272.13	11.09
272.346	109.4
272.562	41.81
272.777	90.96
272.993	17.24
273.209	23.38
273.425	50
273.64	54.1
273.856	17.24
274.072	25.43
274.287	27.48
274.503	21.33
274.719	7
274.934	-72.87
275.15	11.09
275.366	-25.77
275.581	90.96
275.797	45.91
276.012	-19.63
276.228	52.05
276.444	13.14
276.659	43.86
276.875	-50.35
277.09	25.43
277.306	45.91
277.521	29.52
277.737	25.43
277.952	-31.91
278.168	-66.73
278.383	29.52
278.599	68.44
278.814	0.85
279.03	-5.29
279.245	54.1
279.461	74.58
279.676	82.77
279.892	-70.83
280.107	88.92
280.322	105.3
280.538	25.43
280.753	-5.29
280.969	35.67
281.184	-15.53
281.399	-1.19
281.615	50
281.83	-13.48
282.045	-68.78
282.26	19.29
282.476	31.57
282.691	35.67
282.906	62.29
283.122	-46.25
283.337	-64.68
283.552	33.62
283.767	-19.63
283.983	78.68
284.198	62.29
284.413	56.15
284.628	31.57
284.843	15.19
285.058	-3.24
285.274	13.14
285.489	-13.48
285.704	66.39
285.919	21.33
286.134	4.95
286.349	-3.24
286.564	-3.24
286.779	58.2
286.995	39.76
287.21	-33.96
287.425	27.48
287.64	82.77
287.855	52.05
288.07	-9.39
288.285	62.29
288.5	80.72
288.715	58.2
288.93	-66.73
289.145	4.95
289.36	54.1
289.575	62.29
289.79	-17.58
290.004	90.96
290.219	17.24
290.434	45.91
290.649	-66.73
290.864	43.86
291.079	-36.01
291.294	39.76
291.509	0.85
291.724	-70.83
291.938	-27.82
292.153	-1.19
292.368	9.05
292.583	60.24
292.798	31.57
293.012	50
293.227	-27.82
293.442	31.57
293.657	58.2
293.871	54.1
294.086	66.39
294.301	54.1
294.516	74.58
294.73	7
294.945	11.09
295.16	-17.58
295.374	31.57
295.589	-52.39
295.804	15.19
296.018	58.2
296.233	62.29
296.447	13.14
296.662	-11.43
296.877	35.67
297.091	-7.34
297.306	21.33
297.52	4.95
297.735	0.85
297.949	56.15
298.164	95.06
298.378	13.14
298.593	-17.58
298.807	56.15
299.022	47.96
299.236	88.92
299.451	9.05
299.665	19.29
299.88	39.76
300.094	31.57
300.309	39.76
300.523	11.09
300.737	39.76
300.952	41.81
301.166	7
301.381	17.24
301.595	35.67
301.809	54.1
302.024	62.29
302.238	33.62
302.452	4.95
302.667	19.29
302.881	105.3
303.095	15.19
303.309	7
303.524	-11.43
303.738	-13.48
303.952	74.58
304.166	76.63
304.381	-52.39
304.595	76.63
304.809	-15.53
305.023	99.16
305.237	47.96
305.452	101.2
305.666	60.24
305.88	58.2
306.094	72.53
306.308	-15.53
306.522	82.77
306.736	54.1
306.95	23.38
307.164	0.85
307.379	-5.29
307.593	7
307.807	27.48
308.021	-25.77
308.235	0.85
308.449	21.33
308.663	7
308.877	103.25
309.091	39.76
309.305	70.48
309.519	41.81
309.733	113.49
309.947	-1.19
310.161	-19.63
310.374	39.76
310.588	80.72
310.802	-7.34
311.016	13.14
311.23	-21.67
311.444	19.29
311.658	-17.58
311.872	74.58
312.085	-1.19
312.299	13.14
312.513	27.48
312.727	56.15
312.941	0.85
313.154	9.05
313.368	17.24
313.582	88.92
313.796	2.9
314.009	35.67
314.223	76.63
314.437	0.85
314.651	-11.43
314.864	9.05
315.078	15.19
315.292	0.85
315.505	58.2
315.719	56.15
315.933	9.05
316.146	-25.77
316.36	13.14
316.573	25.43
316.787	80.72
317.001	0.85
317.214	4.95
317.428	23.38
317.641	58.2
317.855	-38.06
318.068	45.91
318.282	33.62
318.495	43.86
318.709	31.57
318.922	19.29
319.136	27.48
319.349	0.85
319.563	41.81
319.776	74.58
319.99	2.9
320.203	41.81
320.417	76.63
320.63	58.2
320.843	29.52
321.057	11.09
321.27	-1.19
321.483	52.05
321.697	11.09
321.91	-9.39
322.124	35.67
322.337	23.38
322.55	-25.77
322.763	35.67
322.977	72.53
323.19	27.48
323.403	52.05
323.617	54.1
323.83	78.68
324.043	39.76
324.256	93.01
324.469	-25.77
324.683	43.86
324.896	27.48
325.109	-9.39
325.322	19.29
325.535	70.48
325.748	56.15
325.962	80.72
326.175	33.62
326.388	23.38
326.601	7
326.814	33.62
327.027	11.09
327.24	88.92
327.453	54.1
327.666	-31.91
327.879	25.43
328.092	64.34
328.305	70.48
328.518	-72.87
328.731	-5.29
328.944	90.96
329.157	90.96
329.37	35.67
329.583	35.67
329.796	-7.34
330.009	21.33
330.222	56.15
330.435	4.95
330.648	74.58
330.861	19.29
331.073	0.85
331.286	70.48
331.499	47.96
331.712	43.86
331.925	37.72
332.138	50
332.35	76.63
332.563	86.87
332.776	43.86
332.989	52.05
333.202	15.19
333.414	66.39
333.627	60.24
333.84	33.62
334.053	84.82
334.265	74.58
334.478	-23.72
334.691	84.82
334.903	82.77
335.116	11.09
335.329	99.16
335.541	33.62
335.754	66.39
335.966	23.38
336.179	11.09
336.392	25.43
336.604	-3.24
336.817	45.91
337.029	25.43
337.242	9.05
337.454	95.06
337.667	-3.24
337.88	-17.58
338.092	146.26
338.305	86.87
338.517	-48.3
338.729	68.44
338.942	29.52
339.154	86.87
339.367	2.9
339.579	11.09
339.792	45.91
340.004	19.29
340.217	21.33
340.429	62.29
340.641	-29.87
340.854	43.86
341.066	62.29
341.278	50
341.491	23.38
341.703	56.15
341.915	7
342.128	66.39
342.34	39.76
342.552	4.95
342.764	52.05
342.977	33.62
343.189	62.29
343.401	21.33
343.613	4.95
343.826	7
344.038	4.95
344.25	35.67
344.462	41.81
344.674	88.92
344.886	86.87
345.099	47.96
345.311	52.05
345.523	58.2
345.735	37.72
345.947	23.38
346.159	-11.43
346.371	101.2
346.583	0.85
346.795	29.52
347.007	0.85
347.219	35.67
347.431	17.24
347.643	95.06
347.855	72.53
348.067	29.52
348.279	41.81
348.491	17.24
348.703	9.05
348.915	19.29
349.127	9.05
349.339	58.2
349.551	17.24
349.763	64.34
349.975	-31.91
350.187	21.33
350.399	-7.34
350.61	45.91
350.822	47.96
351.034	56.15
351.246	84.82
351.458	21.33
351.669	45.91
351.881	62.29
352.093	56.15
352.305	90.96
352.517	33.62
352.728	43.86
352.94	43.86
353.152	101.2
353.363	25.43
353.575	54.1
353.787	52.05
353.999	13.14
354.21	7
354.422	50
354.633	-15.53
354.845	29.52
355.057	39.76
355.268	2.9
355.48	37.72
355.692	109.4
355.903	68.44
356.115	68.44
356.326	23.38
356.538	0.85
356.749	29.52
356.961	58.2
357.172	82.77
357.384	47.96
357.595	47.96
357.807	52.05
358.018	4.95
358.23	13.14
358.441	123.73
358.653	-25.77
358.864	37.72
359.075	7
359.287	17.24
359.498	50
359.709	-42.15
359.921	76.63
360.132	21.33
360.344	19.29
360.555	-33.96
360.766	80.72
360.977	-25.77
361.189	152.4
361.4	33.62
361.611	2.9
361.823	58.2
362.034	15.19
362.245	9.05
362.456	56.15
362.667	43.86
362.879	13.14
363.09	50
363.301	-17.58
363.512	25.43
363.723	68.44
363.935	66.39
364.146	103.25
364.357	-15.53
364.568	60.24
364.779	47.96
364.99	95.06
365.201	29.52
365.412	95.06
365.623	11.09
365.834	66.39
366.045	7
366.256	93.01
366.467	31.57
366.678	54.1
366.889	64.34
367.1	39.76
367.311	41.81
367.522	35.67
367.733	41.81
367.944	29.52
368.155	-50.35
368.366	50
368.577	54.1
368.788	-3.24
368.999	17.24
369.209	70.48
369.42	86.87
369.631	68.44
369.842	123.73
370.053	78.68
370.264	95.06
370.474	62.29
370.685	27.48
370.896	4.95
371.107	101.2
371.317	7
371.528	78.68
371.739	27.48
371.95	4.95
372.16	9.05
372.371	-5.29
372.582	58.2
372.792	74.58
373.003	103.25
373.214	52.05
373.424	27.48
373.635	-3.24
373.846	133.97
374.056	-17.58
374.267	29.52
374.477	17.24
374.688	19.29
374.898	84.82
375.109	58.2
375.319	66.39
375.53	60.24
375.74	17.24
375.951	50
376.161	37.72
376.372	21.33
376.582	-19.63
376.793	72.53
377.003	7
377.214	66.39
377.424	15.19
377.635	25.43
377.845	17.24
378.055	2.9
378.266	88.92
378.476	-25.77
378.686	-13.48
378.897	103.25
379.107	9.05
379.317	70.48
379.528	25.43
379.738	41.81
379.948	7
380.158	74.58
380.369	54.1
380.579	19.29
380.789	45.91
380.999	15.19
381.21	23.38
381.42	54.1
381.63	27.48
381.84	90.96
382.05	64.34
382.261	4.95
382.471	-19.63
382.681	29.52
382.891	31.57
383.101	52.05
383.311	41.81
383.521	13.14
383.731	2.9
383.941	11.09
384.151	17.24
384.361	9.05
384.571	23.38
384.781	84.82
384.991	115.54
385.201	90.96
385.411	76.63
385.621	21.33
385.831	50
386.041	25.43
386.251	25.43
386.461	78.68
386.671	33.62
386.881	78.68
387.091	99.16
387.301	105.3
387.511	7
387.72	50
387.93	47.96
388.14	29.52
388.35	-13.48
388.56	0.85
388.769	54.1
388.979	54.1
389.189	-29.87
389.399	78.68
389.609	33.62
389.818	37.72
390.028	78.68
390.238	7
390.447	80.72
390.657	76.63
390.867	45.91
391.076	2.9
391.286	54.1
391.496	-3.24
391.705	29.52
391.915	15.19
392.125	29.52
392.334	41.81
392.544	33.62
392.753	50
392.963	93.01
393.172	7
393.382	-1.19
393.591	52.05
393.801	136.02
394.01	52.05
394.22	7
394.429	66.39
394.639	103.25
394.848	82.77
395.058	35.67
395.267	39.76
395.477	78.68
395.686	113.49
395.895	47.96
396.105	76.63
396.314	41.81
396.524	-19.63
396.733	31.57
396.942	121.68
397.152	58.2
397.361	37.72
397.57	125.78
397.78	97.11
397.989	54.1
398.198	101.2
398.407	97.11
398.617	60.24
398.826	176.98
399.035	47.96
399.244	107.35
399.453	111.44
399.663	62.29
399.872	105.3
400.081	62.29
400.29	185.17
400.499	29.52
400.708	131.92
400.917	107.35
401.127	119.64
401.336	113.49
401.545	154.45
401.754	121.68
401.963	148.31
402.172	103.25
402.381	107.35
402.59	164.69
402.799	29.52
403.008	113.49
403.217	80.72
403.426	125.78
403.635	117.59
403.844	62.29
404.053	136.02
404.262	29.52
404.471	191.31
404.68	123.73
404.888	74.58
405.097	131.92
405.306	164.69
405.515	76.63
405.724	121.68
405.933	150.36
406.142	105.3
406.35	199.51
406.559	146.26
406.768	127.83
406.977	160.59
407.185	209.75
407.394	113.49
407.603	228.18
407.812	222.03
408.02	211.79
408.229	187.22
408.438	176.98
408.646	232.27
408.855	195.41
409.064	267.09
409.272	238.42
409.481	234.32
409.69	267.09
409.898	246.61
410.107	246.61
410.315	308.05
410.524	293.71
410.733	299.86
410.941	281.43
411.15	353.1
411.358	355.15
411.567	303.95
411.775	367.44
411.984	445.26
412.192	236.37
412.401	432.97
412.609	369.49
412.818	432.97
413.026	373.58
413.234	475.98
413.443	432.97
413.651	410.45
413.86	467.79
414.068	484.17
414.276	588.62
414.485	484.17
414.693	469.84
414.901	641.87
415.11	656.2
415.318	574.28
415.526	660.3
415.734	637.77
415.943	658.25
416.151	676.68
416.359	750.41
416.567	873.29
416.776	803.66
416.984	809.8
417.192	803.66
417.4	850.76
417.608	856.9
417.817	904.01
418.025	922.44
418.233	1049.41
418.441	1030.98
418.649	1069.89
418.857	1194.82
419.065	1141.57
419.273	1151.81
419.481	1260.35
419.689	1182.53
419.897	1282.88
420.105	1362.75
420.313	1395.52
420.521	1383.23
420.729	1389.38
420.937	1530.69
421.145	1520.45
421.353	1692.48
421.561	1631.04
421.769	1688.38
421.977	1788.73
422.185	1737.53
422.393	1962.81
422.601	2011.96
422.809	1971
423.017	2005.81
423.224	2079.54
423.432	2083.64
423.64	2265.91
423.848	2433.84
424.056	2331.44
424.263	2503.47
424.471	2503.47
424.679	2644.78
424.887	2663.21
425.094	2732.84
425.302	2878.25
425.51	2915.11
425.718	3072.81
425.925	3138.34
426.133	3052.33
426.341	3287.84
426.548	3539.74
426.756	3412.77
426.964	3547.94
427.171	3711.77
427.379	3799.84
427.586	3873.56
427.794	3963.67
428.001	4201.24
428.209	4354.83
428.417	4150.04
428.624	4561.68
428.832	4551.44
429.039	4623.12
429.247	4475.67
429.454	4924.17
429.662	5323.52
429.869	5012.23
430.076	5411.59
430.284	5262.09
430.491	5448.45
430.699	5739.26
430.906	5616.38
431.114	5761.79
431.321	6058.74
431.528	6175.48
431.736	6550.26
431.943	6675.18
432.15	6484.72
432.358	6634.22
432.565	7037.67
432.772	6992.62
432.979	7588.58
433.187	7324.39
433.394	7590.63
433.601	8219.35
433.808	8049.37
434.016	8147.67
434.223	8282.84
434.43	8956.62
434.637	8768.21
434.844	9192.14
435.052	9366.21
435.259	9382.6
435.466	9384.65
435.673	9220.81
435.88	9956.03
436.087	10586.8
436.294	10556.08
436.501	10156.73
436.708	10650.29
436.915	10937.01
437.122	11387.56
437.329	11223.72
437.537	11600.55
437.743	11956.89
437.95	11809.44
438.157	12559
438.364	12884.62
438.571	12804.75
438.778	12798.61
438.985	13961.86
439.192	13261.45
439.399	14056.06
439.606	13683.33
439.813	14418.55
440.02	15301.23
440.227	14834.29
440.433	14787.19
440.64	15223.41
440.847	15305.32
441.054	15725.16
441.261	16677.46
441.467	16454.23
441.674	16970.32
441.881	17631.82
442.088	17379.92
442.294	17121.87
442.501	17750.6
442.708	18113.09
442.914	18782.77
443.121	19360.3
443.328	19018.29
443.534	20599.32
443.741	19886.63
443.948	19268.14
444.154	21142.03
444.361	20806.17
444.568	20994.58
444.774	21064.21
444.981	21230.1
445.187	22178.31
445.394	23056.89
445.6	22184.45
445.807	24857.05
446.013	23665.13
446.22	23882.22
446.426	25131.48
446.633	25330.13
446.839	25995.72
447.046	24830.43
447.252	26436.03
447.459	26429.89
447.665	26014.15
447.871	27158.97
448.078	28512.67
448.284	27109.82
448.491	27922.86
448.697	29094.3
448.903	29675.92
449.11	29426.07
449.316	28926.36
449.522	29235.61
449.728	30271.88
449.935	30402.95
450.141	30425.48
450.347	31263.1
450.553	29948.3
450.76	30101.9
450.966	31115.64
451.172	30873.98
451.378	31576.44
451.584	31259
451.791	31922.54
451.997	31627.63
452.203	32369
452.409	31969.65
452.615	31725.94
452.821	30656.9
453.027	30189.96
453.233	31701.36
453.44	30534.02
453.646	30636.42
453.852	30824.83
454.058	31787.38
454.264	30290.31
454.47	30769.54
454.676	30044.55
454.882	31140.22
455.088	28240.29
455.294	28854.69
455.5	29477.27
455.705	29911.44
455.911	28365.22
456.117	27468.21
456.323	27091.38
456.529	25805.26
456.735	26716.61
456.941	26284.48
457.147	25600.46
457.352	24869.34
457.558	24715.74
457.764	24429.02
457.97	24089.06
458.176	23581.17
458.381	23902.7
458.587	21985.8
458.793	22405.63
458.999	21559.82
459.204	22862.33
459.41	22022.66
459.616	20720.15
459.821	20584.99
460.027	20726.3
460.233	20128.29
460.438	19233.33
460.644	19307.05
460.85	18600.51
461.055	18483.77
461.261	18377.28
461.466	16661.08
461.672	16073.31
461.878	17435.21
462.083	16144.99
462.289	15940.19
462.494	16024.16
462.7	15112.81
462.905	14625.4
463.111	15213.17
463.316	15387.24
463.522	14928.5
463.727	15293.04
463.932	15219.31
464.138	14707.32
464.343	14619.25
464.549	14568.06
464.754	15051.38
464.959	14971.5
465.165	14815.86
465.37	14310.01
465.575	13841.03
465.781	14523
465.986	14482.04
466.191	13998.72
466.397	13595.27
466.602	13187.72
466.807	13298.31
467.012	13288.07
467.218	13326.99
467.423	13521.54
467.628	13427.34
467.833	13929.09
468.038	13238.92
468.244	12712.6
468.449	13558.41
468.654	13097.61
468.859	12944.02
469.064	12571.29
469.269	12364.44
469.474	12616.34
469.679	12718.74
469.885	12378.78
470.09	12487.32
470.295	12382.87
470.5	12184.22
470.705	11997.85
470.91	11805.35
471.115	11680.42
471.32	11776.67
471.525	12141.21
471.73	11639.46
471.935	11637.41
472.139	11405.99
472.344	11440.81
472.549	11066.03
472.754	11154.09
472.959	10894
473.164	10646.19
473.369	10547.89
473.574	10595
473.778	10693.3
473.983	10666.67
474.188	10740.4
474.393	10203.83
474.598	10093.24
474.802	10121.91
475.007	9958.08
475.212	10101.44
475.417	9525.96
475.621	9626.31
475.826	9663.17
476.031	9480.9
476.235	9425.61
476.44	9364.17
476.645	9290.44
476.849	9450.18
477.054	9282.25
477.259	9044.68
477.463	9120.46
477.668	8794.83
477.872	8907.47
478.077	8630.99
478.282	8676.05
478.486	8442.58
478.691	8676.05
478.895	8368.85
479.1	8506.07
479.304	8428.24
479.509	8022.75
479.713	8198.87
479.918	8174.3
480.122	7983.84
480.326	8102.62
480.531	8245.98
480.735	8055.51
480.94	8004.32
481.144	8258.26
481.348	7906.01
481.553	8098.52
481.757	7688.93
481.961	7899.87
482.166	7871.2
482.37	7783.13
482.574	7785.18
482.778	7844.57
482.983	7981.79
483.187	7906.01
483.391	7840.48
483.595	7895.77
483.8	7625.44
484.004	7846.62
484.208	8020.7
484.412	7703.26
484.616	7867.1
484.821	7930.59
485.025	7791.33
485.229	7750.37
485.433	7690.98
485.637	7906.01
485.841	7908.06
486.045	7727.84
486.249	7844.57
486.453	7604.96
486.657	7809.76
486.861	7854.81
487.065	7531.23
487.269	7641.82
487.473	7623.39
487.677	7793.37
487.881	7828.19
488.085	7774.94
488.289	7809.76
488.493	7697.12
488.697	8125.15
488.901	7797.47
489.105	8065.75
489.309	7762.65
489.512	7844.57
489.716	7944.92
489.92	7973.6
490.124	7750.37
490.328	8094.43
490.531	7830.24
490.735	7942.88
490.939	8098.52
491.143	7946.97
491.346	8147.67
491.55	8254.17
491.754	8123.1
491.958	8280.79
492.161	8166.1
492.365	8327.89
492.569	8016.6
492.772	8309.46
492.976	8264.41
493.18	8448.72
493.383	8559.31
493.587	8571.6
493.79	8401.62
493.994	8514.26
494.197	8630.99
494.401	8651.47
494.605	8659.67
494.808	8807.12
495.012	8954.57
495.215	9026.25
495.419	8903.37
495.622	8772.3
495.825	9192.14
496.029	9132.75
496.232	9267.91
496.436	9446.09
496.639	9499.33
496.843	9505.48
497.046	9642.69
497.249	9755.33
497.453	9609.92
497.656	9853.63
497.859	10066.62
498.063	10056.38
498.266	10240.7
498.469	10076.86
498.673	10267.32
498.876	10523.32
499.079	10777.26
499.282	10347.19
499.485	10810.03
499.689	10762.93
499.892	11027.12
500.095	11063.98
500.298	11653.8
500.501	11213.48
500.705	11563.68
500.908	11661.99
501.111	11881.12
501.314	11975.33
501.517	12004
501.72	12051.1
501.923	12096.16
502.126	12612.24
502.329	12581.53
502.532	12569.24
502.735	12839.57
502.938	12993.17
503.141	13083.28
503.344	13343.37
503.547	13245.07
503.75	13562.5
503.953	13742.72
504.156	13947.52
504.359	13996.67
504.562	13853.31
504.765	14267
504.968	14402.17
505.17	14568.06
505.373	14754.42
505.576	14885.49
505.779	15069.81
505.982	15223.41
506.185	15647.33
506.387	15417.96
506.59	15676.01
506.793	15819.36
506.996	15948.39
507.198	16360.03
507.401	16200.29
507.604	16503.39
507.807	16597.59
508.009	16642.65
508.212	17033.81
508.415	17226.32
508.617	17361.48
508.82	17799.75
509.022	17283.66
509.225	18045.51
509.428	18274.88
509.63	18362.94
509.833	18291.26
510.035	18811.45
510.238	18768.44
510.44	18788.92
510.643	19294.77
510.845	19368.49
511.048	19042.87
511.25	19550.76
511.453	19690.02
511.655	20433.44
511.858	20062.76
512.06	20359.71
512.262	20541.98
512.465	20595.23
512.667	20980.25
512.87	21223.95
513.072	21312.02
513.274	21606.92
513.477	21961.22
513.679	21998.09
513.881	22393.34
514.084	22536.7
514.286	22479.36
514.488	22835.7
514.69	23355.89
514.893	23446
515.095	22954.49
515.297	23927.27
515.499	24089.06
515.701	24136.17
515.904	24105.45
516.106	24895.96
516.308	24941.02
516.51	24943.06
516.712	25291.22
516.914	25723.34
517.116	25506.26
517.318	25844.17
517.52	26102.22
517.722	26632.64
517.925	26728.89
518.127	27058.62
518.329	27007.42
518.531	26859.96
518.733	27507.12
518.935	27732.4
519.136	27390.39
519.338	28096.94
519.54	28336.55
519.742	28795.29
519.944	28856.73
520.146	29096.35
520.348	29366.68
520.55	29555.09
520.752	29784.46
520.954	30189.96
521.155	29997.45
521.357	30757.25
521.559	30325.13
521.761	31261.05
521.963	31299.96
522.164	30962.04
522.366	31680.88
522.568	31451.51
522.77	31814
522.971	32723.3
523.173	31971.69
523.375	32610.66
523.576	32575.84
523.778	32751.97
523.98	33401.18
524.181	33407.32
524.383	33313.11
524.584	34040.14
524.786	33415.51
524.988	33759.57
525.189	34142.54
525.391	34562.37
525.592	34662.72
525.794	34679.11
525.995	34077.01
526.197	34699.59
526.398	34916.67
526.6	35070.27
526.801	34990.4
527.003	35498.3
527.204	35379.51
527.406	35883.31
527.607	35957.04
527.808	36124.97
528.01	35178.81
528.211	35985.71
528.412	36587.82
528.614	36419.88
528.815	36319.53
529.016	36886.82
529.218	36432.17
529.419	36591.91
529.62	36331.82
529.822	36591.91
530.023	36761.89
530.224	36651.3
530.425	37075.23
530.626	36763.94
530.828	36747.56
531.029	37361.95
531.23	36966.69
531.431	36892.96
531.632	37185.82
531.833	37591.32
532.035	37591.32
532.236	37290.27
532.437	37468.44
532.638	37484.83
532.839	37628.18
533.04	37380.38
533.241	37308.7
533.442	38056.21
533.643	37706.01
533.844	37824.79
534.045	37886.23
534.246	37570.84
534.447	38609.16
534.648	37804.31
534.849	37882.13
535.05	37869.84
535.251	37763.35
535.451	37783.83
535.652	38050.06
535.853	37867.8
536.054	38158.61
536.255	38412.56
536.456	37589.27
536.657	38404.36
536.857	37466.39
537.058	37849.36
537.259	38041.87
537.46	38267.15
537.66	37986.58
537.861	37792.02
538.062	37800.21
538.263	38154.51
538.463	37703.96
538.664	38105.36
538.865	37957.91
539.065	38476.04
539.266	37767.45
539.466	38517
539.667	37282.08
539.868	38537.48
540.068	37970.19
540.269	37675.29
540.469	38080.78
540.67	37644.57
540.87	37841.17
541.071	37697.81
541.271	38107.41
541.472	37669.14
541.672	37755.16
541.873	37556.5
542.073	37392.67
542.274	38230.29
542.474	37779.73
542.675	37792.02
542.875	38029.59
543.075	38158.61
543.276	37183.77
543.476	38099.22
543.676	37589.27
543.877	38228.24
544.077	37861.65
544.277	38033.68
544.478	37742.87
544.678	37943.57
544.878	37359.9
545.078	37824.79
545.279	37521.69
545.479	37667.09
545.679	37521.69
545.879	37529.88
546.079	37583.13
546.28	37421.34
546.48	37179.68
546.68	37611.8
546.88	37622.04
547.08	37552.41
547.28	37695.77
547.48	37091.62
547.68	37454.11
547.88	37478.68
548.081	37710.1
548.281	37581.08
548.481	37511.45
548.681	37685.53
548.881	37327.13
549.081	37435.67
549.28	37482.78
549.48	37589.27
549.68	37400.86
549.88	37800.21
550.08	37161.25
550.28	37632.28
550.48	36993.31
550.68	37576.98
550.88	36821.28
551.08	37050.66
551.279	37312.8
551.479	37132.57
551.679	37583.13
551.879	37112.1
552.079	37384.47
552.278	37097.76
552.478	37290.27
552.678	37474.59
552.878	37482.78
553.077	36809
553.277	36395.31
553.477	37519.64
553.676	36755.75
553.876	36958.5
554.076	37085.47
554.275	36817.19
554.475	36516.14
554.674	37234.97
554.874	36768.04
555.074	36618.53
555.273	37204.25
555.473	36907.3
555.672	36376.87
555.872	36450.6
556.071	36989.22
556.271	36925.73
556.47	36417.83
556.67	36190.51
556.869	36841.76
557.068	36823.33
557.268	36149.55
557.467	36325.68
557.667	36292.91
557.866	36344.11
558.065	36086.06
558.265	35979.57
558.464	35559.73
558.663	36548.9
558.863	35662.13
559.062	36245.8
559.261	35526.97
559.461	36018.48
559.66	35797.3
559.859	35746.1
560.058	35447.1
560.258	35572.02
560.457	35504.44
560.656	35754.29
560.855	35262.78
561.054	35567.93
561.253	35187
561.453	34965.82
561.652	35295.55
561.851	35418.42
562.05	35217.72
562.249	34666.82
562.448	35434.81
562.647	34656.58
562.846	34789.7
563.045	35088.7
563.244	34212.17
563.443	34826.56
563.642	34107.72
563.841	34468.17
564.04	34312.52
564.239	34431.3
564.438	34054.48
564.637	34877.76
564.836	34402.63
565.035	33839.44
565.234	33986.89
565.432	34242.89
565.631	33900.88
565.83	33745.23
566.029	33679.7
566.228	33526.1
566.427	33544.53
566.625	33104.22
566.824	32979.29
567.023	33753.43
567.222	32792.93
567.42	33452.37
567.619	33032.54
567.818	33155.42
568.016	32805.22
568.215	33517.91
568.414	32729.44
568.612	32813.41
568.811	32878.94
569.01	32797.02
569.208	32147.82
569.407	32516.45
569.605	32160.11
569.804	32764.26
570.002	31971.69
570.201	32244.07
570.4	32053.61
570.598	31660.4
570.797	31736.18
570.995	31908.21
571.193	31295.86
571.392	31719.79
571.59	31287.67
571.789	31345.02
571.987	31289.72
572.186	31222.14
572.384	30976.38
572.582	31545.72
572.781	31250.81
572.979	30976.38
573.177	30677.38
573.376	31062.4
573.574	30777.73
573.772	30675.33
573.971	30513.54
574.169	30224.78
574.367	30044.55
574.565	30337.41
574.763	30310.79
574.962	30247.3
575.16	29841.81
575.358	30155.15
575.556	30077.32
575.754	29997.45
575.952	29522.32
576.151	29843.85
576.349	29462.93
576.547	29536.66
576.745	29403.54
576.943	29366.68
577.141	29000.09
577.339	29290.9
577.537	28955.04
577.735	29053.34
577.933	29016.47
578.131	28772.77
578.329	28817.82
578.527	28508.58
578.725	28645.79
578.923	28785.05
579.121	28213.67
579.319	28746.14
579.516	28365.22
579.714	28477.86
579.912	28402.08
580.11	28176.81
580.308	27994.54
580.506	27662.77
580.704	27425.2
580.901	28354.98
581.099	27859.37
581.297	27441.59
581.495	27513.27
581.692	27326.9
581.89	27105.72
582.088	27679.15
582.285	27029.94
582.483	27351.48
582.681	26929.59
582.878	27226.55
583.076	26913.21
583.274	27079.1
583.471	26372.55
583.669	26812.86
583.866	26608.06
584.064	26784.19
584.262	26241.48
584.459	26405.31
584.657	26083.78
584.854	26710.46
585.052	25942.47
585.249	26139.08
585.447	26012.1
585.644	25725.39
585.841	25887.18
586.039	26182.09
586.236	25514.45
586.434	25778.64
586.631	25176.53
586.828	25582.03
587.026	25266.64
587.223	25258.45
587.42	25285.08
587.618	25450.96
587.815	25176.53
588.012	25041.37
588.21	25029.08
588.407	25119.19
588.604	25063.89
588.801	24633.82
588.999	24873.43
589.196	24807.9
589.393	24625.63
589.59	24580.57
589.787	24252.9
589.984	24213.99
590.182	23910.89
590.379	24498.66
590.576	24269.28
590.773	24142.31
590.97	23833.07
591.167	24009.19
591.364	23663.08
591.561	24001
591.758	23874.03
591.955	23519.73
592.152	23798.25
592.349	23370.22
592.546	23673.32
592.743	23278.07
592.94	23083.51
593.137	23128.56
593.334	23370.22
593.531	23099.89
593.727	23161.33
593.924	23284.21
594.121	22698.49
594.318	23120.37
594.515	22462.97
594.712	22923.77
594.908	22389.25
595.105	22440.45
595.302	22229.51
595.499	22536.7
595.696	22039.05
595.892	22489.6
596.089	22575.61
596.286	22430.21
596.482	22364.67
596.679	21920.26
596.876	21926.41
597.072	21860.87
597.269	21899.78
597.466	21545.48
597.662	21408.27
597.859	21469.71
598.055	21811.72
598.252	21271.06
598.448	21529.1
598.645	21334.54
598.841	21301.78
599.038	21142.03
599.234	21219.86
599.431	21119.51
599.627	21051.92
599.824	21002.77
600.02	20879.89
600.217	20994.58
600.413	20779.54
600.609	20693.53
600.806	20728.35
601.002	20664.86
601.198	20447.77
601.395	20533.79
601.591	20310.56
601.787	20292.13
601.984	20156.96
602.18	20541.98
602.376	19993.12
602.572	20036.13
602.769	19937.83
602.965	19843.62
603.161	19989.03
603.357	19817
603.553	19796.52
603.75	19741.22
603.946	19761.7
604.142	19911.21
604.338	19493.42
604.534	19493.42
604.73	19216.94
604.926	18952.76
605.122	19438.12
605.318	19040.82
605.514	18893.37
605.71	19202.61
605.906	19026.48
606.102	19227.18
606.298	18772.53
606.494	18919.99
606.69	18715.19
606.886	18891.32
607.082	18350.65
607.278	18967.09
607.474	18690.62
607.67	18514.49
607.866	18270.78
608.062	18776.63
608.257	18408
608.453	18098.75
608.649	18516.54
608.845	18328.13
609.041	18362.94
609.236	18174.53
609.432	18408
609.628	18278.97
609.824	18061.89
610.019	17844.81
610.215	18055.75
610.411	18244.16
610.606	17871.43
610.802	17658.44
610.998	17973.83
611.193	17949.25
611.389	17758.79
611.584	17719.88
611.78	17646.15
611.976	17691.21
612.171	17726.02
612.367	17558.09
612.562	17488.46
612.758	17236.56
612.953	17388.11
613.149	17691.21
613.344	17185.36
613.539	17543.75
613.735	17283.66
613.93	17470.03
614.126	17259.09
614.321	17539.66
614.517	17269.33
614.712	17326.67
614.907	17187.41
615.103	17209.93
615.298	17068.62
615.493	17369.68
615.688	16849.49
615.884	17076.82
616.079	16724.57
616.274	16892.5
616.47	16783.96
616.665	16824.92
616.86	16921.17
617.055	16597.59
617.25	16433.75
617.445	16667.22
617.641	16122.46
617.836	16659.03
618.031	16478.81
618.226	16564.82
618.421	16421.47
618.616	16521.82
618.811	16181.85
619.006	16476.76
619.201	16083.55
619.396	16235.1
619.591	16042.59
619.786	15999.59
619.981	15762.02
620.176	16122.46
620.371	15786.6
620.566	15848.04
620.761	15897.19
620.956	15573.61
621.151	15379.05
621.346	15630.95
621.541	15231.6
621.735	15635.05
621.93	14951.03
622.125	15112.81
622.32	14822
622.515	15051.38
622.709	14912.11
622.904	14819.96
623.099	14479.99
623.294	14867.06
623.488	14545.53
623.683	14846.58
623.878	14324.35
624.072	14600.82
624.267	14512.76
624.462	14189.18
624.656	14082.69
624.851	14213.76
625.046	14058.11
625.24	13988.48
625.435	14023.3
625.629	13828.74
625.824	13724.29
626.018	13818.5
626.213	13343.37
626.407	13603.46
626.602	13392.52
626.796	13429.38
626.991	13243.02
627.185	13304.46
627.38	13169.29
627.574	13003.41
627.768	12946.06
627.963	12831.38
628.157	12907.15
628.352	12858
628.546	12769.94
628.74	12657.3
628.935	12391.06
629.129	12472.98
629.323	12427.93
629.517	12397.21
629.712	12292.76
629.906	12245.66
630.1	12126.88
630.294	12505.75
630.489	12305.05
630.683	12157.6
630.877	11813.54
631.071	11520.68
631.265	11983.52
631.459	11725.47
631.653	11627.17
631.848	11702.95
632.042	11537.06
632.236	11549.35
632.43	11440.81
632.624	11608.74
632.818	11195.05
633.012	11319.98
633.206	11141.8
633.4	11176.62
633.594	11023.02
633.788	11047.6
633.982	11190.95
634.176	10971.82
634.369	10758.83
634.563	11047.6
634.757	10928.81
634.951	10836.66
635.145	10728.11
635.339	10668.72
635.533	10566.32
635.726	10574.52
635.92	10431.16
636.114	10425.01
636.308	10226.36
636.501	10283.7
636.695	10437.3
636.889	10195.64
637.083	9892.54
637.276	10005.18
637.47	10037.95
637.664	10250.94
637.857	9902.78
638.051	9740.99
638.244	9740.99
638.438	9644.74
638.632	9667.27
638.825	9536.2
639.019	9534.15
639.212	9657.03
639.406	9691.84
639.599	9536.2
639.793	9292.49
639.986	9202.38
640.18	9292.49
640.373	9298.63
640.567	9229
640.76	8944.33
640.954	8970.96
641.147	9046.73
641.34	8895.18
641.534	9011.92
641.727	8934.09
641.92	8858.32
642.114	8504.02
642.307	8583.89
642.5	8827.6
642.694	8577.75
642.887	8549.07
643.08	8710.86
643.273	8506.07
643.467	8274.65
643.66	8260.31
643.853	8456.92
644.046	8180.44
644.239	8180.44
644.432	8215.26
644.626	8217.3
644.819	8200.92
645.012	8139.48
645.205	8198.87
645.398	7971.55
645.591	8016.6
645.784	7881.44
645.977	7713.5
646.17	7912.16
646.363	7779.04
646.556	7791.33
646.749	7688.93
646.942	7801.57
647.135	7623.39
647.328	7502.56
647.521	7494.37
647.714	7463.65
647.907	7520.99
648.099	7529.19
648.292	7381.73
648.485	7377.64
648.678	7332.58
648.871	7213.8
649.064	7297.77
649.256	7119.59
649.449	7101.16
649.642	7086.83
649.835	7199.46
650.027	6990.57
650.22	7060.2
650.413	7117.54
650.605	6970.09
650.798	6968.04
650.991	6806.25
651.183	6890.22
651.376	6800.11
651.568	6869.74
651.761	6814.45
651.954	6791.92
652.146	6742.77
652.339	6576.88
652.531	6630.13
652.724	6662.9
652.916	6273.78
653.109	6386.42
653.301	6484.72
653.494	6468.34
653.686	6370.04
653.879	6427.38
654.071	6277.88
654.263	6345.46
654.456	6157.05
654.648	6314.74
654.84	6042.36
655.033	6247.16
655.225	6025.98
655.417	6040.31
655.61	6193.91
655.802	6087.42
655.994	5937.91
656.186	5849.85
656.379	5903.1
656.571	5899
656.763	5692.16
656.955	5888.76
657.148	5935.87
657.34	5823.23
657.532	5753.6
657.724	5747.45
657.916	5745.41
658.108	5751.55
658.3	5718.78
658.492	5520.13
658.684	5497.6
658.876	5602.05
659.068	5575.42
659.26	5456.64
659.452	5317.38
659.644	5565.18
659.836	5458.69
660.028	5341.96
660.22	5364.48
660.412	5282.56
660.604	5243.65
660.796	5393.16
660.988	5219.08
661.18	5290.76
661.372	5133.06
661.563	5100.3
661.755	5071.62
661.947	5124.87
662.139	4971.27
662.331	4983.56
662.522	5118.73
662.714	4930.31
662.906	5012.23
663.097	4895.5
663.289	4850.44
663.481	4954.89
663.673	4823.82
663.864	4832.01
664.056	4866.83
664.247	4836.11
664.439	4700.94
664.631	4743.95
664.822	4768.52
665.014	4698.89
665.205	4686.61
665.397	4682.51
665.588	4528.91
665.78	4649.74
665.971	4668.17
666.163	4604.69
666.354	4465.43
666.546	4528.91
666.737	4496.14
666.929	4545.3
667.12	4490
667.311	4434.71
667.503	4332.31
667.694	4381.46
667.885	4465.43
668.077	4369.17
668.268	4434.71
668.459	4274.96
668.651	4383.51
668.842	4346.64
669.033	4436.75
669.224	4223.76
669.416	4137.75
669.607	4242.2
669.798	4199.19
669.989	4164.37
670.18	4006.68
670.371	4211.48
670.563	4107.03
670.754	4154.13
670.945	4088.6
671.136	4252.44
671.327	4031.26
671.518	4129.56
671.709	4041.5
671.9	3992.34
672.091	3863.32
672.282	3889.95
672.473	3881.75
672.664	4133.65
672.855	3978.01
673.046	3851.03
673.237	3832.6
673.428	3916.57
673.619	3912.47
673.809	3762.97
674	3740.44
674.191	3873.56
674.382	3746.59
674.573	3752.73
674.764	3797.79
674.954	3851.03
675.145	3638.05
675.336	3865.37
675.527	3722.01
675.717	3730.2
675.908	3619.61
676.099	3775.26
676.289	3742.49
676.48	3549.98
676.671	3660.57
676.861	3644.19
677.052	3599.13
677.243	3697.44
677.433	3699.48
677.624	3689.25
677.814	3554.08
678.005	3652.38
678.195	3584.8
678.386	3484.45
678.576	3500.83
678.767	3564.32
678.957	3588.89
679.148	3601.18
679.338	3535.65
679.529	3443.49
679.719	3373.86
679.909	3597.09
680.1	3447.58
680.29	3461.92
680.481	3498.78
680.671	3435.3
680.861	3410.72
681.052	3504.93
681.242	3468.06
681.432	3382.05
681.622	3347.23
681.813	3400.48
682.003	3429.15
682.193	3289.89
682.383	3359.52
682.573	3435.3
682.764	3320.61
682.954	3478.3
683.144	3326.75
683.334	3371.81
683.524	3351.33
683.714	3369.76
683.904	3408.67
684.094	3365.67
684.284	3310.37
684.474	3273.51
684.664	3201.83
684.854	3322.66
685.044	3275.56
685.234	3162.92
685.424	3191.59
685.614	3158.82
685.804	3109.67
685.994	3203.88
686.184	3228.45
686.374	3203.88
686.564	3130.15
686.753	3076.9
686.943	3169.06
687.133	3078.95
687.323	3154.73
687.513	3062.57
687.702	3111.72
687.892	3054.37
688.082	2964.26
688.272	3011.37
688.461	2904.87
688.651	3046.18
688.841	2855.72
689.03	2966.31
689.22	2857.77
689.41	3035.94
689.599	2868.01
689.789	2790.19
689.979	2999.08
690.168	2900.78
690.358	2767.66
690.547	2859.82
690.737	2857.77
690.926	2888.49
691.116	2841.39
691.305	2771.76
691.495	2853.67
691.684	2751.28
691.874	2857.77
692.063	2718.51
692.252	2888.49
692.442	2814.76
692.631	2816.81
692.82	2814.76
693.01	2712.36
693.199	2677.55
693.388	2784.04
693.578	2741.04
693.767	2722.6
693.956	2593.58
694.146	2671.4
694.335	2630.45
694.524	2753.32
694.713	2714.41
694.902	2781.99
695.092	2614.06
695.281	2659.12
695.47	2601.77
695.659	2511.66
695.848	2624.3
696.037	2593.58
696.226	2622.25
696.415	2685.74
696.604	2644.78
696.793	2493.23
696.982	2556.72
697.171	2577.2
697.36	2609.97
697.549	2466.61
697.738	2540.33
697.927	2487.09
698.116	2485.04
698.305	2548.53
698.494	2702.12
698.683	2636.59
698.872	2577.2
699.061	2595.63
699.25	2419.5
699.438	2573.1
699.627	2630.45
699.816	2470.7
700.005	2538.29
700.193	2532.14
700.382	2472.75
700.571	2507.57
700.76	2491.18
700.948	2528.05
701.137	2507.57
701.326	2560.81
701.514	2511.66
701.703	2517.81
701.892	2515.76
702.08	2544.43
702.269	2374.45
702.457	2501.42
702.646	2577.2
702.834	2470.7
703.023	2468.66
703.212	2501.42
703.4	2499.38
703.589	2482.99
703.777	2546.48
703.965	2523.95
704.154	2499.38
704.342	2331.44
704.531	2538.29
704.719	2429.74
704.907	2618.16
705.096	2429.74
705.284	2597.68
705.472	2509.62
705.661	2376.5
705.849	2491.18
706.037	2372.4
706.226	2482.99
706.414	2573.1
706.602	2501.42
706.79	2536.24
706.979	2532.14
707.167	2495.28
707.355	2353.97
707.543	2474.8
707.731	2579.25
707.919	2495.28
708.107	2433.84
708.296	2431.79
708.484	2423.6
708.672	2536.24
708.86	2456.37
709.048	2487.09
709.236	2480.94
709.424	2519.85
709.612	2562.86
709.8	2487.09
709.988	2407.22
710.176	2399.02
710.364	2378.55
710.551	2415.41
710.739	2405.17
710.927	2540.33
711.115	2396.98
711.303	2411.31
711.491	2542.38
711.679	2341.68
711.866	2368.31
712.054	2454.32
712.242	2409.26
712.43	2505.52
712.617	2345.78
712.805	2419.5
712.993	2417.46
713.181	2362.16
713.368	2388.78
713.556	2448.18
713.744	2394.93
713.931	2362.16
714.119	2380.59
714.306	2493.23
714.494	2368.31
714.682	2356.02
714.869	2329.39
715.057	2368.31
715.244	2222.9
715.432	2431.79
715.619	2417.46
715.807	2425.65
715.994	2396.98
716.182	2446.13
716.369	2360.11
716.556	2331.44
716.744	2329.39
716.931	2351.92
717.119	2396.98
717.306	2413.36
717.493	2368.31
717.681	2442.03
717.868	2482.99
718.055	2362.16
718.242	2351.92
718.43	2349.87
718.617	2345.78
718.804	2345.78
718.991	2374.45
719.179	2384.69
719.366	2364.21
719.553	2286.39
719.74	2224.95
719.927	2356.02
720.114	2343.73
720.301	2267.95
720.488	2263.86
720.676	2325.3
720.863	2331.44
721.05	2394.93
721.237	2378.55
721.424	2308.91
721.611	2343.73
721.798	2241.33
721.985	2274.1
722.172	2288.43
722.358	2116.41
722.545	2296.63
722.732	2274.1
722.919	2310.96
723.106	2247.48
723.293	2276.15
723.48	2364.21
723.667	2372.4
723.853	2315.06
724.04	2306.87
724.227	2276.15
724.414	2376.5
724.6	2257.71
724.787	2280.24
724.974	2290.48
725.161	2304.82
725.347	2247.48
725.534	2349.87
725.72	2310.96
725.907	2265.91
726.094	2282.29
726.28	2136.88
726.467	2382.64
726.653	2282.29
726.84	2302.77
727.027	2329.39
727.213	2255.67
727.4	2196.28
727.586	2308.91
727.773	2263.86
727.959	2315.06
728.145	2265.91
728.332	2194.23
728.518	2204.47
728.705	2358.07
728.891	2274.1
729.077	2198.32
729.264	2145.08
729.45	2132.79
729.636	2370.35
729.823	2237.24
730.009	2251.57
730.195	2153.27
730.382	2267.95
730.568	2239.28
730.754	2159.41
730.94	2249.52
731.126	2227
731.313	2255.67
731.499	2249.52
731.685	2247.48
731.871	2229.04
732.057	2134.84
732.243	2151.22
732.429	2239.28
732.615	2245.43
732.801	2204.47
732.987	2075.45
733.173	2194.23
733.359	2200.37
733.545	2253.62
733.731	2171.7
733.917	2218.8
734.103	2175.8
734.289	2104.12
734.475	2192.18
734.661	2227
734.847	2212.66
735.033	2321.2
735.219	2188.08
735.404	2204.47
735.59	2171.7
735.776	2173.75
735.962	2212.66
736.148	2136.88
736.333	2212.66
736.519	2347.83
736.705	2034.49
736.89	2237.24
737.076	2110.26
737.262	2052.92
737.447	2171.7
737.633	2083.64
737.819	2097.97
738.004	2143.03
738.19	2161.46
738.375	2089.78
738.561	2224.95
738.747	2181.94
738.932	2106.17
739.118	2134.84
739.303	2145.08
739.489	2204.47
739.674	2153.27
739.859	2061.11
740.045	2063.16
740.23	2065.21
740.416	2024.25
740.601	1987.38
740.786	2034.49
740.972	2050.87
741.157	2028.34
741.342	2087.73
741.528	1971
741.713	2011.96
741.898	1995.57
742.084	1880.89
742.269	1919.8
742.454	1993.53
742.639	2022.2
742.824	1960.76
743.01	1948.47
743.195	2007.86
743.38	2038.58
743.565	1938.23
743.75	2081.59
743.935	1907.51
744.12	1897.27
744.305	1999.67
744.49	1784.63
744.675	1911.61
744.86	1835.83
745.045	1880.89
745.23	1895.22
745.415	1805.11
745.6	1977.14
745.785	1934.14
745.97	1938.23
746.155	1897.27
746.34	1743.67
746.525	1727.29
746.71	1819.45
746.895	1764.15
747.079	1737.53
747.264	1723.2
747.449	1807.16
747.634	1778.49
747.819	1669.95
748.003	1590.08
748.188	1737.53
748.373	1678.14
748.557	1682.24
748.742	1731.39
748.927	1641.28
749.111	1628.99
749.296	1682.24
749.481	1667.9
749.665	1688.38
749.85	1565.5
750.034	1637.18
750.219	1557.31
750.404	1495.87
750.588	1583.93
750.773	1528.64
750.957	1590.08
751.141	1467.2
751.326	1471.29
751.51	1579.84
751.695	1499.97
751.879	1463.1
752.064	1551.17
752.248	1463.1
752.432	1512.25
752.617	1444.67
752.801	1553.21
752.985	1528.64
753.17	1438.53
753.354	1416
753.538	1413.95
753.722	1389.38
753.907	1446.72
754.091	1348.42
754.275	1407.81
754.459	1413.95
754.643	1362.75
754.828	1409.86
755.012	1436.48
755.196	1342.27
755.38	1327.94
755.564	1282.88
755.748	1362.75
755.932	1329.99
756.116	1254.21
756.3	1291.07
756.484	1317.7
756.668	1254.21
756.852	1243.97
757.036	1280.83
757.22	1186.63
757.404	1215.3
757.588	1180.48
757.772	1170.24
757.956	1160
758.14	1252.16
758.323	1258.31
758.507	1153.86
758.691	1190.72
758.875	1149.76
759.059	1135.43
759.242	1196.87
759.426	1182.53
759.61	1098.56
759.794	1067.85
759.977	1153.86
760.161	1237.83
760.345	1088.32
760.528	1139.52
760.712	1123.14
760.895	1063.75
761.079	1020.74
761.263	1033.03
761.446	1002.31
761.63	1098.56
761.813	1082.18
761.997	1037.13
762.18	1065.8
762.364	1000.26
762.547	983.88
762.731	1045.32
762.914	1053.51
763.098	1010.5
763.281	1000.26
763.464	1020.74
763.648	1039.17
763.831	1035.08
764.015	1047.37
764.198	1045.32
764.381	963.4
764.564	1002.31
764.748	957.25
764.931	977.73
765.114	1047.37
765.297	977.73
765.481	875.34
765.664	1065.8
765.847	965.45
766.03	942.92
766.213	922.44
766.397	987.97
766.58	975.69
766.763	969.54
766.946	914.25
767.129	940.87
767.312	877.38
767.495	926.54
767.678	820.04
767.861	893.77
768.044	887.62
768.227	951.11
768.41	930.63
768.593	891.72
768.776	826.18
768.959	879.43
769.142	930.63
769.324	926.54
769.507	873.29
769.69	850.76
769.873	738.12
770.056	922.44
770.239	895.82
770.421	801.61
770.604	871.24
770.787	797.51
770.97	854.86
771.152	770.89
771.335	904.01
771.518	836.42
771.7	803.66
771.883	852.81
772.066	834.38
772.248	738.12
772.431	789.32
772.613	854.86
772.796	783.18
772.978	746.31
773.161	815.94
773.343	766.79
773.526	744.27
773.708	828.23
773.891	756.55
774.073	828.23
774.256	707.4
774.438	766.79
774.621	719.69
774.803	752.46
774.985	641.87
775.168	828.23
775.35	738.12
775.532	772.94
775.715	684.87
775.897	594.76
776.079	682.83
776.261	740.17
776.444	697.16
776.626	648.01
776.808	697.16
776.99	691.02
777.173	721.74
777.355	650.06
777.537	682.83
777.719	602.96
777.901	752.46
778.083	596.81
778.265	580.43
778.447	578.38
778.629	727.88
778.811	588.62
778.993	588.62
779.175	633.68
779.357	664.4
779.539	559.95
779.721	676.68
779.903	613.2
780.085	637.77
780.267	592.72
780.449	537.42
780.631	574.28
780.812	557.9
780.994	576.33
781.176	584.52
781.358	527.18
781.54	490.32
781.721	490.32
781.903	535.37
782.085	469.84
782.267	580.43
782.448	496.46
782.63	463.69
782.812	500.56
782.993	473.93
783.175	480.08
783.357	504.65
783.538	488.27
783.72	461.65
783.901	514.89
784.083	527.18
784.264	547.66
784.446	463.69
784.627	486.22
784.809	516.94
784.99	471.89
785.172	473.93
785.353	461.65
785.535	465.74
785.716	453.45
785.897	475.98
786.079	463.69
786.26	406.35
786.441	430.93
786.623	353.1
786.804	400.21
786.985	432.97
787.167	432.97
787.348	394.06
787.529	400.21
787.71	422.73
787.891	465.74
788.073	340.82
788.254	447.31
788.435	494.41
788.616	379.73
788.797	381.78
788.978	389.97
789.159	383.82
789.34	381.78
789.522	322.38
789.703	418.64
789.884	357.2
790.065	379.73
790.246	271.19
790.427	377.68
790.607	367.44
790.788	373.58
790.969	371.54
791.15	344.91
791.331	338.77
791.512	318.29
791.693	361.3
791.874	381.78
792.054	357.2
792.235	338.77
792.416	316.24
792.597	283.47
792.778	373.58
792.958	369.49
793.139	320.34
793.32	322.38
793.5	314.19
793.681	314.19
793.862	394.06
794.042	369.49
794.223	297.81
794.404	312.14
794.584	242.51
794.765	279.38
794.945	338.77
795.126	346.96
795.306	283.47
795.487	291.66
795.667	297.81
795.848	340.82
796.028	303.95
796.209	238.42
796.389	314.19
796.57	213.84
796.75	267.09
796.93	271.19
797.111	217.94
797.291	267.09
797.471	303.95
797.652	209.75
797.832	301.9
798.012	279.38
798.192	242.51
798.373	271.19
798.553	228.18
798.733	303.95
798.913	285.52
799.093	224.08
799.274	236.37
799.454	234.32
799.634	213.84
799.814	262.99
799.994	211.79
800.174	273.23
800.354	142.16
800.534	252.75
800.714	326.48
800.894	271.19
801.074	197.46
801.254	279.38
801.434	314.19
801.614	244.56
801.794	170.83
801.974	627.53
802.154	254.8
802.334	242.51
802.514	240.47
802.693	213.84
802.873	224.08
803.053	262.99
803.233	189.27
803.413	277.33
803.592	203.6
803.772	219.99
803.952	240.47
804.131	144.21
804.311	252.75
804.491	222.03
804.67	250.71
804.85	127.83
805.03	189.27
805.209	183.12
805.389	246.61
805.568	197.46
805.748	215.89
805.928	250.71
806.107	295.76
806.287	207.7
806.466	152.4
806.646	187.22
806.825	183.12
807.004	142.16
807.184	162.64
807.363	201.55
807.543	131.92
807.722	219.99
807.901	193.36
808.081	174.93
808.26	201.55
808.439	215.89
808.619	140.12
808.798	197.46
808.977	172.88
809.156	174.93
809.336	131.92
809.515	156.5
809.694	160.59
809.873	101.2
810.052	189.27
810.231	117.59
810.411	199.51
810.59	140.12
810.769	125.78
810.948	148.31
811.127	103.25
811.306	189.27
811.485	125.78
811.664	205.65
811.843	76.63
812.022	123.73
812.201	37.72
812.38	158.55
812.559	150.36
812.737	115.54
812.916	111.44
813.095	119.64
813.274	172.88
813.453	176.98
813.632	187.22
813.811	138.07
813.989	37.72
814.168	189.27
814.347	154.45
814.526	121.68
814.704	125.78
814.883	113.49
815.062	156.5
815.24	172.88
815.419	146.26
815.598	113.49
815.776	39.76
815.955	123.73
816.133	172.88
816.312	160.59
816.49	70.48
816.669	88.92
816.847	162.64
817.026	95.06
817.204	74.58
817.383	172.88
817.561	58.2
817.74	158.55
817.918	103.25
818.097	228.18
818.275	162.64
818.453	172.88
818.632	148.31
818.81	60.24
818.988	56.15
819.167	88.92
819.345	179.03
819.523	58.2
819.701	93.01
819.879	84.82
820.058	174.93
820.236	113.49
820.414	111.44
820.592	99.16
820.77	131.92
820.948	97.11
821.127	72.53
821.305	99.16
821.483	127.83
821.661	68.44
821.839	107.35
822.017	103.25
822.195	156.5
822.373	107.35
822.551	127.83
822.729	144.21
822.907	84.82
823.085	78.68
823.262	72.53
823.44	148.31
823.618	103.25
823.796	131.92
823.974	136.02
824.152	109.4
824.329	101.2
824.507	127.83
824.685	140.12
824.863	64.34
825.04	50
825.218	125.78
825.396	127.83
825.574	37.72
825.751	107.35
825.929	76.63
826.107	68.44
826.284	82.77
826.462	136.02
826.639	125.78
826.817	68.44
826.994	105.3
827.172	74.58
827.349	129.88
827.527	113.49
827.704	60.24
827.882	78.68
828.059	133.97
828.237	33.62
828.414	82.77
828.591	43.86
828.769	127.83
828.946	35.67
829.124	119.64
829.301	52.05
829.478	93.01
829.655	93.01
829.833	140.12
830.01	35.67
830.187	90.96
830.364	97.11
830.542	66.39
830.719	58.2
830.896	64.34
831.073	47.96
831.25	133.97
831.427	76.63
831.604	58.2
831.782	86.87
831.959	136.02
832.136	35.67
832.313	-5.29
832.49	105.3
832.667	52.05
832.844	101.2
833.021	70.48
833.198	76.63
833.374	43.86
833.551	119.64
833.728	4.95
833.905	35.67
834.082	90.96
834.259	131.92
834.436	86.87
834.612	66.39
834.789	97.11
834.966	23.38
835.143	56.15
835.319	39.76
835.496	29.52
835.673	64.34
835.85	76.63
836.026	21.33
836.203	111.44
836.38	29.52
836.556	76.63
836.733	33.62
836.909	117.59
837.086	80.72
837.262	35.67
837.439	58.2
837.616	72.53
837.792	54.1
837.968	45.91
838.145	37.72
838.321	76.63
838.498	68.44
838.674	107.35
838.851	41.81
839.027	-23.72
839.203	90.96
839.38	93.01
839.556	56.15
839.732	45.91
839.909	37.72
840.085	62.29
840.261	133.97
840.437	136.02
840.614	109.4
840.79	13.14
840.966	88.92
841.142	27.48
841.318	72.53
841.494	39.76
841.671	70.48
841.847	45.91
842.023	23.38
842.199	60.24
842.375	76.63
842.551	45.91
842.727	25.43
842.903	109.4
843.079	4.95
843.255	9.05
843.431	58.2
843.607	58.2
843.783	13.14
843.959	107.35
844.134	11.09
844.31	78.68
844.486	17.24
844.662	97.11
844.838	66.39
845.013	86.87
845.189	58.2
845.365	37.72
845.541	111.44
845.716	7
845.892	52.05
846.068	90.96
846.244	15.19
846.419	74.58
846.595	-21.67
846.77	-27.82
846.946	50
847.122	23.38
847.297	35.67
847.473	101.2
847.648	-29.87
847.824	74.58
847.999	17.24
848.175	33.62
848.35	76.63
848.526	11.09
848.701	66.39
848.876	19.29
849.052	33.62
849.227	37.72
849.403	9.05
849.578	76.63
849.753	45.91
849.929	86.87
850.104	25.43
850.279	29.52
850.454	70.48
850.63	25.43
850.805	58.2
850.98	-81.07
851.155	2.9
851.33	58.2
851.505	82.77
851.681	50
851.856	-25.77
852.031	-44.2
852.206	31.57
852.381	39.76
852.556	80.72
852.731	62.29
852.906	82.77
853.081	43.86
853.256	31.57
853.431	0.85
853.606	15.19
853.781	58.2
853.956	45.91
854.131	-25.77
854.305	-13.48
854.48	88.92
854.655	35.67
854.83	58.2
855.005	-7.34
855.18	90.96
855.354	-5.29
855.529	119.64
855.704	2.9
855.879	70.48
856.053	-7.34
856.228	15.19
856.403	21.33
856.577	35.67
856.752	43.86
856.926	9.05
857.101	90.96
857.276	15.19
857.45	82.77
857.625	95.06
857.799	2.9
857.974	-29.87
858.148	74.58
858.323	60.24
858.497	-17.58
858.672	47.96
858.846	-48.3
859.02	74.58
859.195	39.76
859.369	37.72
859.543	43.86
859.718	9.05
859.892	-25.77
860.066	56.15
860.241	-97.45
860.415	54.1
860.589	-1.19
860.763	-9.39
860.938	33.62
861.112	90.96
861.286	9.05
861.46	39.76
861.634	-19.63
861.808	7
861.982	-76.97
862.157	52.05
862.331	-23.72
862.505	-21.67
862.679	56.15
862.853	-7.34
863.027	-40.11
863.201	121.68
863.375	7
863.549	60.24
863.722	-48.3
863.896	60.24
864.07	-56.49
864.244	-36.01
864.418	-29.87
864.592	-11.43
864.766	54.1
864.939	50
865.113	-33.96
865.287	11.09
865.461	-81.07
865.634	17.24
865.808	47.96
865.982	27.48
866.156	17.24
866.329	-3.24
866.503	0.85
866.676	-15.53
866.85	-9.39
867.024	35.67
867.197	72.53
867.371	4.95
867.544	39.76
867.718	-46.25
867.891	-21.67
868.065	-15.53
868.238	0.85
868.412	41.81
868.585	19.29
868.759	-27.82
868.932	-11.43
869.105	41.81
869.279	15.19
869.452	-3.24
869.625	9.05
869.799	7
869.972	25.43
870.145	15.19
870.319	0.85
870.492	-11.43
870.665	-3.24
870.838	29.52
871.011	-40.11
871.185	56.15
871.358	-11.43
871.531	9.05
871.704	-9.39
871.877	29.52
872.05	-3.24
872.223	-31.91
872.396	-29.87
872.569	-33.96
872.742	54.1
872.915	70.48
873.088	56.15
873.261	0.85
873.434	-11.43
873.607	-46.25
873.78	7
873.953	31.57
874.126	9.05
874.299	21.33
874.471	0.85
874.644	50
874.817	2.9
874.99	74.58
875.163	0.85
875.335	41.81
875.508	27.48
875.681	23.38
875.853	21.33
876.026	39.76
876.199	-3.24
876.371	41.81
876.544	-42.15
876.717	35.67
876.889	29.52
877.062	-23.72
877.234	-60.59
877.407	-5.29
877.579	-1.19
877.752	103.25
877.924	-1.19
878.097	-89.26
878.269	9.05
878.442	62.29
878.614	-25.77
878.786	15.19
878.959	109.4
879.131	41.81
879.303	9.05
879.476	66.39
879.648	50
879.82	25.43
879.993	0.85
880.165	-36.01
880.337	-101.55
880.509	21.33
880.681	45.91
880.854	33.62
881.026	68.44
881.198	47.96
881.37	0.85
881.542	50
881.714	-52.39
881.886	43.86
882.058	15.19
882.23	25.43
882.402	-23.72
882.574	4.95
882.746	-58.54
882.918	95.06
883.09	19.29
883.262	2.9
883.434	33.62
883.606	4.95
883.778	-29.87
883.95	-15.53
884.122	7
884.293	33.62
884.465	56.15
884.637	7
884.809	50
884.98	13.14
885.152	-56.49
885.324	31.57
885.496	-33.96
885.667	62.29
885.839	29.52
886.011	72.53
886.182	27.48
886.354	19.29
886.525	9.05
886.697	-76.97
886.869	27.48
887.04	19.29
887.212	-7.34
887.383	31.57
887.555	7
887.726	70.48
887.897	25.43
888.069	39.76
888.24	50
888.412	-70.83
888.583	33.62
888.754	17.24
888.926	-21.67
889.097	9.05
889.268	37.72
889.44	-7.34
889.611	-99.5
889.782	-3.24
889.953	-52.39
890.125	-29.87
890.296	-46.25
890.467	17.24
890.638	-19.63
890.809	47.96
890.98	13.14
891.151	-36.01
891.323	27.48
891.494	-31.91
891.665	37.72
891.836	19.29
892.007	-15.53
892.178	-11.43
892.349	31.57
892.52	4.95
892.691	-38.06
892.862	0.85
893.032	-11.43
893.203	-3.24
893.374	-5.29
893.545	11.09
893.716	-83.11
893.887	-19.63
894.057	33.62
894.228	-3.24
894.399	0.85
894.57	43.86
894.74	54.1
894.911	25.43
895.082	15.19
895.253	-48.3
895.423	11.09
895.594	35.67
895.764	37.72
895.935	2.9
896.106	56.15
896.276	-36.01
896.447	29.52
896.617	25.43
896.788	33.62
896.958	9.05
897.129	45.91
897.299	-36.01
897.47	4.95
897.64	11.09
897.81	-7.34
897.981	9.05
898.151	-1.19
898.322	88.92
898.492	19.29
898.662	37.72
898.832	66.39
899.003	-9.39
899.173	25.43
899.343	29.52
899.513	-19.63
