Data from USB4F104151__268__11-12-05-466.txt Node

Date: Wed Mar 12 11:12:05 EDT 2025
User: louis
Spectrometer: USB4F10415
Trigger mode: 4
Integration Time (sec): 2.000000E-2
Scans to average: 1
Electric dark correction enabled: true
Nonlinearity correction enabled: false
Boxcar width: 0
XAxis mode: Wavelengths
Number of Pixels in Spectrum: 3648
>>>>>Begin Spectral Data<<<<<
178.204	-56.15
178.424	-56.15
178.644	-56.15
178.864	-76.63
179.084	-111.44
179.304	13.48
179.524	-39.76
179.744	-82.77
179.964	-11.09
180.184	-31.57
180.404	-7
180.624	5.29
180.844	15.53
181.064	7.34
181.283	38.06
181.503	36.01
181.723	56.49
181.943	-31.57
182.163	79.02
182.383	-23.38
182.602	-7
182.822	91.31
183.042	7.34
183.262	-23.38
183.482	-88.92
183.701	1.19
183.921	-0.85
184.141	-21.33
184.361	7.34
184.58	-41.81
184.8	79.02
185.02	40.11
185.239	-11.09
185.459	50.35
185.679	33.96
185.898	-68.44
186.118	38.06
186.338	29.87
186.557	-4.95
186.777	-0.85
186.997	-105.3
187.216	5.29
187.436	-11.09
187.655	56.49
187.875	13.48
188.095	33.96
188.314	33.96
188.534	52.39
188.753	-19.29
188.973	1.19
189.192	9.39
189.412	-4.95
189.631	-56.15
189.851	31.91
190.07	50.35
190.29	-66.39
190.509	-9.05
190.729	-17.24
190.948	48.3
191.168	56.49
191.387	38.06
191.607	-31.57
191.826	-9.05
192.045	-25.43
192.265	31.91
192.484	17.58
192.704	-58.2
192.923	-66.39
193.142	1.19
193.362	21.67
193.581	19.63
193.8	9.39
194.02	13.48
194.239	5.29
194.458	13.48
194.678	-27.48
194.897	27.82
195.116	31.91
195.335	21.67
195.555	50.35
195.774	21.67
195.993	-23.38
196.212	-2.9
196.432	-31.57
196.651	33.96
196.87	-35.67
197.089	74.92
197.308	-0.85
197.528	-0.85
197.747	-45.91
197.966	-19.29
198.185	29.87
198.404	-54.1
198.623	66.73
198.842	56.49
199.062	33.96
199.281	83.11
199.5	1.19
199.719	33.96
199.938	-19.29
200.157	74.92
200.376	11.43
200.595	-80.72
200.814	9.39
201.033	29.87
201.252	17.58
201.471	7.34
201.69	17.58
201.909	3.24
202.128	1.19
202.347	36.01
202.566	-56.15
202.785	13.48
203.004	11.43
203.223	64.68
203.442	9.39
203.661	-66.39
203.879	25.77
204.098	44.2
204.317	-60.24
204.536	42.15
204.755	-19.29
204.974	9.39
205.193	-23.38
205.411	3.24
205.63	36.01
205.849	-41.81
206.068	68.78
206.287	60.59
206.505	54.44
206.724	13.48
206.943	-47.96
207.162	-9.05
207.381	13.48
207.599	85.16
207.818	-15.19
208.037	13.48
208.255	-56.15
208.474	15.53
208.693	21.67
208.911	-17.24
209.13	25.77
209.349	-0.85
209.567	-25.43
209.786	5.29
210.005	-78.68
210.223	-17.24
210.442	-21.33
210.661	-47.96
210.879	29.87
211.098	50.35
211.316	-21.33
211.535	31.91
211.753	-23.38
211.972	-45.91
212.191	-13.14
212.409	-17.24
212.628	17.58
212.846	3.24
213.065	5.29
213.283	38.06
213.502	-45.91
213.72	62.63
213.938	7.34
214.157	50.35
214.375	40.11
214.594	-7
214.812	23.72
215.031	-15.19
215.249	11.43
215.467	5.29
215.686	-37.72
215.904	62.63
216.122	-37.72
216.341	27.82
216.559	-0.85
216.778	42.15
216.996	-23.38
217.214	-31.57
217.432	-35.67
217.651	-43.86
217.869	13.48
218.087	31.91
218.306	31.91
218.524	44.2
218.742	25.77
218.96	-15.19
219.179	38.06
219.397	31.91
219.615	107.69
219.833	119.98
220.051	9.39
220.27	46.25
220.488	15.53
220.706	54.44
220.924	25.77
221.142	-39.76
221.36	-11.09
221.578	-37.72
221.796	31.91
222.015	46.25
222.233	11.43
222.451	-7
222.669	17.58
222.887	68.78
223.105	-17.24
223.323	7.34
223.541	7.34
223.759	-23.38
223.977	-33.62
224.195	50.35
224.413	-9.05
224.631	1.19
224.849	-9.05
225.067	91.31
225.285	-31.57
225.503	-54.1
225.721	-11.09
225.939	46.25
226.157	1.19
226.375	52.39
226.592	-76.63
226.81	-4.95
227.028	40.11
227.246	3.24
227.464	-9.05
227.682	44.2
227.9	29.87
228.117	13.48
228.335	48.3
228.553	66.73
228.771	-47.96
228.989	-47.96
229.206	21.67
229.424	27.82
229.642	54.44
229.86	68.78
230.077	-9.05
230.295	-2.9
230.513	-31.57
230.731	21.67
230.948	89.26
231.166	83.11
231.384	13.48
231.601	-11.09
231.819	-7
232.037	-25.43
232.254	13.48
232.472	23.72
232.689	-4.95
232.907	13.48
233.125	7.34
233.342	-21.33
233.56	-43.86
233.777	7.34
233.995	3.24
234.213	95.4
234.43	-4.95
234.648	48.3
234.865	-74.58
235.083	-0.85
235.3	-0.85
235.518	27.82
235.735	44.2
235.953	87.21
236.17	-9.05
236.388	25.77
236.605	-9.05
236.822	50.35
237.04	33.96
237.257	17.58
237.475	11.43
237.692	11.43
237.909	-47.96
238.127	-13.14
238.344	-21.33
238.562	33.96
238.779	29.87
238.996	19.63
239.214	-41.81
239.431	-25.43
239.648	-39.76
239.865	13.48
240.083	25.77
240.3	13.48
240.517	-13.14
240.735	-37.72
240.952	48.3
241.169	-43.86
241.386	-4.95
241.603	44.2
241.821	-76.63
242.038	76.97
242.255	50.35
242.472	-31.57
242.689	-27.48
242.907	48.3
243.124	21.67
243.341	-19.29
243.558	-52.05
243.775	60.59
243.992	-41.81
244.209	50.35
244.426	9.39
244.643	-4.95
244.86	-9.05
245.078	-68.44
245.295	25.77
245.512	-43.86
245.729	50.35
245.946	52.39
246.163	21.67
246.38	93.35
246.597	46.25
246.814	-11.09
247.031	9.39
247.248	5.29
247.464	-11.09
247.681	-31.57
247.898	56.49
248.115	89.26
248.332	1.19
248.549	64.68
248.766	107.69
248.983	33.96
249.2	-25.43
249.417	1.19
249.633	-60.24
249.85	13.48
250.067	40.11
250.284	7.34
250.501	13.48
250.717	-56.15
250.934	-64.34
251.151	38.06
251.368	7.34
251.585	13.48
251.801	25.77
252.018	13.48
252.235	-15.19
252.451	48.3
252.668	-4.95
252.885	21.67
253.102	50.35
253.318	15.53
253.535	27.82
253.752	72.87
253.968	11.43
254.185	21.67
254.401	11.43
254.618	60.59
254.835	-15.19
255.051	62.63
255.268	-11.09
255.484	15.53
255.701	-43.86
255.917	-19.29
256.134	7.34
256.351	3.24
256.567	19.63
256.784	-15.19
257	-27.48
257.217	9.39
257.433	46.25
257.65	1.19
257.866	-13.14
258.082	64.68
258.299	38.06
258.515	46.25
258.732	-37.72
258.948	-0.85
259.165	-2.9
259.381	25.77
259.597	-60.24
259.814	-23.38
260.03	-15.19
260.246	5.29
260.463	62.63
260.679	-27.48
260.895	7.34
261.112	-29.52
261.328	13.48
261.544	-35.67
261.761	11.43
261.977	-33.62
262.193	52.39
262.409	23.72
262.626	-15.19
262.842	-27.48
263.058	46.25
263.274	13.48
263.49	48.3
263.707	58.54
263.923	52.39
264.139	9.39
264.355	36.01
264.571	56.49
264.787	42.15
265.004	27.82
265.22	9.39
265.436	48.3
265.652	9.39
265.868	68.78
266.084	9.39
266.3	-25.43
266.516	-25.43
266.732	-9.05
266.948	-2.9
267.164	-2.9
267.38	68.78
267.596	46.25
267.812	-15.19
268.028	-21.33
268.244	54.44
268.46	-9.05
268.676	-9.05
268.892	21.67
269.108	-41.81
269.324	-39.76
269.54	1.19
269.756	-4.95
269.972	11.43
270.188	15.53
270.403	15.53
270.619	-9.05
270.835	5.29
271.051	-86.87
271.267	-7
271.483	-4.95
271.698	60.59
271.914	40.11
272.13	5.29
272.346	9.39
272.562	11.43
272.777	36.01
272.993	64.68
273.209	15.53
273.425	1.19
273.64	-4.95
273.856	15.53
274.072	-37.72
274.287	-50
274.503	29.87
274.719	19.63
274.934	-37.72
275.15	-2.9
275.366	7.34
275.581	29.87
275.797	-27.48
276.012	-23.38
276.228	-21.33
276.444	-15.19
276.659	31.91
276.875	-7
277.09	-60.24
277.306	5.29
277.521	48.3
277.737	76.97
277.952	36.01
278.168	13.48
278.383	21.67
278.599	36.01
278.814	3.24
279.03	33.96
279.245	99.5
279.461	-29.52
279.676	23.72
279.892	-31.57
280.107	52.39
280.322	-27.48
280.538	23.72
280.753	-37.72
280.969	-2.9
281.184	33.96
281.399	38.06
281.615	-64.34
281.83	-35.67
282.045	-43.86
282.26	54.44
282.476	-29.52
282.691	-9.05
282.906	25.77
283.122	-4.95
283.337	23.72
283.552	46.25
283.767	-2.9
283.983	76.97
284.198	-31.57
284.413	72.87
284.628	-27.48
284.843	27.82
285.058	9.39
285.274	48.3
285.489	-11.09
285.704	21.67
285.919	-56.15
286.134	-4.95
286.349	-50
286.564	-4.95
286.779	50.35
286.995	27.82
287.21	-11.09
287.425	5.29
287.64	21.67
287.855	-9.05
288.07	-23.38
288.285	46.25
288.5	29.87
288.715	-2.9
288.93	-0.85
289.145	42.15
289.36	-31.57
289.575	44.2
289.79	1.19
290.004	-13.14
290.219	21.67
290.434	-43.86
290.649	91.31
290.864	-0.85
291.079	5.29
291.294	5.29
291.509	-52.05
291.724	17.58
291.938	-41.81
292.153	-41.81
292.368	9.39
292.583	21.67
292.798	15.53
293.012	9.39
293.227	-2.9
293.442	-15.19
293.657	5.29
293.871	50.35
294.086	46.25
294.301	25.77
294.516	68.78
294.73	42.15
294.945	-74.58
295.16	38.06
295.374	-7
295.589	91.31
295.804	-82.77
296.018	-4.95
296.233	13.48
296.447	7.34
296.662	40.11
296.877	33.96
297.091	-56.15
297.306	13.48
297.52	-0.85
297.735	-74.58
297.949	40.11
298.164	27.82
298.378	1.19
298.593	-27.48
298.807	-41.81
299.022	-23.38
299.236	83.11
299.451	52.39
299.665	-37.72
299.88	29.87
300.094	36.01
300.309	-74.58
300.523	-15.19
300.737	9.39
300.952	62.63
301.166	-7
301.381	-21.33
301.595	-7
301.809	-27.48
302.024	-35.67
302.238	-23.38
302.452	3.24
302.667	27.82
302.881	-43.86
303.095	23.72
303.309	76.97
303.524	-4.95
303.738	27.82
303.952	19.63
304.166	64.68
304.381	-72.53
304.595	74.92
304.809	-64.34
305.023	76.97
305.237	19.63
305.452	54.44
305.666	25.77
305.88	60.59
306.094	-2.9
306.308	-41.81
306.522	56.49
306.736	38.06
306.95	42.15
307.164	-29.52
307.379	-23.38
307.593	33.96
307.807	97.45
308.021	38.06
308.235	81.07
308.449	-41.81
308.663	72.87
308.877	70.83
309.091	50.35
309.305	46.25
309.519	-11.09
309.733	76.97
309.947	-7
310.161	-11.09
310.374	-7
310.588	33.96
310.802	17.58
311.016	-25.43
311.23	21.67
311.444	-21.33
311.658	13.48
311.872	46.25
312.085	-66.39
312.299	-37.72
312.513	-7
312.727	103.59
312.941	9.39
313.154	68.78
313.368	27.82
313.582	9.39
313.796	25.77
314.009	46.25
314.223	89.26
314.437	52.39
314.651	36.01
314.864	5.29
315.078	50.35
315.292	62.63
315.505	46.25
315.719	54.44
315.933	-58.2
316.146	9.39
316.36	13.48
316.573	11.43
316.787	11.43
317.001	-21.33
317.214	-15.19
317.428	54.44
317.641	19.63
317.855	-21.33
318.068	31.91
318.282	76.97
318.495	23.72
318.709	-47.96
318.922	-21.33
319.136	-23.38
319.349	54.44
319.563	-52.05
319.776	38.06
319.99	-52.05
320.203	-7
320.417	33.96
320.63	29.87
320.843	81.07
321.057	-21.33
321.27	74.92
321.483	3.24
321.697	-23.38
321.91	-31.57
322.124	-13.14
322.337	-2.9
322.55	83.11
322.763	9.39
322.977	-31.57
323.19	31.91
323.403	21.67
323.617	56.49
323.83	15.53
324.043	-15.19
324.256	-17.24
324.469	9.39
324.683	64.68
324.896	-60.24
325.109	48.3
325.322	-13.14
325.535	5.29
325.748	-7
325.962	-0.85
326.175	74.92
326.388	27.82
326.601	1.19
326.814	13.48
327.027	13.48
327.24	40.11
327.453	-41.81
327.666	48.3
327.879	-29.52
328.092	-47.96
328.305	-39.76
328.518	21.67
328.731	46.25
328.944	-45.91
329.157	101.55
329.37	21.67
329.583	-19.29
329.796	66.73
330.009	5.29
330.222	54.44
330.435	29.87
330.648	21.67
330.861	40.11
331.073	7.34
331.286	74.92
331.499	7.34
331.712	-23.38
331.925	29.87
332.138	-7
332.35	3.24
332.563	17.58
332.776	42.15
332.989	-11.09
333.202	48.3
333.414	-62.29
333.627	9.39
333.84	-47.96
334.053	15.53
334.265	-41.81
334.478	46.25
334.691	66.73
334.903	46.25
335.116	33.96
335.329	13.48
335.541	-58.2
335.754	105.64
335.966	48.3
336.179	13.48
336.392	-2.9
336.604	93.35
336.817	29.87
337.029	136.36
337.242	17.58
337.454	70.83
337.667	38.06
337.88	33.96
338.092	33.96
338.305	-27.48
338.517	21.67
338.729	99.5
338.942	42.15
339.154	-2.9
339.367	46.25
339.579	15.53
339.792	64.68
340.004	58.54
340.217	11.43
340.429	68.78
340.641	62.63
340.854	9.39
341.066	11.43
341.278	-0.85
341.491	87.21
341.703	93.35
341.915	17.58
342.128	68.78
342.34	-58.2
342.552	29.87
342.764	15.53
342.977	62.63
343.189	21.67
343.401	-47.96
343.613	83.11
343.826	-9.05
344.038	48.3
344.25	13.48
344.462	7.34
344.674	60.59
344.886	15.53
345.099	13.48
345.311	19.63
345.523	-2.9
345.735	-17.24
345.947	-15.19
346.159	-54.1
346.371	40.11
346.583	1.19
346.795	7.34
347.007	-17.24
347.219	48.3
347.431	60.59
347.643	68.78
347.855	58.54
348.067	79.02
348.279	-7
348.491	66.73
348.703	38.06
348.915	-56.15
349.127	50.35
349.339	-23.38
349.551	-47.96
349.763	-19.29
349.975	31.91
350.187	46.25
350.399	74.92
350.61	9.39
350.822	-41.81
351.034	19.63
351.246	-70.48
351.458	-15.19
351.669	25.77
351.881	54.44
352.093	27.82
352.305	25.77
352.517	-17.24
352.728	52.39
352.94	58.54
353.152	23.72
353.363	44.2
353.575	40.11
353.787	21.67
353.999	1.19
354.21	-0.85
354.422	-35.67
354.633	23.72
354.845	1.19
355.057	60.59
355.268	-35.67
355.48	17.58
355.692	33.96
355.903	58.54
356.115	17.58
356.326	-7
356.538	42.15
356.749	66.73
356.961	25.77
357.172	46.25
357.384	-50
357.595	46.25
357.807	54.44
358.018	-37.72
358.23	81.07
358.441	31.91
358.653	15.53
358.864	66.73
359.075	11.43
359.287	-43.86
359.498	76.97
359.709	58.54
359.921	-2.9
360.132	25.77
360.344	1.19
360.555	79.02
360.766	7.34
360.977	54.44
361.189	62.63
361.4	-13.14
361.611	38.06
361.823	87.21
362.034	99.5
362.245	9.39
362.456	48.3
362.667	33.96
362.879	-23.38
363.09	13.48
363.301	40.11
363.512	-23.38
363.723	-23.38
363.935	-29.52
364.146	29.87
364.357	5.29
364.568	11.43
364.779	9.39
364.99	97.45
365.201	19.63
365.412	91.31
365.623	1.19
365.834	-25.43
366.045	5.29
366.256	-23.38
366.467	25.77
366.678	58.54
366.889	72.87
367.1	119.98
367.311	-113.49
367.522	19.63
367.733	83.11
367.944	56.49
368.155	-9.05
368.366	-7
368.577	33.96
368.788	52.39
368.999	74.92
369.209	-23.38
369.42	31.91
369.631	81.07
369.842	56.49
370.053	56.49
370.264	7.34
370.474	7.34
370.685	36.01
370.896	-15.19
371.107	29.87
371.317	38.06
371.528	72.87
371.739	21.67
371.95	64.68
372.16	81.07
372.371	33.96
372.582	70.83
372.792	99.5
373.003	36.01
373.214	-25.43
373.424	-11.09
373.635	52.39
373.846	56.49
374.056	5.29
374.267	21.67
374.477	17.58
374.688	-21.33
374.898	44.2
375.109	40.11
375.319	27.82
375.53	40.11
375.74	40.11
375.951	5.29
376.161	79.02
376.372	52.39
376.582	15.53
376.793	68.78
377.003	-35.67
377.214	76.97
377.424	5.29
377.635	48.3
377.845	-25.43
378.055	23.72
378.266	44.2
378.476	46.25
378.686	21.67
378.897	31.91
379.107	3.24
379.317	11.43
379.528	40.11
379.738	124.07
379.948	-4.95
380.158	31.91
380.369	-7
380.579	64.68
380.789	48.3
380.999	97.45
381.21	103.59
381.42	44.2
381.63	9.39
381.84	42.15
382.05	97.45
382.261	79.02
382.471	40.11
382.681	48.3
382.891	40.11
383.101	56.49
383.311	25.77
383.521	60.59
383.731	33.96
383.941	11.43
384.151	-54.1
384.361	66.73
384.571	-9.05
384.781	5.29
384.991	56.49
385.201	95.4
385.411	19.63
385.621	87.21
385.831	17.58
386.041	23.72
386.251	50.35
386.461	97.45
386.671	13.48
386.881	42.15
387.091	111.78
387.301	42.15
387.511	21.67
387.72	1.19
387.93	1.19
388.14	23.72
388.35	25.77
388.56	27.82
388.769	79.02
388.979	-25.43
389.189	-2.9
389.399	87.21
389.609	21.67
389.818	38.06
390.028	19.63
390.238	9.39
390.447	-23.38
390.657	50.35
390.867	46.25
391.076	81.07
391.286	-4.95
391.496	60.59
391.705	50.35
391.915	46.25
392.125	46.25
392.334	36.01
392.544	76.97
392.753	9.39
392.963	15.53
393.172	50.35
393.382	9.39
393.591	111.78
393.801	19.63
394.01	58.54
394.22	-15.19
394.429	109.74
394.639	130.22
394.848	70.83
395.058	72.87
395.267	62.63
395.477	130.22
395.686	83.11
395.895	111.78
396.105	58.54
396.314	13.48
396.524	160.94
396.733	66.73
396.942	-11.09
397.152	62.63
397.361	134.31
397.57	74.92
397.78	21.67
397.989	66.73
398.198	33.96
398.407	7.34
398.617	13.48
398.826	89.26
399.035	15.53
399.244	54.44
399.453	111.78
399.663	17.58
399.872	36.01
400.081	50.35
400.29	128.17
400.499	109.74
400.708	99.5
400.917	15.53
401.127	62.63
401.336	122.02
401.545	148.65
401.754	64.68
401.963	40.11
402.172	13.48
402.381	91.31
402.59	52.39
402.799	46.25
403.008	83.11
403.217	91.31
403.426	132.26
403.635	9.39
403.844	124.07
404.053	85.16
404.262	109.74
404.471	185.51
404.68	107.69
404.888	56.49
405.097	140.46
405.306	142.5
405.515	169.13
405.724	54.44
405.933	124.07
406.142	165.03
406.35	117.93
406.559	134.31
406.768	197.8
406.977	169.13
407.185	134.31
407.394	230.57
407.603	167.08
407.812	271.53
408.02	208.04
408.229	189.61
408.438	197.8
408.646	212.14
408.855	216.23
409.064	208.04
409.272	253.09
409.481	236.71
409.69	275.62
409.898	144.55
410.107	226.47
410.315	337.06
410.524	269.48
410.733	316.58
410.941	240.81
411.15	341.16
411.358	238.76
411.567	332.97
411.775	332.97
411.984	363.69
412.192	412.84
412.401	302.25
412.609	392.36
412.818	406.69
413.026	455.84
413.234	447.65
413.443	408.74
413.651	482.47
413.86	427.17
414.068	588.96
414.276	554.15
414.485	457.89
414.693	509.09
414.901	545.95
415.11	562.34
415.318	533.67
415.526	591.01
415.734	648.35
415.943	732.32
416.151	758.94
416.359	634.02
416.567	705.7
416.776	754.85
416.984	801.95
417.192	869.53
417.4	844.96
417.608	949.4
417.817	920.73
418.025	912.54
418.233	953.5
418.441	955.55
418.649	984.22
418.857	1059.99
419.065	1092.76
419.273	1008.8
419.481	1211.54
419.689	1160.34
419.897	1260.7
420.105	1293.46
420.313	1440.92
420.521	1346.71
420.729	1438.87
420.937	1422.48
421.145	1533.08
421.353	1578.13
421.561	1643.67
421.769	1860.75
421.977	1703.06
422.185	1631.38
422.393	1830.03
422.601	1918.09
422.809	1967.24
423.017	1926.29
423.224	2030.73
423.432	2153.61
423.64	2221.19
423.848	2229.38
424.056	2253.96
424.263	2389.13
424.471	2473.09
424.679	2534.53
424.887	2700.42
425.094	2724.99
425.302	2761.86
425.51	2806.91
425.718	2976.89
425.925	3005.56
426.133	3087.48
426.341	3136.63
426.548	3308.66
426.756	3339.38
426.964	3320.95
427.171	3601.52
427.379	3681.39
427.586	3826.8
427.794	3812.46
428.001	4076.65
428.209	4285.55
428.417	4160.62
428.624	4408.42
428.832	4492.39
429.039	4308.07
429.247	4330.6
429.454	4779.11
429.662	5188.7
429.869	4893.79
430.076	5282.91
430.284	4998.24
430.491	5227.61
430.699	5477.46
430.906	5602.39
431.114	5690.45
431.321	5809.23
431.528	6014.03
431.736	6431.82
431.943	6556.74
432.15	6405.19
432.358	6476.87
432.565	6761.54
432.772	6753.35
432.979	7169.09
433.187	7488.57
433.394	7408.7
433.601	7885.87
433.808	7861.3
434.016	7617.59
434.223	8195.12
434.43	8768.55
434.637	8463.4
434.844	8952.87
435.052	9223.2
435.259	9112.61
435.466	9057.31
435.673	9083.94
435.88	9645.08
436.087	10044.43
436.294	10398.73
436.501	9837.59
436.708	10173.46
436.915	10365.96
437.122	10976.26
437.329	10914.82
437.537	11389.95
437.743	11557.88
437.95	11387.9
438.157	12166.13
438.364	12485.61
438.571	12280.82
438.778	12387.31
438.985	13523.93
439.192	12989.41
439.399	13437.92
439.606	13153.25
439.813	13779.93
440.02	14646.22
440.227	14535.63
440.433	14439.37
440.64	14762.95
440.847	14644.17
441.054	15090.63
441.261	15852.47
441.467	15840.18
441.674	16141.24
441.881	16384.94
442.088	16784.3
442.294	16386.99
442.501	17089.45
442.708	17304.48
442.914	18193.3
443.121	18686.86
443.328	18160.53
443.534	19467.14
443.741	18881.42
443.948	18641.81
444.154	20110.2
444.361	19770.24
444.568	20130.68
444.774	20249.46
444.981	20415.35
445.187	21056.36
445.394	21568.35
445.6	21465.96
445.807	23583.55
446.013	22659.92
446.22	22985.55
446.426	23810.88
446.633	24136.51
446.839	24720.18
447.046	23677.76
447.252	25275.18
447.459	25488.17
447.665	24967.98
447.871	26061.6
448.078	27073.29
448.284	25891.62
448.491	26585.88
448.697	27872
448.903	28080.89
449.11	28103.42
449.316	27640.58
449.522	28033.79
449.728	28936.95
449.935	29346.54
450.141	29127.41
450.347	29833.96
450.553	29154.03
450.76	29373.16
450.966	30327.52
451.172	30065.38
451.378	30411.48
451.584	29893.35
451.791	30898.9
451.997	30466.78
452.203	30853.84
452.409	31034.07
452.615	31001.3
452.821	29461.23
453.027	29786.85
453.233	31183.57
453.44	29774.56
453.646	30065.38
453.852	30114.53
454.058	30466.78
454.264	29616.87
454.47	30380.76
454.676	29733.6
454.882	30409.43
455.088	28414.71
455.294	28054.27
455.5	28365.56
455.705	28793.59
455.911	28099.33
456.117	27542.28
456.323	27065.1
456.529	25445.16
456.735	26481.43
456.941	25668.39
457.147	25840.42
457.352	24656.69
457.558	24513.33
457.764	24619.83
457.97	24093.5
458.176	23350.09
458.381	23319.37
458.587	22467.41
458.793	22389.59
458.999	21062.51
459.204	22436.69
459.41	21943.13
459.616	20388.72
459.821	20667.25
460.027	20706.16
460.233	20089.72
460.438	18975.63
460.644	19434.37
460.85	18283.41
461.055	18015.13
461.261	18082.71
461.466	16745.39
461.672	16239.54
461.878	17408.93
462.083	16337.84
462.289	16075.7
462.494	15836.09
462.7	15207.36
462.905	14734.28
463.111	15076.29
463.316	15489.98
463.522	14709.71
463.727	15006.66
463.932	14916.55
464.138	15051.72
464.343	14879.69
464.549	14351.31
464.754	15027.14
464.959	14674.89
465.165	14527.44
465.37	14171.09
465.575	13917.14
465.781	14314.45
465.986	14435.28
466.191	13673.43
466.397	13552.6
466.602	12866.53
466.807	13458.4
467.012	13155.3
467.218	13061.09
467.423	13300.7
467.628	13204.45
467.833	13984.73
468.038	13075.43
468.244	12948.45
468.449	13573.08
468.654	13183.97
468.859	12815.34
469.064	12817.38
469.269	12428.27
469.474	12538.86
469.679	12618.73
469.885	12350.45
470.09	12415.98
470.295	12153.84
470.5	12143.6
470.705	12141.55
470.91	11817.97
471.115	11770.87
471.32	12088.31
471.525	11684.86
471.73	11566.07
471.935	11621.37
472.139	11252.73
472.344	11422.72
472.549	11236.35
472.754	11189.25
472.959	10886.15
473.164	10652.68
473.369	10595.34
473.574	10808.33
473.778	10570.76
473.983	10652.68
474.188	10783.75
474.393	10091.54
474.598	10359.82
474.802	10077.2
475.007	9841.68
475.212	9974.8
475.417	9409.56
475.621	9729.05
475.826	9669.66
476.031	9483.29
476.235	9356.32
476.44	9380.89
476.645	9378.84
476.849	9376.8
477.054	9110.56
477.259	9104.42
477.463	9215.01
477.668	8770.6
477.872	8979.49
478.077	8670.25
478.282	8535.08
478.486	8383.53
478.691	8406.06
478.895	8352.81
479.1	8326.19
479.304	8512.55
479.509	8260.65
479.713	8479.79
479.918	8064.05
480.122	7894.07
480.326	8076.34
480.531	8006.7
480.735	8109.1
480.94	7916.59
481.144	8184.88
481.348	7803.96
481.553	7881.78
481.757	7668.79
481.961	7867.44
482.166	7904.31
482.37	7717.94
482.574	7558.2
482.778	7701.56
482.983	8105.01
483.187	7824.44
483.391	7840.82
483.595	7722.04
483.8	7586.87
484.004	7857.2
484.208	7887.92
484.412	7748.66
484.616	7717.94
484.821	7871.54
485.025	7578.68
485.229	7760.95
485.433	7586.87
485.637	7689.27
485.841	7523.38
486.045	7691.32
486.249	7785.52
486.453	7832.63
486.657	7656.5
486.861	7732.28
487.065	7722.04
487.269	7652.41
487.473	7418.94
487.677	7760.95
487.881	7740.47
488.085	7648.31
488.289	7771.19
488.493	7806
488.697	7742.52
488.901	7932.98
489.105	7763
489.309	7775.28
489.512	7740.47
489.716	7812.15
489.92	7705.65
490.124	7736.37
490.328	7828.53
490.531	7828.53
490.735	7963.7
490.939	8078.38
491.143	7797.81
491.346	7965.75
491.55	7986.22
491.754	8000.56
491.958	8113.2
492.161	8043.57
492.365	8186.93
492.569	8309.8
492.772	8211.5
492.976	8240.17
493.18	8502.31
493.383	8475.69
493.587	8430.63
493.79	8483.88
493.994	8176.69
494.197	8557.61
494.401	8584.23
494.605	8598.57
494.808	8754.21
495.012	8719.4
495.215	8952.87
495.419	8913.95
495.622	8709.16
495.825	8946.72
496.029	8903.71
496.232	9088.03
496.436	9161.76
496.639	9542.68
496.843	9155.61
497.046	9360.41
497.249	9479.19
497.453	9667.61
497.656	9751.57
497.859	9657.37
498.063	9991.19
498.266	9905.17
498.469	10038.29
498.673	10058.77
498.876	10380.3
499.079	10443.79
499.282	10189.84
499.485	10648.58
499.689	10761.22
499.892	10793.99
500.095	10845.19
500.298	11299.84
500.501	11127.81
500.705	11265.02
500.908	11455.48
501.111	11660.28
501.314	11545.59
501.517	11756.54
501.72	11897.85
501.923	11791.35
502.126	12176.37
502.329	12119.03
502.532	12252.14
502.735	12518.38
502.938	12657.64
503.141	12551.15
503.344	12786.66
503.547	13057
503.75	13153.25
503.953	13515.74
504.156	13497.31
504.359	13464.54
504.562	13593.56
504.765	13898.71
504.968	14070.74
505.17	14101.46
505.373	14318.54
505.576	14603.21
505.779	14654.41
505.982	14599.12
506.185	14980.04
506.387	14803.91
506.59	14904.26
506.793	15231.94
506.996	15240.13
507.198	15891.38
507.401	15946.68
507.604	15979.45
507.807	16192.44
508.009	16235.44
508.212	16409.52
508.415	16249.78
508.617	17064.87
508.82	17181.6
509.022	16999.34
509.225	17347.49
509.428	17271.72
509.63	17666.97
509.833	17871.77
510.035	18078.61
510.238	18121.62
510.44	18058.14
510.643	18449.3
510.845	18555.79
511.048	18676.62
511.25	18703.25
511.453	19043.21
511.655	19665.79
511.858	19360.64
512.06	19348.36
512.262	19790.72
512.465	19954.55
512.667	20024.19
512.87	20484.98
513.072	20614
513.274	20720.49
513.477	21105.51
513.679	21195.62
513.881	21379.94
514.084	21547.87
514.286	21379.94
514.488	21468
514.69	22371.16
514.893	22227.8
515.095	22504.28
515.297	22487.89
515.499	22350.68
515.701	23001.93
515.904	23614.27
516.106	23360.33
516.308	23376.71
516.51	24230.71
516.712	23855.93
516.914	24126.27
517.116	24611.64
517.318	24681.27
517.52	24496.95
517.722	24656.69
517.925	25363.24
518.127	25396.01
518.329	25625.38
518.531	25393.96
518.733	25914.14
518.935	26483.48
519.136	26034.97
519.338	26772.24
519.54	26704.66
519.742	27089.68
519.944	26970.9
520.146	27554.57
520.348	27847.43
520.55	27616.01
520.752	27839.23
520.954	28611.32
521.155	28515.06
521.357	28789.49
521.559	28936.95
521.761	29405.93
521.963	29367.02
522.164	29139.69
522.366	29629.16
522.568	29721.32
522.77	29756.13
522.971	30329.56
523.173	30376.67
523.375	30522.07
523.576	30593.75
523.778	30866.13
523.98	31111.89
524.181	31136.46
524.383	31408.84
524.584	31689.42
524.786	31515.34
524.988	31351.5
525.189	31969.99
525.391	31777.48
525.592	32275.13
525.794	32426.68
525.995	32393.92
526.197	32656.06
526.398	32520.89
526.6	32766.65
526.801	32881.33
527.003	33063.6
527.204	33194.67
527.406	33505.96
527.607	33469.1
527.808	33510.06
528.01	33086.13
528.211	33356.46
528.412	34087.59
528.614	33729.19
528.815	33933.99
529.016	34468.51
529.218	33837.73
529.419	34157.22
529.62	34216.61
529.822	34280.1
530.023	34255.52
530.224	34429.6
530.425	34337.44
530.626	34001.57
530.828	34501.28
531.029	35070.61
531.23	34364.06
531.431	34542.24
531.632	34525.85
531.833	34806.42
532.035	35177.11
532.236	35058.32
532.437	34781.85
532.638	34943.64
532.839	34878.1
533.04	35222.16
533.241	35197.59
533.442	35420.81
533.643	35289.74
533.844	35056.28
534.045	35580.56
534.246	35099.28
534.447	35216.02
534.648	35119.76
534.849	35388.05
535.05	35125.91
535.251	35302.03
535.451	35072.66
535.652	35338.9
535.853	35459.73
536.054	35125.91
536.255	35478.16
536.456	35367.57
536.657	35695.24
536.857	35295.89
537.058	35357.33
537.259	35396.24
537.46	35519.12
537.66	35478.16
537.861	35345.04
538.062	35183.25
538.263	35709.58
538.463	35082.9
538.664	35279.5
538.865	35910.28
539.065	35478.16
539.266	35007.12
539.466	35803.78
539.667	34970.26
539.868	35789.45
540.068	35142.29
540.269	35379.85
540.469	35541.64
540.67	35130
540.87	35437.2
541.071	34937.49
541.271	35787.4
541.472	35566.22
541.672	35183.25
541.873	35119.76
542.073	35101.33
542.274	35725.96
542.474	35109.52
542.675	34853.53
542.875	35564.17
543.075	34896.53
543.276	34736.79
543.476	35451.53
543.676	35154.58
543.877	35283.6
544.077	35097.24
544.277	35113.62
544.478	35025.56
544.678	35535.5
544.878	35140.24
545.078	35232.4
545.279	34994.84
545.479	34933.4
545.679	35451.53
545.879	34968.21
546.079	34880.15
546.28	34540.19
546.48	34695.83
546.68	35207.83
546.88	35007.12
547.08	35287.7
547.28	35246.74
547.48	35009.17
547.68	34878.1
547.88	34738.84
548.081	35138.19
548.281	35209.87
548.481	34960.02
548.681	35211.92
548.881	34851.48
549.081	34704.03
549.28	34261.66
549.48	34904.73
549.68	34663.07
549.88	34949.78
550.08	34644.63
550.28	35043.99
550.48	34781.85
550.68	34966.17
550.88	34810.52
551.08	34507.42
551.279	34847.38
551.479	34566.81
551.679	34706.07
551.879	34644.63
552.079	35037.84
552.278	34691.74
552.478	34933.4
552.678	34869.91
552.878	34243.23
553.077	34544.28
553.277	34263.71
553.477	34679.45
553.676	34198.18
553.876	34228.9
554.076	34654.87
554.275	34450.08
554.475	34407.07
554.674	34548.38
554.874	34589.34
555.074	34437.79
555.273	34562.72
555.473	34669.21
555.672	33991.33
555.872	33847.97
556.071	34243.23
556.271	34405.02
556.47	33999.52
556.67	33987.24
556.869	33927.84
557.068	33847.97
557.268	33917.61
557.467	33890.98
557.667	33739.43
557.866	33749.67
558.065	33780.39
558.265	33624.75
558.464	33526.44
558.663	33925.8
558.863	33432.24
559.062	34077.35
559.261	32920.24
559.461	33807.01
559.66	32905.91
559.859	33424.04
560.058	33092.27
560.258	33591.98
560.457	32688.82
560.656	33151.66
560.855	32774.84
561.054	33131.19
561.253	32742.07
561.453	33491.63
561.652	32950.96
561.851	33045.17
562.05	32938.68
562.249	32766.65
562.448	33116.85
562.647	32873.14
562.846	32709.3
563.045	32377.53
563.244	31947.46
563.443	32791.22
563.642	32088.77
563.841	32709.3
564.04	32031.43
564.239	32436.92
564.438	31863.49
564.637	32297.66
564.836	31906.5
565.035	31771.33
565.234	32258.75
565.432	31548.11
565.631	30993.11
565.83	31924.93
566.029	31498.95
566.228	31597.26
566.427	31075.02
566.625	31294.16
566.824	31263.44
567.023	31556.3
567.222	30874.32
567.42	31228.62
567.619	30890.71
567.818	30755.54
568.016	30669.53
568.215	30939.86
568.414	30733.01
568.612	31179.47
568.811	30593.75
569.01	31034.07
569.208	30229.21
569.407	30442.2
569.605	30294.75
569.804	30687.96
570.002	30110.43
570.201	30106.34
570.4	30057.18
570.598	29754.08
570.797	29846.24
570.995	30214.88
571.193	29659.88
571.392	29903.59
571.59	29514.47
571.789	29850.34
571.987	29479.66
572.186	29510.38
572.384	29276.91
572.582	29455.08
572.781	29412.07
572.979	28865.27
573.177	29297.39
573.376	29043.44
573.574	28750.58
573.772	28953.33
573.971	28703.48
574.169	28885.75
574.367	28609.27
574.565	28482.3
574.763	28275.45
574.962	28437.24
575.16	28144.38
575.358	28388.09
575.556	27962.11
575.754	28492.54
575.952	27783.94
576.151	28187.39
576.349	27769.6
576.547	27675.4
576.745	28107.52
576.943	27947.78
577.141	27783.94
577.339	28052.22
577.537	27593.48
577.735	27497.22
577.933	27224.84
578.131	27177.74
578.329	27063.05
578.527	27265.8
578.725	26934.03
578.923	27175.69
579.121	26794.77
579.319	26911.5
579.516	26839.83
579.714	26931.98
579.912	26768.15
580.11	26741.52
580.308	26458.9
580.506	26598.16
580.704	26364.7
580.901	26549.01
581.099	26362.65
581.297	26213.15
581.495	25951.01
581.692	26065.69
581.89	25971.49
582.088	26250.01
582.285	25781.03
582.483	25951.01
582.681	25834.27
582.878	25692.96
583.076	25656.1
583.274	25862.94
583.471	25189.16
583.669	25332.52
583.866	25402.15
584.064	25484.07
584.262	25379.62
584.459	25469.73
584.657	24955.69
584.854	25162.54
585.052	24707.89
585.249	24937.26
585.447	25088.81
585.644	24603.44
585.841	24832.82
586.039	25066.28
586.236	24437.56
586.434	24572.72
586.631	24316.73
586.828	24484.66
587.026	24648.5
587.223	24437.56
587.42	24181.56
587.618	24290.1
587.815	24118.07
588.012	23976.76
588.21	23925.57
588.407	24081.21
588.604	23831.36
588.801	23548.74
588.999	23638.85
589.196	23507.78
589.393	23640.9
589.59	23544.64
589.787	23282.5
589.984	23454.53
590.182	23114.57
590.379	23378.76
590.576	22973.26
590.773	23104.33
590.97	22770.51
591.167	23290.7
591.364	22856.53
591.561	23071.56
591.758	22418.26
591.955	22686.54
592.152	22629.2
592.349	22502.23
592.546	22498.13
592.743	22322.01
592.94	22256.47
593.137	22195.03
593.334	22268.76
593.531	22106.97
593.727	21984.09
593.924	21853.02
594.121	21930.84
594.318	22088.54
594.515	21580.64
594.712	21912.41
594.908	21594.98
595.105	21855.07
595.302	21521.25
595.499	21662.56
595.696	21771.1
595.892	21257.06
596.089	21535.59
596.286	21601.12
596.482	21191.53
596.679	21195.62
596.876	21187.43
597.072	21062.51
597.269	21109.61
597.466	21142.38
597.662	21058.41
597.859	20962.15
598.055	21111.66
598.252	20704.11
598.448	20536.18
598.645	20566.9
598.841	20323.19
599.038	20556.66
599.234	20409.2
599.431	20228.98
599.627	20269.94
599.824	20335.48
600.02	20179.83
600.217	20046.71
600.413	20147.06
600.609	19979.13
600.806	19917.69
601.002	20196.21
601.198	19796.86
601.395	19770.24
601.591	19504
601.787	19792.76
601.984	19184.52
602.18	19692.41
602.376	19209.09
602.572	19374.98
602.769	19278.72
602.965	19043.21
603.161	19344.26
603.357	19372.93
603.553	18916.23
603.75	19061.64
603.946	19045.26
604.142	19024.78
604.338	18697.1
604.534	19172.23
604.73	18746.25
604.926	18776.97
605.122	18400.15
605.318	18420.63
605.514	18160.53
605.71	18465.68
605.906	18500.5
606.102	18508.69
606.298	18443.15
606.494	18047.9
606.69	18322.32
606.886	18353.04
607.082	17931.16
607.278	18244.5
607.474	18058.14
607.67	17900.44
607.866	17607.58
608.062	18049.94
608.257	18080.66
608.453	17875.87
608.649	18006.94
608.845	17802.14
609.041	17871.77
609.236	17984.41
609.432	17650.59
609.628	17834.91
609.824	17537.95
610.019	17308.58
610.215	17474.46
610.411	17355.68
610.606	17286.05
610.802	17435.55
610.998	17292.19
611.193	17290.15
611.389	17273.76
611.584	17355.68
611.78	17066.92
611.976	17312.67
612.171	17017.77
612.367	17140.65
612.562	17126.31
612.758	17017.77
612.953	16849.83
613.149	17116.07
613.344	16528.3
613.539	16948.14
613.735	16800.68
613.93	16950.18
614.126	16823.21
614.321	17126.31
614.517	16759.72
614.712	16753.58
614.907	16765.87
615.103	16663.47
615.298	16769.96
615.493	16573.36
615.688	16425.9
615.884	16898.98
616.079	16274.35
616.274	16516.01
616.47	16403.38
616.665	16249.78
616.86	16227.25
617.055	16255.92
617.25	16343.99
617.445	16446.38
617.641	16126.9
617.836	16397.23
618.031	16053.17
618.226	16159.67
618.421	16026.55
618.616	15961.02
618.811	15545.28
619.006	16128.95
619.201	15709.11
619.396	15875
619.591	15621.05
619.786	15797.18
619.981	15317.95
620.176	15504.32
620.371	15475.65
620.566	15453.12
620.761	15100.87
620.956	15231.94
621.151	15139.78
621.346	15074.24
621.541	14916.55
621.735	15117.25
621.93	14980.04
622.125	15031.24
622.32	14752.71
622.515	14773.19
622.709	14621.64
622.904	14525.39
623.099	14574.54
623.294	14357.46
623.488	14238.67
623.683	14552.01
623.878	14001.11
624.072	14373.84
624.267	14035.92
624.462	14044.12
624.656	13788.12
624.851	14044.12
625.046	13593.56
625.24	13786.07
625.435	13718.49
625.629	13562.84
625.824	13519.84
626.018	13679.58
626.213	13188.07
626.407	13327.33
626.602	13124.58
626.796	13177.83
626.991	13329.38
627.185	12979.17
627.38	12907.49
627.574	12839.91
627.768	12864.49
627.963	12735.46
628.157	12637.16
628.352	12657.64
628.546	12420.08
628.74	12409.84
628.935	12356.59
629.129	12313.58
629.323	12289.01
629.517	12069.87
629.712	12014.58
629.906	12100.59
630.1	11899.89
630.294	11848.69
630.489	11744.25
630.683	11801.59
630.877	11797.49
631.071	11781.11
631.265	11625.47
631.459	11774.97
631.653	11410.43
631.848	11432.96
632.042	11314.17
632.236	11490.3
632.43	11219.97
632.624	11166.72
632.818	11037.7
633.012	11105.28
633.206	11066.37
633.4	11060.23
633.594	10869.76
633.788	10847.24
633.982	11043.84
634.176	10644.49
634.369	10685.45
634.563	10654.73
634.757	10552.33
634.951	10443.79
635.145	10357.77
635.339	10488.84
635.533	10361.87
635.726	10359.82
635.92	10271.76
636.114	10159.12
636.308	10075.15
636.501	10030.1
636.695	9894.93
636.889	9929.75
637.083	10124.3
637.276	9860.12
637.47	9901.08
637.664	9786.39
637.857	9921.56
638.051	9927.7
638.244	9458.71
638.438	9569.3
638.632	9557.02
638.825	9399.32
639.019	9475.1
639.212	9528.35
639.406	9313.31
639.599	9229.34
639.793	9350.17
639.986	9100.32
640.18	9135.14
640.373	8991.78
640.567	8893.47
640.76	9172
640.954	8993.83
641.147	8995.87
641.34	8721.45
641.534	8842.28
641.727	8885.28
641.92	8795.17
642.114	8539.18
642.307	8709.16
642.5	8582.18
642.694	8506.41
642.887	8326.19
643.08	8475.69
643.273	8213.55
643.467	8492.07
643.66	8258.6
643.853	8158.25
644.046	8094.77
644.239	8219.69
644.432	8078.38
644.626	8086.58
644.819	8072.24
645.012	7955.51
645.205	8268.84
645.398	8051.76
645.591	7746.61
645.784	7855.15
645.977	7814.2
646.17	7949.36
646.363	7523.38
646.556	7617.59
646.749	7666.74
646.942	7726.13
647.135	7779.38
647.328	7599.16
647.521	7478.33
647.714	7347.26
647.907	7490.62
648.099	7300.16
648.292	7343.16
648.485	7242.81
648.678	7341.11
648.871	7189.56
649.064	7273.53
649.256	7234.62
649.449	7119.93
649.642	7423.03
649.835	7058.49
650.027	6890.56
650.22	6892.61
650.413	6976.58
650.605	6835.27
650.798	6751.3
650.991	6765.64
651.183	6734.92
651.376	6661.19
651.568	6685.76
651.761	6669.38
651.954	6712.39
652.146	6564.93
652.339	6519.88
652.531	6640.71
652.724	6446.15
652.916	6485.06
653.109	6388.81
653.301	6499.4
653.494	6399.05
653.686	6249.55
653.879	6497.35
654.071	6233.16
654.263	6229.07
654.456	6177.87
654.648	6112.33
654.84	6181.96
655.033	5962.83
655.225	6024.27
655.417	6036.56
655.61	6057.04
655.802	5991.5
655.994	5981.26
656.186	5923.92
656.379	5921.87
656.571	5874.77
656.763	5915.73
656.955	5694.55
657.148	5817.43
657.34	5919.82
657.532	5680.21
657.724	5686.36
657.916	5674.07
658.108	5573.72
658.3	5543
658.492	5499.99
658.684	5409.88
658.876	5420.12
659.068	5487.7
659.26	5450.84
659.452	5284.95
659.644	5385.3
659.836	5200.99
660.028	5383.26
660.22	5330.01
660.412	5256.28
660.604	5289.05
660.796	5334.11
660.988	5074.01
661.18	5063.77
661.372	5123.16
661.563	5170.27
661.755	4992.09
661.947	4979.81
662.139	5119.07
662.331	5024.86
662.522	4985.95
662.714	4949.09
662.906	4926.56
663.097	4758.63
663.289	4957.28
663.481	4848.74
663.673	4906.08
663.864	4914.27
664.056	4779.11
664.247	4666.47
664.439	4748.39
664.631	4600.93
664.822	4775.01
665.014	4615.27
665.205	4725.86
665.397	4584.55
665.588	4744.29
665.78	4600.93
665.971	4539.49
666.163	4539.49
666.354	4592.74
666.546	4586.6
666.737	4519.01
666.929	4545.64
667.12	4334.7
667.311	4334.7
667.503	4285.55
667.694	4275.31
667.885	4238.44
668.077	4240.49
668.268	4392.04
668.459	4203.63
668.651	4314.22
668.842	4258.92
669.033	4220.01
669.224	4238.44
669.416	4125.8
669.607	4021.36
669.798	4189.29
669.989	4021.36
670.18	4099.18
670.371	4007.02
670.563	4011.12
670.754	4041.84
670.945	4093.04
671.136	4039.79
671.327	4109.42
671.518	4015.21
671.709	4027.5
671.9	3957.87
672.091	3890.29
672.282	3933.29
672.473	3830.9
672.664	3802.22
672.855	3853.42
673.046	3908.72
673.237	3744.88
673.428	3767.41
673.619	3769.46
673.809	3847.28
674	3796.08
674.191	3720.31
674.382	3759.22
674.573	3644.53
674.764	3775.6
674.954	3753.07
675.145	3597.43
675.336	3660.91
675.527	3748.98
675.717	3755.12
675.908	3579
676.099	3662.96
676.289	3634.29
676.48	3507.32
676.671	3566.71
676.861	3527.8
677.052	3585.14
677.243	3499.13
677.433	3478.65
677.624	3552.37
677.814	3372.15
678.005	3488.89
678.195	3366.01
678.386	3486.84
678.576	3355.77
678.767	3486.84
678.957	3572.85
679.148	3552.37
679.338	3339.38
679.529	3359.86
679.719	3314.81
679.909	3458.17
680.1	3279.99
680.29	3400.82
680.481	3331.19
680.671	3431.54
680.861	3241.08
681.052	3298.42
681.242	3259.51
681.432	3302.52
681.622	3222.65
681.813	3243.13
682.003	3224.7
682.193	3337.34
682.383	3230.84
682.573	3226.75
682.764	3290.23
682.954	3179.64
683.144	3112.06
683.334	3296.38
683.524	3191.93
683.714	3263.61
683.904	3169.4
684.094	3126.39
684.284	3171.45
684.474	3056.76
684.664	3171.45
684.854	3204.22
685.044	3130.49
685.234	3013.76
685.424	3052.67
685.614	2991.23
685.804	3126.39
685.994	2956.41
686.184	3081.34
686.374	3155.07
686.564	2847.87
686.753	2851.97
686.943	3071.1
687.133	2851.97
687.323	3046.52
687.513	2958.46
687.702	2882.69
687.892	2937.98
688.082	2919.55
688.272	2808.96
688.461	2880.64
688.651	2825.34
688.841	2765.95
689.03	2864.25
689.22	2778.24
689.41	2866.3
689.599	2802.82
689.789	2876.54
689.979	2792.58
690.168	2782.34
690.358	2712.71
690.547	2798.72
690.737	2751.62
690.926	2753.66
691.116	2831.49
691.305	2815.1
691.495	2745.47
691.684	2659.46
691.874	2634.88
692.063	2573.44
692.252	2595.97
692.442	2573.44
692.631	2557.06
692.82	2641.03
693.01	2587.78
693.199	2507.91
693.388	2466.95
693.578	2505.86
693.767	2634.88
693.956	2495.62
694.146	2532.48
694.335	2604.16
694.524	2587.78
694.713	2499.72
694.902	2544.77
695.092	2415.75
695.281	2434.18
695.47	2546.82
695.659	2552.96
695.848	2544.77
696.037	2372.74
696.226	2497.67
696.415	2428.04
696.604	2376.84
696.793	2512
696.982	2311.3
697.171	2548.87
697.36	2368.65
697.549	2354.31
697.738	2405.51
697.927	2382.98
698.116	2436.23
698.305	2387.08
698.494	2389.13
698.683	2276.49
698.872	2397.32
699.061	2368.65
699.25	2352.26
699.438	2452.61
699.627	2335.88
699.816	2262.15
700.005	2280.58
700.193	2393.22
700.382	2260.1
700.571	2409.61
700.76	2282.63
700.948	2241.67
701.137	2344.07
701.326	2309.26
701.514	2303.11
701.703	2417.8
701.892	2372.74
702.08	2348.17
702.269	2344.07
702.457	2294.92
702.646	2425.99
702.834	2313.35
703.023	2354.31
703.212	2284.68
703.4	2307.21
703.589	2327.69
703.777	2337.93
703.965	2200.71
704.154	2356.36
704.342	2348.17
704.531	2280.58
704.719	2213
704.907	2290.82
705.096	2262.15
705.284	2342.02
705.472	2294.92
705.661	2385.03
705.849	2333.83
706.037	2311.3
706.226	2286.73
706.414	2256.01
706.602	2213
706.79	2258.06
706.979	2233.48
707.167	2210.95
707.355	2167.95
707.543	2239.62
707.731	2280.58
707.919	2239.62
708.107	2155.66
708.296	2110.6
708.484	2296.97
708.672	2165.9
708.86	2313.35
709.048	2284.68
709.236	2333.83
709.424	2286.73
709.612	2270.34
709.8	2235.53
709.988	2155.66
710.176	2356.36
710.364	2258.06
710.551	2270.34
710.739	2120.84
710.927	2253.96
711.115	2223.24
711.303	2243.72
711.491	2190.47
711.679	2225.29
711.866	2243.72
712.054	2200.71
712.242	2143.37
712.43	2331.78
712.617	2010.25
712.805	2174.09
712.993	2288.78
713.181	2210.95
713.368	2221.19
713.556	2204.81
713.744	2165.9
713.931	2251.91
714.119	2135.18
714.306	2200.71
714.494	2276.49
714.682	2137.23
714.869	2184.33
715.057	2184.33
715.244	2010.25
715.432	2245.77
715.619	2172.04
715.807	2137.23
715.994	2122.89
716.182	2188.43
716.369	2278.54
716.556	2208.9
716.744	2122.89
716.931	2118.79
717.119	2221.19
717.306	2083.98
717.493	2157.71
717.681	2110.6
717.868	2176.14
718.055	2141.32
718.242	2247.82
718.43	2163.85
718.617	2143.37
718.804	2135.18
718.991	2184.33
719.179	2237.58
719.366	2135.18
719.553	2131.08
719.74	2112.65
719.927	2114.7
720.114	2192.52
720.301	2217.1
720.488	2026.64
720.676	2229.38
720.863	2204.81
721.05	2030.73
721.237	2114.7
721.424	2057.36
721.611	2174.09
721.798	2102.41
721.985	2104.46
722.172	1975.44
722.358	2071.69
722.545	2153.61
722.732	2149.51
722.919	2182.28
723.106	2174.09
723.293	2090.12
723.48	2112.65
723.667	2071.69
723.853	2067.6
724.04	2153.61
724.227	2165.9
724.414	2116.75
724.6	2094.22
724.787	2098.31
724.974	2057.36
725.161	2141.32
725.347	1889.42
725.534	2077.83
725.72	2086.03
725.907	2116.75
726.094	2081.93
726.28	2122.89
726.467	2137.23
726.653	2131.08
726.84	2098.31
727.027	2155.66
727.213	2018.44
727.4	2141.32
727.586	2131.08
727.773	2102.41
727.959	2126.99
728.145	2184.33
728.332	2116.75
728.518	2083.98
728.705	2075.79
728.891	2094.22
729.077	2106.51
729.264	2120.84
729.45	2092.17
729.636	2081.93
729.823	2141.32
730.009	2204.81
730.195	2210.95
730.382	2120.84
730.568	2047.12
730.754	2067.6
730.94	2108.55
731.126	2051.21
731.313	2204.81
731.499	2010.25
731.685	2153.61
731.871	2032.78
732.057	2157.71
732.243	2114.7
732.429	2100.36
732.615	2088.07
732.801	2108.55
732.987	2090.12
733.173	2100.36
733.359	2153.61
733.545	2104.46
733.731	2020.49
733.917	2126.99
734.103	2104.46
734.289	2217.1
734.475	1991.82
734.661	2102.41
734.847	2055.31
735.033	2034.83
735.219	2063.5
735.404	2026.64
735.59	2167.95
735.776	2040.97
735.962	2047.12
736.148	2167.95
736.333	2098.31
736.519	1983.63
736.705	2004.11
736.89	2057.36
737.076	1928.33
737.262	1973.39
737.447	1940.62
737.633	2022.54
737.819	2071.69
738.004	1977.48
738.19	1995.92
738.375	1862.8
738.561	2075.79
738.747	2028.68
738.932	2012.3
739.118	1985.68
739.303	1993.87
739.489	1938.57
739.674	2002.06
739.859	2034.83
740.045	2057.36
740.23	1971.34
740.416	2059.4
740.601	1957
740.786	1977.48
740.972	1899.66
741.157	1930.38
741.342	1981.58
741.528	1938.57
741.713	1903.76
741.898	1850.51
742.084	1899.66
742.269	1926.29
742.454	1930.38
742.639	1905.81
742.824	1856.65
743.01	1891.47
743.195	1838.22
743.38	1916.05
743.565	1809.55
743.75	1782.93
743.935	1852.56
744.12	1842.32
744.305	1807.5
744.49	1918.09
744.675	1760.4
744.86	1752.21
745.045	1819.79
745.23	1660.05
745.415	1782.93
745.6	1752.21
745.785	1805.46
745.97	1733.78
746.155	1832.08
746.34	1782.93
746.525	1787.02
746.71	1721.49
746.895	1746.06
747.079	1803.41
747.264	1653.91
747.449	1713.3
747.634	1715.34
747.819	1639.57
748.003	1664.15
748.188	1623.19
748.373	1569.94
748.557	1578.13
748.742	1658
748.927	1680.53
749.111	1602.71
749.296	1569.94
749.481	1483.92
749.665	1537.17
749.85	1528.98
750.034	1592.47
750.219	1586.32
750.404	1459.35
750.588	1479.83
750.773	1479.83
750.957	1545.36
751.141	1455.25
751.326	1471.64
751.51	1516.69
751.695	1510.55
751.879	1475.73
752.064	1424.53
752.248	1557.65
752.432	1451.16
752.617	1393.81
752.801	1490.07
752.985	1383.57
753.17	1383.57
753.354	1541.27
753.538	1277.08
753.722	1461.4
753.907	1445.01
754.091	1285.27
754.275	1359
754.459	1301.65
754.643	1356.95
754.828	1275.03
755.012	1371.29
755.196	1307.8
755.38	1295.51
755.564	1344.66
755.748	1203.35
755.932	1264.79
756.116	1248.41
756.3	1275.03
756.484	1180.82
756.668	1207.45
756.852	1268.89
757.036	1252.5
757.22	1252.5
757.404	1262.74
757.588	1158.3
757.772	1229.98
757.956	1205.4
758.14	1242.26
758.323	1127.58
758.507	1076.38
758.691	1189.02
758.875	1129.63
759.059	1088.67
759.242	1127.58
759.426	1141.91
759.61	1070.23
759.794	1189.02
759.977	1100.95
760.161	1176.73
760.345	1166.49
760.528	1025.18
760.712	1103
760.895	1057.95
761.079	1029.27
761.263	1127.58
761.446	939.16
761.63	973.98
761.813	1029.27
761.997	1055.9
762.18	1039.51
762.364	941.21
762.547	982.17
762.731	973.98
762.914	963.74
763.098	990.36
763.281	994.46
763.464	980.12
763.648	1014.94
763.831	1033.37
764.015	961.69
764.198	941.21
764.381	957.6
764.564	1008.8
764.748	902.3
764.931	916.64
765.114	1033.37
765.297	978.08
765.481	867.49
765.664	842.91
765.847	908.44
766.03	941.21
766.213	890.01
766.397	939.16
766.58	865.44
766.763	922.78
766.946	885.92
767.129	930.97
767.312	857.25
767.495	971.93
767.678	980.12
767.861	842.91
768.044	871.58
768.227	904.35
768.41	883.87
768.593	887.97
768.776	926.88
768.959	867.49
769.142	851.1
769.324	838.81
769.507	804
769.69	826.53
769.873	828.57
770.056	912.54
770.239	730.27
770.421	826.53
770.604	890.01
770.787	840.86
770.97	840.86
771.152	715.94
771.335	713.89
771.518	861.34
771.7	836.77
771.883	804
772.066	797.85
772.248	754.85
772.431	795.81
772.613	775.33
772.796	730.27
772.978	779.42
773.161	824.48
773.343	728.22
773.526	763.04
773.708	722.08
773.891	687.26
774.073	728.22
774.256	728.22
774.438	765.09
774.621	664.74
774.803	742.56
774.985	658.59
775.168	728.22
775.35	601.25
775.532	679.07
775.715	652.45
775.897	576.67
776.079	703.65
776.261	742.56
776.444	683.17
776.626	603.3
776.808	609.44
776.99	572.58
777.173	631.97
777.355	656.54
777.537	623.78
777.719	599.2
777.901	625.83
778.083	599.2
778.265	572.58
778.447	564.39
778.629	634.02
778.811	658.59
778.993	556.19
779.175	570.53
779.357	550.05
779.539	711.84
779.721	591.01
779.903	599.2
780.085	552.1
780.267	562.34
780.449	574.63
780.631	558.24
780.812	550.05
780.994	562.34
781.176	464.04
781.358	570.53
781.54	455.84
781.721	570.53
781.903	515.23
782.085	535.71
782.267	601.25
782.448	386.21
782.63	531.62
782.812	537.76
782.993	523.43
783.175	531.62
783.357	513.19
783.538	472.23
783.72	447.65
783.901	455.84
784.083	480.42
784.264	492.71
784.446	447.65
784.627	451.75
784.809	554.15
784.99	392.36
785.172	435.36
785.353	496.8
785.535	464.04
785.716	347.3
785.897	439.46
786.079	423.08
786.26	431.27
786.441	380.07
786.623	441.51
786.804	388.26
786.985	347.3
787.167	492.71
787.348	384.16
787.529	461.99
787.71	435.36
787.891	390.31
788.073	402.6
788.254	386.21
788.435	404.64
788.616	304.29
788.797	328.87
788.978	369.83
789.159	363.69
789.34	365.73
789.522	298.15
789.703	390.31
789.884	353.45
790.065	279.72
790.246	406.69
790.427	380.07
790.607	378.02
790.788	382.12
790.969	285.86
791.15	324.77
791.331	335.01
791.512	335.01
791.693	304.29
791.874	279.72
792.054	373.92
792.235	361.64
792.416	322.73
792.597	287.91
792.778	332.97
792.958	388.26
793.139	320.68
793.32	322.73
793.5	281.77
793.681	316.58
793.862	312.49
794.042	294.05
794.223	240.81
794.404	287.91
794.584	281.77
794.765	269.48
794.945	263.33
795.126	361.64
795.306	335.01
795.487	292.01
795.667	253.09
795.848	261.29
796.028	232.62
796.209	335.01
796.389	251.05
796.57	238.76
796.75	222.38
796.93	279.72
797.111	279.72
797.291	226.47
797.471	269.48
797.652	197.8
797.832	238.76
798.012	242.85
798.192	212.14
798.373	222.38
798.553	210.09
798.733	283.81
798.913	353.45
799.093	289.96
799.274	296.1
799.454	238.76
799.634	208.04
799.814	263.33
799.994	302.25
800.174	277.67
800.354	238.76
800.534	263.33
800.714	246.95
800.894	218.28
801.074	197.8
801.254	179.37
801.434	193.7
801.614	201.9
801.794	234.66
801.974	552.1
802.154	167.08
802.334	230.57
802.514	214.18
802.693	210.09
802.873	210.09
803.053	294.05
803.233	205.99
803.413	181.42
803.592	185.51
803.772	167.08
803.952	189.61
804.131	160.94
804.311	212.14
804.491	181.42
804.67	167.08
804.85	238.76
805.03	201.9
805.209	187.56
805.389	154.79
805.568	193.7
805.748	165.03
805.928	150.7
806.107	148.65
806.287	201.9
806.466	218.28
806.646	150.7
806.825	165.03
807.004	222.38
807.184	62.63
807.363	154.79
807.543	212.14
807.722	156.84
807.901	117.93
808.081	220.33
808.26	144.55
808.439	220.33
808.619	203.94
808.798	109.74
808.977	183.46
809.156	169.13
809.336	230.57
809.515	173.22
809.694	140.46
809.873	105.64
810.052	175.27
810.231	175.27
810.411	169.13
810.59	171.18
810.769	171.18
810.948	85.16
811.127	148.65
811.306	261.29
811.485	115.88
811.664	197.8
811.843	103.59
812.022	187.56
812.201	107.69
812.38	195.75
812.559	124.07
812.737	158.89
812.916	111.78
813.095	64.68
813.274	187.56
813.453	119.98
813.632	177.32
813.811	144.55
813.989	175.27
814.168	128.17
814.347	122.02
814.526	177.32
814.704	44.2
814.883	132.26
815.062	117.93
815.24	132.26
815.419	99.5
815.598	111.78
815.776	122.02
815.955	146.6
816.133	23.72
816.312	109.74
816.49	113.83
816.669	89.26
816.847	19.63
817.026	181.42
817.204	111.78
817.383	138.41
817.561	148.65
817.74	140.46
817.918	146.6
818.097	89.26
818.275	126.12
818.453	136.36
818.632	70.83
818.81	119.98
818.988	81.07
819.167	128.17
819.345	113.83
819.523	50.35
819.701	107.69
819.879	142.5
820.058	113.83
820.236	81.07
820.414	74.92
820.592	66.73
820.77	91.31
820.948	117.93
821.127	52.39
821.305	210.09
821.483	89.26
821.661	152.74
821.839	87.21
822.017	99.5
822.195	74.92
822.373	113.83
822.551	87.21
822.729	142.5
822.907	101.55
823.085	111.78
823.262	138.41
823.44	105.64
823.618	62.63
823.796	91.31
823.974	97.45
824.152	72.87
824.329	52.39
824.507	146.6
824.685	44.2
824.863	87.21
825.04	7.34
825.218	93.35
825.396	87.21
825.574	72.87
825.751	27.82
825.929	111.78
826.107	56.49
826.284	76.97
826.462	115.88
826.639	113.83
826.817	13.48
826.994	81.07
827.172	97.45
827.349	111.78
827.527	93.35
827.704	156.84
827.882	83.11
828.059	97.45
828.237	68.78
828.414	29.87
828.591	52.39
828.769	83.11
828.946	58.54
829.124	115.88
829.301	17.58
829.478	99.5
829.655	97.45
829.833	70.83
830.01	40.11
830.187	79.02
830.364	79.02
830.542	97.45
830.719	177.32
830.896	91.31
831.073	21.67
831.25	64.68
831.427	54.44
831.604	42.15
831.782	7.34
831.959	17.58
832.136	11.43
832.313	29.87
832.49	124.07
832.667	111.78
832.844	79.02
833.021	-9.05
833.198	40.11
833.374	91.31
833.551	115.88
833.728	99.5
833.905	64.68
834.082	99.5
834.259	27.82
834.436	99.5
834.612	79.02
834.789	85.16
834.966	13.48
835.143	89.26
835.319	58.54
835.496	60.59
835.673	56.49
835.85	117.93
836.026	48.3
836.203	107.69
836.38	72.87
836.556	31.91
836.733	-2.9
836.909	165.03
837.086	-2.9
837.262	31.91
837.439	62.63
837.616	29.87
837.792	119.98
837.968	70.83
838.145	56.49
838.321	17.58
838.498	19.63
838.674	103.59
838.851	66.73
839.027	31.91
839.203	-50
839.38	107.69
839.556	40.11
839.732	38.06
839.909	31.91
840.085	76.97
840.261	25.77
840.437	58.54
840.614	-9.05
840.79	58.54
840.966	29.87
841.142	87.21
841.318	23.72
841.494	70.83
841.671	-7
841.847	15.53
842.023	36.01
842.199	23.72
842.375	27.82
842.551	-9.05
842.727	13.48
842.903	79.02
843.079	17.58
843.255	85.16
843.431	60.59
843.607	40.11
843.783	-23.38
843.959	48.3
844.134	5.29
844.31	17.58
844.486	-64.34
844.662	-2.9
844.838	25.77
845.013	-41.81
845.189	-7
845.365	79.02
845.541	-11.09
845.716	17.58
845.892	111.78
846.068	44.2
846.244	89.26
846.419	27.82
846.595	74.92
846.77	29.87
846.946	36.01
847.122	64.68
847.297	107.69
847.473	58.54
847.648	-27.48
847.824	5.29
847.999	23.72
848.175	-0.85
848.35	81.07
848.526	-9.05
848.701	52.39
848.876	40.11
849.052	48.3
849.227	17.58
849.403	-21.33
849.578	-4.95
849.753	21.67
849.929	-25.43
850.104	-15.19
850.279	101.55
850.454	64.68
850.63	95.4
850.805	21.67
850.98	3.24
851.155	-47.96
851.33	113.83
851.505	-31.57
851.681	17.58
851.856	-4.95
852.031	54.44
852.206	64.68
852.381	11.43
852.556	31.91
852.731	52.39
852.906	36.01
853.081	-0.85
853.256	66.73
853.431	21.67
853.606	-66.39
853.781	25.77
853.956	-25.43
854.131	50.35
854.305	-9.05
854.48	9.39
854.655	-11.09
854.83	-13.14
855.005	-50
855.18	-27.48
855.354	115.88
855.529	107.69
855.704	33.96
855.879	66.73
856.053	29.87
856.228	-35.67
856.403	-4.95
856.577	-35.67
856.752	-13.14
856.926	-23.38
857.101	62.63
857.276	29.87
857.45	-13.14
857.625	27.82
857.799	-17.24
857.974	79.02
858.148	17.58
858.323	-41.81
858.497	11.43
858.672	19.63
858.846	-56.15
859.02	-13.14
859.195	-37.72
859.369	-19.29
859.543	23.72
859.718	70.83
859.892	44.2
860.066	-35.67
860.241	-25.43
860.415	-15.19
860.589	13.48
860.763	27.82
860.938	9.39
861.112	13.48
861.286	-31.57
861.46	68.78
861.634	42.15
861.808	56.49
861.982	1.19
862.157	-17.24
862.331	27.82
862.505	-43.86
862.679	-25.43
862.853	-27.48
863.027	23.72
863.201	-15.19
863.375	-41.81
863.549	33.96
863.722	-23.38
863.896	29.87
864.07	9.39
864.244	9.39
864.418	38.06
864.592	17.58
864.766	-54.1
864.939	58.54
865.113	-54.1
865.287	-39.76
865.461	50.35
865.634	11.43
865.808	-29.52
865.982	62.63
866.156	54.44
866.329	-23.38
866.503	-0.85
866.676	1.19
866.85	-64.34
867.024	-19.29
867.197	33.96
867.371	7.34
867.544	76.97
867.718	5.29
867.891	33.96
868.065	42.15
868.238	-9.05
868.412	7.34
868.585	5.29
868.759	-15.19
868.932	-31.57
869.105	54.44
869.279	74.92
869.452	-7
869.625	-7
869.799	11.43
869.972	-64.34
870.145	-19.29
870.319	-23.38
870.492	-0.85
870.665	-88.92
870.838	-31.57
871.011	-37.72
871.185	-23.38
871.358	-7
871.531	54.44
871.704	-7
871.877	-15.19
872.05	40.11
872.223	21.67
872.396	42.15
872.569	33.96
872.742	19.63
872.915	83.11
873.088	-23.38
873.261	48.3
873.434	21.67
873.607	-33.62
873.78	38.06
873.953	42.15
874.126	-33.62
874.299	-17.24
874.471	-11.09
874.644	21.67
874.817	62.63
874.99	40.11
875.163	-47.96
875.335	21.67
875.508	-80.72
875.681	-0.85
875.853	-19.29
876.026	-11.09
876.199	-0.85
876.371	-11.09
876.544	-15.19
876.717	-35.67
876.889	-19.29
877.062	52.39
877.234	1.19
877.407	25.77
877.579	25.77
877.752	21.67
877.924	91.31
878.097	21.67
878.269	9.39
878.442	91.31
878.614	-25.43
878.786	52.39
878.959	62.63
879.131	31.91
879.303	-47.96
879.476	-23.38
879.648	-66.39
879.82	72.87
879.993	-31.57
880.165	46.25
880.337	27.82
880.509	-43.86
880.681	17.58
880.854	-15.19
881.026	-25.43
881.198	21.67
881.37	29.87
881.542	48.3
881.714	1.19
881.886	19.63
882.058	-25.43
882.23	-72.53
882.402	-23.38
882.574	38.06
882.746	-7
882.918	1.19
883.09	36.01
883.262	-39.76
883.434	-39.76
883.606	-33.62
883.778	-54.1
883.95	7.34
884.122	15.53
884.293	33.96
884.465	54.44
884.637	66.73
884.809	50.35
884.98	-29.52
885.152	62.63
885.324	-15.19
885.496	-50
885.667	-2.9
885.839	-78.68
886.011	87.21
886.182	-11.09
886.354	-41.81
886.525	-47.96
886.697	64.68
886.869	-2.9
887.04	9.39
887.212	-4.95
887.383	3.24
887.555	-35.67
887.726	19.63
887.897	-86.87
888.069	31.91
888.24	48.3
888.412	48.3
888.583	-33.62
888.754	-13.14
888.926	36.01
889.097	7.34
889.268	-64.34
889.44	-2.9
889.611	-35.67
889.782	29.87
889.953	9.39
890.125	17.58
890.296	-41.81
890.467	1.19
890.638	19.63
890.809	7.34
890.98	-35.67
891.151	-15.19
891.323	1.19
891.494	1.19
891.665	9.39
891.836	54.44
892.007	-9.05
892.178	-25.43
892.349	-29.52
892.52	-37.72
892.691	9.39
892.862	-105.3
893.032	-58.2
893.203	-11.09
893.374	-82.77
893.545	-47.96
893.716	-56.15
893.887	87.21
894.057	60.59
894.228	7.34
894.399	31.91
894.57	-31.57
894.74	-21.33
894.911	-9.05
895.082	-47.96
895.253	-7
895.423	-15.19
895.594	44.2
895.764	23.72
895.935	-17.24
896.106	-41.81
896.276	-35.67
896.447	29.87
896.617	-29.52
896.788	-33.62
896.958	54.44
897.129	-64.34
897.299	-9.05
897.47	-7
897.64	72.87
897.81	7.34
897.981	7.34
898.151	-39.76
898.322	5.29
898.492	-4.95
898.662	-15.19
898.832	23.72
899.003	9.39
899.173	-0.85
899.343	-123.73
899.513	40.11
