Data from USB4F104151__215__11-10-37-116.txt Node

Date: Wed Mar 12 11:10:37 EDT 2025
User: louis
Spectrometer: USB4F10415
Trigger mode: 4
Integration Time (sec): 2.000000E-2
Scans to average: 1
Electric dark correction enabled: true
Nonlinearity correction enabled: false
Boxcar width: 0
XAxis mode: Wavelengths
Number of Pixels in Spectrum: 3648
>>>>>Begin Spectral Data<<<<<
178.204	-46.25
178.424	-46.25
178.644	-46.25
178.864	-70.83
179.084	-81.07
179.304	-44.2
179.524	-50.35
179.744	-23.72
179.964	-27.82
180.184	56.15
180.404	23.38
180.624	50
180.844	-15.53
181.064	2.9
181.283	23.38
181.503	-33.96
181.723	39.76
181.943	-33.96
182.163	72.53
182.383	15.19
182.602	2.9
182.822	23.38
183.042	54.1
183.262	-1.19
183.482	-21.67
183.701	-93.35
183.921	-19.63
184.141	29.52
184.361	-13.48
184.58	2.9
184.8	33.62
185.02	35.67
185.239	19.29
185.459	17.24
185.679	15.19
185.898	-3.24
186.118	43.86
186.338	-19.63
186.557	27.48
186.777	68.44
186.997	19.29
187.216	33.62
187.436	64.34
187.655	9.05
187.875	19.29
188.095	41.81
188.314	-9.39
188.534	-7.34
188.753	7
188.973	-17.58
189.192	-27.82
189.412	-9.39
189.631	11.09
189.851	-42.15
190.07	84.82
190.29	-27.82
190.509	21.33
190.729	56.15
190.948	19.29
191.168	111.44
191.387	66.39
191.607	52.05
191.826	7
192.045	41.81
192.265	-27.82
192.484	27.48
192.704	56.15
192.923	-13.48
193.142	56.15
193.362	27.48
193.581	-25.77
193.8	-17.58
194.02	41.81
194.239	17.24
194.458	-40.11
194.678	-7.34
194.897	25.43
195.116	21.33
195.335	23.38
195.555	2.9
195.774	9.05
195.993	43.86
196.212	27.48
196.432	21.33
196.651	-25.77
196.87	2.9
197.089	35.67
197.308	0.85
197.528	41.81
197.747	15.19
197.966	29.52
198.185	62.29
198.404	23.38
198.623	52.05
198.842	54.1
199.062	-13.48
199.281	21.33
199.5	-5.29
199.719	62.29
199.938	-9.39
200.157	0.85
200.376	15.19
200.595	37.72
200.814	9.05
201.033	-11.43
201.252	-19.63
201.471	-3.24
201.69	0.85
201.909	-17.58
202.128	43.86
202.347	35.67
202.566	-5.29
202.785	-60.59
203.004	-33.96
203.223	56.15
203.442	-29.87
203.661	-21.67
203.879	58.2
204.098	80.72
204.317	7
204.536	39.76
204.755	-5.29
204.974	80.72
205.193	-7.34
205.411	66.39
205.63	23.38
205.849	23.38
206.068	27.48
206.287	-38.06
206.505	101.2
206.724	-27.82
206.943	23.38
207.162	-46.25
207.381	4.95
207.599	-9.39
207.818	80.72
208.037	-33.96
208.255	-58.54
208.474	97.11
208.693	11.09
208.911	13.14
209.13	37.72
209.349	-42.15
209.567	-27.82
209.786	117.59
210.005	13.14
210.223	15.19
210.442	90.96
210.661	9.05
210.879	-44.2
211.098	35.67
211.316	11.09
211.535	68.44
211.753	15.19
211.972	-13.48
212.191	27.48
212.409	72.53
212.628	31.57
212.846	-42.15
213.065	39.76
213.283	-25.77
213.502	33.62
213.72	37.72
213.938	-19.63
214.157	-25.77
214.375	-54.44
214.594	-21.67
214.812	23.38
215.031	101.2
215.249	-3.24
215.467	9.05
215.686	23.38
215.904	60.24
216.122	-1.19
216.341	-21.67
216.559	-21.67
216.778	76.63
216.996	25.43
217.214	2.9
217.432	-13.48
217.651	13.14
217.869	84.82
218.087	54.1
218.306	21.33
218.524	17.24
218.742	-17.58
218.96	11.09
219.179	15.19
219.397	-29.87
219.615	23.38
219.833	43.86
220.051	-5.29
220.27	99.16
220.488	37.72
220.706	-11.43
220.924	-1.19
221.142	82.77
221.36	-29.87
221.578	50
221.796	60.24
222.015	37.72
222.233	19.29
222.451	107.35
222.669	-11.43
222.887	17.24
223.105	-13.48
223.323	27.48
223.541	-72.87
223.759	78.68
223.977	-54.44
224.195	-9.39
224.413	86.87
224.631	-44.2
224.849	27.48
225.067	43.86
225.285	29.52
225.503	39.76
225.721	9.05
225.939	-1.19
226.157	4.95
226.375	56.15
226.592	-33.96
226.81	4.95
227.028	2.9
227.246	109.4
227.464	25.43
227.682	-7.34
227.9	-19.63
228.117	9.05
228.335	39.76
228.553	0.85
228.771	52.05
228.989	7
229.206	21.33
229.424	-3.24
229.642	11.09
229.86	52.05
230.077	54.1
230.295	58.2
230.513	33.62
230.731	-5.29
230.948	-44.2
231.166	121.68
231.384	-21.67
231.601	17.24
231.819	60.24
232.037	-17.58
232.254	2.9
232.472	31.57
232.689	-9.39
232.907	72.53
233.125	-19.63
233.342	39.76
233.56	13.14
233.777	-48.3
233.995	101.2
234.213	80.72
234.43	0.85
234.648	21.33
234.865	-33.96
235.083	64.34
235.3	0.85
235.518	17.24
235.735	39.76
235.953	109.4
236.17	39.76
236.388	13.14
236.605	19.29
236.822	21.33
237.04	58.2
237.257	-40.11
237.475	-5.29
237.692	4.95
237.909	-15.53
238.127	7
238.344	29.52
238.562	19.29
238.779	-70.83
238.996	31.57
239.214	64.34
239.431	4.95
239.648	39.76
239.865	47.96
240.083	29.52
240.3	21.33
240.517	-27.82
240.735	39.76
240.952	13.14
241.169	31.57
241.386	31.57
241.603	-42.15
241.821	-17.58
242.038	66.39
242.255	39.76
242.472	-38.06
242.689	39.76
242.907	21.33
243.124	2.9
243.341	-9.39
243.558	9.05
243.775	31.57
243.992	0.85
244.209	27.48
244.426	60.24
244.643	41.81
244.86	-38.06
245.078	52.05
245.295	31.57
245.512	35.67
245.729	9.05
245.946	-5.29
246.163	19.29
246.38	-1.19
246.597	-29.87
246.814	7
247.031	97.11
247.248	2.9
247.464	-25.77
247.681	37.72
247.898	4.95
248.115	35.67
248.332	-70.83
248.549	-9.39
248.766	2.9
248.983	2.9
249.2	78.68
249.417	56.15
249.633	72.53
249.85	-25.77
250.067	60.24
250.284	43.86
250.501	54.1
250.717	17.24
250.934	72.53
251.151	31.57
251.368	-36.01
251.585	17.24
251.801	21.33
252.018	-3.24
252.235	47.96
252.451	-50.35
252.668	-23.72
252.885	68.44
253.102	-5.29
253.318	-5.29
253.535	-52.39
253.752	-23.72
253.968	21.33
254.185	39.76
254.401	7
254.618	19.29
254.835	33.62
255.051	7
255.268	33.62
255.484	19.29
255.701	-40.11
255.917	23.38
256.134	56.15
256.351	-60.59
256.567	-17.58
256.784	-7.34
257	35.67
257.217	11.09
257.433	-31.91
257.65	-7.34
257.866	0.85
258.082	33.62
258.299	-44.2
258.515	58.2
258.732	0.85
258.948	-38.06
259.165	-36.01
259.381	29.52
259.597	-17.58
259.814	45.91
260.03	66.39
260.246	-19.63
260.463	54.1
260.679	-9.39
260.895	-11.43
261.112	0.85
261.328	-5.29
261.544	-33.96
261.761	129.88
261.977	2.9
262.193	7
262.409	23.38
262.626	19.29
262.842	23.38
263.058	66.39
263.274	58.2
263.49	-19.63
263.707	72.53
263.923	35.67
264.139	7
264.355	-40.11
264.571	-7.34
264.787	31.57
265.004	82.77
265.22	56.15
265.436	-9.39
265.652	31.57
265.868	7
266.084	-33.96
266.3	35.67
266.516	-48.3
266.732	35.67
266.948	66.39
267.164	-15.53
267.38	-9.39
267.596	58.2
267.812	68.44
268.028	-7.34
268.244	19.29
268.46	33.62
268.676	17.24
268.892	27.48
269.108	-23.72
269.324	-21.67
269.54	-62.63
269.756	80.72
269.972	29.52
270.188	35.67
270.403	-83.11
270.619	-19.63
270.835	47.96
271.051	11.09
271.267	-5.29
271.483	27.48
271.698	60.24
271.914	-5.29
272.13	-27.82
272.346	17.24
272.562	80.72
272.777	11.09
272.993	64.34
273.209	88.92
273.425	41.81
273.64	-13.48
273.856	25.43
274.072	37.72
274.287	19.29
274.503	29.52
274.719	33.62
274.934	23.38
275.15	-1.19
275.366	-50.35
275.581	19.29
275.797	33.62
276.012	-5.29
276.228	76.63
276.444	0.85
276.659	-42.15
276.875	-38.06
277.09	-17.58
277.306	-23.72
277.521	33.62
277.737	-21.67
277.952	-40.11
278.168	-46.25
278.383	29.52
278.599	60.24
278.814	-1.19
279.03	-5.29
279.245	2.9
279.461	-1.19
279.676	7
279.892	41.81
280.107	15.19
280.322	-31.91
280.538	56.15
280.753	-17.58
280.969	56.15
281.184	33.62
281.399	-3.24
281.615	-1.19
281.83	2.9
282.045	11.09
282.26	70.48
282.476	21.33
282.691	17.24
282.906	25.43
283.122	86.87
283.337	4.95
283.552	82.77
283.767	27.48
283.983	15.19
284.198	15.19
284.413	-66.73
284.628	37.72
284.843	-21.67
285.058	2.9
285.274	-17.58
285.489	-46.25
285.704	-5.29
285.919	109.4
286.134	-54.44
286.349	11.09
286.564	33.62
286.779	142.16
286.995	43.86
287.21	33.62
287.425	29.52
287.64	74.58
287.855	43.86
288.07	23.38
288.285	35.67
288.5	13.14
288.715	-44.2
288.93	35.67
289.145	15.19
289.36	105.3
289.575	-29.87
289.79	47.96
290.004	-15.53
290.219	62.29
290.434	27.48
290.649	88.92
290.864	-29.87
291.079	15.19
291.294	0.85
291.509	39.76
291.724	-1.19
291.938	-13.48
292.153	15.19
292.368	21.33
292.583	4.95
292.798	-62.63
293.012	-1.19
293.227	-7.34
293.442	-25.77
293.657	58.2
293.871	35.67
294.086	50
294.301	27.48
294.516	0.85
294.73	99.16
294.945	11.09
295.16	74.58
295.374	101.2
295.589	-7.34
295.804	-70.83
296.018	7
296.233	39.76
296.447	-54.44
296.662	-19.63
296.877	19.29
297.091	45.91
297.306	-89.26
297.52	52.05
297.735	29.52
297.949	50
298.164	80.72
298.378	70.48
298.593	0.85
298.807	17.24
299.022	72.53
299.236	-40.11
299.451	15.19
299.665	-5.29
299.88	84.82
300.094	35.67
300.309	21.33
300.523	-25.77
300.737	115.54
300.952	11.09
301.166	101.2
301.381	21.33
301.595	74.58
301.809	60.24
302.024	90.96
302.238	19.29
302.452	39.76
302.667	21.33
302.881	39.76
303.095	-58.54
303.309	86.87
303.524	19.29
303.738	52.05
303.952	31.57
304.166	54.1
304.381	0.85
304.595	29.52
304.809	2.9
305.023	50
305.237	78.68
305.452	9.05
305.666	-13.48
305.88	-33.96
306.094	47.96
306.308	11.09
306.522	97.11
306.736	50
306.95	-7.34
307.164	25.43
307.379	-42.15
307.593	2.9
307.807	25.43
308.021	-21.67
308.235	-40.11
308.449	-33.96
308.663	-36.01
308.877	41.81
309.091	7
309.305	80.72
309.519	4.95
309.733	-25.77
309.947	-44.2
310.161	64.34
310.374	25.43
310.588	-33.96
310.802	11.09
311.016	27.48
311.23	-29.87
311.444	33.62
311.658	39.76
311.872	60.24
312.085	25.43
312.299	17.24
312.513	-1.19
312.727	31.57
312.941	52.05
313.154	76.63
313.368	52.05
313.582	35.67
313.796	45.91
314.009	62.29
314.223	68.44
314.437	56.15
314.651	64.34
314.864	70.48
315.078	4.95
315.292	68.44
315.505	-48.3
315.719	-5.29
315.933	52.05
316.146	-15.53
316.36	58.2
316.573	70.48
316.787	15.19
317.001	-9.39
317.214	-11.43
317.428	15.19
317.641	-13.48
317.855	-81.07
318.068	4.95
318.282	72.53
318.495	43.86
318.709	37.72
318.922	-25.77
319.136	62.29
319.349	52.05
319.563	-17.58
319.776	50
319.99	-13.48
320.203	-1.19
320.417	52.05
320.63	9.05
320.843	131.92
321.057	9.05
321.27	52.05
321.483	17.24
321.697	41.81
321.91	86.87
322.124	41.81
322.337	78.68
322.55	-27.82
322.763	-44.2
322.977	74.58
323.19	-5.29
323.403	43.86
323.617	70.48
323.83	88.92
324.043	39.76
324.256	31.57
324.469	54.1
324.683	47.96
324.896	21.33
325.109	27.48
325.322	35.67
325.535	52.05
325.748	11.09
325.962	23.38
326.175	58.2
326.388	78.68
326.601	-38.06
326.814	19.29
327.027	74.58
327.24	129.88
327.453	50
327.666	-21.67
327.879	-17.58
328.092	39.76
328.305	58.2
328.518	27.48
328.731	29.52
328.944	70.48
329.157	21.33
329.37	52.05
329.583	52.05
329.796	-1.19
330.009	-3.24
330.222	4.95
330.435	-25.77
330.648	80.72
330.861	64.34
331.073	7
331.286	72.53
331.499	25.43
331.712	0.85
331.925	-1.19
332.138	11.09
332.35	23.38
332.563	52.05
332.776	0.85
332.989	64.34
333.202	37.72
333.414	-9.39
333.627	-25.77
333.84	88.92
334.053	19.29
334.265	-1.19
334.478	47.96
334.691	21.33
334.903	86.87
335.116	56.15
335.329	29.52
335.541	35.67
335.754	2.9
335.966	15.19
336.179	31.57
336.392	66.39
336.604	31.57
336.817	19.29
337.029	9.05
337.242	33.62
337.454	66.39
337.667	-9.39
337.88	60.24
338.092	25.43
338.305	62.29
338.517	35.67
338.729	-3.24
338.942	31.57
339.154	-3.24
339.367	2.9
339.579	4.95
339.792	-13.48
340.004	7
340.217	2.9
340.429	29.52
340.641	7
340.854	-58.54
341.066	60.24
341.278	0.85
341.491	60.24
341.703	13.14
341.915	19.29
342.128	0.85
342.34	-15.53
342.552	-5.29
342.764	-13.48
342.977	60.24
343.189	-13.48
343.401	56.15
343.613	-17.58
343.826	29.52
344.038	-3.24
344.25	78.68
344.462	-11.43
344.674	25.43
344.886	45.91
345.099	52.05
345.311	-9.39
345.523	2.9
345.735	21.33
345.947	76.63
346.159	70.48
346.371	35.67
346.583	-70.83
346.795	88.92
347.007	23.38
347.219	43.86
347.431	-21.67
347.643	101.2
347.855	-31.91
348.067	82.77
348.279	64.34
348.491	88.92
348.703	68.44
348.915	-9.39
349.127	2.9
349.339	45.91
349.551	47.96
349.763	0.85
349.975	39.76
350.187	68.44
350.399	39.76
350.61	13.14
350.822	4.95
351.034	62.29
351.246	21.33
351.458	64.34
351.669	23.38
351.881	25.43
352.093	56.15
352.305	74.58
352.517	66.39
352.728	19.29
352.94	82.77
353.152	9.05
353.363	19.29
353.575	52.05
353.787	66.39
353.999	4.95
354.21	52.05
354.422	31.57
354.633	-1.19
354.845	23.38
355.057	31.57
355.268	41.81
355.48	66.39
355.692	47.96
355.903	43.86
356.115	-11.43
356.326	-1.19
356.538	54.1
356.749	64.34
356.961	15.19
357.172	-1.19
357.384	41.81
357.595	125.78
357.807	2.9
358.018	-1.19
358.23	19.29
358.441	33.62
358.653	11.09
358.864	27.48
359.075	45.91
359.287	62.29
359.498	121.68
359.709	-38.06
359.921	56.15
360.132	-29.87
360.344	82.77
360.555	-25.77
360.766	84.82
360.977	29.52
361.189	33.62
361.4	-13.48
361.611	93.01
361.823	78.68
362.034	-15.53
362.245	35.67
362.456	41.81
362.667	66.39
362.879	19.29
363.09	43.86
363.301	9.05
363.512	27.48
363.723	72.53
363.935	19.29
364.146	52.05
364.357	-31.91
364.568	43.86
364.779	13.14
364.99	78.68
365.201	58.2
365.412	82.77
365.623	-85.16
365.834	68.44
366.045	52.05
366.256	47.96
366.467	117.59
366.678	37.72
366.889	2.9
367.1	56.15
367.311	-9.39
367.522	33.62
367.733	72.53
367.944	-13.48
368.155	15.19
368.366	23.38
368.577	17.24
368.788	11.09
368.999	17.24
369.209	150.36
369.42	115.54
369.631	95.06
369.842	15.19
370.053	31.57
370.264	-3.24
370.474	-23.72
370.685	11.09
370.896	-17.58
371.107	31.57
371.317	33.62
371.528	17.24
371.739	50
371.95	64.34
372.16	70.48
372.371	35.67
372.582	-46.25
372.792	78.68
373.003	9.05
373.214	-3.24
373.424	76.63
373.635	4.95
373.846	109.4
374.056	4.95
374.267	33.62
374.477	58.2
374.688	7
374.898	39.76
375.109	-9.39
375.319	19.29
375.53	35.67
375.74	86.87
375.951	4.95
376.161	15.19
376.372	45.91
376.582	39.76
376.793	7
377.003	15.19
377.214	-5.29
377.424	15.19
377.635	56.15
377.845	0.85
378.055	78.68
378.266	21.33
378.476	-19.63
378.686	64.34
378.897	54.1
379.107	33.62
379.317	78.68
379.528	27.48
379.738	99.16
379.948	21.33
380.158	88.92
380.369	29.52
380.579	17.24
380.789	11.09
380.999	80.72
381.21	84.82
381.42	19.29
381.63	7
381.84	43.86
382.05	45.91
382.261	78.68
382.471	43.86
382.681	50
382.891	29.52
383.101	86.87
383.311	68.44
383.521	19.29
383.731	109.4
383.941	105.3
384.151	58.2
384.361	4.95
384.571	2.9
384.781	33.62
384.991	72.53
385.201	70.48
385.411	27.48
385.621	31.57
385.831	86.87
386.041	25.43
386.251	4.95
386.461	31.57
386.671	11.09
386.881	68.44
387.091	113.49
387.301	25.43
387.511	19.29
387.72	23.38
387.93	0.85
388.14	4.95
388.35	-9.39
388.56	27.48
388.769	23.38
388.979	27.48
389.189	-36.01
389.399	84.82
389.609	119.64
389.818	72.53
390.028	84.82
390.238	66.39
390.447	2.9
390.657	39.76
390.867	62.29
391.076	7
391.286	50
391.496	52.05
391.705	60.24
391.915	78.68
392.125	78.68
392.334	58.2
392.544	68.44
392.753	52.05
392.963	54.1
393.172	56.15
393.382	86.87
393.591	64.34
393.801	0.85
394.01	105.3
394.22	27.48
394.429	37.72
394.639	41.81
394.848	111.44
395.058	107.35
395.267	101.2
395.477	101.2
395.686	66.39
395.895	64.34
396.105	113.49
396.314	88.92
396.524	95.06
396.733	76.63
396.942	33.62
397.152	88.92
397.361	140.12
397.57	76.63
397.78	74.58
397.989	72.53
398.198	119.64
398.407	189.27
398.617	93.01
398.826	93.01
399.035	88.92
399.244	97.11
399.453	140.12
399.663	117.59
399.872	13.14
400.081	76.63
400.29	133.97
400.499	95.06
400.708	-3.24
400.917	84.82
401.127	115.54
401.336	23.38
401.545	129.88
401.754	142.16
401.963	82.77
402.172	95.06
402.381	133.97
402.59	45.91
402.799	97.11
403.008	86.87
403.217	78.68
403.426	64.34
403.635	152.4
403.844	47.96
404.053	93.01
404.262	80.72
404.471	181.07
404.68	131.92
404.888	111.44
405.097	88.92
405.306	138.07
405.515	152.4
405.724	133.97
405.933	68.44
406.142	136.02
406.35	209.75
406.559	76.63
406.768	103.25
406.977	183.12
407.185	168.79
407.394	222.03
407.603	193.36
407.812	127.83
408.02	232.27
408.229	217.94
408.438	174.93
408.646	187.22
408.855	205.65
409.064	228.18
409.272	262.99
409.481	205.65
409.69	228.18
409.898	250.71
410.107	236.37
410.315	293.71
410.524	260.95
410.733	260.95
410.941	262.99
411.15	242.51
411.358	371.54
411.567	328.53
411.775	271.19
411.984	379.73
412.192	369.49
412.401	346.96
412.609	406.35
412.818	424.78
413.026	465.74
413.234	422.73
413.443	408.4
413.651	394.06
413.86	549.71
414.068	600.91
414.276	502.61
414.485	537.42
414.693	570.19
414.901	551.76
415.11	643.92
415.318	631.63
415.526	602.96
415.734	676.68
415.943	758.6
416.151	654.16
416.359	682.83
416.567	719.69
416.776	709.45
416.984	791.37
417.192	731.98
417.4	777.03
417.608	871.24
417.817	944.97
418.025	891.72
418.233	955.21
418.441	1000.26
418.649	971.59
418.857	1141.57
419.065	1045.32
419.273	1102.66
419.481	1153.86
419.689	1321.79
419.897	1286.98
420.105	1336.13
420.313	1370.94
420.521	1479.49
420.729	1463.1
420.937	1461.06
421.145	1485.63
421.353	1579.84
421.561	1561.41
421.769	1770.3
421.977	1880.89
422.185	1743.67
422.393	1774.39
422.601	2026.29
422.809	1944.38
423.017	1987.38
423.224	2112.31
423.432	2218.8
423.64	2124.6
423.848	2329.39
424.056	2276.15
424.263	2507.57
424.471	2366.26
424.679	2450.22
424.887	2683.69
425.094	2839.34
425.302	2726.7
425.51	2874.15
425.718	2964.26
425.925	2951.98
426.133	3111.72
426.341	3255.08
426.548	3443.49
426.756	3343.14
426.964	3463.97
427.171	3640.09
427.379	3611.42
427.586	3646.24
427.794	3767.07
428.001	4195.09
428.209	4293.4
428.417	4311.83
428.624	4414.23
428.832	4506.38
429.039	4440.85
429.247	4446.99
429.454	4954.89
429.662	5141.25
429.869	4979.47
430.076	5126.92
430.284	5020.42
430.491	5528.32
430.699	5655.3
430.906	5378.82
431.114	5716.73
431.321	5989.11
431.528	6038.27
431.736	6245.11
431.943	6572.79
432.15	6406.9
432.358	6384.37
432.565	6949.61
432.772	6726.38
432.979	7164.65
433.187	7385.83
433.394	7465.7
433.601	7885.53
433.808	8116.95
434.016	7783.13
434.223	8207.06
434.43	8819.41
434.637	8651.47
434.844	9013.96
435.052	9306.82
435.259	9472.71
435.466	9286.34
435.673	9296.58
435.88	9910.97
436.087	10257.08
436.294	10377.91
436.501	10212.03
436.708	10209.98
436.915	10668.72
437.122	11090.6
437.329	11051.69
437.537	11412.14
437.743	11514.53
437.95	11426.47
438.157	12118.68
438.364	12526.23
438.571	12554.9
438.778	12817.04
438.985	13810.31
439.192	13075.09
439.399	13787.78
439.606	13417.1
439.813	14105.21
440.02	14996.08
440.227	14649.97
440.433	14516.86
440.64	14955.12
440.847	14973.55
441.054	15456.87
441.261	16364.12
441.467	16081.5
441.674	16417.37
441.881	17252.94
442.088	16908.88
442.294	16941.65
442.501	17207.89
442.708	17664.58
442.914	18203.2
443.121	19196.46
443.328	18717.24
443.534	19970.6
443.741	19284.53
443.948	19006
444.154	20601.37
444.361	20529.69
444.568	20451.87
444.774	20511.26
444.981	20521.5
445.187	21387.79
445.394	22364.67
445.6	21668.36
445.807	23902.7
446.013	23052.79
446.22	23427.57
446.426	24328.67
446.633	24553.95
446.839	25233.88
447.046	24451.55
447.252	25653.71
447.459	25668.05
447.665	25622.99
447.871	26649.02
448.078	27836.84
448.284	26503.62
448.491	27464.11
448.697	28576.16
448.903	28783.01
449.11	28627.36
449.316	28488.1
449.522	29039
449.728	29610.39
449.935	29776.27
450.141	29606.29
450.347	30380.42
450.553	29534.61
450.76	29905.29
450.966	30867.84
451.172	30701.95
451.378	31295.86
451.584	30546.31
451.791	31193.47
451.997	31529.33
452.203	31701.36
452.409	31539.57
452.615	31412.6
452.821	30267.78
453.027	29972.88
453.233	31631.73
453.44	30280.07
453.646	30361.99
453.852	30380.42
454.058	31324.54
454.264	29946.25
454.47	30931.33
454.676	30386.57
454.882	31195.51
455.088	28623.26
455.294	28727.71
455.5	29131.16
455.705	29426.07
455.911	28285.35
456.117	27951.53
456.323	27308.47
456.529	26005.96
456.735	26839.48
456.941	26110.41
457.147	25786.83
457.352	25082.33
457.558	24908.25
457.764	24820.19
457.97	24271.33
458.176	23591.41
458.381	23689.71
458.587	22493.69
458.793	22678.01
458.999	21592.59
459.204	22852.09
459.41	22407.68
459.616	20947.48
459.821	20894.23
460.027	20877.85
460.233	20625.95
460.438	19694.12
460.644	19563.05
460.85	18614.84
461.055	18711.1
461.261	18373.18
461.466	16972.37
461.672	16620.12
461.878	17588.81
462.083	16837.2
462.289	16091.74
462.494	16241.25
462.7	15456.87
462.905	15024.75
463.111	15503.98
463.316	15739.49
463.522	15383.15
463.727	15260.27
463.932	15229.55
464.138	15157.87
464.343	15078
464.549	14523
464.754	15147.63
464.959	15067.76
465.165	15047.28
465.37	14213.76
465.575	14099.07
465.781	14500.47
465.986	14596.73
466.191	13927.04
466.397	13845.12
466.602	13161.1
466.807	13400.71
467.012	13650.57
467.218	13369.99
467.423	13283.98
467.628	13474.44
467.833	14164.61
468.038	13513.35
468.244	12913.3
468.449	13533.83
468.654	13144.72
468.859	13062.8
469.064	12767.89
469.269	12487.32
469.474	12853.91
469.679	13159.05
469.885	12360.34
470.09	12735.12
470.295	12659.35
470.5	12225.18
470.705	12315.29
470.91	12266.14
471.115	11887.26
471.32	12239.51
471.525	12237.47
471.73	11707.04
471.935	11688.61
472.139	11453.09
472.344	11608.74
472.549	11289.26
472.754	11385.51
472.959	11002.54
473.164	10836.66
473.369	10918.57
473.574	10939.05
473.778	10654.39
473.983	10812.08
474.188	10582.71
474.393	10132.15
474.598	10314.42
474.802	10048.19
475.007	10156.73
475.212	10433.21
475.417	9710.27
475.621	10017.47
475.826	10046.14
476.031	9603.78
476.235	9392.84
476.44	9501.38
476.645	9413.32
476.849	9421.51
477.054	9153.23
477.259	9130.7
477.463	9224.9
477.668	8934.09
477.872	9024.2
478.077	8870.61
478.282	8526.55
478.486	8671.95
478.691	8592.08
478.895	8637.14
479.1	8542.93
479.304	8434.39
479.509	8215.26
479.713	8420.05
479.918	8026.84
480.122	8055.51
480.326	8055.51
480.531	8348.37
480.735	7985.88
480.94	8055.51
481.144	8188.63
481.348	7908.06
481.553	8053.47
481.757	7860.96
481.961	7946.97
482.166	8102.62
482.37	8065.75
482.574	7908.06
482.778	7828.19
482.983	8035.03
483.187	7887.58
483.391	7926.49
483.595	7860.96
483.8	7805.66
484.004	8039.13
484.208	7977.69
484.412	7842.53
484.616	7961.31
484.821	7873.25
485.025	7639.78
485.229	7916.25
485.433	7783.13
485.637	7967.45
485.841	7770.85
486.045	7934.68
486.249	7731.94
486.453	7768.8
486.657	7852.77
486.861	7953.12
487.065	7703.26
487.269	7883.49
487.473	7690.98
487.677	7920.35
487.881	7969.5
488.085	8041.18
488.289	7815.9
488.493	7852.77
488.697	7996.12
488.901	7983.84
489.105	7760.61
489.309	7887.58
489.512	7799.52
489.716	8000.22
489.92	8166.1
490.124	8063.71
490.328	8239.83
490.531	8170.2
490.735	8194.78
490.939	8018.65
491.143	8037.08
491.346	7975.64
491.55	8170.2
491.754	8235.74
491.958	8313.56
492.161	8180.44
492.365	8336.09
492.569	8450.77
492.772	8268.5
492.976	8530.64
493.18	8364.76
493.383	8604.37
493.587	8522.45
493.79	8710.86
493.994	8549.07
494.197	8667.86
494.401	8807.12
494.605	8829.65
494.808	8893.13
495.012	8952.52
495.215	8977.1
495.419	8882.89
495.622	9042.64
495.825	9118.41
496.029	9142.99
496.232	9411.27
496.436	9306.82
496.639	9493.19
496.843	9579.2
497.046	9732.8
497.249	9906.88
497.453	9810.62
497.656	9865.92
497.859	9974.46
498.063	9970.37
498.266	10226.36
498.469	10220.22
498.673	10437.3
498.876	10420.92
499.079	10578.61
499.282	10605.24
499.485	11061.93
499.689	11051.69
499.892	11076.27
500.095	11199.15
500.298	11475.62
500.501	11223.72
500.705	11485.86
500.908	11621.03
501.111	11610.79
501.314	11874.98
501.517	12100.25
501.72	12053.15
501.923	12157.6
502.126	12505.75
502.329	12782.23
502.532	12556.95
502.735	12737.17
502.938	13240.97
503.141	12855.95
503.344	13120.14
503.547	13222.54
503.75	13607.56
503.953	13681.28
504.156	13712
504.359	13806.21
504.562	14021.25
504.765	14299.77
504.968	14373.5
505.17	14559.86
505.373	14701.17
505.576	15004.27
505.779	15116.91
505.982	15256.17
506.185	15471.21
506.387	15557.22
506.59	15544.94
506.793	15862.37
506.996	15970.91
507.198	16388.7
507.401	16233.05
507.604	16497.24
507.807	16732.76
508.009	16452.19
508.212	16743
508.415	17429.07
508.617	17379.92
508.82	17345.1
509.022	17179.22
509.225	17949.25
509.428	17832.52
509.63	18055.75
509.833	18252.35
510.035	18491.96
510.238	18528.83
510.44	18823.73
510.643	18987.57
510.845	19262
511.048	19065.39
511.25	19540.52
511.453	19489.32
511.655	20269.6
511.858	20351.52
512.06	19939.88
512.262	20539.93
512.465	20511.26
512.667	20953.62
512.87	21039.64
513.072	20959.77
513.274	21201.43
513.477	21860.87
513.679	21828.1
513.881	22077.96
514.084	22397.44
514.286	22303.23
514.488	22512.13
514.69	23214.58
514.893	23015.93
515.095	23058.93
515.297	23368.18
515.499	23601.65
515.701	23679.47
515.904	24127.97
516.106	24082.92
516.308	24582.62
516.51	25029.08
516.712	25080.28
516.914	25262.55
517.116	25647.57
517.318	25758.16
517.52	25754.06
517.722	25934.28
517.925	26274.24
518.127	26814.91
518.329	26577.34
518.531	26634.69
518.733	27126.2
518.935	27437.49
519.136	27113.91
519.338	27795.89
519.54	27916.72
519.742	28148.14
519.944	28232.1
520.146	28989.85
520.348	29004.19
520.55	29057.43
520.752	29053.34
520.954	29637.01
521.155	29323.67
521.357	30075.27
521.559	30159.24
521.761	30382.47
521.963	30349.7
522.164	31007.1
522.366	31025.53
522.568	30957.95
522.77	31506.8
522.971	31947.12
523.173	31617.39
523.375	32115.05
523.576	32225.64
523.778	31881.58
523.98	32532.84
524.181	32594.28
524.383	32825.7
524.584	33175.9
524.786	33192.28
524.988	33288.54
525.189	33548.63
525.391	33700.18
525.592	33804.63
525.794	33982.8
525.995	34240.84
526.197	34029.9
526.398	34199.88
526.6	34369.86
526.801	34574.66
527.003	34812.23
527.204	34605.38
527.406	35160.38
527.607	35199.29
527.808	35404.09
528.01	34820.42
528.211	35287.35
528.412	35998
528.614	35488.06
528.815	35832.11
529.016	36120.88
529.218	35547.45
529.419	35791.16
529.62	35936.56
529.822	36256.04
530.023	36303.15
530.224	36696.36
530.425	36104.49
530.626	36428.07
530.828	36122.93
531.029	37110.05
531.23	36530.47
531.431	36565.29
531.632	36880.67
531.833	37343.52
532.035	36872.48
532.236	36852
532.437	37239.07
532.638	36790.56
532.839	37218.59
533.04	37087.52
533.241	36550.95
533.442	37523.74
533.643	37273.88
533.844	37323.04
534.045	37220.64
534.246	37073.18
534.447	37568.79
534.648	37357.85
534.849	37880.08
535.05	37151.01
535.251	37738.77
535.451	37298.46
535.652	37402.91
535.853	36823.33
536.054	37419.29
536.255	37060.9
536.456	37079.33
536.657	37423.39
536.857	37468.44
537.058	37245.21
537.259	37720.34
537.46	37261.6
537.66	37290.27
537.861	37220.64
538.062	37409.05
538.263	37187.87
538.463	37122.33
538.664	37390.62
538.865	37517.59
539.065	37810.45
539.266	36935.97
539.466	37552.41
539.667	36874.53
539.868	37804.31
540.068	37527.83
540.269	37318.94
540.469	37521.69
540.67	37468.44
540.87	37191.97
541.071	37716.25
541.271	37486.87
541.472	37181.73
541.672	37171.49
541.873	37060.9
542.073	36655.4
542.274	37951.76
542.474	37372.19
542.675	37097.76
542.875	37572.89
543.075	37409.05
543.276	36999.46
543.476	37675.29
543.676	37277.98
543.877	37503.26
544.077	37132.57
544.277	37224.73
544.478	37368.09
544.678	37132.57
544.878	37343.52
545.078	37196.06
545.279	36901.15
545.479	36925.73
545.679	37583.13
545.879	37237.02
546.079	37126.43
546.28	37392.67
546.48	36544.81
546.68	37290.27
546.88	37464.35
547.08	36985.12
547.28	36958.5
547.48	36821.28
547.68	37312.8
547.88	36509.99
548.081	36860.19
548.281	36829.48
548.481	36548.9
548.681	37218.59
548.881	36970.79
549.081	37286.17
549.28	37175.58
549.48	37261.6
549.68	36862.24
549.88	37347.61
550.08	36817.19
550.28	37122.33
550.48	36696.36
550.68	37376.28
550.88	36729.12
551.08	36677.93
551.279	36905.25
551.479	36890.91
551.679	36624.68
551.879	36792.61
552.079	37148.96
552.278	37001.5
552.478	36714.79
552.678	36684.07
552.878	37007.65
553.077	36938.02
553.277	36376.87
553.477	37134.62
553.676	36722.98
553.876	36518.18
554.076	36321.58
554.275	36487.46
554.475	36376.87
554.674	36356.39
554.874	36878.63
555.074	36489.51
555.273	36770.08
555.473	36757.8
555.672	36163.89
555.872	36518.18
556.071	36131.12
556.271	36569.38
556.47	36167.98
556.67	36141.36
556.869	36254
557.068	36583.72
557.268	35879.22
557.467	35864.88
557.667	35660.09
557.866	35772.72
558.065	36053.3
558.265	35782.96
558.464	35713.33
558.663	36159.79
558.863	35520.82
559.062	36055.34
559.261	35385.66
559.461	35787.06
559.66	35103.04
559.859	35385.66
560.058	35324.22
560.258	35279.16
560.457	35457.34
560.656	35207.48
560.855	35262.78
561.054	35377.47
561.253	34965.82
561.453	35221.82
561.652	35557.69
561.851	35107.13
562.05	34859.33
562.249	34869.57
562.448	35021.12
562.647	34584.9
562.846	34490.7
563.045	34789.7
563.244	34427.21
563.443	34801.99
563.642	34482.5
563.841	34482.5
564.04	34431.3
564.239	34236.75
564.438	33694.04
564.637	34064.72
564.836	34054.48
565.035	33745.23
565.234	34081.1
565.432	33452.37
565.631	33493.33
565.83	33782.1
566.029	33526.1
566.228	33415.51
566.427	33134.94
566.625	33587.54
566.824	33223
567.023	33458.52
567.222	32768.35
567.42	32964.96
567.619	32780.64
567.818	32973.15
568.016	32854.37
568.215	33233.24
568.414	32606.56
568.612	32704.87
568.811	32455.01
569.01	32323.94
569.208	32168.3
569.407	32827.74
569.605	32125.29
569.804	32702.82
570.002	32088.43
570.201	32248.17
570.4	31789.42
570.598	31850.86
570.797	31732.08
570.995	31732.08
571.193	31314.3
571.392	31625.59
571.59	31349.11
571.789	31541.62
571.987	31240.57
572.186	31240.57
572.384	31158.65
572.582	31158.65
572.781	31449.46
572.979	30802.3
573.177	30994.81
573.376	30933.37
573.574	30802.3
573.772	31017.34
573.971	30675.33
574.169	30421.38
574.367	30312.84
574.565	30581.12
574.763	30187.91
574.962	30116.23
575.16	30280.07
575.358	29966.73
575.556	29880.72
575.754	30028.17
575.952	29421.97
576.151	30001.55
576.349	29921.68
576.547	29481.36
576.745	29548.95
576.943	29557.14
577.141	29350.29
577.339	29432.21
577.537	29299.09
577.735	29290.9
577.933	28678.56
578.131	29061.53
578.329	28658.08
578.527	28678.56
578.725	28653.98
578.923	28690.85
579.121	28617.12
579.319	28275.11
579.516	28709.28
579.714	28281.25
579.912	28291.49
580.11	28197.29
580.308	28311.97
580.506	28113.32
580.704	27781.55
580.901	28330.41
581.099	28035.5
581.297	28051.88
581.495	27795.89
581.692	27724.21
581.89	27564.46
582.088	27570.61
582.285	27257.27
582.483	27509.17
582.681	27171.25
582.878	27025.85
583.076	26841.53
583.274	27224.5
583.471	26579.39
583.669	26767.8
583.866	26628.54
584.064	26900.92
584.262	26442.18
584.459	26948.03
584.657	26679.74
584.854	26501.57
585.052	25985.48
585.249	26520
585.447	26579.39
585.644	26157.51
585.841	25948.62
586.039	26493.38
586.236	25872.84
586.434	26139.08
586.631	25891.27
586.828	25870.79
587.026	25860.55
587.223	25577.94
587.42	25219.54
587.618	25428.43
587.815	25338.32
588.012	25188.82
588.21	25031.13
588.407	25477.58
588.604	25059.8
588.801	24811.99
588.999	25084.37
589.196	24887.77
589.393	24850.91
589.59	24578.53
589.787	24816.09
589.984	24486.37
590.182	24318.43
590.379	24601.05
590.576	24316.39
590.773	24517.09
590.97	24367.59
591.167	24248.8
591.364	23882.22
591.561	24297.95
591.758	23779.82
591.955	23841.26
592.152	24048.1
592.349	23841.26
592.546	23792.11
592.743	23747.05
592.94	23566.83
593.137	23474.67
593.334	23648.75
593.531	23241.2
593.727	23437.81
593.924	23443.95
594.121	23024.12
594.318	23187.96
594.515	22981.11
594.712	23081.46
594.908	23036.41
595.105	23271.92
595.302	22993.4
595.499	22643.2
595.696	22655.48
595.892	22348.29
596.089	22819.32
596.286	22501.89
596.482	22485.5
596.679	22684.16
596.876	22336
597.072	22104.58
597.269	22143.49
597.466	22041.09
597.662	22008.33
597.859	22082.05
598.055	22051.33
598.252	21889.54
598.448	21758.47
598.645	21852.68
598.841	21656.07
599.038	21248.53
599.234	21617.16
599.431	21387.79
599.627	21008.92
599.824	21482
600.02	21111.32
600.217	21363.22
600.413	21035.54
600.609	20961.81
600.806	21043.73
601.002	20992.53
601.198	20726.3
601.395	20853.27
601.591	20533.79
601.787	20664.86
601.984	20560.41
602.18	20722.2
602.376	20572.7
602.572	20359.71
602.769	20384.29
602.965	20277.79
603.161	20152.87
603.357	20124.19
603.553	20113.95
603.75	20171.3
603.946	19966.5
604.142	19972.64
604.338	19882.53
604.534	19728.94
604.73	19581.48
604.926	19454.51
605.122	19827.24
605.318	19739.18
605.514	19405.36
605.71	19663.4
605.906	19307.05
606.102	19479.08
606.298	19452.46
606.494	19163.7
606.69	19264.05
606.886	19307.05
607.082	19141.17
607.278	19444.27
607.474	18885.17
607.67	18979.38
607.866	18608.7
608.062	19167.79
608.257	18799.16
608.453	18854.45
608.649	18866.74
608.845	18840.12
609.041	18594.36
609.236	18801.21
609.432	18635.32
609.628	18471.48
609.824	18506.3
610.019	18629.18
610.215	18584.12
610.411	18420.28
610.606	18111.04
610.802	18274.88
610.998	18321.98
611.193	18330.17
611.389	18035.27
611.584	18182.72
611.78	17744.45
611.976	18086.47
612.171	18131.52
612.367	18002.5
612.562	17924.68
612.758	17764.93
612.953	17404.49
613.149	18010.69
613.344	17752.65
613.539	18053.7
613.735	17908.29
613.93	17646.15
614.126	17578.57
614.321	17648.2
614.517	17771.08
614.712	17697.35
614.907	17422.92
615.103	17578.57
615.298	17531.47
615.493	17662.54
615.688	17230.41
615.884	17533.51
616.079	17293.9
616.274	17443.4
616.47	16898.64
616.665	17402.44
616.86	17093.2
617.055	17025.62
617.25	16790.1
617.445	17355.34
617.641	16976.47
617.836	16925.27
618.031	16718.42
618.226	16910.93
618.421	16779.86
618.616	16867.92
618.811	16613.98
619.006	16921.17
619.201	16384.6
619.396	16613.98
619.591	16134.75
619.786	16466.52
619.981	16341.6
620.176	16269.92
620.371	16110.18
620.566	16122.46
620.761	15809.12
620.956	16222.81
621.151	15938.15
621.346	16081.5
621.541	15669.86
621.735	15708.77
621.93	15649.38
622.125	15463.02
622.32	15600.23
622.515	15569.51
622.709	15475.31
622.904	15354.48
623.099	15319.66
623.294	15340.14
623.488	14893.68
623.683	15237.74
623.878	14832.24
624.072	14885.49
624.267	14793.33
624.462	14641.78
624.656	14715.51
624.851	14602.87
625.046	14369.4
625.24	14467.7
625.435	14414.46
625.629	14051.97
625.824	14277.24
626.018	14140.03
626.213	13941.38
626.407	13881.99
626.602	13673.09
626.796	13683.33
626.991	13650.57
627.185	13845.12
627.38	13630.09
627.574	13382.28
627.768	13437.58
627.963	13384.33
628.157	13189.77
628.352	13277.83
628.546	12892.82
628.74	13294.22
628.935	12724.88
629.129	13107.85
629.323	12788.37
629.517	12714.64
629.712	12798.61
629.906	12911.25
630.1	12526.23
630.294	12296.86
630.489	12200.6
630.683	12544.66
630.877	12298.91
631.071	12397.21
631.265	12253.85
631.459	12147.36
631.653	11893.41
631.848	12096.16
632.042	11963.04
632.236	11899.55
632.43	11836.06
632.624	11942.56
632.818	11563.68
633.012	11575.97
633.206	11559.59
633.4	11690.66
633.594	11322.02
633.788	11369.13
633.982	11350.7
634.176	11299.5
634.369	11252.39
634.563	11160.24
634.757	11186.86
634.951	11043.5
635.145	11035.31
635.339	11080.36
635.533	10846.9
635.726	10963.63
635.92	10617.52
636.114	10762.93
636.308	10687.15
636.501	10824.37
636.695	10785.46
636.889	10492.6
637.083	10357.43
637.276	10410.68
637.47	10173.11
637.664	10144.44
637.857	10271.42
638.051	10392.25
638.244	9964.22
638.438	10037.95
638.632	9933.5
638.825	9636.55
639.019	9964.22
639.212	9865.92
639.406	9792.19
639.599	9589.44
639.793	9763.52
639.986	9661.12
640.18	9636.55
640.373	9519.81
640.567	9413.32
640.76	9577.16
640.954	9423.56
641.147	9353.93
641.34	9231.05
641.534	9188.04
641.727	9355.97
641.92	9224.9
642.114	9036.49
642.307	9097.93
642.5	8944.33
642.694	8614.61
642.887	8862.41
643.08	9081.55
643.273	8964.81
643.467	8964.81
643.66	8661.71
643.853	8585.94
644.046	8602.32
644.239	8497.88
644.432	8555.22
644.626	8501.97
644.819	8508.12
645.012	8432.34
645.205	8370.9
645.398	8239.83
645.591	8319.7
645.784	8274.65
645.977	8131.29
646.17	8129.24
646.363	8100.57
646.556	8057.56
646.749	7897.82
646.942	8063.71
647.135	8057.56
647.328	7676.64
647.521	7783.13
647.714	7779.04
647.907	7766.75
648.099	7547.62
648.292	7662.3
648.485	7619.3
648.678	7576.29
648.871	7400.16
649.064	7500.51
649.256	7545.57
649.449	7430.88
649.642	7353.06
649.835	7351.01
650.027	7367.4
650.22	7402.21
650.413	7037.67
650.605	7168.74
650.798	7101.16
650.991	7178.98
651.183	7168.74
651.376	7156.46
651.568	6947.56
651.761	6955.76
651.954	7006.95
652.146	6879.98
652.339	6785.77
652.531	6695.66
652.724	6689.52
652.916	6640.37
653.109	6699.76
653.301	6830.83
653.494	6753.01
653.686	6527.73
653.879	6636.27
654.071	6552.31
654.263	6441.72
654.456	6458.1
654.648	6548.21
654.84	6400.76
655.033	6466.29
655.225	6175.48
655.417	6312.69
655.61	6202.1
655.802	6247.16
655.994	6175.48
656.186	6177.53
656.379	6179.58
656.571	6032.12
656.763	5944.06
656.955	6021.88
657.148	6114.04
657.34	5927.67
657.532	5913.34
657.724	5876.48
657.916	5872.38
658.108	5948.15
658.3	5780.22
658.492	5772.03
658.684	5626.62
658.876	5806.84
659.068	5577.47
659.26	5647.1
659.452	5731.07
659.644	5606.14
659.836	5536.51
660.028	5544.7
660.22	5513.99
660.412	5450.5
660.604	5403.39
660.796	5450.5
660.988	5487.36
661.18	5440.26
661.372	5399.3
661.563	5309.19
661.755	5315.33
661.947	5253.89
662.139	5378.82
662.331	5104.39
662.522	5288.71
662.714	5088.01
662.906	5096.2
663.097	5047.05
663.289	5073.67
663.481	5049.1
663.673	5026.57
663.864	5094.15
664.056	4985.61
664.247	4958.99
664.439	4969.23
664.631	4926.22
664.822	4981.51
665.014	4856.59
665.205	4864.78
665.397	4918.03
665.588	4821.77
665.78	4707.09
665.971	4739.85
666.163	4778.76
666.354	4715.28
666.546	4836.11
666.737	4829.96
666.929	4588.3
667.12	4625.17
667.311	4576.02
667.503	4522.77
667.694	4553.49
667.885	4463.38
668.077	4434.71
668.268	4428.56
668.459	4352.79
668.651	4526.86
668.842	4537.1
669.033	4504.34
669.224	4367.12
669.416	4408.08
669.607	4252.44
669.798	4180.76
669.989	4346.64
670.18	4260.63
670.371	4311.83
670.563	4227.86
670.754	4274.96
670.945	4293.4
671.136	4291.35
671.327	4176.66
671.518	4160.28
671.709	4260.63
671.9	4244.24
672.091	4043.54
672.282	4084.5
672.473	3986.2
672.664	3959.58
672.855	3961.62
673.046	4094.74
673.237	4086.55
673.428	3898.14
673.619	4049.69
673.809	4012.82
674	3873.56
674.191	3943.19
674.382	3904.28
674.573	3975.96
674.764	3877.66
674.954	3975.96
675.145	3808.03
675.336	3904.28
675.527	3848.99
675.717	3738.4
675.908	3805.98
676.099	3857.18
676.289	3795.74
676.48	3754.78
676.671	3775.26
676.861	3674.91
677.052	3621.66
677.243	3781.4
677.433	3734.3
677.624	3758.88
677.814	3695.39
678.005	3648.29
678.195	3679.01
678.386	3613.47
678.576	3552.03
678.767	3619.61
678.957	3568.41
679.148	3683.1
679.338	3631.9
679.529	3480.35
679.719	3490.59
679.909	3549.98
680.1	3556.13
680.29	3609.37
680.481	3451.68
680.671	3556.13
680.861	3488.54
681.052	3529.5
681.242	3486.5
681.432	3418.91
681.622	3461.92
681.813	3396.39
682.003	3433.25
682.193	3502.88
682.383	3500.83
682.573	3431.2
682.764	3529.5
682.954	3404.58
683.144	3283.75
683.334	3353.38
683.524	3339.04
683.714	3402.53
683.904	3304.23
684.094	3273.51
684.284	3353.38
684.474	3228.45
684.664	3257.12
684.854	3306.27
685.044	3365.67
685.234	3173.16
685.424	3320.61
685.614	3226.4
685.804	3175.2
685.994	3146.53
686.184	3275.56
686.374	3124.01
686.564	3078.95
686.753	3111.72
686.943	3066.66
687.133	3105.57
687.323	3271.46
687.513	3154.73
687.702	3021.61
687.892	3015.46
688.082	3085.09
688.272	3097.38
688.461	3109.67
688.651	3130.15
688.841	3138.34
689.03	2960.17
689.22	2941.74
689.41	2923.3
689.599	3005.22
689.789	2939.69
689.979	2999.08
690.168	2958.12
690.358	2859.82
690.547	2779.95
690.737	2822.95
690.926	2777.9
691.116	2874.15
691.305	2825
691.495	2882.35
691.684	2761.52
691.874	2845.48
692.063	2892.59
692.252	2863.91
692.442	2642.73
692.631	2861.87
692.82	2806.57
693.01	2751.28
693.199	2720.56
693.388	2599.73
693.578	2876.2
693.767	2773.8
693.956	2640.69
694.146	2636.59
694.335	2589.49
694.524	2648.88
694.713	2669.36
694.902	2558.77
695.092	2657.07
695.281	2542.38
695.47	2736.94
695.659	2599.73
695.848	2556.72
696.037	2573.1
696.226	2597.68
696.415	2642.73
696.604	2612.01
696.793	2626.35
696.982	2566.96
697.171	2679.6
697.36	2624.3
697.549	2620.21
697.738	2550.57
697.927	2442.03
698.116	2603.82
698.305	2513.71
698.494	2575.15
698.683	2519.85
698.872	2667.31
699.061	2495.28
699.25	2419.5
699.438	2464.56
699.627	2530.09
699.816	2480.94
700.005	2466.61
700.193	2677.55
700.382	2513.71
700.571	2605.87
700.76	2468.66
700.948	2534.19
701.137	2482.99
701.326	2597.68
701.514	2394.93
701.703	2433.84
701.892	2403.12
702.08	2603.82
702.269	2476.85
702.457	2442.03
702.646	2419.5
702.834	2485.04
703.023	2487.09
703.212	2413.36
703.4	2444.08
703.589	2423.6
703.777	2439.98
703.965	2335.54
704.154	2390.83
704.342	2503.47
704.531	2482.99
704.719	2439.98
704.907	2444.08
705.096	2401.07
705.284	2378.55
705.472	2405.17
705.661	2470.7
705.849	2446.13
706.037	2425.65
706.226	2433.84
706.414	2419.5
706.602	2341.68
706.79	2403.12
706.979	2411.31
707.167	2415.41
707.355	2454.32
707.543	2399.02
707.731	2423.6
707.919	2349.87
708.107	2298.67
708.296	2421.55
708.484	2227
708.672	2419.5
708.86	2341.68
709.048	2439.98
709.236	2499.38
709.424	2437.94
709.612	2374.45
709.8	2448.18
709.988	2444.08
710.176	2394.93
710.364	2356.02
710.551	2386.74
710.739	2288.43
710.927	2356.02
711.115	2247.48
711.303	2321.2
711.491	2310.96
711.679	2243.38
711.866	2399.02
712.054	2321.2
712.242	2321.2
712.43	2362.16
712.617	2356.02
712.805	2409.26
712.993	2245.43
713.181	2370.35
713.368	2458.42
713.556	2366.26
713.744	2327.35
713.931	2300.72
714.119	2353.97
714.306	2360.11
714.494	2290.48
714.682	2202.42
714.869	2372.4
715.057	2384.69
715.244	2243.38
715.432	2296.63
715.619	2214.71
715.807	2239.28
715.994	2308.91
716.182	2302.77
716.369	2235.19
716.556	2296.63
716.744	2274.1
716.931	2222.9
717.119	2358.07
717.306	2302.77
717.493	2247.48
717.681	2278.19
717.868	2239.28
718.055	2323.25
718.242	2280.24
718.43	2288.43
718.617	2347.83
718.804	2200.37
718.991	2276.15
719.179	2163.51
719.366	2349.87
719.553	2169.65
719.74	2224.95
719.927	2229.04
720.114	2315.06
720.301	2218.8
720.488	2190.13
720.676	2249.52
720.863	2220.85
721.05	2136.88
721.237	2284.34
721.424	2272.05
721.611	2253.62
721.798	2181.94
721.985	2190.13
722.172	2175.8
722.358	2249.52
722.545	2081.59
722.732	2136.88
722.919	2239.28
723.106	2274.1
723.293	2220.85
723.48	2165.56
723.667	2132.79
723.853	2263.86
724.04	2388.78
724.227	2276.15
724.414	2136.88
724.6	2147.12
724.787	2227
724.974	2192.18
725.161	2263.86
725.347	2202.42
725.534	2126.64
725.72	2325.3
725.907	2231.09
726.094	2251.57
726.28	2114.36
726.467	2175.8
726.653	2128.69
726.84	2192.18
727.027	2116.41
727.213	2173.75
727.4	2245.43
727.586	2280.24
727.773	2022.2
727.959	2108.21
728.145	2214.71
728.332	2175.8
728.518	2153.27
728.705	2120.5
728.891	2145.08
729.077	2126.64
729.264	2075.45
729.45	2167.6
729.636	2194.23
729.823	2243.38
730.009	2175.8
730.195	2130.74
730.382	2179.89
730.568	2200.37
730.754	2173.75
730.94	2042.68
731.126	2140.98
731.313	2181.94
731.499	2081.59
731.685	2165.56
731.871	2087.73
732.057	2134.84
732.243	2190.13
732.429	2061.11
732.615	2097.97
732.801	2112.31
732.987	2165.56
733.173	2136.88
733.359	2030.39
733.545	2095.93
733.731	2050.87
733.917	2163.51
734.103	2100.02
734.289	2063.16
734.475	2071.35
734.661	2097.97
734.847	2128.69
735.033	2110.26
735.219	2063.16
735.404	2032.44
735.59	2077.49
735.776	2190.13
735.962	2171.7
736.148	2118.45
736.333	2059.06
736.519	2130.74
736.705	2077.49
736.89	2001.72
737.076	2026.29
737.262	2042.68
737.447	2067.25
737.633	1993.53
737.819	2050.87
738.004	2073.4
738.19	1991.48
738.375	1993.53
738.561	2063.16
738.747	1991.48
738.932	2048.82
739.118	2034.49
739.303	2007.86
739.489	1975.1
739.674	2100.02
739.859	1958.71
740.045	2042.68
740.23	2050.87
740.416	1993.53
740.601	1821.5
740.786	1942.33
740.972	1835.83
741.157	2003.77
741.342	1891.13
741.528	1844.03
741.713	1981.24
741.898	1950.52
742.084	1952.57
742.269	1884.98
742.454	1891.13
742.639	1993.53
742.824	1893.18
743.01	1921.85
743.195	1835.83
743.38	1934.14
743.565	1948.47
743.75	1864.5
743.935	1887.03
744.12	1960.76
744.305	1813.31
744.49	1829.69
744.675	1790.78
744.86	1860.41
745.045	1856.31
745.23	1788.73
745.415	1784.63
745.6	1762.11
745.785	1682.24
745.97	1835.83
746.155	1764.15
746.34	1844.03
746.525	1760.06
746.71	1727.29
746.895	1641.28
747.079	1657.66
747.264	1674.04
747.449	1628.99
747.634	1678.14
747.819	1643.32
748.003	1774.39
748.188	1651.52
748.373	1639.23
748.557	1549.12
748.742	1669.95
748.927	1637.18
749.111	1528.64
749.296	1491.77
749.481	1667.9
749.665	1581.89
749.85	1600.32
750.034	1612.6
750.219	1563.45
750.404	1588.03
750.588	1491.77
750.773	1547.07
750.957	1581.89
751.141	1422.14
751.326	1424.19
751.51	1469.25
751.695	1573.69
751.879	1438.53
752.064	1510.21
752.248	1403.71
752.432	1440.58
752.617	1538.88
752.801	1493.82
752.985	1452.86
753.17	1387.33
753.354	1276.74
753.538	1465.15
753.722	1346.37
753.907	1289.03
754.091	1342.27
754.275	1379.14
754.459	1340.22
754.643	1327.94
754.828	1307.46
755.012	1282.88
755.196	1215.3
755.38	1256.26
755.564	1243.97
755.748	1223.49
755.932	1213.25
756.116	1207.11
756.3	1155.91
756.484	1192.77
756.668	1262.4
756.852	1203.01
757.036	1254.21
757.22	1207.11
757.404	1170.24
757.588	1229.63
757.772	1256.26
757.956	1145.67
758.14	1203.01
758.323	1145.67
758.507	998.21
758.691	1071.94
758.875	1203.01
759.059	1160
759.242	1166.15
759.426	1119.04
759.61	963.4
759.794	1168.2
759.977	1078.08
760.161	1102.66
760.345	1063.75
760.528	1043.27
760.712	1047.37
760.895	1170.24
761.079	1012.55
761.263	1067.85
761.446	1002.31
761.63	992.07
761.813	996.17
761.997	1092.42
762.18	1000.26
762.364	1006.41
762.547	992.07
762.731	1018.69
762.914	1020.74
763.098	1000.26
763.281	1008.45
763.464	1049.41
763.648	1049.41
763.831	914.25
764.015	912.2
764.198	951.11
764.381	965.45
764.564	951.11
764.748	1033.03
764.931	1059.65
765.114	934.73
765.297	891.72
765.481	949.06
765.664	973.64
765.847	897.86
766.03	998.21
766.213	977.73
766.397	914.25
766.58	865.1
766.763	908.1
766.946	965.45
767.129	861
767.312	963.4
767.495	918.34
767.678	844.62
767.861	934.73
768.044	926.54
768.227	910.15
768.41	924.49
768.593	856.9
768.776	846.66
768.959	817.99
769.142	815.94
769.324	807.75
769.507	813.9
769.69	901.96
769.873	834.38
770.056	783.18
770.239	854.86
770.421	875.34
770.604	820.04
770.787	785.23
770.97	756.55
771.152	797.51
771.335	772.94
771.518	785.23
771.7	828.23
771.883	850.76
772.066	797.51
772.248	787.27
772.431	807.75
772.613	680.78
772.796	766.79
772.978	820.04
773.161	817.99
773.343	781.13
773.526	709.45
773.708	688.97
773.891	664.4
774.073	684.87
774.256	631.63
774.438	744.27
774.621	734.03
774.803	709.45
774.985	760.65
775.168	619.34
775.35	635.72
775.532	648.01
775.715	682.83
775.897	744.27
776.079	666.44
776.261	672.59
776.444	672.59
776.626	598.86
776.808	666.44
776.99	654.16
777.173	707.4
777.355	656.2
777.537	699.21
777.719	609.1
777.901	676.68
778.083	627.53
778.265	592.72
778.447	678.73
778.629	682.83
778.811	613.2
778.993	637.77
779.175	650.06
779.357	633.68
779.539	693.07
779.721	592.72
779.903	551.76
780.085	518.99
780.267	564.04
780.449	635.72
780.631	539.47
780.812	535.37
780.994	523.09
781.176	512.85
781.358	592.72
781.54	537.42
781.721	504.65
781.903	537.42
782.085	535.37
782.267	557.9
782.448	514.89
782.63	494.41
782.812	500.56
782.993	510.8
783.175	492.37
783.357	445.26
783.538	430.93
783.72	459.6
783.901	504.65
784.083	469.84
784.264	439.12
784.446	445.26
784.627	424.78
784.809	469.84
784.99	396.11
785.172	408.4
785.353	445.26
785.535	418.64
785.716	430.93
785.897	410.45
786.079	461.65
786.26	467.79
786.441	457.55
786.623	416.59
786.804	463.69
786.985	387.92
787.167	367.44
787.348	445.26
787.529	369.49
787.71	320.34
787.891	367.44
788.073	379.73
788.254	430.93
788.435	394.06
788.616	373.58
788.797	426.83
788.978	363.34
789.159	318.29
789.34	377.68
789.522	308.05
789.703	369.49
789.884	340.82
790.065	377.68
790.246	332.62
790.427	346.96
790.607	322.38
790.788	355.15
790.969	346.96
791.15	396.11
791.331	338.77
791.512	359.25
791.693	400.21
791.874	365.39
792.054	277.33
792.235	310.1
792.416	279.38
792.597	344.91
792.778	355.15
792.958	252.75
793.139	373.58
793.32	242.51
793.5	275.28
793.681	306
793.862	351.06
794.042	283.47
794.223	254.8
794.404	224.08
794.584	250.71
794.765	285.52
794.945	256.85
795.126	291.66
795.306	334.67
795.487	324.43
795.667	271.19
795.848	281.43
796.028	277.33
796.209	256.85
796.389	291.66
796.57	312.14
796.75	209.75
796.93	293.71
797.111	295.76
797.291	346.96
797.471	293.71
797.652	217.94
797.832	217.94
798.012	240.47
798.192	265.04
798.373	262.99
798.553	232.27
798.733	265.04
798.913	224.08
799.093	232.27
799.274	238.42
799.454	293.71
799.634	273.23
799.814	273.23
799.994	219.99
800.174	320.34
800.354	246.61
800.534	236.37
800.714	162.64
800.894	228.18
801.074	181.07
801.254	267.09
801.434	172.88
801.614	179.03
801.794	203.6
801.974	619.34
802.154	228.18
802.334	195.41
802.514	127.83
802.693	185.17
802.873	222.03
803.053	310.1
803.233	140.12
803.413	297.81
803.592	256.85
803.772	181.07
803.952	244.56
804.131	142.16
804.311	240.47
804.491	230.23
804.67	156.5
804.85	209.75
805.03	205.65
805.209	201.55
805.389	193.36
805.568	224.08
805.748	164.69
805.928	215.89
806.107	224.08
806.287	164.69
806.466	193.36
806.646	133.97
806.825	205.65
807.004	242.51
807.184	201.55
807.363	174.93
807.543	127.83
807.722	185.17
807.901	238.42
808.081	217.94
808.26	144.21
808.439	215.89
808.619	222.03
808.798	152.4
808.977	207.7
809.156	226.13
809.336	183.12
809.515	174.93
809.694	148.31
809.873	172.88
810.052	238.42
810.231	205.65
810.411	197.46
810.59	189.27
810.769	162.64
810.948	160.59
811.127	37.72
811.306	187.22
811.485	207.7
811.664	234.32
811.843	136.02
812.022	215.89
812.201	95.06
812.38	203.6
812.559	172.88
812.737	174.93
812.916	146.26
813.095	127.83
813.274	148.31
813.453	127.83
813.632	138.07
813.811	156.5
813.989	97.11
814.168	131.92
814.347	78.68
814.526	117.59
814.704	144.21
814.883	99.16
815.062	168.79
815.24	179.03
815.419	88.92
815.598	123.73
815.776	74.58
815.955	211.79
816.133	144.21
816.312	131.92
816.49	97.11
816.669	62.29
816.847	133.97
817.026	230.23
817.204	76.63
817.383	199.51
817.561	140.12
817.74	172.88
817.918	144.21
818.097	129.88
818.275	68.44
818.453	133.97
818.632	117.59
818.81	146.26
818.988	95.06
819.167	189.27
819.345	88.92
819.523	154.45
819.701	142.16
819.879	109.4
820.058	84.82
820.236	140.12
820.414	183.12
820.592	101.2
820.77	119.64
820.948	154.45
821.127	86.87
821.305	93.01
821.483	11.09
821.661	136.02
821.839	76.63
822.017	127.83
822.195	127.83
822.373	158.55
822.551	148.31
822.729	107.35
822.907	101.2
823.085	103.25
823.262	140.12
823.44	86.87
823.618	62.29
823.796	152.4
823.974	166.74
824.152	72.53
824.329	56.15
824.507	109.4
824.685	150.36
824.863	109.4
825.04	64.34
825.218	117.59
825.396	86.87
825.574	138.07
825.751	121.68
825.929	152.4
826.107	62.29
826.284	82.77
826.462	31.57
826.639	84.82
826.817	43.86
826.994	107.35
827.172	33.62
827.349	111.44
827.527	37.72
827.704	58.2
827.882	131.92
828.059	72.53
828.237	131.92
828.414	58.2
828.591	45.91
828.769	121.68
828.946	148.31
829.124	60.24
829.301	150.36
829.478	72.53
829.655	162.64
829.833	111.44
830.01	45.91
830.187	107.35
830.364	78.68
830.542	115.54
830.719	80.72
830.896	99.16
831.073	47.96
831.25	72.53
831.427	113.49
831.604	27.48
831.782	47.96
831.959	68.44
832.136	80.72
832.313	37.72
832.49	105.3
832.667	19.29
832.844	80.72
833.021	119.64
833.198	33.62
833.374	119.64
833.551	80.72
833.728	70.48
833.905	62.29
834.082	101.2
834.259	107.35
834.436	107.35
834.612	27.48
834.789	86.87
834.966	7
835.143	113.49
835.319	54.1
835.496	84.82
835.673	127.83
835.85	107.35
836.026	107.35
836.203	88.92
836.38	50
836.556	11.09
836.733	88.92
836.909	80.72
837.086	62.29
837.262	70.48
837.439	41.81
837.616	17.24
837.792	66.39
837.968	76.63
838.145	35.67
838.321	33.62
838.498	62.29
838.674	90.96
838.851	88.92
839.027	103.25
839.203	115.54
839.38	29.52
839.556	0.85
839.732	72.53
839.909	93.01
840.085	80.72
840.261	25.43
840.437	60.24
840.614	21.33
840.79	29.52
840.966	-19.63
841.142	47.96
841.318	-64.68
841.494	23.38
841.671	99.16
841.847	78.68
842.023	64.34
842.199	41.81
842.375	74.58
842.551	-1.19
842.727	-3.24
842.903	115.54
843.079	-17.58
843.255	58.2
843.431	9.05
843.607	56.15
843.783	27.48
843.959	35.67
844.134	15.19
844.31	35.67
844.486	31.57
844.662	25.43
844.838	-1.19
845.013	50
845.189	39.76
845.365	43.86
845.541	-25.77
845.716	31.57
845.892	123.73
846.068	-7.34
846.244	68.44
846.419	-1.19
846.595	-1.19
846.77	95.06
846.946	99.16
847.122	72.53
847.297	41.81
847.473	45.91
847.648	39.76
847.824	19.29
847.999	19.29
848.175	2.9
848.35	82.77
848.526	60.24
848.701	-3.24
848.876	66.39
849.052	19.29
849.227	29.52
849.403	-33.96
849.578	-5.29
849.753	-38.06
849.929	56.15
850.104	-5.29
850.279	37.72
850.454	33.62
850.63	64.34
850.805	52.05
850.98	127.83
851.155	41.81
851.33	109.4
851.505	33.62
851.681	43.86
851.856	-1.19
852.031	52.05
852.206	-9.39
852.381	11.09
852.556	45.91
852.731	99.16
852.906	17.24
853.081	62.29
853.256	80.72
853.431	43.86
853.606	11.09
853.781	-1.19
853.956	29.52
854.131	39.76
854.305	-1.19
854.48	-33.96
854.655	4.95
854.83	21.33
855.005	9.05
855.18	2.9
855.354	7
855.529	17.24
855.704	15.19
855.879	45.91
856.053	25.43
856.228	39.76
856.403	-17.58
856.577	41.81
856.752	-48.3
856.926	72.53
857.101	-21.67
857.276	15.19
857.45	72.53
857.625	29.52
857.799	29.52
857.974	-9.39
858.148	35.67
858.323	13.14
858.497	7
858.672	25.43
858.846	17.24
859.02	13.14
859.195	-13.48
859.369	2.9
859.543	88.92
859.718	47.96
859.892	2.9
860.066	-1.19
860.241	76.63
860.415	-91.31
860.589	-3.24
860.763	41.81
860.938	-5.29
861.112	-3.24
861.286	9.05
861.46	39.76
861.634	52.05
861.808	43.86
861.982	-81.07
862.157	39.76
862.331	7
862.505	37.72
862.679	31.57
862.853	-11.43
863.027	43.86
863.201	17.24
863.375	-5.29
863.549	-1.19
863.722	11.09
863.896	-7.34
864.07	-42.15
864.244	-13.48
864.418	88.92
864.592	-21.67
864.766	25.43
864.939	125.78
865.113	-15.53
865.287	97.11
865.461	31.57
865.634	39.76
865.808	-21.67
865.982	-7.34
866.156	72.53
866.329	-3.24
866.503	-15.53
866.676	15.19
866.85	-54.44
867.024	-21.67
867.197	-15.53
867.371	4.95
867.544	-21.67
867.718	17.24
867.891	2.9
868.065	31.57
868.238	27.48
868.412	-1.19
868.585	29.52
868.759	43.86
868.932	35.67
869.105	-21.67
869.279	72.53
869.452	97.11
869.625	-3.24
869.799	-17.58
869.972	45.91
870.145	29.52
870.319	21.33
870.492	-31.91
870.665	-76.97
870.838	74.58
871.011	-31.91
871.185	-17.58
871.358	54.1
871.531	9.05
871.704	-42.15
871.877	13.14
872.05	-21.67
872.223	43.86
872.396	19.29
872.569	15.19
872.742	19.29
872.915	21.33
873.088	-44.2
873.261	-5.29
873.434	33.62
873.607	50
873.78	13.14
873.953	-54.44
874.126	35.67
874.299	-54.44
874.471	23.38
874.644	35.67
874.817	93.01
874.99	101.2
875.163	-52.39
875.335	39.76
875.508	-56.49
875.681	21.33
875.853	76.63
876.026	4.95
876.199	-11.43
876.371	-19.63
876.544	2.9
876.717	39.76
876.889	-40.11
877.062	11.09
877.234	23.38
877.407	7
877.579	-11.43
877.752	37.72
877.924	-68.78
878.097	9.05
878.269	41.81
878.442	23.38
878.614	47.96
878.786	27.48
878.959	-15.53
879.131	23.38
879.303	23.38
879.476	64.34
879.648	-42.15
879.82	54.1
879.993	-46.25
880.165	-7.34
880.337	-21.67
880.509	-3.24
880.681	88.92
880.854	45.91
881.026	-27.82
881.198	4.95
881.37	27.48
881.542	-44.2
881.714	47.96
881.886	58.2
882.058	-9.39
882.23	78.68
882.402	-3.24
882.574	133.97
882.746	64.34
882.918	45.91
883.09	52.05
883.262	9.05
883.434	-5.29
883.606	45.91
883.778	-17.58
883.95	27.48
884.122	9.05
884.293	21.33
884.465	7
884.637	-7.34
884.809	-29.87
884.98	54.1
885.152	-5.29
885.324	-31.91
885.496	13.14
885.667	-21.67
885.839	72.53
886.011	11.09
886.182	11.09
886.354	64.34
886.525	58.2
886.697	-38.06
886.869	47.96
887.04	21.33
887.212	-62.63
887.383	43.86
887.555	19.29
887.726	47.96
887.897	47.96
888.069	43.86
888.24	-25.77
888.412	19.29
888.583	-25.77
888.754	-27.82
888.926	-29.87
889.097	21.33
889.268	-25.77
889.44	19.29
889.611	-52.39
889.782	13.14
889.953	27.48
890.125	80.72
890.296	13.14
890.467	-58.54
890.638	-54.44
890.809	-60.59
890.98	-99.5
891.151	4.95
891.323	0.85
891.494	11.09
891.665	-15.53
891.836	-3.24
892.007	-36.01
892.178	39.76
892.349	37.72
892.52	23.38
892.691	54.1
892.862	19.29
893.032	-46.25
893.203	-44.2
893.374	-66.73
893.545	56.15
893.716	-56.49
893.887	-13.48
894.057	-42.15
894.228	-31.91
894.399	11.09
894.57	29.52
894.74	50
894.911	-11.43
895.082	7
895.253	35.67
895.423	25.43
895.594	-66.73
895.764	-21.67
895.935	23.38
896.106	15.19
896.276	50
896.447	19.29
896.617	-58.54
896.788	2.9
896.958	-1.19
897.129	39.76
897.299	-13.48
897.47	-5.29
897.64	39.76
897.81	31.57
897.981	37.72
898.151	37.72
898.322	76.63
898.492	19.29
898.662	-40.11
898.832	4.95
899.003	-21.67
899.173	33.62
899.343	-27.82
899.513	-62.63
