Data from USB4F104151__186__11-09-41-302.txt Node

Date: Wed Mar 12 11:09:41 EDT 2025
User: louis
Spectrometer: USB4F10415
Trigger mode: 4
Integration Time (sec): 2.000000E-2
Scans to average: 1
Electric dark correction enabled: true
Nonlinearity correction enabled: false
Boxcar width: 0
XAxis mode: Wavelengths
Number of Pixels in Spectrum: 3648
>>>>>Begin Spectral Data<<<<<
178.204	-79.7
178.424	-79.7
178.644	-79.7
178.864	-116.56
179.084	-42.84
179.304	-10.07
179.524	22.7
179.744	6.31
179.964	-61.27
180.184	43.18
180.404	6.31
180.624	-61.27
180.844	32.94
181.064	45.23
181.283	-20.31
181.503	22.7
181.723	-26.45
181.943	18.6
182.163	47.27
182.383	8.36
182.602	51.37
182.822	10.41
183.042	-1.88
183.262	-42.84
183.482	-36.69
183.701	0.17
183.921	55.47
184.141	-22.36
184.361	14.51
184.58	-8.02
184.8	-12.12
185.02	0.17
185.239	39.08
185.459	43.18
185.679	65.71
185.898	14.51
186.118	71.85
186.338	61.61
186.557	67.75
186.777	-77.65
186.997	20.65
187.216	12.46
187.436	6.31
187.655	45.23
187.875	4.27
188.095	-5.97
188.314	-26.45
188.534	69.8
188.753	2.22
188.973	63.66
189.192	102.57
189.412	90.28
189.631	37.03
189.851	4.27
190.07	53.42
190.29	37.03
190.509	0.17
190.729	12.46
190.948	-34.64
191.168	39.08
191.387	61.61
191.607	-38.74
191.826	10.41
192.045	-51.03
192.265	26.79
192.484	-14.17
192.704	10.41
192.923	-42.84
193.142	61.61
193.362	47.27
193.581	4.27
193.8	63.66
194.02	-3.93
194.239	8.36
194.458	37.03
194.678	-51.03
194.897	69.8
195.116	0.17
195.335	61.61
195.555	-20.31
195.774	39.08
195.993	24.75
196.212	0.17
196.432	12.46
196.651	32.94
196.87	32.94
197.089	47.27
197.308	-14.17
197.528	-22.36
197.747	-28.5
197.966	-1.88
198.185	77.99
198.404	14.51
198.623	-73.56
198.842	-22.36
199.062	-36.69
199.281	-8.02
199.5	-24.4
199.719	84.14
199.938	24.75
200.157	53.42
200.376	65.71
200.595	20.65
200.814	28.84
201.033	39.08
201.252	-8.02
201.471	51.37
201.69	84.14
201.909	22.7
202.128	12.46
202.347	2.22
202.566	-36.69
202.785	20.65
203.004	14.51
203.223	98.47
203.442	28.84
203.661	-28.5
203.879	12.46
204.098	16.55
204.317	47.27
204.536	28.84
204.755	55.47
204.974	-1.88
205.193	-20.31
205.411	18.6
205.63	0.17
205.849	-10.07
206.068	34.99
206.287	55.47
206.505	55.47
206.724	28.84
206.943	22.7
207.162	92.33
207.381	65.71
207.599	-63.32
207.818	86.19
208.037	75.95
208.255	2.22
208.474	-36.69
208.693	22.7
208.911	49.32
209.13	-5.97
209.349	37.03
209.567	77.99
209.786	22.7
210.005	34.99
210.223	-40.79
210.442	-59.22
210.661	-40.79
210.879	22.7
211.098	47.27
211.316	8.36
211.535	32.94
211.753	26.79
211.972	49.32
212.191	16.55
212.409	43.18
212.628	51.37
212.846	32.94
213.065	61.61
213.283	14.51
213.502	37.03
213.72	43.18
213.938	12.46
214.157	12.46
214.375	45.23
214.594	47.27
214.812	69.8
215.031	26.79
215.249	12.46
215.467	-1.88
215.686	34.99
215.904	51.37
216.122	-28.5
216.341	51.37
216.559	8.36
216.778	-5.97
216.996	151.72
217.214	6.31
217.432	45.23
217.651	43.18
217.869	75.95
218.087	67.75
218.306	49.32
218.524	77.99
218.742	98.47
218.96	92.33
219.179	-53.08
219.397	110.76
219.615	0.17
219.833	18.6
220.051	4.27
220.27	2.22
220.488	92.33
220.706	47.27
220.924	-42.84
221.142	43.18
221.36	-71.51
221.578	10.41
221.796	16.55
222.015	-46.93
222.233	24.75
222.451	47.27
222.669	-36.69
222.887	32.94
223.105	2.22
223.323	53.42
223.541	-22.36
223.759	20.65
223.977	-63.32
224.195	73.9
224.413	22.7
224.631	14.51
224.849	-3.93
225.067	84.14
225.285	-42.84
225.503	2.22
225.721	-59.22
225.939	-38.74
226.157	-28.5
226.375	67.75
226.592	-10.07
226.81	-1.88
227.028	12.46
227.246	57.51
227.464	-20.31
227.682	28.84
227.9	75.95
228.117	41.13
228.335	51.37
228.553	47.27
228.771	-14.17
228.989	14.51
229.206	-18.26
229.424	-12.12
229.642	-67.41
229.86	16.55
230.077	43.18
230.295	-26.45
230.513	34.99
230.731	10.41
230.948	2.22
231.166	90.28
231.384	-1.88
231.601	45.23
231.819	-5.97
232.037	6.31
232.254	-34.64
232.472	69.8
232.689	10.41
232.907	34.99
233.125	10.41
233.342	-18.26
233.56	4.27
233.777	49.32
233.995	-53.08
234.213	-10.07
234.43	-3.93
234.648	-22.36
234.865	43.18
235.083	98.47
235.3	28.84
235.518	53.42
235.735	47.27
235.953	41.13
236.17	6.31
236.388	20.65
236.605	22.7
236.822	-5.97
237.04	12.46
237.257	47.27
237.475	0.17
237.692	-10.07
237.909	-1.88
238.127	-61.27
238.344	45.23
238.562	10.41
238.779	-16.21
238.996	-5.97
239.214	10.41
239.431	18.6
239.648	-34.64
239.865	6.31
240.083	12.46
240.3	26.79
240.517	28.84
240.735	16.55
240.952	10.41
241.169	-18.26
241.386	30.89
241.603	39.08
241.821	-12.12
242.038	6.31
242.255	18.6
242.472	49.32
242.689	10.41
242.907	-16.21
243.124	-53.08
243.341	-14.17
243.558	-24.4
243.775	20.65
243.992	-12.12
244.209	26.79
244.426	14.51
244.643	-24.4
244.86	-20.31
245.078	12.46
245.295	32.94
245.512	-36.69
245.729	-20.31
245.946	37.03
246.163	10.41
246.38	20.65
246.597	-5.97
246.814	65.71
247.031	92.33
247.248	-14.17
247.464	59.56
247.681	18.6
247.898	47.27
248.115	69.8
248.332	-46.93
248.549	24.75
248.766	75.95
248.983	10.41
249.2	49.32
249.417	37.03
249.633	-22.36
249.85	-10.07
250.067	55.47
250.284	37.03
250.501	32.94
250.717	4.27
250.934	8.36
251.151	-48.98
251.368	24.75
251.585	47.27
251.801	43.18
252.018	4.27
252.235	41.13
252.451	-28.5
252.668	-18.26
252.885	-10.07
253.102	2.22
253.318	129.19
253.535	16.55
253.752	-24.4
253.968	8.36
254.185	-18.26
254.401	-63.32
254.618	49.32
254.835	14.51
255.051	45.23
255.268	14.51
255.484	10.41
255.701	4.27
255.917	45.23
256.134	-16.21
256.351	49.32
256.567	53.42
256.784	-32.6
257	-32.6
257.217	86.19
257.433	-30.55
257.65	-26.45
257.866	6.31
258.082	0.17
258.299	-26.45
258.515	57.51
258.732	32.94
258.948	-42.84
259.165	26.79
259.381	4.27
259.597	37.03
259.814	75.95
260.03	30.89
260.246	26.79
260.463	30.89
260.679	108.71
260.895	20.65
261.112	24.75
261.328	20.65
261.544	14.51
261.761	71.85
261.977	-87.89
262.193	39.08
262.409	-1.88
262.626	-22.36
262.842	67.75
263.058	-18.26
263.274	53.42
263.49	53.42
263.707	-1.88
263.923	26.79
264.139	-1.88
264.355	-3.93
264.571	32.94
264.787	43.18
265.004	108.71
265.22	-59.22
265.436	6.31
265.652	-3.93
265.868	6.31
266.084	-30.55
266.3	-65.36
266.516	14.51
266.732	37.03
266.948	-26.45
267.164	20.65
267.38	22.7
267.596	63.66
267.812	30.89
268.028	67.75
268.244	55.47
268.46	10.41
268.676	14.51
268.892	-40.79
269.108	10.41
269.324	-8.02
269.54	-46.93
269.756	69.8
269.972	32.94
270.188	34.99
270.403	-24.4
270.619	-57.17
270.835	55.47
271.051	14.51
271.267	4.27
271.483	14.51
271.698	18.6
271.914	2.22
272.13	6.31
272.346	-18.26
272.562	-36.69
272.777	24.75
272.993	-10.07
273.209	-69.46
273.425	61.61
273.64	16.55
273.856	-28.5
274.072	22.7
274.287	-36.69
274.503	-22.36
274.719	51.37
274.934	63.66
275.15	-40.79
275.366	14.51
275.581	-18.26
275.797	53.42
276.012	-18.26
276.228	41.13
276.444	34.99
276.659	51.37
276.875	-48.98
277.09	22.7
277.306	-20.31
277.521	118.95
277.737	-12.12
277.952	-14.17
278.168	4.27
278.383	-30.55
278.599	-12.12
278.814	82.09
279.03	-30.55
279.245	80.04
279.461	8.36
279.676	45.23
279.892	6.31
280.107	47.27
280.322	-87.89
280.538	57.51
280.753	-5.97
280.969	-10.07
281.184	37.03
281.399	34.99
281.615	12.46
281.83	6.31
282.045	41.13
282.26	16.55
282.476	-24.4
282.691	63.66
282.906	12.46
283.122	-10.07
283.337	0.17
283.552	69.8
283.767	-34.64
283.983	82.09
284.198	-42.84
284.413	65.71
284.628	-55.12
284.843	-22.36
285.058	59.56
285.274	20.65
285.489	30.89
285.704	47.27
285.919	30.89
286.134	30.89
286.349	-22.36
286.564	16.55
286.779	-12.12
286.995	0.17
287.21	16.55
287.425	-14.17
287.64	-5.97
287.855	80.04
288.07	-10.07
288.285	45.23
288.5	-5.97
288.715	51.37
288.93	-42.84
289.145	4.27
289.36	8.36
289.575	104.62
289.79	51.37
290.004	12.46
290.219	-12.12
290.434	30.89
290.649	-34.64
290.864	22.7
291.079	47.27
291.294	-91.99
291.509	-10.07
291.724	18.6
291.938	41.13
292.153	59.56
292.368	24.75
292.583	0.17
292.798	92.33
293.012	30.89
293.227	43.18
293.442	0.17
293.657	92.33
293.871	94.38
294.086	82.09
294.301	77.99
294.516	75.95
294.73	75.95
294.945	-12.12
295.16	10.41
295.374	47.27
295.589	94.38
295.804	-67.41
296.018	30.89
296.233	88.23
296.447	18.6
296.662	-63.32
296.877	-10.07
297.091	-16.21
297.306	-18.26
297.52	-14.17
297.735	49.32
297.949	8.36
298.164	-24.4
298.378	-3.93
298.593	-26.45
298.807	-3.93
299.022	77.99
299.236	30.89
299.451	-3.93
299.665	57.51
299.88	-1.88
300.094	32.94
300.309	-12.12
300.523	28.84
300.737	34.99
300.952	39.08
301.166	-28.5
301.381	-1.88
301.595	-32.6
301.809	77.99
302.024	-18.26
302.238	-22.36
302.452	6.31
302.667	16.55
302.881	10.41
303.095	92.33
303.309	69.8
303.524	-26.45
303.738	16.55
303.952	-38.74
304.166	28.84
304.381	-44.88
304.595	45.23
304.809	0.17
305.023	73.9
305.237	-26.45
305.452	-51.03
305.666	8.36
305.88	96.43
306.094	26.79
306.308	12.46
306.522	73.9
306.736	2.22
306.95	69.8
307.164	51.37
307.379	-1.88
307.593	12.46
307.807	-1.88
308.021	41.13
308.235	26.79
308.449	-34.64
308.663	-46.93
308.877	10.41
309.091	6.31
309.305	51.37
309.519	0.17
309.733	30.89
309.947	28.84
310.161	41.13
310.374	-1.88
310.588	59.56
310.802	0.17
311.016	55.47
311.23	34.99
311.444	57.51
311.658	59.56
311.872	73.9
312.085	12.46
312.299	108.71
312.513	20.65
312.727	-12.12
312.941	26.79
313.154	75.95
313.368	55.47
313.582	67.75
313.796	-36.69
314.009	34.99
314.223	45.23
314.437	135.34
314.651	37.03
314.864	65.71
315.078	-12.12
315.292	73.9
315.505	28.84
315.719	59.56
315.933	0.17
316.146	10.41
316.36	-20.31
316.573	-3.93
316.787	59.56
317.001	24.75
317.214	16.55
317.428	-3.93
317.641	-55.12
317.855	39.08
318.068	-16.21
318.282	8.36
318.495	32.94
318.709	37.03
318.922	-18.26
319.136	84.14
319.349	28.84
319.563	14.51
319.776	104.62
319.99	12.46
320.203	26.79
320.417	61.61
320.63	-1.88
320.843	37.03
321.057	30.89
321.27	34.99
321.483	-100.18
321.697	-1.88
321.91	16.55
322.124	53.42
322.337	55.47
322.55	-34.64
322.763	-3.93
322.977	-14.17
323.19	-34.64
323.403	108.71
323.617	30.89
323.83	2.22
324.043	34.99
324.256	71.85
324.469	6.31
324.683	-12.12
324.896	24.75
325.109	39.08
325.322	-10.07
325.535	18.6
325.748	-3.93
325.962	43.18
326.175	4.27
326.388	100.52
326.601	88.23
326.814	55.47
327.027	49.32
327.24	96.43
327.453	-32.6
327.666	26.79
327.879	104.62
328.092	75.95
328.305	2.22
328.518	41.13
328.731	47.27
328.944	86.19
329.157	6.31
329.37	43.18
329.583	-18.26
329.796	14.51
330.009	4.27
330.222	47.27
330.435	4.27
330.648	75.95
330.861	59.56
331.073	8.36
331.286	55.47
331.499	67.75
331.712	10.41
331.925	-44.88
332.138	59.56
332.35	22.7
332.563	-24.4
332.776	-10.07
332.989	47.27
333.202	-30.55
333.414	-5.97
333.627	47.27
333.84	12.46
334.053	43.18
334.265	14.51
334.478	-20.31
334.691	-5.97
334.903	-26.45
335.116	22.7
335.329	30.89
335.541	24.75
335.754	12.46
335.966	18.6
336.179	114.86
336.392	34.99
336.604	100.52
336.817	32.94
337.029	6.31
337.242	28.84
337.454	-1.88
337.667	37.03
337.88	39.08
338.092	45.23
338.305	2.22
338.517	4.27
338.729	-24.4
338.942	-55.12
339.154	-3.93
339.367	-5.97
339.579	26.79
339.792	20.65
340.004	47.27
340.217	22.7
340.429	47.27
340.641	69.8
340.854	39.08
341.066	12.46
341.278	61.61
341.491	-1.88
341.703	129.19
341.915	51.37
342.128	88.23
342.34	2.22
342.552	65.71
342.764	39.08
342.977	14.51
343.189	8.36
343.401	4.27
343.613	-32.6
343.826	-38.74
344.038	20.65
344.25	22.7
344.462	-24.4
344.674	39.08
344.886	49.32
345.099	14.51
345.311	69.8
345.523	4.27
345.735	55.47
345.947	16.55
346.159	41.13
346.371	-1.88
346.583	30.89
346.795	4.27
347.007	47.27
347.219	6.31
347.431	-42.84
347.643	-10.07
347.855	80.04
348.067	-18.26
348.279	-1.88
348.491	49.32
348.703	75.95
348.915	-5.97
349.127	-40.79
349.339	57.51
349.551	108.71
349.763	2.22
349.975	4.27
350.187	106.67
350.399	20.65
350.61	8.36
350.822	39.08
351.034	53.42
351.246	28.84
351.458	43.18
351.669	6.31
351.881	92.33
352.093	22.7
352.305	-36.69
352.517	43.18
352.728	75.95
352.94	65.71
353.152	-5.97
353.363	-5.97
353.575	71.85
353.787	69.8
353.999	6.31
354.21	8.36
354.422	-16.21
354.633	65.71
354.845	20.65
355.057	0.17
355.268	41.13
355.48	34.99
355.692	12.46
355.903	34.99
356.115	-28.5
356.326	-36.69
356.538	51.37
356.749	88.23
356.961	34.99
357.172	-5.97
357.384	-1.88
357.595	-10.07
357.807	71.85
358.018	-12.12
358.23	12.46
358.441	59.56
358.653	37.03
358.864	39.08
359.075	-3.93
359.287	0.17
359.498	94.38
359.709	-34.64
359.921	-18.26
360.132	-55.12
360.344	6.31
360.555	55.47
360.766	39.08
360.977	-24.4
361.189	125.1
361.4	6.31
361.611	57.51
361.823	-8.02
362.034	82.09
362.245	-16.21
362.456	-3.93
362.667	75.95
362.879	-3.93
363.09	80.04
363.301	-10.07
363.512	22.7
363.723	41.13
363.935	-73.56
364.146	41.13
364.357	39.08
364.568	0.17
364.779	-40.79
364.99	80.04
365.201	14.51
365.412	-16.21
365.623	24.75
365.834	-44.88
366.045	-3.93
366.256	32.94
366.467	45.23
366.678	55.47
366.889	-8.02
367.1	80.04
367.311	-10.07
367.522	88.23
367.733	67.75
367.944	86.19
368.155	8.36
368.366	98.47
368.577	-10.07
368.788	-12.12
368.999	18.6
369.209	47.27
369.42	51.37
369.631	129.19
369.842	77.99
370.053	28.84
370.264	51.37
370.474	-24.4
370.685	65.71
370.896	-22.36
371.107	30.89
371.317	-38.74
371.528	43.18
371.739	6.31
371.95	61.61
372.16	63.66
372.371	-32.6
372.582	-24.4
372.792	32.94
373.003	18.6
373.214	0.17
373.424	45.23
373.635	69.8
373.846	73.9
374.056	59.56
374.267	116.9
374.477	47.27
374.688	55.47
374.898	-59.22
375.109	57.51
375.319	-18.26
375.53	-1.88
375.74	55.47
375.951	41.13
376.161	30.89
376.372	-5.97
376.582	43.18
376.793	43.18
377.003	30.89
377.214	-1.88
377.424	26.79
377.635	-18.26
377.845	-5.97
378.055	2.22
378.266	53.42
378.476	43.18
378.686	22.7
378.897	30.89
379.107	59.56
379.317	92.33
379.528	24.75
379.738	-3.93
379.948	8.36
380.158	-22.36
380.369	22.7
380.579	18.6
380.789	-10.07
380.999	37.03
381.21	98.47
381.42	88.23
381.63	22.7
381.84	94.38
382.05	41.13
382.261	67.75
382.471	96.43
382.681	-22.36
382.891	18.6
383.101	67.75
383.311	-32.6
383.521	-12.12
383.731	0.17
383.941	30.89
384.151	-1.88
384.361	30.89
384.571	-38.74
384.781	28.84
384.991	94.38
385.201	34.99
385.411	-28.5
385.621	18.6
385.831	28.84
386.041	53.42
386.251	-26.45
386.461	55.47
386.671	-28.5
386.881	14.51
387.091	-3.93
387.301	24.75
387.511	55.47
387.72	-46.93
387.93	102.57
388.14	73.9
388.35	53.42
388.56	24.75
388.769	39.08
388.979	32.94
389.189	18.6
389.399	-16.21
389.609	73.9
389.818	24.75
390.028	-10.07
390.238	8.36
390.447	114.86
390.657	22.7
390.867	57.51
391.076	-14.17
391.286	47.27
391.496	10.41
391.705	-22.36
391.915	32.94
392.125	-20.31
392.334	34.99
392.544	80.04
392.753	51.37
392.963	-26.45
393.172	94.38
393.382	16.55
393.591	30.89
393.801	-3.93
394.01	75.95
394.22	28.84
394.429	6.31
394.639	80.04
394.848	51.37
395.058	110.76
395.267	51.37
395.477	75.95
395.686	94.38
395.895	61.61
396.105	80.04
396.314	104.62
396.524	24.75
396.733	32.94
396.942	84.14
397.152	71.85
397.361	88.23
397.57	30.89
397.78	69.8
397.989	90.28
398.198	121
398.407	-5.97
398.617	0.17
398.826	14.51
399.035	69.8
399.244	26.79
399.453	26.79
399.663	104.62
399.872	30.89
400.081	63.66
400.29	26.79
400.499	71.85
400.708	116.9
400.917	67.75
401.127	125.1
401.336	4.27
401.545	141.48
401.754	69.8
401.963	100.52
402.172	92.33
402.381	131.24
402.59	133.29
402.799	137.38
403.008	67.75
403.217	114.86
403.426	149.67
403.635	-16.21
403.844	75.95
404.053	100.52
404.262	84.14
404.471	149.67
404.68	43.18
404.888	69.8
405.097	80.04
405.306	77.99
405.515	94.38
405.724	106.67
405.933	59.56
406.142	71.85
406.35	123.05
406.559	92.33
406.768	141.48
406.977	202.92
407.185	135.34
407.394	121
407.603	94.38
407.812	164.01
408.02	266.41
408.229	182.44
408.438	155.82
408.646	82.09
408.855	178.34
409.064	100.52
409.272	161.96
409.481	164.01
409.69	159.91
409.898	141.48
410.107	190.63
410.315	174.25
410.524	164.01
410.733	211.11
410.941	196.78
411.15	237.74
411.358	190.63
411.567	307.37
411.775	213.16
411.984	284.84
412.192	252.07
412.401	243.88
412.609	340.13
412.818	229.54
413.026	374.95
413.234	286.89
413.443	266.41
413.651	331.94
413.86	315.56
414.068	374.95
414.276	340.13
414.485	325.8
414.693	379.04
414.901	411.81
415.11	465.06
415.318	393.38
415.526	415.91
415.734	497.83
415.943	460.96
416.151	516.26
416.359	458.92
416.567	522.4
416.776	522.4
416.984	557.22
417.192	538.79
417.4	508.07
417.608	555.17
417.817	555.17
418.025	622.75
418.233	692.38
418.441	655.52
418.649	692.38
418.857	688.29
419.065	719.01
419.273	749.73
419.481	780.45
419.689	841.89
419.897	809.12
420.105	837.79
420.313	907.42
420.521	985.24
420.729	987.29
420.937	936.09
421.145	1044.63
421.353	1097.88
421.561	1130.65
421.769	1192.09
421.977	1210.52
422.185	1087.64
422.393	1210.52
422.601	1190.04
422.809	1335.45
423.017	1290.39
423.224	1384.6
423.432	1394.84
423.64	1521.81
423.848	1554.58
424.056	1489.04
424.263	1609.87
424.471	1562.77
424.679	1591.44
424.887	1738.9
425.094	1714.32
425.302	1790.1
425.51	1917.07
425.718	1960.08
425.925	2023.56
426.133	2035.85
426.341	2140.3
426.548	2195.59
426.756	2257.03
426.964	2234.5
427.171	2381.96
427.379	2345.09
427.586	2457.73
427.794	2568.32
428.001	2580.61
428.209	2789.5
428.417	2773.12
428.624	2912.38
428.832	3068.03
429.039	2953.34
429.247	2820.22
429.454	3158.14
429.662	3381.37
429.869	3197.05
430.076	3444.85
430.284	3506.29
430.491	3463.29
430.699	3729.52
430.906	3696.75
431.114	3674.23
431.321	3833.97
431.528	3846.26
431.736	4221.03
431.943	4368.49
432.15	4214.89
432.358	4417.64
432.565	4528.23
432.772	4423.78
432.979	4892.77
433.187	4886.62
433.394	4712.55
433.601	5081.18
433.808	5275.74
434.016	5134.43
434.223	5445.72
434.43	5634.13
434.637	5621.84
434.844	5845.07
435.052	5982.29
435.259	6039.63
435.466	6015.05
435.673	6031.44
435.88	6307.91
436.087	6750.28
436.294	6643.78
436.501	6651.97
436.708	6662.21
436.915	6899.78
437.122	7198.78
437.329	7276.6
437.537	7376.95
437.743	7653.43
437.95	7489.59
438.157	7880.75
438.364	8206.38
438.571	8278.06
438.778	8132.65
438.985	8816.68
439.192	8624.17
439.399	8820.77
439.606	8656.93
439.813	8996.9
440.02	9517.08
440.227	9437.21
440.433	9465.88
440.64	9818.13
440.847	9760.79
441.054	10029.07
441.261	10545.16
441.467	10625.03
441.674	10498.06
441.881	10977.28
442.088	10983.43
442.294	10696.71
442.501	11102.21
442.708	11356.16
442.914	12029.94
443.121	12255.22
443.328	12021.75
443.534	12799.98
443.741	12228.59
443.948	12466.16
444.154	13281.25
444.361	12980.2
444.568	13289.44
444.774	13246.43
444.981	13293.54
445.187	13602.78
445.394	14235.6
445.6	13998.04
445.807	15658.94
446.013	14919.62
446.22	15028.17
446.426	15669.18
446.633	15779.77
446.839	16263.09
447.046	15525.82
447.252	16390.06
447.459	16531.37
447.665	16558
447.871	16766.89
448.078	17917.85
448.284	17031.08
448.491	17430.43
448.697	18266
448.903	18421.65
449.11	18528.14
449.316	18360.21
449.522	18704.27
449.728	19007.37
449.935	19074.95
450.141	19183.49
450.347	19244.93
450.553	18804.62
450.76	19167.11
450.966	19615.62
451.172	19636.1
451.378	20043.64
451.584	19394.43
451.791	19986.3
451.997	19787.64
452.203	20266.87
452.409	20103.03
452.615	20393.84
452.821	19451.78
453.027	19588.99
453.233	20143.99
453.44	19390.34
453.646	19554.18
453.852	19869.56
454.058	20346.74
454.264	19287.94
454.47	19482.5
454.676	19255.17
454.882	19812.22
455.088	18241.43
455.294	18712.46
455.5	18608.01
455.705	18812.81
455.911	18251.67
456.117	17768.35
456.323	17330.08
456.529	16641.96
456.735	17219.49
456.941	16678.83
457.147	16533.42
457.352	16297.91
457.558	15867.83
457.764	16134.07
457.97	15452.09
458.176	15138.76
458.381	15400.9
458.587	14655.44
458.793	14602.19
458.999	13608.92
459.204	14741.45
459.41	14385.1
459.616	13393.89
459.821	13324.26
460.027	13563.87
460.233	12929
460.438	12396.53
460.644	12709.86
460.85	11958.26
461.055	11917.3
461.261	11610.11
461.466	10872.84
461.672	10596.36
461.878	11403.26
462.083	10713.1
462.289	10416.14
462.494	10039.31
462.7	9844.76
462.905	9666.58
463.111	10012.69
463.316	10059.79
463.522	9732.12
463.727	9873.43
463.932	9685.01
464.138	9582.62
464.343	9545.75
464.549	9386.01
464.754	9734.17
464.959	9629.72
465.165	9625.62
465.37	9320.48
465.575	8861.73
465.781	9173.02
465.986	9394.2
466.191	8892.45
466.397	8753.19
466.602	8341.55
466.807	8773.67
467.012	8738.85
467.218	8599.59
467.423	8523.82
467.628	8710.18
467.833	8876.07
468.038	8681.51
468.244	8321.07
468.449	8560.68
468.654	8321.07
468.859	8247.34
469.064	8302.64
469.269	8058.93
469.474	8101.94
469.679	8185.9
469.885	8089.65
470.09	8296.49
470.295	8040.5
470.5	7829.56
470.705	8058.93
470.91	7786.55
471.115	7692.34
471.32	7747.64
471.525	7647.29
471.73	7583.8
471.935	7514.17
472.139	7305.28
472.344	7370.81
472.549	7358.52
472.754	7262.27
472.959	6950.98
473.164	6998.08
473.369	6961.22
473.574	7092.29
473.778	6910.02
473.983	6953.02
474.188	6932.54
474.393	6596.68
474.598	6611.01
474.802	6514.76
475.007	6393.93
475.212	6641.73
475.417	6180.94
475.621	6334.54
475.826	6166.6
476.031	6260.81
476.235	5992.53
476.44	6314.06
476.645	6152.27
476.849	5998.67
477.054	5996.62
477.259	5920.85
477.463	5759.06
477.668	5759.06
477.872	5924.94
478.077	5615.7
478.282	5517.4
478.486	5417.05
478.691	5476.44
478.895	5468.25
479.1	5419.1
479.304	5541.97
479.509	5130.33
479.713	5505.11
479.918	5245.02
480.122	5255.26
480.326	5202.01
480.531	5208.16
480.735	5218.4
480.94	5245.02
481.144	5359.7
481.348	5242.97
481.553	5167.2
481.757	5064.8
481.961	5064.8
482.166	5179.48
482.37	4903.01
482.574	5072.99
482.778	5159
482.983	5085.28
483.187	5021.79
483.391	5113.95
483.595	4927.58
483.8	4923.49
484.004	4982.88
484.208	5134.43
484.412	4911.2
484.616	5034.08
484.821	5077.09
485.025	4866.14
485.229	5154.91
485.433	5083.23
485.637	5021.79
485.841	5138.52
486.045	5009.5
486.249	4946.02
486.453	5052.51
486.657	5019.74
486.861	5003.36
487.065	5109.85
487.269	5048.41
487.473	4989.02
487.677	5048.41
487.881	5032.03
488.085	5034.08
488.289	5032.03
488.493	5072.99
488.697	5093.47
488.901	5105.76
489.105	5136.48
489.309	5058.65
489.512	5132.38
489.716	4995.17
489.92	5202.01
490.124	5144.67
490.328	5212.25
490.531	5009.5
490.735	5220.44
490.939	5079.13
491.143	5142.62
491.346	5302.36
491.55	5267.55
491.754	5138.52
491.958	5257.31
492.161	5142.62
492.365	5177.44
492.569	5265.5
492.772	5374.04
492.976	5355.61
493.18	5480.54
493.383	5445.72
493.587	5435.48
493.79	5568.6
493.994	5423.19
494.197	5478.49
494.401	5523.54
494.605	5640.28
494.808	5730.39
495.012	5550.17
495.215	5773.39
495.419	5742.68
495.622	5609.56
495.825	5793.87
496.029	5959.76
496.232	5953.62
496.436	5894.22
496.639	6101.07
496.843	5939.28
497.046	6180.94
497.249	6316.11
497.453	6453.32
497.656	6285.39
497.859	6443.08
498.063	6422.6
498.266	6758.47
498.469	6557.77
498.673	6592.58
498.876	6596.68
499.079	6834.24
499.282	6875.2
499.485	7106.62
499.689	7098.43
499.892	7059.52
500.095	7059.52
500.298	7180.35
500.501	7067.71
500.705	7405.63
500.908	7712.82
501.111	7616.57
501.314	7723.06
501.517	7653.43
501.72	7618.61
501.923	7692.34
502.126	7841.84
502.329	8181.81
502.532	8253.48
502.735	8075.31
502.938	8208.43
503.141	8495.15
503.344	8534.06
503.547	8421.42
503.75	8474.67
503.953	8835.11
504.156	8765.48
504.359	8861.73
504.562	8990.75
504.765	9146.4
504.968	9273.37
505.17	9426.97
505.373	9412.64
505.576	9627.67
505.779	9400.35
505.982	9666.58
506.185	9867.28
506.387	9809.94
506.59	9951.25
506.793	10149.9
506.996	10225.68
507.198	10338.32
507.401	10356.75
507.604	10536.97
507.807	10788.87
508.009	10788.87
508.212	10823.69
508.415	11145.22
508.617	10856.45
508.82	11139.07
509.022	11235.33
509.225	11495.42
509.428	11532.28
509.63	11649.02
509.833	11673.59
510.035	11945.97
510.238	11884.53
510.44	12013.56
510.643	12351.47
510.845	12548.08
511.048	12353.52
511.25	12412.91
511.453	12515.31
511.655	13146.08
511.858	13008.87
512.06	13111.27
512.262	13160.42
512.465	13266.91
512.667	13619.16
512.87	13615.07
513.072	13547.48
513.274	13789.14
513.477	13869.02
513.679	14036.95
513.881	14254.03
514.084	14374.86
514.286	14673.87
514.488	14763.98
514.69	14825.42
514.893	15103.94
515.095	15118.28
515.297	15394.75
515.499	15271.87
515.701	15482.81
515.904	15841.21
516.106	15994.81
516.308	15951.8
516.51	16275.38
516.712	16103.35
516.914	16508.85
517.116	16476.08
517.318	16799.66
517.52	16783.27
517.722	16893.86
517.925	17008.55
518.127	17672.09
518.329	17545.12
518.531	17588.13
518.733	17514.4
518.935	17733.53
519.136	18093.97
519.338	18304.92
519.54	18491.28
519.742	18411.41
519.944	18442.13
520.146	18814.86
520.348	18808.72
520.55	18892.68
520.752	19298.18
520.954	19597.18
521.155	19572.61
521.357	19828.6
521.559	20023.16
521.761	20207.48
521.963	20230.01
522.164	20584.3
522.366	20543.35
522.568	20793.2
522.77	20735.85
522.971	21112.68
523.173	21047.15
523.375	21233.51
523.576	21043.05
523.778	21331.81
523.98	21522.27
524.181	21526.37
524.383	21790.56
524.584	22163.29
524.786	21933.92
524.988	21866.33
525.189	22320.98
525.391	22525.78
525.592	22814.54
525.794	22607.7
525.995	22656.85
526.197	22835.02
526.398	23136.07
526.6	23027.53
526.801	23203.66
527.003	23322.44
527.204	23445.32
527.406	23240.52
527.607	23492.42
527.808	23750.46
528.01	23437.13
528.211	24010.56
528.412	24239.93
528.614	24338.23
528.815	24006.46
529.016	24553.27
529.218	24033.08
529.419	24416.05
529.62	24403.77
529.822	24282.94
530.023	24512.31
530.224	24758.06
530.425	24385.33
530.626	24704.82
530.828	24612.66
531.029	25052.97
531.23	24809.26
531.431	24770.35
531.632	25288.49
531.833	25024.3
532.035	25005.87
532.236	25093.93
532.437	25003.82
532.638	24962.86
532.839	25216.81
533.04	25335.59
533.241	25114.41
533.442	25581.35
533.643	25413.41
533.844	25169.71
534.045	25268.01
534.246	25251.63
534.447	25440.04
534.648	25530.15
534.849	25542.44
535.05	25399.08
535.251	25683.75
535.451	25329.45
535.652	25689.89
535.853	25794.34
536.054	25575.2
536.255	25788.19
536.456	25173.8
536.657	25618.21
536.857	25360.17
537.058	25495.33
537.259	25837.34
537.46	25659.17
537.66	25358.12
537.861	25648.93
538.062	25542.44
538.263	25823.01
538.463	25702.18
538.664	25442.09
538.865	25403.18
539.065	25831.2
539.266	25087.79
539.466	25888.54
539.667	25208.62
539.868	26011.42
540.068	25325.35
540.269	25788.19
540.469	25949.98
540.67	25503.53
540.87	25835.3
541.071	25638.69
541.271	25599.78
541.472	25894.69
541.672	25585.44
541.873	25466.66
542.073	25186.09
542.274	26044.19
542.474	25485.09
542.675	25671.46
542.875	25728.8
543.075	25847.58
543.276	25329.45
543.476	25683.75
543.676	25431.85
543.877	25577.25
544.077	25552.68
544.277	25294.63
544.478	25411.37
544.678	25458.47
544.878	25659.17
545.078	25499.43
545.279	25335.59
545.479	25655.08
545.679	25509.67
545.879	25417.51
546.079	25372.46
546.28	25378.6
546.48	25474.85
546.68	25442.09
546.88	25323.3
547.08	25853.73
547.28	25392.94
547.48	25257.77
547.68	25546.53
547.88	24960.81
548.081	25499.43
548.281	25556.77
548.481	25296.68
548.681	25689.89
548.881	25509.67
549.081	25382.7
549.28	24950.57
549.48	25429.8
549.68	25546.53
549.88	25708.32
550.08	25222.95
550.28	25487.14
550.48	25052.97
550.68	25519.91
550.88	25202.47
551.08	25093.93
551.279	25288.49
551.479	25313.06
551.679	25548.58
551.879	25206.57
552.079	25394.98
552.278	25374.5
552.478	25202.47
552.678	25186.09
552.878	25390.89
553.077	25335.59
553.277	25052.97
553.477	25528.1
553.676	24862.51
553.876	25083.69
554.076	25003.82
554.275	24960.81
554.475	24825.65
554.674	25116.46
554.874	25069.36
555.074	24909.61
555.273	25265.96
555.473	25038.64
555.672	24864.56
555.872	24901.42
556.071	24825.65
556.271	24989.49
556.47	24624.95
556.67	24940.33
556.869	24696.63
557.068	24696.63
557.268	24657.71
557.467	24481.59
557.667	24583.99
557.866	24723.25
558.065	24465.21
558.265	24340.28
558.464	24461.11
558.663	24520.5
558.863	24061.76
559.062	24551.22
559.261	24315.7
559.461	24362.81
559.66	24086.33
559.859	24364.85
560.058	23979.84
560.258	24022.84
560.457	23809.86
560.656	23877.44
560.855	23785.28
561.054	23942.97
561.253	23639.87
561.453	24014.65
561.652	24055.61
561.851	23992.12
562.05	23590.72
562.249	23576.39
562.448	23811.9
562.647	23250.76
562.846	23414.6
563.045	23619.39
563.244	23387.97
563.443	23508.8
563.642	23107.4
563.841	23408.45
564.04	23093.07
564.239	23117.64
564.438	22865.74
564.637	23369.54
564.836	23078.73
565.035	23009.1
565.234	22875.98
565.432	22450
565.631	22478.68
565.83	22947.66
566.029	22589.27
566.228	22226.78
566.427	22261.59
566.625	22544.21
566.824	22138.71
567.023	22314.84
567.222	22017.88
567.42	22155.1
567.619	22099.8
567.818	22208.34
568.016	21952.35
568.215	22062.94
568.414	21915.48
568.612	21911.39
568.811	21845.85
569.01	21956.44
569.208	21550.95
569.407	21802.85
569.605	21124.97
569.804	21925.72
570.002	21186.41
570.201	21368.68
570.4	21348.2
570.598	21053.29
570.797	20957.03
570.995	21051.24
571.193	20729.71
571.392	21145.45
571.59	20866.92
571.789	20742
571.987	20707.18
572.186	20606.83
572.384	20717.42
572.582	20905.84
572.781	20459.38
572.979	20238.2
573.177	20553.59
573.376	20410.23
573.574	19890.04
573.772	20275.06
573.971	20123.51
574.169	20283.25
574.367	19971.96
574.565	19931
574.763	19787.64
574.962	19697.53
575.16	19486.59
575.358	19910.52
575.556	19476.35
575.754	19550.08
575.952	19615.62
576.151	19459.97
576.349	19378.05
576.547	19335.04
576.745	19169.16
576.943	19298.18
577.141	19089.29
577.339	19363.72
577.537	19033.99
577.735	19115.91
577.933	18984.84
578.131	18968.46
578.329	18790.28
578.527	18847.63
578.725	18599.82
578.923	19011.46
579.121	18720.65
579.319	18565.01
579.516	18571.15
579.714	18755.47
579.912	18526.1
580.11	18261.91
580.308	18364.31
580.506	18372.5
580.704	17893.27
580.901	18231.19
581.099	18362.26
581.297	18073.49
581.495	18071.45
581.692	17942.42
581.89	17833.88
582.088	18001.82
582.285	17848.22
582.483	17878.94
582.681	17840.03
582.878	17569.69
583.076	17315.75
583.274	17772.44
583.471	17506.21
583.669	17434.53
583.866	17479.58
584.064	17452.96
584.262	17164.2
584.459	17205.16
584.657	17252.26
584.854	17319.84
585.052	16920.49
585.249	17110.95
585.447	16934.82
585.644	16760.75
585.841	16676.78
586.039	16701.36
586.236	16850.86
586.434	16805.8
586.631	16586.67
586.828	16457.65
587.026	16631.72
587.223	16813.99
587.42	16480.18
587.618	16723.88
587.815	16304.05
588.012	16086.97
588.21	16199.6
588.407	16674.73
588.604	16437.17
588.801	16127.92
588.999	16215.99
589.196	16101.3
589.393	15947.7
589.59	15865.78
589.787	15863.74
589.984	15753.15
590.182	15740.86
590.379	16168.88
590.576	15896.5
590.773	15396.8
590.97	15669.18
591.167	15609.79
591.364	15345.6
591.561	15548.35
591.758	15423.42
591.955	15353.79
592.152	15488.96
592.349	15255.49
592.546	15333.31
592.743	15130.56
592.94	15181.76
593.137	15122.37
593.334	15044.55
593.531	14864.33
593.727	14880.71
593.924	15054.79
594.121	14720.97
594.318	14938.05
594.515	14772.17
594.712	14876.62
594.908	14686.15
595.105	14792.65
595.302	14448.59
595.499	14637
595.696	14383.06
595.892	14307.28
596.089	14540.75
596.286	14231.51
596.482	14495.69
596.679	14301.14
596.876	14497.74
597.072	14120.92
597.269	14157.78
597.466	14446.54
597.662	14139.35
597.859	14026.71
598.055	14041.04
598.252	13762.52
598.448	13946.84
598.645	13701.08
598.841	13619.16
599.038	13699.03
599.234	13866.97
599.431	13719.51
599.627	13633.5
599.824	13696.99
600.02	13520.86
600.217	13590.49
600.413	13285.34
600.609	13729.75
600.806	13410.27
601.002	13316.06
601.198	13238.24
601.395	13428.7
601.591	13103.07
601.787	13221.86
601.984	13131.75
602.18	13072.36
602.376	12922.85
602.572	13133.79
602.769	13164.51
602.965	12793.83
603.161	12879.85
603.357	12693.48
603.553	12814.31
603.75	12867.56
603.946	12775.4
604.142	12775.4
604.338	12480.49
604.534	12914.66
604.73	12609.51
604.926	12548.08
605.122	12619.75
605.318	12322.8
605.514	12478.44
605.71	12412.91
605.906	12326.89
606.102	12300.27
606.298	12204.02
606.494	12271.6
606.69	12052.47
606.886	12376.05
607.082	11939.83
607.278	12290.03
607.474	12161.01
607.67	12150.77
607.866	11755.51
608.062	12226.54
608.257	12091.38
608.453	11880.44
608.649	11786.23
608.845	11745.27
609.041	11724.79
609.236	11657.21
609.432	11765.75
609.628	11792.37
609.824	11878.39
610.019	11786.23
610.215	11661.3
610.411	11790.33
610.606	11585.53
610.802	11657.21
610.998	11538.43
611.193	11536.38
611.389	11694.07
611.584	11458.56
611.78	11591.67
611.976	11390.97
612.171	11421.69
612.367	11376.64
612.562	11259.9
612.758	11106.31
612.953	11149.31
613.149	11329.53
613.344	11040.77
613.539	11462.65
613.735	11241.47
613.93	11388.92
614.126	11094.02
614.321	11259.9
614.517	11184.13
614.712	11259.9
614.907	11034.63
615.103	11081.73
615.298	10926.08
615.493	11079.68
615.688	10895.36
615.884	11225.09
616.079	10754.05
616.274	10784.77
616.47	10731.53
616.665	10889.22
616.86	10950.66
617.055	10620.94
617.25	10891.27
617.445	10752.01
617.641	10502.15
617.836	10602.5
618.031	10694.66
618.226	10643.46
618.421	10696.71
618.616	10561.55
618.811	10342.41
619.006	10838.02
619.201	10262.54
619.396	10375.18
619.591	10240.01
619.786	10502.15
619.981	10379.28
620.176	10473.48
620.371	10137.62
620.566	10004.5
620.761	10070.03
620.956	10035.22
621.151	10131.47
621.346	10002.45
621.541	10078.22
621.735	10229.77
621.93	9576.47
622.125	9846.8
622.32	9768.98
622.515	9695.25
622.709	9504.79
622.904	9607.19
623.099	9662.49
623.294	9644.06
623.488	9474.07
623.683	9377.82
623.878	9158.69
624.072	9349.15
624.267	9316.38
624.462	9074.72
624.656	9066.53
624.851	9191.45
625.046	8955.94
625.24	9054.24
625.435	8841.25
625.629	8982.56
625.824	8790.05
626.018	8837.16
626.213	8726.57
626.407	8577.06
626.602	8642.6
626.796	8714.28
626.991	8642.6
627.185	8587.3
627.38	8376.36
627.574	8472.62
627.768	8368.17
627.963	8216.62
628.157	8355.88
628.352	8282.16
628.546	8124.46
628.74	8132.65
628.935	7989.3
629.129	8185.9
629.323	7993.39
629.517	8120.37
629.712	8034.35
629.906	7815.22
630.1	7591.99
630.294	7895.09
630.489	7856.18
630.683	7792.69
630.877	7635
631.071	7643.19
631.265	7727.16
631.459	7594.04
631.653	7473.21
631.848	7491.64
632.042	7467.06
632.236	7462.97
632.43	7450.68
632.624	7612.47
632.818	7235.64
633.012	7333.95
633.206	7260.22
633.4	7219.26
633.594	7053.38
633.788	7311.42
633.982	7006.27
634.176	6979.65
634.369	7043.14
634.563	7061.57
634.757	6907.97
634.951	6910.02
635.145	6914.11
635.339	6881.35
635.533	6801.47
635.726	6789.19
635.92	6709.32
636.114	6686.79
636.308	6656.07
636.501	6662.21
636.695	6697.03
636.889	6561.86
637.083	6594.63
637.276	6557.77
637.47	6541.38
637.664	6324.3
637.857	6541.38
638.051	6264.91
638.244	6297.67
638.438	6377.55
638.632	6266.96
638.825	6328.39
639.019	6223.95
639.212	6223.95
639.406	6125.65
639.599	6096.97
639.793	6129.74
639.986	5890.13
640.18	6142.03
640.373	6109.26
640.567	5949.52
640.76	5869.65
640.954	5900.37
641.147	5775.44
641.34	5773.39
641.534	5840.98
641.727	5763.15
641.92	5691.48
642.114	5566.55
642.307	5625.94
642.5	5679.19
642.694	5537.88
642.887	5525.59
643.08	5795.92
643.273	5587.03
643.467	5482.58
643.66	5433.43
643.853	5228.63
644.046	5245.02
644.239	5439.58
644.432	5417.05
644.626	5251.16
644.819	5374.04
645.012	5251.16
645.205	5337.18
645.398	5367.9
645.591	5177.44
645.784	5150.81
645.977	5075.04
646.17	5011.55
646.363	5029.98
646.556	4917.34
646.749	4876.38
646.942	4862.05
647.135	4962.4
647.328	4839.52
647.521	4954.21
647.714	4923.49
647.907	4802.66
648.099	4925.54
648.292	4933.73
648.485	4651.11
648.678	4659.3
648.871	4628.58
649.064	4704.35
649.256	4546.66
649.449	4579.43
649.642	4538.47
649.835	4538.47
650.027	4612.2
650.22	4477.03
650.413	4364.39
650.605	4444.26
650.798	4495.46
650.991	4442.21
651.183	4526.18
651.376	4393.06
651.568	4409.45
651.761	4272.23
651.954	4350.06
652.146	4206.7
652.339	4327.53
652.531	4305
652.724	4202.6
652.916	4153.45
653.109	4241.51
653.301	4276.33
653.494	4270.19
653.686	4139.12
653.879	4247.66
654.071	4020.33
654.263	3962.99
654.456	4067.44
654.648	3991.66
654.84	4065.39
655.033	4102.25
655.225	3934.32
655.417	3926.13
655.61	3909.74
655.802	3999.85
655.994	3905.65
656.186	3901.55
656.379	3809.39
656.571	3645.56
656.763	3653.75
656.955	3709.04
657.148	3885.17
657.34	3768.43
657.532	3717.23
657.724	3856.5
657.916	3637.36
658.108	3670.13
658.3	3604.6
658.492	3750
658.684	3618.93
658.876	3668.08
659.068	3594.36
659.26	3418.23
659.452	3547.25
659.644	3582.07
659.836	3475.57
660.028	3498.1
660.22	3475.57
660.412	3420.28
660.604	3367.03
660.796	3414.13
660.988	3498.1
661.18	3412.09
661.372	3225.72
661.563	3403.89
661.755	3328.12
661.947	3293.3
662.139	3170.43
662.331	3156.09
662.522	3205.24
662.714	3170.43
662.906	3156.09
663.097	3135.61
663.289	3094.65
663.481	3104.89
663.673	3100.8
663.864	3115.13
664.056	3172.47
664.247	3072.12
664.439	2994.3
664.631	3055.74
664.822	3029.12
665.014	3016.83
665.205	3078.27
665.397	2961.53
665.588	2959.49
665.78	3119.23
665.971	2908.29
666.163	2922.62
666.354	2998.4
666.546	3020.92
666.737	2844.8
666.929	2932.86
667.12	2789.5
667.311	2971.77
667.503	2812.03
667.694	2834.56
667.885	2781.31
668.077	2852.99
668.268	2822.27
668.459	2814.08
668.651	2756.74
668.842	2844.8
669.033	2695.3
669.224	2709.63
669.416	2672.77
669.607	2607.23
669.798	2631.81
669.989	2721.92
670.18	2611.33
670.371	2695.3
670.563	2680.96
670.754	2562.18
670.945	2529.41
671.136	2730.11
671.327	2506.88
671.518	2726.02
671.709	2607.23
671.9	2654.34
672.091	2488.45
672.282	2617.47
672.473	2484.36
672.664	2496.64
672.855	2545.8
673.046	2504.84
673.237	2541.7
673.428	2388.1
673.619	2527.36
673.809	2506.88
674	2484.36
674.191	2488.45
674.382	2496.64
674.573	2388.1
674.764	2336.9
674.954	2437.25
675.145	2408.58
675.336	2447.49
675.527	2338.95
675.717	2336.9
675.908	2375.81
676.099	2312.33
676.289	2437.25
676.48	2402.44
676.671	2381.96
676.861	2338.95
677.052	2363.53
677.243	2222.22
677.433	2355.33
677.624	2226.31
677.814	2140.3
678.005	2248.84
678.195	2228.36
678.386	2236.55
678.576	2287.75
678.767	2269.32
678.957	2302.09
679.148	2265.22
679.338	2218.12
679.529	2175.11
679.719	2257.03
679.909	2369.67
680.1	2138.25
680.29	2261.13
680.481	2300.04
680.671	2156.68
680.861	2166.92
681.052	2175.11
681.242	2187.4
681.432	2224.26
681.622	2125.96
681.813	2005.13
682.003	2265.22
682.193	2168.97
682.383	2005.13
682.573	2130.06
682.764	2103.43
682.954	2181.26
683.144	2222.22
683.334	2035.85
683.524	2080.91
683.714	2109.58
683.904	2111.63
684.094	2173.07
684.284	2082.95
684.474	2152.59
684.664	2021.52
684.854	2154.63
685.044	1998.99
685.234	1984.65
685.424	1996.94
685.614	2029.71
685.804	2072.72
685.994	2042
686.184	2003.08
686.374	2021.52
686.564	1986.7
686.753	2068.62
686.943	1953.93
687.133	1921.17
687.323	1925.26
687.513	1970.32
687.702	1998.99
687.892	1976.46
688.082	1978.51
688.272	1953.93
688.461	1945.74
688.651	1890.45
688.841	1902.73
689.03	1906.83
689.22	1894.54
689.41	1857.68
689.599	1874.06
689.789	1988.75
689.979	1996.94
690.168	1876.11
690.358	2005.13
690.547	1779.86
690.737	1818.77
690.926	1861.77
691.116	1755.28
691.305	1874.06
691.495	1902.73
691.684	1861.77
691.874	1869.97
692.063	1806.48
692.252	1812.62
692.442	1833.1
692.631	1765.52
692.82	1876.11
693.01	1675.41
693.199	1831.05
693.388	1773.71
693.578	1685.65
693.767	1708.18
693.956	1761.42
694.146	1661.07
694.335	1669.27
694.524	1667.22
694.713	1755.28
694.902	1708.18
695.092	1742.99
695.281	1630.35
695.47	1710.22
695.659	1687.7
695.848	1669.27
696.037	1714.32
696.226	1794.19
696.415	1632.4
696.604	1747.09
696.793	1786
696.982	1730.7
697.171	1669.27
697.36	1656.98
697.549	1691.79
697.738	1732.75
697.927	1759.38
698.116	1749.14
698.305	1714.32
698.494	1732.75
698.683	1738.9
698.872	1751.18
699.061	1753.23
699.25	1628.31
699.438	1652.88
699.627	1654.93
699.816	1687.7
700.005	1706.13
700.193	1583.25
700.382	1829.01
700.571	1681.55
700.76	1603.73
700.948	1779.86
701.137	1702.03
701.326	1771.66
701.514	1720.46
701.703	1732.75
701.892	1697.94
702.08	1812.62
702.269	1783.95
702.457	1710.22
702.646	1699.98
702.834	1710.22
703.023	1708.18
703.212	1767.57
703.4	1747.09
703.589	1681.55
703.777	1638.55
703.965	1706.13
704.154	1634.45
704.342	1644.69
704.531	1714.32
704.719	1654.93
704.907	1751.18
705.096	1761.42
705.284	1734.8
705.472	1718.42
705.661	1669.27
705.849	1763.47
706.037	1796.24
706.226	1769.62
706.414	1609.87
706.602	1697.94
706.79	1710.22
706.979	1673.36
707.167	1677.46
707.355	1677.46
707.543	1814.67
707.731	1751.18
707.919	1839.25
708.107	1775.76
708.296	1697.94
708.484	1654.93
708.672	1736.85
708.86	1720.46
709.048	1742.99
709.236	1718.42
709.424	1779.86
709.612	1718.42
709.8	1726.61
709.988	1730.7
710.176	1716.37
710.364	1794.19
710.551	1808.53
710.739	1640.59
710.927	1722.51
711.115	1687.7
711.303	1833.1
711.491	1792.14
711.679	1740.94
711.866	1802.38
712.054	1833.1
712.242	1663.12
712.43	1728.66
712.617	1792.14
712.805	1769.62
712.993	1677.46
713.181	1679.51
713.368	1695.89
713.556	1775.76
713.744	1642.64
713.931	1837.2
714.119	1769.62
714.306	1753.23
714.494	1722.51
714.682	1816.72
714.869	1693.84
715.057	1755.28
715.244	1736.85
715.432	1710.22
715.619	1804.43
715.807	1822.86
715.994	1796.24
716.182	1689.74
716.369	1816.72
716.556	1874.06
716.744	1755.28
716.931	1648.79
717.119	1736.85
717.306	1773.71
717.493	1751.18
717.681	1884.3
717.868	1810.58
718.055	1771.66
718.242	1888.4
718.43	1702.03
718.617	1802.38
718.804	1671.31
718.991	1769.62
719.179	1648.79
719.366	1812.62
719.553	1720.46
719.74	1704.08
719.927	1820.81
720.114	1720.46
720.301	1566.87
720.488	1747.09
720.676	1783.95
720.863	1800.34
721.05	1736.85
721.237	1855.63
721.424	1759.38
721.611	1781.9
721.798	1708.18
721.985	1714.32
722.172	1826.96
722.358	1704.08
722.545	1775.76
722.732	1812.62
722.919	1820.81
723.106	1704.08
723.293	1712.27
723.48	1714.32
723.667	1853.58
723.853	1732.75
724.04	1751.18
724.227	1769.62
724.414	1820.81
724.6	1687.7
724.787	1710.22
724.974	1783.95
725.161	1685.65
725.347	1695.89
725.534	1796.24
725.72	1732.75
725.907	1732.75
726.094	1810.58
726.28	1747.09
726.467	1814.67
726.653	1738.9
726.84	1777.81
727.027	1835.15
727.213	1845.39
727.4	1818.77
727.586	1747.09
727.773	1669.27
727.959	1794.19
728.145	1734.8
728.332	1730.7
728.518	1806.48
728.705	1853.58
728.891	1687.7
729.077	1730.7
729.264	1675.41
729.45	1738.9
729.636	1816.72
729.823	1714.32
730.009	1751.18
730.195	1745.04
730.382	1695.89
730.568	1749.14
730.754	1810.58
730.94	1788.05
731.126	1745.04
731.313	1818.77
731.499	1702.03
731.685	1788.05
731.871	1771.66
732.057	1759.38
732.243	1761.42
732.429	1788.05
732.615	1759.38
732.801	1777.81
732.987	1648.79
733.173	1724.56
733.359	1726.61
733.545	1740.94
733.731	1855.63
733.917	1742.99
734.103	1687.7
734.289	1773.71
734.475	1689.74
734.661	1742.99
734.847	1685.65
735.033	1636.5
735.219	1745.04
735.404	1726.61
735.59	1644.69
735.776	1691.79
735.962	1753.23
736.148	1622.16
736.333	1757.33
736.519	1683.6
736.705	1773.71
736.89	1790.1
737.076	1650.83
737.262	1597.59
737.447	1736.85
737.633	1659.03
737.819	1794.19
738.004	1620.11
738.19	1702.03
738.375	1659.03
738.561	1613.97
738.747	1587.35
738.932	1656.98
739.118	1622.16
739.303	1628.31
739.489	1710.22
739.674	1659.03
739.859	1620.11
740.045	1607.83
740.23	1693.84
740.416	1587.35
740.601	1659.03
740.786	1638.55
740.972	1632.4
741.157	1671.31
741.342	1622.16
741.528	1579.15
741.713	1638.55
741.898	1579.15
742.084	1556.63
742.269	1585.3
742.454	1470.61
742.639	1566.87
742.824	1452.18
743.01	1591.44
743.195	1677.46
743.38	1446.04
743.565	1577.11
743.75	1542.29
743.935	1476.76
744.12	1519.76
744.305	1523.86
744.49	1521.81
744.675	1554.58
744.86	1489.04
745.045	1568.91
745.23	1403.03
745.415	1427.6
745.6	1495.19
745.785	1505.43
745.97	1448.08
746.155	1419.41
746.34	1421.46
746.525	1501.33
746.71	1405.08
746.895	1427.6
747.079	1390.74
747.264	1470.61
747.449	1382.55
747.634	1380.5
747.819	1304.73
748.003	1370.26
748.188	1396.89
748.373	1312.92
748.557	1460.37
748.742	1333.4
748.927	1300.63
749.111	1310.87
749.296	1368.21
749.481	1310.87
749.665	1237.14
749.85	1231
750.034	1343.64
750.219	1212.57
750.404	1149.08
750.588	1243.29
750.773	1308.82
750.957	1265.82
751.141	1298.58
751.326	1212.57
751.51	1263.77
751.695	1231
751.879	1220.76
752.064	1243.29
752.248	1179.8
752.432	1335.45
752.617	1149.08
752.801	1118.36
752.985	1231
753.17	1136.79
753.354	1140.89
753.538	1144.99
753.722	1089.69
753.907	1122.46
754.091	1050.78
754.275	1042.59
754.459	1157.27
754.643	1083.55
754.828	1104.03
755.012	1069.21
755.196	1138.84
755.38	1001.63
755.564	1032.35
755.748	1032.35
755.932	1032.35
756.116	966.81
756.3	1054.87
756.484	1106.07
756.668	1050.78
756.852	1038.49
757.036	1052.83
757.22	975
757.404	977.05
757.588	936.09
757.772	1013.92
757.956	909.47
758.14	1058.97
758.323	915.61
758.507	964.76
758.691	874.65
758.875	999.58
759.059	985.24
759.242	903.32
759.426	835.74
759.61	929.95
759.794	936.09
759.977	878.75
760.161	915.61
760.345	932
760.528	977.05
760.712	866.46
760.895	862.37
761.079	880.8
761.263	907.42
761.446	831.65
761.63	860.32
761.813	854.17
761.997	852.13
762.18	805.02
762.364	802.97
762.547	790.69
762.731	880.8
762.914	778.4
763.098	813.21
763.281	780.45
763.464	786.59
763.648	809.12
763.831	882.85
764.015	829.6
764.198	766.11
764.381	792.73
764.564	841.89
764.748	774.3
764.931	870.56
765.114	780.45
765.297	774.3
765.481	719.01
765.664	766.11
765.847	848.03
766.03	829.6
766.213	743.58
766.397	800.93
766.58	792.73
766.763	749.73
766.946	749.73
767.129	745.63
767.312	698.53
767.495	657.57
767.678	686.24
767.861	821.41
768.044	702.62
768.227	710.82
768.41	770.21
768.593	645.28
768.776	641.18
768.959	696.48
769.142	729.25
769.324	682.14
769.507	737.44
769.69	714.91
769.873	680.1
770.056	706.72
770.239	712.86
770.421	747.68
770.604	678.05
770.787	702.62
770.97	749.73
771.152	626.85
771.335	635.04
771.518	735.39
771.7	641.18
771.883	649.38
772.066	673.95
772.248	682.14
772.431	676
772.613	676
772.796	647.33
772.978	665.76
773.161	653.47
773.343	661.66
773.526	538.79
773.708	639.14
773.891	635.04
774.073	567.46
774.256	600.23
774.438	534.69
774.621	641.18
774.803	624.8
774.985	561.31
775.168	635.04
775.35	546.98
775.532	598.18
775.715	696.48
775.897	561.31
776.079	555.17
776.261	579.75
776.444	526.5
776.626	510.11
776.808	561.31
776.99	532.64
777.173	559.27
777.355	551.07
777.537	606.37
777.719	520.35
777.901	479.4
778.083	520.35
778.265	526.5
778.447	503.97
778.629	487.59
778.811	602.27
778.993	544.93
779.175	501.92
779.357	538.79
779.539	510.11
779.721	487.59
779.903	440.48
780.085	420
780.267	481.44
780.449	448.68
780.631	446.63
780.812	456.87
780.994	467.11
781.176	479.4
781.358	542.88
781.54	430.24
781.721	463.01
781.903	463.01
782.085	557.22
782.267	381.09
782.448	383.14
782.63	370.85
782.812	479.4
782.993	465.06
783.175	475.3
783.357	379.04
783.538	350.37
783.72	413.86
783.901	411.81
784.083	446.63
784.264	413.86
784.446	409.76
784.627	397.48
784.809	362.66
784.99	331.94
785.172	393.38
785.353	379.04
785.535	354.47
785.716	311.46
785.897	346.28
786.079	420
786.26	383.14
786.441	374.95
786.623	235.69
786.804	415.91
786.985	305.32
787.167	458.92
787.348	276.65
787.529	317.61
787.71	377
787.891	362.66
788.073	372.9
788.254	290.98
788.435	387.24
788.616	268.45
788.797	280.74
788.978	307.37
789.159	383.14
789.34	286.89
789.522	303.27
789.703	350.37
789.884	385.19
790.065	354.47
790.246	325.8
790.427	284.84
790.607	354.47
790.788	286.89
790.969	297.13
791.15	256.17
791.331	245.93
791.512	293.03
791.693	227.5
791.874	301.22
792.054	256.17
792.235	325.8
792.416	293.03
792.597	288.93
792.778	286.89
792.958	258.21
793.139	276.65
793.32	301.22
793.5	250.02
793.681	262.31
793.862	338.09
794.042	297.13
794.223	276.65
794.404	254.12
794.584	180.39
794.765	254.12
794.945	215.21
795.126	247.97
795.306	233.64
795.487	256.17
795.667	239.78
795.848	137.38
796.028	192.68
796.209	239.78
796.389	260.26
796.57	223.4
796.75	145.58
796.93	235.69
797.111	192.68
797.291	184.49
797.471	293.03
797.652	170.15
797.832	164.01
798.012	217.26
798.192	211.11
798.373	233.64
798.553	243.88
798.733	215.21
798.913	153.77
799.093	182.44
799.274	235.69
799.454	209.06
799.634	237.74
799.814	223.4
799.994	288.93
800.174	204.97
800.354	215.21
800.534	217.26
800.714	170.15
800.894	147.62
801.074	204.97
801.254	188.58
801.434	211.11
801.614	147.62
801.794	170.15
801.974	632.99
802.154	110.76
802.334	198.82
802.514	176.3
802.693	182.44
802.873	145.58
803.053	241.83
803.233	143.53
803.413	166.06
803.592	182.44
803.772	235.69
803.952	215.21
804.131	174.25
804.311	159.91
804.491	207.02
804.67	88.23
804.85	125.1
805.03	182.44
805.209	239.78
805.389	94.38
805.568	235.69
805.748	143.53
805.928	147.62
806.107	180.39
806.287	188.58
806.466	258.21
806.646	170.15
806.825	145.58
807.004	172.2
807.184	180.39
807.363	207.02
807.543	217.26
807.722	110.76
807.901	116.9
808.081	125.1
808.26	131.24
808.439	125.1
808.619	127.14
808.798	194.73
808.977	127.14
809.156	219.3
809.336	161.96
809.515	186.54
809.694	112.81
809.873	133.29
810.052	71.85
810.231	133.29
810.411	75.95
810.59	116.9
810.769	186.54
810.948	178.34
811.127	116.9
811.306	186.54
811.485	116.9
811.664	145.58
811.843	202.92
812.022	176.3
812.201	127.14
812.38	133.29
812.559	80.04
812.737	164.01
812.916	141.48
813.095	121
813.274	65.71
813.453	110.76
813.632	102.57
813.811	141.48
813.989	77.99
814.168	168.1
814.347	157.86
814.526	147.62
814.704	200.87
814.883	184.49
815.062	71.85
815.24	75.95
815.419	20.65
815.598	73.9
815.776	75.95
815.955	77.99
816.133	129.19
816.312	200.87
816.49	39.08
816.669	123.05
816.847	110.76
817.026	82.09
817.204	116.9
817.383	106.67
817.561	86.19
817.74	141.48
817.918	196.78
818.097	32.94
818.275	104.62
818.453	84.14
818.632	75.95
818.81	73.9
818.988	80.04
819.167	121
819.345	141.48
819.523	71.85
819.701	77.99
819.879	110.76
820.058	90.28
820.236	43.18
820.414	172.2
820.592	67.75
820.77	106.67
820.948	100.52
821.127	39.08
821.305	63.66
821.483	49.32
821.661	129.19
821.839	106.67
822.017	168.1
822.195	98.47
822.373	172.2
822.551	104.62
822.729	157.86
822.907	28.84
823.085	63.66
823.262	104.62
823.44	73.9
823.618	94.38
823.796	106.67
823.974	45.23
824.152	96.43
824.329	96.43
824.507	80.04
824.685	69.8
824.863	65.71
825.04	57.51
825.218	51.37
825.396	80.04
825.574	84.14
825.751	71.85
825.929	125.1
826.107	53.42
826.284	90.28
826.462	61.61
826.639	80.04
826.817	102.57
826.994	106.67
827.172	41.13
827.349	82.09
827.527	10.41
827.704	137.38
827.882	34.99
828.059	20.65
828.237	-8.02
828.414	145.58
828.591	30.89
828.769	67.75
828.946	57.51
829.124	26.79
829.301	55.47
829.478	39.08
829.655	65.71
829.833	106.67
830.01	51.37
830.187	43.18
830.364	123.05
830.542	77.99
830.719	121
830.896	51.37
831.073	98.47
831.25	67.75
831.427	90.28
831.604	145.58
831.782	51.37
831.959	112.81
832.136	-22.36
832.313	47.27
832.49	67.75
832.667	47.27
832.844	-18.26
833.021	98.47
833.198	26.79
833.374	51.37
833.551	77.99
833.728	80.04
833.905	37.03
834.082	106.67
834.259	55.47
834.436	45.23
834.612	75.95
834.789	86.19
834.966	47.27
835.143	71.85
835.319	59.56
835.496	84.14
835.673	59.56
835.85	96.43
836.026	18.6
836.203	153.77
836.38	-24.4
836.556	59.56
836.733	18.6
836.909	86.19
837.086	26.79
837.262	69.8
837.439	131.24
837.616	22.7
837.792	10.41
837.968	121
838.145	12.46
838.321	137.38
838.498	22.7
838.674	43.18
838.851	28.84
839.027	37.03
839.203	43.18
839.38	43.18
839.556	59.56
839.732	30.89
839.909	-65.36
840.085	45.23
840.261	-51.03
840.437	67.75
840.614	-12.12
840.79	39.08
840.966	59.56
841.142	149.67
841.318	0.17
841.494	-32.6
841.671	43.18
841.847	2.22
842.023	-1.88
842.199	57.51
842.375	92.33
842.551	22.7
842.727	45.23
842.903	55.47
843.079	18.6
843.255	20.65
843.431	16.55
843.607	84.14
843.783	-16.21
843.959	12.46
844.134	-22.36
844.31	73.9
844.486	2.22
844.662	4.27
844.838	-1.88
845.013	8.36
845.189	30.89
845.365	108.71
845.541	80.04
845.716	39.08
845.892	77.99
846.068	69.8
846.244	102.57
846.419	80.04
846.595	-20.31
846.77	-5.97
846.946	59.56
847.122	86.19
847.297	-12.12
847.473	-3.93
847.648	-20.31
847.824	104.62
847.999	-69.46
848.175	-40.79
848.35	30.89
848.526	86.19
848.701	14.51
848.876	-22.36
849.052	32.94
849.227	0.17
849.403	51.37
849.578	84.14
849.753	34.99
849.929	24.75
850.104	57.51
850.279	-5.97
850.454	32.94
850.63	57.51
850.805	-40.79
850.98	61.61
851.155	22.7
851.33	20.65
851.505	-28.5
851.681	65.71
851.856	47.27
852.031	43.18
852.206	-44.88
852.381	92.33
852.556	-24.4
852.731	6.31
852.906	39.08
853.081	135.34
853.256	57.51
853.431	34.99
853.606	16.55
853.781	-14.17
853.956	-53.08
854.131	10.41
854.305	55.47
854.48	-65.36
854.655	26.79
854.83	39.08
855.005	18.6
855.18	12.46
855.354	8.36
855.529	-5.97
855.704	16.55
855.879	24.75
856.053	16.55
856.228	65.71
856.403	-18.26
856.577	34.99
856.752	0.17
856.926	12.46
857.101	63.66
857.276	-5.97
857.45	-5.97
857.625	-8.02
857.799	-5.97
857.974	47.27
858.148	20.65
858.323	51.37
858.497	118.95
858.672	10.41
858.846	28.84
859.02	34.99
859.195	14.51
859.369	14.51
859.543	-8.02
859.718	28.84
859.892	86.19
860.066	-18.26
860.241	88.23
860.415	26.79
860.589	-20.31
860.763	-10.07
860.938	-26.45
861.112	41.13
861.286	-3.93
861.46	12.46
861.634	57.51
861.808	43.18
861.982	10.41
862.157	32.94
862.331	-67.41
862.505	-14.17
862.679	-24.4
862.853	41.13
863.027	14.51
863.201	-22.36
863.375	18.6
863.549	10.41
863.722	12.46
863.896	55.47
864.07	4.27
864.244	10.41
864.418	-16.21
864.592	43.18
864.766	14.51
864.939	6.31
865.113	8.36
865.287	-5.97
865.461	47.27
865.634	12.46
865.808	-51.03
865.982	26.79
866.156	8.36
866.329	-26.45
866.503	-26.45
866.676	4.27
866.85	-12.12
867.024	26.79
867.197	39.08
867.371	-28.5
867.544	57.51
867.718	6.31
867.891	37.03
868.065	45.23
868.238	10.41
868.412	4.27
868.585	51.37
868.759	30.89
868.932	-65.36
869.105	18.6
869.279	-20.31
869.452	-81.75
869.625	-12.12
869.799	-22.36
869.972	-8.02
870.145	22.7
870.319	-26.45
870.492	32.94
870.665	37.03
870.838	18.6
871.011	14.51
871.185	-38.74
871.358	-22.36
871.531	0.17
871.704	55.47
871.877	41.13
872.05	-44.88
872.223	26.79
872.396	20.65
872.569	6.31
872.742	-5.97
872.915	-3.93
873.088	-12.12
873.261	65.71
873.434	-20.31
873.607	-36.69
873.78	32.94
873.953	-32.6
874.126	37.03
874.299	14.51
874.471	26.79
874.644	-1.88
874.817	80.04
874.99	0.17
875.163	-10.07
875.335	65.71
875.508	24.75
875.681	18.6
875.853	30.89
876.026	-63.32
876.199	-42.84
876.371	37.03
876.544	14.51
876.717	-5.97
876.889	41.13
877.062	65.71
877.234	-18.26
877.407	-14.17
877.579	24.75
877.752	-3.93
877.924	28.84
878.097	41.13
878.269	-34.64
878.442	43.18
878.614	-1.88
878.786	39.08
878.959	92.33
879.131	6.31
879.303	-14.17
879.476	39.08
879.648	-18.26
879.82	57.51
879.993	-8.02
880.165	-24.4
880.337	-22.36
880.509	57.51
880.681	22.7
880.854	-28.5
881.026	18.6
881.198	67.75
881.37	-10.07
881.542	77.99
881.714	-40.79
881.886	-30.55
882.058	18.6
882.23	45.23
882.402	-44.88
882.574	-38.74
882.746	39.08
882.918	2.22
883.09	4.27
883.262	65.71
883.434	-34.64
883.606	-94.04
883.778	-10.07
883.95	59.56
884.122	-3.93
884.293	-28.5
884.465	37.03
884.637	69.8
884.809	39.08
884.98	-30.55
885.152	-24.4
885.324	57.51
885.496	-10.07
885.667	10.41
885.839	-5.97
886.011	110.76
886.182	-40.79
886.354	-12.12
886.525	-10.07
886.697	47.27
886.869	-3.93
887.04	57.51
887.212	8.36
887.383	16.55
887.555	-5.97
887.726	-81.75
887.897	26.79
888.069	37.03
888.24	-32.6
888.412	71.85
888.583	43.18
888.754	-3.93
888.926	-34.64
889.097	41.13
889.268	-63.32
889.44	12.46
889.611	2.22
889.782	-3.93
889.953	16.55
890.125	-55.12
890.296	-38.74
890.467	20.65
890.638	-20.31
890.809	39.08
890.98	-36.69
891.151	2.22
891.323	59.56
891.494	43.18
891.665	0.17
891.836	28.84
892.007	-94.04
892.178	43.18
892.349	20.65
892.52	-30.55
892.691	10.41
892.862	22.7
893.032	-20.31
893.203	-75.6
893.374	22.7
893.545	-44.88
893.716	-32.6
893.887	69.8
894.057	30.89
894.228	12.46
894.399	-38.74
894.57	43.18
894.74	-18.26
894.911	20.65
895.082	73.9
895.253	-38.74
895.423	-67.41
895.594	4.27
895.764	-34.64
895.935	-8.02
896.106	-1.88
896.276	0.17
896.447	30.89
896.617	-24.4
896.788	30.89
896.958	-10.07
897.129	22.7
897.299	24.75
897.47	63.66
897.64	16.55
897.81	-32.6
897.981	16.55
898.151	-5.97
898.322	-44.88
898.492	-1.88
898.662	-10.07
898.832	-51.03
899.003	34.99
899.173	2.22
899.343	55.47
899.513	24.75
