Data from USB4F104151__147__11-08-18-691.txt Node

Date: Wed Mar 12 11:08:18 EDT 2025
User: louis
Spectrometer: USB4F10415
Trigger mode: 4
Integration Time (sec): 2.000000E-2
Scans to average: 1
Electric dark correction enabled: true
Nonlinearity correction enabled: false
Boxcar width: 0
XAxis mode: Wavelengths
Number of Pixels in Spectrum: 3648
>>>>>Begin Spectral Data<<<<<
178.204	-26.62
178.424	-26.62
178.644	-26.62
178.864	-75.77
179.084	-36.86
179.304	-22.53
179.524	24.58
179.744	-40.96
179.964	55.3
180.184	34.82
180.404	75.77
180.624	-12.29
180.844	-28.67
181.064	-26.62
181.283	-32.77
181.503	-14.34
181.723	-12.29
181.943	-45.06
182.163	86.01
182.383	-26.62
182.602	59.39
182.822	90.11
183.042	-18.43
183.262	28.67
183.482	16.38
183.701	45.06
183.921	-77.82
184.141	2.05
184.361	53.25
184.58	47.1
184.8	20.48
185.02	-16.38
185.239	36.86
185.459	81.92
185.679	22.53
185.898	-55.3
186.118	116.73
186.338	-40.96
186.557	6.14
186.777	30.72
186.997	67.58
187.216	43.01
187.436	98.3
187.655	49.15
187.875	75.77
188.095	110.59
188.314	71.68
188.534	14.34
188.753	-6.14
188.973	16.38
189.192	-6.14
189.412	43.01
189.631	32.77
189.851	2.05
190.07	20.48
190.29	24.58
190.509	81.92
190.729	61.44
190.948	69.63
191.168	81.92
191.387	-32.77
191.607	26.62
191.826	61.44
192.045	6.14
192.265	88.06
192.484	26.62
192.704	65.54
192.923	88.06
193.142	159.74
193.362	36.86
193.581	43.01
193.8	16.38
194.02	34.82
194.239	-75.77
194.458	71.68
194.678	0
194.897	77.82
195.116	77.82
195.335	61.44
195.555	90.11
195.774	30.72
195.993	-8.19
196.212	-8.19
196.432	22.53
196.651	65.54
196.87	-24.58
197.089	34.82
197.308	8.19
197.528	30.72
197.747	-26.62
197.966	-12.29
198.185	22.53
198.404	47.1
198.623	18.43
198.842	49.15
199.062	79.87
199.281	49.15
199.5	40.96
199.719	71.68
199.938	73.73
200.157	32.77
200.376	69.63
200.595	104.45
200.814	73.73
201.033	4.1
201.252	40.96
201.471	49.15
201.69	86.01
201.909	30.72
202.128	-6.14
202.347	63.49
202.566	-4.1
202.785	-14.34
203.004	4.1
203.223	90.11
203.442	53.25
203.661	4.1
203.879	104.45
204.098	69.63
204.317	26.62
204.536	34.82
204.755	6.14
204.974	14.34
205.193	-18.43
205.411	157.69
205.63	77.82
205.849	4.1
206.068	81.92
206.287	59.39
206.505	75.77
206.724	81.92
206.943	-18.43
207.162	75.77
207.381	-26.62
207.599	8.19
207.818	-45.06
208.037	43.01
208.255	30.72
208.474	49.15
208.693	67.58
208.911	61.44
209.13	122.88
209.349	92.16
209.567	92.16
209.786	32.77
210.005	47.1
210.223	8.19
210.442	-16.38
210.661	-10.24
210.879	32.77
211.098	-2.05
211.316	26.62
211.535	28.67
211.753	16.38
211.972	24.58
212.191	-12.29
212.409	77.82
212.628	38.91
212.846	40.96
213.065	83.97
213.283	57.34
213.502	-20.48
213.72	53.25
213.938	-6.14
214.157	22.53
214.375	75.77
214.594	20.48
214.812	24.58
215.031	-61.44
215.249	-32.77
215.467	81.92
215.686	10.24
215.904	-6.14
216.122	86.01
216.341	65.54
216.559	49.15
216.778	4.1
216.996	14.34
217.214	6.14
217.432	-34.82
217.651	-16.38
217.869	-20.48
218.087	102.4
218.306	49.15
218.524	22.53
218.742	-34.82
218.96	67.58
219.179	32.77
219.397	104.45
219.615	34.82
219.833	32.77
220.051	-24.58
220.27	0
220.488	-8.19
220.706	14.34
220.924	16.38
221.142	-28.67
221.36	20.48
221.578	-6.14
221.796	24.58
222.015	98.3
222.233	34.82
222.451	40.96
222.669	-51.2
222.887	75.77
223.105	34.82
223.323	28.67
223.541	-34.82
223.759	-4.1
223.977	16.38
224.195	65.54
224.413	36.86
224.631	14.34
224.849	-6.14
225.067	71.68
225.285	-10.24
225.503	61.44
225.721	65.54
225.939	38.91
226.157	59.39
226.375	90.11
226.592	-71.68
226.81	61.44
227.028	30.72
227.246	86.01
227.464	6.14
227.682	67.58
227.9	36.86
228.117	83.97
228.335	69.63
228.553	-20.48
228.771	12.29
228.989	63.49
229.206	16.38
229.424	-14.34
229.642	-40.96
229.86	-16.38
230.077	94.21
230.295	-45.06
230.513	65.54
230.731	0
230.948	63.49
231.166	65.54
231.384	18.43
231.601	-16.38
231.819	26.62
232.037	32.77
232.254	-40.96
232.472	75.77
232.689	28.67
232.907	49.15
233.125	-26.62
233.342	57.34
233.56	-36.86
233.777	12.29
233.995	45.06
234.213	-12.29
234.43	-63.49
234.648	14.34
234.865	-20.48
235.083	22.53
235.3	81.92
235.518	71.68
235.735	59.39
235.953	-2.05
236.17	-24.58
236.388	-12.29
236.605	26.62
236.822	-4.1
237.04	40.96
237.257	69.63
237.475	-8.19
237.692	18.43
237.909	8.19
238.127	86.01
238.344	-6.14
238.562	45.06
238.779	10.24
238.996	4.1
239.214	24.58
239.431	8.19
239.648	20.48
239.865	0
240.083	20.48
240.3	10.24
240.517	34.82
240.735	71.68
240.952	73.73
241.169	16.38
241.386	45.06
241.603	98.3
241.821	22.53
242.038	149.5
242.255	49.15
242.472	65.54
242.689	34.82
242.907	63.49
243.124	69.63
243.341	49.15
243.558	-69.63
243.775	-26.62
243.992	-14.34
244.209	18.43
244.426	45.06
244.643	69.63
244.86	65.54
245.078	22.53
245.295	-22.53
245.512	77.82
245.729	4.1
245.946	63.49
246.163	83.97
246.38	32.77
246.597	88.06
246.814	24.58
247.031	34.82
247.248	-8.19
247.464	55.3
247.681	-51.2
247.898	-8.19
248.115	47.1
248.332	16.38
248.549	57.34
248.766	-20.48
248.983	40.96
249.2	61.44
249.417	63.49
249.633	4.1
249.85	75.77
250.067	-30.72
250.284	79.87
250.501	63.49
250.717	26.62
250.934	12.29
251.151	65.54
251.368	59.39
251.585	79.87
251.801	4.1
252.018	-14.34
252.235	43.01
252.451	43.01
252.668	8.19
252.885	34.82
253.102	83.97
253.318	49.15
253.535	4.1
253.752	49.15
253.968	45.06
254.185	-34.82
254.401	26.62
254.618	43.01
254.835	-47.1
255.051	8.19
255.268	22.53
255.484	6.14
255.701	14.34
255.917	28.67
256.134	36.86
256.351	-47.1
256.567	-2.05
256.784	0
257	24.58
257.217	59.39
257.433	112.64
257.65	4.1
257.866	22.53
258.082	-30.72
258.299	-4.1
258.515	36.86
258.732	-24.58
258.948	26.62
259.165	43.01
259.381	8.19
259.597	65.54
259.814	10.24
260.03	-16.38
260.246	-14.34
260.463	77.82
260.679	4.1
260.895	49.15
261.112	67.58
261.328	-4.1
261.544	-12.29
261.761	-8.19
261.977	77.82
262.193	2.05
262.409	114.69
262.626	47.1
262.842	32.77
263.058	-4.1
263.274	61.44
263.49	36.86
263.707	-4.1
263.923	77.82
264.139	16.38
264.355	47.1
264.571	57.34
264.787	59.39
265.004	40.96
265.22	55.3
265.436	65.54
265.652	38.91
265.868	61.44
266.084	-43.01
266.3	49.15
266.516	90.11
266.732	43.01
266.948	83.97
267.164	-10.24
267.38	32.77
267.596	63.49
267.812	18.43
268.028	40.96
268.244	6.14
268.46	40.96
268.676	-18.43
268.892	108.54
269.108	12.29
269.324	10.24
269.54	6.14
269.756	36.86
269.972	51.2
270.188	77.82
270.403	-36.86
270.619	49.15
270.835	-26.62
271.051	73.73
271.267	57.34
271.483	43.01
271.698	8.19
271.914	2.05
272.13	22.53
272.346	98.3
272.562	34.82
272.777	81.92
272.993	10.24
273.209	83.97
273.425	2.05
273.64	86.01
273.856	28.67
274.072	2.05
274.287	-24.58
274.503	73.73
274.719	55.3
274.934	124.93
275.15	0
275.366	51.2
275.581	92.16
275.797	-40.96
276.012	-63.49
276.228	43.01
276.444	40.96
276.659	61.44
276.875	32.77
277.09	59.39
277.306	-16.38
277.521	47.1
277.737	45.06
277.952	77.82
278.168	-73.73
278.383	-18.43
278.599	86.01
278.814	-12.29
279.03	45.06
279.245	83.97
279.461	38.91
279.676	59.39
279.892	69.63
280.107	28.67
280.322	51.2
280.538	-73.73
280.753	32.77
280.969	88.06
281.184	0
281.399	32.77
281.615	8.19
281.83	-8.19
282.045	4.1
282.26	-12.29
282.476	-14.34
282.691	141.31
282.906	36.86
283.122	75.77
283.337	53.25
283.552	47.1
283.767	-18.43
283.983	22.53
284.198	18.43
284.413	38.91
284.628	49.15
284.843	24.58
285.058	81.92
285.274	10.24
285.489	57.34
285.704	38.91
285.919	30.72
286.134	4.1
286.349	14.34
286.564	71.68
286.779	75.77
286.995	63.49
287.21	4.1
287.425	122.88
287.64	-32.77
287.855	32.77
288.07	47.1
288.285	63.49
288.5	34.82
288.715	77.82
288.93	12.29
289.145	57.34
289.36	102.4
289.575	30.72
289.79	73.73
290.004	-10.24
290.219	4.1
290.434	98.3
290.649	8.19
290.864	-51.2
291.079	83.97
291.294	-18.43
291.509	47.1
291.724	-20.48
291.938	16.38
292.153	49.15
292.368	2.05
292.583	92.16
292.798	38.91
293.012	12.29
293.227	53.25
293.442	38.91
293.657	75.77
293.871	-6.14
294.086	10.24
294.301	112.64
294.516	61.44
294.73	75.77
294.945	43.01
295.16	43.01
295.374	94.21
295.589	14.34
295.804	47.1
296.018	57.34
296.233	55.3
296.447	14.34
296.662	-10.24
296.877	75.77
297.091	79.87
297.306	34.82
297.52	53.25
297.735	8.19
297.949	73.73
298.164	24.58
298.378	47.1
298.593	30.72
298.807	24.58
299.022	86.01
299.236	137.21
299.451	61.44
299.665	36.86
299.88	88.06
300.094	10.24
300.309	-2.05
300.523	102.4
300.737	71.68
300.952	26.62
301.166	0
301.381	63.49
301.595	-24.58
301.809	55.3
302.024	-20.48
302.238	-26.62
302.452	92.16
302.667	8.19
302.881	65.54
303.095	55.3
303.309	40.96
303.524	73.73
303.738	-22.53
303.952	49.15
304.166	20.48
304.381	63.49
304.595	92.16
304.809	57.34
305.023	65.54
305.237	38.91
305.452	12.29
305.666	59.39
305.88	16.38
306.094	26.62
306.308	73.73
306.522	47.1
306.736	90.11
306.95	88.06
307.164	88.06
307.379	-10.24
307.593	47.1
307.807	32.77
308.021	30.72
308.235	32.77
308.449	14.34
308.663	-73.73
308.877	104.45
309.091	28.67
309.305	-38.91
309.519	-32.77
309.733	-10.24
309.947	-43.01
310.161	77.82
310.374	32.77
310.588	43.01
310.802	12.29
311.016	43.01
311.23	32.77
311.444	34.82
311.658	14.34
311.872	36.86
312.085	8.19
312.299	45.06
312.513	14.34
312.727	-55.3
312.941	77.82
313.154	12.29
313.368	-8.19
313.582	79.87
313.796	45.06
314.009	4.1
314.223	51.2
314.437	36.86
314.651	26.62
314.864	61.44
315.078	6.14
315.292	-24.58
315.505	-18.43
315.719	-6.14
315.933	47.1
316.146	63.49
316.36	-34.82
316.573	73.73
316.787	36.86
317.001	43.01
317.214	100.35
317.428	90.11
317.641	-2.05
317.855	30.72
318.068	55.3
318.282	38.91
318.495	129.02
318.709	77.82
318.922	24.58
319.136	55.3
319.349	57.34
319.563	12.29
319.776	-16.38
319.99	83.97
320.203	-4.1
320.417	-40.96
320.63	53.25
320.843	83.97
321.057	-6.14
321.27	63.49
321.483	-24.58
321.697	59.39
321.91	26.62
322.124	-8.19
322.337	18.43
322.55	22.53
322.763	106.49
322.977	36.86
323.19	0
323.403	18.43
323.617	4.1
323.83	34.82
324.043	71.68
324.256	49.15
324.469	55.3
324.683	81.92
324.896	-14.34
325.109	30.72
325.322	36.86
325.535	69.63
325.748	69.63
325.962	57.34
326.175	59.39
326.388	59.39
326.601	45.06
326.814	-10.24
327.027	106.49
327.24	-22.53
327.453	-16.38
327.666	40.96
327.879	-20.48
328.092	51.2
328.305	12.29
328.518	71.68
328.731	-26.62
328.944	14.34
329.157	53.25
329.37	53.25
329.583	104.45
329.796	118.78
330.009	-81.92
330.222	45.06
330.435	86.01
330.648	102.4
330.861	86.01
331.073	36.86
331.286	73.73
331.499	-26.62
331.712	26.62
331.925	0
332.138	-40.96
332.35	14.34
332.563	57.34
332.776	26.62
332.989	-18.43
333.202	43.01
333.414	67.58
333.627	-14.34
333.84	45.06
334.053	28.67
334.265	53.25
334.478	8.19
334.691	73.73
334.903	67.58
335.116	22.53
335.329	104.45
335.541	49.15
335.754	88.06
335.966	38.91
336.179	4.1
336.392	30.72
336.604	18.43
336.817	-6.14
337.029	51.2
337.242	43.01
337.454	53.25
337.667	24.58
337.88	49.15
338.092	38.91
338.305	34.82
338.517	90.11
338.729	79.87
338.942	-24.58
339.154	59.39
339.367	28.67
339.579	55.3
339.792	24.58
340.004	96.25
340.217	8.19
340.429	47.1
340.641	47.1
340.854	28.67
341.066	22.53
341.278	30.72
341.491	116.73
341.703	32.77
341.915	-14.34
342.128	8.19
342.34	65.54
342.552	-18.43
342.764	81.92
342.977	-34.82
343.189	40.96
343.401	96.25
343.613	-55.3
343.826	16.38
344.038	22.53
344.25	79.87
344.462	47.1
344.674	57.34
344.886	28.67
345.099	83.97
345.311	98.3
345.523	75.77
345.735	-18.43
345.947	57.34
346.159	106.49
346.371	36.86
346.583	61.44
346.795	153.6
347.007	73.73
347.219	94.21
347.431	30.72
347.643	83.97
347.855	55.3
348.067	92.16
348.279	24.58
348.491	77.82
348.703	26.62
348.915	14.34
349.127	176.13
349.339	145.41
349.551	30.72
349.763	28.67
349.975	88.06
350.187	86.01
350.399	55.3
350.61	20.48
350.822	63.49
351.034	6.14
351.246	22.53
351.458	81.92
351.669	0
351.881	112.64
352.093	98.3
352.305	28.67
352.517	14.34
352.728	75.77
352.94	51.2
353.152	57.34
353.363	20.48
353.575	55.3
353.787	4.1
353.999	79.87
354.21	47.1
354.422	0
354.633	-20.48
354.845	98.3
355.057	16.38
355.268	24.58
355.48	-28.67
355.692	81.92
355.903	90.11
356.115	8.19
356.326	2.05
356.538	79.87
356.749	30.72
356.961	92.16
357.172	47.1
357.384	-14.34
357.595	83.97
357.807	104.45
358.018	16.38
358.23	18.43
358.441	47.1
358.653	81.92
358.864	90.11
359.075	57.34
359.287	90.11
359.498	73.73
359.709	51.2
359.921	10.24
360.132	131.07
360.344	63.49
360.555	71.68
360.766	47.1
360.977	55.3
361.189	98.3
361.4	65.54
361.611	71.68
361.823	57.34
362.034	59.39
362.245	47.1
362.456	14.34
362.667	61.44
362.879	-30.72
363.09	-2.05
363.301	51.2
363.512	45.06
363.723	20.48
363.935	14.34
364.146	86.01
364.357	-51.2
364.568	59.39
364.779	32.77
364.99	53.25
365.201	22.53
365.412	112.64
365.623	22.53
365.834	16.38
366.045	55.3
366.256	22.53
366.467	83.97
366.678	63.49
366.889	40.96
367.1	83.97
367.311	92.16
367.522	-10.24
367.733	122.88
367.944	55.3
368.155	30.72
368.366	55.3
368.577	40.96
368.788	32.77
368.999	65.54
369.209	75.77
369.42	161.79
369.631	120.83
369.842	77.82
370.053	34.82
370.264	88.06
370.474	47.1
370.685	73.73
370.896	81.92
371.107	55.3
371.317	57.34
371.528	65.54
371.739	143.36
371.95	40.96
372.16	71.68
372.371	30.72
372.582	32.77
372.792	8.19
373.003	34.82
373.214	77.82
373.424	57.34
373.635	-20.48
373.846	20.48
374.056	75.77
374.267	47.1
374.477	88.06
374.688	122.88
374.898	24.58
375.109	100.35
375.319	-8.19
375.53	143.36
375.74	73.73
375.951	96.25
376.161	86.01
376.372	98.3
376.582	51.2
376.793	57.34
377.003	0
377.214	71.68
377.424	55.3
377.635	49.15
377.845	36.86
378.055	98.3
378.266	88.06
378.476	55.3
378.686	114.69
378.897	77.82
379.107	38.91
379.317	129.02
379.528	40.96
379.738	61.44
379.948	0
380.158	73.73
380.369	102.4
380.579	102.4
380.789	-43.01
380.999	45.06
381.21	55.3
381.42	92.16
381.63	-8.19
381.84	71.68
382.05	153.6
382.261	57.34
382.471	40.96
382.681	106.49
382.891	73.73
383.101	63.49
383.311	8.19
383.521	65.54
383.731	145.41
383.941	51.2
384.151	45.06
384.361	100.35
384.571	155.65
384.781	43.01
384.991	49.15
385.201	161.79
385.411	92.16
385.621	65.54
385.831	73.73
386.041	-12.29
386.251	118.78
386.461	92.16
386.671	65.54
386.881	38.91
387.091	49.15
387.301	108.54
387.511	2.05
387.72	73.73
387.93	12.29
388.14	14.34
388.35	26.62
388.56	65.54
388.769	12.29
388.979	116.73
389.189	-34.82
389.399	106.49
389.609	88.06
389.818	53.25
390.028	-18.43
390.238	86.01
390.447	63.49
390.657	83.97
390.867	75.77
391.076	28.67
391.286	69.63
391.496	106.49
391.705	98.3
391.915	88.06
392.125	163.84
392.334	102.4
392.544	79.87
392.753	94.21
392.963	102.4
393.172	77.82
393.382	36.86
393.591	57.34
393.801	53.25
394.01	112.64
394.22	137.21
394.429	110.59
394.639	92.16
394.848	106.49
395.058	69.63
395.267	28.67
395.477	90.11
395.686	139.26
395.895	77.82
396.105	163.84
396.314	114.69
396.524	43.01
396.733	26.62
396.942	131.07
397.152	112.64
397.361	65.54
397.57	129.02
397.78	126.97
397.989	184.32
398.198	178.17
398.407	47.1
398.617	81.92
398.826	40.96
399.035	36.86
399.244	24.58
399.453	32.77
399.663	30.72
399.872	67.58
400.081	81.92
400.29	178.17
400.499	69.63
400.708	102.4
400.917	88.06
401.127	108.54
401.336	8.19
401.545	182.27
401.754	71.68
401.963	167.93
402.172	118.78
402.381	180.22
402.59	67.58
402.799	149.5
403.008	94.21
403.217	108.54
403.426	86.01
403.635	45.06
403.844	47.1
404.053	169.98
404.262	67.58
404.471	161.79
404.68	153.6
404.888	143.36
405.097	75.77
405.306	124.93
405.515	129.02
405.724	165.89
405.933	151.55
406.142	112.64
406.35	135.17
406.559	163.84
406.768	235.52
406.977	208.89
407.185	161.79
407.394	159.74
407.603	104.45
407.812	208.89
408.02	192.51
408.229	221.18
408.438	219.13
408.646	249.85
408.855	237.56
409.064	262.14
409.272	260.09
409.481	217.08
409.69	278.52
409.898	256
410.107	233.47
410.315	307.2
410.524	272.38
410.733	307.2
410.941	399.35
411.15	249.85
411.358	362.49
411.567	423.93
411.775	466.94
411.984	292.86
412.192	466.94
412.401	425.98
412.609	440.31
412.818	538.62
413.026	403.45
413.234	366.59
413.443	528.38
413.651	428.03
413.86	516.09
414.068	546.81
414.276	563.19
414.485	548.86
414.693	542.71
414.901	667.64
415.11	681.97
415.318	653.3
415.526	708.6
415.734	688.12
415.943	679.93
416.151	712.69
416.359	823.28
416.567	811
416.776	858.1
416.984	835.57
417.192	909.3
417.4	841.72
417.608	935.92
417.817	980.98
418.025	1007.6
418.233	1036.27
418.441	1036.27
418.649	1097.71
418.857	1122.29
419.065	1202.16
419.273	1200.11
419.481	1116.14
419.689	1251.31
419.897	1361.9
420.105	1406.95
420.313	1433.58
420.521	1542.12
420.729	1509.35
420.937	1556.46
421.145	1509.35
421.353	1746.92
421.561	1857.51
421.769	1783.78
421.977	1873.89
422.185	1912.8
422.393	1974.24
422.601	2052.06
422.809	2064.35
423.017	2189.28
423.224	2215.9
423.432	2224.09
423.64	2281.44
423.848	2617.3
424.056	2408.41
424.263	2541.53
424.471	2527.19
424.679	2676.7
424.887	2731.99
425.094	2938.84
425.302	2815.96
425.51	3037.14
425.718	3053.52
425.925	3188.69
426.133	3276.75
426.341	3389.39
426.548	3626.95
426.756	3616.71
426.964	3672.01
427.171	3854.28
427.379	3880.9
427.586	3954.63
427.794	4087.75
428.001	4157.38
428.209	4421.56
428.417	4323.26
428.624	4726.71
428.832	4755.38
429.039	4624.31
429.247	4677.56
429.454	5019.57
429.662	5568.43
429.869	5142.45
430.076	5494.7
430.284	5212.08
430.491	5722.02
430.699	5857.19
430.906	5973.92
431.114	5930.92
431.321	6133.67
431.528	6332.32
431.736	6635.42
431.943	6897.56
432.15	6748.06
432.358	6762.39
432.565	7231.38
432.772	7380.88
432.979	7739.27
433.187	7806.86
433.394	7919.5
433.601	8169.35
433.808	8484.73
434.016	8185.73
434.223	8607.61
434.43	9027.45
434.637	8898.42
434.844	9553.77
435.052	9516.91
435.259	9478
435.466	9914.22
435.673	9576.3
435.88	10227.56
436.087	10651.49
436.294	10803.04
436.501	10588
436.708	10825.56
436.915	10936.15
437.122	11611.98
437.329	11501.39
437.537	12087.11
437.743	12175.17
437.95	12095.3
438.157	12486.47
438.364	12947.26
438.571	12633.92
438.778	13168.44
438.985	14274.34
439.192	13668.14
439.399	14067.5
439.606	13928.24
439.813	14847.77
440.02	15787.79
440.227	15267.61
440.433	15212.31
440.64	15767.31
440.847	15814.41
441.054	15974.16
441.261	16987.9
441.467	16752.38
441.674	17135.35
441.881	17551.09
442.088	17610.48
442.294	17624.82
442.501	17805.04
442.708	18374.38
442.914	19267.29
443.121	19820.24
443.328	19136.22
443.534	20547.27
443.741	20258.51
443.948	20088.53
444.154	21272.25
444.361	21069.5
444.568	21384.89
444.774	21366.46
444.981	21837.49
445.187	22077.1
445.394	23111.33
445.6	22834.85
445.807	25063.04
446.013	24129.17
446.22	23934.61
446.426	25106.05
446.633	25366.14
446.839	26343.02
447.046	25298.56
447.252	26639.98
447.459	26560.11
447.665	26494.57
447.871	27569.76
448.078	28507.72
448.284	27287.14
448.491	28100.18
448.697	29290.05
448.903	29648.44
449.11	29621.82
449.316	29210.18
449.522	29832.76
449.728	30733.87
449.935	30907.94
450.141	30846.51
450.347	31432.22
450.553	30395.95
450.76	30584.37
450.966	31729.18
451.172	31309.35
451.378	32261.65
451.584	31626.78
451.791	32173.59
451.997	31981.08
452.203	32742.92
452.409	32720.4
452.615	32556.56
452.821	31399.46
453.027	30832.17
453.233	32650.77
453.44	30922.28
453.646	31405.6
453.852	31514.14
454.058	32048.66
454.264	30969.38
454.47	31735.32
454.676	31122.98
454.882	31942.17
455.088	29009.48
455.294	29691.45
455.5	30037.56
455.705	30361.14
455.911	29597.24
456.117	28155.47
456.323	28134.99
456.529	26551.91
456.735	27864.66
456.941	27008.61
457.147	26674.79
457.352	25810.55
457.558	25806.45
457.764	25448.06
457.97	24958.6
458.176	24635.02
458.381	24243.85
458.587	23269.02
458.793	23189.15
458.999	22027.95
459.204	23674.52
459.41	22965.92
459.616	21249.72
459.821	21169.85
460.027	21241.53
460.233	20876.99
460.438	20027.09
460.644	20147.92
460.85	19162.84
461.055	19015.39
461.261	19082.97
461.466	17639.15
461.672	16996.09
461.878	18091.76
462.083	16897.79
462.289	16711.42
462.494	16574.21
462.7	16076.55
462.905	15425.3
463.111	15871.76
463.316	16008.97
463.522	15890.19
463.727	15556.37
463.932	15613.71
464.138	15712.02
464.343	15589.14
464.549	15087.39
464.754	15685.39
464.959	15466.26
465.165	15245.08
465.37	14679.84
465.575	14415.65
465.781	14831.39
465.986	15042.33
466.191	14780.19
466.397	14200.62
466.602	13610.8
466.807	14118.7
467.012	13977.39
467.218	13920.04
467.423	13778.73
467.628	13680.43
467.833	14288.68
468.038	13864.75
468.244	13186.87
468.449	13997.87
468.654	13602.61
468.859	13260.6
469.064	13301.56
469.269	12678.97
469.474	13043.51
469.679	13363
469.885	12934.97
470.09	12810.04
470.295	13236.02
470.5	12756.8
470.705	12574.53
470.91	12369.73
471.115	12425.03
471.32	12328.77
471.525	12396.35
471.73	11933.51
471.935	11988.81
472.139	11929.42
472.344	11657.04
472.549	11609.93
472.754	11497.3
472.959	11304.79
473.164	11194.2
473.369	10854.23
473.574	11206.49
473.778	11179.86
473.983	11186.01
474.188	11063.13
474.393	10510.18
474.598	10559.33
474.802	10573.66
475.007	10581.85
475.212	10336.1
475.417	9877.35
475.621	10010.47
475.826	10002.28
476.031	9944.94
476.235	9799.53
476.44	9656.17
476.645	9619.31
476.849	9680.75
477.054	9541.49
477.259	9543.53
477.463	9238.39
477.668	9211.76
477.872	9244.53
478.077	9117.56
478.282	8937.34
478.486	8879.99
478.691	8773.5
478.895	8908.66
479.1	8832.89
479.304	8877.94
479.509	8499.07
479.713	8650.62
479.918	8435.58
480.122	8292.23
480.326	8486.78
480.531	8419.2
480.735	8380.29
480.94	8193.92
481.144	8650.62
481.348	8071.04
481.553	8048.52
481.757	7911.3
481.961	8163.2
482.166	8101.76
482.37	8220.55
482.574	8044.42
482.778	8025.99
482.983	8318.85
483.187	7933.83
483.391	8052.61
483.595	8112
483.8	7860.1
484.004	8028.04
484.208	8193.92
484.412	7991.17
484.616	8116.1
484.821	8003.46
485.025	7931.78
485.229	8017.8
485.433	7870.34
485.637	8036.23
485.841	7919.5
486.045	7952.26
486.249	8075.14
486.453	8120.2
486.657	8036.23
486.861	8195.97
487.065	7792.52
487.269	7927.69
487.473	7722.89
487.677	8009.61
487.881	8011.65
488.085	7976.84
488.289	7761.8
488.493	8058.76
488.697	8286.08
488.901	8130.44
489.105	8075.14
489.309	8126.34
489.512	7964.55
489.716	8116.1
489.92	8288.13
490.124	7991.17
490.328	8218.5
490.531	8019.85
490.735	8286.08
490.939	8148.87
491.143	8220.55
491.346	8249.22
491.55	8411.01
491.754	8372.1
491.958	8570.75
492.161	8499.07
492.365	8394.62
492.569	8304.51
492.772	8294.27
492.976	8531.84
493.18	8681.34
493.383	8716.16
493.587	8693.63
493.79	8980.34
493.994	8654.72
494.197	8927.1
494.401	9041.78
494.605	8968.06
494.808	8998.77
495.012	9107.32
495.215	9039.73
495.419	9441.14
495.622	9324.4
495.825	9291.63
496.029	9279.35
496.232	9631.6
496.436	9572.21
496.639	9850.73
496.843	9594.73
497.046	9844.59
497.249	10063.72
497.453	9949.03
497.656	10215.27
497.859	10209.12
498.063	10086.25
498.266	10467.17
498.469	10522.46
498.673	10465.12
498.876	10647.39
499.079	10841.95
499.282	10862.43
499.485	11155.29
499.689	11134.81
499.892	11362.13
500.095	11341.65
500.298	11552.59
500.501	11431.76
500.705	11763.53
500.908	12060.49
501.111	12136.26
501.314	12144.45
501.517	12136.26
501.72	12578.62
501.923	12396.35
502.126	12640.06
502.329	12920.63
502.532	13107
502.735	12877.63
502.938	13219.64
503.141	13213.49
503.344	13528.88
503.547	13492.02
503.75	13772.59
503.953	14022.44
504.156	14130.98
504.359	14323.49
504.562	14210.86
504.765	14575.39
504.968	14769.95
505.17	14880.54
505.373	14925.6
505.576	15238.94
505.779	15456.02
505.982	15259.42
506.185	15709.97
506.387	15693.58
506.59	16060.17
506.793	16344.84
506.996	16133.9
507.198	16652.03
507.401	16670.47
507.604	16588.55
507.807	17080.06
508.009	17237.75
508.212	17272.57
508.415	17436.41
508.617	17721.07
508.82	17757.94
509.022	17585.91
509.225	18171.63
509.428	18552.55
509.63	18355.94
509.833	18593.51
510.035	18937.57
510.238	18804.45
510.44	19181.28
510.643	19412.7
510.845	19693.27
511.048	19404.5
511.25	19898.06
511.453	20119.24
511.655	20455.11
511.858	20311.75
512.06	20670.15
512.262	20926.14
512.465	20772.55
512.667	21200.57
512.87	21372.6
513.072	21309.11
513.274	22046.38
513.477	22189.74
513.679	22054.58
513.881	22480.55
514.084	22642.34
514.286	22652.58
514.488	23160.48
514.69	23570.07
514.893	23756.44
515.095	23656.09
515.297	23905.94
515.499	24135.31
515.701	24383.12
515.904	24336.01
516.106	24886.92
516.308	24977.03
516.51	25243.26
516.712	25316.99
516.914	25390.72
517.116	26017.39
517.318	25927.28
517.52	26173.04
517.722	26533.48
517.925	26572.39
518.127	26984.04
518.329	26988.13
518.531	27102.82
518.733	27516.51
518.935	27754.07
519.136	27905.62
519.338	28231.25
519.54	28223.06
519.742	28685.9
519.944	28814.92
520.146	29070.92
520.348	29361.73
520.55	29898.3
520.752	29580.86
520.954	30479.92
521.155	30121.52
521.357	30594.61
521.559	30885.42
521.761	30774.83
521.963	31020.58
522.164	31112.74
522.366	31589.92
522.568	31675.93
522.77	31624.73
522.971	32566.8
523.173	32562.7
523.375	32429.59
523.576	32278.04
523.778	32898.57
523.98	33150.47
524.181	33177.09
524.383	33162.76
524.584	33740.29
524.786	33621.5
524.988	33869.31
525.189	34305.52
525.391	34448.88
525.592	34446.83
525.794	34403.83
525.995	34747.89
526.197	34575.86
526.398	35112.42
526.6	35376.61
526.801	35370.47
527.003	35296.74
527.204	35323.36
527.406	35886.56
527.607	35579.36
527.808	36091.35
528.01	35276.26
528.211	35771.87
528.412	36713.94
528.614	36335.06
528.815	36462.04
529.016	36677.07
529.218	36373.97
529.419	36316.63
529.62	36793.81
529.822	37041.61
530.023	36922.83
530.224	36885.97
530.425	37012.94
530.626	36918.73
530.828	37062.09
531.029	37647.81
531.23	37234.12
531.431	37287.37
531.632	37266.89
531.833	37256.65
532.035	37502.4
532.236	37592.51
532.437	37821.89
532.638	37465.54
532.839	37656
533.04	38170.04
533.241	37496.26
533.442	38086.07
533.643	37918.14
533.844	37750.21
534.045	37811.65
534.246	37615.04
534.447	38053.31
534.648	37596.61
534.849	37856.7
535.05	38016.44
535.251	37940.67
535.451	37727.68
535.652	37848.51
535.853	37959.1
536.054	37905.85
536.255	38120.89
536.456	37750.21
536.657	38493.62
536.857	37578.18
537.058	37885.37
537.259	38284.73
537.46	37950.91
537.66	38028.73
537.861	37846.46
538.062	38264.25
538.263	37961.15
538.463	37479.88
538.664	37926.33
538.865	38282.68
539.065	38432.18
539.266	37637.57
539.466	38333.88
539.667	37590.47
539.868	38045.12
540.068	37838.27
540.269	37696.96
540.469	38491.57
540.67	37678.53
540.87	38135.23
541.071	38059.45
541.271	38188.47
541.472	37758.4
541.672	37987.77
541.873	37830.08
542.073	37381.57
542.274	38217.14
542.474	37785.02
542.675	37578.18
542.875	38090.17
543.075	37893.57
543.276	37514.69
543.476	38444.47
543.676	37490.12
543.877	38022.59
544.077	37909.95
544.277	37942.72
544.478	37864.89
544.678	37807.55
544.878	37815.74
545.078	37463.49
545.279	37516.74
545.479	37451.2
545.679	38032.83
545.879	37545.41
546.079	37813.69
546.28	37612.99
546.48	37309.89
546.68	37553.6
546.88	37553.6
547.08	37778.88
547.28	37836.22
547.48	37705.15
547.68	37572.03
547.88	37012.94
548.081	38006.2
548.281	37557.7
548.481	37539.27
548.681	37864.89
548.881	37361.09
549.081	37555.65
549.28	37166.54
549.48	37512.64
549.68	37295.56
549.88	37930.43
550.08	37522.88
550.28	37819.84
550.48	37141.96
550.68	37537.22
550.88	37139.91
551.08	37045.71
551.279	37307.85
551.479	36963.79
551.679	37637.57
551.879	37328.33
552.079	37637.57
552.278	36945.36
552.478	37049.8
552.678	37117.39
552.878	37496.26
553.077	37219.78
553.277	37158.35
553.477	37152.2
553.676	37053.9
553.876	37014.99
554.076	36838.86
554.275	37078.47
554.475	36742.61
554.674	36908.49
554.874	36861.39
555.074	36996.56
555.273	37004.75
555.473	36648.4
555.672	36773.33
555.872	36808.14
556.071	36750.8
556.271	36810.19
556.47	36701.65
556.67	36535.76
556.869	36214.23
557.068	36572.63
557.268	36081.11
557.467	36429.27
557.667	36283.86
557.866	36269.53
558.065	35911.13
558.265	36029.91
558.464	35896.8
558.663	36361.69
558.863	35956.19
559.062	36462.04
559.261	35706.34
559.461	36283.86
559.66	35630.56
559.859	35714.53
560.058	35804.64
560.258	35775.97
560.457	35653.09
560.656	35976.67
560.855	35724.77
561.054	35743.2
561.253	35251.69
561.453	35743.2
561.652	35149.29
561.851	35464.67
562.05	35390.95
562.249	34813.42
562.448	35382.76
562.647	34999.79
562.846	34817.52
563.045	35100.14
563.244	34842.09
563.443	35544.55
563.642	34125.3
563.841	34538.99
564.04	34610.67
564.239	34964.97
564.438	34293.24
564.637	34821.61
564.836	34346.48
565.035	34330.1
565.234	34072.06
565.432	34119.16
565.631	34334.2
565.83	34379.25
566.029	33928.7
566.228	33564.16
566.427	33723.9
566.625	33654.27
566.824	33222.15
567.023	33828.35
567.222	33220.1
567.42	33566.21
567.619	32990.73
567.818	32943.63
568.016	32869.9
568.215	33187.33
568.414	33103.37
568.612	33324.55
568.811	32753.16
569.01	32912.91
569.208	32155.16
569.407	32742.92
569.605	32192.02
569.804	33068.55
570.002	31874.59
570.201	32503.31
570.4	32087.57
570.598	32099.86
570.797	31899.16
570.995	31692.32
571.193	31688.22
571.392	32091.67
571.59	31829.53
571.789	31436.32
571.987	31739.42
572.186	31764
572.384	31352.35
572.582	31495.71
572.781	31419.94
572.979	30879.27
573.177	31297.06
573.376	31464.99
573.574	30934.57
573.772	31075.88
573.971	30684.72
574.169	30537.26
574.367	30635.56
574.565	30856.75
574.763	30342.7
574.962	30371.38
575.16	29916.73
575.358	30238.26
575.556	29851.19
575.754	30459.44
575.952	29603.39
576.151	29980.21
576.349	29460.03
576.547	29666.88
576.745	29584.96
576.943	29384.26
577.141	29234.75
577.339	29552.19
577.537	29247.04
577.735	29328.96
577.933	29015.62
578.131	29113.92
578.329	29036.1
578.527	28757.58
578.725	29206.08
578.923	29169.22
579.121	28462.67
579.319	28503.63
579.516	28739.15
579.714	28358.22
579.912	28280.4
580.11	28601.93
580.308	28304.98
580.506	28302.93
580.704	27889.24
580.901	27864.66
581.099	27792.98
581.297	27756.12
581.495	27752.02
581.692	27911.77
581.89	27489.88
582.088	27811.42
582.285	27842.14
582.483	27420.25
582.681	27706.97
582.878	27446.88
583.076	27108.96
583.274	27336.29
583.471	27213.41
583.669	27305.57
583.866	27033.19
584.064	27049.57
584.262	26797.67
584.459	26617.45
584.657	26736.23
584.854	26898.02
585.052	26230.38
585.249	26424.94
585.447	26502.76
585.644	26435.18
585.841	26388.08
586.039	26265.2
586.236	25859.7
586.434	25927.28
586.631	25794.17
586.828	25990.77
587.026	25480.83
587.223	25831.03
587.42	25333.37
587.618	25570.94
587.815	25589.37
588.012	25468.54
588.21	25400.96
588.407	25642.62
588.604	25177.73
588.801	25140.86
588.999	25077.38
589.196	24727.17
589.393	24845.96
589.59	24970.88
589.787	24821.38
589.984	24718.98
590.182	24581.77
590.379	24884.87
590.576	24383.12
590.773	24573.58
590.97	24229.52
591.167	24366.73
591.364	24137.36
591.561	24309.39
591.758	24149.65
591.955	23633.56
592.152	24172.18
592.349	23713.43
592.546	23828.12
592.743	24004.24
592.94	23971.47
593.137	23471.77
593.334	23576.22
593.531	23381.66
593.727	23453.34
593.924	23637.66
594.121	23238.3
594.318	23115.42
594.515	22791.84
594.712	23195.29
594.908	22933.15
595.105	23228.06
595.302	22681.25
595.499	22849.19
595.696	22797.99
595.892	22507.18
596.089	22873.76
596.286	22552.23
596.482	22580.9
596.679	22707.88
596.876	22535.85
597.072	22394.54
597.269	22101.68
597.466	21989.04
597.662	21968.56
597.859	22216.36
598.055	21952.18
598.252	21694.13
598.448	22091.44
598.645	21870.26
598.841	21499.58
599.038	21532.34
599.234	21743.28
599.431	21315.26
599.627	21335.74
599.824	21464.76
600.02	21343.93
600.217	21139.13
600.413	20942.53
600.609	21096.13
600.806	20989.63
601.002	21167.8
601.198	20891.33
601.395	20707.01
601.591	20571.85
601.787	20838.08
601.984	20846.27
602.18	20780.74
602.376	20821.7
602.572	20307.66
602.769	20655.81
602.965	20444.87
603.161	20352.71
603.357	20340.43
603.553	20211.4
603.75	20176.59
603.946	19996.37
604.142	20338.38
604.338	20074.19
604.534	19992.27
604.73	19803.86
604.926	19699.41
605.122	19726.03
605.318	19623.64
605.514	19437.27
605.71	19400.41
605.906	19353.3
606.102	19539.67
606.298	19560.15
606.494	19361.5
606.69	19168.99
606.886	19429.08
607.082	19060.45
607.278	19467.99
607.474	18548.45
607.67	19056.35
607.866	18618.08
608.062	18898.66
608.257	18847.46
608.453	18999.01
608.649	18994.91
608.845	18794.21
609.041	18781.92
609.236	19001.05
609.432	18640.61
609.628	18511.59
609.824	18611.94
610.019	18409.19
610.215	18409.19
610.411	18532.07
610.606	18169.58
610.802	18474.73
610.998	18239.21
611.193	18126.57
611.389	18259.69
611.584	18206.44
611.78	18106.09
611.976	18005.74
612.171	18042.6
612.367	17983.21
612.562	17899.25
612.758	17708.79
612.953	17784.56
613.149	17870.58
613.344	17958.64
613.539	17995.5
613.735	17829.62
613.93	17657.59
614.126	17686.26
614.321	17811.18
614.517	17673.97
614.712	17692.4
614.907	17389.3
615.103	17784.56
615.298	17387.25
615.493	17667.83
615.688	17231.61
615.884	17663.73
616.079	16948.99
616.274	17530.61
616.47	17215.23
616.665	17346.3
616.86	17155.83
617.055	17379.06
617.25	17043.2
617.445	17288.95
617.641	16740.1
617.836	16957.18
618.031	16768.77
618.226	16764.67
618.421	16574.21
618.616	16764.67
618.811	16455.43
619.006	16815.87
619.201	16359.17
619.396	16623.36
619.591	16418.57
619.786	16353.03
619.981	16453.38
620.176	16398.09
620.371	16070.41
620.566	16348.93
620.761	16047.88
620.956	16107.27
621.151	15828.75
621.346	15929.1
621.541	15562.51
621.735	16072.46
621.93	15628.05
622.125	15714.06
622.32	15462.16
622.515	15671.06
622.709	15296.28
622.904	15320.85
623.099	15169.3
623.294	15390.49
623.488	14847.77
623.683	15093.53
623.878	14884.64
624.072	14747.42
624.267	14909.21
624.462	14659.36
624.656	14468.9
624.851	14726.94
625.046	14466.85
625.24	14346.02
625.435	14077.74
625.629	14331.69
625.824	14346.02
626.018	14300.97
626.213	13741.87
626.407	13825.84
626.602	13915.95
626.796	13686.58
626.991	14067.5
627.185	13668.14
627.38	13504.31
627.574	13428.53
627.768	13487.92
627.963	13332.28
628.157	13086.52
628.352	13319.99
628.546	13150.01
628.74	13307.7
628.935	12701.5
629.129	12926.78
629.323	12783.42
629.517	12939.07
629.712	12703.55
629.906	12758.85
630.1	12414.79
630.294	12615.49
630.489	12412.74
630.683	12429.12
630.877	12300.1
631.071	12330.82
631.265	12195.65
631.459	12253
631.653	11953.99
631.848	11904.84
632.042	11904.84
632.236	12058.44
632.43	11536.21
632.624	11949.9
632.818	11630.41
633.012	11515.73
633.206	11517.78
633.4	11411.28
633.594	11224.92
633.788	11282.26
633.982	11360.08
634.176	11157.33
634.369	11167.57
634.563	11261.78
634.757	11134.81
634.951	11259.73
635.145	10977.11
635.339	11081.56
635.533	10788.7
635.726	10850.14
635.92	10866.52
636.114	10723.16
636.308	10452.83
636.501	10690.4
636.695	10762.08
636.889	10424.16
637.083	10522.46
637.276	10168.16
637.47	10356.58
637.664	10346.34
637.857	10090.34
638.051	10078.05
638.244	10088.29
638.438	9985.9
638.632	9858.92
638.825	9746.28
639.019	9910.12
639.212	9813.87
639.406	9797.48
639.599	9871.21
639.793	9643.88
639.986	9568.11
640.18	9590.64
640.373	9613.17
640.567	9506.67
640.76	9461.62
640.954	9287.54
641.147	9295.73
641.34	9140.08
641.534	9361.27
641.727	9260.91
641.92	9099.13
642.114	9166.71
642.307	8961.91
642.5	8904.57
642.694	8879.99
642.887	8773.5
643.08	8853.37
643.273	8787.83
643.467	8753.02
643.66	8724.35
643.853	8732.54
644.046	8558.46
644.239	8525.69
644.432	8417.15
644.626	8392.58
644.819	8402.82
645.012	8281.99
645.205	8497.02
645.398	8322.94
645.591	8271.75
645.784	8290.18
645.977	8138.63
646.17	8198.02
646.363	8234.88
646.556	7978.89
646.749	7890.82
646.942	8105.86
647.135	7776.14
647.328	7933.83
647.521	7827.34
647.714	7778.19
647.907	7735.18
648.099	7843.72
648.292	7593.87
648.485	7724.94
648.678	7528.33
648.871	7395.22
649.064	7442.32
649.256	7565.2
649.449	7468.94
649.642	7260.05
649.835	7309.2
650.027	7206.8
650.22	7231.38
650.413	7110.55
650.605	7294.86
650.798	7153.55
650.991	7045.01
651.183	7067.54
651.376	6989.72
651.568	6854.55
651.761	6852.5
651.954	6924.18
652.146	6903.7
652.339	6889.37
652.531	6786.97
652.724	6911.89
652.916	6631.32
653.109	6655.9
653.301	6690.71
653.494	6684.57
653.686	6645.66
653.879	6659.99
654.071	6746.01
654.263	6473.63
654.456	6565.79
654.648	6563.74
654.84	6346.66
655.033	6418.33
655.225	6250.4
655.417	6377.37
655.61	6295.46
655.802	6367.13
655.994	6199.2
656.186	6221.73
656.379	6197.15
656.571	6074.28
656.763	6012.84
656.955	5914.53
657.148	5990.31
657.34	6033.32
657.532	5973.92
657.724	5781.42
657.916	6012.84
658.108	5851.05
658.3	5916.58
658.492	5898.15
658.684	5713.83
658.876	5707.69
659.068	5736.36
659.26	5771.18
659.452	5765.03
659.644	5734.31
659.836	5566.38
660.028	5701.54
660.22	5369.77
660.412	5607.34
660.604	5552.04
660.796	5470.12
660.988	5691.31
661.18	5435.31
661.372	5490.6
661.563	5509.04
661.755	5224.37
661.947	5255.09
662.139	5279.66
662.331	5250.99
662.522	5089.2
662.714	5140.4
662.906	5117.87
663.097	5164.98
663.289	5130.16
663.481	4970.42
663.673	5183.41
663.864	4980.66
664.056	4992.95
664.247	5015.48
664.439	4976.56
664.631	5017.52
664.822	4995
665.014	4911.03
665.205	4919.22
665.397	4941.75
665.588	4878.26
665.78	4784.05
665.971	4902.84
666.163	4702.14
666.354	4671.42
666.546	4708.28
666.737	4577.21
666.929	4642.75
667.12	4667.32
667.311	4540.35
667.503	4474.81
667.694	4685.75
667.885	4558.78
668.077	4480.96
668.268	4478.91
668.459	4542.39
668.651	4358.08
668.842	4421.56
669.033	4466.62
669.224	4386.75
669.416	4315.07
669.607	4390.84
669.798	4333.5
669.989	4399.04
670.18	4278.21
670.371	4413.37
670.563	4347.84
670.754	4163.52
670.945	4124.61
671.136	4067.27
671.327	4241.34
671.518	4198.34
671.709	4171.71
671.9	4163.52
672.091	4212.67
672.282	4128.7
672.473	3948.48
672.664	4198.34
672.855	4114.37
673.046	4153.28
673.237	4034.5
673.428	4097.99
673.619	4052.93
673.809	3977.16
674	3977.16
674.191	4034.5
674.382	3985.35
674.573	3897.28
674.764	4030.4
674.954	3856.33
675.145	3823.56
675.336	3917.76
675.527	3733.45
675.717	3764.17
675.908	3821.51
676.099	3987.4
676.289	3856.33
676.48	3833.8
676.671	3878.85
676.861	3786.69
677.052	3733.45
677.243	3721.16
677.433	3733.45
677.624	3643.34
677.814	3667.91
678.005	3676.1
678.195	3731.4
678.386	3606.47
678.576	3725.26
678.767	3688.39
678.957	3655.62
679.148	3639.24
679.338	3794.89
679.529	3751.88
679.719	3506.12
679.909	3616.71
680.1	3579.85
680.29	3561.42
680.481	3409.87
680.671	3510.22
680.861	3620.81
681.052	3612.62
681.242	3565.51
681.432	3665.86
681.622	3289.04
681.813	3452.88
682.003	3446.73
682.193	3540.94
682.383	3516.36
682.573	3379.15
682.764	3342.28
682.954	3438.54
683.144	3428.3
683.334	3426.25
683.524	3334.09
683.714	3514.31
683.904	3362.76
684.094	3377.1
684.284	3297.23
684.474	3327.95
684.664	3459.02
684.854	3397.58
685.044	3299.28
685.234	3309.52
685.424	3278.8
685.614	3303.37
685.804	3293.13
685.994	3248.08
686.184	3323.85
686.374	3311.57
686.564	3198.93
686.753	3233.74
686.943	3233.74
687.133	3112.91
687.323	3291.09
687.513	3207.12
687.702	3235.79
687.892	3188.69
688.082	3065.81
688.272	3160.02
688.461	3080.14
688.651	3188.69
688.841	3028.95
689.03	3053.52
689.22	3063.76
689.41	3028.95
689.599	3192.78
689.789	2998.23
689.979	3076.05
690.168	3141.58
690.358	2961.36
690.547	2996.18
690.737	2981.84
690.926	2912.21
691.116	2912.21
691.305	2936.79
691.495	3022.8
691.684	2910.16
691.874	2738.13
692.063	2811.86
692.252	2949.07
692.442	2826.2
692.631	2830.29
692.82	2793.43
693.01	2756.57
693.199	2869.2
693.388	2705.37
693.578	2858.96
693.767	2838.48
693.956	2725.85
694.146	2779.09
694.335	2721.75
694.524	2701.27
694.713	2691.03
694.902	2768.85
695.092	2736.09
695.281	2727.89
695.47	2629.59
695.659	2666.46
695.848	2580.44
696.037	2631.64
696.226	2525.15
696.415	2672.6
696.604	2623.45
696.793	2600.92
696.982	2750.42
697.171	2621.4
697.36	2641.88
697.549	2590.68
697.738	2564.06
697.927	2527.19
698.116	2555.86
698.305	2674.65
698.494	2553.82
698.683	2611.16
698.872	2602.97
699.061	2557.91
699.25	2545.63
699.438	2512.86
699.627	2564.06
699.816	2555.86
700.005	2525.15
700.193	2557.91
700.382	2580.44
700.571	2598.87
700.76	2656.22
700.948	2478.04
701.137	2631.64
701.326	2480.09
701.514	2355.16
701.703	2559.96
701.892	2416.6
702.08	2572.25
702.269	2539.48
702.457	2537.43
702.646	2480.09
702.834	2478.04
703.023	2543.58
703.212	2525.15
703.4	2465.75
703.589	2398.17
703.777	2516.95
703.965	2359.26
704.154	2539.48
704.342	2533.34
704.531	2430.94
704.719	2490.33
704.907	2551.77
705.096	2482.14
705.284	2443.23
705.472	2527.19
705.661	2488.28
705.849	2510.81
706.037	2437.08
706.226	2330.59
706.414	2482.14
706.602	2426.84
706.79	2310.11
706.979	2475.99
707.167	2447.32
707.355	2246.62
707.543	2449.37
707.731	2471.9
707.919	2533.34
708.107	2529.24
708.296	2437.08
708.484	2340.83
708.672	2437.08
708.86	2519
709.048	2387.93
709.236	2377.69
709.424	2451.42
709.612	2371.55
709.8	2394.08
709.988	2420.7
710.176	2457.56
710.364	2465.75
710.551	2435.03
710.739	2543.58
710.927	2410.46
711.115	2400.22
711.303	2314.2
711.491	2310.11
711.679	2392.03
711.866	2480.09
712.054	2566.1
712.242	2355.16
712.43	2439.13
712.617	2406.36
712.805	2475.99
712.993	2349.02
713.181	2269.15
713.368	2357.21
713.556	2346.97
713.744	2336.73
713.931	2539.48
714.119	2338.78
714.306	2506.71
714.494	2426.84
714.682	2496.47
714.869	2459.61
715.057	2389.98
715.244	2426.84
715.432	2467.8
715.619	2367.45
715.807	2310.11
715.994	2297.82
716.182	2475.99
716.369	2334.68
716.556	2402.27
716.744	2445.27
716.931	2400.22
717.119	2367.45
717.306	2455.51
717.493	2314.2
717.681	2252.77
717.868	2340.83
718.055	2334.68
718.242	2389.98
718.43	2310.11
718.617	2469.85
718.804	2355.16
718.991	2263.01
719.179	2412.51
719.366	2367.45
719.553	2293.73
719.74	2295.77
719.927	2240.48
720.114	2351.07
720.301	2271.2
720.488	2355.16
720.676	2396.12
720.863	2303.96
721.05	2346.97
721.237	2260.96
721.424	2273.25
721.611	2402.27
721.798	2330.59
721.985	2273.25
722.172	2299.87
722.358	2269.15
722.545	2349.02
722.732	2349.02
722.919	2267.1
723.106	2220
723.293	2228.19
723.48	2318.3
723.667	2326.49
723.853	2289.63
724.04	2244.57
724.227	2383.84
724.414	2369.5
724.6	2297.82
724.787	2338.78
724.974	2353.12
725.161	2357.21
725.347	2271.2
725.534	2375.64
725.72	2275.29
725.907	2412.51
726.094	2396.12
726.28	2316.25
726.467	2246.62
726.653	2271.2
726.84	2324.44
727.027	2342.88
727.213	2271.2
727.4	2179.04
727.586	2267.1
727.773	2172.89
727.959	2228.19
728.145	2346.97
728.332	2230.24
728.518	2414.56
728.705	2279.39
728.891	2271.2
729.077	2156.51
729.264	2342.88
729.45	2267.1
729.636	2340.83
729.823	2361.31
730.009	2344.92
730.195	2455.51
730.382	2330.59
730.568	2179.04
730.754	2246.62
730.94	2226.14
731.126	2291.68
731.313	2263.01
731.499	2238.43
731.685	2115.55
731.871	2254.81
732.057	2203.61
732.243	2174.94
732.429	2226.14
732.615	2242.53
732.801	2248.67
732.987	2240.48
733.173	2226.14
733.359	2303.96
733.545	2287.58
733.731	2275.29
733.917	2207.71
734.103	2248.67
734.289	2244.57
734.475	2232.29
734.661	2287.58
734.847	2203.61
735.033	2174.94
735.219	2117.6
735.404	2140.13
735.59	2230.24
735.776	2238.43
735.962	2095.07
736.148	2283.49
736.333	2150.37
736.519	2121.7
736.705	2217.95
736.89	2148.32
737.076	2203.61
737.262	2133.98
737.447	2197.47
737.633	2162.65
737.819	2162.65
738.004	2105.31
738.19	2166.75
738.375	2228.19
738.561	2326.49
738.747	2109.41
738.932	2144.22
739.118	2133.98
739.303	2226.14
739.489	2207.71
739.674	2156.51
739.859	2033.63
740.045	2090.98
740.23	2213.85
740.416	1982.43
740.601	2146.27
740.786	2090.98
740.972	2086.88
741.157	2103.26
741.342	2031.58
741.528	2015.2
741.713	1990.63
741.898	2090.98
742.084	2068.45
742.269	1996.77
742.454	2035.68
742.639	2009.06
742.824	1890.28
743.01	1976.29
743.195	2007.01
743.38	2054.11
743.565	1894.37
743.75	2004.96
743.935	2021.35
744.12	1916.9
744.305	1875.94
744.49	1972.19
744.675	1959.91
744.86	1978.34
745.045	2025.44
745.23	1816.55
745.415	1914.85
745.6	1880.04
745.785	1931.23
745.97	1857.51
746.155	1843.17
746.34	1953.76
746.525	1775.59
746.71	1884.13
746.895	1794.02
747.079	1761.25
747.264	1794.02
747.449	1814.5
747.634	1867.75
747.819	1824.74
748.003	1830.88
748.188	1691.62
748.373	1720.29
748.557	1675.24
748.742	1726.44
748.927	1652.71
749.111	1650.66
749.296	1642.47
749.481	1615.85
749.665	1615.85
749.85	1619.94
750.034	1601.51
750.219	1611.75
750.404	1589.22
750.588	1607.66
750.773	1628.14
750.957	1583.08
751.141	1570.79
751.326	1619.94
751.51	1605.61
751.695	1525.74
751.879	1531.88
752.064	1523.69
752.248	1558.5
752.432	1540.07
752.617	1521.64
752.801	1449.96
752.985	1531.88
753.17	1472.49
753.354	1529.83
753.538	1421.29
753.722	1531.88
753.907	1495.02
754.091	1429.48
754.275	1449.96
754.459	1372.14
754.643	1380.33
754.828	1400.81
755.012	1482.73
755.196	1435.63
755.38	1368.04
755.564	1388.52
755.748	1312.75
755.932	1368.04
756.116	1294.32
756.3	1282.03
756.484	1249.26
756.668	1214.45
756.852	1267.69
757.036	1255.4
757.22	1316.84
757.404	1265.64
757.588	1191.92
757.772	1261.55
757.956	1200.11
758.14	1308.65
758.323	1269.74
758.507	1320.94
758.691	1095.66
758.875	1279.98
759.059	1204.21
759.242	1218.54
759.426	1193.97
759.61	1148.91
759.794	1167.34
759.977	1171.44
760.161	1169.39
760.345	1171.44
760.528	1060.85
760.712	1093.62
760.895	1179.63
761.079	1142.77
761.263	1224.69
761.446	1048.56
761.63	1107.95
761.813	1110
761.997	1169.39
762.18	1142.77
762.364	1077.23
762.547	1118.19
762.731	1046.51
762.914	1015.79
763.098	1071.09
763.281	1060.85
763.464	1144.81
763.648	962.55
763.831	1007.6
764.015	1105.9
764.198	1003.5
764.381	1019.89
764.564	1005.55
764.748	1044.46
764.931	1003.5
765.114	903.15
765.297	1044.46
765.481	1036.27
765.664	927.73
765.847	991.22
766.03	970.74
766.213	1066.99
766.397	962.55
766.58	1064.94
766.763	1036.27
766.946	997.36
767.129	1052.66
767.312	995.31
767.495	886.77
767.678	854
767.861	915.44
768.044	1009.65
768.227	960.5
768.41	921.59
768.593	970.74
768.776	954.35
768.959	880.63
769.142	927.73
769.324	856.05
769.507	911.35
769.69	1009.65
769.873	946.16
770.056	1005.55
770.239	872.43
770.421	860.15
770.604	974.83
770.787	892.91
770.97	894.96
771.152	802.8
771.335	856.05
771.518	808.95
771.7	860.15
771.883	837.62
772.066	849.91
772.248	839.67
772.431	882.67
772.613	802.8
772.796	884.72
772.978	753.65
773.161	866.29
773.343	825.33
773.526	829.43
773.708	782.32
773.891	690.17
774.073	778.23
774.256	792.56
774.438	745.46
774.621	745.46
774.803	858.1
774.985	767.99
775.168	835.57
775.35	649.21
775.532	686.07
775.715	749.56
775.897	702.45
776.079	659.45
776.261	755.7
776.444	704.5
776.626	628.73
776.808	692.21
776.99	710.65
777.173	722.93
777.355	673.78
777.537	686.07
777.719	614.39
777.901	710.65
778.083	675.83
778.265	622.58
778.447	686.07
778.629	548.86
778.811	702.45
778.993	684.02
779.175	624.63
779.357	602.1
779.539	632.82
779.721	645.11
779.903	602.1
780.085	641.01
780.267	634.87
780.449	616.44
780.631	555
780.812	589.82
780.994	550.9
781.176	583.67
781.358	628.73
781.54	538.62
781.721	522.23
781.903	602.1
782.085	595.96
782.267	555
782.448	555
782.63	483.32
782.812	544.76
782.993	555
783.175	595.96
783.357	511.99
783.538	524.28
783.72	524.28
783.901	495.61
784.083	565.24
784.264	526.33
784.446	464.89
784.627	475.13
784.809	452.6
784.99	456.7
785.172	454.65
785.353	438.27
785.535	493.56
785.716	477.18
785.897	473.08
786.079	462.84
786.26	440.31
786.441	526.33
786.623	450.55
786.804	380.92
786.985	464.89
787.167	417.79
787.348	411.64
787.529	464.89
787.71	493.56
787.891	458.75
788.073	319.48
788.254	458.75
788.435	452.6
788.616	430.07
788.797	374.78
788.978	393.21
789.159	372.73
789.34	387.07
789.522	419.83
789.703	378.87
789.884	456.7
790.065	380.92
790.246	358.39
790.427	354.3
790.607	387.07
790.788	350.2
790.969	370.68
791.15	409.59
791.331	325.63
791.512	327.67
791.693	350.2
791.874	434.17
792.054	352.25
792.235	346.11
792.416	352.25
792.597	362.49
792.778	370.68
792.958	409.59
793.139	307.2
793.32	286.72
793.5	313.34
793.681	380.92
793.862	299
794.042	356.35
794.223	262.14
794.404	309.24
794.584	317.44
794.765	366.59
794.945	348.15
795.126	432.12
795.306	370.68
795.487	350.2
795.667	305.15
795.848	288.76
796.028	305.15
796.209	319.48
796.389	278.52
796.57	315.39
796.75	290.81
796.93	305.15
797.111	215.04
797.291	278.52
797.471	282.62
797.652	325.63
797.832	303.1
798.012	342.01
798.192	274.43
798.373	270.33
798.553	208.89
798.733	278.52
798.913	323.58
799.093	266.24
799.274	262.14
799.454	253.95
799.634	339.96
799.814	292.86
799.994	229.37
800.174	311.29
800.354	286.72
800.534	221.18
800.714	219.13
800.894	288.76
801.074	212.99
801.254	260.09
801.434	241.66
801.614	225.28
801.794	262.14
801.974	632.82
802.154	258.04
802.334	290.81
802.514	251.9
802.693	241.66
802.873	227.32
803.053	327.67
803.233	208.89
803.413	219.13
803.592	202.75
803.772	194.56
803.952	235.52
804.131	215.04
804.311	256
804.491	260.09
804.67	237.56
804.85	184.32
805.03	249.85
805.209	247.8
805.389	198.65
805.568	251.9
805.748	212.99
805.928	229.37
806.107	217.08
806.287	258.04
806.466	137.21
806.646	126.97
806.825	217.08
807.004	165.89
807.184	186.37
807.363	172.03
807.543	208.89
807.722	194.56
807.901	247.8
808.081	225.28
808.26	182.27
808.439	198.65
808.619	198.65
808.798	245.76
808.977	194.56
809.156	147.45
809.336	155.65
809.515	184.32
809.694	114.69
809.873	212.99
810.052	143.36
810.231	256
810.411	208.89
810.59	159.74
810.769	188.41
810.948	184.32
811.127	258.04
811.306	137.21
811.485	145.41
811.664	186.37
811.843	126.97
812.022	151.55
812.201	178.17
812.38	114.69
812.559	206.84
812.737	227.32
812.916	182.27
813.095	212.99
813.274	258.04
813.453	131.07
813.632	204.8
813.811	145.41
813.989	139.26
814.168	124.93
814.347	178.17
814.526	186.37
814.704	114.69
814.883	163.84
815.062	131.07
815.24	96.25
815.419	92.16
815.598	176.13
815.776	172.03
815.955	135.17
816.133	129.02
816.312	153.6
816.49	73.73
816.669	110.59
816.847	167.93
817.026	86.01
817.204	106.49
817.383	161.79
817.561	145.41
817.74	204.8
817.918	186.37
818.097	165.89
818.275	174.08
818.453	176.13
818.632	102.4
818.81	116.73
818.988	104.45
819.167	133.12
819.345	126.97
819.523	114.69
819.701	28.67
819.879	143.36
820.058	118.78
820.236	124.93
820.414	110.59
820.592	145.41
820.77	98.3
820.948	188.41
821.127	112.64
821.305	167.93
821.483	53.25
821.661	155.65
821.839	129.02
822.017	153.6
822.195	57.34
822.373	75.77
822.551	139.26
822.729	90.11
822.907	120.83
823.085	112.64
823.262	137.21
823.44	116.73
823.618	20.48
823.796	149.5
823.974	-6.14
824.152	83.97
824.329	77.82
824.507	178.17
824.685	124.93
824.863	43.01
825.04	73.73
825.218	147.45
825.396	139.26
825.574	126.97
825.751	102.4
825.929	100.35
826.107	149.5
826.284	172.03
826.462	57.34
826.639	124.93
826.817	122.88
826.994	110.59
827.172	28.67
827.349	137.21
827.527	65.54
827.704	45.06
827.882	120.83
828.059	163.84
828.237	26.62
828.414	96.25
828.591	129.02
828.769	73.73
828.946	102.4
829.124	112.64
829.301	65.54
829.478	94.21
829.655	139.26
829.833	69.63
830.01	86.01
830.187	122.88
830.364	45.06
830.542	131.07
830.719	178.17
830.896	172.03
831.073	88.06
831.25	143.36
831.427	88.06
831.604	57.34
831.782	112.64
831.959	147.45
832.136	83.97
832.313	90.11
832.49	79.87
832.667	102.4
832.844	112.64
833.021	98.3
833.198	143.36
833.374	106.49
833.551	77.82
833.728	163.84
833.905	69.63
834.082	-2.05
834.259	73.73
834.436	137.21
834.612	63.49
834.789	63.49
834.966	77.82
835.143	96.25
835.319	57.34
835.496	118.78
835.673	83.97
835.85	53.25
836.026	59.39
836.203	126.97
836.38	161.79
836.556	49.15
836.733	30.72
836.909	73.73
837.086	77.82
837.262	104.45
837.439	114.69
837.616	30.72
837.792	65.54
837.968	96.25
838.145	61.44
838.321	34.82
838.498	86.01
838.674	81.92
838.851	38.91
839.027	124.93
839.203	79.87
839.38	135.17
839.556	69.63
839.732	92.16
839.909	69.63
840.085	57.34
840.261	83.97
840.437	55.3
840.614	75.77
840.79	61.44
840.966	102.4
841.142	57.34
841.318	71.68
841.494	26.62
841.671	88.06
841.847	108.54
842.023	22.53
842.199	53.25
842.375	88.06
842.551	6.14
842.727	100.35
842.903	90.11
843.079	32.77
843.255	4.1
843.431	94.21
843.607	139.26
843.783	51.2
843.959	71.68
844.134	34.82
844.31	92.16
844.486	18.43
844.662	45.06
844.838	30.72
845.013	57.34
845.189	71.68
845.365	98.3
845.541	30.72
845.716	55.3
845.892	65.54
846.068	75.77
846.244	110.59
846.419	51.2
846.595	65.54
846.77	49.15
846.946	55.3
847.122	135.17
847.297	18.43
847.473	77.82
847.648	-12.29
847.824	114.69
847.999	10.24
848.175	36.86
848.35	0
848.526	26.62
848.701	16.38
848.876	106.49
849.052	49.15
849.227	-4.1
849.403	81.92
849.578	49.15
849.753	-2.05
849.929	102.4
850.104	36.86
850.279	53.25
850.454	88.06
850.63	32.77
850.805	18.43
850.98	133.12
851.155	6.14
851.33	20.48
851.505	36.86
851.681	2.05
851.856	20.48
852.031	-16.38
852.206	-81.92
852.381	47.1
852.556	24.58
852.731	77.82
852.906	36.86
853.081	-12.29
853.256	28.67
853.431	122.88
853.606	86.01
853.781	12.29
853.956	24.58
854.131	61.44
854.305	47.1
854.48	65.54
854.655	45.06
854.83	2.05
855.005	49.15
855.18	45.06
855.354	4.1
855.529	34.82
855.704	59.39
855.879	104.45
856.053	-8.19
856.228	57.34
856.403	28.67
856.577	77.82
856.752	-28.67
856.926	14.34
857.101	6.14
857.276	-10.24
857.45	12.29
857.625	-34.82
857.799	12.29
857.974	59.39
858.148	18.43
858.323	65.54
858.497	8.19
858.672	69.63
858.846	22.53
859.02	45.06
859.195	2.05
859.369	12.29
859.543	53.25
859.718	36.86
859.892	38.91
860.066	73.73
860.241	20.48
860.415	-8.19
860.589	-20.48
860.763	38.91
860.938	12.29
861.112	14.34
861.286	43.01
861.46	32.77
861.634	12.29
861.808	6.14
861.982	53.25
862.157	118.78
862.331	86.01
862.505	57.34
862.679	-40.96
862.853	77.82
863.027	-61.44
863.201	53.25
863.375	30.72
863.549	69.63
863.722	63.49
863.896	69.63
864.07	36.86
864.244	24.58
864.418	18.43
864.592	-6.14
864.766	0
864.939	73.73
865.113	16.38
865.287	20.48
865.461	-45.06
865.634	-4.1
865.808	-18.43
865.982	47.1
866.156	51.2
866.329	28.67
866.503	-20.48
866.676	-12.29
866.85	-12.29
867.024	-26.62
867.197	81.92
867.371	81.92
867.544	75.77
867.718	-79.87
867.891	86.01
868.065	-16.38
868.238	0
868.412	26.62
868.585	94.21
868.759	26.62
868.932	34.82
869.105	49.15
869.279	-43.01
869.452	20.48
869.625	-16.38
869.799	108.54
869.972	53.25
870.145	65.54
870.319	45.06
870.492	0
870.665	-59.39
870.838	73.73
871.011	55.3
871.185	28.67
871.358	-4.1
871.531	6.14
871.704	-10.24
871.877	-2.05
872.05	26.62
872.223	100.35
872.396	49.15
872.569	47.1
872.742	36.86
872.915	10.24
873.088	16.38
873.261	67.58
873.434	63.49
873.607	49.15
873.78	22.53
873.953	-28.67
874.126	-40.96
874.299	51.2
874.471	57.34
874.644	-10.24
874.817	6.14
874.99	75.77
875.163	8.19
875.335	2.05
875.508	16.38
875.681	4.1
875.853	28.67
876.026	-43.01
876.199	-36.86
876.371	36.86
876.544	-4.1
876.717	47.1
876.889	40.96
877.062	40.96
877.234	-30.72
877.407	59.39
877.579	51.2
877.752	45.06
877.924	2.05
878.097	-43.01
878.269	0
878.442	-8.19
878.614	8.19
878.786	55.3
878.959	49.15
879.131	49.15
879.303	-16.38
879.476	51.2
879.648	116.73
879.82	16.38
879.993	57.34
880.165	24.58
880.337	-28.67
880.509	83.97
880.681	-18.43
880.854	-43.01
881.026	104.45
881.198	69.63
881.37	88.06
881.542	-16.38
881.714	12.29
881.886	36.86
882.058	65.54
882.23	88.06
882.402	12.29
882.574	16.38
882.746	-28.67
882.918	2.05
883.09	96.25
883.262	10.24
883.434	65.54
883.606	-6.14
883.778	-24.58
883.95	100.35
884.122	63.49
884.293	67.58
884.465	28.67
884.637	0
884.809	16.38
884.98	47.1
885.152	-24.58
885.324	14.34
885.496	-38.91
885.667	45.06
885.839	-8.19
886.011	73.73
886.182	18.43
886.354	-8.19
886.525	-30.72
886.697	-43.01
886.869	-14.34
887.04	51.2
887.212	22.53
887.383	69.63
887.555	-30.72
887.726	20.48
887.897	-38.91
888.069	49.15
888.24	90.11
888.412	12.29
888.583	69.63
888.754	2.05
888.926	8.19
889.097	49.15
889.268	30.72
889.44	8.19
889.611	-16.38
889.782	-53.25
889.953	-18.43
890.125	26.62
890.296	26.62
890.467	6.14
890.638	12.29
890.809	30.72
890.98	-2.05
891.151	94.21
891.323	65.54
891.494	75.77
891.665	-4.1
891.836	26.62
892.007	47.1
892.178	67.58
892.349	20.48
892.52	-22.53
892.691	157.69
892.862	4.1
893.032	65.54
893.203	-28.67
893.374	-28.67
893.545	88.06
893.716	4.1
893.887	0
894.057	32.77
894.228	49.15
894.399	-67.58
894.57	38.91
894.74	10.24
894.911	-4.1
895.082	86.01
895.253	-4.1
895.423	47.1
895.594	8.19
895.764	38.91
895.935	-16.38
896.106	0
896.276	10.24
896.447	65.54
896.617	59.39
896.788	0
896.958	16.38
897.129	30.72
897.299	-51.2
897.47	22.53
897.64	-81.92
897.81	24.58
897.981	45.06
898.151	-71.68
898.322	51.2
898.492	-2.05
898.662	-10.24
898.832	0
899.003	55.3
899.173	47.1
899.343	53.25
899.513	32.77
