Data from USB4F104151__14__11-04-42-935.txt Node

Date: Wed Mar 12 11:04:42 EDT 2025
User: louis
Spectrometer: USB4F10415
Trigger mode: 4
Integration Time (sec): 2.000000E-2
Scans to average: 1
Electric dark correction enabled: true
Nonlinearity correction enabled: false
Boxcar width: 0
XAxis mode: Wavelengths
Number of Pixels in Spectrum: 3648
>>>>>Begin Spectral Data<<<<<
178.204	-74.58
178.424	-74.58
178.644	-74.58
178.864	-154.45
179.084	-107.35
179.304	-45.91
179.524	21.67
179.744	44.2
179.964	70.83
180.184	-72.53
180.404	-27.48
180.624	50.35
180.844	-56.15
181.064	36.01
181.283	-25.43
181.503	-23.38
181.723	27.82
181.943	1.19
182.163	54.44
182.383	-9.05
182.602	36.01
182.822	38.06
183.042	-11.09
183.262	-25.43
183.482	23.72
183.701	-7
183.921	-15.19
184.141	-13.14
184.361	36.01
184.58	52.39
184.8	21.67
185.02	-21.33
185.239	85.16
185.459	-21.33
185.679	-4.95
185.898	3.24
186.118	19.63
186.338	44.2
186.557	-58.2
186.777	-17.24
186.997	91.31
187.216	-31.57
187.436	70.83
187.655	23.72
187.875	23.72
188.095	79.02
188.314	-21.33
188.534	72.87
188.753	85.16
188.973	46.25
189.192	132.26
189.412	17.58
189.631	38.06
189.851	-37.72
190.07	29.87
190.29	5.29
190.509	38.06
190.729	3.24
190.948	-33.62
191.168	101.55
191.387	56.49
191.607	-43.86
191.826	-50
192.045	19.63
192.265	-27.48
192.484	13.48
192.704	40.11
192.923	68.78
193.142	87.21
193.362	64.68
193.581	48.3
193.8	97.45
194.02	74.92
194.239	5.29
194.458	40.11
194.678	19.63
194.897	42.15
195.116	-17.24
195.335	64.68
195.555	-2.9
195.774	15.53
195.993	-33.62
196.212	-21.33
196.432	-11.09
196.651	23.72
196.87	3.24
197.089	40.11
197.308	33.96
197.528	3.24
197.747	-33.62
197.966	50.35
198.185	17.58
198.404	83.11
198.623	58.54
198.842	142.5
199.062	58.54
199.281	52.39
199.5	23.72
199.719	21.67
199.938	-7
200.157	-19.29
200.376	-7
200.595	74.92
200.814	74.92
201.033	11.43
201.252	-29.52
201.471	72.87
201.69	-27.48
201.909	44.2
202.128	56.49
202.347	52.39
202.566	-25.43
202.785	36.01
203.004	19.63
203.223	25.77
203.442	72.87
203.661	46.25
203.879	5.29
204.098	74.92
204.317	56.49
204.536	-7
204.755	64.68
204.974	42.15
205.193	-13.14
205.411	1.19
205.63	50.35
205.849	11.43
206.068	-11.09
206.287	81.07
206.505	-27.48
206.724	31.91
206.943	27.82
207.162	-27.48
207.381	52.39
207.599	-41.81
207.818	21.67
208.037	-13.14
208.255	85.16
208.474	-74.58
208.693	52.39
208.911	5.29
209.13	29.87
209.349	21.67
209.567	-41.81
209.786	23.72
210.005	15.53
210.223	-25.43
210.442	21.67
210.661	-0.85
210.879	36.01
211.098	17.58
211.316	99.5
211.535	23.72
211.753	36.01
211.972	11.43
212.191	56.49
212.409	-62.29
212.628	33.96
212.846	-54.1
213.065	64.68
213.283	79.02
213.502	-9.05
213.72	-17.24
213.938	-13.14
214.157	72.87
214.375	-58.2
214.594	-39.76
214.812	58.54
215.031	60.59
215.249	-7
215.467	62.63
215.686	44.2
215.904	31.91
216.122	21.67
216.341	29.87
216.559	27.82
216.778	48.3
216.996	-15.19
217.214	76.97
217.432	-7
217.651	-35.67
217.869	38.06
218.087	15.53
218.306	23.72
218.524	85.16
218.742	29.87
218.96	113.83
219.179	-11.09
219.397	31.91
219.615	-9.05
219.833	36.01
220.051	-45.91
220.27	68.78
220.488	52.39
220.706	99.5
220.924	40.11
221.142	-15.19
221.36	36.01
221.578	17.58
221.796	21.67
222.015	-9.05
222.233	13.48
222.451	72.87
222.669	17.58
222.887	23.72
223.105	-9.05
223.323	11.43
223.541	11.43
223.759	3.24
223.977	17.58
224.195	68.78
224.413	48.3
224.631	36.01
224.849	5.29
225.067	70.83
225.285	7.34
225.503	72.87
225.721	11.43
225.939	-15.19
226.157	29.87
226.375	122.02
226.592	-19.29
226.81	27.82
227.028	93.35
227.246	89.26
227.464	-41.81
227.682	36.01
227.9	46.25
228.117	60.59
228.335	126.12
228.553	44.2
228.771	42.15
228.989	-54.1
229.206	1.19
229.424	15.53
229.642	7.34
229.86	13.48
230.077	21.67
230.295	5.29
230.513	66.73
230.731	72.87
230.948	74.92
231.166	-29.52
231.384	27.82
231.601	48.3
231.819	25.77
232.037	70.83
232.254	33.96
232.472	23.72
232.689	83.11
232.907	15.53
233.125	11.43
233.342	-35.67
233.56	-25.43
233.777	3.24
233.995	72.87
234.213	95.4
234.43	-0.85
234.648	13.48
234.865	-7
235.083	60.59
235.3	52.39
235.518	23.72
235.735	15.53
235.953	52.39
236.17	1.19
236.388	13.48
236.605	36.01
236.822	99.5
237.04	25.77
237.257	-21.33
237.475	13.48
237.692	5.29
237.909	11.43
238.127	19.63
238.344	29.87
238.562	21.67
238.779	-0.85
238.996	9.39
239.214	-0.85
239.431	72.87
239.648	-11.09
239.865	126.12
240.083	7.34
240.3	-64.34
240.517	29.87
240.735	29.87
240.952	60.59
241.169	52.39
241.386	44.2
241.603	-78.68
241.821	5.29
242.038	3.24
242.255	11.43
242.472	21.67
242.689	46.25
242.907	31.91
243.124	19.63
243.341	52.39
243.558	-7
243.775	3.24
243.992	-117.59
244.209	3.24
244.426	48.3
244.643	1.19
244.86	1.19
245.078	44.2
245.295	48.3
245.512	3.24
245.729	40.11
245.946	-27.48
246.163	3.24
246.38	56.49
246.597	11.43
246.814	13.48
247.031	3.24
247.248	76.97
247.464	17.58
247.681	-64.34
247.898	25.77
248.115	52.39
248.332	-4.95
248.549	-29.52
248.766	-2.9
248.983	76.97
249.2	29.87
249.417	23.72
249.633	36.01
249.85	101.55
250.067	-25.43
250.284	-45.91
250.501	33.96
250.717	36.01
250.934	68.78
251.151	5.29
251.368	-7
251.585	5.29
251.801	-25.43
252.018	31.91
252.235	36.01
252.451	21.67
252.668	11.43
252.885	72.87
253.102	-23.38
253.318	21.67
253.535	-2.9
253.752	81.07
253.968	40.11
254.185	-13.14
254.401	3.24
254.618	52.39
254.835	44.2
255.051	46.25
255.268	-43.86
255.484	58.54
255.701	3.24
255.917	-9.05
256.134	74.92
256.351	1.19
256.567	62.63
256.784	9.39
257	-54.1
257.217	3.24
257.433	44.2
257.65	25.77
257.866	50.35
258.082	27.82
258.299	85.16
258.515	83.11
258.732	101.55
258.948	9.39
259.165	44.2
259.381	56.49
259.597	52.39
259.814	23.72
260.03	33.96
260.246	99.5
260.463	40.11
260.679	-15.19
260.895	70.83
261.112	-0.85
261.328	5.29
261.544	60.59
261.761	91.31
261.977	7.34
262.193	-25.43
262.409	76.97
262.626	7.34
262.842	11.43
263.058	-27.48
263.274	27.82
263.49	3.24
263.707	68.78
263.923	44.2
264.139	31.91
264.355	23.72
264.571	126.12
264.787	-50
265.004	23.72
265.22	9.39
265.436	-29.52
265.652	60.59
265.868	38.06
266.084	29.87
266.3	48.3
266.516	48.3
266.732	42.15
266.948	40.11
267.164	23.72
267.38	23.72
267.596	29.87
267.812	15.53
268.028	-4.95
268.244	17.58
268.46	23.72
268.676	-31.57
268.892	11.43
269.108	-35.67
269.324	54.44
269.54	1.19
269.756	-50
269.972	3.24
270.188	-4.95
270.403	62.63
270.619	87.21
270.835	42.15
271.051	54.44
271.267	52.39
271.483	50.35
271.698	38.06
271.914	17.58
272.13	-25.43
272.346	81.07
272.562	74.92
272.777	62.63
272.993	-52.05
273.209	23.72
273.425	48.3
273.64	25.77
273.856	38.06
274.072	27.82
274.287	7.34
274.503	15.53
274.719	81.07
274.934	52.39
275.15	-0.85
275.366	44.2
275.581	-13.14
275.797	3.24
276.012	54.44
276.228	62.63
276.444	21.67
276.659	60.59
276.875	50.35
277.09	91.31
277.306	33.96
277.521	48.3
277.737	44.2
277.952	54.44
278.168	23.72
278.383	33.96
278.599	103.59
278.814	-50
279.03	21.67
279.245	87.21
279.461	21.67
279.676	105.64
279.892	-31.57
280.107	31.91
280.322	29.87
280.538	15.53
280.753	91.31
280.969	48.3
281.184	27.82
281.399	40.11
281.615	68.78
281.83	52.39
282.045	23.72
282.26	-4.95
282.476	17.58
282.691	25.77
282.906	-39.76
283.122	-13.14
283.337	50.35
283.552	7.34
283.767	-7
283.983	33.96
284.198	27.82
284.413	27.82
284.628	-13.14
284.843	-13.14
285.058	64.68
285.274	-33.62
285.489	70.83
285.704	42.15
285.919	-31.57
286.134	11.43
286.349	29.87
286.564	-9.05
286.779	-15.19
286.995	5.29
287.21	-33.62
287.425	11.43
287.64	-25.43
287.855	83.11
288.07	40.11
288.285	40.11
288.5	48.3
288.715	42.15
288.93	29.87
289.145	-37.72
289.36	7.34
289.575	46.25
289.79	15.53
290.004	17.58
290.219	1.19
290.434	-11.09
290.649	-2.9
290.864	60.59
291.079	83.11
291.294	-2.9
291.509	-54.1
291.724	11.43
291.938	15.53
292.153	27.82
292.368	-4.95
292.583	42.15
292.798	17.58
293.012	9.39
293.227	29.87
293.442	27.82
293.657	79.02
293.871	17.58
294.086	5.29
294.301	50.35
294.516	1.19
294.73	44.2
294.945	-4.95
295.16	3.24
295.374	54.44
295.589	93.35
295.804	-43.86
296.018	-15.19
296.233	44.2
296.447	50.35
296.662	-23.38
296.877	64.68
297.091	31.91
297.306	25.77
297.52	64.68
297.735	56.49
297.949	42.15
298.164	15.53
298.378	-17.24
298.593	-39.76
298.807	29.87
299.022	27.82
299.236	113.83
299.451	70.83
299.665	113.83
299.88	33.96
300.094	83.11
300.309	19.63
300.523	42.15
300.737	-31.57
300.952	105.64
301.166	48.3
301.381	-39.76
301.595	46.25
301.809	9.39
302.024	70.83
302.238	58.54
302.452	-4.95
302.667	122.02
302.881	56.49
303.095	40.11
303.309	5.29
303.524	-4.95
303.738	3.24
303.952	-4.95
304.166	56.49
304.381	-9.05
304.595	52.39
304.809	40.11
305.023	68.78
305.237	19.63
305.452	5.29
305.666	-13.14
305.88	33.96
306.094	-15.19
306.308	31.91
306.522	52.39
306.736	58.54
306.95	3.24
307.164	74.92
307.379	-70.48
307.593	79.02
307.807	-4.95
308.021	74.92
308.235	40.11
308.449	-4.95
308.663	52.39
308.877	74.92
309.091	5.29
309.305	60.59
309.519	68.78
309.733	-66.39
309.947	48.3
310.161	27.82
310.374	27.82
310.588	36.01
310.802	-11.09
311.016	3.24
311.23	91.31
311.444	-17.24
311.658	52.39
311.872	27.82
312.085	15.53
312.299	56.49
312.513	15.53
312.727	46.25
312.941	-11.09
313.154	74.92
313.368	-17.24
313.582	-4.95
313.796	44.2
314.009	23.72
314.223	31.91
314.437	87.21
314.651	93.35
314.864	44.2
315.078	-54.1
315.292	40.11
315.505	89.26
315.719	42.15
315.933	68.78
316.146	79.02
316.36	-33.62
316.573	36.01
316.787	42.15
317.001	72.87
317.214	7.34
317.428	25.77
317.641	38.06
317.855	107.69
318.068	1.19
318.282	27.82
318.495	17.58
318.709	27.82
318.922	38.06
319.136	101.55
319.349	17.58
319.563	40.11
319.776	17.58
319.99	-25.43
320.203	60.59
320.417	-0.85
320.63	1.19
320.843	-25.43
321.057	56.49
321.27	1.19
321.483	-17.24
321.697	74.92
321.91	113.83
322.124	-7
322.337	68.78
322.55	60.59
322.763	56.49
322.977	81.07
323.19	-17.24
323.403	-60.24
323.617	27.82
323.83	25.77
324.043	33.96
324.256	60.59
324.469	-11.09
324.683	126.12
324.896	60.59
325.109	11.43
325.322	58.54
325.535	89.26
325.748	38.06
325.962	97.45
326.175	54.44
326.388	-39.76
326.601	95.4
326.814	15.53
327.027	42.15
327.24	60.59
327.453	1.19
327.666	52.39
327.879	74.92
328.092	-21.33
328.305	19.63
328.518	11.43
328.731	7.34
328.944	95.4
329.157	66.73
329.37	15.53
329.583	3.24
329.796	140.46
330.009	62.63
330.222	5.29
330.435	66.73
330.648	50.35
330.861	23.72
331.073	81.07
331.286	101.55
331.499	-21.33
331.712	3.24
331.925	-0.85
332.138	64.68
332.35	60.59
332.563	3.24
332.776	66.73
332.989	-4.95
333.202	52.39
333.414	46.25
333.627	76.97
333.84	-21.33
334.053	56.49
334.265	-13.14
334.478	48.3
334.691	48.3
334.903	21.67
335.116	50.35
335.329	21.67
335.541	101.55
335.754	97.45
335.966	126.12
336.179	109.74
336.392	29.87
336.604	-0.85
336.817	97.45
337.029	66.73
337.242	-15.19
337.454	19.63
337.667	70.83
337.88	-2.9
338.092	56.49
338.305	38.06
338.517	42.15
338.729	23.72
338.942	134.31
339.154	-2.9
339.367	17.58
339.579	52.39
339.792	56.49
340.004	134.31
340.217	36.01
340.429	44.2
340.641	40.11
340.854	-7
341.066	81.07
341.278	11.43
341.491	79.02
341.703	-31.57
341.915	56.49
342.128	74.92
342.34	38.06
342.552	-7
342.764	11.43
342.977	11.43
343.189	15.53
343.401	23.72
343.613	36.01
343.826	29.87
344.038	87.21
344.25	-11.09
344.462	19.63
344.674	101.55
344.886	15.53
345.099	79.02
345.311	7.34
345.523	23.72
345.735	-17.24
345.947	76.97
346.159	-0.85
346.371	9.39
346.583	64.68
346.795	54.44
347.007	56.49
347.219	72.87
347.431	31.91
347.643	76.97
347.855	48.3
348.067	68.78
348.279	31.91
348.491	42.15
348.703	50.35
348.915	87.21
349.127	9.39
349.339	93.35
349.551	38.06
349.763	23.72
349.975	-2.9
350.187	64.68
350.399	68.78
350.61	38.06
350.822	23.72
351.034	79.02
351.246	68.78
351.458	109.74
351.669	158.89
351.881	66.73
352.093	152.74
352.305	46.25
352.517	68.78
352.728	81.07
352.94	-39.76
353.152	99.5
353.363	117.93
353.575	5.29
353.787	44.2
353.999	27.82
354.21	111.78
354.422	70.83
354.633	29.87
354.845	46.25
355.057	-37.72
355.268	101.55
355.48	115.88
355.692	48.3
355.903	50.35
356.115	52.39
356.326	36.01
356.538	85.16
356.749	64.68
356.961	46.25
357.172	15.53
357.384	23.72
357.595	124.07
357.807	-19.29
358.018	-13.14
358.23	44.2
358.441	72.87
358.653	70.83
358.864	93.35
359.075	60.59
359.287	-35.67
359.498	115.88
359.709	56.49
359.921	52.39
360.132	11.43
360.344	27.82
360.555	-0.85
360.766	60.59
360.977	-29.52
361.189	36.01
361.4	1.19
361.611	60.59
361.823	103.59
362.034	40.11
362.245	95.4
362.456	72.87
362.667	36.01
362.879	25.77
363.09	70.83
363.301	50.35
363.512	58.54
363.723	52.39
363.935	23.72
364.146	52.39
364.357	81.07
364.568	23.72
364.779	-27.48
364.99	124.07
365.201	23.72
365.412	72.87
365.623	-2.9
365.834	46.25
366.045	46.25
366.256	23.72
366.467	91.31
366.678	27.82
366.889	-4.95
367.1	3.24
367.311	38.06
367.522	-9.05
367.733	-0.85
367.944	27.82
368.155	29.87
368.366	9.39
368.577	81.07
368.788	105.64
368.999	21.67
369.209	13.48
369.42	89.26
369.631	97.45
369.842	93.35
370.053	64.68
370.264	36.01
370.474	107.69
370.685	-15.19
370.896	97.45
371.107	50.35
371.317	72.87
371.528	-9.05
371.739	52.39
371.95	54.44
372.16	101.55
372.371	91.31
372.582	11.43
372.792	93.35
373.003	81.07
373.214	93.35
373.424	91.31
373.635	52.39
373.846	72.87
374.056	68.78
374.267	52.39
374.477	58.54
374.688	25.77
374.898	124.07
375.109	74.92
375.319	95.4
375.53	48.3
375.74	119.98
375.951	15.53
376.161	33.96
376.372	124.07
376.582	1.19
376.793	33.96
377.003	17.58
377.214	81.07
377.424	27.82
377.635	54.44
377.845	89.26
378.055	74.92
378.266	25.77
378.476	74.92
378.686	48.3
378.897	83.11
379.107	29.87
379.317	11.43
379.528	44.2
379.738	89.26
379.948	-33.62
380.158	113.83
380.369	72.87
380.579	134.31
380.789	103.59
380.999	68.78
381.21	62.63
381.42	101.55
381.63	101.55
381.84	105.64
382.05	23.72
382.261	128.17
382.471	134.31
382.681	50.35
382.891	40.11
383.101	79.02
383.311	76.97
383.521	31.91
383.731	70.83
383.941	111.78
384.151	38.06
384.361	81.07
384.571	62.63
384.781	83.11
384.991	138.41
385.201	60.59
385.411	99.5
385.621	46.25
385.831	60.59
386.041	21.67
386.251	36.01
386.461	105.64
386.671	9.39
386.881	87.21
387.091	17.58
387.301	79.02
387.511	36.01
387.72	50.35
387.93	89.26
388.14	93.35
388.35	11.43
388.56	109.74
388.769	52.39
388.979	25.77
389.189	50.35
389.399	68.78
389.609	83.11
389.818	99.5
390.028	95.4
390.238	64.68
390.447	50.35
390.657	19.63
390.867	-0.85
391.076	85.16
391.286	11.43
391.496	101.55
391.705	83.11
391.915	122.02
392.125	144.55
392.334	38.06
392.544	122.02
392.753	42.15
392.963	113.83
393.172	31.91
393.382	134.31
393.591	193.7
393.801	74.92
394.01	99.5
394.22	126.12
394.429	79.02
394.639	81.07
394.848	128.17
395.058	162.98
395.267	70.83
395.477	134.31
395.686	85.16
395.895	187.56
396.105	130.22
396.314	111.78
396.524	119.98
396.733	107.69
396.942	148.65
397.152	85.16
397.361	160.94
397.57	93.35
397.78	99.5
397.989	138.41
398.198	105.64
398.407	195.75
398.617	130.22
398.826	56.49
399.035	126.12
399.244	195.75
399.453	165.03
399.663	154.79
399.872	130.22
400.081	113.83
400.29	175.27
400.499	72.87
400.708	208.04
400.917	122.02
401.127	158.89
401.336	126.12
401.545	244.9
401.754	242.85
401.963	58.54
402.172	138.41
402.381	165.03
402.59	130.22
402.799	222.38
403.008	214.18
403.217	138.41
403.426	124.07
403.635	136.36
403.844	177.32
404.053	193.7
404.262	210.09
404.471	173.22
404.68	208.04
404.888	158.89
405.097	259.24
405.306	240.81
405.515	208.04
405.724	208.04
405.933	269.48
406.142	208.04
406.35	335.01
406.559	224.42
406.768	306.34
406.977	363.69
407.185	314.53
407.394	351.4
407.603	269.48
407.812	363.69
408.02	330.92
408.229	273.57
408.438	373.92
408.646	314.53
408.855	310.44
409.064	347.3
409.272	355.49
409.481	357.54
409.69	472.23
409.898	361.64
410.107	375.97
410.315	414.88
410.524	384.16
410.733	421.03
410.941	451.75
411.15	443.56
411.358	525.47
411.567	476.32
411.775	586.91
411.984	564.39
412.192	525.47
412.401	607.39
412.609	687.26
412.818	687.26
413.026	724.13
413.234	652.45
413.443	717.98
413.651	767.13
413.86	713.89
414.068	812.19
414.276	820.38
414.485	842.91
414.693	941.21
414.901	920.73
415.11	943.26
415.318	924.83
415.526	990.36
415.734	1033.37
415.943	1066.14
416.151	1176.73
416.359	1092.76
416.567	1197.21
416.776	1291.41
416.984	1418.39
417.192	1361.05
417.4	1420.44
417.608	1457.3
417.817	1526.93
418.025	1504.4
418.233	1682.58
418.441	1608.85
418.649	1719.44
418.857	1821.84
419.065	1916.05
419.273	1879.18
419.481	1957
419.689	2038.92
419.897	2198.67
420.105	2145.42
420.313	2204.81
420.521	2294.92
420.729	2311.3
420.937	2442.37
421.145	2636.93
421.353	2712.71
421.561	2813.06
421.769	2915.45
421.977	2856.06
422.185	3011.71
422.393	3140.73
422.601	3325.05
422.809	3290.23
423.017	3402.87
423.224	3445.88
423.432	3703.92
423.64	3624.05
423.848	4015.21
424.056	3832.94
424.263	4115.56
424.471	4138.09
424.679	4265.07
424.887	4430.95
425.094	4504.68
425.302	4562.02
425.51	4850.78
425.718	4897.89
425.925	4879.46
426.133	5149.79
426.341	5557.33
426.548	5645.4
426.756	5678.16
426.964	5905.49
427.171	6267.98
427.379	6308.94
427.586	6429.77
427.794	6509.64
428.001	7005.25
428.209	7275.58
428.417	7160.89
428.624	7758.9
428.832	7691.32
429.039	7613.49
429.247	7658.55
429.454	8377.39
429.662	8856.61
429.869	8125.49
430.076	9112.61
430.284	8600.62
430.491	9012.26
430.699	9460.76
430.906	9491.48
431.114	9696.28
431.321	9851.92
431.528	10216.46
431.736	10968.07
431.943	11301.89
432.15	11156.48
432.358	11240.45
432.565	11725.82
432.772	11783.16
432.979	12657.64
433.187	12602.35
433.394	12516.33
433.601	13356
433.808	13356
434.016	13347.81
434.223	13974.49
434.43	14975.94
434.637	14656.46
434.844	15524.8
435.052	15924.15
435.259	15653.82
435.466	16042.93
435.673	15672.25
435.88	16853.93
436.087	17714.08
436.294	17669.02
436.501	17431.46
436.708	17628.06
436.915	18355.09
437.122	19014.54
437.329	18951.05
437.537	19477.38
437.743	19921.79
437.95	19811.2
438.157	20794.22
438.364	21476.19
438.571	21406.56
438.778	21461.86
438.985	23642.95
439.192	22670.16
439.399	23702.34
439.606	22809.42
439.813	24357.69
440.02	25668.39
440.227	25086.76
440.433	25191.21
440.64	26051.36
440.847	25500.45
441.054	26280.73
441.261	28259.07
441.467	27552.52
441.674	27996.93
441.881	29129.45
442.088	29238
442.294	28957.42
442.501	29962.98
442.708	30620.38
442.914	31580.87
443.121	32842.42
443.328	32115.39
443.534	34454.17
443.741	33135.28
443.948	32967.35
444.154	35240.59
444.361	35087
444.568	35412.62
444.774	35299.98
444.981	35699.34
445.187	37026.42
445.394	38023.78
445.6	37689.96
445.807	41464.37
446.013	39432.78
446.22	40305.22
446.426	41409.07
446.633	41957.93
446.839	43620.88
447.046	41904.68
447.252	43831.82
447.459	44165.64
447.665	43766.29
447.871	45779.44
448.078	47407.58
448.284	45185.53
448.491	46469.61
448.697	48347.59
448.903	48865.73
449.11	48615.88
449.316	48073.17
449.522	49111.49
449.728	50069.93
449.935	50284.97
450.141	50321.83
450.347	51790.23
450.553	50096.56
450.76	50377.13
450.966	51847.57
451.172	51509.66
451.378	52728.2
451.584	51958.16
451.791	53133.7
451.997	51966.35
452.203	53129.6
452.409	52957.57
452.615	52748.68
452.821	50846.11
453.027	50688.42
453.233	52502.92
453.44	50766.24
453.646	51521.94
453.852	51184.03
454.058	52162.96
454.264	50297.26
454.47	51339.68
454.676	49793.46
454.882	51771.8
455.088	47393.24
455.294	48099.79
455.5	48558.53
455.705	48857.54
455.911	46942.69
456.117	46324.2
456.323	45580.79
456.529	43049.5
456.735	44775.94
456.941	43393.56
457.147	42816.03
457.352	41480.75
457.558	40845.88
457.764	40804.92
457.97	40157.77
458.176	39477.84
458.381	39371.35
458.587	37364.34
458.793	37425.78
458.999	35490.45
459.204	38259.3
459.41	37102.2
459.616	34763.42
459.821	34501.28
460.027	34456.22
460.233	33276.59
460.438	31914.69
460.644	32625.34
460.85	30884.56
461.055	30284.51
461.261	30409.43
461.466	27943.68
461.672	27233.04
461.878	29242.09
462.083	27306.76
462.289	27040.53
462.494	26655.51
462.7	25346.86
462.905	24632.11
463.111	25529.13
463.316	25529.13
463.522	25232.17
463.727	25336.62
463.932	24900.4
464.138	24783.66
464.343	25088.81
464.549	24275.77
464.754	25414.44
464.959	25019.18
465.165	24601.4
465.37	23589.7
465.575	22664.02
465.781	23919.42
465.986	24394.55
466.191	23446.34
466.397	22707.02
466.602	21869.4
466.807	22621.01
467.012	22471.51
467.218	22594.39
467.423	22172.5
467.628	22350.68
467.833	23444.29
468.038	22377.3
468.244	21893.98
468.449	22670.16
468.654	22057.82
468.859	21869.4
469.064	21310.31
469.269	20874.09
469.474	20820.84
469.679	21336.93
469.885	20439.92
470.09	21234.53
470.295	20732.78
470.5	20065.14
470.705	20409.2
470.91	20067.19
471.115	19645.31
471.32	20165.49
471.525	19821.44
471.73	19078.02
471.935	19272.58
472.139	18621.33
472.344	18865.03
472.549	18826.12
472.754	18537.36
472.959	18310.04
473.164	17824.67
473.369	17638.3
473.574	18346.9
473.778	17994.65
473.983	17648.54
474.188	17494.94
474.393	17015.72
474.598	16950.18
474.802	16501.68
475.007	16608.17
475.212	16577.45
475.417	16124.85
475.621	16018.36
475.826	16208.82
476.031	15793.08
476.235	15664.06
476.44	15924.15
476.645	15594.43
476.849	15662.01
477.054	15264.71
477.259	14820.3
477.463	15072.2
477.668	14803.91
477.872	14828.49
478.077	14523.34
478.282	14152.66
478.486	14119.89
478.691	14054.36
478.895	14123.99
479.1	13917.14
479.304	14074.84
479.509	13685.72
479.713	13882.33
479.918	13550.56
480.122	13376.48
480.326	13638.62
480.531	13495.26
480.735	13337.57
480.94	13456.35
481.144	13695.96
481.348	13026.28
481.553	13235.17
481.757	13038.56
481.961	13364.19
482.166	13204.45
482.37	13061.09
482.574	12909.54
482.778	12954.6
482.983	13345.76
483.187	13171.68
483.391	12913.64
483.595	12911.59
483.8	12651.5
484.004	13046.76
484.208	13108.19
484.412	12870.63
484.616	13040.61
484.821	12882.92
485.025	12766.18
485.229	12958.69
485.433	12809.19
485.637	13151.2
485.841	13048.8
486.045	12993.51
486.249	12897.25
486.453	13018.08
486.657	13018.08
486.861	13167.59
487.065	12692.46
487.269	12895.21
487.473	12805.1
487.677	13081.57
487.881	12960.74
488.085	12780.52
488.289	12862.44
488.493	13009.89
488.697	12913.64
488.901	13235.17
489.105	13124.58
489.309	12934.12
489.512	13229.02
489.716	13235.17
489.92	13145.06
490.124	13163.49
490.328	13288.42
490.531	13126.63
490.735	13528.03
490.939	13321.18
491.143	13302.75
491.346	13222.88
491.55	13392.86
491.754	13583.32
491.958	13757.4
492.161	13388.77
492.365	13786.07
492.569	13611.99
492.772	13659.1
492.976	13683.67
493.18	13978.58
493.383	14232.53
493.587	14293.97
493.79	14003.16
493.994	14044.12
494.197	14277.58
494.401	14422.99
494.605	14509.01
494.808	14775.24
495.012	14711.75
495.215	14695.37
495.419	15057.86
495.622	14949.32
495.825	15072.2
496.029	15238.08
496.232	15344.58
496.436	15272.9
496.639	15971.25
496.843	15856.57
497.046	16063.41
497.249	16118.71
497.453	16260.02
497.656	16421.81
497.859	16403.38
498.063	16647.08
498.266	16976.81
498.469	17200.04
498.673	17107.88
498.876	17580.96
499.079	17486.75
499.282	17466.27
499.485	17843.1
499.689	17914.78
499.892	18307.99
500.095	18140.05
500.298	18783.12
500.501	18729.87
500.705	19143.56
500.908	19467.14
501.111	19616.64
501.314	19708.8
501.517	19762.05
501.72	20046.71
501.923	20374.39
502.126	20446.07
502.329	20632.43
502.532	21228.39
502.735	21066.6
502.938	21572.45
503.141	21580.64
503.344	21975.9
503.547	21879.64
503.75	22549.33
503.953	22549.33
504.156	22926.16
504.359	23157.58
504.562	23364.42
504.765	23704.38
504.968	23845.69
505.17	24025.92
505.373	24206.14
505.576	24429.37
505.779	24767.28
505.982	24828.72
506.185	25754.4
506.387	25613.09
506.59	25678.63
506.793	26125.08
506.996	26333.98
507.198	26755.86
507.401	26444.57
507.604	26938.13
507.807	27570.95
508.009	27573
508.212	28005.12
508.415	28443.38
508.617	28562.17
508.82	28498.68
509.022	28422.9
509.225	29344.49
509.428	29725.41
509.63	29948.64
509.833	29868.77
510.035	31087.31
510.238	30444.25
510.44	31019.73
510.643	31433.42
510.845	31648.46
511.048	31662.79
511.25	31920.84
511.453	32615.1
511.655	33479.34
511.858	33227.44
512.06	32987.83
512.262	33311.41
512.465	33649.32
512.667	34108.07
512.87	34542.24
513.072	34798.23
513.274	35449.49
513.477	35484.3
513.679	35660.43
513.881	36176.51
514.084	37022.33
514.286	36688.51
514.488	37026.42
514.69	37913.19
514.893	38169.19
515.095	38249.06
515.297	38236.77
515.499	38761.05
515.701	39043.67
515.904	39191.12
516.106	39713.36
516.308	39664.21
516.51	40567.36
516.712	40669.76
516.914	41165.37
517.116	41415.22
517.318	41853.48
517.52	42127.91
517.722	42154.54
517.925	43289.11
518.127	43184.66
518.329	43389.46
518.531	43010.59
518.733	43823.63
518.935	44472.84
519.136	44624.39
519.338	45433.33
519.54	45285.88
519.742	45715.95
519.944	45855.21
520.146	46774.75
520.348	46774.75
520.55	46823.9
520.752	47077.85
520.954	48255.43
521.155	47495.64
521.357	48171.47
521.559	48826.82
521.761	49361.34
521.963	49197.5
522.164	49465.78
522.366	49981.87
522.568	50307.5
522.77	50207.15
522.971	51204.51
523.173	50610.6
523.375	51032.48
523.576	51114.4
523.778	51667.35
523.98	51990.93
524.181	52306.32
524.383	52584.84
524.584	52996.48
524.786	52859.27
524.988	52642.18
525.189	53404.03
525.391	53776.76
525.592	53692.79
525.794	53936.5
525.995	54325.61
526.197	54260.08
526.398	54532.46
526.6	55175.52
526.801	55005.54
527.003	55325.02
527.204	55122.27
527.406	55746.9
527.607	55216.48
527.808	56193.36
528.01	55466.33
528.211	55865.69
528.412	56754.5
528.614	56695.11
528.815	56701.26
529.016	57092.42
529.218	56420.69
529.419	57123.14
529.62	57215.3
529.822	56889.67
530.023	57348.42
530.224	57123.14
530.425	57364.8
530.626	56840.52
530.828	56766.79
531.029	58278.19
531.23	57026.88
531.431	57491.77
531.632	58061.11
531.833	57858.36
532.035	57549.12
532.236	57688.38
532.437	57981.24
532.638	57870.65
532.839	57766.2
533.04	58446.13
533.241	57166.15
533.442	58722.6
533.643	57983.29
533.844	58253.62
534.045	58208.56
534.246	58265.91
534.447	58335.54
534.648	58214.71
534.849	58085.68
535.05	57803.06
535.251	58220.85
535.451	57610.56
535.652	58470.7
535.853	58126.64
536.054	58593.58
536.255	58595.63
536.456	58157.36
536.657	58798.38
536.857	58220.85
537.058	57876.79
537.259	58913.06
537.46	58059.06
537.66	58114.36
537.861	58220.85
538.062	58364.21
538.263	58540.33
538.463	58286.39
538.664	58327.34
538.865	58630.44
539.065	58716.46
539.266	58173.75
539.466	58634.54
539.667	57868.6
539.868	58685.74
540.068	58059.06
540.269	58478.89
540.469	58579.24
540.67	57665.85
540.87	58106.16
541.071	57559.36
541.271	58374.45
541.472	57989.43
541.672	57794.87
541.873	57958.71
542.073	57348.42
542.274	58781.99
542.474	58226.99
542.675	57647.42
542.875	58513.71
543.075	57665.85
543.276	57755.96
543.476	58143.03
543.676	57684.28
543.877	58036.53
544.077	58028.34
544.277	57491.77
544.478	57434.43
544.678	58145.08
544.878	57807.16
545.078	57741.63
545.279	57547.07
545.479	57796.92
545.679	57641.28
545.879	57848.12
546.079	57471.29
546.28	57473.34
546.48	57221.44
546.68	57633.08
546.88	57653.56
547.08	57979.19
547.28	57446.72
547.48	56996.16
547.68	57774.39
547.88	57248.07
548.081	57618.75
548.281	57569.6
548.481	57336.13
548.681	57911.61
548.881	57274.69
549.081	57268.54
549.28	57137.47
549.48	57667.9
549.68	57262.4
549.88	58118.45
550.08	57004.36
550.28	57438.53
550.48	56990.02
550.68	57835.83
550.88	56709.45
551.08	57094.47
551.279	57565.5
551.479	56744.26
551.679	57487.68
551.879	57108.8
552.079	57131.33
552.278	56807.75
552.478	56965.45
552.678	57174.34
552.878	57219.39
553.077	56861
553.277	56400.21
553.477	57549.12
553.676	56734.02
553.876	56869.19
554.076	56889.67
554.275	56734.02
554.475	56164.69
554.674	56738.12
554.874	56961.35
555.074	56512.84
555.273	56170.83
555.473	56877.38
555.672	55865.69
555.872	56287.57
556.071	55890.26
556.271	56590.67
556.47	56521.04
556.67	55767.38
556.869	56013.14
557.068	56361.29
557.268	55574.87
557.467	55996.76
557.667	55769.43
557.866	55914.84
558.065	55869.78
558.265	55318.88
558.464	55574.87
558.663	56236.37
558.863	55052.64
559.062	56002.9
559.261	55193.95
559.461	55552.35
559.66	54755.69
559.859	55339.36
560.058	54952.29
560.258	55482.72
560.457	54686.06
560.656	54776.17
560.855	54536.55
561.054	55325.02
561.253	54362.48
561.453	54802.79
561.652	54944.1
561.851	54550.89
562.05	54352.24
562.249	54251.89
562.448	54438.25
562.647	54352.24
562.846	54120.82
563.045	54206.83
563.244	53641.59
563.443	53946.74
563.642	53647.74
563.841	53692.79
564.04	53250.43
564.239	53870.96
564.438	53303.68
564.637	53221.76
564.836	53905.78
565.035	52543.88
565.234	53168.51
565.432	53010.82
565.631	52752.77
565.83	52978.05
566.029	53432.7
566.228	52334.99
566.427	52277.64
566.625	52433.29
566.824	51904.91
567.023	52722.05
567.222	51712.41
567.42	52629.9
567.619	52130.19
567.818	51866
568.016	51843.48
568.215	52654.47
568.414	51247.52
568.612	51839.38
568.811	51339.68
569.01	51675.54
569.208	50807.2
569.407	51116.45
569.605	50483.62
569.804	51333.53
570.002	50706.85
570.201	50674.09
570.4	50508.2
570.598	50174.38
570.797	49584.57
570.995	50184.62
571.193	49459.64
571.392	50252.2
571.59	49355.19
571.789	49822.13
571.987	49381.82
572.186	49418.68
572.384	49099.2
572.582	49361.34
572.781	49328.57
572.979	48648.64
573.177	48998.85
573.376	49224.12
573.574	48763.33
573.772	48996.8
573.971	48839.11
574.169	48572.87
574.367	47829.46
574.565	48452.04
574.763	48304.59
574.962	47768.02
575.16	47888.85
575.358	47821.26
575.556	47231.45
575.754	48194
575.952	47505.88
576.151	47825.36
576.349	46948.83
576.547	47395.29
576.745	47077.85
576.943	47028.7
577.141	46748.13
577.339	46977.5
577.537	46600.68
577.735	46723.55
577.933	46234.09
578.131	46174.7
578.329	45990.38
578.527	45662.71
578.725	45715.95
578.923	45908.46
579.121	45492.72
579.319	45683.19
579.516	45810.16
579.714	45580.79
579.912	45437.43
580.11	45298.17
580.308	45341.17
580.506	45277.69
580.704	44182.02
580.901	45081.08
581.099	45304.31
581.297	44257.8
581.495	44573.19
581.692	44431.88
581.89	44161.54
582.088	44487.17
582.285	43751.95
582.483	43934.22
582.681	44093.96
582.878	43897.36
583.076	43368.98
583.274	43495.95
583.471	43131.42
583.669	43207.19
583.866	43248.15
584.064	43295.25
584.262	42666.53
584.459	42938.91
584.657	42756.64
584.854	43168.28
585.052	42064.42
585.249	42531.36
585.447	42605.09
585.644	42164.78
585.841	42332.71
586.039	42584.61
586.236	41591.34
586.434	41867.82
586.631	41269.81
586.828	41765.42
587.026	41667.12
587.223	41376.31
587.42	41296.44
587.618	40987.19
587.815	40788.54
588.012	40827.45
588.21	40424
588.407	41120.31
588.604	40661.57
588.801	40143.43
588.999	40442.43
589.196	40462.91
589.393	40038.98
589.59	39858.76
589.787	39989.83
589.984	39707.21
590.182	39098.97
590.379	39584.33
590.576	39825.99
590.773	39561.81
590.97	39318.1
591.167	39418.45
591.364	38828.63
591.561	39058.01
591.758	38728.28
591.955	38584.93
592.152	38996.57
592.349	38408.8
592.546	38455.9
592.743	38484.58
592.94	37677.68
593.137	38171.24
593.334	38193.76
593.531	37528.17
593.727	37798.51
593.924	37831.27
594.121	37315.19
594.318	37651.05
594.515	37110.39
594.712	37675.63
594.908	36977.27
595.105	36964.98
595.302	36516.48
595.499	36653.69
595.696	36686.46
595.892	36471.42
596.089	36631.16
596.286	37046.9
596.482	36575.87
596.679	36393.6
596.876	36067.97
597.072	35826.31
597.269	36045.44
597.466	35816.07
597.662	35818.12
597.859	35914.37
598.055	35449.49
598.252	35619.47
598.448	35166.87
598.645	35066.52
598.841	34575
599.038	34720.41
599.234	34615.96
599.431	34740.89
599.627	34499.23
599.824	34796.18
600.02	34558.62
600.217	34417.31
600.413	33862.31
600.609	34071.2
600.806	33897.13
601.002	34134.69
601.198	33764.01
601.395	33628.84
601.591	33446.57
601.787	33890.98
601.984	33395.37
602.18	34032.29
602.376	33045.17
602.572	33196.72
602.769	33051.31
602.965	32916.15
603.161	33045.17
603.357	32883.38
603.553	32875.19
603.75	32537.27
603.946	32240.32
604.142	32398.01
604.338	31916.74
604.534	32205.5
604.73	31736.52
604.926	31730.37
605.122	31994.56
605.318	31808.2
605.514	31730.37
605.71	31550.15
605.906	31486.67
606.102	31333.07
606.298	31232.72
606.494	30991.06
606.69	31085.26
606.886	31099.6
607.082	30835.41
607.278	31146.7
607.474	30720.73
607.67	30835.41
607.866	30202.59
608.062	31097.55
608.257	30421.72
608.453	30618.33
608.649	30462.68
608.845	30118.62
609.041	30315.23
609.236	30180.06
609.432	30071.52
609.628	30167.77
609.824	29840.1
610.019	29723.37
610.215	29600.49
610.411	30182.11
610.606	29496.04
610.802	30063.33
610.998	29891.3
611.193	29911.78
611.389	29342.44
611.584	29604.58
611.78	29338.35
611.976	29635.3
612.171	29352.68
612.367	29547.24
612.562	29127.41
612.758	29094.64
612.953	28826.35
613.149	29143.79
613.344	28609.27
613.539	29186.8
613.735	28988.14
613.93	28922.61
614.126	28994.29
614.321	29020.91
614.517	28707.57
614.712	28467.96
614.907	28451.58
615.103	28529.4
615.298	28449.53
615.493	28334.84
615.688	27890.43
615.884	28529.4
616.079	27982.59
616.274	28480.25
616.47	28099.33
616.665	28164.86
616.86	28048.13
617.055	27970.3
617.25	27781.89
617.445	28064.51
617.641	27286.28
617.836	27929.34
618.031	27271.95
618.226	27581.19
618.421	27290.38
618.616	27677.44
618.811	26819.35
619.006	27290.38
619.201	26745.62
619.396	26915.6
619.591	26526.49
619.786	27089.68
619.981	26362.65
620.176	26919.7
620.371	26241.82
620.566	26489.62
620.761	26389.27
620.956	26397.46
621.151	25781.03
621.346	26260.25
621.541	25588.52
621.735	25840.42
621.93	25367.34
622.125	25461.54
622.32	25101.1
622.515	25262.89
622.709	25068.33
622.904	24826.67
623.099	24515.38
623.294	24857.39
623.488	24103.74
623.683	24419.13
623.878	24214.33
624.072	24197.95
624.267	23808.83
624.462	23851.84
624.656	23485.25
624.851	23771.97
625.046	23395.14
625.24	23411.53
625.435	23173.96
625.629	23364.42
625.824	23331.65
626.018	23089.99
626.213	22389.59
626.407	22641.49
626.602	22307.67
626.796	22672.21
626.991	22618.96
627.185	22215.51
627.38	22213.46
627.574	21855.07
627.768	22102.87
627.963	21734.24
628.157	21541.73
628.352	21519.2
628.546	21097.32
628.74	21410.66
628.935	20921.2
629.129	21252.97
629.323	21001.07
629.517	20953.96
629.712	20845.42
629.906	20788.08
630.1	20296.56
630.294	20487.03
630.489	20280.18
630.683	20392.82
630.877	20056.95
631.071	19831.68
631.265	20120.44
631.459	19684.22
631.653	19440.51
631.848	19751.81
632.042	19657.6
632.236	19465.09
632.43	19231.62
632.624	19348.36
632.818	18891.66
633.012	18795.4
633.206	18645.9
633.4	18797.45
633.594	18412.43
633.788	18754.44
633.982	18703.25
634.176	18572.18
634.369	18271.12
634.563	18371.47
634.757	18207.64
634.951	18148.25
635.145	18076.57
635.339	17939.35
635.533	17863.58
635.726	17859.48
635.92	17544.09
636.114	17601.44
636.308	17531.81
636.501	17060.77
636.695	17281.95
636.889	17214.37
637.083	17216.42
637.276	16798.63
637.47	16917.42
637.664	16694.19
637.857	16649.13
638.051	16774.06
638.244	16403.38
638.438	16466.86
638.632	16182.2
638.825	16440.24
639.019	15985.59
639.212	15811.51
639.406	16151.48
639.599	15788.99
639.793	15645.63
639.986	15492.03
640.18	15758.27
640.373	15666.11
640.567	15393.73
640.76	15518.65
640.954	15348.67
641.147	15217.6
641.34	15236.03
641.534	15139.78
641.727	14887.88
641.92	14896.07
642.114	14734.28
642.307	14967.75
642.5	14689.23
642.694	14693.32
642.887	14511.05
643.08	14685.13
643.273	14461.9
643.467	14246.87
643.66	14179.28
643.853	13968.34
644.046	13796.31
644.239	13917.14
644.432	13757.4
644.626	13755.35
644.819	13607.9
645.012	13741.02
645.205	13415.39
645.398	13579.23
645.591	13444.06
645.784	13618.14
645.977	13360.09
646.17	13267.94
646.363	13110.24
646.556	13161.44
646.749	13071.33
646.942	13249.5
647.135	12837.86
647.328	12897.25
647.521	12671.98
647.714	12647.4
647.907	12833.77
648.099	12444.65
648.292	12585.96
648.485	12585.96
648.678	12409.84
648.871	12569.58
649.064	12192.75
649.256	12256.24
649.449	12137.46
649.642	12002.29
649.835	12014.58
650.027	12035.06
650.22	11772.92
650.413	12018.68
650.605	11602.94
650.798	11701.24
650.991	11574.27
651.183	11684.86
651.376	11443.2
651.568	11639.8
651.761	11553.79
651.954	11318.27
652.146	11072.51
652.339	11115.52
652.531	11387.9
652.724	11183.1
652.916	10877.96
653.109	11181.06
653.301	10990.59
653.494	10947.59
653.686	10710.02
653.879	10816.52
654.071	10560.52
654.263	10632.2
654.456	10624.01
654.648	10685.45
654.84	10411.02
655.033	10314.77
655.225	10415.12
655.417	10251.28
655.61	10187.79
655.802	10337.29
655.994	10155.02
656.186	10140.69
656.379	10105.87
656.571	10089.49
656.763	9911.32
656.955	9917.46
657.148	9978.9
657.34	9993.23
657.532	9571.35
657.724	9669.66
657.916	9616.41
658.108	9692.18
658.3	9516.06
658.492	9565.21
658.684	9466.91
658.876	9341.98
659.068	9329.69
659.26	9042.98
659.452	9165.85
659.644	9344.03
659.836	9149.47
660.028	9118.75
660.22	8952.87
660.412	9135.14
660.604	8930.34
660.796	8930.34
660.988	8959.01
661.18	8739.88
661.372	8703.01
661.563	8913.95
661.755	8602.66
661.947	8793.12
662.139	8508.46
662.331	8653.86
662.522	8332.33
662.714	8440.87
662.906	8285.23
663.097	8209.45
663.289	8225.84
663.481	8299.56
663.673	8113.2
663.864	8356.91
664.056	8236.08
664.247	8188.97
664.439	7908.4
664.631	8002.61
664.822	7969.84
665.014	8004.66
665.205	7873.59
665.397	7941.17
665.588	7924.79
665.78	7902.26
665.971	7638.07
666.163	7742.52
666.354	7793.72
666.546	7697.46
666.737	7478.33
666.929	7433.27
667.12	7556.15
667.311	7466.04
667.503	7435.32
667.694	7404.6
667.885	7334.97
668.077	7259.2
668.268	7189.56
668.459	7242.81
668.651	7113.79
668.842	7330.87
669.033	7097.41
669.224	7175.23
669.416	7007.3
669.607	7205.95
669.798	6990.91
669.989	7011.39
670.18	7093.31
670.371	6986.82
670.563	6888.51
670.754	6902.85
670.945	6933.57
671.136	6835.27
671.327	6698.05
671.518	6792.26
671.709	6929.47
671.9	6831.17
672.091	6540.36
672.282	6691.91
672.473	6679.62
672.664	6575.17
672.855	6446.15
673.046	6405.19
673.237	6517.83
673.428	6595.65
673.619	6501.45
673.809	6392.91
674	6206.54
674.191	6292.55
674.382	6196.3
674.573	6370.38
674.764	6233.16
674.954	6198.35
675.145	6147.15
675.336	6118.48
675.527	6321.23
675.717	6057.04
675.908	6014.03
676.099	6059.09
676.289	5995.6
676.48	6145.1
676.671	6134.86
676.861	6075.47
677.052	5905.49
677.243	5977.17
677.433	5964.88
677.624	5772.37
677.814	5966.93
678.005	5878.86
678.195	5798.99
678.386	5899.34
678.576	5661.78
678.767	5803.09
678.957	5788.75
679.148	5672.02
679.338	5735.51
679.529	5751.89
679.719	5663.83
679.909	5741.65
680.1	5608.53
680.29	5669.97
680.481	5571.67
680.671	5577.81
680.861	5520.47
681.052	5518.42
681.242	5631.06
681.432	5583.96
681.622	5444.7
681.813	5440.6
682.003	5377.11
682.193	5405.78
682.383	5346.39
682.573	5391.45
682.764	5360.73
682.954	5237.85
683.144	5430.36
683.334	5319.77
683.524	5211.23
683.714	5291.1
683.904	5137.5
684.094	5311.58
684.284	5106.78
684.474	5149.79
684.664	5188.7
684.854	5096.54
685.044	5168.22
685.234	5014.62
685.424	5192.8
685.614	5033.05
685.804	5031.01
685.994	5203.04
686.184	5086.3
686.374	5018.72
686.564	5086.3
686.753	4869.22
686.943	4940.9
687.133	4899.94
687.323	4955.23
687.513	4885.6
687.702	5006.43
687.892	4885.6
688.082	4996.19
688.272	4832.35
688.461	4689
688.651	4873.31
688.841	4797.54
689.03	4689
689.22	4764.77
689.41	4664.42
689.599	4531.3
689.789	4746.34
689.979	4492.39
690.168	4635.75
690.358	4529.25
690.547	4555.88
690.737	4557.93
690.926	4471.91
691.116	4543.59
691.305	4519.01
691.495	4398.18
691.684	4414.57
691.874	4381.8
692.063	4371.56
692.252	4375.66
692.442	4277.35
692.631	4244.59
692.82	4324.46
693.01	4287.59
693.199	4359.27
693.388	4291.69
693.578	4351.08
693.767	4174.95
693.956	4154.48
694.146	4275.31
694.335	4240.49
694.524	4103.28
694.713	4222.06
694.902	4142.19
695.092	4062.32
695.281	4035.69
695.47	4078.7
695.659	4095.08
695.848	4109.42
696.037	4054.12
696.226	4222.06
696.415	3943.53
696.604	4037.74
696.793	4023.41
696.982	4156.52
697.171	4146.28
697.36	3990.64
697.549	3961.97
697.738	3986.54
697.927	3988.59
698.116	4088.94
698.305	3886.19
698.494	3941.49
698.683	3867.76
698.872	3851.38
699.061	3945.58
699.25	3787.89
699.438	3957.87
699.627	3888.24
699.816	3964.01
700.005	3845.23
700.193	3875.95
700.382	3834.99
700.571	3939.44
700.76	3900.53
700.948	3976.3
701.137	3796.08
701.326	3849.33
701.514	3773.55
701.703	3736.69
701.892	3796.08
702.08	3832.94
702.269	3849.33
702.457	3806.32
702.646	3634.29
702.834	3730.55
703.023	3769.46
703.212	3808.37
703.4	3671.15
703.589	3710.07
703.777	3769.46
703.965	3531.89
704.154	3558.52
704.342	3773.55
704.531	3642.48
704.719	3652.72
704.907	3720.31
705.096	3720.31
705.284	3660.91
705.472	3691.63
705.661	3695.73
705.849	3636.34
706.037	3599.48
706.226	3736.69
706.414	3572.85
706.602	3646.58
706.79	3662.96
706.979	3699.83
707.167	3693.68
707.355	3658.87
707.543	3622
707.731	3552.37
707.919	3738.74
708.107	3474.55
708.296	3517.56
708.484	3443.83
708.672	3638.39
708.86	3556.47
709.048	3613.81
709.236	3517.56
709.424	3587.19
709.612	3630.2
709.8	3517.56
709.988	3497.08
710.176	3445.88
710.364	3464.31
710.551	3648.63
710.739	3406.97
710.927	3718.26
711.115	3464.31
711.303	3474.55
711.491	3484.79
711.679	3409.01
711.866	3509.37
712.054	3687.54
712.242	3409.01
712.43	3624.05
712.617	3445.88
712.805	3425.4
712.993	3523.7
713.181	3429.49
713.368	3384.44
713.556	3527.8
713.744	3325.05
713.931	3523.7
714.119	3382.39
714.306	3245.18
714.494	3419.25
714.682	3439.73
714.869	3351.67
715.057	3310.71
715.244	3269.75
715.432	3476.6
715.619	3372.15
715.807	3316.86
715.994	3406.97
716.182	3341.43
716.369	3351.67
716.556	3374.2
716.744	3310.71
716.931	3275.9
717.119	3296.38
717.306	3382.39
717.493	3198.07
717.681	3228.79
717.868	3347.58
718.055	3153.02
718.242	3208.31
718.43	3314.81
718.617	3306.62
718.804	3357.82
718.991	3288.18
719.179	3157.11
719.366	3103.87
719.553	3249.27
719.74	3247.23
719.927	3230.84
720.114	3214.46
720.301	3255.42
720.488	3116.16
720.676	3249.27
720.863	3253.37
721.05	3249.27
721.237	3144.83
721.424	3284.09
721.611	3267.7
721.798	3118.2
721.985	3161.21
722.172	2970.75
722.358	3169.4
722.545	3099.77
722.732	3148.92
722.919	3134.59
723.106	3144.83
723.293	3187.83
723.48	3073.15
723.667	3128.44
723.853	3083.39
724.04	3030.14
724.227	3263.61
724.414	3093.63
724.6	3218.55
724.787	3175.55
724.974	3122.3
725.161	2983.04
725.347	2972.8
725.534	3046.52
725.72	3075.2
725.907	3011.71
726.094	2950.27
726.28	3122.3
726.467	3079.29
726.653	3148.92
726.84	3003.52
727.027	3093.63
727.213	2956.41
727.4	3042.43
727.586	3044.48
727.773	3009.66
727.959	2968.7
728.145	3011.71
728.332	2960.51
728.518	3038.33
728.705	3015.8
728.891	2819.2
729.077	2937.98
729.264	2935.93
729.45	2991.23
729.636	2985.09
729.823	2847.87
730.009	3034.24
730.195	2958.46
730.382	3001.47
730.568	2923.65
730.754	2944.13
730.94	2831.49
731.126	3073.15
731.313	3038.33
731.499	2978.94
731.685	2937.98
731.871	3024
732.057	2972.8
732.243	2931.84
732.429	2868.35
732.615	3019.9
732.801	2940.03
732.987	2813.06
733.173	2944.13
733.359	2821.25
733.545	2884.73
733.731	3015.8
733.917	2827.39
734.103	2907.26
734.289	2845.82
734.475	2890.88
734.661	2874.49
734.847	2854.02
735.033	2796.67
735.219	2751.62
735.404	2790.53
735.59	2823.3
735.776	2761.86
735.962	2849.92
736.148	2825.34
736.333	2886.78
736.519	2794.62
736.705	2923.65
736.89	2827.39
737.076	2874.49
737.262	2770.05
737.447	2776.19
737.633	2780.29
737.819	2737.28
738.004	2841.73
738.19	2753.66
738.375	2778.24
738.561	2813.06
738.747	2790.53
738.932	2745.47
739.118	2614.4
739.303	2720.9
739.489	2720.9
739.674	2688.13
739.859	2655.36
740.045	2593.92
740.23	2677.89
740.416	2610.31
740.601	2745.47
740.786	2608.26
740.972	2636.93
741.157	2602.11
741.342	2610.31
741.528	2534.53
741.713	2614.4
741.898	2555.01
742.084	2577.54
742.269	2477.19
742.454	2536.58
742.639	2626.69
742.824	2425.99
743.01	2491.52
743.195	2518.15
743.38	2610.31
743.565	2593.92
743.75	2497.67
743.935	2491.52
744.12	2555.01
744.305	2362.5
744.49	2497.67
744.675	2425.99
744.86	2473.09
745.045	2454.66
745.23	2434.18
745.415	2368.65
745.6	2485.38
745.785	2313.35
745.97	2415.75
746.155	2450.57
746.34	2292.87
746.525	2350.21
746.71	2360.45
746.895	2305.16
747.079	2344.07
747.264	2169.99
747.449	2223.24
747.634	2256.01
747.819	2229.38
748.003	2278.54
748.188	2237.58
748.373	2268.3
748.557	2157.71
748.742	2053.26
748.927	2174.09
749.111	2024.59
749.296	2126.99
749.481	2122.89
749.665	2077.83
749.85	2038.92
750.034	2057.36
750.219	2045.07
750.404	1981.58
750.588	2114.7
750.773	2083.98
750.957	2063.5
751.141	1981.58
751.326	2110.6
751.51	1950.86
751.695	1883.28
751.879	1952.91
752.064	1961.1
752.248	1918.09
752.432	2018.44
752.617	1819.79
752.801	1860.75
752.985	1809.55
753.17	1932.43
753.354	1791.12
753.538	1696.91
753.722	1748.11
753.907	1774.74
754.091	1889.42
754.275	1748.11
754.459	1741.97
754.643	1744.02
754.828	1772.69
755.012	1686.67
755.196	1551.51
755.38	1733.78
755.564	1733.78
755.748	1670.29
755.932	1768.59
756.116	1643.67
756.3	1682.58
756.484	1574.03
756.668	1684.62
756.852	1547.41
757.036	1592.47
757.22	1563.79
757.404	1582.23
757.588	1559.7
757.772	1539.22
757.956	1510.55
758.14	1559.7
758.323	1492.12
758.507	1518.74
758.691	1434.77
758.875	1547.41
759.059	1518.74
759.242	1477.78
759.426	1459.35
759.61	1428.63
759.794	1438.87
759.977	1463.44
760.161	1528.98
760.345	1498.26
760.528	1367.19
760.712	1391.77
760.895	1410.2
761.079	1350.81
761.263	1361.05
761.446	1336.47
761.63	1416.34
761.813	1367.19
761.997	1330.33
762.18	1318.04
762.364	1301.65
762.547	1354.9
762.731	1272.98
762.914	1215.64
763.098	1293.46
763.281	1236.12
763.464	1348.76
763.648	1289.37
763.831	1387.67
764.015	1283.22
764.198	1256.6
764.381	1248.41
764.564	1281.18
764.748	1260.7
764.931	1250.46
765.114	1186.97
765.297	1246.36
765.481	1260.7
765.664	1369.24
765.847	1135.77
766.03	1236.12
766.213	1232.02
766.397	1180.82
766.58	1164.44
766.763	1193.11
766.946	1248.41
767.129	1215.64
767.312	1186.97
767.495	1209.5
767.678	1186.97
767.861	1113.24
768.044	1227.93
768.227	1154.2
768.41	1049.75
768.593	1137.82
768.776	1141.91
768.959	1086.62
769.142	1182.87
769.324	1141.91
769.507	1137.82
769.69	1131.67
769.873	1096.86
770.056	1127.58
770.239	1082.52
770.421	1158.3
770.604	1068.19
770.787	1107.1
770.97	1117.34
771.152	1068.19
771.335	1070.23
771.518	1070.23
771.7	1006.75
771.883	1096.86
772.066	1035.42
772.248	1019.04
772.431	1033.37
772.613	1033.37
772.796	1010.84
772.978	1012.89
773.161	1006.75
773.343	1006.75
773.526	1027.23
773.708	1039.51
773.891	963.74
774.073	980.12
774.256	982.17
774.438	973.98
774.621	939.16
774.803	1043.61
774.985	945.31
775.168	916.64
775.35	875.68
775.532	892.06
775.715	820.38
775.897	920.73
776.079	900.25
776.261	918.68
776.444	957.6
776.626	887.97
776.808	908.44
776.99	892.06
777.173	842.91
777.355	896.16
777.537	875.68
777.719	840.86
777.901	904.35
778.083	781.47
778.265	828.57
778.447	763.04
778.629	760.99
778.811	824.48
778.993	758.94
779.175	769.18
779.357	726.18
779.539	734.37
779.721	783.52
779.903	732.32
780.085	738.46
780.267	754.85
780.449	666.78
780.631	824.48
780.812	832.67
780.994	765.09
781.176	644.26
781.358	740.51
781.54	617.63
781.721	754.85
781.903	699.55
782.085	652.45
782.267	660.64
782.448	683.17
782.63	640.16
782.812	584.87
782.993	679.07
783.175	658.59
783.357	554.15
783.538	662.69
783.72	640.16
783.901	664.74
784.083	629.92
784.264	609.44
784.446	615.59
784.627	562.34
784.809	593.06
784.99	629.92
785.172	593.06
785.353	599.2
785.535	556.19
785.716	556.19
785.897	556.19
786.079	613.54
786.26	597.15
786.441	550.05
786.623	482.47
786.804	453.8
786.985	562.34
787.167	572.58
787.348	531.62
787.529	537.76
787.71	597.15
787.891	537.76
788.073	496.8
788.254	498.85
788.435	535.71
788.616	507.04
788.797	490.66
788.978	478.37
789.159	525.47
789.34	586.91
789.522	445.6
789.703	523.43
789.884	416.93
790.065	502.95
790.246	523.43
790.427	378.02
790.607	459.94
790.788	461.99
790.969	453.8
791.15	375.97
791.331	494.76
791.512	474.28
791.693	375.97
791.874	476.32
792.054	486.56
792.235	455.84
792.416	421.03
792.597	392.36
792.778	437.41
792.958	392.36
793.139	412.84
793.32	330.92
793.5	441.51
793.681	449.7
793.862	328.87
794.042	396.45
794.223	400.55
794.404	365.73
794.584	343.21
794.765	335.01
794.945	357.54
795.126	394.4
795.306	468.13
795.487	335.01
795.667	343.21
795.848	480.42
796.028	427.17
796.209	351.4
796.389	345.25
796.57	320.68
796.75	326.82
796.93	412.84
797.111	390.31
797.291	283.81
797.471	371.88
797.652	343.21
797.832	324.77
798.012	365.73
798.192	277.67
798.373	310.44
798.553	330.92
798.733	287.91
798.913	310.44
799.093	298.15
799.274	306.34
799.454	353.45
799.634	324.77
799.814	351.4
799.994	355.49
800.174	355.49
800.354	369.83
800.534	347.3
800.714	273.57
800.894	242.85
801.074	318.63
801.254	220.33
801.434	308.39
801.614	296.1
801.794	267.43
801.974	701.6
802.154	320.68
802.334	337.06
802.514	312.49
802.693	283.81
802.873	232.62
803.053	328.87
803.233	363.69
803.413	312.49
803.592	236.71
803.772	261.29
803.952	339.11
804.131	205.99
804.311	318.63
804.491	312.49
804.67	287.91
804.85	240.81
805.03	269.48
805.209	298.15
805.389	269.48
805.568	330.92
805.748	349.35
805.928	257.19
806.107	249
806.287	335.01
806.466	332.97
806.646	269.48
806.825	167.08
807.004	240.81
807.184	214.18
807.363	201.9
807.543	238.76
807.722	214.18
807.901	199.85
808.081	238.76
808.26	228.52
808.439	312.49
808.619	238.76
808.798	249
808.977	224.42
809.156	251.05
809.336	244.9
809.515	296.1
809.694	208.04
809.873	152.74
810.052	142.5
810.231	173.22
810.411	201.9
810.59	216.23
810.769	216.23
810.948	167.08
811.127	214.18
811.306	189.61
811.485	156.84
811.664	257.19
811.843	205.99
812.022	203.94
812.201	191.66
812.38	253.09
812.559	226.47
812.737	263.33
812.916	179.37
813.095	177.32
813.274	175.27
813.453	242.85
813.632	177.32
813.811	193.7
813.989	205.99
814.168	224.42
814.347	142.5
814.526	132.26
814.704	173.22
814.883	265.38
815.062	203.94
815.24	187.56
815.419	134.31
815.598	169.13
815.776	144.55
815.955	169.13
816.133	165.03
816.312	115.88
816.49	160.94
816.669	99.5
816.847	107.69
817.026	122.02
817.204	142.5
817.383	152.74
817.561	150.7
817.74	177.32
817.918	146.6
818.097	189.61
818.275	165.03
818.453	162.98
818.632	175.27
818.81	179.37
818.988	158.89
819.167	103.59
819.345	179.37
819.523	238.76
819.701	179.37
819.879	154.79
820.058	128.17
820.236	130.22
820.414	160.94
820.592	68.78
820.77	113.83
820.948	109.74
821.127	144.55
821.305	140.46
821.483	109.74
821.661	126.12
821.839	165.03
822.017	99.5
822.195	160.94
822.373	105.64
822.551	109.74
822.729	119.98
822.907	175.27
823.085	226.47
823.262	173.22
823.44	154.79
823.618	132.26
823.796	103.59
823.974	152.74
824.152	136.36
824.329	142.5
824.507	152.74
824.685	203.94
824.863	224.42
825.04	165.03
825.218	173.22
825.396	160.94
825.574	113.83
825.751	140.46
825.929	76.97
826.107	85.16
826.284	169.13
826.462	138.41
826.639	228.52
826.817	103.59
826.994	117.93
827.172	152.74
827.349	31.91
827.527	203.94
827.704	148.65
827.882	93.35
828.059	103.59
828.237	85.16
828.414	142.5
828.591	146.6
828.769	97.45
828.946	140.46
829.124	95.4
829.301	105.64
829.478	132.26
829.655	142.5
829.833	103.59
830.01	134.31
830.187	154.79
830.364	44.2
830.542	142.5
830.719	177.32
830.896	142.5
831.073	126.12
831.25	107.69
831.427	105.64
831.604	91.31
831.782	134.31
831.959	72.87
832.136	134.31
832.313	107.69
832.49	36.01
832.667	83.11
832.844	58.54
833.021	150.7
833.198	109.74
833.374	138.41
833.551	72.87
833.728	74.92
833.905	183.46
834.082	124.07
834.259	107.69
834.436	62.63
834.612	89.26
834.789	119.98
834.966	122.02
835.143	54.44
835.319	97.45
835.496	107.69
835.673	146.6
835.85	142.5
836.026	89.26
836.203	142.5
836.38	27.82
836.556	38.06
836.733	48.3
836.909	117.93
837.086	66.73
837.262	33.96
837.439	85.16
837.616	68.78
837.792	105.64
837.968	70.83
838.145	107.69
838.321	60.59
838.498	52.39
838.674	70.83
838.851	99.5
839.027	93.35
839.203	21.67
839.38	70.83
839.556	62.63
839.732	68.78
839.909	81.07
840.085	25.77
840.261	9.39
840.437	48.3
840.614	40.11
840.79	46.25
840.966	122.02
841.142	19.63
841.318	33.96
841.494	107.69
841.671	85.16
841.847	105.64
842.023	7.34
842.199	27.82
842.375	138.41
842.551	29.87
842.727	89.26
842.903	97.45
843.079	97.45
843.255	48.3
843.431	11.43
843.607	105.64
843.783	74.92
843.959	58.54
844.134	42.15
844.31	74.92
844.486	68.78
844.662	48.3
844.838	99.5
845.013	87.21
845.189	25.77
845.365	68.78
845.541	101.55
845.716	105.64
845.892	15.53
846.068	60.59
846.244	-15.19
846.419	64.68
846.595	36.01
846.77	83.11
846.946	89.26
847.122	66.73
847.297	62.63
847.473	113.83
847.648	7.34
847.824	50.35
847.999	-2.9
848.175	72.87
848.35	83.11
848.526	5.29
848.701	3.24
848.876	101.55
849.052	40.11
849.227	29.87
849.403	9.39
849.578	23.72
849.753	36.01
849.929	27.82
850.104	68.78
850.279	23.72
850.454	29.87
850.63	105.64
850.805	70.83
850.98	97.45
851.155	31.91
851.33	101.55
851.505	31.91
851.681	15.53
851.856	5.29
852.031	44.2
852.206	70.83
852.381	44.2
852.556	15.53
852.731	109.74
852.906	150.7
853.081	68.78
853.256	79.02
853.431	36.01
853.606	17.58
853.781	17.58
853.956	122.02
854.131	60.59
854.305	-2.9
854.48	70.83
854.655	-15.19
854.83	91.31
855.005	60.59
855.18	58.54
855.354	-27.48
855.529	9.39
855.704	25.77
855.879	89.26
856.053	23.72
856.228	60.59
856.403	11.43
856.577	-4.95
856.752	-109.4
856.926	81.07
857.101	42.15
857.276	58.54
857.45	81.07
857.625	-13.14
857.799	19.63
857.974	7.34
858.148	3.24
858.323	58.54
858.497	7.34
858.672	-4.95
858.846	25.77
859.02	85.16
859.195	9.39
859.369	60.59
859.543	33.96
859.718	-7
859.892	23.72
860.066	31.91
860.241	-64.34
860.415	-35.67
860.589	27.82
860.763	50.35
860.938	42.15
861.112	107.69
861.286	76.97
861.46	68.78
861.634	25.77
861.808	124.07
861.982	-0.85
862.157	33.96
862.331	-0.85
862.505	52.39
862.679	52.39
862.853	70.83
863.027	-41.81
863.201	36.01
863.375	-2.9
863.549	-11.09
863.722	52.39
863.896	46.25
864.07	93.35
864.244	60.59
864.418	48.3
864.592	15.53
864.766	-35.67
864.939	23.72
865.113	66.73
865.287	3.24
865.461	-39.76
865.634	7.34
865.808	93.35
865.982	-15.19
866.156	79.02
866.329	-9.05
866.503	124.07
866.676	13.48
866.85	15.53
867.024	50.35
867.197	111.78
867.371	15.53
867.544	-4.95
867.718	-21.33
867.891	68.78
868.065	60.59
868.238	3.24
868.412	7.34
868.585	-21.33
868.759	89.26
868.932	-41.81
869.105	3.24
869.279	5.29
869.452	29.87
869.625	3.24
869.799	50.35
869.972	-97.11
870.145	76.97
870.319	1.19
870.492	-76.63
870.665	25.77
870.838	13.48
871.011	-47.96
871.185	23.72
871.358	-29.52
871.531	-9.05
871.704	46.25
871.877	5.29
872.05	48.3
872.223	52.39
872.396	85.16
872.569	44.2
872.742	-31.57
872.915	21.67
873.088	-11.09
873.261	-2.9
873.434	29.87
873.607	19.63
873.78	52.39
873.953	-35.67
874.126	31.91
874.299	19.63
874.471	-39.76
874.644	9.39
874.817	33.96
874.99	60.59
875.163	1.19
875.335	3.24
875.508	-15.19
875.681	105.64
875.853	17.58
876.026	-17.24
876.199	-58.2
876.371	13.48
876.544	-21.33
876.717	33.96
876.889	-23.38
877.062	44.2
877.234	54.44
877.407	3.24
877.579	48.3
877.752	31.91
877.924	-7
878.097	21.67
878.269	21.67
878.442	27.82
878.614	-2.9
878.786	85.16
878.959	11.43
879.131	89.26
879.303	25.77
879.476	48.3
879.648	40.11
879.82	27.82
879.993	-68.44
880.165	29.87
880.337	-4.95
880.509	-80.72
880.681	-37.72
880.854	-25.43
881.026	5.29
881.198	52.39
881.37	-23.38
881.542	7.34
881.714	7.34
881.886	-0.85
882.058	-47.96
882.23	33.96
882.402	23.72
882.574	3.24
882.746	5.29
882.918	52.39
883.09	-29.52
883.262	11.43
883.434	-31.57
883.606	-78.68
883.778	5.29
883.95	-4.95
884.122	7.34
884.293	50.35
884.465	52.39
884.637	7.34
884.809	-17.24
884.98	46.25
885.152	40.11
885.324	23.72
885.496	-2.9
885.667	11.43
885.839	-86.87
886.011	74.92
886.182	-9.05
886.354	95.4
886.525	95.4
886.697	38.06
886.869	7.34
887.04	-33.62
887.212	-50
887.383	66.73
887.555	17.58
887.726	-11.09
887.897	-68.44
888.069	29.87
888.24	60.59
888.412	-31.57
888.583	21.67
888.754	27.82
888.926	23.72
889.097	-37.72
889.268	-2.9
889.44	46.25
889.611	-0.85
889.782	15.53
889.953	-62.29
890.125	11.43
890.296	-7
890.467	7.34
890.638	50.35
890.809	-41.81
890.98	-43.86
891.151	1.19
891.323	13.48
891.494	33.96
891.665	52.39
891.836	23.72
892.007	-45.91
892.178	3.24
892.349	-17.24
892.52	-76.63
892.691	21.67
892.862	23.72
893.032	-33.62
893.203	83.11
893.374	3.24
893.545	-19.29
893.716	-66.39
893.887	-7
894.057	-82.77
894.228	-62.29
894.399	-17.24
894.57	-45.91
894.74	21.67
894.911	9.39
895.082	64.68
895.253	40.11
895.423	21.67
895.594	29.87
895.764	-45.91
895.935	-0.85
896.106	44.2
896.276	29.87
896.447	-4.95
896.617	-7
896.788	7.34
896.958	38.06
897.129	-37.72
897.299	25.77
897.47	74.92
897.64	44.2
897.81	-33.62
897.981	62.63
898.151	27.82
898.322	-41.81
898.492	27.82
898.662	-21.33
898.832	-43.86
899.003	-47.96
899.173	11.43
899.343	-68.44
899.513	-50
