Data from USB4F104151__103__11-07-07-519.txt Node

Date: Wed Mar 12 11:07:07 EDT 2025
User: louis
Spectrometer: USB4F10415
Trigger mode: 4
Integration Time (sec): 2.000000E-2
Scans to average: 1
Electric dark correction enabled: true
Nonlinearity correction enabled: false
Boxcar width: 0
XAxis mode: Wavelengths
Number of Pixels in Spectrum: 3648
>>>>>Begin Spectral Data<<<<<
178.204	-113.66
178.424	-113.66
178.644	-113.66
178.864	-134.14
179.084	-111.61
179.304	13.31
179.524	-19.46
179.744	-5.12
179.964	41.98
180.184	-46.08
180.404	41.98
180.624	-39.94
180.844	-7.17
181.064	-11.26
181.283	-37.89
181.503	35.84
181.723	33.79
181.943	-76.8
182.163	19.46
182.383	23.55
182.602	99.33
182.822	-74.75
183.042	-31.74
183.262	-62.46
183.482	111.61
183.701	9.22
183.921	-31.74
184.141	37.89
184.361	-56.32
184.58	35.84
184.8	5.12
185.02	-64.51
185.239	56.32
185.459	13.31
185.679	-11.26
185.898	-39.94
186.118	-52.22
186.338	9.22
186.557	15.36
186.777	-3.07
186.997	1.02
187.216	15.36
187.436	15.36
187.655	-1.02
187.875	117.76
188.095	13.31
188.314	-58.37
188.534	33.79
188.753	27.65
188.973	23.55
189.192	27.65
189.412	5.12
189.631	27.65
189.851	-23.55
190.07	-15.36
190.29	-17.41
190.509	44.03
190.729	-5.12
190.948	3.07
191.168	136.19
191.387	17.41
191.607	5.12
191.826	9.22
192.045	-21.5
192.265	35.84
192.484	54.27
192.704	7.17
192.923	-62.46
193.142	52.22
193.362	-3.07
193.581	9.22
193.8	-3.07
194.02	56.32
194.239	-3.07
194.458	66.56
194.678	23.55
194.897	31.74
195.116	-29.7
195.335	11.26
195.555	-23.55
195.774	13.31
195.993	7.17
196.212	54.27
196.432	-1.02
196.651	33.79
196.87	-23.55
197.089	48.13
197.308	-7.17
197.528	-15.36
197.747	9.22
197.966	-13.31
198.185	56.32
198.404	-15.36
198.623	21.5
198.842	27.65
199.062	17.41
199.281	44.03
199.5	-1.02
199.719	-52.22
199.938	-74.75
200.157	82.94
200.376	-23.55
200.595	60.42
200.814	17.41
201.033	3.07
201.252	-5.12
201.471	-33.79
201.69	5.12
201.909	72.7
202.128	13.31
202.347	101.37
202.566	87.04
202.785	15.36
203.004	37.89
203.223	-21.5
203.442	-13.31
203.661	-54.27
203.879	-5.12
204.098	15.36
204.317	1.02
204.536	-33.79
204.755	-23.55
204.974	21.5
205.193	25.6
205.411	48.13
205.63	3.07
205.849	15.36
206.068	58.37
206.287	82.94
206.505	-1.02
206.724	46.08
206.943	-23.55
207.162	3.07
207.381	52.22
207.599	15.36
207.818	-27.65
208.037	-7.17
208.255	27.65
208.474	-11.26
208.693	-33.79
208.911	-15.36
209.13	21.5
209.349	48.13
209.567	-21.5
209.786	-21.5
210.005	37.89
210.223	54.27
210.442	-17.41
210.661	-41.98
210.879	58.37
211.098	-5.12
211.316	-1.02
211.535	39.94
211.753	3.07
211.972	15.36
212.191	15.36
212.409	33.79
212.628	-21.5
212.846	54.27
213.065	46.08
213.283	70.65
213.502	13.31
213.72	58.37
213.938	48.13
214.157	-7.17
214.375	13.31
214.594	44.03
214.812	-54.27
215.031	-17.41
215.249	-13.31
215.467	-15.36
215.686	-1.02
215.904	25.6
216.122	19.46
216.341	7.17
216.559	64.51
216.778	17.41
216.996	-25.6
217.214	54.27
217.432	25.6
217.651	-3.07
217.869	-25.6
218.087	-19.46
218.306	-25.6
218.524	-11.26
218.742	15.36
218.96	23.55
219.179	13.31
219.397	-23.55
219.615	21.5
219.833	-19.46
220.051	5.12
220.27	33.79
220.488	-7.17
220.706	35.84
220.924	-29.7
221.142	9.22
221.36	37.89
221.578	58.37
221.796	-7.17
222.015	95.23
222.233	13.31
222.451	37.89
222.669	-46.08
222.887	62.46
223.105	-21.5
223.323	-15.36
223.541	-35.84
223.759	35.84
223.977	-19.46
224.195	82.94
224.413	-35.84
224.631	64.51
224.849	78.85
225.067	84.99
225.285	-1.02
225.503	19.46
225.721	-31.74
225.939	48.13
226.157	-60.42
226.375	87.04
226.592	-13.31
226.81	31.74
227.028	23.55
227.246	29.7
227.464	-29.7
227.682	19.46
227.9	3.07
228.117	107.52
228.335	-25.6
228.553	41.98
228.771	93.18
228.989	35.84
229.206	13.31
229.424	-33.79
229.642	5.12
229.86	82.94
230.077	29.7
230.295	27.65
230.513	91.13
230.731	35.84
230.948	58.37
231.166	68.61
231.384	-27.65
231.601	33.79
231.819	60.42
232.037	-21.5
232.254	-56.32
232.472	-7.17
232.689	-52.22
232.907	-3.07
233.125	5.12
233.342	5.12
233.56	-1.02
233.777	-11.26
233.995	84.99
234.213	54.27
234.43	50.18
234.648	-1.02
234.865	44.03
235.083	-3.07
235.3	-41.98
235.518	-7.17
235.735	-5.12
235.953	-15.36
236.17	72.7
236.388	-15.36
236.605	-1.02
236.822	7.17
237.04	29.7
237.257	17.41
237.475	-27.65
237.692	-72.7
237.909	17.41
238.127	21.5
238.344	35.84
238.562	-27.65
238.779	68.61
238.996	-23.55
239.214	48.13
239.431	64.51
239.648	-19.46
239.865	99.33
240.083	80.89
240.3	91.13
240.517	9.22
240.735	-21.5
240.952	-9.22
241.169	103.42
241.386	80.89
241.603	5.12
241.821	62.46
242.038	72.7
242.255	35.84
242.472	29.7
242.689	60.42
242.907	25.6
243.124	27.65
243.341	-33.79
243.558	-25.6
243.775	23.55
243.992	-101.37
244.209	23.55
244.426	99.33
244.643	54.27
244.86	37.89
245.078	56.32
245.295	-15.36
245.512	66.56
245.729	15.36
245.946	-35.84
246.163	-1.02
246.38	46.08
246.597	-39.94
246.814	80.89
247.031	62.46
247.248	44.03
247.464	33.79
247.681	-68.61
247.898	39.94
248.115	87.04
248.332	-1.02
248.549	66.56
248.766	7.17
248.983	13.31
249.2	-29.7
249.417	-9.22
249.633	37.89
249.85	31.74
250.067	-39.94
250.284	-7.17
250.501	-41.98
250.717	70.65
250.934	-50.18
251.151	-46.08
251.368	27.65
251.585	-1.02
251.801	-11.26
252.018	74.75
252.235	11.26
252.451	-37.89
252.668	-19.46
252.885	17.41
253.102	70.65
253.318	-11.26
253.535	33.79
253.752	-1.02
253.968	52.22
254.185	-23.55
254.401	-19.46
254.618	33.79
254.835	17.41
255.051	44.03
255.268	52.22
255.484	13.31
255.701	68.61
255.917	68.61
256.134	1.02
256.351	17.41
256.567	33.79
256.784	11.26
257	74.75
257.217	-31.74
257.433	33.79
257.65	33.79
257.866	15.36
258.082	-27.65
258.299	25.6
258.515	-54.27
258.732	-3.07
258.948	72.7
259.165	54.27
259.381	35.84
259.597	-5.12
259.814	-48.13
260.03	70.65
260.246	11.26
260.463	-9.22
260.679	1.02
260.895	21.5
261.112	-7.17
261.328	19.46
261.544	-3.07
261.761	68.61
261.977	-35.84
262.193	-23.55
262.409	78.85
262.626	-13.31
262.842	80.89
263.058	-5.12
263.274	9.22
263.49	11.26
263.707	35.84
263.923	-3.07
264.139	-25.6
264.355	13.31
264.571	33.79
264.787	91.13
265.004	-7.17
265.22	60.42
265.436	41.98
265.652	-48.13
265.868	-9.22
266.084	-37.89
266.3	-13.31
266.516	-23.55
266.732	-21.5
266.948	78.85
267.164	17.41
267.38	37.89
267.596	41.98
267.812	60.42
268.028	-66.56
268.244	107.52
268.46	29.7
268.676	-7.17
268.892	50.18
269.108	15.36
269.324	41.98
269.54	-1.02
269.756	50.18
269.972	-35.84
270.188	-56.32
270.403	41.98
270.619	7.17
270.835	41.98
271.051	33.79
271.267	50.18
271.483	-11.26
271.698	-17.41
271.914	7.17
272.13	66.56
272.346	37.89
272.562	21.5
272.777	68.61
272.993	39.94
273.209	-35.84
273.425	-19.46
273.64	-13.31
273.856	74.75
274.072	-7.17
274.287	-11.26
274.503	54.27
274.719	17.41
274.934	3.07
275.15	7.17
275.366	-15.36
275.581	17.41
275.797	9.22
276.012	27.65
276.228	41.98
276.444	74.75
276.659	33.79
276.875	13.31
277.09	19.46
277.306	-25.6
277.521	1.02
277.737	46.08
277.952	46.08
278.168	13.31
278.383	7.17
278.599	58.37
278.814	60.42
279.03	-5.12
279.245	97.28
279.461	-7.17
279.676	1.02
279.892	-23.55
280.107	1.02
280.322	-27.65
280.538	31.74
280.753	-21.5
280.969	-5.12
281.184	27.65
281.399	37.89
281.615	44.03
281.83	134.14
282.045	5.12
282.26	48.13
282.476	11.26
282.691	93.18
282.906	29.7
283.122	-17.41
283.337	17.41
283.552	33.79
283.767	33.79
283.983	-52.22
284.198	-9.22
284.413	37.89
284.628	-27.65
284.843	-19.46
285.058	41.98
285.274	78.85
285.489	25.6
285.704	-19.46
285.919	7.17
286.134	11.26
286.349	-5.12
286.564	-27.65
286.779	54.27
286.995	52.22
287.21	-1.02
287.425	11.26
287.64	33.79
287.855	-1.02
288.07	-7.17
288.285	3.07
288.5	29.7
288.715	15.36
288.93	-15.36
289.145	-52.22
289.36	-19.46
289.575	21.5
289.79	5.12
290.004	66.56
290.219	52.22
290.434	3.07
290.649	-23.55
290.864	39.94
291.079	-15.36
291.294	-33.79
291.509	15.36
291.724	27.65
291.938	-1.02
292.153	-50.18
292.368	19.46
292.583	13.31
292.798	-21.5
293.012	56.32
293.227	84.99
293.442	5.12
293.657	17.41
293.871	37.89
294.086	-89.09
294.301	46.08
294.516	-31.74
294.73	-1.02
294.945	19.46
295.16	-44.03
295.374	35.84
295.589	95.23
295.804	33.79
296.018	25.6
296.233	15.36
296.447	-21.5
296.662	3.07
296.877	19.46
297.091	46.08
297.306	-9.22
297.52	5.12
297.735	-35.84
297.949	7.17
298.164	9.22
298.378	35.84
298.593	29.7
298.807	27.65
299.022	58.37
299.236	31.74
299.451	64.51
299.665	15.36
299.88	5.12
300.094	37.89
300.309	-1.02
300.523	11.26
300.737	37.89
300.952	-7.17
301.166	64.51
301.381	21.5
301.595	7.17
301.809	15.36
302.024	39.94
302.238	56.32
302.452	-70.65
302.667	23.55
302.881	46.08
303.095	1.02
303.309	76.8
303.524	-17.41
303.738	-5.12
303.952	21.5
304.166	72.7
304.381	7.17
304.595	-9.22
304.809	21.5
305.023	78.85
305.237	-1.02
305.452	-39.94
305.666	-35.84
305.88	99.33
306.094	89.09
306.308	48.13
306.522	17.41
306.736	3.07
306.95	41.98
307.164	29.7
307.379	-39.94
307.593	56.32
307.807	52.22
308.021	31.74
308.235	78.85
308.449	-82.94
308.663	-39.94
308.877	35.84
309.091	-15.36
309.305	33.79
309.519	25.6
309.733	50.18
309.947	23.55
310.161	23.55
310.374	-13.31
310.588	17.41
310.802	17.41
311.016	60.42
311.23	-7.17
311.444	66.56
311.658	39.94
311.872	7.17
312.085	25.6
312.299	46.08
312.513	-17.41
312.727	-15.36
312.941	-15.36
313.154	-29.7
313.368	23.55
313.582	35.84
313.796	-3.07
314.009	15.36
314.223	9.22
314.437	17.41
314.651	56.32
314.864	19.46
315.078	-5.12
315.292	17.41
315.505	27.65
315.719	72.7
315.933	37.89
316.146	19.46
316.36	41.98
316.573	-15.36
316.787	-1.02
317.001	-37.89
317.214	-56.32
317.428	54.27
317.641	-21.5
317.855	35.84
318.068	33.79
318.282	39.94
318.495	25.6
318.709	52.22
318.922	50.18
319.136	5.12
319.349	66.56
319.563	11.26
319.776	-9.22
319.99	111.61
320.203	21.5
320.417	56.32
320.63	21.5
320.843	54.27
321.057	37.89
321.27	-21.5
321.483	11.26
321.697	113.66
321.91	-25.6
322.124	78.85
322.337	52.22
322.55	27.65
322.763	-48.13
322.977	74.75
323.19	-46.08
323.403	-44.03
323.617	13.31
323.83	29.7
324.043	58.37
324.256	27.65
324.469	-3.07
324.683	58.37
324.896	29.7
325.109	-29.7
325.322	-7.17
325.535	54.27
325.748	-15.36
325.962	23.55
326.175	48.13
326.388	48.13
326.601	19.46
326.814	1.02
327.027	13.31
327.24	-48.13
327.453	-7.17
327.666	46.08
327.879	-66.56
328.092	56.32
328.305	5.12
328.518	13.31
328.731	29.7
328.944	19.46
329.157	25.6
329.37	-19.46
329.583	5.12
329.796	109.57
330.009	-5.12
330.222	29.7
330.435	3.07
330.648	-27.65
330.861	44.03
331.073	5.12
331.286	-11.26
331.499	29.7
331.712	50.18
331.925	44.03
332.138	74.75
332.35	-3.07
332.563	-5.12
332.776	-15.36
332.989	41.98
333.202	-3.07
333.414	50.18
333.627	27.65
333.84	7.17
334.053	21.5
334.265	-62.46
334.478	19.46
334.691	1.02
334.903	23.55
335.116	46.08
335.329	21.5
335.541	50.18
335.754	54.27
335.966	9.22
336.179	-1.02
336.392	74.75
336.604	80.89
336.817	105.47
337.029	66.56
337.242	-13.31
337.454	25.6
337.667	13.31
337.88	17.41
338.092	-17.41
338.305	91.13
338.517	-15.36
338.729	-11.26
338.942	60.42
339.154	-5.12
339.367	-27.65
339.579	66.56
339.792	-50.18
340.004	3.07
340.217	-9.22
340.429	7.17
340.641	-19.46
340.854	3.07
341.066	-9.22
341.278	56.32
341.491	-3.07
341.703	15.36
341.915	31.74
342.128	11.26
342.34	3.07
342.552	11.26
342.764	5.12
342.977	89.09
343.189	25.6
343.401	35.84
343.613	-56.32
343.826	97.28
344.038	54.27
344.25	31.74
344.462	-17.41
344.674	66.56
344.886	29.7
345.099	17.41
345.311	17.41
345.523	11.26
345.735	68.61
345.947	50.18
346.159	29.7
346.371	-21.5
346.583	-27.65
346.795	-1.02
347.007	-15.36
347.219	-17.41
347.431	29.7
347.643	99.33
347.855	140.29
348.067	87.04
348.279	-11.26
348.491	17.41
348.703	80.89
348.915	27.65
349.127	-68.61
349.339	121.85
349.551	31.74
349.763	52.22
349.975	-48.13
350.187	29.7
350.399	7.17
350.61	78.85
350.822	7.17
351.034	82.94
351.246	95.23
351.458	21.5
351.669	54.27
351.881	60.42
352.093	76.8
352.305	60.42
352.517	25.6
352.728	5.12
352.94	19.46
353.152	7.17
353.363	-39.94
353.575	5.12
353.787	50.18
353.999	29.7
354.21	72.7
354.422	-3.07
354.633	25.6
354.845	37.89
355.057	-1.02
355.268	19.46
355.48	1.02
355.692	-9.22
355.903	5.12
356.115	5.12
356.326	19.46
356.538	76.8
356.749	35.84
356.961	37.89
357.172	11.26
357.384	46.08
357.595	68.61
357.807	13.31
358.018	15.36
358.23	50.18
358.441	33.79
358.653	-5.12
358.864	25.6
359.075	76.8
359.287	-27.65
359.498	66.56
359.709	25.6
359.921	68.61
360.132	41.98
360.344	130.05
360.555	41.98
360.766	44.03
360.977	-19.46
361.189	97.28
361.4	9.22
361.611	3.07
361.823	48.13
362.034	27.65
362.245	46.08
362.456	64.51
362.667	3.07
362.879	72.7
363.09	1.02
363.301	82.94
363.512	-7.17
363.723	52.22
363.935	7.17
364.146	-21.5
364.357	52.22
364.568	44.03
364.779	89.09
364.99	21.5
365.201	-33.79
365.412	25.6
365.623	1.02
365.834	46.08
366.045	-17.41
366.256	76.8
366.467	66.56
366.678	50.18
366.889	-15.36
367.1	29.7
367.311	52.22
367.522	37.89
367.733	70.65
367.944	91.13
368.155	-1.02
368.366	80.89
368.577	23.55
368.788	31.74
368.999	21.5
369.209	62.46
369.42	82.94
369.631	44.03
369.842	87.04
370.053	-27.65
370.264	15.36
370.474	46.08
370.685	78.85
370.896	17.41
371.107	-13.31
371.317	50.18
371.528	74.75
371.739	66.56
371.95	5.12
372.16	66.56
372.371	7.17
372.582	39.94
372.792	62.46
373.003	113.66
373.214	5.12
373.424	134.14
373.635	70.65
373.846	105.47
374.056	23.55
374.267	31.74
374.477	54.27
374.688	-15.36
374.898	128
375.109	68.61
375.319	15.36
375.53	72.7
375.74	-1.02
375.951	15.36
376.161	44.03
376.372	56.32
376.582	25.6
376.793	35.84
377.003	-1.02
377.214	15.36
377.424	-39.94
377.635	33.79
377.845	78.85
378.055	1.02
378.266	54.27
378.476	48.13
378.686	103.42
378.897	19.46
379.107	-1.02
379.317	27.65
379.528	15.36
379.738	-1.02
379.948	-31.74
380.158	35.84
380.369	-25.6
380.579	25.6
380.789	37.89
380.999	50.18
381.21	76.8
381.42	64.51
381.63	62.46
381.84	41.98
382.05	84.99
382.261	78.85
382.471	29.7
382.681	62.46
382.891	39.94
383.101	62.46
383.311	70.65
383.521	99.33
383.731	72.7
383.941	21.5
384.151	64.51
384.361	29.7
384.571	35.84
384.781	68.61
384.991	82.94
385.201	181.25
385.411	25.6
385.621	97.28
385.831	54.27
386.041	52.22
386.251	68.61
386.461	109.57
386.671	17.41
386.881	80.89
387.091	29.7
387.301	27.65
387.511	13.31
387.72	74.75
387.93	60.42
388.14	58.37
388.35	58.37
388.56	60.42
388.769	37.89
388.979	33.79
389.189	-7.17
389.399	11.26
389.609	39.94
389.818	54.27
390.028	29.7
390.238	-15.36
390.447	41.98
390.657	74.75
390.867	19.46
391.076	46.08
391.286	60.42
391.496	15.36
391.705	9.22
391.915	80.89
392.125	66.56
392.334	64.51
392.544	60.42
392.753	52.22
392.963	3.07
393.172	46.08
393.382	-11.26
393.591	76.8
393.801	70.65
394.01	74.75
394.22	41.98
394.429	70.65
394.639	21.5
394.848	58.37
395.058	37.89
395.267	-31.74
395.477	150.53
395.686	97.28
395.895	101.37
396.105	99.33
396.314	64.51
396.524	119.81
396.733	-13.31
396.942	50.18
397.152	99.33
397.361	44.03
397.57	128
397.78	39.94
397.989	54.27
398.198	93.18
398.407	152.57
398.617	111.61
398.826	95.23
399.035	31.74
399.244	82.94
399.453	119.81
399.663	97.28
399.872	58.37
400.081	74.75
400.29	119.81
400.499	58.37
400.708	160.77
400.917	80.89
401.127	128
401.336	74.75
401.545	164.86
401.754	87.04
401.963	164.86
402.172	103.42
402.381	128
402.59	101.37
402.799	64.51
403.008	44.03
403.217	142.33
403.426	130.05
403.635	119.81
403.844	144.38
404.053	128
404.262	35.84
404.471	185.34
404.68	117.76
404.888	52.22
405.097	152.57
405.306	74.75
405.515	168.96
405.724	132.09
405.933	168.96
406.142	160.77
406.35	181.25
406.559	107.52
406.768	109.57
406.977	203.77
407.185	160.77
407.394	189.44
407.603	111.61
407.812	158.72
408.02	248.83
408.229	193.53
408.438	150.53
408.646	164.86
408.855	230.4
409.064	287.74
409.272	248.83
409.481	275.45
409.69	189.44
409.898	224.25
410.107	291.84
410.315	285.69
410.524	281.6
410.733	263.16
410.941	312.32
411.15	340.99
411.358	277.5
411.567	336.89
411.775	357.37
411.984	345.08
412.192	377.85
412.401	383.99
412.609	361.47
412.818	455.67
413.026	498.68
413.234	383.99
413.443	414.71
413.651	443.39
413.86	480.25
414.068	568.31
414.276	519.16
414.485	500.73
414.693	623.61
414.901	623.61
415.11	596.98
415.318	613.37
415.526	652.28
415.734	672.76
415.943	748.53
416.151	766.96
416.359	719.86
416.567	783.35
416.776	650.23
416.984	805.88
417.192	865.27
417.4	857.07
417.608	881.65
417.817	881.65
418.025	912.37
418.233	984.05
418.441	990.19
418.649	1053.68
418.857	1055.73
419.065	1160.17
419.273	1221.61
419.481	1217.52
419.689	1254.38
419.897	1309.68
420.105	1377.26
420.313	1367.02
420.521	1498.09
420.729	1440.75
420.937	1643.49
421.145	1553.38
421.353	1567.72
421.561	1651.69
421.769	1831.91
421.977	1836
422.185	1764.33
422.393	1868.77
422.601	2051.04
422.809	1928.16
423.017	1956.83
423.224	2120.67
423.432	2151.39
423.64	2147.3
423.848	2485.21
424.056	2366.43
424.263	2655.19
424.471	2589.66
424.679	2606.04
424.887	2755.54
425.094	2743.25
425.302	2802.65
425.51	3001.3
425.718	3032.02
425.925	3081.17
426.133	3204.05
426.341	3171.28
426.548	3337.17
426.756	3523.53
426.964	3550.15
427.171	3777.48
427.379	3797.96
427.586	3886.02
427.794	3941.32
428.001	4174.78
428.209	4248.51
428.417	4154.3
428.624	4580.28
428.832	4578.23
429.039	4735.93
429.247	4570.04
429.454	5079.99
429.662	5350.32
429.869	5106.61
430.076	5284.78
430.284	5223.34
430.491	5401.52
430.699	5764.01
430.906	5854.12
431.114	5692.33
431.321	6024.1
431.528	6075.3
431.736	6511.52
431.943	6890.39
432.15	6669.21
432.358	6853.53
432.565	7203.73
432.772	6939.54
432.979	7562.12
433.187	7537.55
433.394	7521.17
433.601	8156.04
433.808	8151.94
434.016	8217.47
434.223	8383.36
434.43	8876.92
434.637	8532.86
434.844	9423.73
435.052	9507.69
435.259	9319.28
435.466	9397.1
435.673	9319.28
435.88	10074.98
436.087	10404.71
436.294	10525.54
436.501	10290.02
436.708	10695.52
436.915	10775.39
437.122	11350.87
437.329	11176.79
437.537	11703.12
437.743	11836.24
437.95	11735.88
438.157	12417.86
438.364	12747.58
438.571	12727.1
438.778	12884.8
438.985	14218.02
439.192	13437.75
439.399	13974.31
439.606	13787.95
439.813	14398.24
440.02	15110.94
440.227	15037.21
440.433	15203.1
440.64	15489.81
440.847	15422.23
441.054	15629.07
441.261	16530.18
441.467	16442.12
441.674	16880.38
441.881	17443.57
442.088	17646.32
442.294	17152.76
442.501	17572.6
442.708	18105.07
442.914	18744.03
443.121	19612.37
443.328	19012.32
443.534	20167.37
443.741	19700.44
443.948	19442.39
444.154	21002.94
444.361	20822.72
444.568	21048
444.774	20953.79
444.981	21156.54
445.187	21899.95
445.394	22528.68
445.6	22647.46
445.807	24445.58
446.013	23677.59
446.22	23896.72
446.426	24957.57
446.633	25057.92
446.839	26018.42
447.046	25004.67
447.252	26298.99
447.459	26298.99
447.665	26352.24
447.871	27325.02
448.078	28465.74
448.284	26903.14
448.491	27843.16
448.697	29112.9
448.903	29237.83
449.11	29471.29
449.316	28828.23
449.522	29579.84
449.728	30327.35
449.935	30435.89
450.141	30589.49
450.347	31296.03
450.553	30290.48
450.76	30392.88
450.966	31687.2
451.172	31169.06
451.378	32064.02
451.584	31408.67
451.791	32178.71
451.997	32057.88
452.203	32602.64
452.409	32502.29
452.615	32465.42
452.821	31171.11
453.027	30640.68
453.233	32483.86
453.44	30972.46
453.646	31490.59
453.852	31498.78
454.058	32008.73
454.264	31007.27
454.47	31779.36
454.676	31005.22
454.882	32293.4
455.088	28928.58
455.294	29665.85
455.5	29518.4
455.705	30282.29
455.911	29166.15
456.117	28559.95
456.323	28287.57
456.529	26829.41
456.735	27920.98
456.941	26970.72
457.147	26675.82
457.352	25913.97
457.558	25547.39
457.764	25643.64
457.97	25258.62
458.176	24427.15
458.381	24507.02
458.587	23599.77
458.793	23579.29
458.999	22135.47
459.204	23579.29
459.41	22905.51
459.616	21355.19
459.821	21646.01
460.027	21607.09
460.233	20994.75
460.438	20071.12
460.644	20417.22
460.85	19131.1
461.055	19243.74
461.261	19002.08
461.466	17703.67
461.672	16927.49
461.878	18477.8
462.083	17079.04
462.289	17029.88
462.494	16478.98
462.7	16093.96
462.905	15510.29
463.111	16327.43
463.316	16081.67
463.522	15665.94
463.727	16007.95
463.932	15758.1
464.138	15651.6
464.343	15483.67
464.549	15131.42
464.754	15803.15
464.959	15315.73
465.165	15416.08
465.37	14932.76
465.575	14551.84
465.781	15014.68
465.986	14779.17
466.191	14388
466.397	14295.85
466.602	13751.09
466.807	14101.29
467.012	14213.93
467.218	14095.14
467.423	13804.33
467.628	14039.85
467.833	14476.07
468.038	13900.59
468.244	13675.31
468.449	13945.64
468.654	13792.05
468.859	13611.82
469.064	13652.78
469.269	13075.26
469.474	13228.85
469.679	13308.72
469.885	12884.8
470.09	13183.8
470.295	13081.4
470.5	12675.9
470.705	12677.95
470.91	12501.83
471.115	12376.9
471.32	12548.93
471.525	12403.52
471.73	12147.53
471.935	12018.5
472.139	11668.3
472.344	11699.02
472.549	11684.69
472.754	11811.66
472.959	11156.31
473.164	11250.52
473.369	10877.79
473.574	11336.53
473.778	11236.18
473.983	11170.65
474.188	11330.39
474.393	10546.02
474.598	10586.97
474.802	10584.93
475.007	10460
475.212	10562.4
475.417	10038.12
475.621	10392.42
475.826	10339.17
476.031	9929.58
476.235	9718.64
476.44	9988.97
476.645	9792.36
476.849	9679.72
477.054	9587.57
477.259	9388.91
477.463	9569.13
477.668	9339.76
477.872	9413.49
478.077	9167.73
478.282	8977.27
478.486	8928.12
478.691	8856.44
478.895	8983.41
479.1	8948.6
479.304	8835.96
479.509	8475.52
479.713	8940.41
479.918	8539.01
480.122	8381.31
480.326	8614.78
480.531	8598.4
480.735	8512.38
480.94	8309.63
481.144	8633.21
481.348	8291.2
481.553	8293.25
481.757	8209.28
481.961	8326.02
482.166	8455.04
482.37	8346.5
482.574	8219.52
482.778	8221.57
482.983	8557.44
483.187	8260.48
483.391	8113.03
483.595	8264.58
483.8	8090.5
484.004	8274.82
484.208	8436.61
484.412	8225.67
484.616	8252.29
484.821	8338.3
485.025	8065.92
485.229	8321.92
485.433	8147.84
485.637	8393.6
485.841	8274.82
486.045	8106.88
486.249	8106.88
486.453	8110.98
486.657	8205.19
486.861	8160.13
487.065	8115.08
487.269	8096.64
487.473	8076.16
487.677	8295.3
487.881	8481.66
488.085	8194.95
488.289	8272.77
488.493	8299.39
488.697	8209.28
488.901	8336.26
489.105	8221.57
489.309	8285.06
489.512	8256.39
489.716	8194.95
489.92	8268.67
490.124	8360.83
490.328	8311.68
490.531	8440.7
490.735	8500.09
490.939	8358.78
491.143	8426.37
491.346	8323.97
491.55	8620.92
491.754	8598.4
491.958	8622.97
492.161	8489.85
492.365	8502.14
492.569	8715.13
492.772	8649.6
492.976	8819.58
493.18	8772.47
493.383	8766.33
493.587	8885.11
493.79	9212.79
493.994	8977.27
494.197	8852.34
494.401	9059.19
494.605	8870.78
494.808	9421.68
495.012	9311.09
495.215	9223.03
495.419	9399.15
495.622	9390.96
495.825	9481.07
496.029	9542.51
496.232	9837.42
496.436	9616.24
496.639	10029.93
496.843	9753.45
497.046	9986.92
497.249	10398.56
497.453	10376.03
497.656	10224.48
497.859	10222.44
498.063	10609.5
498.266	10769.24
498.469	10648.41
498.673	10795.87
498.876	10965.85
499.079	11012.95
499.282	11043.67
499.485	11555.66
499.689	11402.07
499.892	11500.37
500.095	11531.09
500.298	11928.39
500.501	11875.15
500.705	11993.93
500.908	12297.03
501.111	12442.43
501.314	12464.96
501.517	12335.94
501.72	12622.66
501.923	12473.15
502.126	12880.7
502.329	13060.92
502.532	13280.05
502.735	13278.01
502.938	13615.92
503.141	13574.96
503.344	14023.47
503.547	14033.71
503.75	14037.8
503.953	14433.06
504.156	14314.28
504.359	14719.78
504.562	14639.9
504.765	14795.55
504.968	14883.61
505.17	15299.35
505.373	15289.11
505.576	15414.04
505.779	15868.69
505.982	15985.42
506.185	16067.34
506.387	16364.29
506.59	16292.62
506.793	16608
506.996	16450.31
507.198	17003.26
507.401	16909.05
507.604	17068.8
507.807	17447.67
508.009	17609.46
508.212	17795.82
508.415	18160.36
508.617	18160.36
508.82	18473.7
509.022	18393.83
509.225	18752.23
509.428	18844.38
509.63	19084
509.833	19231.45
510.035	19421.91
510.238	19577.56
510.44	19587.8
510.643	20017.87
510.845	20316.87
511.048	20048.59
511.25	20318.92
511.453	20767.43
511.655	21381.82
511.858	21070.53
512.06	21267.13
512.262	21486.26
512.465	21650.1
512.667	21885.62
512.87	22045.36
513.072	22192.81
513.274	22655.65
513.477	22829.73
513.679	22991.52
513.881	23425.69
514.084	23970.45
514.286	23401.11
514.488	23835.28
514.69	24461.96
514.893	24449.67
515.095	24605.32
515.297	25004.67
515.499	25021.06
515.701	25277.05
515.904	25182.85
516.106	25713.27
516.308	26088.05
516.51	26546.79
516.712	26188.4
516.914	26442.35
517.116	27298.4
517.318	27023.97
517.52	27417.18
517.722	27689.56
517.925	27656.79
518.127	28252.75
518.329	28537.42
518.531	28435.02
518.733	29108.8
518.935	29461.05
519.136	29516.35
519.338	29631.04
519.54	29567.55
519.742	30229.04
519.944	30300.72
520.146	30462.51
520.348	30822.95
520.55	30849.58
520.752	30849.58
520.954	31531.55
521.155	31277.6
521.357	32250.39
521.559	32031.26
521.761	32623.12
521.963	32549.39
522.164	32807.44
522.366	33034.76
522.568	33339.91
522.77	33475.07
522.971	34300.4
523.173	33915.39
523.375	34310.64
523.576	34251.25
523.778	34609.65
523.98	34753.01
524.181	34861.55
524.383	35256.81
524.584	35553.76
524.786	35504.61
524.988	35142.12
525.189	36026.84
525.391	36311.51
525.592	36002.27
525.794	36258.26
525.995	36331.99
526.197	36329.94
526.398	37114.31
526.6	37419.46
526.801	37304.77
527.003	37747.14
527.204	37419.46
527.406	38091.19
527.607	37583.3
527.808	38183.35
528.01	37525.96
528.211	37953.98
528.412	38885.81
528.614	38478.26
528.815	38353.33
529.016	38762.93
529.218	38228.41
529.419	38787.5
529.62	38853.04
529.822	38975.92
530.023	39238.06
530.224	39117.23
530.425	39178.67
530.626	38848.94
530.828	39164.33
531.029	39872.93
531.23	39154.09
531.431	39285.16
531.632	39780.77
531.833	39666.08
532.035	39442.85
532.236	39897.5
532.437	40249.75
532.638	39551.4
532.839	39868.83
533.04	40249.75
533.241	39365.03
533.442	40681.88
533.643	40034.72
533.844	40384.92
534.045	40339.86
534.246	39948.7
534.447	40268.19
534.648	39907.74
534.849	40337.82
535.05	39860.64
535.251	40317.34
535.451	40022.43
535.652	40176.03
535.853	40524.18
536.054	40360.34
536.255	40423.83
536.456	39913.89
536.657	40769.94
536.857	39799.2
537.058	40067.48
537.259	40737.17
537.46	40833.42
537.66	40255.9
537.861	40663.44
538.062	40360.34
538.263	40548.76
538.463	40524.18
538.664	40112.54
538.865	40380.82
539.065	40823.19
539.266	40223.13
539.466	40765.84
539.667	40120.73
539.868	40954.26
540.068	40440.21
540.269	40532.37
540.469	40493.46
540.67	39936.41
540.87	40436.12
541.071	40266.14
541.271	40757.65
541.472	40219.03
541.672	40333.72
541.873	40325.53
542.073	39958.94
542.274	40610.2
542.474	40444.31
542.675	39815.58
542.875	40614.29
543.075	40208.79
543.276	39991.71
543.476	40507.8
543.676	39893.41
543.877	40442.26
544.077	40501.65
544.277	40520.09
544.478	40241.56
544.678	40147.36
544.878	40298.91
545.078	40341.91
545.279	40100.25
545.479	40075.68
545.679	40395.16
545.879	40143.26
546.079	40216.99
546.28	40186.27
546.48	40231.32
546.68	40143.26
546.88	40153.5
547.08	40141.21
547.28	39864.74
547.48	39573.92
547.68	40407.45
547.88	40192.41
548.081	40509.85
548.281	40139.16
548.481	40059.29
548.681	40313.24
548.881	40200.6
549.081	40219.03
549.28	39854.5
549.48	39913.89
549.68	40182.17
549.88	40761.75
550.08	39827.87
550.28	40384.92
550.48	39774.63
550.68	40098.2
550.88	39704.99
551.08	39989.66
551.279	40126.88
551.479	39336.36
551.679	39561.64
551.879	40038.81
552.079	39946.65
552.278	39651.75
552.478	39850.4
552.678	39856.54
552.878	40249.75
553.077	39741.86
553.277	39420.33
553.477	40188.31
553.676	39489.96
553.876	39651.75
554.076	39393.7
554.275	39625.12
554.475	39051.69
554.674	39643.56
554.874	39504.29
555.074	39401.89
555.273	39074.22
555.473	39436.71
555.672	39465.38
555.872	39473.57
556.071	39483.81
556.271	39565.73
556.47	39053.74
556.67	38654.39
556.869	38703.54
557.068	39106.99
557.268	38674.87
557.467	38984.11
557.667	38715.83
557.866	39238.06
558.065	38988.21
558.265	38830.51
558.464	38748.59
558.663	38597.04
558.863	38300.09
559.062	38758.83
559.261	38666.67
559.461	38758.83
559.66	37935.55
559.859	38347.19
560.058	38060.48
560.258	38173.11
560.457	37829.05
560.656	38478.26
560.855	38185.4
561.054	38549.94
561.253	38042.04
561.453	38093.24
561.652	38011.32
561.851	37855.68
562.05	37857.73
562.249	37732.8
562.448	37796.29
562.647	37689.79
562.846	37575.11
563.045	37650.88
563.244	37173.7
563.443	37597.63
563.642	37151.18
563.841	37525.96
564.04	37124.55
564.239	37616.07
564.438	36909.52
564.637	36942.28
564.836	37276.1
565.035	36297.17
565.234	36979.15
565.432	36755.92
565.631	36575.7
565.83	36979.15
566.029	36563.41
566.228	36420.05
566.427	36215.26
566.625	35949.02
566.824	36018.65
567.023	36346.33
567.222	35291.62
567.42	36399.57
567.619	36088.28
567.818	35690.98
568.016	35500.51
568.215	35996.12
568.414	35281.38
568.612	35666.4
568.811	35416.55
569.01	35600.86
569.208	34873.84
569.407	35449.32
569.605	34793.97
569.804	35119.59
570.002	34787.82
570.201	34804.2
570.4	34138.62
570.598	34341.36
570.797	34111.99
570.995	34128.38
571.193	34202.1
571.392	34318.84
571.59	34038.26
571.789	34406.9
571.987	33800.7
572.186	33634.81
572.384	33581.57
572.582	33712.64
572.781	33868.28
572.979	33155.59
573.177	33399.3
573.376	33587.71
573.574	33118.73
573.772	33460.74
573.971	32934.41
574.169	33194.5
574.367	32778.76
574.565	32748.04
574.763	32639.5
574.962	33022.47
575.16	32453.14
575.358	32649.74
575.556	32168.47
575.754	32659.98
575.952	32055.83
576.151	32576.01
576.349	31605.28
576.547	32199.19
576.745	31650.33
576.943	31848.99
577.141	32139.8
577.339	32211.48
577.537	31664.67
577.735	31521.31
577.933	31351.33
578.131	31451.68
578.329	31103.53
578.527	31195.68
578.725	30970.41
578.923	31287.84
579.121	31285.79
579.319	31115.81
579.516	30951.98
579.714	30841.39
579.912	30612.01
580.11	30661.16
580.308	30415.41
580.506	30626.35
580.704	30280.24
580.901	30579.25
581.099	30390.83
581.297	30173.75
581.495	29782.59
581.692	30241.33
581.89	29813.31
582.088	29903.42
582.285	29770.3
582.483	29958.71
582.681	29766.2
582.878	29649.47
583.076	29397.57
583.274	29588.03
583.471	29071.94
583.669	29442.62
583.866	29125.19
584.064	29692.47
584.262	28709.45
584.459	28967.49
584.657	28969.54
584.854	29284.93
585.052	28447.31
585.249	28781.13
585.447	28496.46
585.644	28262.99
585.841	28523.08
586.039	28627.53
586.236	28007
586.434	28146.26
586.631	28138.07
586.828	28215.89
587.026	28174.93
587.223	28021.33
587.42	27820.63
587.618	27937.37
587.815	27673.18
588.012	27503.2
588.21	27400.8
588.407	27581.02
588.604	27060.84
588.801	27224.67
588.999	27247.2
589.196	27269.73
589.393	26892.9
589.59	26876.52
589.787	27093.6
589.984	26886.76
590.182	26937.96
590.379	26616.43
590.576	26597.99
590.773	26845.8
590.97	26274.42
591.167	26245.74
591.364	26319.47
591.561	26665.58
591.758	26264.18
591.955	25983.6
592.152	26378.86
592.349	25928.31
592.546	25922.16
592.743	26063.47
592.94	25631.35
593.137	25557.63
593.334	25797.24
593.531	25471.61
593.727	25698.94
593.924	25561.72
594.121	25449.08
594.318	25313.92
594.515	25303.68
594.712	25432.7
594.908	24771.21
595.105	25137.79
595.302	24816.26
595.499	24971.91
595.696	24799.88
595.892	24486.54
596.089	24883.84
596.286	24754.82
596.482	24351.37
596.679	24369.8
596.876	24259.21
597.072	24248.97
597.269	24212.11
597.466	24296.08
597.662	24081.04
597.859	24255.12
598.055	24117.9
598.252	23888.53
598.448	23960.21
598.645	23564.95
598.841	23958.16
599.038	23698.07
599.234	23632.54
599.431	23435.93
599.627	23206.56
599.824	23628.44
600.02	23243.42
600.217	23376.54
600.413	23163.55
600.609	23177.89
600.806	22921.89
601.002	23116.45
601.198	22983.33
601.395	22715.05
601.591	22637.22
601.787	22901.41
601.984	22450.86
602.18	22700.71
602.376	22407.85
602.572	22457
602.769	22233.77
602.965	22110.89
603.161	22502.06
603.357	22282.92
603.553	22258.35
603.75	22301.36
603.946	22031.02
604.142	22141.61
604.338	21725.88
604.534	22026.93
604.73	21697.2
604.926	21506.74
605.122	21469.88
605.318	21365.43
605.514	21426.87
605.71	21414.59
605.906	21359.29
606.102	21185.21
606.298	21273.28
606.494	21183.16
606.69	21158.59
606.886	21023.42
607.082	20914.88
607.278	21394.11
607.474	20617.93
607.67	21156.54
607.866	20654.79
608.062	21111.49
608.257	20562.63
608.453	20603.59
608.649	21013.18
608.845	20474.57
609.041	20552.39
609.236	20720.32
609.432	20273.87
609.628	20452.04
609.824	20472.52
610.019	20345.55
610.215	20409.03
610.411	20179.66
610.606	20361.93
610.802	20288.2
610.998	20183.76
611.193	20310.73
611.389	20255.43
611.584	19985.1
611.78	19888.85
611.976	20028.11
612.171	19991.25
612.367	20034.25
612.562	19847.89
612.758	19675.86
612.953	19606.23
613.149	19608.28
613.344	19530.45
613.539	19909.33
613.735	19571.41
613.93	19608.28
614.126	19360.47
614.321	19561.17
614.517	19546.84
614.712	19411.67
614.907	19526.36
615.103	19477.21
615.298	19436.25
615.493	19645.14
615.688	18942.69
615.884	19669.72
616.079	19337.94
616.274	19055.33
616.47	19210.97
616.665	19208.92
616.86	19241.69
617.055	19073.76
617.25	18946.78
617.445	18905.82
617.641	18481.89
617.836	18957.02
618.031	18852.58
618.226	18784.99
618.421	18678.5
618.616	18608.87
618.811	18574.05
619.006	18707.17
619.201	18209.51
619.396	18404.07
619.591	18008.81
619.786	18307.82
619.981	18072.3
620.176	18051.82
620.371	18119.4
620.566	18031.34
620.761	17617.65
620.956	17730.29
621.151	17851.12
621.346	17957.61
621.541	17607.41
621.735	17580.79
621.93	17445.62
622.125	17117.95
622.32	16888.57
622.515	17279.74
622.709	17036.03
622.904	17234.68
623.099	16909.05
623.294	17031.93
623.488	16640.77
623.683	17029.88
623.878	16450.31
624.072	16331.53
624.267	16511.75
624.462	16282.38
624.656	16319.24
624.851	16450.31
625.046	15938.32
625.24	15915.79
625.435	15803.15
625.629	15823.63
625.824	15633.17
626.018	15940.36
626.213	15258.39
626.407	15624.98
626.602	15250.2
626.796	15418.13
626.991	15373.08
627.185	15295.25
627.38	15057.69
627.574	14797.6
627.768	14785.31
627.963	14895.9
628.157	14777.12
628.352	14768.93
628.546	14582.56
628.74	14502.69
628.935	14359.33
629.129	14521.12
629.323	14183.21
629.517	14166.82
629.712	14187.3
629.906	14250.79
630.1	13728.56
630.294	14058.28
630.489	13730.61
630.683	13808.43
630.877	13679.41
631.071	13665.07
631.265	13579.06
631.459	13603.63
631.653	13329.2
631.848	13386.55
632.042	13177.65
632.236	13452.08
632.43	13134.65
632.624	13165.37
632.818	13116.22
633.012	12849.98
633.206	13028.15
633.4	12858.17
633.594	12739.39
633.788	12909.37
633.982	12731.2
634.176	12653.37
634.369	12641.09
634.563	12450.63
634.757	12469.06
634.951	12415.81
635.145	12321.6
635.339	12383.04
635.533	12041.03
635.726	12112.71
635.92	11963.21
636.114	11903.82
636.308	11817.8
636.501	11899.72
636.695	11912.01
636.889	11694.93
637.083	11754.32
637.276	11705.17
637.47	11664.21
637.664	11318.1
637.857	11543.38
638.051	11457.36
638.244	11277.14
638.438	11066.2
638.632	11246.42
638.825	11215.7
639.019	11008.86
639.212	11039.58
639.406	10984.28
639.599	10804.06
639.793	11019.1
639.986	10828.63
640.18	10836.83
640.373	10740.57
640.567	10736.48
640.76	10738.52
640.954	10384.23
641.147	10367.84
641.34	10333.03
641.534	10290.02
641.727	10269.54
641.92	10421.09
642.114	10201.96
642.307	10021.74
642.5	9968.49
642.694	10005.35
642.887	9915.24
643.08	10138.47
643.273	9915.24
643.467	9825.13
643.66	9747.31
643.853	9720.68
644.046	9284.47
644.239	9618.29
644.432	9677.68
644.626	9515.89
644.819	9708.4
645.012	9368.43
645.205	9532.27
645.398	9241.46
645.591	9227.12
645.784	9253.75
645.977	9317.23
646.17	9055.09
646.363	9059.19
646.556	8991.61
646.749	9034.61
646.942	9063.29
647.135	8883.06
647.328	8772.47
647.521	8766.33
647.714	8645.5
647.907	8723.32
648.099	8614.78
648.292	8590.2
648.485	8594.3
648.678	8385.41
648.871	8635.26
649.064	8465.28
649.256	8575.87
649.449	8364.93
649.642	8256.39
649.835	8225.67
650.027	8153.99
650.22	8055.69
650.413	8045.45
650.605	8049.54
650.798	8037.25
650.991	7924.62
651.183	7922.57
651.376	7897.99
651.568	8113.03
651.761	7904.14
651.954	7832.46
652.146	7648.14
652.339	7807.88
652.531	7740.3
652.724	7762.83
652.916	7390.1
653.109	7611.28
653.301	7682.95
653.494	7566.22
653.686	7400.34
653.879	7347.09
654.071	7283.6
654.263	7369.62
654.456	7113.62
654.648	7429.01
654.84	7308.18
655.033	7097.24
655.225	7226.26
655.417	7078.8
655.61	7111.57
655.802	7140.24
655.994	7033.75
656.186	7070.61
656.379	6890.39
656.571	6898.58
656.763	6806.42
656.955	6818.71
657.148	6806.42
657.34	6828.95
657.532	6716.31
657.724	6675.35
657.916	6661.02
658.108	6669.21
658.3	6550.43
658.492	6509.47
658.684	6415.26
658.876	6511.52
659.068	6388.64
659.26	6472.61
659.452	6388.64
659.644	6362.01
659.836	6249.38
660.028	6292.38
660.22	6208.42
660.412	6087.59
660.604	6202.27
660.796	6085.54
660.988	6073.25
661.18	6099.87
661.372	5909.41
661.563	6163.36
661.755	5837.73
661.947	5954.47
662.139	5950.37
662.331	6099.87
662.522	5880.74
662.714	5931.94
662.906	5753.77
663.097	5882.79
663.289	5757.86
663.481	5649.32
663.673	5567.4
663.864	5604.27
664.056	5628.84
664.247	5663.66
664.439	5663.66
664.631	5497.77
664.822	5475.24
665.014	5485.48
665.205	5493.68
665.397	5467.05
665.588	5387.18
665.78	5450.67
665.971	5411.76
666.163	5239.73
666.354	5307.31
666.546	5233.58
666.737	5137.33
666.929	5102.51
667.12	5090.23
667.311	5182.38
667.503	5122.99
667.694	5127.09
667.885	5127.09
668.077	5041.08
668.268	5034.93
668.459	4993.97
668.651	5026.74
668.842	5022.64
669.033	5014.45
669.224	5008.31
669.416	5014.45
669.607	4936.63
669.798	4850.61
669.989	4840.37
670.18	4842.42
670.371	4918.2
670.563	4778.94
670.754	4846.52
670.945	4852.66
671.136	4637.63
671.327	4688.82
671.518	4731.83
671.709	4672.44
671.9	4598.71
672.091	4711.35
672.282	4637.63
672.473	4443.07
672.664	4455.36
672.855	4533.18
673.046	4494.27
673.237	4428.73
673.428	4555.71
673.619	4400.06
673.809	4295.61
674	4400.06
674.191	4383.68
674.382	4273.09
674.573	4334.53
674.764	4352.96
674.954	4336.57
675.145	4416.44
675.336	4367.29
675.527	4383.68
675.717	4254.66
675.908	4178.88
676.099	4240.32
676.289	4252.61
676.48	4109.25
676.671	4209.6
676.861	4219.84
677.052	4074.43
677.243	4125.63
677.433	4078.53
677.624	4207.55
677.814	4207.55
678.005	4185.02
678.195	4066.24
678.386	4031.43
678.576	4043.71
678.767	4084.67
678.957	3961.8
679.148	4039.62
679.338	3883.97
679.529	3990.47
679.719	3990.47
679.909	3961.8
680.1	3867.59
680.29	3992.52
680.481	3886.02
680.671	3900.36
680.861	3918.79
681.052	3787.72
681.242	3935.17
681.432	3697.61
681.622	3910.6
681.813	3820.49
682.003	3959.75
682.193	3863.49
682.383	3744.71
682.573	3797.96
682.764	3761.09
682.954	3695.56
683.144	3779.53
683.334	3642.31
683.524	3779.53
683.714	3658.7
683.904	3666.89
684.094	3625.93
684.284	3673.03
684.474	3627.98
684.664	3648.46
684.854	3699.66
685.044	3591.11
685.234	3679.18
685.424	3546.06
685.614	3546.06
685.804	3406.8
685.994	3603.4
686.184	3447.76
686.374	3503.05
686.564	3550.15
686.753	3732.42
686.943	3533.77
687.133	3298.25
687.323	3382.22
687.513	3408.84
687.702	3474.38
687.892	3445.71
688.082	3410.89
688.272	3384.27
688.461	3290.06
688.651	3355.6
688.841	3355.6
689.03	3333.07
689.22	3392.46
689.41	3294.16
689.599	3382.22
689.789	3316.69
689.979	3275.73
690.168	3310.54
690.358	3292.11
690.547	3165.14
690.737	3245.01
690.926	3154.9
691.116	3304.4
691.305	3298.25
691.495	3161.04
691.684	3163.09
691.874	3085.26
692.063	3144.66
692.252	3230.67
692.442	3185.62
692.631	3011.54
692.82	3193.81
693.01	3064.79
693.199	3179.47
693.388	3019.73
693.578	2935.76
693.767	2989.01
693.956	2997.2
694.146	3007.44
694.335	3009.49
694.524	2898.9
694.713	2966.48
694.902	3038.16
695.092	2997.2
695.281	2896.85
695.47	3050.45
695.659	2921.43
695.848	2931.67
696.037	2933.72
696.226	2999.25
696.415	3058.64
696.604	2913.24
696.793	2911.19
696.982	2907.09
697.171	3003.35
697.36	2986.96
697.549	2931.67
697.738	2896.85
697.927	2868.18
698.116	2954.19
698.305	2866.13
698.494	2903
698.683	2876.37
698.872	2825.17
699.061	3001.3
699.25	2862.04
699.438	2954.19
699.627	2937.81
699.816	2966.48
700.005	2913.24
700.193	2931.67
700.382	2995.15
700.571	2966.48
700.76	2857.94
700.948	2792.41
701.137	2835.41
701.326	2995.15
701.514	2757.59
701.703	2872.28
701.892	2778.07
702.08	2833.36
702.269	2954.19
702.457	2751.45
702.646	2816.98
702.834	2874.32
703.023	2855.89
703.212	2894.8
703.4	2876.37
703.589	2694.1
703.777	2784.21
703.965	2634.71
704.154	2753.49
704.342	2804.69
704.531	2903
704.719	2675.67
704.907	2810.84
705.096	2773.97
705.284	2761.69
705.472	2898.9
705.661	2726.87
705.849	2845.65
706.037	2882.52
706.226	2825.17
706.414	2741.21
706.602	2835.41
706.79	2839.51
706.979	2757.59
707.167	2778.07
707.355	2747.35
707.543	2864.08
707.731	2751.45
707.919	2647
708.107	2798.55
708.296	2753.49
708.484	2735.06
708.672	2769.88
708.86	2825.17
709.048	2814.93
709.236	2761.69
709.424	2784.21
709.612	2825.17
709.8	2685.91
709.988	2765.78
710.176	2685.91
710.364	2708.44
710.551	2704.34
710.739	2798.55
710.927	2794.45
711.115	2792.41
711.303	2741.21
711.491	2647
711.679	2808.79
711.866	2687.96
712.054	2671.58
712.242	2651.1
712.43	2784.21
712.617	2702.29
712.805	2528.22
712.993	2642.9
713.181	2747.35
713.368	2726.87
713.556	2671.58
713.744	2655.19
713.931	2679.77
714.119	2819.03
714.306	2810.84
714.494	2587.61
714.682	2692.05
714.869	2599.9
715.057	2657.24
715.244	2603.99
715.432	2649.05
715.619	2690.01
715.807	2644.95
715.994	2577.37
716.182	2634.71
716.369	2612.18
716.556	2628.57
716.744	2763.73
716.931	2671.58
717.119	2679.77
717.306	2694.1
717.493	2524.12
717.681	2546.65
717.868	2679.77
718.055	2573.27
718.242	2579.42
718.43	2683.86
718.617	2585.56
718.804	2569.18
718.991	2640.86
719.179	2659.29
719.366	2614.23
719.553	2655.19
719.74	2563.03
719.927	2581.46
720.114	2638.81
720.301	2542.55
720.488	2501.59
720.676	2567.13
720.863	2524.12
721.05	2640.86
721.237	2503.64
721.424	2526.17
721.611	2571.22
721.798	2481.11
721.985	2614.23
722.172	2524.12
722.358	2563.03
722.545	2558.94
722.732	2560.98
722.919	2554.84
723.106	2575.32
723.293	2575.32
723.48	2497.5
723.667	2554.84
723.853	2403.29
724.04	2509.79
724.227	2603.99
724.414	2456.54
724.6	2581.46
724.787	2481.11
724.974	2384.86
725.161	2431.96
725.347	2485.21
725.534	2466.78
725.72	2577.37
725.907	2513.88
726.094	2538.46
726.28	2507.74
726.467	2515.93
726.653	2462.68
726.84	2423.77
727.027	2458.59
727.213	2532.31
727.4	2524.12
727.586	2395.1
727.773	2427.87
727.959	2411.48
728.145	2364.38
728.332	2401.24
728.518	2528.22
728.705	2497.5
728.891	2417.63
729.077	2554.84
729.264	2544.6
729.45	2358.24
729.636	2403.29
729.823	2409.44
730.009	2462.68
730.195	2483.16
730.382	2384.86
730.568	2520.03
730.754	2391
730.94	2417.63
731.126	2440.15
731.313	2472.92
731.499	2403.29
731.685	2511.83
731.871	2458.59
732.057	2499.55
732.243	2331.61
732.429	2391
732.615	2477.02
732.801	2483.16
732.987	2335.71
733.173	2401.24
733.359	2415.58
733.545	2304.99
733.731	2257.89
733.917	2341.85
734.103	2419.68
734.289	2364.38
734.475	2380.76
734.661	2384.86
734.847	2272.22
735.033	2372.57
735.219	2436.06
735.404	2391
735.59	2391
735.776	2370.52
735.962	2329.56
736.148	2419.68
736.333	2372.57
736.519	2278.37
736.705	2296.8
736.89	2276.32
737.076	2397.15
737.262	2200.54
737.447	2253.79
737.633	2296.8
737.819	2343.9
738.004	2202.59
738.19	2304.99
738.375	2245.6
738.561	2253.79
738.747	2266.08
738.932	2253.79
739.118	2249.69
739.303	2268.13
739.489	2296.8
739.674	2143.2
739.859	2167.77
740.045	2132.96
740.23	2161.63
740.416	2253.79
740.601	2298.84
740.786	2245.6
740.972	2137.06
741.157	2128.86
741.342	2196.45
741.528	2114.53
741.713	2128.86
741.898	2188.25
742.084	2216.93
742.269	2028.51
742.454	2214.88
742.639	2141.15
742.824	2102.24
743.01	2112.48
743.195	2026.47
743.38	2026.47
743.565	2057.18
743.75	2020.32
743.935	1946.59
744.12	2143.2
744.305	1899.49
744.49	1833.96
744.675	1995.75
744.86	1999.84
745.045	2020.32
745.23	2077.66
745.415	2034.66
745.6	1922.02
745.785	1942.5
745.97	1913.83
746.155	1956.83
746.34	1856.48
746.525	1995.75
746.71	2036.7
746.895	1803.24
747.079	1838.05
747.264	1952.74
747.449	1932.26
747.634	1868.77
747.819	1942.5
748.003	1836
748.188	1860.58
748.373	1782.76
748.557	1768.42
748.742	1815.52
748.927	1733.61
749.111	1702.89
749.296	1721.32
749.481	1696.74
749.665	1758.18
749.85	1608.68
750.034	1813.48
750.219	1702.89
750.404	1723.37
750.588	1659.88
750.773	1739.75
750.957	1627.11
751.141	1639.4
751.326	1653.73
751.51	1692.65
751.695	1659.88
751.879	1655.78
752.064	1549.29
752.248	1627.11
752.432	1541.1
752.617	1489.9
752.801	1573.86
752.985	1563.62
753.17	1457.13
753.354	1524.71
753.538	1461.23
753.722	1493.99
753.907	1496.04
754.091	1561.58
754.275	1422.31
754.459	1422.31
754.643	1373.16
754.828	1399.79
755.012	1479.66
755.196	1422.31
755.38	1518.57
755.564	1369.07
755.748	1438.7
755.932	1319.92
756.116	1430.51
756.3	1354.73
756.484	1332.2
756.668	1313.77
756.852	1313.77
757.036	1244.14
757.22	1336.3
757.404	1348.59
757.588	1213.42
757.772	1250.28
757.956	1330.16
758.14	1272.81
758.323	1281
758.507	1188.85
758.691	1158.13
758.875	1260.52
759.059	1137.65
759.242	1211.37
759.426	1242.09
759.61	1209.33
759.794	1203.18
759.977	1145.84
760.161	1256.43
760.345	1164.27
760.528	1211.37
760.712	1176.56
760.895	1149.93
761.079	1149.93
761.263	1170.41
761.446	1143.79
761.63	1139.69
761.813	1006.58
761.997	1084.4
762.18	1053.68
762.364	1045.49
762.547	1018.86
762.731	1141.74
762.914	1117.17
763.098	1039.34
763.281	1033.2
763.464	1022.96
763.648	1039.34
763.831	1045.49
764.015	986.1
764.198	1074.16
764.381	986.1
764.564	977.91
764.748	1164.27
764.931	1053.68
765.114	1053.68
765.297	1068.02
765.481	941.04
765.664	1008.62
765.847	992.24
766.03	1012.72
766.213	959.47
766.397	1016.82
766.58	998.38
766.763	1010.67
766.946	998.38
767.129	910.32
767.312	1000.43
767.495	994.29
767.678	928.75
767.861	1008.62
768.044	1041.39
768.227	988.14
768.41	900.08
768.593	963.57
768.776	920.56
768.959	926.71
769.142	1037.3
769.324	949.23
769.507	955.38
769.69	920.56
769.873	988.14
770.056	973.81
770.239	986.1
770.421	982
770.604	789.49
770.787	881.65
770.97	873.46
771.152	838.64
771.335	844.79
771.518	852.98
771.7	840.69
771.883	824.31
772.066	830.45
772.248	801.78
772.431	861.17
772.613	861.17
772.796	830.45
772.978	822.26
773.161	900.08
773.343	779.25
773.526	816.12
773.708	769.01
773.891	820.21
774.073	809.97
774.256	719.86
774.438	855.03
774.621	807.92
774.803	773.11
774.985	799.73
775.168	881.65
775.35	842.74
775.532	705.53
775.715	734.2
775.897	789.49
776.079	760.82
776.261	766.96
776.444	762.87
776.626	691.19
776.808	683
776.99	732.15
777.173	748.53
777.355	689.14
777.537	607.22
777.719	734.2
777.901	748.53
778.083	672.76
778.265	594.93
778.447	631.8
778.629	662.52
778.811	658.42
778.993	666.61
779.175	588.79
779.357	685.05
779.539	621.56
779.721	613.37
779.903	625.65
780.085	635.89
780.267	642.04
780.449	611.32
780.631	646.13
780.812	551.93
780.994	715.77
781.176	609.27
781.358	582.65
781.54	605.17
781.721	639.99
781.903	547.83
782.085	660.47
782.267	545.78
782.448	603.13
782.63	531.45
782.812	576.5
782.993	560.12
783.175	467.96
783.357	431.1
783.538	549.88
783.72	533.5
783.901	496.63
784.083	508.92
784.264	531.45
784.446	519.16
784.627	553.98
784.809	433.15
784.99	521.21
785.172	439.29
785.353	508.92
785.535	500.73
785.716	443.39
785.897	498.68
786.079	490.49
786.26	449.53
786.441	562.17
786.623	386.04
786.804	410.62
786.985	422.91
787.167	449.53
787.348	383.99
787.529	369.66
787.71	406.52
787.891	492.54
788.073	361.47
788.254	439.29
788.435	429.05
788.616	443.39
788.797	408.57
788.978	386.04
789.159	343.03
789.34	427
789.522	302.08
789.703	416.76
789.884	422.91
790.065	361.47
790.246	439.29
790.427	371.71
790.607	295.93
790.788	383.99
790.969	398.33
791.15	447.48
791.331	408.57
791.512	406.52
791.693	363.51
791.874	359.42
792.054	390.14
792.235	273.4
792.416	357.37
792.597	304.12
792.778	361.47
792.958	345.08
793.139	254.97
793.32	310.27
793.5	295.93
793.681	381.95
793.862	306.17
794.042	306.17
794.223	275.45
794.404	283.64
794.584	283.64
794.765	263.16
794.945	369.66
795.126	359.42
795.306	371.71
795.487	211.96
795.667	306.17
795.848	306.17
796.028	291.84
796.209	273.4
796.389	312.32
796.57	297.98
796.75	283.64
796.93	312.32
797.111	324.6
797.291	271.36
797.471	195.58
797.652	318.46
797.832	297.98
798.012	343.03
798.192	224.25
798.373	287.74
798.553	254.97
798.733	295.93
798.913	246.78
799.093	211.96
799.274	275.45
799.454	314.36
799.634	338.94
799.814	242.68
799.994	195.58
800.174	254.97
800.354	238.59
800.534	248.83
800.714	263.16
800.894	304.12
801.074	230.4
801.254	269.31
801.434	259.07
801.614	267.26
801.794	158.72
801.974	562.17
802.154	257.02
802.334	166.91
802.514	240.64
802.693	259.07
802.873	224.25
803.053	281.6
803.233	168.96
803.413	193.53
803.592	236.54
803.772	205.82
803.952	205.82
804.131	207.87
804.311	224.25
804.491	277.5
804.67	193.53
804.85	191.49
805.03	244.73
805.209	205.82
805.389	164.86
805.568	238.59
805.748	158.72
805.928	201.72
806.107	222.2
806.287	207.87
806.466	199.68
806.646	218.11
806.825	226.3
807.004	193.53
807.184	183.29
807.363	240.64
807.543	138.24
807.722	125.95
807.901	168.96
808.081	240.64
808.26	150.53
808.439	156.67
808.619	160.77
808.798	150.53
808.977	199.68
809.156	168.96
809.336	70.65
809.515	207.87
809.694	142.33
809.873	150.53
810.052	189.44
810.231	205.82
810.411	197.63
810.59	82.94
810.769	115.71
810.948	171.01
811.127	93.18
811.306	173.05
811.485	218.11
811.664	158.72
811.843	123.9
812.022	201.72
812.201	246.78
812.38	199.68
812.559	70.65
812.737	164.86
812.916	148.48
813.095	220.16
813.274	156.67
813.453	154.62
813.632	162.81
813.811	205.82
813.989	115.71
814.168	119.81
814.347	72.7
814.526	105.47
814.704	113.66
814.883	134.14
815.062	103.42
815.24	140.29
815.419	113.66
815.598	111.61
815.776	191.49
815.955	103.42
816.133	87.04
816.312	123.9
816.49	125.95
816.669	168.96
816.847	113.66
817.026	152.57
817.204	121.85
817.383	138.24
817.561	136.19
817.74	111.61
817.918	191.49
818.097	89.09
818.275	103.42
818.453	175.1
818.632	117.76
818.81	93.18
818.988	132.09
819.167	134.14
819.345	66.56
819.523	152.57
819.701	107.52
819.879	175.1
820.058	41.98
820.236	132.09
820.414	107.52
820.592	164.86
820.77	123.9
820.948	154.62
821.127	107.52
821.305	146.43
821.483	70.65
821.661	152.57
821.839	99.33
822.017	62.46
822.195	138.24
822.373	164.86
822.551	68.61
822.729	130.05
822.907	91.13
823.085	195.58
823.262	201.72
823.44	89.09
823.618	158.72
823.796	66.56
823.974	125.95
824.152	21.5
824.329	154.62
824.507	97.28
824.685	50.18
824.863	35.84
825.04	115.71
825.218	121.85
825.396	80.89
825.574	76.8
825.751	54.27
825.929	74.75
826.107	60.42
826.284	82.94
826.462	117.76
826.639	89.09
826.817	103.42
826.994	89.09
827.172	21.5
827.349	62.46
827.527	111.61
827.704	50.18
827.882	52.22
828.059	44.03
828.237	70.65
828.414	87.04
828.591	54.27
828.769	158.72
828.946	46.08
829.124	136.19
829.301	101.37
829.478	130.05
829.655	121.85
829.833	70.65
830.01	23.55
830.187	107.52
830.364	128
830.542	70.65
830.719	56.32
830.896	84.99
831.073	111.61
831.25	64.51
831.427	54.27
831.604	74.75
831.782	56.32
831.959	152.57
832.136	125.95
832.313	60.42
832.49	35.84
832.667	144.38
832.844	13.31
833.021	56.32
833.198	93.18
833.374	123.9
833.551	113.66
833.728	152.57
833.905	95.23
834.082	76.8
834.259	60.42
834.436	111.61
834.612	144.38
834.789	56.32
834.966	95.23
835.143	76.8
835.319	-50.18
835.496	-5.12
835.673	72.7
835.85	99.33
836.026	35.84
836.203	5.12
836.38	56.32
836.556	72.7
836.733	105.47
836.909	142.33
837.086	21.5
837.262	35.84
837.439	39.94
837.616	50.18
837.792	68.61
837.968	37.89
838.145	82.94
838.321	50.18
838.498	84.99
838.674	109.57
838.851	19.46
839.027	109.57
839.203	68.61
839.38	23.55
839.556	37.89
839.732	82.94
839.909	148.48
840.085	82.94
840.261	41.98
840.437	87.04
840.614	121.85
840.79	87.04
840.966	101.37
841.142	113.66
841.318	87.04
841.494	80.89
841.671	95.23
841.847	72.7
842.023	62.46
842.199	41.98
842.375	80.89
842.551	62.46
842.727	-54.27
842.903	93.18
843.079	31.74
843.255	115.71
843.431	70.65
843.607	99.33
843.783	-11.26
843.959	111.61
844.134	35.84
844.31	91.13
844.486	-29.7
844.662	87.04
844.838	33.79
845.013	60.42
845.189	37.89
845.365	52.22
845.541	31.74
845.716	50.18
845.892	3.07
846.068	-5.12
846.244	13.31
846.419	31.74
846.595	29.7
846.77	33.79
846.946	25.6
847.122	-11.26
847.297	27.65
847.473	66.56
847.648	31.74
847.824	87.04
847.999	-19.46
848.175	64.51
848.35	113.66
848.526	68.61
848.701	58.37
848.876	62.46
849.052	60.42
849.227	11.26
849.403	37.89
849.578	68.61
849.753	35.84
849.929	91.13
850.104	-27.65
850.279	113.66
850.454	21.5
850.63	-21.5
850.805	107.52
850.98	15.36
851.155	29.7
851.33	87.04
851.505	-21.5
851.681	101.37
851.856	54.27
852.031	46.08
852.206	48.13
852.381	-11.26
852.556	39.94
852.731	35.84
852.906	41.98
853.081	33.79
853.256	41.98
853.431	9.22
853.606	-64.51
853.781	37.89
853.956	-23.55
854.131	33.79
854.305	74.75
854.48	-21.5
854.655	-13.31
854.83	33.79
855.005	29.7
855.18	31.74
855.354	-19.46
855.529	60.42
855.704	27.65
855.879	5.12
856.053	-11.26
856.228	58.37
856.403	-19.46
856.577	48.13
856.752	11.26
856.926	21.5
857.101	-7.17
857.276	39.94
857.45	48.13
857.625	-13.31
857.799	29.7
857.974	50.18
858.148	31.74
858.323	70.65
858.497	-25.6
858.672	-15.36
858.846	15.36
859.02	72.7
859.195	-44.03
859.369	19.46
859.543	70.65
859.718	17.41
859.892	21.5
860.066	3.07
860.241	1.02
860.415	13.31
860.589	25.6
860.763	29.7
860.938	48.13
861.112	23.55
861.286	15.36
861.46	64.51
861.634	-1.02
861.808	78.85
861.982	3.07
862.157	56.32
862.331	17.41
862.505	54.27
862.679	13.31
862.853	-15.36
863.027	-27.65
863.201	19.46
863.375	-44.03
863.549	66.56
863.722	15.36
863.896	58.37
864.07	-95.23
864.244	64.51
864.418	60.42
864.592	62.46
864.766	-3.07
864.939	58.37
865.113	-9.22
865.287	-21.5
865.461	-70.65
865.634	-41.98
865.808	37.89
865.982	-31.74
866.156	-9.22
866.329	-23.55
866.503	-5.12
866.676	44.03
866.85	17.41
867.024	-1.02
867.197	33.79
867.371	33.79
867.544	-50.18
867.718	-5.12
867.891	-27.65
868.065	9.22
868.238	1.02
868.412	-19.46
868.585	39.94
868.759	7.17
868.932	15.36
869.105	-35.84
869.279	50.18
869.452	15.36
869.625	-41.98
869.799	-3.07
869.972	35.84
870.145	-7.17
870.319	70.65
870.492	-21.5
870.665	-27.65
870.838	-56.32
871.011	-25.6
871.185	56.32
871.358	-21.5
871.531	1.02
871.704	-11.26
871.877	-31.74
872.05	-11.26
872.223	11.26
872.396	52.22
872.569	11.26
872.742	-1.02
872.915	23.55
873.088	66.56
873.261	37.89
873.434	3.07
873.607	-31.74
873.78	33.79
873.953	-56.32
874.126	3.07
874.299	-21.5
874.471	-87.04
874.644	-31.74
874.817	41.98
874.99	5.12
875.163	-54.27
875.335	-1.02
875.508	-3.07
875.681	5.12
875.853	33.79
876.026	27.65
876.199	66.56
876.371	-39.94
876.544	33.79
876.717	119.81
876.889	3.07
877.062	-48.13
877.234	-27.65
877.407	23.55
877.579	48.13
877.752	-7.17
877.924	44.03
878.097	72.7
878.269	-52.22
878.442	33.79
878.614	19.46
878.786	-58.37
878.959	-7.17
879.131	13.31
879.303	-64.51
879.476	66.56
879.648	-15.36
879.82	1.02
879.993	19.46
880.165	27.65
880.337	41.98
880.509	1.02
880.681	-89.09
880.854	-101.37
881.026	21.5
881.198	-7.17
881.37	9.22
881.542	23.55
881.714	-1.02
881.886	-13.31
882.058	17.41
882.23	11.26
882.402	-60.42
882.574	41.98
882.746	-48.13
882.918	-1.02
883.09	74.75
883.262	-31.74
883.434	46.08
883.606	-39.94
883.778	9.22
883.95	93.18
884.122	-23.55
884.293	-17.41
884.465	-3.07
884.637	15.36
884.809	-3.07
884.98	15.36
885.152	-52.22
885.324	-9.22
885.496	17.41
885.667	78.85
885.839	-1.02
886.011	74.75
886.182	-46.08
886.354	-3.07
886.525	-15.36
886.697	39.94
886.869	3.07
887.04	46.08
887.212	-52.22
887.383	15.36
887.555	1.02
887.726	19.46
887.897	62.46
888.069	1.02
888.24	-31.74
888.412	64.51
888.583	-54.27
888.754	-7.17
888.926	-15.36
889.097	-23.55
889.268	-39.94
889.44	-41.98
889.611	-13.31
889.782	-3.07
889.953	19.46
890.125	46.08
890.296	-31.74
890.467	15.36
890.638	48.13
890.809	1.02
890.98	-9.22
891.151	-27.65
891.323	19.46
891.494	37.89
891.665	13.31
891.836	66.56
892.007	60.42
892.178	-19.46
892.349	39.94
892.52	-37.89
892.691	-29.7
892.862	-105.47
893.032	31.74
893.203	19.46
893.374	-11.26
893.545	-113.66
893.716	-1.02
893.887	23.55
894.057	13.31
894.228	19.46
894.399	56.32
894.57	54.27
894.74	21.5
894.911	-9.22
895.082	-21.5
895.253	-62.46
895.423	25.6
895.594	-3.07
895.764	64.51
895.935	-35.84
896.106	-27.65
896.276	17.41
896.447	-29.7
896.617	29.7
896.788	-48.13
896.958	-15.36
897.129	37.89
897.299	39.94
897.47	-5.12
897.64	41.98
897.81	95.23
897.981	44.03
898.151	23.55
898.322	11.26
898.492	-56.32
898.662	-72.7
898.832	-23.55
899.003	11.26
899.173	1.02
899.343	21.5
899.513	-56.32
