Data from USB4F104151__135__11-07-49-335.txt Node

Date: Wed Mar 12 11:07:49 EDT 2025
User: louis
Spectrometer: USB4F10415
Trigger mode: 4
Integration Time (sec): 2.000000E-2
Scans to average: 1
Electric dark correction enabled: true
Nonlinearity correction enabled: false
Boxcar width: 0
XAxis mode: Wavelengths
Number of Pixels in Spectrum: 3648
>>>>>Begin Spectral Data<<<<<
178.204	-80.04
178.424	-80.04
178.644	-80.04
178.864	-0.17
179.084	-135.34
179.304	-41.13
179.524	26.45
179.744	-51.37
179.964	20.31
180.184	53.08
180.404	-0.17
180.624	24.4
180.844	51.03
181.064	3.93
181.283	-34.99
181.503	-104.62
181.723	53.08
181.943	-22.7
182.163	-20.65
182.383	-2.22
182.602	16.21
182.822	55.12
183.042	-14.51
183.262	12.12
183.482	12.12
183.701	-71.85
183.921	22.36
184.141	-49.32
184.361	48.98
184.58	8.02
184.8	22.36
185.02	38.74
185.239	-20.65
185.459	-65.71
185.679	59.22
185.898	-32.94
186.118	51.03
186.338	24.4
186.557	16.21
186.777	36.69
186.997	3.93
187.216	30.55
187.436	44.88
187.655	18.26
187.875	-14.51
188.095	-45.23
188.314	1.88
188.534	14.17
188.753	30.55
188.973	5.97
189.192	48.98
189.412	-32.94
189.631	-8.36
189.851	61.27
190.07	46.93
190.29	-14.51
190.509	-4.27
190.729	1.88
190.948	22.36
191.168	112.47
191.387	24.4
191.607	8.02
191.826	-6.31
192.045	-49.32
192.265	-28.84
192.484	63.32
192.704	48.98
192.923	-37.03
193.142	67.41
193.362	22.36
193.581	-2.22
193.8	48.98
194.02	-10.41
194.239	14.17
194.458	20.31
194.678	12.12
194.897	-20.65
195.116	-41.13
195.335	14.17
195.555	51.03
195.774	-26.79
195.993	22.36
196.212	55.12
196.432	30.55
196.651	-45.23
196.87	-39.08
197.089	32.6
197.308	-28.84
197.528	26.45
197.747	-0.17
197.966	8.02
198.185	16.21
198.404	-0.17
198.623	102.23
198.842	12.12
199.062	22.36
199.281	48.98
199.5	18.26
199.719	36.69
199.938	22.36
200.157	59.22
200.376	55.12
200.595	30.55
200.814	38.74
201.033	3.93
201.252	83.8
201.471	57.17
201.69	48.98
201.909	42.84
202.128	57.17
202.347	16.21
202.566	-55.47
202.785	24.4
203.004	-53.42
203.223	73.56
203.442	22.36
203.661	-26.79
203.879	38.74
204.098	40.79
204.317	-0.17
204.536	-32.94
204.755	-34.99
204.974	-8.36
205.193	-6.31
205.411	38.74
205.63	-4.27
205.849	61.27
206.068	-28.84
206.287	-43.18
206.505	-34.99
206.724	-53.42
206.943	-0.17
207.162	20.31
207.381	14.17
207.599	-16.55
207.818	1.88
208.037	-71.85
208.255	-6.31
208.474	20.31
208.693	18.26
208.911	-14.51
209.13	98.13
209.349	26.45
209.567	8.02
209.786	67.41
210.005	46.93
210.223	46.93
210.442	-34.99
210.661	73.56
210.879	20.31
211.098	63.32
211.316	-22.7
211.535	36.69
211.753	-30.89
211.972	53.08
212.191	-26.79
212.409	-2.22
212.628	-28.84
212.846	-6.31
213.065	16.21
213.283	-2.22
213.502	139.09
213.72	26.45
213.938	51.03
214.157	-14.51
214.375	18.26
214.594	44.88
214.812	-10.41
215.031	61.27
215.249	3.93
215.467	-26.79
215.686	-2.22
215.904	5.97
216.122	-22.7
216.341	51.03
216.559	28.5
216.778	24.4
216.996	1.88
217.214	5.97
217.432	-16.55
217.651	-71.85
217.869	1.88
218.087	10.07
218.306	-2.22
218.524	32.6
218.742	34.64
218.96	18.26
219.179	59.22
219.397	34.64
219.615	-14.51
219.833	-18.6
220.051	34.64
220.27	1.88
220.488	-2.22
220.706	71.51
220.924	-45.23
221.142	51.03
221.36	24.4
221.578	1.88
221.796	65.36
222.015	69.46
222.233	53.08
222.451	12.12
222.669	-45.23
222.887	42.84
223.105	26.45
223.323	-16.55
223.541	1.88
223.759	-26.79
223.977	8.02
224.195	96.08
224.413	61.27
224.631	83.8
224.849	-18.6
225.067	46.93
225.285	5.97
225.503	-4.27
225.721	1.88
225.939	-0.17
226.157	67.41
226.375	108.37
226.592	16.21
226.81	16.21
227.028	53.08
227.246	-26.79
227.464	5.97
227.682	40.79
227.9	32.6
228.117	-43.18
228.335	5.97
228.553	22.36
228.771	1.88
228.989	118.61
229.206	-37.03
229.424	51.03
229.642	79.7
229.86	-37.03
230.077	55.12
230.295	-16.55
230.513	36.69
230.731	65.36
230.948	20.31
231.166	14.17
231.384	30.55
231.601	-26.79
231.819	55.12
232.037	14.17
232.254	-24.75
232.472	67.41
232.689	-47.27
232.907	83.8
233.125	63.32
233.342	22.36
233.56	14.17
233.777	-2.22
233.995	1.88
234.213	28.5
234.43	-14.51
234.648	71.51
234.865	28.5
235.083	-16.55
235.3	-6.31
235.518	42.84
235.735	20.31
235.953	5.97
236.17	18.26
236.388	-20.65
236.605	-2.22
236.822	53.08
237.04	-20.65
237.257	26.45
237.475	-0.17
237.692	38.74
237.909	12.12
238.127	-0.17
238.344	-71.85
238.562	34.64
238.779	10.07
238.996	36.69
239.214	67.41
239.431	65.36
239.648	-34.99
239.865	16.21
240.083	-37.03
240.3	1.88
240.517	-26.79
240.735	1.88
240.952	-4.27
241.169	-20.65
241.386	-22.7
241.603	48.98
241.821	-18.6
242.038	24.4
242.255	-22.7
242.472	65.36
242.689	28.5
242.907	51.03
243.124	38.74
243.341	34.64
243.558	40.79
243.775	-63.66
243.992	-32.94
244.209	81.75
244.426	87.89
244.643	24.4
244.86	10.07
245.078	22.36
245.295	-39.08
245.512	-30.89
245.729	26.45
245.946	42.84
246.163	69.46
246.38	-20.65
246.597	75.6
246.814	73.56
247.031	1.88
247.248	71.51
247.464	75.6
247.681	-30.89
247.898	71.51
248.115	40.79
248.332	48.98
248.549	46.93
248.766	38.74
248.983	-6.31
249.2	-6.31
249.417	28.5
249.633	-12.46
249.85	14.17
250.067	26.45
250.284	77.65
250.501	30.55
250.717	71.51
250.934	-22.7
251.151	22.36
251.368	10.07
251.585	16.21
251.801	46.93
252.018	-59.56
252.235	94.04
252.451	3.93
252.668	32.6
252.885	32.6
253.102	55.12
253.318	-20.65
253.535	61.27
253.752	-34.99
253.968	30.55
254.185	16.21
254.401	-73.9
254.618	24.4
254.835	1.88
255.051	16.21
255.268	75.6
255.484	36.69
255.701	-24.75
255.917	-20.65
256.134	-22.7
256.351	-6.31
256.567	63.32
256.784	26.45
257	26.45
257.217	77.65
257.433	10.07
257.65	46.93
257.866	-10.41
258.082	10.07
258.299	-37.03
258.515	8.02
258.732	-32.94
258.948	26.45
259.165	-4.27
259.381	-18.6
259.597	16.21
259.814	42.84
260.03	14.17
260.246	42.84
260.463	89.94
260.679	53.08
260.895	-14.51
261.112	-14.51
261.328	55.12
261.544	-51.37
261.761	26.45
261.977	34.64
262.193	28.5
262.409	-16.55
262.626	-43.18
262.842	22.36
263.058	-24.75
263.274	-20.65
263.49	14.17
263.707	53.08
263.923	-51.37
264.139	14.17
264.355	3.93
264.571	112.47
264.787	30.55
265.004	10.07
265.22	30.55
265.436	42.84
265.652	40.79
265.868	-26.79
266.084	-37.03
266.3	-20.65
266.516	-43.18
266.732	18.26
266.948	40.79
267.164	26.45
267.38	-82.09
267.596	75.6
267.812	104.28
268.028	-18.6
268.244	8.02
268.46	-30.89
268.676	-47.27
268.892	20.31
269.108	-32.94
269.324	-14.51
269.54	-12.46
269.756	69.46
269.972	18.26
270.188	114.52
270.403	91.99
270.619	-8.36
270.835	-55.47
271.051	-2.22
271.267	-0.17
271.483	1.88
271.698	40.79
271.914	59.22
272.13	-63.66
272.346	-10.41
272.562	-2.22
272.777	1.88
272.993	12.12
273.209	42.84
273.425	42.84
273.64	-12.46
273.856	26.45
274.072	51.03
274.287	36.69
274.503	10.07
274.719	32.6
274.934	53.08
275.15	34.64
275.366	55.12
275.581	14.17
275.797	1.88
276.012	42.84
276.228	55.12
276.444	-8.36
276.659	22.36
276.875	-37.03
277.09	-34.99
277.306	-41.13
277.521	-18.6
277.737	-37.03
277.952	73.56
278.168	96.08
278.383	26.45
278.599	-14.51
278.814	28.5
279.03	20.31
279.245	26.45
279.461	-0.17
279.676	94.04
279.892	-43.18
280.107	18.26
280.322	26.45
280.538	20.31
280.753	-4.27
280.969	30.55
281.184	24.4
281.399	89.94
281.615	8.02
281.83	44.88
282.045	3.93
282.26	10.07
282.476	57.17
282.691	122.71
282.906	24.4
283.122	67.41
283.337	-55.47
283.552	128.85
283.767	-24.75
283.983	55.12
284.198	67.41
284.413	59.22
284.628	16.21
284.843	-12.46
285.058	51.03
285.274	-2.22
285.489	-59.56
285.704	40.79
285.919	44.88
286.134	-32.94
286.349	71.51
286.564	-26.79
286.779	1.88
286.995	38.74
287.21	5.97
287.425	36.69
287.64	26.45
287.855	40.79
288.07	-34.99
288.285	38.74
288.5	1.88
288.715	-8.36
288.93	20.31
289.145	38.74
289.36	36.69
289.575	-22.7
289.79	-59.56
290.004	36.69
290.219	79.7
290.434	12.12
290.649	-8.36
290.864	-0.17
291.079	75.6
291.294	8.02
291.509	18.26
291.724	55.12
291.938	22.36
292.153	1.88
292.368	-16.55
292.583	16.21
292.798	36.69
293.012	53.08
293.227	77.65
293.442	-26.79
293.657	59.22
293.871	-94.38
294.086	-43.18
294.301	124.76
294.516	-4.27
294.73	30.55
294.945	20.31
295.16	-4.27
295.374	38.74
295.589	20.31
295.804	59.22
296.018	26.45
296.233	55.12
296.447	63.32
296.662	79.7
296.877	42.84
297.091	28.5
297.306	-47.27
297.52	-34.99
297.735	42.84
297.949	46.93
298.164	26.45
298.378	-22.7
298.593	-18.6
298.807	-55.47
299.022	12.12
299.236	-22.7
299.451	53.08
299.665	48.98
299.88	26.45
300.094	30.55
300.309	14.17
300.523	20.31
300.737	-18.6
300.952	65.36
301.166	-4.27
301.381	20.31
301.595	55.12
301.809	46.93
302.024	57.17
302.238	18.26
302.452	26.45
302.667	53.08
302.881	34.64
303.095	55.12
303.309	5.97
303.524	10.07
303.738	24.4
303.952	-65.71
304.166	51.03
304.381	46.93
304.595	48.98
304.809	48.98
305.023	-59.56
305.237	67.41
305.452	10.07
305.666	96.08
305.88	71.51
306.094	-0.17
306.308	-39.08
306.522	106.32
306.736	18.26
306.95	51.03
307.164	51.03
307.379	-39.08
307.593	5.97
307.807	55.12
308.021	3.93
308.235	26.45
308.449	12.12
308.663	22.36
308.877	-32.94
309.091	-4.27
309.305	10.07
309.519	59.22
309.733	36.69
309.947	-34.99
310.161	96.08
310.374	48.98
310.588	34.64
310.802	10.07
311.016	-2.22
311.23	77.65
311.444	-18.6
311.658	1.88
311.872	-16.55
312.085	-0.17
312.299	83.8
312.513	-0.17
312.727	-14.51
312.941	71.51
313.154	48.98
313.368	48.98
313.582	-0.17
313.796	-30.89
314.009	-10.41
314.223	22.36
314.437	57.17
314.651	16.21
314.864	-34.99
315.078	18.26
315.292	-59.56
315.505	-41.13
315.719	-55.47
315.933	1.88
316.146	36.69
316.36	34.64
316.573	96.08
316.787	141.14
317.001	-8.36
317.214	-16.55
317.428	63.32
317.641	-20.65
317.855	8.02
318.068	61.27
318.282	36.69
318.495	16.21
318.709	16.21
318.922	-49.32
319.136	71.51
319.349	-26.79
319.563	12.12
319.776	61.27
319.99	91.99
320.203	98.13
320.417	-12.46
320.63	87.89
320.843	14.17
321.057	5.97
321.27	67.41
321.483	-8.36
321.697	89.94
321.91	57.17
322.124	77.65
322.337	51.03
322.55	51.03
322.763	65.36
322.977	14.17
323.19	-59.56
323.403	22.36
323.617	112.47
323.83	30.55
324.043	14.17
324.256	32.6
324.469	-26.79
324.683	14.17
324.896	-2.22
325.109	28.5
325.322	73.56
325.535	71.51
325.748	-32.94
325.962	102.23
326.175	108.37
326.388	83.8
326.601	38.74
326.814	26.45
327.027	55.12
327.24	-8.36
327.453	-12.46
327.666	24.4
327.879	-6.31
328.092	108.37
328.305	24.4
328.518	-24.75
328.731	46.93
328.944	83.8
329.157	14.17
329.37	20.31
329.583	98.13
329.796	34.64
330.009	51.03
330.222	-32.94
330.435	18.26
330.648	1.88
330.861	73.56
331.073	-55.47
331.286	98.13
331.499	34.64
331.712	12.12
331.925	75.6
332.138	32.6
332.35	65.36
332.563	34.64
332.776	79.7
332.989	-41.13
333.202	3.93
333.414	34.64
333.627	-10.41
333.84	63.32
334.053	69.46
334.265	-67.75
334.478	-24.75
334.691	26.45
334.903	46.93
335.116	-32.94
335.329	-14.51
335.541	40.79
335.754	36.69
335.966	5.97
336.179	40.79
336.392	18.26
336.604	59.22
336.817	18.26
337.029	63.32
337.242	65.36
337.454	112.47
337.667	5.97
337.88	67.41
338.092	67.41
338.305	28.5
338.517	73.56
338.729	24.4
338.942	46.93
339.154	-0.17
339.367	10.07
339.579	67.41
339.792	67.41
340.004	-10.41
340.217	-2.22
340.429	79.7
340.641	5.97
340.854	-32.94
341.066	-49.32
341.278	14.17
341.491	63.32
341.703	20.31
341.915	26.45
342.128	65.36
342.34	12.12
342.552	38.74
342.764	-2.22
342.977	18.26
343.189	30.55
343.401	5.97
343.613	24.4
343.826	-57.51
344.038	-20.65
344.25	42.84
344.462	46.93
344.674	44.88
344.886	42.84
345.099	79.7
345.311	22.36
345.523	-39.08
345.735	1.88
345.947	-14.51
346.159	32.6
346.371	40.79
346.583	-12.46
346.795	55.12
347.007	-20.65
347.219	71.51
347.431	12.12
347.643	126.8
347.855	14.17
348.067	81.75
348.279	1.88
348.491	-41.13
348.703	14.17
348.915	-47.27
349.127	-16.55
349.339	59.22
349.551	-39.08
349.763	5.97
349.975	128.85
350.187	-2.22
350.399	26.45
350.61	-16.55
350.822	-10.41
351.034	48.98
351.246	-4.27
351.458	40.79
351.669	75.6
351.881	85.84
352.093	22.36
352.305	16.21
352.517	79.7
352.728	75.6
352.94	108.37
353.152	-20.65
353.363	16.21
353.575	-6.31
353.787	75.6
353.999	-4.27
354.21	89.94
354.422	83.8
354.633	26.45
354.845	48.98
355.057	71.51
355.268	55.12
355.48	-10.41
355.692	-71.85
355.903	10.07
356.115	71.51
356.326	104.28
356.538	-6.31
356.749	44.88
356.961	26.45
357.172	-51.37
357.384	57.17
357.595	65.36
357.807	22.36
358.018	18.26
358.23	1.88
358.441	42.84
358.653	12.12
358.864	55.12
359.075	53.08
359.287	48.98
359.498	-26.79
359.709	-0.17
359.921	34.64
360.132	3.93
360.344	69.46
360.555	28.5
360.766	20.31
360.977	55.12
361.189	22.36
361.4	55.12
361.611	130.9
361.823	-30.89
362.034	42.84
362.245	-4.27
362.456	-12.46
362.667	-47.27
362.879	34.64
363.09	44.88
363.301	-22.7
363.512	48.98
363.723	-16.55
363.935	5.97
364.146	42.84
364.357	96.08
364.568	14.17
364.779	30.55
364.99	91.99
365.201	26.45
365.412	85.84
365.623	-22.7
365.834	14.17
366.045	34.64
366.256	63.32
366.467	85.84
366.678	42.84
366.889	-18.6
367.1	83.8
367.311	36.69
367.522	34.64
367.733	55.12
367.944	10.07
368.155	36.69
368.366	46.93
368.577	38.74
368.788	1.88
368.999	26.45
369.209	18.26
369.42	63.32
369.631	71.51
369.842	-4.27
370.053	38.74
370.264	28.5
370.474	-4.27
370.685	61.27
370.896	51.03
371.107	18.26
371.317	3.93
371.528	16.21
371.739	-14.51
371.95	61.27
372.16	85.84
372.371	-28.84
372.582	28.5
372.792	22.36
373.003	112.47
373.214	20.31
373.424	67.41
373.635	24.4
373.846	8.02
374.056	-59.56
374.267	69.46
374.477	-6.31
374.688	1.88
374.898	75.6
375.109	130.9
375.319	32.6
375.53	71.51
375.74	12.12
375.951	8.02
376.161	26.45
376.372	42.84
376.582	8.02
376.793	10.07
377.003	77.65
377.214	57.17
377.424	85.84
377.635	-0.17
377.845	36.69
378.055	69.46
378.266	-14.51
378.476	118.61
378.686	112.47
378.897	63.32
379.107	16.21
379.317	36.69
379.528	22.36
379.738	48.98
379.948	36.69
380.158	143.19
380.369	61.27
380.579	5.97
380.789	77.65
380.999	57.17
381.21	106.32
381.42	-12.46
381.63	34.64
381.84	5.97
382.05	48.98
382.261	81.75
382.471	102.23
382.681	3.93
382.891	22.36
383.101	38.74
383.311	-8.36
383.521	-8.36
383.731	46.93
383.941	42.84
384.151	14.17
384.361	20.31
384.571	42.84
384.781	36.69
384.991	30.55
385.201	36.69
385.411	100.18
385.621	55.12
385.831	14.17
386.041	59.22
386.251	34.64
386.461	48.98
386.671	3.93
386.881	-34.99
387.091	24.4
387.301	26.45
387.511	53.08
387.72	5.97
387.93	20.31
388.14	20.31
388.35	65.36
388.56	104.28
388.769	5.97
388.979	8.02
389.189	79.7
389.399	48.98
389.609	57.17
389.818	1.88
390.028	-6.31
390.238	-10.41
390.447	-0.17
390.657	98.13
390.867	46.93
391.076	14.17
391.286	55.12
391.496	61.27
391.705	10.07
391.915	40.79
392.125	26.45
392.334	-26.79
392.544	102.23
392.753	55.12
392.963	-18.6
393.172	-28.84
393.382	5.97
393.591	8.02
393.801	57.17
394.01	61.27
394.22	-10.41
394.429	132.95
394.639	57.17
394.848	48.98
395.058	24.4
395.267	55.12
395.477	24.4
395.686	108.37
395.895	135
396.105	108.37
396.314	22.36
396.524	-2.22
396.733	-8.36
396.942	63.32
397.152	100.18
397.361	122.71
397.57	73.56
397.78	28.5
397.989	112.47
398.198	91.99
398.407	42.84
398.617	53.08
398.826	42.84
399.035	85.84
399.244	48.98
399.453	126.8
399.663	79.7
399.872	34.64
400.081	-28.84
400.29	65.36
400.499	10.07
400.708	71.51
400.917	34.64
401.127	128.85
401.336	71.51
401.545	98.13
401.754	114.52
401.963	42.84
402.172	40.79
402.381	63.32
402.59	59.22
402.799	106.32
403.008	143.19
403.217	118.61
403.426	106.32
403.635	128.85
403.844	48.98
404.053	89.94
404.262	171.86
404.471	83.8
404.68	77.65
404.888	139.09
405.097	128.85
405.306	137.04
405.515	159.57
405.724	141.14
405.933	112.47
406.142	110.42
406.35	155.47
406.559	214.87
406.768	149.33
406.977	151.38
407.185	149.33
407.394	212.82
407.603	100.18
407.812	175.95
408.02	151.38
408.229	182.1
408.438	128.85
408.646	171.86
408.855	218.96
409.064	204.63
409.272	210.77
409.481	282.45
409.69	210.77
409.898	206.67
410.107	227.15
410.315	257.87
410.524	264.02
410.733	288.59
410.941	214.87
411.15	278.35
411.358	243.54
411.567	321.36
411.775	272.21
411.984	288.59
412.192	395.09
412.401	298.83
412.609	386.9
412.818	368.46
413.026	329.55
413.234	448.33
413.443	319.31
413.651	362.32
413.86	364.37
414.068	452.43
414.276	395.09
414.485	421.71
414.693	468.81
414.901	548.68
415.11	493.39
415.318	472.91
415.526	638.8
415.734	577.36
415.943	558.92
416.151	626.51
416.359	636.75
416.567	739.15
416.776	694.09
416.984	655.18
417.192	681.8
417.4	722.76
417.608	757.58
417.817	810.82
418.025	823.11
418.233	845.64
418.441	763.72
418.649	907.08
418.857	964.42
419.065	960.33
419.273	974.66
419.481	1048.39
419.689	1095.49
419.897	1105.73
420.105	1068.87
420.313	1193.8
420.521	1259.33
420.729	1214.27
420.937	1298.24
421.145	1263.43
421.353	1351.49
421.561	1480.51
421.769	1451.84
421.977	1587.01
422.185	1566.53
422.393	1689.4
422.601	1697.6
422.809	1808.19
423.017	1732.41
423.224	1890.1
423.432	1961.78
423.64	1861.43
423.848	1961.78
424.056	2152.24
424.263	2012.98
424.471	2043.7
424.679	2256.69
424.887	2307.89
425.094	2424.62
425.302	2350.9
425.51	2484.02
425.718	2553.65
425.925	2631.47
426.133	2627.37
426.341	2793.26
426.548	2936.62
426.756	3165.99
426.964	3043.11
427.171	3182.37
427.379	3118.89
427.586	3106.6
427.794	3368.74
428.001	3612.45
428.209	3710.75
428.417	3585.82
428.624	3952.41
428.832	3755.8
429.039	4013.85
429.247	3981.08
429.454	4294.42
429.662	4585.23
429.869	4208.41
430.076	4607.76
430.284	4306.71
430.491	4583.18
430.699	4896.52
430.906	5031.69
431.114	4935.43
431.321	4998.92
431.528	5193.48
431.736	5488.39
431.943	5746.43
432.15	5644.03
432.358	5809.92
432.565	6004.47
432.772	6090.49
432.979	6307.57
433.187	6481.65
433.394	6424.31
433.601	6969.07
433.808	6921.96
434.016	6993.64
434.223	7315.17
434.43	7704.29
434.637	7614.18
434.844	8044.25
435.052	8101.59
435.259	8154.84
435.466	8103.64
435.673	8046.3
435.88	8601.3
436.087	8922.83
436.294	9129.67
436.501	8773.33
436.708	9082.57
436.915	9305.8
437.122	9772.74
437.329	9574.08
437.537	10098.36
437.743	9998.01
437.95	10012.35
438.157	10428.09
438.364	10903.21
438.571	10946.22
438.778	11189.93
438.985	12142.24
439.192	11519.65
439.399	11857.57
439.606	11540.13
439.813	12447.38
440.02	13039.25
440.227	12897.94
440.433	12856.98
440.64	12979.86
440.847	13098.64
441.054	13518.47
441.261	14382.71
441.467	14218.88
441.674	14454.39
441.881	14884.47
442.088	14970.48
442.294	14599.8
442.501	15138.41
442.708	15396.46
442.914	15935.07
443.121	16594.52
443.328	16381.53
443.534	17366.6
443.741	16911.96
443.948	16911.96
444.154	18001.47
444.361	17880.64
444.568	18003.52
444.774	18013.76
444.981	18241.09
445.187	18718.26
445.394	19476.01
445.6	19142.19
445.807	21091.86
446.013	20293.15
446.22	20727.32
446.426	21483.02
446.633	21397.01
446.839	22300.16
447.046	21417.49
447.252	22404.61
447.459	22756.86
447.665	22392.32
447.871	23440.88
448.078	24352.23
448.284	22914.55
448.491	23860.71
448.697	24843.74
448.903	25234.9
449.11	25114.07
449.316	24776.16
449.522	25226.71
449.728	25802.19
449.935	26387.91
450.141	26088.9
450.347	26709.44
450.553	25699.79
450.76	26074.57
450.966	26842.56
451.172	26815.93
451.378	27323.83
451.584	26553.79
451.791	27641.26
451.997	27004.35
452.203	27667.89
452.409	27942.31
452.615	27803.05
452.821	26527.17
453.027	26535.36
453.233	27923.88
453.44	26752.45
453.646	27061.69
453.852	27114.94
454.058	27211.19
454.264	26435.01
454.47	27147.7
454.676	26453.44
454.882	27401.65
455.088	25224.66
455.294	25505.23
455.5	25591.25
455.705	25923.02
455.911	24946.14
456.117	24380.9
456.323	23961.06
456.529	22664.7
456.735	23608.81
456.941	23094.77
457.147	23074.29
457.352	22017.54
457.558	21845.51
457.764	21986.82
457.97	21716.49
458.176	20979.22
458.381	20864.53
458.587	19981.86
458.793	20155.94
458.999	19166.77
459.204	20260.38
459.41	19807.78
459.616	18390.59
459.821	18456.12
460.027	18185.79
460.233	18015.81
460.438	16987.73
460.644	17227.34
460.85	16576.09
461.055	16402.01
461.261	16021.09
461.466	14927.47
461.672	14681.72
461.878	15695.46
462.083	14665.33
462.289	14302.84
462.494	14141.05
462.7	13825.67
462.905	13155.98
463.111	13737.6
463.316	13784.71
463.522	13518.47
463.727	13506.18
463.932	13362.83
464.138	13213.32
464.343	13336.2
464.549	12803.73
464.754	13373.07
464.959	13248.14
465.165	13348.49
465.37	12631.7
465.575	12230.3
465.781	12805.78
465.986	12897.94
466.191	12502.68
466.397	11966.11
466.602	11581.09
466.807	11957.92
467.012	11937.44
467.218	11880.1
467.423	11947.68
467.628	12002.97
467.833	12476.05
468.038	11648.68
468.244	11630.24
468.449	12160.67
468.654	11789.99
468.859	11609.76
469.064	11677.35
469.269	10935.98
469.474	11341.48
469.679	11503.27
469.885	11146.92
470.09	11226.79
470.295	11267.75
470.5	10944.17
470.705	11028.14
470.91	10899.12
471.115	10548.92
471.32	10780.34
471.525	10628.79
471.73	10520.24
471.935	10423.99
472.139	10036.92
472.344	10286.78
472.549	10221.24
472.754	10149.56
472.959	9897.66
473.164	9369.29
473.369	9483.97
473.574	9756.35
473.778	9780.93
473.983	9715.39
474.188	9701.06
474.393	9209.54
474.598	9209.54
474.802	9203.4
475.007	9055.95
475.212	9023.18
475.417	8677.07
475.621	8761.04
475.826	8828.62
476.031	8736.46
476.235	8531.67
476.44	8535.76
476.645	8378.07
476.849	8122.07
477.054	8353.49
477.259	8167.13
477.463	8298.2
477.668	7999.2
477.872	8068.83
478.077	8050.39
478.282	7767.77
478.486	7722.72
478.691	7610.08
478.895	7763.68
479.1	7585.51
479.304	7589.6
479.509	7288.55
479.713	7833.31
479.918	7390.95
480.122	7276.26
480.326	7370.47
480.531	7370.47
480.735	7268.07
480.94	7190.25
481.144	7481.06
481.348	7075.56
481.553	7128.81
481.757	7153.38
481.961	7261.93
482.166	7276.26
482.37	7116.52
482.574	6942.44
482.778	7143.14
482.983	7202.54
483.187	7100.14
483.391	7235.3
483.595	7169.77
483.8	7053.03
484.004	7208.68
484.208	7376.61
484.412	7098.09
484.616	7165.67
484.821	7200.49
485.025	6952.68
485.229	7186.15
485.433	6960.88
485.637	7270.12
485.841	7065.32
486.045	6946.54
486.249	7165.67
486.453	6999.79
486.657	7190.25
486.861	7378.66
487.065	6989.55
487.269	7171.82
487.473	7104.23
487.677	7266.02
487.881	7087.85
488.085	7167.72
488.289	7155.43
488.493	7083.75
488.697	7085.8
488.901	7200.49
489.105	7276.26
489.309	7180.01
489.512	7227.11
489.716	7282.41
489.92	7300.84
490.124	7180.01
490.328	7263.97
490.531	7194.34
490.735	7417.57
490.939	7522.02
491.143	7395.04
491.346	7427.81
491.55	7347.94
491.754	7511.78
491.958	7526.11
492.161	7464.68
492.365	7433.96
492.569	7585.51
492.772	7542.5
492.976	7601.89
493.18	7493.35
493.383	7939.8
493.587	7988.96
493.79	7960.28
493.994	7782.11
494.197	8093.4
494.401	7974.62
494.605	7937.76
494.808	8013.53
495.012	8027.87
495.215	8146.65
495.419	8376.02
495.622	8265.43
495.825	8306.39
496.029	8390.36
496.232	8412.88
496.436	8505.04
496.639	8726.22
496.843	8601.3
497.046	8885.97
497.249	9006.8
497.453	9019.08
497.656	9217.74
497.859	9156.3
498.063	9158.35
498.266	9432.77
498.469	9379.53
498.673	9377.48
498.876	9512.64
499.079	9764.54
499.282	9815.74
499.485	10061.5
499.689	9916.09
499.892	9903.81
500.095	10184.38
500.298	10231.48
500.501	10133.18
500.705	10645.17
500.908	10467
501.111	10606.26
501.314	10962.61
501.517	11116.2
501.72	11177.64
501.923	11038.38
502.126	11255.47
502.329	11501.22
502.532	11593.38
502.735	11818.66
502.938	11927.2
503.141	11726.5
503.344	12134.04
503.547	12189.34
503.75	12426.9
503.953	12492.44
504.156	12541.59
504.359	12902.03
504.562	12893.84
504.765	13080.21
504.968	13203.08
505.17	13362.83
505.373	13549.19
505.576	13547.14
505.779	13848.19
505.982	13911.68
506.185	14009.98
506.387	14233.21
506.59	14401.15
506.793	14644.85
506.996	14528.12
507.198	14837.36
507.401	14734.96
507.604	15265.39
507.807	15044.21
508.009	15556.2
508.212	16039.52
508.415	15709.8
508.617	16049.76
508.82	16252.51
509.022	16055.9
509.225	16721.49
509.428	16432.73
509.63	16807.51
509.833	17016.4
510.035	17092.18
510.238	17182.29
510.44	17426
510.643	17694.28
510.845	17770.05
511.048	17833.54
511.25	18202.18
511.453	18030.15
511.655	18845.24
511.858	18558.52
512.06	18816.57
512.262	18857.53
512.465	18839.09
512.667	19232.3
512.87	19340.85
513.072	19615.27
513.274	19852.84
513.477	19920.42
513.679	20373.02
513.881	20588.06
514.084	20450.85
514.286	20586.01
514.488	20659.74
514.69	21495.31
514.893	21270.03
515.095	21632.52
515.297	22165
515.499	21923.33
515.701	22029.83
515.904	22582.78
516.106	22662.65
516.308	22857.21
516.51	22840.82
516.712	22955.51
516.914	23285.23
517.116	23776.75
517.318	23561.71
517.52	24030.69
517.722	23975.4
517.925	24391.14
518.127	24407.52
518.329	24841.69
518.531	24972.76
518.733	25187.8
518.935	25626.06
519.136	25413.07
519.338	25896.39
519.54	26031.56
519.742	26230.21
519.944	26381.76
520.146	27086.26
520.348	26992.06
520.55	26975.67
520.752	27352.5
520.954	27762.09
521.155	27456.95
521.357	28171.69
521.559	28321.19
521.761	28605.86
521.963	28501.41
522.164	28839.33
522.366	28923.29
522.568	29326.74
522.77	29388.18
522.971	29650.32
523.173	29449.62
523.375	30016.91
523.576	29963.66
523.778	29990.28
523.98	30610.82
524.181	30651.78
524.383	30608.77
524.584	31047.04
524.786	31030.65
524.988	31032.7
525.189	31450.49
525.391	31612.27
525.592	31753.58
525.794	32077.16
525.995	31739.25
526.197	32486.76
526.398	32216.43
526.6	32593.25
526.801	32421.22
527.003	32730.47
527.204	32791.9
527.406	33164.64
527.607	33150.3
527.808	33473.88
528.01	32615.78
528.211	33256.79
528.412	34084.17
528.614	33580.37
528.815	33553.75
529.016	34026.83
529.218	33883.47
529.419	34143.56
529.62	34078.03
529.822	34071.89
530.023	34053.45
530.224	34225.48
530.425	34213.2
530.626	34512.2
530.828	34334.03
531.029	34866.5
531.23	34557.25
531.431	34270.54
531.632	34714.95
531.833	35333.43
532.035	34942.27
532.236	34141.52
532.437	34784.58
532.638	34671.94
532.839	35278.14
533.04	35085.63
533.241	34766.15
533.442	35292.47
533.643	35106.11
533.844	34983.23
534.045	35472.7
534.246	34581.83
534.447	35306.81
534.648	35278.14
534.849	35409.21
535.05	35011.9
535.251	35114.3
535.451	35214.65
535.652	35378.49
535.853	34891.07
536.054	35319.1
536.255	35632.44
536.456	34975.04
536.657	35638.58
536.857	35429.69
537.058	35167.55
537.259	35738.93
537.46	35829.04
537.66	35411.26
537.861	35601.72
538.062	35489.08
538.263	35646.77
538.463	35327.29
538.664	35523.9
538.865	35403.07
539.065	35675.44
539.266	35069.25
539.466	35917.11
539.667	35358.01
539.868	35685.68
540.068	35581.24
540.269	35503.42
540.469	35353.91
540.67	35194.17
540.87	35536.18
541.071	35282.23
541.271	35429.69
541.472	35552.57
541.672	35265.85
541.873	35683.64
542.073	35038.53
542.274	35525.94
542.474	35454.26
542.675	35102.01
542.875	35255.61
543.075	35511.61
543.276	35274.04
543.476	35556.66
543.676	35454.26
543.877	35509.56
544.077	35274.04
544.277	35296.57
544.478	35597.62
544.678	35513.66
544.878	35458.36
545.078	35579.19
545.279	35134.78
545.479	35511.61
545.679	35527.99
545.879	35380.54
546.079	35585.33
546.28	35491.13
546.48	35073.34
546.68	35622.2
546.88	35441.98
547.08	35644.73
547.28	35343.67
547.48	35018.05
547.68	35298.62
547.88	35196.22
548.081	35345.72
548.281	35532.09
548.481	35263.8
548.681	35851.57
548.881	35382.59
549.081	35421.5
549.28	35231.04
549.48	35566.9
549.68	35124.54
549.88	35939.63
550.08	35284.28
550.28	35355.96
550.48	35315
550.68	35808.56
550.88	35007.81
551.08	35351.87
551.279	35353.91
551.479	35243.32
551.679	35128.64
551.879	35048.77
552.079	35353.91
552.278	35411.26
552.478	35257.66
552.678	35364.15
552.878	35331.39
553.077	35331.39
553.277	34848.07
553.477	35646.77
553.676	35294.52
553.876	35204.41
554.076	34970.94
554.275	35288.38
554.475	34651.46
554.674	34872.64
554.874	35292.47
555.074	34737.48
555.273	34929.98
555.473	35142.97
555.672	34721.09
555.872	34880.83
556.071	35034.43
556.271	35069.25
556.47	34665.8
556.67	34426.18
556.869	34684.23
557.068	35009.86
557.268	34725.19
557.467	34432.33
557.667	34764.1
557.866	34426.18
558.065	34135.37
558.265	34213.2
558.464	33848.66
558.663	34413.9
558.863	34092.37
559.062	34745.67
559.261	33975.63
559.461	34583.88
559.66	33926.48
559.859	34121.04
560.058	33803.6
560.258	34166.09
560.457	33828.18
560.656	34071.89
560.855	33713.49
561.054	34293.07
561.253	33703.25
561.453	33580.37
561.652	33957.2
561.851	33764.69
562.05	33371.48
562.249	33668.44
562.448	33959.25
562.647	33238.36
562.846	33500.5
563.045	33961.3
563.244	33011.04
563.443	33783.12
563.642	32894.3
563.841	33138.01
564.04	33072.48
564.239	33230.17
564.438	32935.26
564.637	33158.49
564.836	33328.47
565.035	32937.31
565.234	33099.1
565.432	32390.5
565.631	32415.08
565.83	32804.19
566.029	32294.25
566.228	32265.58
566.427	32394.6
566.625	32060.78
566.824	31995.25
567.023	32578.92
567.222	31649.14
567.42	32226.67
567.619	32122.22
567.818	31995.25
568.016	31815.02
568.215	32091.5
568.414	31845.74
568.612	31923.57
568.811	31657.33
569.01	31538.55
569.208	31143.29
569.407	31659.38
569.605	30981.5
569.804	31485.3
570.002	30858.62
570.201	31122.81
570.4	30836.09
570.598	31014.27
570.797	30590.34
570.995	30514.56
571.193	30467.46
571.392	30993.79
571.59	30487.94
571.789	30547.33
571.987	30498.18
572.186	30500.23
572.384	30061.96
572.582	30332.29
572.781	30352.77
572.979	30041.48
573.177	30252.42
573.376	30211.46
573.574	29867.41
573.772	30084.49
573.971	29922.7
574.169	29791.63
574.367	29521.3
574.565	29750.67
574.763	29730.19
574.962	29547.92
575.16	28933.53
575.358	29406.61
575.556	28935.58
575.754	29388.18
575.952	29095.32
576.151	29363.61
576.349	29052.31
576.547	29154.71
576.745	28831.13
576.943	28833.18
577.141	28790.17
577.339	28913.05
577.537	28468.64
577.735	28403.11
577.933	28390.82
578.131	28280.23
578.329	28157.35
578.527	28005.8
578.725	28272.04
578.923	28347.81
579.121	27792.81
579.319	28120.49
579.516	27882.92
579.714	27620.78
579.912	27747.76
580.11	28009.9
580.308	27846.06
580.506	27485.62
580.704	27151.8
580.901	27475.38
581.099	27725.23
581.297	27284.92
581.495	27049.4
581.692	27280.82
581.89	26987.96
582.088	27153.85
582.285	27207.09
582.483	27131.32
582.681	26969.53
582.878	26967.48
583.076	26445.25
583.274	26969.53
583.471	26512.83
583.669	26471.87
583.866	26258.88
584.064	26826.17
584.262	26260.93
584.459	26320.32
584.657	26103.24
584.854	26504.64
585.052	25802.19
585.249	26377.67
585.447	26195.4
585.644	25753.04
585.841	25746.89
586.039	26109.38
586.236	25521.62
586.434	25607.63
586.631	25466.32
586.828	25705.93
587.026	25507.28
587.223	25556.43
587.42	25159.13
587.618	25226.71
587.815	25114.07
588.012	24976.86
588.21	24663.52
588.407	25175.51
588.604	25001.43
588.801	24788.44
588.999	24950.23
589.196	24747.48
589.393	24606.17
589.59	24759.77
589.787	24389.09
589.984	24446.43
590.182	24378.85
590.379	24401.38
590.576	24118.76
590.773	24403.42
590.97	23901.67
591.167	24081.89
591.364	23848.43
591.561	24077.8
591.758	23719.4
591.955	23715.31
592.152	24114.66
592.349	23614.96
592.546	23956.97
592.743	23977.45
592.94	23539.18
593.137	23633.39
593.334	23510.51
593.531	23457.26
593.727	23285.23
593.924	23324.15
594.121	22957.56
594.318	23346.67
594.515	22746.62
594.712	23109.11
594.908	22853.11
595.105	22822.39
595.302	22744.57
595.499	22625.79
595.696	22709.75
595.892	22423.04
596.089	22644.22
596.286	22590.97
596.482	22263.3
596.679	22433.28
596.876	22261.25
597.072	21909
597.269	22269.44
597.466	22033.93
597.662	22187.52
597.859	21925.38
598.055	22234.63
598.252	21859.85
598.448	22015.49
598.645	21665.29
598.841	21741.07
599.038	21601.8
599.234	21829.13
599.431	21466.64
599.627	21542.41
599.824	21595.66
600.02	21243.41
600.217	21163.54
600.413	21063.19
600.609	21007.89
600.806	20684.31
601.002	21108.24
601.198	20956.69
601.395	20981.27
601.591	20842.01
601.787	20868.63
601.984	20674.07
602.18	20696.6
602.376	20633.11
602.572	20702.75
602.769	20481.56
602.965	20262.43
603.161	20366.88
603.357	20219.42
603.553	20196.9
603.75	20401.69
603.946	19881.51
604.142	20188.71
604.338	19856.93
604.534	20014.63
604.73	20053.54
604.926	19981.86
605.122	19838.5
605.318	19856.93
605.514	19500.59
605.71	19338.8
605.906	19764.78
606.102	19654.19
606.298	19605.03
606.494	19541.55
606.69	19752.49
606.886	19449.39
607.082	19408.43
607.278	19254.83
607.474	18884.15
607.67	19437.1
607.866	18949.68
608.062	19461.68
608.257	18843.19
608.453	18992.69
608.649	18961.97
608.845	19123.76
609.041	18986.55
609.236	18863.67
609.432	18677.3
609.628	18755.13
609.824	18687.54
610.019	18740.79
610.215	18497.08
610.411	18970.16
610.606	18474.56
610.802	18660.92
610.998	18406.97
611.193	18503.23
611.389	18630.2
611.584	18388.54
611.78	18501.18
611.976	18333.25
612.171	18318.91
612.367	18236.99
612.562	18333.25
612.758	18167.36
612.953	18310.72
613.149	18372.16
613.344	18058.82
613.539	18386.49
613.735	17974.85
613.93	18097.73
614.126	18116.16
614.321	18251.33
614.517	17923.65
614.712	18024
614.907	17681.99
615.103	17856.07
615.298	17839.69
615.493	18021.95
615.688	17534.54
615.884	18071.11
616.079	17426
616.274	18007.62
616.47	17788.49
616.665	17677.9
616.86	17737.29
617.055	17501.77
617.25	17249.87
617.445	17442.38
617.641	17284.69
617.836	17546.83
618.031	17325.64
618.226	17364.56
618.421	17366.6
618.616	17286.73
618.811	17043.03
619.006	17210.96
619.201	16666.2
619.396	17120.85
619.591	16852.56
619.786	17038.93
619.981	16592.47
620.176	16760.41
620.371	16635.48
620.566	16584.28
620.761	16459.35
620.956	16445.02
621.151	16518.75
621.346	16340.57
621.541	16084.58
621.735	16410.2
621.93	15863.4
622.125	15941.22
622.32	15902.31
622.515	15978.08
622.709	15783.52
622.904	15767.14
623.099	15441.51
623.294	15623.78
623.488	15373.93
623.683	15552.1
623.878	15281.77
624.072	15431.27
624.267	15259.24
624.462	15353.45
624.656	15201.9
624.851	15322.73
625.046	14882.42
625.24	14851.7
625.435	14845.55
625.629	14769.78
625.824	14700.15
626.018	14554.74
626.213	14149.25
626.407	14562.94
626.602	14065.28
626.796	14247.55
626.991	14276.22
627.185	14159.49
627.38	14048.89
627.574	13846.15
627.768	13846.15
627.963	13919.87
628.157	13563.53
628.352	13753.99
628.546	13432.46
628.74	13590.15
628.935	13563.53
629.129	13198.99
629.323	13229.71
629.517	13166.22
629.712	13223.56
629.906	13022.86
630.1	12945.04
630.294	12818.07
630.489	12865.17
630.683	13016.72
630.877	12736.15
631.071	12566.17
631.265	12947.09
631.459	12580.5
631.653	12709.52
631.848	12629.65
632.042	12416.66
632.236	12418.71
632.43	12238.49
632.624	12248.73
632.818	12160.67
633.012	12209.82
633.206	12119.71
633.4	12091.04
633.594	11962.01
633.788	11880.1
633.982	11955.87
634.176	11493.03
634.369	11853.47
634.563	11601.57
634.757	11579.04
634.951	11683.49
635.145	11513.51
635.339	11523.75
635.533	11458.21
635.726	11392.68
635.92	11161.26
636.114	11314.86
636.308	11093.68
636.501	11042.48
636.695	10958.51
636.889	11048.62
637.083	10958.51
637.276	10917.55
637.47	10827.44
637.664	10753.71
637.857	10557.11
638.051	10720.95
638.244	10405.56
638.438	10432.18
638.632	10372.79
638.825	10481.33
639.019	10462.9
639.212	10206.91
639.406	10305.21
639.599	10434.23
639.793	10245.82
639.986	9993.92
640.18	10165.95
640.373	9959.1
640.567	9963.2
640.76	9987.77
640.954	9944.77
641.147	9940.67
641.34	9780.93
641.534	9762.5
641.727	9623.23
641.92	9604.8
642.114	9631.43
642.307	9606.85
642.5	9703.11
642.694	9295.56
642.887	9340.61
643.08	9471.68
643.273	9125.58
643.467	9182.92
643.66	9166.54
643.853	9182.92
644.046	8980.17
644.239	9047.76
644.432	8898.25
644.626	8937.16
644.819	8756.94
645.012	8863.44
645.205	8650.45
645.398	8961.74
645.591	8933.07
645.784	8689.36
645.977	8589.01
646.17	8566.48
646.363	8802
646.556	8459.99
646.749	8474.32
646.942	8601.3
647.135	8230.62
647.328	8093.4
647.521	8267.48
647.714	8079.07
647.907	8181.46
648.099	8261.34
648.292	8281.81
648.485	8038.11
648.678	8021.72
648.871	7917.28
649.064	7900.89
649.256	7866.08
649.449	7814.88
649.642	7995.1
649.835	7737.06
650.027	7802.59
650.22	7759.58
650.413	7743.2
650.605	7608.03
650.798	7644.9
650.991	7610.08
651.183	7571.17
651.376	7517.92
651.568	7505.63
651.761	7356.13
651.954	7442.15
652.146	7540.45
652.339	7388.9
652.531	7276.26
652.724	7214.82
652.916	7167.72
653.109	7180.01
653.301	7249.64
653.494	7042.79
653.686	6989.55
653.879	7048.94
654.071	7014.12
654.263	6962.92
654.456	6985.45
654.648	6938.35
654.84	6829.81
655.033	6842.09
655.225	6891.24
655.417	6678.26
655.61	6713.07
655.802	6758.13
655.994	6629.1
656.186	6803.18
656.379	6633.2
656.571	6684.4
656.763	6573.81
656.955	6502.13
657.148	6559.47
657.34	6473.46
657.532	6393.59
657.724	6352.63
657.916	6518.51
658.108	6352.63
658.3	6233.85
658.492	6256.37
658.684	6063.86
658.876	6203.13
659.068	6110.97
659.26	6076.15
659.452	6180.6
659.644	5981.95
659.836	6006.52
660.028	6076.15
660.22	6045.43
660.412	6008.57
660.604	5863.16
660.796	5973.75
660.988	5900.03
661.18	5713.66
661.372	5861.12
661.563	5783.29
661.755	5834.49
661.947	5869.31
662.139	5705.47
662.331	5707.52
662.522	5707.52
662.714	5529.34
662.906	5564.16
663.097	5619.46
663.289	5510.91
663.481	5531.39
663.673	5637.89
663.864	5496.58
664.056	5308.16
664.247	5625.6
664.439	5271.3
664.631	5400.32
664.822	5320.45
665.014	5302.02
665.205	5484.29
665.397	5195.53
665.588	5209.86
665.78	5168.9
665.971	5166.85
666.163	5175.05
666.354	5111.56
666.546	5203.72
666.737	5068.55
666.929	4992.78
667.12	4966.15
667.311	5043.98
667.503	4818.7
667.694	5074.7
667.885	4962.06
668.077	4992.78
668.268	4894.47
668.459	4869.9
668.651	4822.8
668.842	4777.74
669.033	4646.67
669.224	4796.17
669.416	4888.33
669.607	4738.83
669.798	4624.14
669.989	4779.79
670.18	4642.57
670.371	4742.92
670.563	4632.33
670.754	4548.37
670.945	4542.22
671.136	4736.78
671.327	4517.65
671.518	4538.13
671.709	4597.52
671.9	4630.29
672.091	4665.1
672.282	4472.59
672.473	4435.73
672.664	4419.35
672.855	4380.43
673.046	4513.55
673.237	4370.19
673.428	4359.95
673.619	4376.34
673.809	4265.75
674	4278.04
674.191	4286.23
674.382	4286.23
674.573	4220.69
674.764	4194.07
674.954	4239.12
675.145	4089.62
675.336	4136.73
675.527	4198.17
675.717	4171.54
675.908	4024.09
676.099	4200.21
676.289	4167.45
676.48	4097.81
676.671	4060.95
676.861	4175.64
677.052	3958.55
677.243	4005.66
677.433	3915.55
677.624	4022.04
677.814	4054.81
678.005	3948.31
678.195	3983.13
678.386	4001.56
678.576	3868.44
678.767	3876.63
678.957	3905.31
679.148	4005.66
679.338	3950.36
679.529	3733.28
679.719	3864.35
679.909	3954.46
680.1	3897.11
680.29	3827.48
680.481	3757.85
680.671	3807
680.861	3788.57
681.052	3782.43
681.242	3798.81
681.432	3833.63
681.622	3743.52
681.813	3751.71
682.003	3768.09
682.193	3720.99
682.383	3827.48
682.573	3655.45
682.764	3776.28
682.954	3618.59
683.144	3807
683.334	3692.32
683.524	3684.13
683.714	3657.5
683.904	3575.58
684.094	3780.38
684.284	3514.14
684.474	3624.73
684.664	3710.75
684.854	3608.35
685.044	3520.29
685.234	3440.42
685.424	3520.29
685.614	3585.82
685.804	3608.35
685.994	3544.86
686.184	3565.34
686.374	3526.43
686.564	3430.18
686.753	3491.62
686.943	3295.01
687.133	3372.83
687.323	3458.85
687.513	3356.45
687.702	3456.8
687.892	3381.03
688.082	3389.22
688.272	3401.51
688.461	3290.92
688.651	3344.16
688.841	3364.64
689.03	3227.43
689.22	3313.44
689.41	3313.44
689.599	3378.98
689.789	3340.07
689.979	3331.87
690.168	3309.35
690.358	3252
690.547	3151.65
690.737	3258.15
690.926	3258.15
691.116	3129.13
691.305	3155.75
691.495	3249.96
691.684	3030.82
691.874	3170.08
692.063	3051.3
692.252	3127.08
692.442	3155.75
692.631	3122.98
692.82	3135.27
693.01	3059.49
693.199	2928.42
693.388	3012.39
693.578	3170.08
693.767	2953
693.956	3008.3
694.146	3016.49
694.335	2936.62
694.524	3069.73
694.713	3034.92
694.902	2967.34
695.092	2953
695.281	2852.65
695.47	2998.06
695.659	2914.09
695.848	2869.03
696.037	2942.76
696.226	2899.75
696.415	2914.09
696.604	2963.24
696.793	2840.36
696.982	2877.23
697.171	2860.84
697.36	2834.22
697.549	2920.23
697.738	2840.36
697.927	2866.99
698.116	2760.49
698.305	2875.18
698.494	2705.2
698.683	2780.97
698.872	2856.75
699.061	2789.16
699.25	2846.51
699.438	2735.92
699.627	2787.11
699.816	2729.77
700.005	2866.99
700.193	2740.01
700.382	2928.42
700.571	2754.35
700.76	2901.8
700.948	2864.94
701.137	2746.16
701.326	2811.69
701.514	2754.35
701.703	2750.25
701.892	2762.54
702.08	2770.73
702.269	2752.3
702.457	2684.72
702.646	2721.58
702.834	2756.4
703.023	2660.14
703.212	2838.31
703.4	2735.92
703.589	2789.16
703.777	2764.59
703.965	2750.25
704.154	2709.29
704.342	2809.64
704.531	2744.11
704.719	2778.92
704.907	2764.59
705.096	2617.13
705.284	2580.27
705.472	2760.49
705.661	2709.29
705.849	2731.82
706.037	2754.35
706.226	2709.29
706.414	2672.43
706.602	2469.68
706.79	2713.39
706.979	2707.24
707.167	2758.44
707.355	2703.15
707.543	2717.48
707.731	2625.33
707.919	2828.07
708.107	2721.58
708.296	2557.74
708.484	2660.14
708.672	2711.34
708.86	2629.42
709.048	2674.48
709.236	2522.93
709.424	2703.15
709.612	2649.9
709.8	2592.56
709.988	2688.81
710.176	2570.03
710.364	2662.19
710.551	2561.84
710.739	2543.41
710.927	2629.42
711.115	2584.37
711.303	2600.75
711.491	2594.61
711.679	2488.11
711.866	2643.76
712.054	2672.43
712.242	2580.27
712.43	2633.52
712.617	2516.78
712.805	2586.41
712.993	2639.66
713.181	2617.13
713.368	2561.84
713.556	2574.13
713.744	2604.85
713.931	2686.76
714.119	2471.73
714.306	2520.88
714.494	2475.82
714.682	2627.37
714.869	2729.77
715.057	2684.72
715.244	2510.64
715.432	2666.28
715.619	2707.24
715.807	2570.03
715.994	2625.33
716.182	2567.98
716.369	2451.25
716.556	2537.26
716.744	2533.17
716.931	2455.34
717.119	2592.56
717.306	2590.51
717.493	2604.85
717.681	2451.25
717.868	2502.45
718.055	2494.26
718.242	2369.33
718.43	2549.55
718.617	2516.78
718.804	2561.84
718.991	2537.26
719.179	2531.12
719.366	2426.67
719.553	2457.39
719.74	2504.5
719.927	2391.86
720.114	2375.47
720.301	2463.54
720.488	2453.3
720.676	2475.82
720.863	2463.54
721.05	2533.17
721.237	2426.67
721.424	2494.26
721.611	2639.66
721.798	2475.82
721.985	2402.1
722.172	2434.86
722.358	2385.71
722.545	2475.82
722.732	2445.1
722.919	2461.49
723.106	2504.5
723.293	2410.29
723.48	2365.23
723.667	2543.41
723.853	2422.58
724.04	2404.14
724.227	2441.01
724.414	2422.58
724.6	2400.05
724.787	2299.7
724.974	2424.62
725.161	2443.06
725.347	2320.18
725.534	2504.5
725.72	2418.48
725.907	2410.29
726.094	2469.68
726.28	2492.21
726.467	2455.34
726.653	2348.85
726.84	2334.51
727.027	2496.3
727.213	2432.82
727.4	2361.14
727.586	2432.82
727.773	2385.71
727.959	2398
728.145	2350.9
728.332	2285.36
728.518	2389.81
728.705	2354.99
728.891	2340.66
729.077	2336.56
729.264	2352.95
729.45	2314.03
729.636	2406.19
729.823	2383.66
730.009	2447.15
730.195	2393.9
730.382	2447.15
730.568	2234.16
730.754	2377.52
730.94	2348.85
731.126	2461.49
731.313	2377.52
731.499	2377.52
731.685	2365.23
731.871	2309.94
732.057	2303.79
732.243	2484.02
732.429	2420.53
732.615	2404.14
732.801	2410.29
732.987	2307.89
733.173	2318.13
733.359	2320.18
733.545	2285.36
733.731	2336.56
733.917	2301.75
734.103	2445.1
734.289	2260.79
734.475	2291.51
734.661	2379.57
734.847	2316.08
735.033	2328.37
735.219	2359.09
735.404	2381.62
735.59	2311.99
735.776	2201.4
735.962	2268.98
736.148	2160.44
736.333	2320.18
736.519	2295.6
736.705	2256.69
736.89	2256.69
737.076	2244.4
737.262	2225.97
737.447	2299.7
737.633	2191.16
737.819	2350.9
738.004	2172.72
738.19	2393.9
738.375	2213.68
738.561	2228.02
738.747	2139.96
738.932	2248.5
739.118	2180.92
739.303	2334.51
739.489	2166.58
739.674	2076.47
739.859	2101.05
740.045	2211.64
740.23	2271.03
740.416	2125.62
740.601	2144.05
740.786	2084.66
740.972	2176.82
741.157	2264.88
741.342	2025.27
741.528	2119.48
741.713	1972.02
741.898	2078.52
742.084	2094.9
742.269	2176.82
742.454	2078.52
742.639	2121.52
742.824	2058.04
743.01	2017.08
743.195	2162.48
743.38	2068.28
743.565	1961.78
743.75	1988.41
743.935	2004.79
744.12	2058.04
744.305	1914.68
744.49	2002.74
744.675	2041.65
744.86	2058.04
745.045	1888.06
745.23	1965.88
745.415	1865.53
745.6	1963.83
745.785	1808.19
745.97	1883.96
746.155	1875.77
746.34	1875.77
746.525	1836.86
746.71	1916.73
746.895	1793.85
747.079	1759.03
747.264	1867.58
747.449	1834.81
747.634	1881.91
747.819	1853.24
748.003	1818.43
748.188	1775.42
748.373	1759.03
748.557	1797.95
748.742	1845.05
748.927	1736.51
749.111	1726.27
749.296	1752.89
749.481	1699.64
749.665	1738.55
749.85	1695.55
750.034	1648.44
750.219	1713.98
750.404	1726.27
750.588	1709.88
750.773	1582.91
750.957	1685.31
751.141	1509.18
751.326	1691.45
751.51	1515.33
751.695	1552.19
751.879	1558.33
752.064	1578.81
752.248	1572.67
752.432	1580.86
752.617	1605.44
752.801	1541.95
752.985	1441.6
753.17	1498.94
753.354	1431.36
753.538	1464.13
753.722	1400.64
753.907	1478.46
754.091	1398.59
754.275	1513.28
754.459	1439.55
754.643	1351.49
754.828	1363.78
755.012	1357.63
755.196	1433.41
755.38	1460.03
755.564	1320.77
755.748	1443.65
755.932	1337.15
756.116	1392.45
756.3	1328.96
756.484	1298.24
756.668	1441.6
756.852	1257.28
757.036	1306.43
757.22	1310.53
757.404	1328.96
757.588	1271.62
757.772	1238.85
757.956	1292.1
758.14	1257.28
758.323	1288
758.507	1156.93
758.691	1179.46
758.875	1177.41
759.059	1189.7
759.242	1251.14
759.426	1249.09
759.61	1152.84
759.794	1195.84
759.977	1169.22
760.161	1146.69
760.345	1118.02
760.528	1154.88
760.712	1154.88
760.895	1283.91
761.079	1044.29
761.263	1060.68
761.446	1105.73
761.63	1150.79
761.813	1097.54
761.997	1097.54
762.18	1070.92
762.364	1060.68
762.547	1001.29
762.731	1011.53
762.914	1101.64
763.098	964.42
763.281	1011.53
763.464	1107.78
763.648	1027.91
763.831	1050.44
764.015	1027.91
764.198	1046.34
764.381	1083.2
764.564	999.24
764.748	1050.44
764.931	1054.53
765.114	986.95
765.297	1054.53
765.481	986.95
765.664	972.61
765.847	1075.01
766.03	948.04
766.213	933.7
766.397	982.85
766.58	958.28
766.763	1003.33
766.946	1007.43
767.129	923.46
767.312	898.89
767.495	905.03
767.678	884.55
767.861	919.37
768.044	880.46
768.227	915.27
768.41	829.26
768.593	915.27
768.776	896.84
768.959	923.46
769.142	902.98
769.324	939.85
769.507	925.51
769.69	874.31
769.873	847.69
770.056	972.61
770.239	894.79
770.421	900.94
770.604	812.87
770.787	868.17
770.97	888.65
771.152	878.41
771.335	786.25
771.518	907.08
771.7	825.16
771.883	872.26
772.066	847.69
772.248	905.03
772.431	798.54
772.613	884.55
772.796	749.39
772.978	722.76
773.161	945.99
773.343	808.78
773.526	749.39
773.708	743.24
773.891	833.35
774.073	771.91
774.256	739.15
774.438	726.86
774.621	831.3
774.803	726.86
774.985	786.25
775.168	823.11
775.35	689.99
775.532	683.85
775.715	747.34
775.897	702.28
776.079	735.05
776.261	759.63
776.444	661.32
776.626	640.84
776.808	708.43
776.99	683.85
777.173	714.57
777.355	681.8
777.537	712.52
777.719	614.22
777.901	677.71
778.083	651.08
778.265	679.75
778.447	649.04
778.629	689.99
778.811	603.98
778.993	720.71
779.175	661.32
779.357	548.68
779.539	511.82
779.721	550.73
779.903	651.08
780.085	665.42
780.267	657.23
780.449	640.84
780.631	655.18
780.812	589.64
780.994	595.79
781.176	597.84
781.358	632.65
781.54	522.06
781.721	573.26
781.903	581.45
782.085	544.59
782.267	642.89
782.448	575.31
782.63	446.29
782.812	565.07
782.993	548.68
783.175	511.82
783.357	495.44
783.538	542.54
783.72	501.58
783.901	470.86
784.083	509.77
784.264	591.69
784.446	395.09
784.627	431.95
784.809	536.4
784.99	489.29
785.172	417.61
785.353	511.82
785.535	456.53
785.716	440.14
785.897	343.89
786.079	550.73
786.26	444.24
786.441	489.29
786.623	390.99
786.804	434
786.985	483.15
787.167	456.53
787.348	452.43
787.529	472.91
787.71	456.53
787.891	438.09
788.073	352.08
788.254	401.23
788.435	419.66
788.616	431.95
788.797	384.85
788.978	335.7
789.159	380.75
789.34	370.51
789.522	405.33
789.703	362.32
789.884	364.37
790.065	509.77
790.246	399.18
790.427	372.56
790.607	358.22
790.788	364.37
790.969	315.22
791.15	327.5
791.331	343.89
791.512	304.98
791.693	358.22
791.874	378.7
792.054	407.38
792.235	411.47
792.416	268.11
792.597	352.08
792.778	364.37
792.958	339.79
793.139	327.5
793.32	333.65
793.5	347.98
793.681	372.56
793.862	341.84
794.042	249.68
794.223	268.11
794.404	302.93
794.584	280.4
794.765	302.93
794.945	276.31
795.126	313.17
795.306	356.18
795.487	290.64
795.667	343.89
795.848	278.35
796.028	223.06
796.209	280.4
796.389	294.74
796.57	317.26
796.75	247.63
796.93	315.22
797.111	239.44
797.291	270.16
797.471	296.78
797.652	309.07
797.832	239.44
798.012	339.79
798.192	280.4
798.373	194.39
798.553	335.7
798.733	280.4
798.913	196.43
799.093	237.39
799.274	237.39
799.454	313.17
799.634	309.07
799.814	296.78
799.994	206.67
800.174	237.39
800.354	309.07
800.534	233.3
800.714	270.16
800.894	132.95
801.074	194.39
801.254	194.39
801.434	169.81
801.614	145.24
801.794	218.96
801.974	585.55
802.154	214.87
802.334	235.35
802.514	186.19
802.693	208.72
802.873	163.67
803.053	253.78
803.233	186.19
803.413	233.3
803.592	206.67
803.772	212.82
803.952	212.82
804.131	231.25
804.311	200.53
804.491	155.47
804.67	218.96
804.85	245.59
805.03	167.76
805.209	184.15
805.389	206.67
805.568	216.91
805.748	239.44
805.928	198.48
806.107	163.67
806.287	204.63
806.466	231.25
806.646	216.91
806.825	200.53
807.004	212.82
807.184	233.3
807.363	237.39
807.543	178
807.722	218.96
807.901	188.24
808.081	241.49
808.26	214.87
808.439	206.67
808.619	106.32
808.798	194.39
808.977	208.72
809.156	212.82
809.336	235.35
809.515	196.43
809.694	141.14
809.873	218.96
810.052	161.62
810.231	102.23
810.411	147.28
810.59	190.29
810.769	126.8
810.948	192.34
811.127	167.76
811.306	171.86
811.485	196.43
811.664	204.63
811.843	96.08
812.022	137.04
812.201	120.66
812.38	116.56
812.559	89.94
812.737	208.72
812.916	190.29
813.095	149.33
813.274	165.71
813.453	186.19
813.632	216.91
813.811	163.67
813.989	53.08
814.168	169.81
814.347	153.43
814.526	161.62
814.704	153.43
814.883	186.19
815.062	147.28
815.24	167.76
815.419	110.42
815.598	124.76
815.776	79.7
815.955	110.42
816.133	87.89
816.312	112.47
816.49	165.71
816.669	116.56
816.847	79.7
817.026	65.36
817.204	104.28
817.383	94.04
817.561	139.09
817.74	141.14
817.918	151.38
818.097	178
818.275	85.84
818.453	143.19
818.632	161.62
818.81	106.32
818.988	153.43
819.167	110.42
819.345	100.18
819.523	173.91
819.701	67.41
819.879	132.95
820.058	46.93
820.236	180.05
820.414	130.9
820.592	128.85
820.77	163.67
820.948	98.13
821.127	112.47
821.305	116.56
821.483	184.15
821.661	110.42
821.839	108.37
822.017	83.8
822.195	108.37
822.373	184.15
822.551	94.04
822.729	83.8
822.907	81.75
823.085	126.8
823.262	106.32
823.44	24.4
823.618	48.98
823.796	173.91
823.974	143.19
824.152	55.12
824.329	145.24
824.507	71.51
824.685	147.28
824.863	110.42
825.04	85.84
825.218	112.47
825.396	116.56
825.574	139.09
825.751	73.56
825.929	87.89
826.107	-43.18
826.284	118.61
826.462	110.42
826.639	63.32
826.817	83.8
826.994	132.95
827.172	26.45
827.349	79.7
827.527	94.04
827.704	65.36
827.882	67.41
828.059	22.36
828.237	120.66
828.414	67.41
828.591	44.88
828.769	73.56
828.946	81.75
829.124	161.62
829.301	102.23
829.478	-22.7
829.655	151.38
829.833	143.19
830.01	51.03
830.187	79.7
830.364	151.38
830.542	63.32
830.719	151.38
830.896	40.79
831.073	34.64
831.25	180.05
831.427	100.18
831.604	77.65
831.782	57.17
831.959	85.84
832.136	5.97
832.313	46.93
832.49	63.32
832.667	34.64
832.844	10.07
833.021	85.84
833.198	8.02
833.374	81.75
833.551	126.8
833.728	51.03
833.905	55.12
834.082	112.47
834.259	77.65
834.436	169.81
834.612	1.88
834.789	28.5
834.966	130.9
835.143	59.22
835.319	22.36
835.496	114.52
835.673	75.6
835.85	128.85
836.026	38.74
836.203	53.08
836.38	81.75
836.556	102.23
836.733	59.22
836.909	87.89
837.086	79.7
837.262	69.46
837.439	69.46
837.616	48.98
837.792	44.88
837.968	51.03
838.145	20.31
838.321	106.32
838.498	-16.55
838.674	106.32
838.851	91.99
839.027	28.5
839.203	75.6
839.38	75.6
839.556	65.36
839.732	65.36
839.909	81.75
840.085	65.36
840.261	61.27
840.437	98.13
840.614	18.26
840.79	149.33
840.966	104.28
841.142	-34.99
841.318	-26.79
841.494	79.7
841.671	87.89
841.847	75.6
842.023	38.74
842.199	28.5
842.375	145.24
842.551	75.6
842.727	1.88
842.903	3.93
843.079	-16.55
843.255	96.08
843.431	67.41
843.607	32.6
843.783	48.98
843.959	83.8
844.134	30.55
844.31	112.47
844.486	51.03
844.662	14.17
844.838	26.45
845.013	118.61
845.189	100.18
845.365	-0.17
845.541	73.56
845.716	26.45
845.892	32.6
846.068	61.27
846.244	106.32
846.419	102.23
846.595	30.55
846.77	28.5
846.946	1.88
847.122	55.12
847.297	69.46
847.473	10.07
847.648	-30.89
847.824	98.13
847.999	-26.79
848.175	55.12
848.35	73.56
848.526	24.4
848.701	5.97
848.876	75.6
849.052	-18.6
849.227	81.75
849.403	1.88
849.578	3.93
849.753	126.8
849.929	100.18
850.104	14.17
850.279	32.6
850.454	-16.55
850.63	12.12
850.805	73.56
850.98	106.32
851.155	85.84
851.33	-16.55
851.505	40.79
851.681	63.32
851.856	22.36
852.031	-10.41
852.206	20.31
852.381	22.36
852.556	16.21
852.731	51.03
852.906	87.89
853.081	42.84
853.256	18.26
853.431	40.79
853.606	10.07
853.781	18.26
853.956	46.93
854.131	3.93
854.305	-6.31
854.48	10.07
854.655	14.17
854.83	10.07
855.005	46.93
855.18	18.26
855.354	-8.36
855.529	42.84
855.704	-4.27
855.879	-2.22
856.053	32.6
856.228	10.07
856.403	1.88
856.577	-6.31
856.752	-26.79
856.926	71.51
857.101	-47.27
857.276	26.45
857.45	1.88
857.625	89.94
857.799	14.17
857.974	55.12
858.148	59.22
858.323	26.45
858.497	28.5
858.672	96.08
858.846	59.22
859.02	106.32
859.195	51.03
859.369	32.6
859.543	32.6
859.718	14.17
859.892	-47.27
860.066	22.36
860.241	22.36
860.415	-43.18
860.589	26.45
860.763	14.17
860.938	-41.13
861.112	20.31
861.286	-22.7
861.46	-26.79
861.634	38.74
861.808	1.88
861.982	-63.66
862.157	-6.31
862.331	1.88
862.505	32.6
862.679	71.51
862.853	-6.31
863.027	-16.55
863.201	137.04
863.375	-16.55
863.549	-6.31
863.722	30.55
863.896	18.26
864.07	-30.89
864.244	65.36
864.418	77.65
864.592	-26.79
864.766	-22.7
864.939	20.31
865.113	-16.55
865.287	36.69
865.461	42.84
865.634	-22.7
865.808	-28.84
865.982	10.07
866.156	-20.65
866.329	44.88
866.503	1.88
866.676	42.84
866.85	-32.94
867.024	-22.7
867.197	-6.31
867.371	-20.65
867.544	96.08
867.718	-16.55
867.891	75.6
868.065	5.97
868.238	36.69
868.412	34.64
868.585	-67.75
868.759	-26.79
868.932	34.64
869.105	-47.27
869.279	-18.6
869.452	-0.17
869.625	-18.6
869.799	-30.89
869.972	24.4
870.145	1.88
870.319	10.07
870.492	30.55
870.665	34.64
870.838	-43.18
871.011	12.12
871.185	67.41
871.358	46.93
871.531	110.42
871.704	-16.55
871.877	-12.46
872.05	-24.75
872.223	-61.61
872.396	10.07
872.569	69.46
872.742	8.02
872.915	51.03
873.088	-24.75
873.261	-14.51
873.434	-6.31
873.607	-14.51
873.78	1.88
873.953	40.79
874.126	-26.79
874.299	79.7
874.471	55.12
874.644	16.21
874.817	67.41
874.99	87.89
875.163	24.4
875.335	81.75
875.508	85.84
875.681	32.6
875.853	18.26
876.026	36.69
876.199	-24.75
876.371	20.31
876.544	-24.75
876.717	-6.31
876.889	59.22
877.062	-39.08
877.234	8.02
877.407	22.36
877.579	12.12
877.752	-10.41
877.924	65.36
878.097	-80.04
878.269	-20.65
878.442	-0.17
878.614	22.36
878.786	1.88
878.959	18.26
879.131	36.69
879.303	-51.37
879.476	38.74
879.648	42.84
879.82	-41.13
879.993	18.26
880.165	-61.61
880.337	-49.32
880.509	3.93
880.681	30.55
880.854	-14.51
881.026	-34.99
881.198	143.19
881.37	-2.22
881.542	63.32
881.714	-28.84
881.886	32.6
882.058	32.6
882.23	-14.51
882.402	26.45
882.574	14.17
882.746	-6.31
882.918	81.75
883.09	-26.79
883.262	32.6
883.434	-112.81
883.606	-75.95
883.778	18.26
883.95	63.32
884.122	-65.71
884.293	-4.27
884.465	-65.71
884.637	-26.79
884.809	12.12
884.98	-10.41
885.152	-45.23
885.324	3.93
885.496	34.64
885.667	10.07
885.839	-39.08
886.011	51.03
886.182	10.07
886.354	46.93
886.525	53.08
886.697	-22.7
886.869	-16.55
887.04	-53.42
887.212	1.88
887.383	-12.46
887.555	-59.56
887.726	-63.66
887.897	10.07
888.069	36.69
888.24	26.45
888.412	53.08
888.583	-32.94
888.754	5.97
888.926	24.4
889.097	44.88
889.268	16.21
889.44	-63.66
889.611	65.36
889.782	-47.27
889.953	-45.23
890.125	-6.31
890.296	-41.13
890.467	-45.23
890.638	-18.6
890.809	-10.41
890.98	-37.03
891.151	-63.66
891.323	-26.79
891.494	28.5
891.665	59.22
891.836	5.97
892.007	-47.27
892.178	42.84
892.349	-20.65
892.52	-16.55
892.691	38.74
892.862	-2.22
893.032	42.84
893.203	8.02
893.374	-43.18
893.545	-8.36
893.716	-18.6
893.887	-24.75
894.057	-61.61
894.228	10.07
894.399	-67.75
894.57	91.99
894.74	-51.37
894.911	10.07
895.082	-24.75
895.253	61.27
895.423	-22.7
895.594	69.46
895.764	-10.41
895.935	48.98
896.106	57.17
896.276	-59.56
896.447	30.55
896.617	-28.84
896.788	-71.85
896.958	-8.36
897.129	-67.75
897.299	-18.6
897.47	10.07
897.64	51.03
897.81	-20.65
897.981	18.26
898.151	65.36
898.322	38.74
898.492	18.26
898.662	-59.56
898.832	-14.51
899.003	24.4
899.173	-37.03
899.343	-57.51
899.513	-63.66
