Data from USB4F104151__187__11-09-41-861.txt Node

Date: Wed Mar 12 11:09:41 EDT 2025
User: louis
Spectrometer: USB4F10415
Trigger mode: 4
Integration Time (sec): 2.000000E-2
Scans to average: 1
Electric dark correction enabled: true
Nonlinearity correction enabled: false
Boxcar width: 0
XAxis mode: Wavelengths
Number of Pixels in Spectrum: 3648
>>>>>Begin Spectral Data<<<<<
178.204	-57.51
178.424	-57.51
178.644	-57.51
178.864	-67.75
179.084	-106.67
179.304	8.02
179.524	40.79
179.744	16.21
179.964	-8.36
180.184	-22.7
180.404	-16.55
180.624	-0.17
180.844	18.26
181.064	-34.99
181.283	10.07
181.503	-26.79
181.723	16.21
181.943	10.07
182.163	53.08
182.383	-39.08
182.602	-30.89
182.822	-14.51
183.042	3.93
183.262	-65.71
183.482	42.84
183.701	55.12
183.921	-28.84
184.141	-102.57
184.361	57.17
184.58	-0.17
184.8	-16.55
185.02	3.93
185.239	-28.84
185.459	-22.7
185.679	-18.6
185.898	-51.37
186.118	36.69
186.338	67.41
186.557	3.93
186.777	1.88
186.997	85.84
187.216	-18.6
187.436	38.74
187.655	28.5
187.875	85.84
188.095	-12.46
188.314	12.12
188.534	-0.17
188.753	-0.17
188.973	-8.36
189.192	-8.36
189.412	55.12
189.631	18.26
189.851	-32.94
190.07	46.93
190.29	-71.85
190.509	55.12
190.729	-30.89
190.948	3.93
191.168	124.76
191.387	20.31
191.607	-4.27
191.826	-8.36
192.045	-43.18
192.265	-6.31
192.484	-8.36
192.704	-37.03
192.923	-22.7
193.142	-10.41
193.362	40.79
193.581	71.51
193.8	-12.46
194.02	46.93
194.239	-10.41
194.458	-14.51
194.678	18.26
194.897	44.88
195.116	-10.41
195.335	1.88
195.555	-73.9
195.774	-0.17
195.993	28.5
196.212	-10.41
196.432	-20.65
196.651	-53.42
196.87	-24.75
197.089	79.7
197.308	42.84
197.528	8.02
197.747	-51.37
197.966	46.93
198.185	28.5
198.404	26.45
198.623	24.4
198.842	28.5
199.062	30.55
199.281	-12.46
199.5	38.74
199.719	36.69
199.938	40.79
200.157	65.36
200.376	-34.99
200.595	-22.7
200.814	38.74
201.033	-4.27
201.252	-22.7
201.471	75.6
201.69	63.32
201.909	-18.6
202.128	-6.31
202.347	-20.65
202.566	-37.03
202.785	-37.03
203.004	22.36
203.223	85.84
203.442	-37.03
203.661	61.27
203.879	-6.31
204.098	12.12
204.317	-53.42
204.536	51.03
204.755	1.88
204.974	-63.66
205.193	10.07
205.411	65.36
205.63	-67.75
205.849	-43.18
206.068	-8.36
206.287	-71.85
206.505	40.79
206.724	-53.42
206.943	5.97
207.162	32.6
207.381	-22.7
207.599	46.93
207.818	-4.27
208.037	-12.46
208.255	32.6
208.474	40.79
208.693	5.97
208.911	-32.94
209.13	3.93
209.349	63.32
209.567	-12.46
209.786	79.7
210.005	-28.84
210.223	-82.09
210.442	-67.75
210.661	30.55
210.879	3.93
211.098	-26.79
211.316	24.4
211.535	-8.36
211.753	-4.27
211.972	3.93
212.191	-45.23
212.409	-0.17
212.628	-8.36
212.846	-10.41
213.065	5.97
213.283	-4.27
213.502	-53.42
213.72	14.17
213.938	28.5
214.157	18.26
214.375	24.4
214.594	-18.6
214.812	16.21
215.031	34.64
215.249	26.45
215.467	16.21
215.686	55.12
215.904	-0.17
216.122	-32.94
216.341	135
216.559	14.17
216.778	26.45
216.996	32.6
217.214	75.6
217.432	-20.65
217.651	-32.94
217.869	12.12
218.087	-8.36
218.306	3.93
218.524	-39.08
218.742	-0.17
218.96	36.69
219.179	-82.09
219.397	75.6
219.615	48.98
219.833	32.6
220.051	3.93
220.27	1.88
220.488	-14.51
220.706	112.47
220.924	22.36
221.142	24.4
221.36	8.02
221.578	30.55
221.796	18.26
222.015	53.08
222.233	-28.84
222.451	40.79
222.669	59.22
222.887	-16.55
223.105	-41.13
223.323	-12.46
223.541	-49.32
223.759	-12.46
223.977	10.07
224.195	-24.75
224.413	-2.22
224.631	132.95
224.849	-22.7
225.067	-51.37
225.285	-37.03
225.503	69.46
225.721	-61.61
225.939	-2.22
226.157	-0.17
226.375	34.64
226.592	-4.27
226.81	71.51
227.028	24.4
227.246	59.22
227.464	-8.36
227.682	36.69
227.9	32.6
228.117	-12.46
228.335	14.17
228.553	32.6
228.771	61.27
228.989	-34.99
229.206	65.36
229.424	24.4
229.642	-4.27
229.86	-55.47
230.077	12.12
230.295	-16.55
230.513	-2.22
230.731	30.55
230.948	32.6
231.166	36.69
231.384	36.69
231.601	38.74
231.819	-8.36
232.037	-41.13
232.254	28.5
232.472	-4.27
232.689	-63.66
232.907	-2.22
233.125	-49.32
233.342	-0.17
233.56	30.55
233.777	34.64
233.995	10.07
234.213	71.51
234.43	-2.22
234.648	-14.51
234.865	30.55
235.083	42.84
235.3	-71.85
235.518	36.69
235.735	-18.6
235.953	-0.17
236.17	26.45
236.388	40.79
236.605	-14.51
236.822	85.84
237.04	42.84
237.257	18.26
237.475	-30.89
237.692	38.74
237.909	-28.84
238.127	-20.65
238.344	102.23
238.562	44.88
238.779	-47.27
238.996	10.07
239.214	-32.94
239.431	5.97
239.648	-16.55
239.865	8.02
240.083	18.26
240.3	22.36
240.517	-20.65
240.735	22.36
240.952	26.45
241.169	81.75
241.386	42.84
241.603	-59.56
241.821	-57.51
242.038	38.74
242.255	73.56
242.472	-22.7
242.689	-2.22
242.907	30.55
243.124	-8.36
243.341	85.84
243.558	-77.99
243.775	-49.32
243.992	26.45
244.209	32.6
244.426	-8.36
244.643	53.08
244.86	51.03
245.078	-37.03
245.295	-55.47
245.512	-2.22
245.729	18.26
245.946	81.75
246.163	-34.99
246.38	48.98
246.597	24.4
246.814	28.5
247.031	-16.55
247.248	46.93
247.464	20.31
247.681	26.45
247.898	102.23
248.115	-43.18
248.332	73.56
248.549	59.22
248.766	100.18
248.983	81.75
249.2	22.36
249.417	51.03
249.633	-8.36
249.85	3.93
250.067	24.4
250.284	55.12
250.501	89.94
250.717	51.03
250.934	-2.22
251.151	-18.6
251.368	40.79
251.585	22.36
251.801	-0.17
252.018	-41.13
252.235	73.56
252.451	-4.27
252.668	-4.27
252.885	61.27
253.102	77.65
253.318	16.21
253.535	30.55
253.752	40.79
253.968	-14.51
254.185	40.79
254.401	18.26
254.618	22.36
254.835	16.21
255.051	-8.36
255.268	-0.17
255.484	59.22
255.701	65.36
255.917	36.69
256.134	-30.89
256.351	12.12
256.567	-4.27
256.784	44.88
257	-26.79
257.217	-47.27
257.433	-2.22
257.65	-12.46
257.866	-20.65
258.082	-26.79
258.299	1.88
258.515	26.45
258.732	18.26
258.948	73.56
259.165	32.6
259.381	3.93
259.597	-24.75
259.814	-24.75
260.03	87.89
260.246	14.17
260.463	12.12
260.679	-18.6
260.895	-28.84
261.112	51.03
261.328	-12.46
261.544	8.02
261.761	57.17
261.977	-26.79
262.193	38.74
262.409	-80.04
262.626	44.88
262.842	-30.89
263.058	57.17
263.274	-10.41
263.49	30.55
263.707	53.08
263.923	8.02
264.139	-26.79
264.355	44.88
264.571	46.93
264.787	-16.55
265.004	104.28
265.22	22.36
265.436	89.94
265.652	-32.94
265.868	-43.18
266.084	-43.18
266.3	-12.46
266.516	-18.6
266.732	-2.22
266.948	-18.6
267.164	89.94
267.38	-18.6
267.596	-0.17
267.812	53.08
268.028	32.6
268.244	69.46
268.46	22.36
268.676	20.31
268.892	-12.46
269.108	8.02
269.324	48.98
269.54	-16.55
269.756	-20.65
269.972	-45.23
270.188	36.69
270.403	-43.18
270.619	55.12
270.835	-14.51
271.051	57.17
271.267	-0.17
271.483	-34.99
271.698	-63.66
271.914	79.7
272.13	16.21
272.346	10.07
272.562	-57.51
272.777	28.5
272.993	18.26
273.209	20.31
273.425	87.89
273.64	34.64
273.856	-30.89
274.072	-4.27
274.287	-14.51
274.503	36.69
274.719	16.21
274.934	-8.36
275.15	-45.23
275.366	-10.41
275.581	-43.18
275.797	30.55
276.012	-28.84
276.228	42.84
276.444	30.55
276.659	1.88
276.875	-63.66
277.09	65.36
277.306	-34.99
277.521	48.98
277.737	-20.65
277.952	10.07
278.168	22.36
278.383	-24.75
278.599	20.31
278.814	34.64
279.03	-12.46
279.245	46.93
279.461	-24.75
279.676	-45.23
279.892	-39.08
280.107	-10.41
280.322	3.93
280.538	14.17
280.753	1.88
280.969	3.93
281.184	-2.22
281.399	-57.51
281.615	102.23
281.83	-18.6
282.045	-41.13
282.26	42.84
282.476	14.17
282.691	65.36
282.906	-12.46
283.122	14.17
283.337	1.88
283.552	61.27
283.767	-12.46
283.983	28.5
284.198	55.12
284.413	-45.23
284.628	44.88
284.843	-30.89
285.058	-2.22
285.274	48.98
285.489	12.12
285.704	24.4
285.919	12.12
286.134	-39.08
286.349	26.45
286.564	18.26
286.779	36.69
286.995	28.5
287.21	-51.37
287.425	38.74
287.64	-14.51
287.855	-10.41
288.07	-2.22
288.285	-10.41
288.5	40.79
288.715	-2.22
288.93	20.31
289.145	-57.51
289.36	5.97
289.575	36.69
289.79	10.07
290.004	26.45
290.219	18.26
290.434	1.88
290.649	-37.03
290.864	-10.41
291.079	-14.51
291.294	44.88
291.509	-49.32
291.724	-22.7
291.938	3.93
292.153	63.32
292.368	5.97
292.583	16.21
292.798	38.74
293.012	1.88
293.227	67.41
293.442	-4.27
293.657	-0.17
293.871	-4.27
294.086	32.6
294.301	38.74
294.516	-30.89
294.73	63.32
294.945	-24.75
295.16	34.64
295.374	32.6
295.589	26.45
295.804	20.31
296.018	32.6
296.233	24.4
296.447	10.07
296.662	18.26
296.877	55.12
297.091	36.69
297.306	46.93
297.52	18.26
297.735	-20.65
297.949	28.5
298.164	51.03
298.378	-8.36
298.593	14.17
298.807	-8.36
299.022	-16.55
299.236	40.79
299.451	-32.94
299.665	67.41
299.88	3.93
300.094	5.97
300.309	-12.46
300.523	-22.7
300.737	-16.55
300.952	-49.32
301.166	8.02
301.381	-2.22
301.595	18.26
301.809	-71.85
302.024	-4.27
302.238	-34.99
302.452	16.21
302.667	-8.36
302.881	24.4
303.095	12.12
303.309	16.21
303.524	-28.84
303.738	63.32
303.952	36.69
304.166	28.5
304.381	-86.19
304.595	67.41
304.809	-18.6
305.023	36.69
305.237	-22.7
305.452	20.31
305.666	42.84
305.88	3.93
306.094	8.02
306.308	-2.22
306.522	-8.36
306.736	106.32
306.95	46.93
307.164	34.64
307.379	-43.18
307.593	61.27
307.807	5.97
308.021	34.64
308.235	-8.36
308.449	-2.22
308.663	24.4
308.877	18.26
309.091	-16.55
309.305	-41.13
309.519	-41.13
309.733	14.17
309.947	77.65
310.161	36.69
310.374	10.07
310.588	-12.46
310.802	32.6
311.016	20.31
311.23	48.98
311.444	-6.31
311.658	36.69
311.872	10.07
312.085	18.26
312.299	61.27
312.513	20.31
312.727	-4.27
312.941	-4.27
313.154	-24.75
313.368	48.98
313.582	-12.46
313.796	30.55
314.009	81.75
314.223	-59.56
314.437	-22.7
314.651	-22.7
314.864	3.93
315.078	63.32
315.292	20.31
315.505	63.32
315.719	71.51
315.933	12.12
316.146	-6.31
316.36	18.26
316.573	26.45
316.787	28.5
317.001	67.41
317.214	-41.13
317.428	20.31
317.641	16.21
317.855	38.74
318.068	69.46
318.282	-2.22
318.495	112.47
318.709	53.08
318.922	51.03
319.136	40.79
319.349	18.26
319.563	-4.27
319.776	-34.99
319.99	-8.36
320.203	48.98
320.417	34.64
320.63	22.36
320.843	16.21
321.057	40.79
321.27	-28.84
321.483	-6.31
321.697	30.55
321.91	-4.27
322.124	44.88
322.337	10.07
322.55	-57.51
322.763	22.36
322.977	10.07
323.19	-22.7
323.403	-20.65
323.617	40.79
323.83	14.17
324.043	34.64
324.256	48.98
324.469	-0.17
324.683	-32.94
324.896	10.07
325.109	-12.46
325.322	10.07
325.535	55.12
325.748	-8.36
325.962	12.12
326.175	8.02
326.388	-4.27
326.601	32.6
326.814	-39.08
327.027	57.17
327.24	89.94
327.453	32.6
327.666	38.74
327.879	65.36
328.092	10.07
328.305	36.69
328.518	-14.51
328.731	44.88
328.944	1.88
329.157	42.84
329.37	-24.75
329.583	-32.94
329.796	44.88
330.009	-12.46
330.222	51.03
330.435	8.02
330.648	81.75
330.861	8.02
331.073	61.27
331.286	-28.84
331.499	38.74
331.712	24.4
331.925	8.02
332.138	22.36
332.35	69.46
332.563	32.6
332.776	20.31
332.989	-2.22
333.202	20.31
333.414	-16.55
333.627	-8.36
333.84	36.69
334.053	-16.55
334.265	-6.31
334.478	36.69
334.691	38.74
334.903	-45.23
335.116	-45.23
335.329	28.5
335.541	12.12
335.754	61.27
335.966	22.36
336.179	26.45
336.392	-4.27
336.604	22.36
336.817	46.93
337.029	77.65
337.242	-49.32
337.454	16.21
337.667	81.75
337.88	12.12
338.092	12.12
338.305	65.36
338.517	-37.03
338.729	14.17
338.942	36.69
339.154	-8.36
339.367	12.12
339.579	32.6
339.792	40.79
340.004	59.22
340.217	-39.08
340.429	57.17
340.641	18.26
340.854	57.17
341.066	-28.84
341.278	71.51
341.491	34.64
341.703	-4.27
341.915	20.31
342.128	24.4
342.34	-22.7
342.552	-71.85
342.764	-43.18
342.977	3.93
343.189	-24.75
343.401	-51.37
343.613	63.32
343.826	24.4
344.038	3.93
344.25	-12.46
344.462	-2.22
344.674	-6.31
344.886	-6.31
345.099	10.07
345.311	16.21
345.523	-2.22
345.735	-10.41
345.947	28.5
346.159	40.79
346.371	57.17
346.583	38.74
346.795	12.12
347.007	-39.08
347.219	24.4
347.431	14.17
347.643	36.69
347.855	12.12
348.067	59.22
348.279	-61.61
348.491	-37.03
348.703	81.75
348.915	18.26
349.127	18.26
349.339	16.21
349.551	26.45
349.763	71.51
349.975	8.02
350.187	3.93
350.399	1.88
350.61	98.13
350.822	-51.37
351.034	14.17
351.246	16.21
351.458	73.56
351.669	59.22
351.881	8.02
352.093	24.4
352.305	8.02
352.517	-14.51
352.728	10.07
352.94	-39.08
353.152	34.64
353.363	44.88
353.575	40.79
353.787	-10.41
353.999	40.79
354.21	-6.31
354.422	51.03
354.633	51.03
354.845	57.17
355.057	12.12
355.268	30.55
355.48	-16.55
355.692	-12.46
355.903	5.97
356.115	55.12
356.326	-12.46
356.538	38.74
356.749	14.17
356.961	53.08
357.172	1.88
357.384	26.45
357.595	46.93
357.807	51.03
358.018	77.65
358.23	-28.84
358.441	28.5
358.653	83.8
358.864	-69.8
359.075	5.97
359.287	69.46
359.498	42.84
359.709	-12.46
359.921	26.45
360.132	40.79
360.344	24.4
360.555	24.4
360.766	1.88
360.977	55.12
361.189	75.6
361.4	59.22
361.611	36.69
361.823	-24.75
362.034	-47.27
362.245	-41.13
362.456	-65.71
362.667	57.17
362.879	12.12
363.09	32.6
363.301	12.12
363.512	-8.36
363.723	48.98
363.935	32.6
364.146	8.02
364.357	85.84
364.568	53.08
364.779	-8.36
364.99	71.51
365.201	128.85
365.412	91.99
365.623	3.93
365.834	-0.17
366.045	36.69
366.256	55.12
366.467	38.74
366.678	55.12
366.889	34.64
367.1	32.6
367.311	8.02
367.522	10.07
367.733	34.64
367.944	22.36
368.155	-12.46
368.366	-6.31
368.577	-10.41
368.788	1.88
368.999	-24.75
369.209	3.93
369.42	83.8
369.631	67.41
369.842	-49.32
370.053	-39.08
370.264	16.21
370.474	-22.7
370.685	3.93
370.896	71.51
371.107	96.08
371.317	30.55
371.528	14.17
371.739	83.8
371.95	-37.03
372.16	-30.89
372.371	-61.61
372.582	5.97
372.792	26.45
373.003	20.31
373.214	34.64
373.424	36.69
373.635	-8.36
373.846	104.28
374.056	-12.46
374.267	24.4
374.477	24.4
374.688	-18.6
374.898	-0.17
375.109	12.12
375.319	-12.46
375.53	73.56
375.74	8.02
375.951	22.36
376.161	46.93
376.372	57.17
376.582	32.6
376.793	94.04
377.003	5.97
377.214	-20.65
377.424	24.4
377.635	135
377.845	61.27
378.055	20.31
378.266	-2.22
378.476	32.6
378.686	-51.37
378.897	22.36
379.107	36.69
379.317	12.12
379.528	-24.75
379.738	5.97
379.948	12.12
380.158	53.08
380.369	30.55
380.579	89.94
380.789	-41.13
380.999	61.27
381.21	-12.46
381.42	-6.31
381.63	-0.17
381.84	-34.99
382.05	-2.22
382.261	46.93
382.471	8.02
382.681	28.5
382.891	-10.41
383.101	-6.31
383.311	8.02
383.521	18.26
383.731	51.03
383.941	-8.36
384.151	26.45
384.361	20.31
384.571	8.02
384.781	102.23
384.991	10.07
385.201	-39.08
385.411	-8.36
385.621	46.93
385.831	-16.55
386.041	-20.65
386.251	89.94
386.461	38.74
386.671	-12.46
386.881	-4.27
387.091	-41.13
387.301	98.13
387.511	-57.51
387.72	26.45
387.93	108.37
388.14	-28.84
388.35	20.31
388.56	65.36
388.769	18.26
388.979	20.31
389.189	16.21
389.399	81.75
389.609	46.93
389.818	14.17
390.028	-2.22
390.238	16.21
390.447	32.6
390.657	-26.79
390.867	-20.65
391.076	44.88
391.286	24.4
391.496	-4.27
391.705	22.36
391.915	38.74
392.125	22.36
392.334	10.07
392.544	65.36
392.753	85.84
392.963	46.93
393.172	57.17
393.382	-6.31
393.591	110.42
393.801	32.6
394.01	34.64
394.22	3.93
394.429	18.26
394.639	-14.51
394.848	-39.08
395.058	98.13
395.267	16.21
395.477	46.93
395.686	71.51
395.895	46.93
396.105	65.36
396.314	12.12
396.524	155.47
396.733	51.03
396.942	63.32
397.152	98.13
397.361	48.98
397.57	3.93
397.78	122.71
397.989	48.98
398.198	94.04
398.407	-43.18
398.617	20.31
398.826	44.88
399.035	5.97
399.244	-10.41
399.453	79.7
399.663	36.69
399.872	69.46
400.081	61.27
400.29	104.28
400.499	-20.65
400.708	-2.22
400.917	89.94
401.127	73.56
401.336	89.94
401.545	159.57
401.754	71.51
401.963	30.55
402.172	-16.55
402.381	67.41
402.59	89.94
402.799	57.17
403.008	73.56
403.217	96.08
403.426	114.52
403.635	73.56
403.844	-0.17
404.053	114.52
404.262	57.17
404.471	141.14
404.68	79.7
404.888	124.76
405.097	8.02
405.306	-2.22
405.515	100.18
405.724	130.9
405.933	102.23
406.142	65.36
406.35	149.33
406.559	77.65
406.768	106.32
406.977	100.18
407.185	24.4
407.394	124.76
407.603	69.46
407.812	151.38
408.02	145.24
408.229	110.42
408.438	126.8
408.646	112.47
408.855	69.46
409.064	178
409.272	83.8
409.481	192.34
409.69	137.04
409.898	118.61
410.107	114.52
410.315	147.28
410.524	186.19
410.733	264.02
410.941	145.24
411.15	167.76
411.358	178
411.567	218.96
411.775	216.91
411.984	231.25
412.192	178
412.401	298.83
412.609	315.22
412.818	300.88
413.026	300.88
413.234	339.79
413.443	266.07
413.651	352.08
413.86	294.74
414.068	278.35
414.276	378.7
414.485	311.12
414.693	304.98
414.901	434
415.11	294.74
415.318	341.84
415.526	431.95
415.734	491.34
415.943	423.76
416.151	419.66
416.359	472.91
416.567	536.4
416.776	468.81
416.984	507.73
417.192	542.54
417.4	513.87
417.608	511.82
417.817	606.03
418.025	630.6
418.233	646.99
418.441	542.54
418.649	649.04
418.857	706.38
419.065	743.24
419.273	726.86
419.481	743.24
419.689	808.78
419.897	819.02
420.105	847.69
420.313	923.46
420.521	853.83
420.729	847.69
420.937	917.32
421.145	1003.33
421.353	982.85
421.561	1136.45
421.769	1097.54
421.977	1169.22
422.185	1089.35
422.393	1140.55
422.601	1226.56
422.809	1328.96
423.017	1326.91
423.224	1474.37
423.432	1353.54
423.64	1384.26
423.848	1519.42
424.056	1539.9
424.263	1625.92
424.471	1556.29
424.679	1681.21
424.887	1724.22
425.094	1750.84
425.302	1699.64
425.51	1867.58
425.718	1894.2
425.925	1931.06
426.133	1953.59
426.341	2150.2
426.548	2211.64
426.756	2154.29
426.964	2242.36
427.171	2375.47
427.379	2379.57
427.586	2408.24
427.794	2469.68
428.001	2670.38
428.209	2848.55
428.417	2621.23
428.624	2899.75
428.832	2907.94
429.039	2754.35
429.247	2737.96
429.454	3073.83
429.662	3295.01
429.869	3065.64
430.076	3137.32
430.284	3366.69
430.491	3405.6
430.699	3587.87
430.906	3542.82
431.114	3632.93
431.321	3700.51
431.528	3706.65
431.736	4036.38
431.943	4202.26
432.15	4161.3
432.358	4286.23
432.565	4370.19
432.772	4353.81
432.979	4448.02
433.187	4634.38
433.394	4568.85
433.601	5033.74
433.808	5033.74
434.016	5019.4
434.223	5127.94
434.43	5519.11
434.637	5375.75
434.844	5799.68
435.052	5885.69
435.259	5908.22
435.466	5850.88
435.673	5854.97
435.88	6188.79
436.087	6598.38
436.294	6598.38
436.501	6364.92
436.708	6491.89
436.915	6704.88
437.122	6989.55
437.329	6809.33
437.537	7237.35
437.743	7347.94
437.95	7241.45
438.157	7608.03
438.364	7773.92
438.571	7821.02
438.778	7909.08
438.985	8595.15
439.192	8271.58
439.399	8670.93
439.606	8251.1
439.813	8605.39
440.02	9469.64
440.227	9301.7
440.433	9113.29
440.64	9520.84
440.847	9367.24
441.054	9594.56
441.261	10229.43
441.467	10188.47
441.674	10569.4
441.881	10690.23
442.088	10720.95
442.294	10419.89
442.501	10964.65
442.708	11112.11
442.914	11564.71
443.121	11730.59
443.328	11511.46
443.534	12609.17
443.741	12080.8
443.948	11982.49
444.154	12871.31
444.361	12674.71
444.568	12803.73
444.774	13022.86
444.981	13063.82
445.187	13264.52
445.394	13799.04
445.6	13719.17
445.807	15083.12
446.013	14362.23
446.22	14614.13
446.426	15083.12
446.633	15279.72
446.839	15726.18
447.046	15156.85
447.252	15924.83
447.459	15877.73
447.665	15914.59
447.871	16823.89
448.078	17325.64
448.284	16692.82
448.491	17022.55
448.697	17692.23
448.903	18200.13
449.11	17997.38
449.316	17671.75
449.522	17931.84
449.728	18503.23
449.935	18814.52
450.141	18775.61
450.347	19099.19
450.553	18357.82
450.76	18572.86
450.966	19385.9
451.172	18859.57
451.378	19469.87
451.584	19158.58
451.791	19570.22
451.997	19512.88
452.203	19590.7
452.409	19850.79
452.615	19818.02
452.821	18927.16
453.027	18673.21
453.233	19627.56
453.44	18624.06
453.646	19101.23
453.852	19158.58
454.058	19158.58
454.264	18808.37
454.47	19189.3
454.676	18759.22
454.882	19404.33
455.088	17471.05
455.294	18093.63
455.5	18064.96
455.705	18570.81
455.911	17669.7
456.117	17151.57
456.323	16846.42
456.529	16088.67
456.735	16901.72
456.941	16434.78
457.147	16229.98
457.352	15591.02
457.558	15412.84
457.764	15568.49
457.97	15187.57
458.176	14734.96
458.381	14775.92
458.587	14055.04
458.793	13995.65
458.999	13268.62
459.204	14339.71
459.41	14009.98
459.616	12975.76
459.821	13094.54
460.027	12951.18
460.233	12576.41
460.438	12136.09
460.644	12105.37
460.85	11507.37
461.055	11521.7
461.261	11378.34
461.466	10532.53
461.672	10182.33
461.878	10981.04
462.083	10305.21
462.289	10102.46
462.494	9848.51
462.7	9533.12
462.905	9242.31
463.111	9610.95
463.316	9707.2
463.522	9541.32
463.727	9367.24
463.932	9377.48
464.138	9193.16
464.343	9391.81
464.549	8988.36
464.754	9434.82
464.959	9486.02
465.165	9277.13
465.37	8863.44
465.575	8666.83
465.781	8734.42
465.986	8926.93
466.191	8883.92
466.397	8646.35
466.602	8238.81
466.807	8509.14
467.012	8419.03
467.218	8462.04
467.423	8441.56
467.628	8353.49
467.833	8572.63
468.038	8220.38
468.244	8097.5
468.449	8513.24
468.654	7943.9
468.859	8064.73
469.064	8185.56
469.269	7622.37
469.474	7806.69
469.679	7931.61
469.885	7700.19
470.09	7890.65
470.295	7884.51
470.5	7597.79
470.705	7816.93
470.91	7560.93
471.115	7522.02
471.32	7622.37
471.525	7483.11
471.73	7552.74
471.935	7345.89
472.139	6856.43
472.344	7044.84
472.549	6940.4
472.754	6819.57
472.959	6731.5
473.164	6706.93
473.369	6747.89
473.574	7026.41
473.778	6713.07
473.983	6846.19
474.188	6655.73
474.393	6330.1
474.598	6469.36
474.802	6383.35
475.007	6502.13
475.212	6313.72
475.417	6037.24
475.621	6057.72
475.826	6178.55
476.031	5951.23
476.235	5861.12
476.44	5971.71
476.645	5764.86
476.849	6016.76
477.054	5658.37
477.259	5680.89
477.463	5689.09
477.668	5701.37
477.872	5596.93
478.077	5578.5
478.282	5517.06
478.486	5431.04
478.691	5439.23
478.895	5291.78
479.1	5261.06
479.304	5281.54
479.509	5205.77
479.713	5193.48
479.918	5027.59
480.122	4984.59
480.326	5076.74
480.531	5166.85
480.735	5086.98
480.94	5070.6
481.144	5115.66
481.348	4898.57
481.553	5078.79
481.757	4970.25
481.961	5017.35
482.166	5052.17
482.37	4974.35
482.574	4820.75
482.778	4824.84
482.983	4865.8
483.187	4910.86
483.391	4968.2
483.595	4773.64
483.8	4667.15
484.004	4878.09
484.208	4949.77
484.412	4908.81
484.616	4974.35
484.821	4757.26
485.025	4755.21
485.229	4869.9
485.433	4771.6
485.637	4880.14
485.841	4902.67
486.045	4902.67
486.249	4814.6
486.453	4894.47
486.657	5023.5
486.861	4939.53
487.065	4921.1
487.269	4843.28
487.473	4833.04
487.677	5050.12
487.881	5041.93
488.085	4888.33
488.289	4806.41
488.493	4773.64
488.697	4957.96
488.901	4892.43
489.105	4876.04
489.309	5093.13
489.512	5111.56
489.716	5093.13
489.92	4914.95
490.124	4914.95
490.328	5117.7
490.531	5005.06
490.735	4865.8
490.939	5144.33
491.143	5093.13
491.346	5023.5
491.55	5193.48
491.754	5050.12
491.958	5064.46
492.161	4970.25
492.365	5248.77
492.569	5041.93
492.772	5152.52
492.976	5336.84
493.18	5134.09
493.383	5295.88
493.587	5279.49
493.79	5410.56
493.994	5250.82
494.197	5345.03
494.401	5482.24
494.605	5582.59
494.808	5492.48
495.012	5566.21
495.215	5568.26
495.419	5641.98
495.622	5650.18
495.825	5760.77
496.029	5611.26
496.232	5889.79
496.436	5869.31
496.639	5988.09
496.843	5734.14
497.046	6082.3
497.249	6041.34
497.453	6070.01
497.656	6131.45
497.859	6235.89
498.063	6256.37
498.266	6436.6
498.469	6377.2
498.673	6405.88
498.876	6616.82
499.079	6592.24
499.282	6649.58
499.485	6706.93
499.689	6758.13
499.892	6930.16
500.095	6883.05
500.298	7024.36
500.501	6995.69
500.705	7081.71
500.908	7294.69
501.111	7360.23
501.314	7325.41
501.517	7458.53
501.72	7730.91
501.923	7458.53
502.126	7577.31
502.329	7978.72
502.532	7821.02
502.735	7864.03
502.938	8079.07
503.141	8179.42
503.344	8316.63
503.547	8240.86
503.75	8459.99
503.953	8654.55
504.156	8554.19
504.359	8707.79
504.562	8636.11
504.765	8992.46
504.968	8947.4
505.17	8988.36
505.373	9363.14
505.576	9170.63
505.779	9322.18
505.982	9289.42
506.185	9653.95
506.387	9721.54
506.59	9918.14
506.793	10012.35
506.996	9928.38
507.198	10217.15
507.401	10075.84
507.604	10059.45
507.807	10292.92
508.009	10473.14
508.212	10563.25
508.415	10796.72
508.617	11167.4
508.82	10919.6
509.022	10878.64
509.225	11110.06
509.428	11216.55
509.63	11476.65
509.833	11290.28
510.035	11736.74
510.238	11746.98
510.44	11697.83
510.643	11830.94
510.845	12002.97
511.048	11783.84
511.25	12179.1
511.453	12437.14
511.655	12746.39
511.858	12582.55
512.06	12869.26
512.262	12709.52
512.465	12897.94
512.667	13072.01
512.87	13141.64
513.072	13305.48
513.274	13631.11
513.477	13627.01
513.679	13598.34
513.881	13799.04
514.084	13966.98
514.286	14102.14
514.488	14339.71
514.69	14581.37
514.893	14530.17
515.095	14573.17
515.297	15019.63
515.499	14921.33
515.701	15117.93
515.904	15337.07
516.106	15363.69
516.308	15375.98
516.51	15797.86
516.712	15896.16
516.914	15662.69
517.116	16105.06
517.318	16326.24
517.52	16430.68
517.722	16526.94
517.925	16451.16
518.127	16838.23
518.329	17126.99
518.531	16914
518.733	17679.94
518.935	17473.1
519.136	17434.19
519.338	17925.7
519.54	18212.42
519.742	18269.76
519.944	18050.63
520.146	18445.88
520.348	18363.97
520.55	18796.09
520.752	18658.87
520.954	18974.26
521.155	18875.96
521.357	19379.76
521.559	19285.55
521.761	19639.85
521.963	19596.84
522.164	19983.91
522.366	20153.89
522.568	20114.98
522.77	20182.56
522.971	20612.63
523.173	20649.5
523.375	20565.53
523.576	20792.86
523.778	20880.92
523.98	20983.32
524.181	21237.27
524.383	21319.18
524.584	21513.74
524.786	21296.66
524.988	21419.53
525.189	21792.26
525.391	22085.12
525.592	22040.07
525.794	22242.82
525.995	22351.36
526.197	22312.45
526.398	22568.44
526.6	22857.21
526.801	22705.66
527.003	22660.6
527.204	22922.74
527.406	23156.21
527.607	22971.89
527.808	23363.06
528.01	23102.96
528.211	23227.89
528.412	23768.55
528.614	23713.26
528.815	23498.22
529.016	24088.04
529.218	23664.11
529.419	23854.57
529.62	23700.97
529.822	23723.5
530.023	23803.37
530.224	23975.4
530.425	24264.16
530.626	23823.85
530.828	23952.87
531.029	24454.62
531.23	23950.82
531.431	24288.74
531.632	24417.76
531.833	24767.96
532.035	24477.15
532.236	24585.69
532.437	24690.14
532.638	24520.16
532.839	24313.31
533.04	24348.13
533.241	24305.12
533.442	25085.4
533.643	24620.51
533.844	24403.42
534.045	24921.56
534.246	24313.31
534.447	24950.23
534.648	24557.02
534.849	24946.14
535.05	24841.69
535.251	24780.25
535.451	24856.03
535.652	24903.13
535.853	24778.2
536.054	25064.92
536.255	25091.54
536.456	24772.06
536.657	25191.89
536.857	24845.79
537.058	24774.11
537.259	25077.21
537.46	25146.84
537.66	24784.35
537.861	25013.72
538.062	24886.75
538.263	24878.55
538.463	24849.88
538.664	25257.43
538.865	24956.38
539.065	25300.44
539.266	24770.01
539.466	25216.47
539.667	24606.17
539.868	25454.03
540.068	24894.94
540.269	25157.08
540.469	25359.83
540.67	24813.02
540.87	24731.1
541.071	24968.66
541.271	25265.62
541.472	25120.21
541.672	24819.16
541.873	24749.53
542.073	24600.03
542.274	25116.12
542.474	24673.76
542.675	24686.04
542.875	25093.59
543.075	24972.76
543.276	24720.86
543.476	24917.47
543.676	24790.49
543.877	24958.42
544.077	24915.42
544.277	24761.82
544.478	24831.45
544.678	24643.04
544.878	25161.17
545.078	24948.18
545.279	24577.5
545.479	24860.12
545.679	24884.7
545.879	24765.92
546.079	24995.29
546.28	24907.23
546.48	24608.22
546.68	25114.07
546.88	25005.53
547.08	25003.48
547.28	24853.98
547.48	24743.39
547.68	24853.98
547.88	24718.81
548.081	24946.14
548.281	24899.03
548.481	24681.95
548.681	24966.62
548.881	24888.79
549.081	24772.06
549.28	24593.89
549.48	24843.74
549.68	24700.38
549.88	24864.22
550.08	24624.61
550.28	24442.34
550.48	24661.47
550.68	24931.8
550.88	24747.48
551.08	24610.27
551.279	24956.38
551.479	24452.58
551.679	24757.72
551.879	24667.61
552.079	24808.92
552.278	24921.56
552.478	24862.17
552.678	24671.71
552.878	24493.54
553.077	24751.58
553.277	24184.29
553.477	24880.6
553.676	24505.82
553.876	24487.39
554.076	24886.75
554.275	24516.06
554.475	24239.59
554.674	24651.23
554.874	24606.17
555.074	24186.34
555.273	24511.97
555.473	24675.8
555.672	24049.13
555.872	24313.31
556.071	24356.32
556.271	24497.63
556.47	23778.79
556.67	23985.64
556.869	23842.28
557.068	24030.69
557.268	23838.19
557.467	24268.26
557.667	24176.1
557.866	24126.95
558.065	23827.95
558.265	24116.71
558.464	23551.47
558.663	24036.84
558.863	23578.09
559.062	23956.97
559.261	23457.26
559.461	24112.61
559.66	23336.43
559.859	23782.89
560.058	23401.97
560.258	23651.82
560.457	23111.16
560.656	23705.07
560.855	23184.88
561.054	23444.98
561.253	23131.64
561.453	23320.05
561.652	23432.69
561.851	23320.05
562.05	23098.87
562.249	23070.2
562.448	23012.85
562.647	23023.09
562.846	22957.56
563.045	22947.32
563.244	22699.51
563.443	23029.24
563.642	22459.9
563.841	22742.52
564.04	22679.04
564.239	23098.87
564.438	22308.35
564.637	22404.61
564.836	22590.97
565.035	22187.52
565.234	22451.71
565.432	22386.18
565.631	22234.63
565.83	22339.07
566.029	22033.93
566.228	22064.64
566.427	21937.67
566.625	21956.1
566.824	21683.72
567.023	21794.31
567.222	21599.76
567.42	21892.62
567.619	21712.39
567.818	21548.56
568.016	21343.76
568.215	21454.35
568.414	21282.32
568.612	21231.12
568.811	21288.46
569.01	21190.16
569.208	21048.85
569.407	21315.09
569.605	20801.05
569.804	20858.39
570.002	20497.95
570.201	20799
570.4	20917.78
570.598	20788.76
570.797	20293.15
570.995	20420.13
571.193	20213.28
571.392	20536.86
571.59	20094.5
571.789	20293.15
571.987	20358.69
572.186	20233.76
572.384	20043.3
572.582	20088.35
572.781	20219.42
572.979	19736.1
573.177	19901.99
573.376	19988
573.574	19541.55
573.772	19754.54
573.971	19543.6
574.169	19494.44
574.367	19588.65
574.565	19684.9
574.763	19367.47
574.962	19555.88
575.16	19289.65
575.358	19476.01
575.556	18916.92
575.754	19332.65
575.952	18841.14
576.151	19244.59
576.349	18843.19
576.547	19050.03
576.745	18888.25
576.943	18896.44
577.141	18718.26
577.339	18759.22
577.537	18599.48
577.735	18511.42
577.933	18343.49
578.131	18533.95
578.329	18222.66
578.527	18535.99
578.725	18275.9
578.923	18495.04
579.121	18034.24
579.319	18116.16
579.516	18165.31
579.714	18112.06
579.912	17980.99
580.11	17864.26
580.308	17657.42
580.506	17962.56
580.704	17557.07
580.901	17618.5
581.099	17688.14
581.297	17602.12
581.495	17329.74
581.692	17587.78
581.89	17229.39
582.088	17405.52
582.285	17520.2
582.483	17489.48
582.681	17374.8
582.878	17057.36
583.076	17012.31
583.274	17024.59
583.471	17120.85
583.669	16776.79
583.866	16674.39
584.064	16932.43
584.262	16713.3
584.459	16940.63
584.657	16608.86
584.854	16756.31
585.052	16594.52
585.249	16686.68
585.447	16567.9
585.644	16430.68
585.841	16438.87
586.039	16490.07
586.236	16062.05
586.434	16297.56
586.631	16328.28
586.828	16174.69
587.026	16297.56
587.223	16162.4
587.42	16154.21
587.618	16123.49
587.815	16057.95
588.012	15611.5
588.21	15740.52
588.407	16109.15
588.604	15857.25
588.801	15609.45
588.999	15634.02
589.196	15484.52
589.393	15715.94
589.59	15621.73
589.787	15455.85
589.984	15490.66
590.182	15330.92
590.379	15357.55
590.576	15339.12
590.773	15103.6
590.97	15156.85
591.167	15089.26
591.364	14761.59
591.561	15283.82
591.758	15003.25
591.955	14978.67
592.152	15044.21
592.349	14960.24
592.546	14988.91
592.743	14841.46
592.94	14513.78
593.137	14868.08
593.334	14784.12
593.531	14587.51
593.727	14499.45
593.924	14622.33
594.121	14458.49
594.318	14403.19
594.515	14141.05
594.712	14581.37
594.908	14159.49
595.105	14476.92
595.302	14204.54
595.499	14261.88
595.696	13950.59
595.892	14096
596.089	13985.41
596.286	14147.2
596.482	13971.07
596.679	13995.65
596.876	14067.33
597.072	13825.67
597.269	13923.97
597.466	13659.78
597.662	13760.13
597.859	13620.87
598.055	13721.22
598.252	13579.91
598.448	13536.9
598.645	13383.31
598.841	13307.53
599.038	13467.27
599.234	13420.17
599.431	13289.1
599.627	13354.63
599.824	13401.74
600.02	13004.43
600.217	13211.28
600.413	13115.02
600.609	12975.76
600.806	13104.78
601.002	12965.52
601.198	12977.81
601.395	13125.26
601.591	12889.74
601.787	12656.28
601.984	12865.17
602.18	12942.99
602.376	12553.88
602.572	12670.61
602.769	12625.56
602.965	12537.49
603.161	12697.24
603.357	12476.05
603.553	12437.14
603.75	12611.22
603.946	12357.27
604.142	12422.81
604.338	12222.11
604.534	12537.49
604.73	12265.11
604.926	12060.32
605.122	12385.94
605.318	12289.69
605.514	11888.29
605.71	12041.89
605.906	11910.82
606.102	11976.35
606.298	12025.5
606.494	11916.96
606.69	11978.4
606.886	11851.42
607.082	11583.14
607.278	11873.95
607.474	11652.77
607.67	11798.18
607.866	11517.61
608.062	11706.02
608.257	11486.89
608.453	11708.07
608.649	11630.24
608.845	11447.97
609.041	11550.37
609.236	11488.93
609.432	11331.24
609.628	11519.65
609.824	11447.97
610.019	11513.51
610.215	11191.98
610.411	11376.3
610.606	11122.35
610.802	11255.47
610.998	11302.57
611.193	11247.27
611.389	11189.93
611.584	11060.91
611.78	10954.41
611.976	11120.3
612.171	11216.55
612.367	11122.35
612.562	10974.89
612.758	11019.95
612.953	10739.38
613.149	11142.83
613.344	10802.86
613.539	11222.7
613.735	10874.54
613.93	11067.05
614.126	10804.91
614.321	10802.86
614.517	10733.23
614.712	10735.28
614.907	10784.43
615.103	10827.44
615.298	10776.24
615.493	10675.89
615.688	10626.74
615.884	10868.4
616.079	10589.88
616.274	10739.38
616.47	10925.74
616.665	10610.36
616.86	10423.99
617.055	10626.74
617.25	10366.65
617.445	10643.12
617.641	10198.71
617.836	10542.77
618.031	10256.06
618.226	10251.96
618.421	10282.68
618.616	10378.93
618.811	10211
619.006	10329.78
619.201	9965.25
619.396	10114.75
619.591	9926.33
619.786	10167.99
619.981	9828.03
620.176	10063.55
620.371	9686.72
620.566	10081.98
620.761	9832.13
620.956	9854.65
621.151	9797.31
621.346	9774.78
621.541	9707.2
621.735	9598.66
621.93	9477.83
622.125	9473.73
622.32	9410.25
622.515	9463.49
622.709	9377.48
622.904	9473.73
623.099	9354.95
623.294	9301.7
623.488	9088.71
623.683	9127.63
623.878	9064.14
624.072	9060.04
624.267	9010.89
624.462	8875.73
624.656	8869.58
624.851	8879.82
625.046	8732.37
625.24	8685.26
625.435	8617.68
625.629	8699.6
625.824	8609.49
626.018	8529.62
626.213	8498.9
626.407	8333.01
626.602	8378.07
626.796	8349.4
626.991	8410.84
627.185	8222.42
627.38	8462.04
627.574	8296.15
627.768	8165.08
627.963	8169.18
628.157	8015.58
628.352	7950.04
628.546	8146.65
628.74	7935.71
628.935	7732.96
629.129	7902.94
629.323	7943.9
629.517	7773.92
629.712	7683.81
629.906	7577.31
630.1	7581.41
630.294	7409.38
630.489	7560.93
630.683	7470.82
630.877	7479.01
631.071	7446.24
631.265	7370.47
631.459	7390.95
631.653	7274.21
631.848	7327.46
632.042	7210.73
632.236	7272.17
632.43	7323.37
632.624	7343.85
632.818	7122.66
633.012	6997.74
633.206	6911.72
633.4	7007.98
633.594	7032.55
633.788	7075.56
633.982	6909.68
634.176	6885.1
634.369	6758.13
634.563	6668.02
634.757	6729.45
634.951	6872.81
635.145	6864.62
635.339	6616.82
635.533	6625.01
635.726	6586.1
635.92	6520.56
636.114	6391.54
636.308	6246.13
636.501	6446.83
636.695	6364.92
636.889	6254.33
637.083	6278.9
637.276	6278.9
637.47	6225.65
637.664	6223.61
637.857	6319.86
638.051	6014.71
638.244	6084.34
638.438	6100.73
638.632	6149.88
638.825	5873.4
639.019	6080.25
639.212	5926.65
639.406	5934.84
639.599	5902.08
639.793	5957.37
639.986	5756.67
640.18	5885.69
640.373	5871.36
640.567	5658.37
640.76	5848.83
640.954	5637.89
641.147	5603.07
641.34	5598.98
641.534	5558.02
641.727	5553.92
641.92	5525.25
642.114	5478.15
642.307	5402.37
642.5	5355.27
642.694	5426.95
642.887	5338.88
643.08	5461.76
643.273	5457.67
643.467	5412.61
643.66	5189.38
643.853	5103.37
644.046	5148.42
644.239	5129.99
644.432	5148.42
644.626	5193.48
644.819	5031.69
645.012	5177.09
645.205	5224.2
645.398	4951.82
645.591	4945.67
645.784	4927.24
645.977	4912.91
646.17	4906.76
646.363	4951.82
646.556	4847.37
646.749	4906.76
646.942	5082.89
647.135	4779.79
647.328	4728.59
647.521	4896.52
647.714	4677.39
647.907	4712.21
648.099	4529.94
648.292	4755.21
648.485	4531.98
648.678	4626.19
648.871	4697.87
649.064	4562.7
649.256	4650.77
649.449	4513.55
649.642	4437.78
649.835	4435.73
650.027	4572.94
650.22	4421.39
650.413	4433.68
650.605	4417.3
650.798	4300.56
650.991	4319
651.183	4251.41
651.376	4222.74
651.568	4269.84
651.761	4183.83
651.954	4151.06
652.146	4220.69
652.339	4175.64
652.531	4183.83
652.724	4163.35
652.916	4077.34
653.109	3929.88
653.301	4138.77
653.494	3989.27
653.686	3989.27
653.879	3952.41
654.071	3979.03
654.263	3792.67
654.456	3770.14
654.648	3956.5
654.84	3823.39
655.033	3800.86
655.225	3929.88
655.417	3839.77
655.61	3804.96
655.802	3870.49
655.994	3764
656.186	3788.57
656.379	3696.41
656.571	3731.23
656.763	3485.47
656.955	3686.17
657.148	3774.24
657.34	3702.56
657.532	3512.1
657.724	3540.77
657.916	3528.48
658.108	3583.77
658.3	3452.7
658.492	3514.14
658.684	3555.1
658.876	3436.32
659.068	3397.41
659.26	3362.59
659.452	3450.66
659.644	3428.13
659.836	3471.14
660.028	3395.36
660.22	3317.54
660.412	3342.11
660.604	3264.29
660.796	3309.35
660.988	3268.39
661.18	3321.63
661.372	3309.35
661.563	3211.04
661.755	3227.43
661.947	3192.61
662.139	3198.76
662.331	3168.04
662.522	3190.56
662.714	3045.16
662.906	3143.46
663.097	2979.62
663.289	2975.53
663.481	3071.78
663.673	3024.68
663.864	3135.27
664.056	3012.39
664.247	3051.3
664.439	2846.51
664.631	3022.63
664.822	2983.72
665.014	2903.85
665.205	2973.48
665.397	3014.44
665.588	2955.05
665.78	2846.51
665.971	2928.42
666.163	2998.06
666.354	2879.27
666.546	2801.45
666.737	2909.99
666.929	2799.4
667.12	2635.57
667.311	2727.72
667.503	2699.05
667.694	2651.95
667.885	2817.83
668.077	2811.69
668.268	2719.53
668.459	2717.48
668.651	2697
668.842	2596.65
669.033	2633.52
669.224	2594.61
669.416	2596.65
669.607	2539.31
669.798	2580.27
669.989	2600.75
670.18	2524.97
670.371	2623.28
670.563	2582.32
670.754	2559.79
670.945	2621.23
671.136	2637.61
671.327	2561.84
671.518	2391.86
671.709	2441.01
671.9	2430.77
672.091	2541.36
672.282	2402.1
672.473	2377.52
672.664	2498.35
672.855	2451.25
673.046	2363.19
673.237	2432.82
673.428	2281.27
673.619	2309.94
673.809	2393.9
674	2416.43
674.191	2367.28
674.382	2336.56
674.573	2406.19
674.764	2389.81
674.954	2311.99
675.145	2326.32
675.336	2334.51
675.527	2295.6
675.717	2221.88
675.908	2303.79
676.099	2219.83
676.289	2268.98
676.48	2219.83
676.671	2152.24
676.861	2221.88
677.052	2121.52
677.243	2244.4
677.433	2275.12
677.624	2193.2
677.814	2279.22
678.005	2289.46
678.195	2242.36
678.386	2322.23
678.576	2197.3
678.767	2154.29
678.957	2178.87
679.148	2281.27
679.338	2113.33
679.529	2101.05
679.719	2201.4
679.909	2180.92
680.1	2082.61
680.29	2215.73
680.481	2131.76
680.671	2076.47
680.861	2174.77
681.052	2074.42
681.242	2035.51
681.432	2129.72
681.622	2039.61
681.813	2113.33
682.003	1980.22
682.193	2107.19
682.383	2017.08
682.573	2031.41
682.764	2068.28
682.954	1980.22
683.144	2078.52
683.334	2099
683.524	2004.79
683.714	2060.09
683.904	2055.99
684.094	2053.94
684.284	2002.74
684.474	2160.44
684.664	2035.51
684.854	2064.18
685.044	1994.55
685.234	2010.93
685.424	2074.42
685.614	1953.59
685.804	1982.26
685.994	1957.69
686.184	1908.54
686.374	1914.68
686.564	2033.46
686.753	1961.78
686.943	1959.74
687.133	1937.21
687.323	1914.68
687.513	1978.17
687.702	1857.34
687.892	1933.11
688.082	1920.82
688.272	1761.08
688.461	1857.34
688.651	1904.44
688.841	1902.39
689.03	1871.67
689.22	1869.62
689.41	1797.95
689.599	1894.2
689.789	1701.69
689.979	1789.75
690.168	1804.09
690.358	1738.55
690.547	1834.81
690.737	1769.27
690.926	1660.73
691.116	1720.12
691.305	1742.65
691.495	1707.84
691.684	1728.31
691.874	1789.75
692.063	1769.27
692.252	1709.88
692.442	1777.47
692.631	1750.84
692.82	1695.55
693.01	1650.49
693.199	1720.12
693.388	1662.78
693.578	1767.23
693.767	1580.86
693.956	1709.88
694.146	1779.51
694.335	1709.88
694.524	1730.36
694.713	1769.27
694.902	1582.91
695.092	1656.64
695.281	1679.16
695.47	1605.44
695.659	1619.77
695.848	1648.44
696.037	1599.29
696.226	1587.01
696.415	1730.36
696.604	1654.59
696.793	1572.67
696.982	1675.07
697.171	1759.03
697.36	1660.73
697.549	1642.3
697.738	1517.37
697.927	1664.83
698.116	1681.21
698.305	1615.68
698.494	1634.11
698.683	1611.58
698.872	1623.87
699.061	1722.17
699.25	1623.87
699.438	1617.72
699.627	1619.77
699.816	1644.35
700.005	1658.68
700.193	1625.92
700.382	1609.53
700.571	1650.49
700.76	1617.72
700.948	1740.6
701.137	1705.79
701.326	1619.77
701.514	1564.48
701.703	1730.36
701.892	1609.53
702.08	1646.4
702.269	1634.11
702.457	1656.64
702.646	1632.06
702.834	1627.96
703.023	1793.85
703.212	1683.26
703.4	1703.74
703.589	1687.36
703.777	1603.39
703.965	1668.92
704.154	1664.83
704.342	1709.88
704.531	1623.87
704.719	1582.91
704.907	1697.6
705.096	1673.02
705.284	1662.78
705.472	1535.81
705.661	1584.96
705.849	1724.22
706.037	1699.64
706.226	1656.64
706.414	1621.82
706.602	1736.51
706.79	1720.12
706.979	1654.59
707.167	1568.57
707.355	1861.43
707.543	1709.88
707.731	1761.08
707.919	1703.74
708.107	1738.55
708.296	1705.79
708.484	1703.74
708.672	1644.35
708.86	1666.88
709.048	1730.36
709.236	1627.96
709.424	1742.65
709.612	1658.68
709.8	1687.36
709.988	1769.27
710.176	1716.03
710.364	1701.69
710.551	1701.69
710.739	1711.93
710.927	1658.68
711.115	1675.07
711.303	1716.03
711.491	1644.35
711.679	1695.55
711.866	1736.51
712.054	1687.36
712.242	1664.83
712.43	1695.55
712.617	1685.31
712.805	1732.41
712.993	1679.16
713.181	1656.64
713.368	1793.85
713.556	1791.8
713.744	1709.88
713.931	1716.03
714.119	1732.41
714.306	1716.03
714.494	1630.01
714.682	1724.22
714.869	1654.59
715.057	1738.55
715.244	1675.07
715.432	1746.75
715.619	1623.87
715.807	1638.2
715.994	1797.95
716.182	1652.54
716.369	1763.13
716.556	1625.92
716.744	1660.73
716.931	1863.48
717.119	1771.32
717.306	1693.5
717.493	1613.63
717.681	1697.6
717.868	1687.36
718.055	1722.17
718.242	1673.02
718.43	1732.41
718.617	1701.69
718.804	1748.79
718.991	1697.6
719.179	1656.64
719.366	1638.2
719.553	1726.27
719.74	1685.31
719.927	1720.12
720.114	1701.69
720.301	1701.69
720.488	1679.16
720.676	1627.96
720.863	1756.99
721.05	1713.98
721.237	1656.64
721.424	1742.65
721.611	1662.78
721.798	1648.44
721.985	1601.34
722.172	1720.12
722.358	1734.46
722.545	1744.7
722.732	1693.5
722.919	1650.49
723.106	1746.75
723.293	1822.52
723.48	1761.08
723.667	1636.16
723.853	1705.79
724.04	1660.73
724.227	1638.2
724.414	1771.32
724.6	1683.26
724.787	1718.08
724.974	1750.84
725.161	1799.99
725.347	1765.18
725.534	1716.03
725.72	1652.54
725.907	1722.17
726.094	1701.69
726.28	1722.17
726.467	1673.02
726.653	1752.89
726.84	1732.41
727.027	1759.03
727.213	1732.41
727.4	1808.19
727.586	1748.79
727.773	1636.16
727.959	1605.44
728.145	1619.77
728.332	1793.85
728.518	1769.27
728.705	1736.51
728.891	1654.59
729.077	1759.03
729.264	1734.46
729.45	1744.7
729.636	1746.75
729.823	1744.7
730.009	1785.66
730.195	1660.73
730.382	1611.58
730.568	1703.74
730.754	1705.79
730.94	1687.36
731.126	1783.61
731.313	1732.41
731.499	1775.42
731.685	1636.16
731.871	1740.6
732.057	1752.89
732.243	1711.93
732.429	1615.68
732.615	1734.46
732.801	1705.79
732.987	1716.03
733.173	1699.64
733.359	1666.88
733.545	1630.01
733.731	1695.55
733.917	1773.37
734.103	1613.63
734.289	1572.67
734.475	1691.45
734.661	1697.6
734.847	1642.3
735.033	1695.55
735.219	1650.49
735.404	1677.12
735.59	1644.35
735.776	1767.23
735.962	1640.25
736.148	1611.58
736.333	1623.87
736.519	1589.05
736.705	1656.64
736.89	1738.55
737.076	1595.2
737.262	1599.29
737.447	1599.29
737.633	1574.72
737.819	1478.46
738.004	1683.26
738.19	1623.87
738.375	1568.57
738.561	1578.81
738.747	1709.88
738.932	1632.06
739.118	1521.47
739.303	1591.1
739.489	1642.3
739.674	1513.28
739.859	1570.62
740.045	1472.32
740.23	1609.53
740.416	1541.95
740.601	1662.78
740.786	1648.44
740.972	1572.67
741.157	1519.42
741.342	1630.01
741.528	1599.29
741.713	1517.37
741.898	1554.24
742.084	1492.8
742.269	1492.8
742.454	1564.48
742.639	1607.48
742.824	1527.61
743.01	1525.57
743.195	1472.32
743.38	1560.38
743.565	1425.22
743.75	1445.7
743.935	1408.83
744.12	1509.18
744.305	1365.82
744.49	1390.4
744.675	1429.31
744.86	1429.31
745.045	1453.89
745.23	1535.81
745.415	1472.32
745.6	1439.55
745.785	1466.17
745.97	1374.02
746.155	1371.97
746.34	1386.3
746.525	1400.64
746.71	1464.13
746.895	1412.93
747.079	1318.72
747.264	1359.68
747.449	1423.17
747.634	1400.64
747.819	1195.84
748.003	1376.06
748.188	1322.82
748.373	1294.15
748.557	1355.58
748.742	1355.58
748.927	1273.67
749.111	1302.34
749.296	1208.13
749.481	1257.28
749.665	1380.16
749.85	1171.27
750.034	1247.04
750.219	1376.06
750.404	1220.42
750.588	1238.85
750.773	1072.96
750.957	1197.89
751.141	1109.83
751.326	1140.55
751.51	1167.17
751.695	1122.12
751.879	1185.6
752.064	1216.32
752.248	1187.65
752.432	1193.8
752.617	1163.08
752.801	1177.41
752.985	1140.55
753.17	1099.59
753.354	1144.64
753.538	1144.64
753.722	1103.68
753.907	1128.26
754.091	1079.11
754.275	1079.11
754.459	1075.01
754.643	1050.44
754.828	1042.25
755.012	999.24
755.196	1003.33
755.38	1048.39
755.564	1072.96
755.748	968.52
755.932	1040.2
756.116	964.42
756.3	989
756.484	896.84
756.668	1036.1
756.852	945.99
757.036	929.61
757.22	1001.29
757.404	888.65
757.588	1025.86
757.772	841.54
757.956	1011.53
758.14	911.18
758.323	1001.29
758.507	966.47
758.691	829.26
758.875	1001.29
759.059	874.31
759.242	909.13
759.426	935.75
759.61	855.88
759.794	819.02
759.977	864.07
760.161	847.69
760.345	870.22
760.528	814.92
760.712	825.16
760.895	878.41
761.079	862.02
761.263	763.72
761.446	859.98
761.63	788.3
761.813	851.78
761.997	872.26
762.18	812.87
762.364	759.63
762.547	792.39
762.731	880.46
762.914	804.68
763.098	759.63
763.281	849.74
763.464	753.48
763.648	862.02
763.831	761.67
764.015	835.4
764.198	808.78
764.381	724.81
764.564	745.29
764.748	730.95
764.931	718.67
765.114	720.71
765.297	706.38
765.481	651.08
765.664	730.95
765.847	810.82
766.03	745.29
766.213	747.34
766.397	712.52
766.58	765.77
766.763	728.91
766.946	757.58
767.129	722.76
767.312	704.33
767.495	759.63
767.678	726.86
767.861	675.66
768.044	679.75
768.227	739.15
768.41	712.52
768.593	677.71
768.776	683.85
768.959	710.47
769.142	757.58
769.324	591.69
769.507	687.95
769.69	730.95
769.873	696.14
770.056	673.61
770.239	667.47
770.421	755.53
770.604	694.09
770.787	624.46
770.97	632.65
771.152	630.6
771.335	649.04
771.518	708.43
771.7	692.04
771.883	694.09
772.066	655.18
772.248	638.8
772.431	599.88
772.613	569.16
772.796	583.5
772.978	679.75
773.161	589.64
773.343	669.52
773.526	546.64
773.708	642.89
773.891	589.64
774.073	710.47
774.256	581.45
774.438	593.74
774.621	708.43
774.803	558.92
774.985	636.75
775.168	595.79
775.35	513.87
775.532	603.98
775.715	515.92
775.897	573.26
776.079	511.82
776.261	565.07
776.444	501.58
776.626	530.25
776.808	526.16
776.99	517.97
777.173	507.73
777.355	526.16
777.537	479.05
777.719	587.6
777.901	450.38
778.083	530.25
778.265	577.36
778.447	546.64
778.629	468.81
778.811	528.21
778.993	548.68
779.175	505.68
779.357	487.25
779.539	489.29
779.721	520.01
779.903	489.29
780.085	450.38
780.267	489.29
780.449	417.61
780.631	485.2
780.812	446.29
780.994	384.85
781.176	438.09
781.358	370.51
781.54	388.94
781.721	425.81
781.903	378.7
782.085	526.16
782.267	417.61
782.448	358.22
782.63	458.57
782.812	419.66
782.993	442.19
783.175	372.56
783.357	397.14
783.538	429.9
783.72	364.37
783.901	376.66
784.083	460.62
784.264	350.03
784.446	319.31
784.627	370.51
784.809	405.33
784.99	386.9
785.172	393.04
785.353	399.18
785.535	388.94
785.716	333.65
785.897	374.61
786.079	411.47
786.26	405.33
786.441	341.84
786.623	274.26
786.804	366.42
786.985	380.75
787.167	290.64
787.348	364.37
787.529	304.98
787.71	319.31
787.891	376.66
788.073	333.65
788.254	294.74
788.435	335.7
788.616	311.12
788.797	266.07
788.978	266.07
789.159	266.07
789.34	321.36
789.522	300.88
789.703	446.29
789.884	249.68
790.065	292.69
790.246	350.03
790.427	253.78
790.607	323.41
790.788	276.31
790.969	313.17
791.15	350.03
791.331	255.83
791.512	251.73
791.693	280.4
791.874	216.91
792.054	282.45
792.235	284.5
792.416	212.82
792.597	233.3
792.778	223.06
792.958	214.87
793.139	241.49
793.32	268.11
793.5	206.67
793.681	241.49
793.862	229.2
794.042	184.15
794.223	196.43
794.404	237.39
794.584	198.48
794.765	214.87
794.945	294.74
795.126	194.39
795.306	280.4
795.487	221.01
795.667	212.82
795.848	145.24
796.028	221.01
796.209	214.87
796.389	276.31
796.57	231.25
796.75	180.05
796.93	249.68
797.111	270.16
797.291	225.11
797.471	165.71
797.652	268.11
797.832	212.82
798.012	282.45
798.192	153.43
798.373	171.86
798.553	204.63
798.733	143.19
798.913	210.77
799.093	190.29
799.274	163.67
799.454	171.86
799.634	198.48
799.814	231.25
799.994	216.91
800.174	214.87
800.354	188.24
800.534	163.67
800.714	227.15
800.894	161.62
801.074	155.47
801.254	188.24
801.434	175.95
801.614	149.33
801.794	161.62
801.974	517.97
802.154	151.38
802.334	200.53
802.514	135
802.693	218.96
802.873	132.95
803.053	221.01
803.233	184.15
803.413	155.47
803.592	122.71
803.772	245.59
803.952	206.67
804.131	159.57
804.311	137.04
804.491	141.14
804.67	94.04
804.85	110.42
805.03	190.29
805.209	171.86
805.389	173.91
805.568	141.14
805.748	180.05
805.928	159.57
806.107	175.95
806.287	151.38
806.466	194.39
806.646	190.29
806.825	116.56
807.004	110.42
807.184	208.72
807.363	186.19
807.543	157.52
807.722	126.8
807.901	114.52
808.081	159.57
808.26	81.75
808.439	114.52
808.619	163.67
808.798	110.42
808.977	151.38
809.156	141.14
809.336	89.94
809.515	198.48
809.694	173.91
809.873	126.8
810.052	116.56
810.231	57.17
810.411	104.28
810.59	118.61
810.769	184.15
810.948	194.39
811.127	102.23
811.306	110.42
811.485	87.89
811.664	188.24
811.843	122.71
812.022	188.24
812.201	94.04
812.38	67.41
812.559	96.08
812.737	112.47
812.916	89.94
813.095	118.61
813.274	104.28
813.453	85.84
813.632	116.56
813.811	135
813.989	112.47
814.168	122.71
814.347	91.99
814.526	132.95
814.704	137.04
814.883	141.14
815.062	137.04
815.24	73.56
815.419	20.31
815.598	94.04
815.776	102.23
815.955	53.08
816.133	85.84
816.312	124.76
816.49	116.56
816.669	153.43
816.847	16.21
817.026	114.52
817.204	132.95
817.383	155.47
817.561	83.8
817.74	180.05
817.918	116.56
818.097	48.98
818.275	89.94
818.453	151.38
818.632	120.66
818.81	98.13
818.988	36.69
819.167	40.79
819.345	163.67
819.523	188.24
819.701	30.55
819.879	98.13
820.058	65.36
820.236	51.03
820.414	75.6
820.592	28.5
820.77	22.36
820.948	34.64
821.127	18.26
821.305	159.57
821.483	81.75
821.661	147.28
821.839	128.85
822.017	89.94
822.195	42.84
822.373	89.94
822.551	32.6
822.729	126.8
822.907	94.04
823.085	89.94
823.262	126.8
823.44	182.1
823.618	137.04
823.796	147.28
823.974	132.95
824.152	69.46
824.329	5.97
824.507	94.04
824.685	130.9
824.863	61.27
825.04	36.69
825.218	94.04
825.396	22.36
825.574	57.17
825.751	40.79
825.929	20.31
826.107	53.08
826.284	44.88
826.462	128.85
826.639	42.84
826.817	87.89
826.994	124.76
827.172	120.66
827.349	135
827.527	126.8
827.704	40.79
827.882	48.98
828.059	122.71
828.237	57.17
828.414	32.6
828.591	24.4
828.769	104.28
828.946	46.93
829.124	69.46
829.301	124.76
829.478	135
829.655	108.37
829.833	20.31
830.01	61.27
830.187	98.13
830.364	98.13
830.542	59.22
830.719	141.14
830.896	24.4
831.073	44.88
831.25	44.88
831.427	57.17
831.604	59.22
831.782	104.28
831.959	46.93
832.136	98.13
832.313	141.14
832.49	36.69
832.667	16.21
832.844	30.55
833.021	85.84
833.198	38.74
833.374	96.08
833.551	46.93
833.728	87.89
833.905	55.12
834.082	20.31
834.259	118.61
834.436	63.32
834.612	48.98
834.789	12.12
834.966	3.93
835.143	65.36
835.319	-16.55
835.496	102.23
835.673	87.89
835.85	36.69
836.026	30.55
836.203	98.13
836.38	-49.32
836.556	89.94
836.733	14.17
836.909	20.31
837.086	-26.79
837.262	83.8
837.439	30.55
837.616	69.46
837.792	65.36
837.968	5.97
838.145	40.79
838.321	22.36
838.498	14.17
838.674	75.6
838.851	-24.75
839.027	10.07
839.203	57.17
839.38	38.74
839.556	26.45
839.732	42.84
839.909	59.22
840.085	77.65
840.261	-47.27
840.437	53.08
840.614	61.27
840.79	51.03
840.966	63.32
841.142	61.27
841.318	53.08
841.494	40.79
841.671	-2.22
841.847	59.22
842.023	-12.46
842.199	5.97
842.375	59.22
842.551	26.45
842.727	-2.22
842.903	63.32
843.079	57.17
843.255	12.12
843.431	5.97
843.607	42.84
843.783	-61.61
843.959	53.08
844.134	12.12
844.31	63.32
844.486	71.51
844.662	71.51
844.838	8.02
845.013	44.88
845.189	53.08
845.365	1.88
845.541	-4.27
845.716	3.93
845.892	-37.03
846.068	32.6
846.244	59.22
846.419	8.02
846.595	-18.6
846.77	16.21
846.946	-6.31
847.122	24.4
847.297	40.79
847.473	94.04
847.648	-0.17
847.824	-37.03
847.999	12.12
848.175	-0.17
848.35	67.41
848.526	20.31
848.701	63.32
848.876	81.75
849.052	98.13
849.227	65.36
849.403	1.88
849.578	67.41
849.753	-2.22
849.929	55.12
850.104	-4.27
850.279	34.64
850.454	22.36
850.63	-18.6
850.805	8.02
850.98	48.98
851.155	53.08
851.33	96.08
851.505	20.31
851.681	91.99
851.856	14.17
852.031	53.08
852.206	-4.27
852.381	-16.55
852.556	55.12
852.731	30.55
852.906	71.51
853.081	46.93
853.256	48.98
853.431	-28.84
853.606	3.93
853.781	-43.18
853.956	30.55
854.131	67.41
854.305	-41.13
854.48	1.88
854.655	-28.84
854.83	-24.75
855.005	-26.79
855.18	-14.51
855.354	20.31
855.529	-34.99
855.704	-12.46
855.879	-28.84
856.053	-71.85
856.228	53.08
856.403	-53.42
856.577	55.12
856.752	-16.55
856.926	55.12
857.101	16.21
857.276	12.12
857.45	40.79
857.625	59.22
857.799	-32.94
857.974	10.07
858.148	3.93
858.323	69.46
858.497	20.31
858.672	18.26
858.846	-34.99
859.02	30.55
859.195	-4.27
859.369	30.55
859.543	59.22
859.718	12.12
859.892	-8.36
860.066	32.6
860.241	-41.13
860.415	-6.31
860.589	44.88
860.763	1.88
860.938	32.6
861.112	81.75
861.286	73.56
861.46	-18.6
861.634	22.36
861.808	-8.36
861.982	-28.84
862.157	30.55
862.331	-0.17
862.505	-22.7
862.679	14.17
862.853	-12.46
863.027	3.93
863.201	42.84
863.375	-6.31
863.549	-28.84
863.722	-16.55
863.896	36.69
864.07	26.45
864.244	-34.99
864.418	22.36
864.592	-6.31
864.766	-32.94
864.939	-16.55
865.113	34.64
865.287	81.75
865.461	8.02
865.634	30.55
865.808	-8.36
865.982	-53.42
866.156	3.93
866.329	-45.23
866.503	-34.99
866.676	42.84
866.85	1.88
867.024	-18.6
867.197	-10.41
867.371	69.46
867.544	-63.66
867.718	12.12
867.891	20.31
868.065	36.69
868.238	1.88
868.412	53.08
868.585	-57.51
868.759	-12.46
868.932	-41.13
869.105	94.04
869.279	-61.61
869.452	36.69
869.625	14.17
869.799	-2.22
869.972	12.12
870.145	-41.13
870.319	51.03
870.492	12.12
870.665	10.07
870.838	34.64
871.011	-57.51
871.185	-14.51
871.358	-10.41
871.531	10.07
871.704	-4.27
871.877	48.98
872.05	-32.94
872.223	-32.94
872.396	-61.61
872.569	55.12
872.742	-18.6
872.915	32.6
873.088	5.97
873.261	-4.27
873.434	46.93
873.607	18.26
873.78	51.03
873.953	18.26
874.126	8.02
874.299	-12.46
874.471	-34.99
874.644	-24.75
874.817	5.97
874.99	106.32
875.163	-6.31
875.335	-4.27
875.508	18.26
875.681	12.12
875.853	3.93
876.026	36.69
876.199	20.31
876.371	61.27
876.544	10.07
876.717	40.79
876.889	-45.23
877.062	8.02
877.234	-88.23
877.407	-94.38
877.579	18.26
877.752	12.12
877.924	87.89
878.097	-2.22
878.269	26.45
878.442	89.94
878.614	-37.03
878.786	-0.17
878.959	-37.03
879.131	-6.31
879.303	-51.37
879.476	-8.36
879.648	-37.03
879.82	26.45
879.993	14.17
880.165	63.32
880.337	-24.75
880.509	-55.47
880.681	-12.46
880.854	-61.61
881.026	126.8
881.198	-28.84
881.37	53.08
881.542	3.93
881.714	-41.13
881.886	30.55
882.058	36.69
882.23	-49.32
882.402	26.45
882.574	46.93
882.746	112.47
882.918	38.74
883.09	32.6
883.262	-4.27
883.434	28.5
883.606	-63.66
883.778	-14.51
883.95	40.79
884.122	-65.71
884.293	-34.99
884.465	-75.95
884.637	30.55
884.809	12.12
884.98	-18.6
885.152	22.36
885.324	-10.41
885.496	-34.99
885.667	-51.37
885.839	18.26
886.011	36.69
886.182	26.45
886.354	51.03
886.525	-8.36
886.697	-12.46
886.869	3.93
887.04	57.17
887.212	-47.27
887.383	28.5
887.555	24.4
887.726	42.84
887.897	-30.89
888.069	12.12
888.24	51.03
888.412	34.64
888.583	-67.75
888.754	14.17
888.926	-22.7
889.097	36.69
889.268	24.4
889.44	-28.84
889.611	-8.36
889.782	-14.51
889.953	-4.27
890.125	3.93
890.296	65.36
890.467	-34.99
890.638	1.88
890.809	-57.51
890.98	22.36
891.151	-73.9
891.323	-34.99
891.494	46.93
891.665	-28.84
891.836	34.64
892.007	-16.55
892.178	-37.03
892.349	-37.03
892.52	-41.13
892.691	-108.71
892.862	14.17
893.032	-34.99
893.203	85.84
893.374	-6.31
893.545	40.79
893.716	1.88
893.887	-12.46
894.057	-16.55
894.228	51.03
894.399	-61.61
894.57	-4.27
894.74	16.21
894.911	-53.42
895.082	-65.71
895.253	30.55
895.423	12.12
895.594	16.21
895.764	85.84
895.935	-43.18
896.106	65.36
896.276	-61.61
896.447	53.08
896.617	-123.05
896.788	3.93
896.958	14.17
897.129	-4.27
897.299	-8.36
897.47	14.17
897.64	34.64
897.81	8.02
897.981	16.21
898.151	-2.22
898.322	-2.22
898.492	-41.13
898.662	-4.27
898.832	5.97
899.003	-55.47
899.173	32.6
899.343	-8.36
899.513	36.69
