Data from USB4F104151__70__11-06-10-665.txt Node

Date: Wed Mar 12 11:06:10 EDT 2025
User: louis
Spectrometer: USB4F10415
Trigger mode: 4
Integration Time (sec): 2.000000E-2
Scans to average: 1
Electric dark correction enabled: true
Nonlinearity correction enabled: false
Boxcar width: 0
XAxis mode: Wavelengths
Number of Pixels in Spectrum: 3648
>>>>>Begin Spectral Data<<<<<
178.204	-47.27
178.424	-47.27
178.644	-47.27
178.864	-112.81
179.084	-63.66
179.304	51.03
179.524	-18.6
179.744	63.32
179.964	20.31
180.184	-10.41
180.404	-12.46
180.624	-55.47
180.844	1.88
181.064	-41.13
181.283	8.02
181.503	-26.79
181.723	20.31
181.943	-6.31
182.163	53.08
182.383	122.71
182.602	36.69
182.822	16.21
183.042	65.36
183.262	-94.38
183.482	55.12
183.701	30.55
183.921	22.36
184.141	-10.41
184.361	32.6
184.58	55.12
184.8	8.02
185.02	-8.36
185.239	71.51
185.459	57.17
185.679	22.36
185.898	-8.36
186.118	79.7
186.338	55.12
186.557	59.22
186.777	8.02
186.997	32.6
187.216	-4.27
187.436	69.46
187.655	-6.31
187.875	-16.55
188.095	5.97
188.314	18.26
188.534	69.46
188.753	-47.27
188.973	73.56
189.192	69.46
189.412	51.03
189.631	-22.7
189.851	46.93
190.07	28.5
190.29	-2.22
190.509	32.6
190.729	57.17
190.948	77.65
191.168	87.89
191.387	46.93
191.607	-4.27
191.826	-4.27
192.045	40.79
192.265	28.5
192.484	10.07
192.704	57.17
192.923	55.12
193.142	5.97
193.362	34.64
193.581	38.74
193.8	3.93
194.02	18.26
194.239	-118.95
194.458	20.31
194.678	22.36
194.897	-14.51
195.116	28.5
195.335	16.21
195.555	91.99
195.774	40.79
195.993	3.93
196.212	34.64
196.432	38.74
196.651	51.03
196.87	5.97
197.089	34.64
197.308	44.88
197.528	63.32
197.747	26.45
197.966	-22.7
198.185	42.84
198.404	5.97
198.623	16.21
198.842	44.88
199.062	1.88
199.281	53.08
199.5	42.84
199.719	34.64
199.938	34.64
200.157	48.98
200.376	5.97
200.595	44.88
200.814	-39.08
201.033	65.36
201.252	67.41
201.471	51.03
201.69	14.17
201.909	42.84
202.128	5.97
202.347	-6.31
202.566	106.32
202.785	-22.7
203.004	53.08
203.223	100.18
203.442	32.6
203.661	61.27
203.879	-10.41
204.098	102.23
204.317	-55.47
204.536	8.02
204.755	-2.22
204.974	106.32
205.193	40.79
205.411	67.41
205.63	59.22
205.849	30.55
206.068	34.64
206.287	53.08
206.505	112.47
206.724	-51.37
206.943	77.65
207.162	30.55
207.381	83.8
207.599	26.45
207.818	18.26
208.037	28.5
208.255	110.42
208.474	75.6
208.693	10.07
208.911	83.8
209.13	73.56
209.349	69.46
209.567	8.02
209.786	51.03
210.005	-37.03
210.223	8.02
210.442	-41.13
210.661	114.52
210.879	36.69
211.098	36.69
211.316	77.65
211.535	34.64
211.753	75.6
211.972	116.56
212.191	18.26
212.409	36.69
212.628	12.12
212.846	114.52
213.065	8.02
213.283	87.89
213.502	20.31
213.72	75.6
213.938	24.4
214.157	67.41
214.375	85.84
214.594	5.97
214.812	46.93
215.031	87.89
215.249	18.26
215.467	20.31
215.686	1.88
215.904	100.18
216.122	57.17
216.341	61.27
216.559	51.03
216.778	69.46
216.996	1.88
217.214	18.26
217.432	51.03
217.651	63.32
217.869	-43.18
218.087	-49.32
218.306	-63.66
218.524	63.32
218.742	-28.84
218.96	10.07
219.179	87.89
219.397	81.75
219.615	83.8
219.833	42.84
220.051	53.08
220.27	38.74
220.488	30.55
220.706	26.45
220.924	5.97
221.142	38.74
221.36	96.08
221.578	112.47
221.796	-14.51
222.015	18.26
222.233	34.64
222.451	8.02
222.669	-41.13
222.887	96.08
223.105	55.12
223.323	75.6
223.541	18.26
223.759	20.31
223.977	-34.99
224.195	46.93
224.413	81.75
224.631	5.97
224.849	28.5
225.067	94.04
225.285	38.74
225.503	36.69
225.721	26.45
225.939	46.93
226.157	42.84
226.375	81.75
226.592	20.31
226.81	1.88
227.028	53.08
227.246	30.55
227.464	18.26
227.682	32.6
227.9	22.36
228.117	59.22
228.335	14.17
228.553	38.74
228.771	-0.17
228.989	14.17
229.206	30.55
229.424	69.46
229.642	44.88
229.86	10.07
230.077	106.32
230.295	18.26
230.513	51.03
230.731	106.32
230.948	73.56
231.166	14.17
231.384	51.03
231.601	14.17
231.819	16.21
232.037	26.45
232.254	10.07
232.472	14.17
232.689	36.69
232.907	36.69
233.125	-30.89
233.342	40.79
233.56	85.84
233.777	67.41
233.995	18.26
234.213	36.69
234.43	22.36
234.648	28.5
234.865	69.46
235.083	22.36
235.3	-8.36
235.518	96.08
235.735	53.08
235.953	34.64
236.17	51.03
236.388	44.88
236.605	-55.47
236.822	69.46
237.04	48.98
237.257	55.12
237.475	53.08
237.692	53.08
237.909	26.45
238.127	69.46
238.344	100.18
238.562	48.98
238.779	22.36
238.996	36.69
239.214	8.02
239.431	79.7
239.648	3.93
239.865	91.99
240.083	55.12
240.3	42.84
240.517	30.55
240.735	32.6
240.952	96.08
241.169	-16.55
241.386	26.45
241.603	5.97
241.821	22.36
242.038	18.26
242.255	-26.79
242.472	48.98
242.689	30.55
242.907	132.95
243.124	79.7
243.341	57.17
243.558	-2.22
243.775	-4.27
243.992	51.03
244.209	63.32
244.426	104.28
244.643	44.88
244.86	44.88
245.078	42.84
245.295	40.79
245.512	94.04
245.729	3.93
245.946	65.36
246.163	67.41
246.38	34.64
246.597	59.22
246.814	44.88
247.031	51.03
247.248	51.03
247.464	67.41
247.681	149.33
247.898	-4.27
248.115	141.14
248.332	22.36
248.549	71.51
248.766	98.13
248.983	10.07
249.2	24.4
249.417	48.98
249.633	63.32
249.85	-20.65
250.067	10.07
250.284	116.56
250.501	48.98
250.717	55.12
250.934	-34.99
251.151	106.32
251.368	24.4
251.585	36.69
251.801	55.12
252.018	-6.31
252.235	44.88
252.451	61.27
252.668	5.97
252.885	14.17
253.102	75.6
253.318	5.97
253.535	30.55
253.752	-22.7
253.968	44.88
254.185	67.41
254.401	14.17
254.618	24.4
254.835	55.12
255.051	34.64
255.268	5.97
255.484	55.12
255.701	-32.94
255.917	61.27
256.134	36.69
256.351	98.13
256.567	75.6
256.784	57.17
257	-30.89
257.217	77.65
257.433	20.31
257.65	8.02
257.866	18.26
258.082	24.4
258.299	1.88
258.515	22.36
258.732	-24.75
258.948	-41.13
259.165	-6.31
259.381	-26.79
259.597	8.02
259.814	-16.55
260.03	77.65
260.246	42.84
260.463	3.93
260.679	40.79
260.895	53.08
261.112	120.66
261.328	-2.22
261.544	18.26
261.761	-32.94
261.977	57.17
262.193	55.12
262.409	67.41
262.626	98.13
262.842	24.4
263.058	-14.51
263.274	61.27
263.49	-10.41
263.707	28.5
263.923	71.51
264.139	-8.36
264.355	18.26
264.571	116.56
264.787	38.74
265.004	22.36
265.22	22.36
265.436	1.88
265.652	112.47
265.868	-16.55
266.084	20.31
266.3	5.97
266.516	5.97
266.732	114.52
266.948	22.36
267.164	34.64
267.38	48.98
267.596	-10.41
267.812	81.75
268.028	67.41
268.244	24.4
268.46	-28.84
268.676	-20.65
268.892	75.6
269.108	71.51
269.324	48.98
269.54	-30.89
269.756	173.91
269.972	28.5
270.188	36.69
270.403	14.17
270.619	10.07
270.835	14.17
271.051	42.84
271.267	34.64
271.483	44.88
271.698	3.93
271.914	59.22
272.13	42.84
272.346	36.69
272.562	53.08
272.777	40.79
272.993	18.26
273.209	20.31
273.425	63.32
273.64	20.31
273.856	34.64
274.072	75.6
274.287	44.88
274.503	96.08
274.719	63.32
274.934	65.36
275.15	1.88
275.366	-39.08
275.581	-16.55
275.797	100.18
276.012	-2.22
276.228	40.79
276.444	87.89
276.659	104.28
276.875	24.4
277.09	-8.36
277.306	71.51
277.521	38.74
277.737	14.17
277.952	53.08
278.168	55.12
278.383	-6.31
278.599	-24.75
278.814	59.22
279.03	42.84
279.245	96.08
279.461	71.51
279.676	10.07
279.892	53.08
280.107	24.4
280.322	55.12
280.538	116.56
280.753	46.93
280.969	10.07
281.184	112.47
281.399	26.45
281.615	112.47
281.83	26.45
282.045	55.12
282.26	94.04
282.476	-20.65
282.691	-2.22
282.906	51.03
283.122	5.97
283.337	16.21
283.552	34.64
283.767	-18.6
283.983	65.36
284.198	-18.6
284.413	-61.61
284.628	-39.08
284.843	-28.84
285.058	26.45
285.274	-92.33
285.489	53.08
285.704	1.88
285.919	-4.27
286.134	42.84
286.349	67.41
286.564	24.4
286.779	38.74
286.995	106.32
287.21	8.02
287.425	32.6
287.64	61.27
287.855	69.46
288.07	-2.22
288.285	53.08
288.5	40.79
288.715	36.69
288.93	59.22
289.145	46.93
289.36	85.84
289.575	67.41
289.79	14.17
290.004	114.52
290.219	73.56
290.434	48.98
290.649	-2.22
290.864	106.32
291.079	81.75
291.294	91.99
291.509	55.12
291.724	-22.7
291.938	67.41
292.153	81.75
292.368	85.84
292.583	83.8
292.798	-22.7
293.012	102.23
293.227	14.17
293.442	1.88
293.657	100.18
293.871	102.23
294.086	71.51
294.301	157.52
294.516	1.88
294.73	16.21
294.945	51.03
295.16	53.08
295.374	67.41
295.589	126.8
295.804	26.45
296.018	112.47
296.233	46.93
296.447	128.85
296.662	-28.84
296.877	75.6
297.091	46.93
297.306	83.8
297.52	53.08
297.735	104.28
297.949	44.88
298.164	16.21
298.378	79.7
298.593	26.45
298.807	14.17
299.022	73.56
299.236	38.74
299.451	8.02
299.665	51.03
299.88	51.03
300.094	14.17
300.309	94.04
300.523	75.6
300.737	8.02
300.952	128.85
301.166	-0.17
301.381	14.17
301.595	65.36
301.809	16.21
302.024	71.51
302.238	-37.03
302.452	63.32
302.667	59.22
302.881	28.5
303.095	73.56
303.309	48.98
303.524	44.88
303.738	-0.17
303.952	14.17
304.166	40.79
304.381	34.64
304.595	63.32
304.809	51.03
305.023	46.93
305.237	1.88
305.452	12.12
305.666	61.27
305.88	67.41
306.094	79.7
306.308	48.98
306.522	34.64
306.736	10.07
306.95	65.36
307.164	38.74
307.379	-6.31
307.593	-10.41
307.807	69.46
308.021	-4.27
308.235	85.84
308.449	20.31
308.663	14.17
308.877	61.27
309.091	14.17
309.305	89.94
309.519	44.88
309.733	55.12
309.947	1.88
310.161	12.12
310.374	8.02
310.588	-18.6
310.802	18.26
311.016	81.75
311.23	53.08
311.444	61.27
311.658	26.45
311.872	40.79
312.085	91.99
312.299	73.56
312.513	34.64
312.727	91.99
312.941	22.36
313.154	30.55
313.368	20.31
313.582	65.36
313.796	1.88
314.009	89.94
314.223	67.41
314.437	108.37
314.651	20.31
314.864	30.55
315.078	67.41
315.292	18.26
315.505	61.27
315.719	61.27
315.933	1.88
316.146	51.03
316.36	48.98
316.573	96.08
316.787	38.74
317.001	79.7
317.214	55.12
317.428	77.65
317.641	53.08
317.855	75.6
318.068	57.17
318.282	20.31
318.495	46.93
318.709	149.33
318.922	55.12
319.136	130.9
319.349	57.17
319.563	63.32
319.776	57.17
319.99	28.5
320.203	26.45
320.417	48.98
320.63	-24.75
320.843	81.75
321.057	124.76
321.27	85.84
321.483	55.12
321.697	55.12
321.91	55.12
322.124	55.12
322.337	18.26
322.55	5.97
322.763	65.36
322.977	59.22
323.19	-18.6
323.403	69.46
323.617	3.93
323.83	34.64
324.043	73.56
324.256	89.94
324.469	5.97
324.683	61.27
324.896	77.65
325.109	48.98
325.322	-34.99
325.535	91.99
325.748	42.84
325.962	-24.75
326.175	63.32
326.388	83.8
326.601	36.69
326.814	5.97
327.027	110.42
327.24	151.38
327.453	-0.17
327.666	91.99
327.879	10.07
328.092	83.8
328.305	20.31
328.518	65.36
328.731	-16.55
328.944	81.75
329.157	24.4
329.37	3.93
329.583	20.31
329.796	59.22
330.009	12.12
330.222	104.28
330.435	32.6
330.648	63.32
330.861	14.17
331.073	59.22
331.286	75.6
331.499	108.37
331.712	79.7
331.925	10.07
332.138	79.7
332.35	55.12
332.563	94.04
332.776	65.36
332.989	18.26
333.202	57.17
333.414	36.69
333.627	69.46
333.84	3.93
334.053	57.17
334.265	12.12
334.478	94.04
334.691	-2.22
334.903	42.84
335.116	63.32
335.329	24.4
335.541	36.69
335.754	108.37
335.966	63.32
336.179	79.7
336.392	20.31
336.604	116.56
336.817	46.93
337.029	69.46
337.242	61.27
337.454	69.46
337.667	5.97
337.88	26.45
338.092	61.27
338.305	63.32
338.517	40.79
338.729	83.8
338.942	112.47
339.154	-12.46
339.367	10.07
339.579	18.26
339.792	44.88
340.004	55.12
340.217	51.03
340.429	135
340.641	-20.65
340.854	30.55
341.066	65.36
341.278	77.65
341.491	96.08
341.703	12.12
341.915	57.17
342.128	120.66
342.34	40.79
342.552	83.8
342.764	69.46
342.977	104.28
343.189	1.88
343.401	118.61
343.613	-0.17
343.826	96.08
344.038	57.17
344.25	67.41
344.462	40.79
344.674	108.37
344.886	120.66
345.099	24.4
345.311	124.76
345.523	20.31
345.735	87.89
345.947	48.98
346.159	51.03
346.371	32.6
346.583	63.32
346.795	63.32
347.007	-8.36
347.219	20.31
347.431	40.79
347.643	79.7
347.855	48.98
348.067	67.41
348.279	5.97
348.491	20.31
348.703	28.5
348.915	65.36
349.127	71.51
349.339	24.4
349.551	-0.17
349.763	-0.17
349.975	24.4
350.187	34.64
350.399	20.31
350.61	-4.27
350.822	16.21
351.034	53.08
351.246	26.45
351.458	22.36
351.669	20.31
351.881	128.85
352.093	112.47
352.305	12.12
352.517	44.88
352.728	94.04
352.94	18.26
353.152	5.97
353.363	91.99
353.575	40.79
353.787	161.62
353.999	81.75
354.21	104.28
354.422	-8.36
354.633	-8.36
354.845	5.97
355.057	48.98
355.268	38.74
355.48	79.7
355.692	55.12
355.903	44.88
356.115	18.26
356.326	61.27
356.538	67.41
356.749	102.23
356.961	79.7
357.172	10.07
357.384	87.89
357.595	63.32
357.807	40.79
358.018	67.41
358.23	53.08
358.441	135
358.653	59.22
358.864	69.46
359.075	91.99
359.287	89.94
359.498	22.36
359.709	65.36
359.921	36.69
360.132	141.14
360.344	91.99
360.555	46.93
360.766	22.36
360.977	61.27
361.189	79.7
361.4	51.03
361.611	77.65
361.823	57.17
362.034	75.6
362.245	28.5
362.456	108.37
362.667	14.17
362.879	44.88
363.09	96.08
363.301	38.74
363.512	51.03
363.723	120.66
363.935	65.36
364.146	77.65
364.357	87.89
364.568	98.13
364.779	14.17
364.99	32.6
365.201	71.51
365.412	124.76
365.623	-6.31
365.834	75.6
366.045	12.12
366.256	46.93
366.467	46.93
366.678	30.55
366.889	44.88
367.1	3.93
367.311	128.85
367.522	-2.22
367.733	61.27
367.944	83.8
368.155	51.03
368.366	71.51
368.577	98.13
368.788	71.51
368.999	-28.84
369.209	63.32
369.42	98.13
369.631	163.67
369.842	81.75
370.053	46.93
370.264	1.88
370.474	59.22
370.685	67.41
370.896	122.71
371.107	143.19
371.317	147.28
371.528	116.56
371.739	65.36
371.95	53.08
372.16	65.36
372.371	12.12
372.582	42.84
372.792	34.64
373.003	108.37
373.214	67.41
373.424	67.41
373.635	5.97
373.846	18.26
374.056	40.79
374.267	91.99
374.477	87.89
374.688	48.98
374.898	24.4
375.109	114.52
375.319	104.28
375.53	102.23
375.74	132.95
375.951	85.84
376.161	139.09
376.372	91.99
376.582	3.93
376.793	67.41
377.003	69.46
377.214	63.32
377.424	51.03
377.635	63.32
377.845	48.98
378.055	63.32
378.266	-2.22
378.476	-16.55
378.686	51.03
378.897	44.88
379.107	98.13
379.317	102.23
379.528	55.12
379.738	124.76
379.948	91.99
380.158	100.18
380.369	48.98
380.579	120.66
380.789	104.28
380.999	98.13
381.21	141.14
381.42	112.47
381.63	3.93
381.84	153.43
382.05	87.89
382.261	104.28
382.471	61.27
382.681	71.51
382.891	5.97
383.101	20.31
383.311	44.88
383.521	34.64
383.731	94.04
383.941	87.89
384.151	63.32
384.361	24.4
384.571	61.27
384.781	118.61
384.991	38.74
385.201	38.74
385.411	10.07
385.621	77.65
385.831	87.89
386.041	14.17
386.251	57.17
386.461	102.23
386.671	26.45
386.881	94.04
387.091	108.37
387.301	75.6
387.511	71.51
387.72	143.19
387.93	24.4
388.14	132.95
388.35	139.09
388.56	55.12
388.769	165.71
388.979	57.17
389.189	184.15
389.399	124.76
389.609	91.99
389.818	28.5
390.028	120.66
390.238	42.84
390.447	126.8
390.657	61.27
390.867	100.18
391.076	75.6
391.286	112.47
391.496	116.56
391.705	30.55
391.915	145.24
392.125	112.47
392.334	75.6
392.544	122.71
392.753	87.89
392.963	48.98
393.172	53.08
393.382	28.5
393.591	139.09
393.801	114.52
394.01	110.42
394.22	116.56
394.429	87.89
394.639	116.56
394.848	122.71
395.058	69.46
395.267	79.7
395.477	63.32
395.686	100.18
395.895	112.47
396.105	139.09
396.314	26.45
396.524	194.39
396.733	85.84
396.942	139.09
397.152	126.8
397.361	81.75
397.57	87.89
397.78	112.47
397.989	122.71
398.198	186.19
398.407	126.8
398.617	34.64
398.826	153.43
399.035	91.99
399.244	120.66
399.453	135
399.663	94.04
399.872	83.8
400.081	100.18
400.29	198.48
400.499	153.43
400.708	208.72
400.917	69.46
401.127	73.56
401.336	102.23
401.545	161.62
401.754	190.29
401.963	178
402.172	235.35
402.381	151.38
402.59	171.86
402.799	151.38
403.008	130.9
403.217	104.28
403.426	143.19
403.635	79.7
403.844	153.43
404.053	214.87
404.262	112.47
404.471	216.91
404.68	128.85
404.888	216.91
405.097	145.24
405.306	208.72
405.515	200.53
405.724	206.67
405.933	225.11
406.142	182.1
406.35	206.67
406.559	231.25
406.768	157.52
406.977	255.83
407.185	255.83
407.394	243.54
407.603	204.63
407.812	274.26
408.02	294.74
408.229	321.36
408.438	313.17
408.646	257.87
408.855	309.07
409.064	325.46
409.272	241.49
409.481	360.27
409.69	333.65
409.898	374.61
410.107	366.42
410.315	390.99
410.524	356.18
410.733	466.77
410.941	452.43
411.15	436.05
411.358	446.29
411.567	563.02
411.775	417.61
411.984	495.44
412.192	501.58
412.401	436.05
412.609	462.67
412.818	608.08
413.026	618.32
413.234	632.65
413.443	628.56
413.651	687.95
413.86	646.99
414.068	710.47
414.276	724.81
414.485	755.53
414.693	737.1
414.901	839.5
415.11	812.87
415.318	821.06
415.526	864.07
415.734	849.74
415.943	933.7
416.151	954.18
416.359	976.71
416.567	972.61
416.776	1038.15
416.984	1181.51
417.192	1118.02
417.4	1150.79
417.608	1099.59
417.817	1300.29
418.025	1306.43
418.233	1371.97
418.441	1308.48
418.649	1439.55
418.857	1572.67
419.065	1427.26
419.273	1584.96
419.481	1603.39
419.689	1705.79
419.897	1929.02
420.105	1779.51
420.313	1869.62
420.521	1865.53
420.729	1998.65
420.937	1982.26
421.145	2164.53
421.353	2121.52
421.561	2289.46
421.769	2432.82
421.977	2449.2
422.185	2518.83
422.393	2703.15
422.601	2852.65
422.809	2727.72
423.017	2774.83
423.224	2955.05
423.432	2969.38
423.64	3075.88
423.848	3295.01
424.056	3229.48
424.263	3479.33
424.471	3585.82
424.679	3559.2
424.887	3669.79
425.094	3837.72
425.302	3823.39
425.51	4210.45
425.718	4169.49
425.925	4124.44
426.133	4402.96
426.341	4671.25
426.548	4634.38
426.756	4767.5
426.964	4947.72
427.171	5060.36
427.379	5252.87
427.586	5281.54
427.794	5326.6
428.001	5795.58
428.209	5973.75
428.417	5885.69
428.624	6186.74
428.832	6274.81
429.039	6287.09
429.247	6170.36
429.454	7083.75
429.662	7327.46
429.869	6829.81
430.076	7292.65
430.284	7284.45
430.491	7648.99
430.699	7751.39
430.906	8042.2
431.114	7849.69
431.321	8392.41
431.528	8593.11
431.736	9111.24
431.943	9510.6
432.15	9123.53
432.358	9205.45
432.565	9721.54
432.772	9756.35
432.979	10127.03
433.187	10376.89
433.394	10585.78
433.601	11210.41
433.808	11239.08
434.016	11271.85
434.223	11763.36
434.43	12422.81
434.637	12015.26
434.844	12916.37
435.052	13172.36
435.259	13041.29
435.466	13211.28
435.673	13022.86
435.88	14073.47
436.087	14888.56
436.294	14626.42
436.501	14478.97
436.708	14521.98
436.915	15142.51
437.122	15806.05
437.329	15804
437.537	16277.08
437.743	16412.25
437.95	16469.59
438.157	17370.7
438.364	17862.21
438.571	17962.56
438.778	17802.82
438.985	19426.86
439.192	18847.29
439.399	19707.43
439.606	18896.44
439.813	20026.92
440.02	21181.97
440.227	20778.52
440.433	20483.61
440.64	21548.56
440.847	21208.59
441.054	21818.89
441.261	23410.16
441.467	22879.74
441.674	23559.66
441.881	24206.82
442.088	24200.68
442.294	24354.27
442.501	24786.4
442.708	25206.23
442.914	25943.5
443.121	27366.84
443.328	26703.29
443.534	28614.05
443.741	27594.16
443.948	27258.29
444.154	29169.05
444.361	29076.89
444.568	29486.48
444.774	29109.66
444.981	29846.93
445.187	30692.74
445.394	31528.31
445.6	31485.3
445.807	34225.48
446.013	33095
446.22	33631.57
446.426	34934.08
446.633	35190.08
446.839	36140.33
447.046	34626.88
447.252	36730.15
447.459	36580.65
447.665	36359.47
447.871	37895.44
448.078	39826.68
448.284	37829.91
448.491	38767.88
448.697	40279.28
448.903	41460.96
449.11	41125.09
449.316	40662.25
449.522	41430.24
449.728	42355.92
449.935	42566.86
450.141	42075.35
450.347	43232.45
450.553	41862.36
450.76	42405.07
450.966	43656.38
451.172	43220.16
451.378	44508.33
451.584	43801.78
451.791	44555.44
451.997	44487.85
452.203	44735.66
452.409	45106.34
452.615	44924.07
452.821	43441.34
453.027	43013.32
453.233	44774.57
453.44	42874.06
453.646	44010.68
453.852	43814.07
454.058	44145.84
454.264	42976.45
454.47	44354.74
454.676	42829
454.882	44008.63
455.088	40293.61
455.294	40815.85
455.5	41626.84
455.705	42104.02
455.911	40344.81
456.117	39738.61
456.323	38946.05
456.529	36775.2
456.735	38599.94
456.941	37432.6
457.147	36891.94
457.352	35820.85
457.558	35745.08
457.764	35462.46
457.97	34694.47
458.176	34233.67
458.381	34141.52
458.587	32144.75
458.793	32560.48
458.999	30655.87
459.204	32965.98
459.41	32011.63
459.616	30090.63
459.821	30115.21
460.027	29523.35
460.233	28980.64
460.438	27698.61
460.644	28143.02
460.85	26926.52
461.055	26557.89
461.261	26428.87
461.466	24550.88
461.672	23981.54
461.878	25267.67
462.083	23854.57
462.289	23207.41
462.494	23162.36
462.7	22472.19
462.905	21380.62
463.111	22031.88
463.316	22222.34
463.522	21788.17
463.727	22013.45
463.932	22267.39
464.138	21665.29
464.343	21845.51
464.549	21116.44
464.754	21808.65
464.959	21718.54
465.165	21263.89
465.37	20586.01
465.575	20067.88
465.781	20860.44
465.986	21026.32
466.191	20260.38
466.397	19691.05
466.602	18837.05
466.807	19602.99
467.012	19650.09
467.218	19375.66
467.423	19263.02
467.628	19609.13
467.833	20497.95
468.038	19447.34
468.244	19142.19
468.449	19707.43
468.654	19101.23
468.859	19101.23
469.064	18892.34
469.269	18323.01
469.474	18179.65
469.679	18730.55
469.885	17817.16
470.09	18017.86
470.295	18036.29
470.5	17909.32
470.705	17774.15
470.91	17632.84
471.115	17151.57
471.32	17438.28
471.525	17188.43
471.73	16979.54
471.935	16909.91
472.139	16363.1
472.344	16539.22
472.549	16399.96
472.754	16268.89
472.959	16000.61
473.164	15699.56
473.369	15416.94
473.574	15930.98
473.778	15771.24
473.983	15722.09
474.188	15545.96
474.393	14878.32
474.598	14898.8
474.802	14767.73
475.007	14708.34
475.212	14837.36
475.417	14288.51
475.621	14302.84
475.826	14237.31
476.031	14106.24
476.235	13887.11
476.44	13774.47
476.645	13647.49
476.849	13739.65
477.054	13770.37
477.259	13330.06
477.463	13514.38
477.668	12986
477.872	13180.56
478.077	12973.71
478.282	12566.17
478.486	12498.58
478.691	12314.27
478.895	12230.3
479.1	12287.64
479.304	12193.44
479.509	11892.38
479.713	12519.06
479.918	12066.46
480.122	11775.65
480.326	11955.87
480.531	11900.58
480.735	11597.48
480.94	11835.04
481.144	12015.26
481.348	11546.28
481.553	11611.81
481.757	11525.8
481.961	11785.89
482.166	11814.56
482.37	11867.81
482.574	11482.79
482.778	11527.85
482.983	11792.03
483.187	11824.8
483.391	11540.13
483.595	11652.77
483.8	11288.23
484.004	11533.99
484.208	11818.66
484.412	11427.49
484.616	11699.87
484.821	11681.44
485.025	11484.84
485.229	11710.11
485.433	11523.75
485.637	11650.72
485.841	11583.14
486.045	11749.03
486.249	11884.19
486.453	11478.69
486.657	11572.9
486.861	11652.77
487.065	11325.1
487.269	11638.44
487.473	11310.76
487.677	11423.4
487.881	11599.52
488.085	11730.59
488.289	11863.71
488.493	11822.75
488.697	11728.55
488.901	11767.46
489.105	11423.4
489.309	11593.38
489.512	12134.04
489.716	11722.4
489.92	12007.07
490.124	11757.22
490.328	12035.74
490.531	11757.22
490.735	11683.49
490.939	12050.08
491.143	12095.13
491.346	11867.81
491.55	12023.45
491.754	12261.02
491.958	12418.71
492.161	12121.76
492.365	12318.36
492.569	12095.13
492.772	12568.21
492.976	12392.09
493.18	12539.54
493.383	12760.72
493.587	12775.06
493.79	12942.99
493.994	12748.43
494.197	12691.09
494.401	12846.74
494.605	13069.97
494.808	13289.1
495.012	13186.7
495.215	13344.39
495.419	13536.9
495.622	13332.11
495.825	13680.26
496.029	13678.21
496.232	13856.39
496.436	14026.37
496.639	14069.37
496.843	14425.72
497.046	14298.75
497.249	14800.5
497.453	14597.75
497.656	14765.68
497.859	14884.47
498.063	15132.27
498.266	15257.2
498.469	15533.67
498.673	15269.48
498.876	15593.06
499.079	16158.3
499.282	15795.81
499.485	16103.01
499.689	16332.38
499.892	16580.18
500.095	16547.42
500.298	17096.27
500.501	16907.86
500.705	17497.67
500.908	17315.41
501.111	17960.52
501.314	17770.05
501.517	17960.52
501.72	18320.96
501.923	18257.47
502.126	18820.66
502.329	19017.27
502.532	18828.85
502.735	19043.89
502.938	19519.02
503.141	19732.01
503.344	19912.23
503.547	20004.39
503.75	20481.56
503.953	20821.53
504.156	20817.43
504.359	20620.83
504.562	21175.83
504.765	21741.07
504.968	21837.32
505.17	21929.48
505.373	22003.21
505.576	22273.54
505.779	22492.67
505.982	22863.35
506.185	23186.93
506.387	23383.54
506.59	23367.15
506.793	23778.79
506.996	23743.98
507.198	24579.55
507.401	24286.69
507.604	24903.13
507.807	25327.06
508.009	25519.57
508.212	25632.21
508.415	26084.81
508.617	26342.85
508.82	26527.17
509.022	26144.2
509.225	27264.44
509.428	27147.7
509.63	27618.74
509.833	27428.27
510.035	28306.85
510.238	27932.08
510.44	28276.13
510.643	28720.54
510.845	29150.62
511.048	29101.47
511.25	29478.29
511.453	29789.58
511.655	30625.15
511.858	30408.07
512.06	30637.44
512.262	31223.16
512.465	31071.61
512.667	31538.55
512.87	32064.88
513.072	31886.7
513.274	32583.01
513.477	32685.41
513.679	33054.04
513.881	33600.85
514.084	34180.43
514.286	33815.89
514.488	33922.38
514.69	35042.62
514.893	34970.94
515.095	34942.27
515.297	35423.54
515.499	35749.17
515.701	36289.84
515.904	36529.45
516.106	36805.92
516.308	37141.79
516.51	37205.28
516.712	37631.26
516.914	37891.35
517.116	38774.02
517.318	38614.28
517.52	39286.01
517.722	39267.58
517.925	40086.77
518.127	40031.47
518.329	40484.08
518.531	40561.9
518.733	41098.47
518.935	41243.87
519.136	41385.18
519.338	41671.9
519.54	42114.26
519.742	42593.48
519.944	42640.59
520.146	43429.05
520.348	43072.71
520.55	43945.14
520.752	43855.03
520.954	44858.54
521.155	44582.06
521.357	45057.19
521.559	45540.51
521.761	46011.54
521.963	45806.75
522.164	46531.73
522.366	46163.09
522.568	46869.64
522.77	47230.08
522.971	47852.67
523.173	47369.35
523.375	48114.81
523.576	47967.35
523.778	48172.15
523.98	49151.08
524.181	49349.73
524.383	49005.67
524.584	49663.07
524.786	49822.81
524.988	49405.03
525.189	50256.98
525.391	50402.39
525.592	50592.85
525.794	50914.38
525.995	50850.89
526.197	51481.67
526.398	51166.28
526.6	51332.17
526.801	52108.35
527.003	52032.57
527.204	52356.15
527.406	52237.37
527.607	52464.69
527.808	53290.02
528.01	52008
528.211	52806.7
528.412	53476.39
528.614	53193.77
528.815	53290.02
529.016	53986.33
529.218	53423.14
529.419	53789.73
529.62	54248.47
529.822	54109.21
530.023	53808.16
530.224	53742.63
530.425	54213.66
530.626	53656.61
530.828	53816.35
531.029	55360.52
531.23	54397.98
531.431	54377.5
531.632	55190.54
531.833	55327.75
532.035	54807.57
532.236	54819.86
532.437	55462.92
532.638	54389.78
532.839	55698.44
533.04	55381
533.241	54561.81
533.442	55626.76
533.643	55512.07
533.844	55467.01
534.045	55325.71
534.246	55049.23
534.447	55931.9
534.648	55237.64
534.849	55944.19
535.05	55559.17
535.251	55329.8
535.451	55426.06
535.652	55653.38
535.853	55663.62
536.054	55745.54
536.255	55743.49
536.456	55483.4
536.657	55970.82
536.857	55903.23
537.058	55643.14
537.259	55835.65
537.46	56101.89
537.66	55995.39
537.861	55569.41
538.062	55503.88
538.263	56122.36
538.463	55759.87
538.664	55680
538.865	55565.32
539.065	55847.94
539.266	55116.81
539.466	56378.36
539.667	55235.59
539.868	55790.59
540.068	55940.1
540.269	55952.38
540.469	56298.49
540.67	55419.91
540.87	55694.34
541.071	55880.7
541.271	55917.57
541.472	55516.17
541.672	55184.4
541.873	55335.94
542.073	55200.78
542.274	55927.81
542.474	55491.59
542.675	55385.1
542.875	56196.09
543.075	55819.27
543.276	55204.87
543.476	56048.64
543.676	55389.19
543.877	55723.01
544.077	55632.9
544.277	55927.81
544.478	55692.29
544.678	55589.89
544.878	55897.09
545.078	55888.9
545.279	55354.38
545.479	55233.55
545.679	56030.21
545.879	55581.7
546.079	55323.66
546.28	55436.3
546.48	55020.56
546.68	55464.97
546.88	55622.66
547.08	55483.4
547.28	55387.14
547.48	54967.31
547.68	55598.08
547.88	55190.54
548.081	55706.63
548.281	55499.78
548.481	55286.79
548.681	55892.99
548.881	55200.78
549.081	54909.97
549.28	55204.87
549.48	55460.87
549.68	54985.74
549.88	56347.64
550.08	55194.64
550.28	55563.27
550.48	55096.33
550.68	55720.96
550.88	55294.99
551.08	54744.08
551.279	55464.97
551.479	55034.89
551.679	55483.4
551.879	54881.3
552.079	55667.72
552.278	55188.49
552.478	55270.41
552.678	55075.85
552.878	55241.74
553.077	55165.96
553.277	54635.54
553.477	55493.64
553.676	55385.1
553.876	55233.55
554.076	54948.88
554.275	54844.43
554.475	54701.07
554.674	54807.57
554.874	54832.14
555.074	54656.02
555.273	55051.28
555.473	55299.08
555.672	54438.93
555.872	54555.67
556.071	54754.32
556.271	55149.58
556.47	54324.25
556.67	53951.52
556.869	54352.92
557.068	54592.53
557.268	54625.3
557.467	54101.02
557.667	54213.66
557.866	54352.92
558.065	54041.63
558.265	53748.77
558.464	53853.22
558.663	54869.01
558.863	53267.5
559.062	54336.54
559.261	53388.33
559.461	54570
559.66	53150.76
559.859	53582.88
560.058	53120.04
560.258	53531.68
560.457	53107.75
560.656	53953.57
560.855	53754.91
561.054	53664.8
561.253	53034.03
561.453	53187.63
561.652	53269.54
561.851	53156.91
562.05	53249.06
562.249	53115.95
562.448	52923.44
562.647	52603.95
562.846	52784.18
563.045	52694.07
563.244	52198.46
563.443	53009.45
563.642	51553.35
563.841	52251.7
564.04	51805.25
564.239	52538.42
564.438	51960.89
564.637	52325.43
564.836	52364.34
565.035	51315.78
565.234	51936.32
565.432	51919.93
565.631	51108.94
565.83	51790.91
566.029	51209.29
566.228	51317.83
566.427	51395.65
566.625	51035.21
566.824	50453.59
567.023	51532.87
567.222	50299.99
567.42	50938.96
567.619	50830.41
567.818	50945.1
568.016	50465.88
568.215	50627.66
568.414	50095.19
568.612	50560.08
568.811	49904.73
569.01	50211.93
569.208	49538.15
569.407	50250.84
569.605	49441.89
569.804	49904.73
570.002	49607.78
570.201	49896.54
570.4	49474.66
570.598	49134.7
570.797	49046.63
570.995	49202.28
571.193	48536.69
571.392	49153.13
571.59	48569.46
571.789	48610.42
571.987	48309.36
572.186	48624.75
572.384	48188.53
572.582	48833.64
572.781	48172.15
572.979	47817.85
573.177	47971.45
573.376	48041.08
573.574	47750.27
573.772	47963.26
573.971	47699.07
574.169	47414.4
574.367	47082.63
574.565	48090.23
574.763	46834.83
574.962	47127.69
575.16	47205.51
575.358	46982.28
575.556	46607.5
575.754	46820.49
575.952	46541.97
576.151	46703.76
576.349	45941.91
576.547	46238.87
576.745	46251.16
576.943	46210.2
577.141	46308.5
577.339	46322.83
577.537	45821.08
577.735	46072.98
577.933	45374.62
578.131	45497.5
578.329	45677.72
578.527	45077.67
578.725	45182.12
578.923	45175.97
579.121	45030.57
579.319	44473.52
579.516	44948.65
579.714	44905.64
579.912	44706.99
580.11	44717.23
580.308	44950.7
580.506	44414.13
580.704	44063.92
580.901	44057.78
581.099	44606.64
581.297	43764.92
581.495	43707.58
581.692	44305.59
581.89	43396.29
582.088	43953.33
582.285	43220.16
582.483	44092.6
582.681	43328.7
582.878	43113.67
583.076	42773.7
583.274	43201.73
583.471	42947.78
583.669	42876.1
583.866	42484.94
584.064	42900.68
584.262	42294.48
584.459	42810.57
584.657	42286.29
584.854	42706.12
585.052	41776.34
585.249	42015.96
585.447	41770.2
585.644	41960.66
585.841	41866.45
586.039	41827.54
586.236	41479.39
586.434	41366.75
586.631	41241.82
586.828	41473.24
587.026	41272.54
587.223	41207.01
587.42	40961.25
587.618	41266.4
587.815	40735.98
588.012	40967.4
588.21	40609
588.407	40897.77
588.604	40152.3
588.801	40142.06
588.999	39967.99
589.196	40086.77
589.393	39890.16
589.59	39795.96
589.787	39597.31
589.984	39603.45
590.182	39419.13
590.379	39916.79
590.576	39091.46
590.773	39165.18
590.97	39388.41
591.167	39458.04
591.364	38704.39
591.561	38726.92
591.758	38776.07
591.955	38743.3
592.152	38755.59
592.349	38622.47
592.546	38223.12
592.743	38249.74
592.94	37635.35
593.137	37938.45
593.334	37985.55
593.531	37938.45
593.727	38247.69
593.924	37702.93
594.121	37315.87
594.318	37754.13
594.515	37367.07
594.712	37754.13
594.908	37481.75
595.105	37362.97
595.302	37098.78
595.499	37037.34
595.696	36836.64
595.892	36863.27
596.089	37014.82
596.286	36889.89
596.482	36627.75
596.679	36310.32
596.876	36517.16
597.072	36166.96
597.269	36169.01
597.466	36128.05
597.662	36009.26
597.859	35802.42
598.055	35853.62
598.252	35804.47
598.448	35583.29
598.645	35532.09
598.841	35028.29
599.038	35296.57
599.234	35011.9
599.431	34923.84
599.627	34725.19
599.824	35093.82
600.02	35378.49
600.217	34665.8
600.413	34336.07
600.609	34559.3
600.806	34524.49
601.002	34700.61
601.198	34262.35
601.395	33889.62
601.591	34086.22
601.787	34231.63
601.984	33793.36
602.18	34164.04
602.376	33824.08
602.572	33662.29
602.769	33647.96
602.965	33330.52
603.161	33187.16
603.357	33594.71
603.553	33121.63
603.75	33381.72
603.946	33015.13
604.142	32949.6
604.338	32302.44
604.534	32927.07
604.73	32118.12
604.926	32415.08
605.122	32775.52
605.318	32359.78
605.514	32183.66
605.71	32425.32
605.906	32212.33
606.102	32101.74
606.298	32034.16
606.494	31817.07
606.69	31915.37
606.886	31860.08
607.082	31489.4
607.278	31901.04
607.474	31640.95
607.67	31436.15
607.866	31059.32
608.062	31886.7
608.257	31165.82
608.453	31264.12
608.649	31718.77
608.845	31200.63
609.041	30995.84
609.236	31307.13
609.432	30997.88
609.628	30985.6
609.824	30854.53
610.019	30598.53
610.215	30752.13
610.411	31057.28
610.606	30690.69
610.802	30766.46
610.998	30508.42
611.193	30576
611.389	30244.23
611.584	30270.86
611.78	29873.55
611.976	30270.86
612.171	30100.87
612.367	30066.06
612.562	30123.4
612.758	29691.28
612.953	29689.23
613.149	30172.55
613.344	29732.24
613.539	30285.19
613.735	29769.1
613.93	30064.01
614.126	29851.02
614.321	29777.29
614.517	29703.57
614.712	29549.97
614.907	29554.07
615.103	29474.2
615.298	29601.17
615.493	29810.06
615.688	29130.14
615.884	29760.91
616.079	29064.6
616.274	29320.6
616.47	29269.4
616.665	29433.24
616.86	29037.98
617.055	28984.73
617.25	29115.8
617.445	28978.59
617.641	28413.35
617.836	28872.09
618.031	28421.54
618.226	28665.25
618.421	28130.73
618.616	29060.51
618.811	28212.65
619.006	28517.79
619.201	27960.75
619.396	28335.52
619.591	27737.52
619.786	28380.58
619.981	27620.78
620.176	27952.55
620.371	27370.93
620.566	27614.64
620.761	27426.23
620.956	27737.52
621.151	27041.21
621.346	26770.88
621.541	26963.39
621.735	27172.28
621.93	26731.97
622.125	26633.66
622.32	26326.47
622.515	26506.69
622.709	26455.49
622.904	26252.74
623.099	25853.39
623.294	26232.26
623.488	25689.55
623.683	26152.39
623.878	25468.37
624.072	25617.87
624.267	25277.91
624.462	25245.14
624.656	25132.5
624.851	25003.48
625.046	24698.33
625.24	24870.36
625.435	24630.75
625.629	24559.07
625.824	24597.98
626.018	24233.44
626.213	23928.3
626.407	24303.07
626.602	23580.14
626.796	23969.26
626.991	23801.32
627.185	23848.43
627.38	23297.52
627.574	23524.85
627.768	23115.25
627.963	23229.94
628.157	22801.91
628.352	22973.94
628.546	22625.79
628.74	22775.29
628.935	22447.61
629.129	22578.68
629.323	22281.73
629.517	22513.15
629.712	22033.93
629.906	21954.05
630.1	21646.86
630.294	21837.32
630.489	21610
630.683	21610
630.877	21171.73
631.071	21442.06
631.265	21358.1
631.459	21188.11
631.653	21122.58
631.848	21186.07
632.042	20940.31
632.236	21149.2
632.43	20549.15
632.624	20590.11
632.818	20600.35
633.012	20102.69
633.206	20264.48
633.4	20235.81
633.594	19959.33
633.788	19858.98
633.982	20080.16
634.176	19664.43
634.369	19678.76
634.563	19566.12
634.757	19381.81
634.951	19463.72
635.145	19369.52
635.339	19267.12
635.533	19177.01
635.726	19123.76
635.92	18865.72
636.114	18933.3
636.308	18708.02
636.501	18667.06
636.695	18523.71
636.889	18318.91
637.083	18449.98
637.276	18452.03
637.47	18187.84
637.664	18067.01
637.857	17962.56
638.051	17976.9
638.244	17876.55
638.438	17770.05
638.632	17395.28
638.825	17614.41
639.019	17319.5
639.212	17426
639.406	17282.64
639.599	17190.48
639.793	17096.27
639.986	16848.47
640.18	16793.17
640.373	16799.32
640.567	16739.93
640.76	16674.39
640.954	16475.74
641.147	16684.63
641.34	16375.39
641.534	16426.59
641.727	16252.51
641.92	16064.1
642.114	16086.62
642.307	16057.95
642.5	16219.74
642.694	15742.57
642.887	15490.66
643.08	15808.1
643.273	15607.4
643.467	15550.06
643.66	15625.83
643.853	15373.93
644.046	15160.94
644.239	15277.68
644.432	15183.47
644.626	15218.29
644.819	14796.4
645.012	14980.72
645.205	14612.09
645.398	14906.99
645.591	14562.94
645.784	14726.77
645.977	14442.1
646.17	14679.67
646.363	14478.97
646.556	14323.32
646.749	14128.77
646.942	14216.83
647.135	14034.56
647.328	14065.28
647.521	13954.69
647.714	13887.11
647.907	13975.17
648.099	13735.56
648.292	13913.73
648.485	13774.47
648.678	13553.29
648.871	13567.62
649.064	13151.88
649.256	13514.38
649.449	13350.54
649.642	13428.36
649.835	13338.25
650.027	12879.5
650.22	12940.94
650.413	12879.5
650.605	13129.36
650.798	12756.63
650.991	12727.96
651.183	12854.93
651.376	12637.84
651.568	12678.8
651.761	12899.98
651.954	12287.64
652.146	12420.76
652.339	12379.8
652.531	12508.82
652.724	12119.71
652.916	12123.8
653.109	12175
653.301	12121.76
653.494	12203.68
653.686	11869.86
653.879	11945.63
654.071	11880.1
654.263	11595.43
654.456	11925.15
654.648	11798.18
654.84	11488.93
655.033	11509.41
655.225	11636.39
655.417	11388.58
655.61	11312.81
655.802	11366.06
655.994	11171.5
656.186	11218.6
656.379	11151.02
656.571	11073.2
656.763	10931.89
656.955	10958.51
657.148	11077.29
657.34	10753.71
657.532	10876.59
657.724	10874.54
657.916	10630.84
658.108	10673.84
658.3	10600.12
658.492	10491.57
658.684	10462.9
658.876	10364.6
659.068	10593.97
659.26	10260.15
659.452	10215.1
659.644	10360.5
659.836	10120.89
660.028	10229.43
660.22	9866.94
660.412	10004.16
660.604	9805.5
660.796	9907.9
660.988	9871.04
661.18	9596.61
661.372	9825.98
661.563	9766.59
661.755	9498.31
661.947	9713.35
662.139	9662.15
662.331	9531.08
662.522	9574.08
662.714	9488.07
662.906	9260.74
663.097	9434.82
663.289	9281.22
663.481	9162.44
663.673	9283.27
663.864	9172.68
664.056	9105.1
664.247	9125.58
664.439	9045.71
664.631	8896.21
664.822	8865.49
665.014	8722.13
665.205	8873.68
665.397	8769.23
665.588	8652.5
665.78	8695.5
665.971	8607.44
666.163	8566.48
666.354	8476.37
666.546	8398.55
666.737	8451.8
666.929	8437.46
667.12	8300.25
667.311	8406.74
667.503	8136.41
667.694	8294.1
667.885	8267.48
668.077	8251.1
668.268	7991
668.459	7984.86
668.651	8122.07
668.842	7980.76
669.033	7868.13
669.224	7904.99
669.416	8056.54
669.607	7878.37
669.798	7919.32
669.989	7755.49
670.18	7761.63
670.371	7808.73
670.563	7794.4
670.754	7802.59
670.945	7565.03
671.136	7595.75
671.327	7665.38
671.518	7524.07
671.709	7395.04
671.9	7583.46
672.091	7450.34
672.282	7491.3
672.473	7241.45
672.664	7501.54
672.855	7292.65
673.046	7415.52
673.237	7145.19
673.428	7038.7
673.619	7268.07
673.809	7237.35
674	7157.48
674.191	7214.82
674.382	6950.64
674.573	7137
674.764	6838
674.954	7032.55
675.145	6803.18
675.336	6776.56
675.527	6842.09
675.717	6878.96
675.908	6821.61
676.099	6747.89
676.289	6680.3
676.48	6887.15
676.671	6559.47
676.861	6794.99
677.052	6489.84
677.243	6592.24
677.433	6616.82
677.624	6532.85
677.814	6620.91
678.005	6668.02
678.195	6563.57
678.386	6330.1
678.576	6217.46
678.767	6268.66
678.957	6291.19
679.148	6375.16
679.338	6299.38
679.529	6409.97
679.719	6369.01
679.909	6203.13
680.1	6436.6
680.29	6305.53
680.481	6211.32
680.671	6117.11
680.861	6215.41
681.052	6158.07
681.242	6100.73
681.432	6184.69
681.622	5832.44
681.813	6088.44
682.003	5998.33
682.193	5965.56
682.383	6033.15
682.573	5928.7
682.764	5992.19
682.954	5895.93
683.144	5906.17
683.334	5975.8
683.524	5910.27
683.714	5875.45
683.904	5644.03
684.094	5678.85
684.284	5734.14
684.474	5791.48
684.664	5795.58
684.854	5582.59
685.044	5713.66
685.234	5598.98
685.424	5641.98
685.614	5402.37
685.804	5515.01
685.994	5500.67
686.184	5627.65
686.374	5515.01
686.564	5392.13
686.753	5357.32
686.943	5541.63
687.133	5484.29
687.323	5449.47
687.513	5459.71
687.702	5428.99
687.892	5299.97
688.082	5373.7
688.272	5281.54
688.461	5291.78
688.651	5213.96
688.841	5146.37
689.03	5246.73
689.22	5250.82
689.41	5113.61
689.599	5119.75
689.789	5031.69
689.979	5183.24
690.168	5074.7
690.358	5076.74
690.547	5043.98
690.737	4953.87
690.926	4945.67
691.116	5017.35
691.305	5011.21
691.495	4925.19
691.684	4794.12
691.874	5015.3
692.063	4830.99
692.252	4894.47
692.442	4740.88
692.631	4734.73
692.82	4855.56
693.01	4652.81
693.199	4691.73
693.388	4710.16
693.578	4759.31
693.767	4609.81
693.956	4689.68
694.146	4675.34
694.335	4593.42
694.524	4699.92
694.713	4689.68
694.902	4640.53
695.092	4714.25
695.281	4675.34
695.47	4509.46
695.659	4409.11
695.848	4484.88
696.037	4566.8
696.226	4591.38
696.415	4484.88
696.604	4581.14
696.793	4505.36
696.982	4458.26
697.171	4359.95
697.36	4382.48
697.549	4302.61
697.738	4402.96
697.927	4306.71
698.116	4460.31
698.305	4327.19
698.494	4257.56
698.683	4351.76
698.872	4374.29
699.061	4310.8
699.25	4374.29
699.438	4323.09
699.627	4347.67
699.816	4284.18
700.005	4265.75
700.193	4341.52
700.382	4400.91
700.571	4245.27
700.76	4386.58
700.948	4290.32
701.137	4329.24
701.326	4288.28
701.514	4198.17
701.703	4220.69
701.892	4286.23
702.08	4294.42
702.269	4316.95
702.457	4136.73
702.646	4007.7
702.834	4310.8
703.023	4116.25
703.212	4058.9
703.4	4212.5
703.589	3970.84
703.777	4149.01
703.965	4081.43
704.154	4224.79
704.342	4155.16
704.531	4130.58
704.719	3962.65
704.907	4173.59
705.096	3852.06
705.284	4044.57
705.472	4112.15
705.661	4108.05
705.849	4202.26
706.037	4077.34
706.226	3997.46
706.414	4050.71
706.602	3950.36
706.79	4011.8
706.979	3976.98
707.167	3870.49
707.355	4054.81
707.543	3886.87
707.731	4028.18
707.919	3919.64
708.107	3790.62
708.296	3954.46
708.484	3819.29
708.672	3958.55
708.86	3905.31
709.048	3999.51
709.236	3913.5
709.424	3870.49
709.612	3913.5
709.8	3747.61
709.988	3829.53
710.176	3823.39
710.364	3899.16
710.551	3839.77
710.739	3786.52
710.927	3770.14
711.115	3809.05
711.303	3815.2
711.491	3651.36
711.679	3733.28
711.866	3804.96
712.054	3710.75
712.242	3723.04
712.43	3651.36
712.617	3749.66
712.805	3729.18
712.993	3661.6
713.181	3634.97
713.368	3616.54
713.556	3714.84
713.744	3536.67
713.931	3714.84
714.119	3555.1
714.306	3700.51
714.494	3587.87
714.682	3612.45
714.869	3712.8
715.057	3628.83
715.244	3602.21
715.432	3518.24
715.619	3696.41
715.807	3487.52
715.994	3696.41
716.182	3583.77
716.369	3485.47
716.556	3557.15
716.744	3508
716.931	3620.64
717.119	3632.93
717.306	3620.64
717.493	3436.32
717.681	3446.56
717.868	3526.43
718.055	3421.99
718.242	3518.24
718.43	3508
718.617	3471.14
718.804	3354.4
718.991	3473.18
719.179	3503.9
719.366	3301.15
719.553	3454.75
719.74	3434.27
719.927	3370.79
720.114	3303.2
720.301	3458.85
720.488	3409.7
720.676	3460.9
720.863	3292.96
721.05	3323.68
721.237	3342.11
721.424	3370.79
721.611	3301.15
721.798	3286.82
721.985	3178.28
722.172	3165.99
722.358	3204.9
722.545	3387.17
722.732	3229.48
722.919	3391.27
723.106	3264.29
723.293	3262.24
723.48	3333.92
723.667	3202.85
723.853	3116.84
724.04	3188.52
724.227	3131.17
724.414	3223.33
724.6	3196.71
724.787	3172.13
724.974	3235.62
725.161	3225.38
725.347	3147.56
725.534	3071.78
725.72	3231.52
725.907	3184.42
726.094	3335.97
726.28	3202.85
726.467	3143.46
726.653	3071.78
726.84	3282.72
727.027	3178.28
727.213	3110.69
727.4	3143.46
727.586	3012.39
727.773	3118.89
727.959	3073.83
728.145	3137.32
728.332	3100.45
728.518	3022.63
728.705	3135.27
728.891	3045.16
729.077	3104.55
729.264	3000.1
729.45	2998.06
729.636	3186.47
729.823	3096.36
730.009	3143.46
730.195	3024.68
730.382	3067.69
730.568	3034.92
730.754	3002.15
730.94	3020.58
731.126	3022.63
731.313	2869.03
731.499	2963.24
731.685	2887.47
731.871	2928.42
732.057	2963.24
732.243	2989.86
732.429	2946.86
732.615	3061.54
732.801	2856.75
732.987	2866.99
733.173	3030.82
733.359	2946.86
733.545	2909.99
733.731	2821.93
733.917	2854.7
734.103	2819.88
734.289	2875.18
734.475	2887.47
734.661	2848.55
734.847	2987.82
735.033	2842.41
735.219	2844.46
735.404	2748.2
735.59	2881.32
735.776	2754.35
735.962	2805.55
736.148	2793.26
736.333	2856.75
736.519	2864.94
736.705	2801.45
736.89	2772.78
737.076	2891.56
737.262	2780.97
737.447	2787.11
737.633	2797.35
737.819	2817.83
738.004	2670.38
738.19	2752.3
738.375	2778.92
738.561	2840.36
738.747	2711.34
738.932	2674.48
739.118	2834.22
739.303	2686.76
739.489	2664.24
739.674	2588.46
739.859	2643.76
740.045	2664.24
740.23	2664.24
740.416	2547.5
740.601	2660.14
740.786	2572.08
740.972	2674.48
741.157	2635.57
741.342	2715.44
741.528	2531.12
741.713	2641.71
741.898	2451.25
742.084	2477.87
742.269	2557.74
742.454	2654
742.639	2631.47
742.824	2490.16
743.01	2588.46
743.195	2553.65
743.38	2426.67
743.565	2434.86
743.75	2481.97
743.935	2426.67
744.12	2367.28
744.305	2477.87
744.49	2418.48
744.675	2367.28
744.86	2404.14
745.045	2314.03
745.23	2324.27
745.415	2502.45
745.6	2357.04
745.785	2260.79
745.97	2426.67
746.155	2287.41
746.34	2248.5
746.525	2406.19
746.71	2369.33
746.895	2232.12
747.079	2166.58
747.264	2172.72
747.449	2219.83
747.634	2211.64
747.819	2193.2
748.003	2246.45
748.188	2113.33
748.373	2111.29
748.557	2164.53
748.742	2107.19
748.927	2062.13
749.111	2127.67
749.296	2086.71
749.481	2142
749.665	1994.55
749.85	2072.37
750.034	1896.25
750.219	2023.22
750.404	2006.84
750.588	1988.41
750.773	1920.82
750.957	2070.33
751.141	1834.81
751.326	1931.06
751.51	1969.98
751.695	1967.93
751.879	1916.73
752.064	1959.74
752.248	1890.1
752.432	1904.44
752.617	1869.62
752.801	1869.62
752.985	1867.58
753.17	1795.9
753.354	1785.66
753.538	1890.1
753.722	1687.36
753.907	1795.9
754.091	1787.71
754.275	1834.81
754.459	1713.98
754.643	1724.22
754.828	1814.33
755.012	1709.88
755.196	1615.68
755.38	1595.2
755.564	1656.64
755.748	1691.45
755.932	1615.68
756.116	1550.14
756.3	1693.5
756.484	1578.81
756.668	1519.42
756.852	1679.16
757.036	1584.96
757.22	1507.13
757.404	1611.58
757.588	1541.95
757.772	1578.81
757.956	1482.56
758.14	1570.62
758.323	1453.89
758.507	1486.65
758.691	1541.95
758.875	1529.66
759.059	1474.37
759.242	1511.23
759.426	1406.78
759.61	1400.64
759.794	1417.02
759.977	1494.85
760.161	1466.17
760.345	1431.36
760.528	1398.59
760.712	1320.77
760.895	1386.3
761.079	1464.13
761.263	1333.06
761.446	1283.91
761.63	1386.3
761.813	1441.6
761.997	1320.77
762.18	1380.16
762.364	1326.91
762.547	1300.29
762.731	1269.57
762.914	1300.29
763.098	1310.53
763.281	1349.44
763.464	1306.43
763.648	1232.71
763.831	1271.62
764.015	1189.7
764.198	1179.46
764.381	1290.05
764.564	1275.71
764.748	1259.33
764.931	1320.77
765.114	1169.22
765.297	1324.87
765.481	1222.47
765.664	1173.32
765.847	1232.71
766.03	1230.66
766.213	1214.27
766.397	1199.94
766.58	1220.42
766.763	1208.13
766.946	1144.64
767.129	1150.79
767.312	1154.88
767.495	1171.27
767.678	1271.62
767.861	1158.98
768.044	1201.99
768.227	1118.02
768.41	1128.26
768.593	1204.03
768.776	1034.05
768.959	1152.84
769.142	1144.64
769.324	1142.6
769.507	1103.68
769.69	1132.36
769.873	1142.6
770.056	1054.53
770.239	1077.06
770.421	1087.3
770.604	1087.3
770.787	1062.73
770.97	1046.34
771.152	968.52
771.335	1101.64
771.518	1101.64
771.7	1113.92
771.883	1066.82
772.066	1013.57
772.248	1021.77
772.431	1134.4
772.613	1015.62
772.796	1038.15
772.978	995.14
773.161	1034.05
773.343	995.14
773.526	976.71
773.708	978.76
773.891	1050.44
774.073	1011.53
774.256	894.79
774.438	978.76
774.621	958.28
774.803	917.32
774.985	966.47
775.168	898.89
775.35	923.46
775.532	907.08
775.715	878.41
775.897	923.46
776.079	929.61
776.261	923.46
776.444	995.14
776.626	886.6
776.808	857.93
776.99	853.83
777.173	890.7
777.355	829.26
777.537	855.88
777.719	837.45
777.901	902.98
778.083	823.11
778.265	870.22
778.447	857.93
778.629	747.34
778.811	831.3
778.993	735.05
779.175	876.36
779.357	843.59
779.539	790.35
779.721	808.78
779.903	737.1
780.085	755.53
780.267	737.1
780.449	749.39
780.631	724.81
780.812	749.39
780.994	743.24
781.176	741.19
781.358	751.43
781.54	694.09
781.721	649.04
781.903	681.8
782.085	714.57
782.267	685.9
782.448	649.04
782.63	646.99
782.812	710.47
782.993	661.32
783.175	673.61
783.357	558.92
783.538	626.51
783.72	614.22
783.901	636.75
784.083	722.76
784.264	741.19
784.446	649.04
784.627	685.9
784.809	667.47
784.99	628.56
785.172	616.27
785.353	601.93
785.535	673.61
785.716	585.55
785.897	587.6
786.079	599.88
786.26	620.36
786.441	599.88
786.623	530.25
786.804	460.62
786.985	616.27
787.167	587.6
787.348	485.2
787.529	563.02
787.71	532.3
787.891	569.16
788.073	511.82
788.254	487.25
788.435	581.45
788.616	474.96
788.797	511.82
788.978	452.43
789.159	532.3
789.34	495.44
789.522	474.96
789.703	552.78
789.884	503.63
790.065	489.29
790.246	513.87
790.427	477.01
790.607	444.24
790.788	472.91
790.969	487.25
791.15	472.91
791.331	477.01
791.512	526.16
791.693	427.85
791.874	413.52
792.054	489.29
792.235	472.91
792.416	493.39
792.597	419.66
792.778	456.53
792.958	397.14
793.139	399.18
793.32	395.09
793.5	431.95
793.681	415.57
793.862	356.18
794.042	448.33
794.223	438.09
794.404	460.62
794.584	321.36
794.765	425.81
794.945	413.52
795.126	395.09
795.306	395.09
795.487	335.7
795.667	384.85
795.848	266.07
796.028	370.51
796.209	382.8
796.389	438.09
796.57	384.85
796.75	309.07
796.93	370.51
797.111	360.27
797.291	317.26
797.471	339.79
797.652	327.5
797.832	354.13
798.012	345.94
798.192	323.41
798.373	347.98
798.553	356.18
798.733	374.61
798.913	307.02
799.093	296.78
799.274	356.18
799.454	399.18
799.634	325.46
799.814	440.14
799.994	368.46
800.174	321.36
800.354	337.74
800.534	280.4
800.714	333.65
800.894	317.26
801.074	339.79
801.254	257.87
801.434	395.09
801.614	315.22
801.794	257.87
801.974	771.91
802.154	313.17
802.334	264.02
802.514	259.92
802.693	272.21
802.873	218.96
803.053	362.32
803.233	350.03
803.413	288.59
803.592	372.56
803.772	284.5
803.952	315.22
804.131	288.59
804.311	280.4
804.491	249.68
804.67	241.49
804.85	304.98
805.03	290.64
805.209	345.94
805.389	255.83
805.568	200.53
805.748	204.63
805.928	298.83
806.107	251.73
806.287	286.54
806.466	243.54
806.646	257.87
806.825	261.97
807.004	268.11
807.184	216.91
807.363	345.94
807.543	264.02
807.722	198.48
807.901	288.59
808.081	296.78
808.26	218.96
808.439	218.96
808.619	286.54
808.798	239.44
808.977	145.24
809.156	257.87
809.336	239.44
809.515	245.59
809.694	341.84
809.873	315.22
810.052	251.73
810.231	247.63
810.411	245.59
810.59	278.35
810.769	274.26
810.948	196.43
811.127	118.61
811.306	206.67
811.485	216.91
811.664	223.06
811.843	253.78
812.022	233.3
812.201	208.72
812.38	214.87
812.559	130.9
812.737	284.5
812.916	167.76
813.095	214.87
813.274	214.87
813.453	241.49
813.632	128.85
813.811	239.44
813.989	208.72
814.168	237.39
814.347	198.48
814.526	173.91
814.704	210.77
814.883	296.78
815.062	163.67
815.24	210.77
815.419	210.77
815.598	182.1
815.776	171.86
815.955	169.81
816.133	141.14
816.312	159.57
816.49	175.95
816.669	153.43
816.847	155.47
817.026	257.87
817.204	116.56
817.383	196.43
817.561	188.24
817.74	218.96
817.918	96.08
818.097	108.37
818.275	149.33
818.453	132.95
818.632	102.23
818.81	200.53
818.988	235.35
819.167	157.52
819.345	165.71
819.523	163.67
819.701	192.34
819.879	188.24
820.058	159.57
820.236	128.85
820.414	89.94
820.592	126.8
820.77	108.37
820.948	116.56
821.127	194.39
821.305	175.95
821.483	87.89
821.661	202.58
821.839	169.81
822.017	182.1
822.195	67.41
822.373	182.1
822.551	79.7
822.729	161.62
822.907	94.04
823.085	147.28
823.262	94.04
823.44	167.76
823.618	112.47
823.796	122.71
823.974	104.28
824.152	130.9
824.329	77.65
824.507	200.53
824.685	149.33
824.863	188.24
825.04	135
825.218	100.18
825.396	157.52
825.574	171.86
825.751	94.04
825.929	116.56
826.107	130.9
826.284	83.8
826.462	147.28
826.639	178
826.817	102.23
826.994	94.04
827.172	30.55
827.349	165.71
827.527	120.66
827.704	175.95
827.882	130.9
828.059	96.08
828.237	137.04
828.414	143.19
828.591	61.27
828.769	137.04
828.946	100.18
829.124	118.61
829.301	194.39
829.478	161.62
829.655	79.7
829.833	120.66
830.01	194.39
830.187	132.95
830.364	157.52
830.542	167.76
830.719	139.09
830.896	110.42
831.073	198.48
831.25	153.43
831.427	151.38
831.604	114.52
831.782	128.85
831.959	96.08
832.136	173.91
832.313	87.89
832.49	40.79
832.667	63.32
832.844	10.07
833.021	108.37
833.198	110.42
833.374	169.81
833.551	83.8
833.728	112.47
833.905	132.95
834.082	186.19
834.259	55.12
834.436	141.14
834.612	26.45
834.789	96.08
834.966	87.89
835.143	46.93
835.319	118.61
835.496	141.14
835.673	114.52
835.85	130.9
836.026	55.12
836.203	38.74
836.38	14.17
836.556	75.6
836.733	85.84
836.909	42.84
837.086	42.84
837.262	94.04
837.439	173.91
837.616	24.4
837.792	87.89
837.968	104.28
838.145	67.41
838.321	128.85
838.498	128.85
838.674	104.28
838.851	83.8
839.027	57.17
839.203	10.07
839.38	159.57
839.556	100.18
839.732	130.9
839.909	63.32
840.085	53.08
840.261	67.41
840.437	96.08
840.614	108.37
840.79	94.04
840.966	55.12
841.142	3.93
841.318	75.6
841.494	63.32
841.671	42.84
841.847	57.17
842.023	5.97
842.199	122.71
842.375	130.9
842.551	34.64
842.727	96.08
842.903	149.33
843.079	40.79
843.255	106.32
843.431	112.47
843.607	100.18
843.783	108.37
843.959	59.22
844.134	155.47
844.31	186.19
844.486	26.45
844.662	69.46
844.838	67.41
845.013	91.99
845.189	28.5
845.365	65.36
845.541	22.36
845.716	65.36
845.892	53.08
846.068	110.42
846.244	14.17
846.419	87.89
846.595	83.8
846.77	110.42
846.946	8.02
847.122	122.71
847.297	22.36
847.473	53.08
847.648	-53.42
847.824	91.99
847.999	46.93
848.175	57.17
848.35	42.84
848.526	67.41
848.701	85.84
848.876	46.93
849.052	128.85
849.227	20.31
849.403	26.45
849.578	-6.31
849.753	42.84
849.929	83.8
850.104	30.55
850.279	96.08
850.454	79.7
850.63	38.74
850.805	20.31
850.98	46.93
851.155	-6.31
851.33	40.79
851.505	18.26
851.681	53.08
851.856	36.69
852.031	14.17
852.206	89.94
852.381	83.8
852.556	65.36
852.731	59.22
852.906	-2.22
853.081	83.8
853.256	46.93
853.431	42.84
853.606	67.41
853.781	14.17
853.956	71.51
854.131	53.08
854.305	5.97
854.48	18.26
854.655	42.84
854.83	55.12
855.005	22.36
855.18	79.7
855.354	20.31
855.529	26.45
855.704	55.12
855.879	91.99
856.053	42.84
856.228	46.93
856.403	-12.46
856.577	34.64
856.752	42.84
856.926	65.36
857.101	5.97
857.276	59.22
857.45	10.07
857.625	104.28
857.799	59.22
857.974	91.99
858.148	28.5
858.323	14.17
858.497	38.74
858.672	55.12
858.846	53.08
859.02	61.27
859.195	51.03
859.369	26.45
859.543	-14.51
859.718	65.36
859.892	96.08
860.066	51.03
860.241	44.88
860.415	48.98
860.589	-14.51
860.763	73.56
860.938	-4.27
861.112	26.45
861.286	10.07
861.46	-0.17
861.634	102.23
861.808	-2.22
861.982	69.46
862.157	16.21
862.331	-8.36
862.505	12.12
862.679	38.74
862.853	155.47
863.027	-22.7
863.201	38.74
863.375	71.51
863.549	48.98
863.722	61.27
863.896	59.22
864.07	10.07
864.244	-4.27
864.418	106.32
864.592	100.18
864.766	-6.31
864.939	-18.6
865.113	36.69
865.287	-2.22
865.461	51.03
865.634	69.46
865.808	-0.17
865.982	61.27
866.156	3.93
866.329	-18.6
866.503	22.36
866.676	55.12
866.85	-51.37
867.024	-2.22
867.197	59.22
867.371	67.41
867.544	100.18
867.718	67.41
867.891	-20.65
868.065	48.98
868.238	32.6
868.412	85.84
868.585	59.22
868.759	51.03
868.932	36.69
869.105	34.64
869.279	53.08
869.452	-14.51
869.625	61.27
869.799	1.88
869.972	26.45
870.145	12.12
870.319	-34.99
870.492	44.88
870.665	-2.22
870.838	-10.41
871.011	14.17
871.185	53.08
871.358	24.4
871.531	63.32
871.704	-6.31
871.877	40.79
872.05	77.65
872.223	10.07
872.396	16.21
872.569	51.03
872.742	3.93
872.915	-59.56
873.088	3.93
873.261	-43.18
873.434	-8.36
873.607	20.31
873.78	12.12
873.953	42.84
874.126	67.41
874.299	59.22
874.471	-0.17
874.644	28.5
874.817	16.21
874.99	59.22
875.163	44.88
875.335	5.97
875.508	28.5
875.681	-6.31
875.853	-57.51
876.026	3.93
876.199	-12.46
876.371	57.17
876.544	3.93
876.717	-18.6
876.889	14.17
877.062	22.36
877.234	-30.89
877.407	30.55
877.579	14.17
877.752	42.84
877.924	-26.79
878.097	-4.27
878.269	51.03
878.442	20.31
878.614	26.45
878.786	38.74
878.959	-34.99
879.131	51.03
879.303	46.93
879.476	75.6
879.648	5.97
879.82	18.26
879.993	-45.23
880.165	30.55
880.337	61.27
880.509	-14.51
880.681	-47.27
880.854	1.88
881.026	-4.27
881.198	151.38
881.37	-8.36
881.542	20.31
881.714	-26.79
881.886	69.46
882.058	-0.17
882.23	-2.22
882.402	-14.51
882.574	12.12
882.746	73.56
882.918	63.32
883.09	51.03
883.262	24.4
883.434	75.6
883.606	-28.84
883.778	87.89
883.95	-14.51
884.122	-32.94
884.293	26.45
884.465	-20.65
884.637	8.02
884.809	-2.22
884.98	102.23
885.152	40.79
885.324	67.41
885.496	-14.51
885.667	-8.36
885.839	-20.65
886.011	61.27
886.182	83.8
886.354	-0.17
886.525	22.36
886.697	61.27
886.869	-16.55
887.04	28.5
887.212	85.84
887.383	46.93
887.555	-14.51
887.726	48.98
887.897	-41.13
888.069	-26.79
888.24	8.02
888.412	20.31
888.583	14.17
888.754	51.03
888.926	10.07
889.097	5.97
889.268	36.69
889.44	94.04
889.611	24.4
889.782	-4.27
889.953	-53.42
890.125	10.07
890.296	16.21
890.467	36.69
890.638	-26.79
890.809	8.02
890.98	-34.99
891.151	59.22
891.323	18.26
891.494	16.21
891.665	22.36
891.836	-12.46
892.007	-37.03
892.178	71.51
892.349	71.51
892.52	-4.27
892.691	-2.22
892.862	-6.31
893.032	20.31
893.203	53.08
893.374	-39.08
893.545	83.8
893.716	18.26
893.887	-20.65
894.057	-12.46
894.228	53.08
894.399	-2.22
894.57	26.45
894.74	-8.36
894.911	-8.36
895.082	-8.36
895.253	-6.31
895.423	34.64
895.594	96.08
895.764	44.88
895.935	-49.32
896.106	-28.84
896.276	-20.65
896.447	8.02
896.617	38.74
896.788	55.12
896.958	-10.41
897.129	18.26
897.299	-22.7
897.47	46.93
897.64	-12.46
897.81	-4.27
897.981	38.74
898.151	-57.51
898.322	63.32
898.492	-14.51
898.662	-2.22
898.832	14.17
899.003	14.17
899.173	-12.46
899.343	28.5
899.513	20.31
